,Gyro 0,Gyro 1,Gyro 2,Label,Orientation 0,Orientation 1,Orientation 2,Orientation 3,Sensor 0,Sensor 1,Sensor 2,Sensor 3,Sensor 4,Sensor 5,Sensor 6,Sensor 7,Timestamp
0,46.0,-19.0,15.0,0.0,4105.0,-1953.0,-11144.0,-11117.0,-4.0,-2.0,-5.0,-3.0,1.0,1.0,0.0,-4.0,2.1457672119140625e-06
1,46.0,-19.0,15.0,0.0,4105.0,-1953.0,-11144.0,-11117.0,-2.0,-1.0,1.0,-1.0,0.0,11.0,1.0,2.0,0.0024259090423583984
2,46.0,-19.0,15.0,0.0,4105.0,-1953.0,-11144.0,-11117.0,-5.0,-11.0,-20.0,-54.0,-20.0,-14.0,-8.0,-10.0,0.0044329166412353516
3,46.0,-19.0,15.0,0.0,4105.0,-1953.0,-11144.0,-11117.0,7.0,1.0,-11.0,-10.0,-6.0,8.0,-2.0,3.0,0.006497621536254883
4,46.0,-19.0,15.0,0.0,4105.0,-1953.0,-11144.0,-11117.0,-1.0,1.0,2.0,17.0,6.0,4.0,3.0,3.0,0.008632183074951172
5,88.0,-22.0,11.0,0.0,4103.0,-1951.0,-11157.0,-11106.0,-1.0,1.0,2.0,17.0,6.0,4.0,3.0,3.0,0.010865211486816406
6,88.0,-22.0,11.0,0.0,4103.0,-1951.0,-11157.0,-11106.0,-2.0,-3.0,-1.0,2.0,2.0,-1.0,-3.0,-5.0,0.013076305389404297
7,88.0,-22.0,11.0,0.0,4103.0,-1951.0,-11157.0,-11106.0,1.0,9.0,5.0,-8.0,-5.0,-20.0,-7.0,-2.0,0.014884233474731445
8,-43.0,-21.0,-3.0,0.0,4092.0,-1956.0,-11162.0,-11104.0,1.0,9.0,5.0,-8.0,-5.0,-20.0,-7.0,-2.0,0.016714096069335938
9,-43.0,-21.0,-3.0,0.0,4092.0,-1956.0,-11162.0,-11104.0,-1.0,-3.0,-6.0,-7.0,-5.0,-5.0,0.0,-2.0,0.018624305725097656
10,-43.0,-21.0,-3.0,0.0,4092.0,-1956.0,-11162.0,-11104.0,1.0,-3.0,-1.0,10.0,7.0,8.0,2.0,2.0,0.020745277404785156
11,-39.0,-9.0,1.0,0.0,4089.0,-1957.0,-11157.0,-11109.0,1.0,-3.0,-1.0,10.0,7.0,8.0,2.0,2.0,0.022755146026611328
12,-39.0,-9.0,1.0,0.0,4089.0,-1957.0,-11157.0,-11109.0,-3.0,-7.0,0.0,14.0,0.0,-4.0,-3.0,-3.0,0.02483367919921875
13,-39.0,-9.0,1.0,0.0,4089.0,-1957.0,-11157.0,-11109.0,3.0,6.0,16.0,19.0,43.0,-1.0,0.0,-4.0,0.026632308959960938
14,-10.0,-9.0,-1.0,0.0,4089.0,-1957.0,-11157.0,-11110.0,3.0,6.0,16.0,19.0,43.0,-1.0,0.0,-4.0,0.02840447425842285
15,-10.0,-9.0,-1.0,0.0,4089.0,-1957.0,-11157.0,-11110.0,-3.0,-4.0,-2.0,-46.0,-30.0,-1.0,2.0,1.0,0.03023552894592285
16,-10.0,-9.0,-1.0,0.0,4089.0,-1957.0,-11157.0,-11110.0,1.0,-4.0,2.0,11.0,7.0,8.0,5.0,8.0,0.032842159271240234
17,37.0,12.0,-3.0,0.0,4087.0,-1951.0,-11164.0,-11104.0,1.0,-4.0,2.0,11.0,7.0,8.0,5.0,8.0,0.036186933517456055
18,37.0,12.0,-3.0,0.0,4087.0,-1951.0,-11164.0,-11104.0,-1.0,3.0,-3.0,17.0,4.0,-2.0,0.0,-4.0,0.03820466995239258
19,37.0,12.0,-3.0,0.0,4087.0,-1951.0,-11164.0,-11104.0,-2.0,1.0,0.0,-9.0,-9.0,0.0,-2.0,-2.0,0.03998756408691406
20,-26.0,8.0,5.0,0.0,4087.0,-1951.0,-11161.0,-11107.0,-2.0,1.0,0.0,-9.0,-9.0,0.0,-2.0,-2.0,0.04176187515258789
21,-26.0,8.0,5.0,0.0,4087.0,-1951.0,-11161.0,-11107.0,3.0,-2.0,-7.0,0.0,-5.0,-4.0,-1.0,9.0,0.04363059997558594
22,-26.0,8.0,5.0,0.0,4087.0,-1951.0,-11161.0,-11107.0,4.0,14.0,18.0,-11.0,-10.0,-3.0,-3.0,-2.0,0.04540371894836426
23,-19.0,8.0,8.0,0.0,4089.0,-1951.0,-11158.0,-11109.0,4.0,14.0,18.0,-11.0,-10.0,-3.0,-3.0,-2.0,0.04716086387634277
24,-19.0,8.0,8.0,0.0,4089.0,-1951.0,-11158.0,-11109.0,2.0,7.0,5.0,-6.0,7.0,-6.0,0.0,-3.0,0.04914736747741699
25,-19.0,8.0,8.0,0.0,4089.0,-1951.0,-11158.0,-11109.0,-2.0,-6.0,-7.0,8.0,-5.0,6.0,2.0,0.0,0.05158877372741699
26,28.0,10.0,17.0,0.0,4091.0,-1950.0,-11163.0,-11104.0,-2.0,-6.0,-7.0,8.0,-5.0,6.0,2.0,0.0,0.05424356460571289
27,28.0,10.0,17.0,0.0,4091.0,-1950.0,-11163.0,-11104.0,-1.0,-1.0,-1.0,2.0,-2.0,-2.0,-1.0,-3.0,0.05667901039123535
28,28.0,10.0,17.0,0.0,4091.0,-1950.0,-11163.0,-11104.0,-1.0,-2.0,-3.0,-1.0,-9.0,0.0,-1.0,-1.0,0.0587162971496582
29,-29.0,3.0,18.0,0.0,4092.0,-1953.0,-11161.0,-11106.0,-1.0,-2.0,-3.0,-1.0,-9.0,0.0,-1.0,-1.0,0.06076192855834961
30,-29.0,3.0,18.0,0.0,4092.0,-1953.0,-11161.0,-11106.0,-3.0,-12.0,-10.0,24.0,22.0,3.0,-1.0,-4.0,0.0626835823059082
31,-29.0,3.0,18.0,0.0,4092.0,-1953.0,-11161.0,-11106.0,-2.0,0.0,6.0,0.0,6.0,-24.0,-4.0,0.0,0.06451559066772461
32,-37.0,14.0,29.0,0.0,4096.0,-1955.0,-11156.0,-11109.0,-2.0,0.0,6.0,0.0,6.0,-24.0,-4.0,0.0,0.06642031669616699
33,-37.0,14.0,29.0,0.0,4096.0,-1955.0,-11156.0,-11109.0,-2.0,-2.0,0.0,6.0,-13.0,-1.0,0.0,-1.0,0.06841325759887695
34,-37.0,14.0,29.0,0.0,4096.0,-1955.0,-11156.0,-11109.0,-1.0,-3.0,-5.0,-4.0,-4.0,10.0,1.0,1.0,0.07019782066345215
35,0.0,1.0,32.0,0.0,4098.0,-1958.0,-11158.0,-11106.0,-1.0,-3.0,-5.0,-4.0,-4.0,10.0,1.0,1.0,0.07200860977172852
36,0.0,1.0,32.0,0.0,4098.0,-1958.0,-11158.0,-11106.0,-2.0,-1.0,0.0,2.0,0.0,-1.0,-1.0,-10.0,0.07386946678161621
37,0.0,1.0,32.0,0.0,4098.0,-1958.0,-11158.0,-11106.0,5.0,7.0,5.0,14.0,-14.0,4.0,1.0,1.0,0.07571768760681152
38,-44.0,-8.0,24.0,0.0,4099.0,-1964.0,-11154.0,-11108.0,5.0,7.0,5.0,14.0,-14.0,4.0,1.0,1.0,0.07750558853149414
39,-44.0,-8.0,24.0,0.0,4099.0,-1964.0,-11154.0,-11108.0,-1.0,-1.0,2.0,-4.0,-48.0,-28.0,-8.0,-2.0,0.0793602466583252
40,-44.0,-8.0,24.0,0.0,4099.0,-1964.0,-11154.0,-11108.0,-3.0,-6.0,-5.0,20.0,8.0,-3.0,-1.0,0.0,0.08172297477722168
41,-2.0,5.0,20.0,0.0,4101.0,-1966.0,-11154.0,-11107.0,-3.0,-6.0,-5.0,20.0,8.0,-3.0,-1.0,0.0,0.08405208587646484
42,-2.0,5.0,20.0,0.0,4101.0,-1966.0,-11154.0,-11107.0,0.0,1.0,9.0,-5.0,13.0,11.0,4.0,4.0,0.08611559867858887
43,-2.0,5.0,20.0,0.0,4101.0,-1966.0,-11154.0,-11107.0,-3.0,-1.0,-7.0,-10.0,-2.0,2.0,2.0,-3.0,0.0879201889038086
44,-6.0,-9.0,19.0,0.0,4101.0,-1970.0,-11155.0,-11105.0,-3.0,-1.0,-7.0,-10.0,-2.0,2.0,2.0,-3.0,0.08970260620117188
45,-6.0,-9.0,19.0,0.0,4101.0,-1970.0,-11155.0,-11105.0,2.0,2.0,2.0,19.0,31.0,6.0,2.0,2.0,0.09161996841430664
46,-6.0,-9.0,19.0,0.0,4101.0,-1970.0,-11155.0,-11105.0,0.0,-6.0,-8.0,-13.0,-33.0,-2.0,-2.0,-7.0,0.09342193603515625
47,-20.0,-8.0,19.0,0.0,4101.0,-1973.0,-11154.0,-11105.0,0.0,-6.0,-8.0,-13.0,-33.0,-2.0,-2.0,-7.0,0.09534525871276855
48,-20.0,-8.0,19.0,0.0,4101.0,-1973.0,-11154.0,-11105.0,-3.0,0.0,-6.0,-1.0,2.0,5.0,-3.0,-6.0,0.09763073921203613
49,-20.0,-8.0,19.0,0.0,4101.0,-1973.0,-11154.0,-11105.0,-3.0,0.0,1.0,-2.0,8.0,4.0,0.0,-1.0,0.09964609146118164
50,1.0,-13.0,19.0,0.0,4101.0,-1977.0,-11156.0,-11103.0,-3.0,0.0,1.0,-2.0,8.0,4.0,0.0,-1.0,0.1016244888305664
51,1.0,-13.0,19.0,0.0,4101.0,-1977.0,-11156.0,-11103.0,-4.0,-3.0,-7.0,4.0,-3.0,-2.0,-2.0,0.0,0.10358262062072754
52,1.0,-13.0,19.0,0.0,4101.0,-1977.0,-11156.0,-11103.0,3.0,9.0,21.0,30.0,8.0,-3.0,1.0,4.0,0.10539793968200684
53,2.0,-21.0,15.0,0.0,4099.0,-1981.0,-11158.0,-11101.0,3.0,9.0,21.0,30.0,8.0,-3.0,1.0,4.0,0.10718727111816406
54,2.0,-21.0,15.0,0.0,4099.0,-1981.0,-11158.0,-11101.0,-1.0,-3.0,-9.0,-7.0,-10.0,-11.0,-9.0,-3.0,0.10904526710510254
55,2.0,-21.0,15.0,0.0,4099.0,-1981.0,-11158.0,-11101.0,-2.0,-8.0,-16.0,-7.0,-4.0,-1.0,-2.0,-1.0,0.11080360412597656
56,27.0,-12.0,22.0,0.0,4099.0,-1982.0,-11163.0,-11095.0,-2.0,-8.0,-16.0,-7.0,-4.0,-1.0,-2.0,-1.0,0.11268401145935059
57,27.0,-12.0,22.0,0.0,4099.0,-1982.0,-11163.0,-11095.0,-2.0,0.0,8.0,2.0,6.0,8.0,4.0,2.0,0.11513018608093262
58,27.0,-12.0,22.0,0.0,4099.0,-1982.0,-11163.0,-11095.0,1.0,-2.0,-4.0,4.0,-2.0,2.0,-1.0,2.0,0.11713957786560059
59,2.0,-26.0,25.0,0.0,4097.0,-1987.0,-11166.0,-11092.0,1.0,-2.0,-4.0,4.0,-2.0,2.0,-1.0,2.0,0.11911273002624512
60,2.0,-26.0,25.0,0.0,4097.0,-1987.0,-11166.0,-11092.0,2.0,7.0,10.0,-14.0,-8.0,3.0,2.0,1.0,0.12281489372253418
61,2.0,-26.0,25.0,0.0,4097.0,-1987.0,-11166.0,-11092.0,-1.0,-4.0,0.0,-6.0,7.0,1.0,-3.0,-2.0,0.12497949600219727
62,-10.0,-25.0,24.0,0.0,4096.0,-1993.0,-11165.0,-11092.0,-1.0,-4.0,0.0,-6.0,7.0,1.0,-3.0,-2.0,0.1267681121826172
63,-10.0,-25.0,24.0,0.0,4096.0,-1993.0,-11165.0,-11092.0,-1.0,3.0,3.0,4.0,4.0,-3.0,0.0,1.0,0.1286182403564453
64,-10.0,-25.0,24.0,0.0,4096.0,-1993.0,-11165.0,-11092.0,2.0,1.0,-6.0,-10.0,-21.0,-2.0,0.0,0.0,0.13037848472595215
65,-7.0,-29.0,28.0,0.0,4096.0,-2000.0,-11165.0,-11092.0,2.0,1.0,-6.0,-10.0,-21.0,-2.0,0.0,0.0,0.13215017318725586
66,-7.0,-29.0,28.0,0.0,4096.0,-2000.0,-11165.0,-11092.0,0.0,-2.0,-16.0,21.0,0.0,0.0,1.0,2.0,0.13397979736328125
67,-7.0,-29.0,28.0,0.0,4096.0,-2000.0,-11165.0,-11092.0,-5.0,-4.0,-4.0,-14.0,-16.0,5.0,-1.0,-1.0,0.13575053215026855
68,-3.0,-25.0,29.0,0.0,4096.0,-2005.0,-11166.0,-11090.0,-5.0,-4.0,-4.0,-14.0,-16.0,5.0,-1.0,-1.0,0.13753700256347656
69,-3.0,-25.0,29.0,0.0,4096.0,-2005.0,-11166.0,-11090.0,0.0,-5.0,-4.0,-1.0,-10.0,-9.0,-9.0,-6.0,0.1394054889678955
70,-3.0,-25.0,29.0,0.0,4096.0,-2005.0,-11166.0,-11090.0,-2.0,-1.0,11.0,3.0,18.0,6.0,2.0,-1.0,0.1411895751953125
71,-6.0,-24.0,36.0,0.0,4095.0,-2012.0,-11166.0,-11088.0,-2.0,-1.0,11.0,3.0,18.0,6.0,2.0,-1.0,0.14310097694396973
72,-6.0,-24.0,36.0,0.0,4095.0,-2012.0,-11166.0,-11088.0,2.0,-2.0,1.0,-20.0,3.0,3.0,2.0,1.0,0.14625954627990723
73,-6.0,-24.0,36.0,0.0,4095.0,-2012.0,-11166.0,-11088.0,1.0,-2.0,-13.0,-48.0,10.0,-11.0,0.0,1.0,0.14812731742858887
74,-4.0,-27.0,43.0,0.0,4096.0,-2019.0,-11167.0,-11086.0,1.0,-2.0,-13.0,-48.0,10.0,-11.0,0.0,1.0,0.1499006748199463
75,-4.0,-27.0,43.0,0.0,4096.0,-2019.0,-11167.0,-11086.0,0.0,0.0,-6.0,4.0,8.0,0.0,-1.0,-2.0,0.1517789363861084
76,-4.0,-27.0,43.0,0.0,4096.0,-2019.0,-11167.0,-11086.0,2.0,1.0,10.0,18.0,3.0,3.0,3.0,2.0,0.1535484790802002
77,1.0,-19.0,50.0,0.0,4098.0,-2026.0,-11168.0,-11083.0,2.0,1.0,10.0,18.0,3.0,3.0,3.0,2.0,0.15532493591308594
78,1.0,-19.0,50.0,0.0,4098.0,-2026.0,-11168.0,-11083.0,1.0,-3.0,-1.0,-16.0,2.0,-1.0,0.0,1.0,0.1572272777557373
79,1.0,-19.0,50.0,0.0,4098.0,-2026.0,-11168.0,-11083.0,-4.0,-3.0,-3.0,2.0,8.0,3.0,-2.0,-1.0,0.15898942947387695
80,-13.0,-22.0,49.0,0.0,4100.0,-2035.0,-11167.0,-11081.0,-4.0,-3.0,-3.0,2.0,8.0,3.0,-2.0,-1.0,0.16148853302001953
81,-13.0,-22.0,49.0,0.0,4100.0,-2035.0,-11167.0,-11081.0,-2.0,3.0,13.0,-4.0,-25.0,-16.0,-2.0,1.0,0.16367387771606445
82,-13.0,-22.0,49.0,0.0,4100.0,-2035.0,-11167.0,-11081.0,0.0,1.0,-3.0,1.0,-6.0,0.0,-1.0,1.0,0.16562318801879883
83,3.0,-30.0,45.0,0.0,4101.0,-2043.0,-11169.0,-11078.0,0.0,1.0,-3.0,1.0,-6.0,0.0,-1.0,1.0,0.16768360137939453
84,3.0,-30.0,45.0,0.0,4101.0,-2043.0,-11169.0,-11078.0,1.0,4.0,-5.0,23.0,7.0,9.0,3.0,1.0,0.16994619369506836
85,3.0,-30.0,45.0,0.0,4101.0,-2043.0,-11169.0,-11078.0,-1.0,-1.0,-7.0,-8.0,-20.0,-3.0,-4.0,-3.0,0.1717996597290039
86,25.0,-37.0,40.0,0.0,4101.0,-2051.0,-11174.0,-11071.0,-1.0,-1.0,-7.0,-8.0,-20.0,-3.0,-4.0,-3.0,0.17371749877929688
87,25.0,-37.0,40.0,0.0,4101.0,-2051.0,-11174.0,-11071.0,-1.0,-2.0,0.0,-7.0,-2.0,-5.0,1.0,-1.0,0.17664885520935059
88,25.0,-37.0,40.0,0.0,4101.0,-2051.0,-11174.0,-11071.0,1.0,5.0,14.0,10.0,6.0,0.0,-1.0,0.0,0.17876768112182617
89,25.0,-29.0,46.0,0.0,4103.0,-2058.0,-11178.0,-11065.0,1.0,5.0,14.0,10.0,6.0,0.0,-1.0,0.0,0.1805884838104248
90,25.0,-29.0,46.0,0.0,4103.0,-2058.0,-11178.0,-11065.0,-2.0,-1.0,-4.0,-10.0,17.0,-6.0,0.0,0.0,0.18242907524108887
91,25.0,-29.0,46.0,0.0,4103.0,-2058.0,-11178.0,-11065.0,-1.0,-4.0,-3.0,-2.0,-4.0,-2.0,-1.0,-4.0,0.1846606731414795
92,1.0,-10.0,58.0,0.0,4107.0,-2066.0,-11180.0,-11060.0,-1.0,-4.0,-3.0,-2.0,-4.0,-2.0,-1.0,-4.0,0.1867077350616455
93,1.0,-10.0,58.0,0.0,4107.0,-2066.0,-11180.0,-11060.0,-1.0,0.0,11.0,34.0,5.0,3.0,1.0,2.0,0.1888751983642578
94,1.0,-10.0,58.0,0.0,4107.0,-2066.0,-11180.0,-11060.0,-2.0,-3.0,-6.0,13.0,15.0,-6.0,-2.0,-1.0,0.19067835807800293
95,8.0,-17.0,48.0,0.0,4109.0,-2072.0,-11183.0,-11056.0,-2.0,-3.0,-6.0,13.0,15.0,-6.0,-2.0,-1.0,0.19247221946716309
96,8.0,-17.0,48.0,0.0,4109.0,-2072.0,-11183.0,-11056.0,-4.0,-1.0,10.0,3.0,9.0,3.0,0.0,-2.0,0.1943347454071045
97,8.0,-17.0,48.0,0.0,4109.0,-2072.0,-11183.0,-11056.0,-3.0,1.0,-13.0,-2.0,-3.0,-8.0,-1.0,-1.0,0.19613265991210938
98,2.0,-20.0,46.0,0.0,4110.0,-2079.0,-11185.0,-11051.0,-3.0,1.0,-13.0,-2.0,-3.0,-8.0,-1.0,-1.0,0.19791913032531738
99,2.0,-20.0,46.0,0.0,4110.0,-2079.0,-11185.0,-11051.0,0.0,0.0,-6.0,-8.0,-1.0,5.0,1.0,0.0,0.19986748695373535
100,2.0,-20.0,46.0,0.0,4110.0,-2079.0,-11185.0,-11051.0,-2.0,-4.0,5.0,2.0,9.0,5.0,2.0,-3.0,0.20168066024780273
101,-3.0,-20.0,47.0,0.0,4113.0,-2087.0,-11186.0,-11048.0,-2.0,-4.0,5.0,2.0,9.0,5.0,2.0,-3.0,0.20348095893859863
102,-3.0,-20.0,47.0,0.0,4113.0,-2087.0,-11186.0,-11048.0,-2.0,-3.0,-8.0,-15.0,-4.0,-1.0,-2.0,-2.0,0.2062702178955078
103,-3.0,-20.0,47.0,0.0,4113.0,-2087.0,-11186.0,-11048.0,2.0,-1.0,-3.0,6.0,5.0,-2.0,-3.0,-4.0,0.20833349227905273
104,-2.0,-18.0,42.0,0.0,4116.0,-2095.0,-11186.0,-11045.0,2.0,-1.0,-3.0,6.0,5.0,-2.0,-3.0,-4.0,0.21031975746154785
105,-2.0,-18.0,42.0,0.0,4116.0,-2095.0,-11186.0,-11045.0,-2.0,-3.0,-3.0,-9.0,-6.0,-4.0,-1.0,-1.0,0.2122504711151123
106,-2.0,-18.0,42.0,0.0,4116.0,-2095.0,-11186.0,-11045.0,-2.0,2.0,3.0,-3.0,-3.0,15.0,-1.0,2.0,0.2140336036682129
107,27.0,-20.0,35.0,0.0,4118.0,-2101.0,-11191.0,-11039.0,-2.0,2.0,3.0,-3.0,-3.0,15.0,-1.0,2.0,0.2158193588256836
108,27.0,-20.0,35.0,0.0,4118.0,-2101.0,-11191.0,-11039.0,1.0,2.0,-7.0,-28.0,-16.0,6.0,0.0,0.0,0.21767377853393555
109,27.0,-20.0,35.0,0.0,4118.0,-2101.0,-11191.0,-11039.0,-3.0,-4.0,-6.0,1.0,1.0,-10.0,-2.0,-1.0,0.21945691108703613
110,28.0,-3.0,40.0,0.0,4122.0,-2104.0,-11195.0,-11032.0,-3.0,-4.0,-6.0,1.0,1.0,-10.0,-2.0,-1.0,0.22126555442810059
111,28.0,-3.0,40.0,0.0,4122.0,-2104.0,-11195.0,-11032.0,-2.0,-10.0,-2.0,7.0,-11.0,-12.0,-4.0,-2.0,0.22313690185546875
112,28.0,-3.0,40.0,0.0,4122.0,-2104.0,-11195.0,-11032.0,2.0,2.0,-7.0,-32.0,-8.0,-2.0,-2.0,-2.0,0.2254042625427246
113,21.0,6.0,50.0,0.0,4128.0,-2108.0,-11197.0,-11027.0,2.0,2.0,-7.0,-32.0,-8.0,-2.0,-2.0,-2.0,0.22745585441589355
114,21.0,6.0,50.0,0.0,4128.0,-2108.0,-11197.0,-11027.0,-1.0,-1.0,3.0,-10.0,-16.0,1.0,-2.0,-1.0,0.22951483726501465
115,21.0,6.0,50.0,0.0,4128.0,-2108.0,-11197.0,-11027.0,1.0,-1.0,2.0,4.0,-4.0,-2.0,0.0,1.0,0.23131179809570312
116,28.0,22.0,53.0,0.0,4137.0,-2110.0,-11199.0,-11021.0,1.0,-1.0,2.0,4.0,-4.0,-2.0,0.0,1.0,0.23311281204223633
117,28.0,22.0,53.0,0.0,4137.0,-2110.0,-11199.0,-11021.0,1.0,4.0,15.0,5.0,8.0,-5.0,0.0,-1.0,0.23543047904968262
118,28.0,22.0,53.0,0.0,4137.0,-2110.0,-11199.0,-11021.0,-1.0,4.0,11.0,0.0,-1.0,-2.0,0.0,3.0,0.23759889602661133
119,13.0,24.0,57.0,0.0,4147.0,-2113.0,-11198.0,-11018.0,-1.0,4.0,11.0,0.0,-1.0,-2.0,0.0,3.0,0.23955345153808594
120,13.0,24.0,57.0,0.0,4147.0,-2113.0,-11198.0,-11018.0,-2.0,0.0,2.0,-1.0,3.0,5.0,1.0,0.0,0.24144530296325684
121,13.0,24.0,57.0,0.0,4147.0,-2113.0,-11198.0,-11018.0,1.0,-1.0,2.0,4.0,4.0,4.0,0.0,0.0,0.24323463439941406
122,48.0,38.0,66.0,0.0,4160.0,-2114.0,-11201.0,-11010.0,1.0,-1.0,2.0,4.0,4.0,4.0,0.0,0.0,0.24505329132080078
123,48.0,38.0,66.0,0.0,4160.0,-2114.0,-11201.0,-11010.0,-1.0,0.0,-2.0,5.0,3.0,0.0,-1.0,0.0,0.24735283851623535
124,48.0,38.0,66.0,0.0,4160.0,-2114.0,-11201.0,-11010.0,-2.0,-1.0,-1.0,-6.0,-5.0,4.0,2.0,-1.0,0.24944829940795898
125,42.0,42.0,74.0,0.0,4174.0,-2115.0,-11204.0,-11002.0,-2.0,-1.0,-1.0,-6.0,-5.0,4.0,2.0,-1.0,0.2515285015106201
126,42.0,42.0,74.0,0.0,4174.0,-2115.0,-11204.0,-11002.0,3.0,3.0,-5.0,-7.0,6.0,1.0,-1.0,0.0,0.2534184455871582
127,42.0,42.0,74.0,0.0,4174.0,-2115.0,-11204.0,-11002.0,-2.0,-3.0,1.0,16.0,5.0,5.0,-3.0,-3.0,0.25521111488342285
128,3.0,52.0,94.0,0.0,4190.0,-2118.0,-11200.0,-10998.0,-2.0,-3.0,1.0,16.0,5.0,5.0,-3.0,-3.0,0.2576155662536621
129,3.0,52.0,94.0,0.0,4190.0,-2118.0,-11200.0,-10998.0,0.0,-4.0,-10.0,-33.0,-3.0,-8.0,0.0,0.0,0.2595193386077881
130,3.0,52.0,94.0,0.0,4190.0,-2118.0,-11200.0,-10998.0,-2.0,-2.0,-1.0,-15.0,-3.0,-1.0,-2.0,-3.0,0.26154637336730957
131,-14.0,45.0,111.0,0.0,4206.0,-2124.0,-11196.0,-10996.0,-2.0,-2.0,-1.0,-15.0,-3.0,-1.0,-2.0,-3.0,0.26338720321655273
132,-14.0,45.0,111.0,0.0,4206.0,-2124.0,-11196.0,-10996.0,1.0,-2.0,-6.0,5.0,1.0,2.0,0.0,-3.0,0.2652468681335449
133,-14.0,45.0,111.0,0.0,4206.0,-2124.0,-11196.0,-10996.0,1.0,-1.0,-16.0,8.0,-2.0,7.0,2.0,2.0,0.2673220634460449
134,-24.0,30.0,106.0,0.0,4219.0,-2132.0,-11191.0,-10994.0,1.0,-1.0,-16.0,8.0,-2.0,7.0,2.0,2.0,0.26944565773010254
135,-24.0,30.0,106.0,0.0,4219.0,-2132.0,-11191.0,-10994.0,-3.0,1.0,-16.0,-8.0,-4.0,-10.0,-4.0,-3.0,0.2713484764099121
136,-24.0,30.0,106.0,0.0,4219.0,-2132.0,-11191.0,-10994.0,1.0,-3.0,-4.0,-3.0,1.0,-7.0,-4.0,-4.0,0.2731339931488037
137,-47.0,35.0,106.0,0.0,4233.0,-2143.0,-11184.0,-10994.0,1.0,-3.0,-4.0,-3.0,1.0,-7.0,-4.0,-4.0,0.2749176025390625
138,-47.0,35.0,106.0,0.0,4233.0,-2143.0,-11184.0,-10994.0,0.0,2.0,-14.0,-22.0,-7.0,3.0,0.0,-1.0,0.27677035331726074
139,-47.0,35.0,106.0,0.0,4233.0,-2143.0,-11184.0,-10994.0,-5.0,-4.0,-4.0,11.0,1.0,-12.0,-1.0,4.0,0.2785336971282959
140,-97.0,40.0,95.0,0.0,4247.0,-2156.0,-11170.0,-11000.0,-5.0,-4.0,-4.0,11.0,1.0,-12.0,-1.0,4.0,0.2803328037261963
141,-97.0,40.0,95.0,0.0,4247.0,-2156.0,-11170.0,-11000.0,1.0,-2.0,3.0,12.0,-4.0,1.0,-2.0,-4.0,0.28217220306396484
142,-97.0,40.0,95.0,0.0,4247.0,-2156.0,-11170.0,-11000.0,1.0,5.0,12.0,-6.0,-3.0,10.0,1.0,-2.0,0.28395843505859375
143,-84.0,34.0,85.0,0.0,4260.0,-2167.0,-11159.0,-11004.0,1.0,5.0,12.0,-6.0,-3.0,10.0,1.0,-2.0,0.28572988510131836
144,-84.0,34.0,85.0,0.0,4260.0,-2167.0,-11159.0,-11004.0,-3.0,-2.0,3.0,14.0,8.0,-3.0,-2.0,0.0,0.2890033721923828
145,-84.0,34.0,85.0,0.0,4260.0,-2167.0,-11159.0,-11004.0,2.0,-3.0,-14.0,-19.0,-4.0,6.0,3.0,1.0,0.2917439937591553
146,-65.0,21.0,56.0,0.0,4267.0,-2176.0,-11152.0,-11006.0,2.0,-3.0,-14.0,-19.0,-4.0,6.0,3.0,1.0,0.29354381561279297
147,-65.0,21.0,56.0,0.0,4267.0,-2176.0,-11152.0,-11006.0,-2.0,-1.0,-5.0,6.0,-3.0,6.0,-1.0,-10.0,0.2953817844390869
148,-65.0,21.0,56.0,0.0,4267.0,-2176.0,-11152.0,-11006.0,-1.0,1.0,6.0,16.0,3.0,6.0,1.0,1.0,0.2973325252532959
149,-52.0,46.0,37.0,0.0,4273.0,-2177.0,-11148.0,-11008.0,-1.0,1.0,6.0,16.0,3.0,6.0,1.0,1.0,0.3002157211303711
150,-52.0,46.0,37.0,0.0,4273.0,-2177.0,-11148.0,-11008.0,-1.0,-5.0,2.0,-2.0,-23.0,-6.0,0.0,7.0,0.30224180221557617
151,-52.0,46.0,37.0,0.0,4273.0,-2177.0,-11148.0,-11008.0,1.0,2.0,-7.0,-11.0,-1.0,-14.0,-3.0,-1.0,0.30406808853149414
152,-67.0,-5.0,39.0,0.0,4272.0,-2185.0,-11145.0,-11010.0,1.0,2.0,-7.0,-11.0,-1.0,-14.0,-3.0,-1.0,0.30586743354797363
153,-67.0,-5.0,39.0,0.0,4272.0,-2185.0,-11145.0,-11010.0,3.0,5.0,11.0,1.0,1.0,-7.0,1.0,-1.0,0.30773019790649414
154,-67.0,-5.0,39.0,0.0,4272.0,-2185.0,-11145.0,-11010.0,-4.0,-7.0,-14.0,0.0,1.0,-3.0,0.0,-4.0,0.30980896949768066
155,-58.0,-3.0,46.0,0.0,4276.0,-2195.0,-11141.0,-11010.0,-4.0,-7.0,-14.0,0.0,1.0,-3.0,0.0,-4.0,0.31204771995544434
156,-58.0,-3.0,46.0,0.0,4276.0,-2195.0,-11141.0,-11010.0,-3.0,1.0,3.0,-29.0,3.0,8.0,-1.0,0.0,0.31424450874328613
157,-58.0,-3.0,46.0,0.0,4276.0,-2195.0,-11141.0,-11010.0,7.0,7.0,29.0,13.0,-3.0,-6.0,-2.0,6.0,0.31610894203186035
158,-11.0,-24.0,45.0,0.0,4277.0,-2205.0,-11144.0,-11005.0,7.0,7.0,29.0,13.0,-3.0,-6.0,-2.0,6.0,0.3178982734680176
159,-11.0,-24.0,45.0,0.0,4277.0,-2205.0,-11144.0,-11005.0,-1.0,-3.0,-2.0,21.0,6.0,6.0,2.0,0.0,0.31978654861450195
160,-11.0,-24.0,45.0,0.0,4277.0,-2205.0,-11144.0,-11005.0,-5.0,-4.0,-10.0,-16.0,-7.0,-4.0,-4.0,-4.0,0.3215675354003906
161,35.0,-46.0,52.0,0.0,4279.0,-2218.0,-11153.0,-10993.0,-5.0,-4.0,-10.0,-16.0,-7.0,-4.0,-4.0,-4.0,0.3234233856201172
162,35.0,-46.0,52.0,0.0,4279.0,-2218.0,-11153.0,-10993.0,1.0,-1.0,4.0,11.0,7.0,7.0,2.0,3.0,0.32552266120910645
163,35.0,-46.0,52.0,0.0,4279.0,-2218.0,-11153.0,-10993.0,-5.0,-3.0,-1.0,4.0,-1.0,-2.0,0.0,-3.0,0.3273015022277832
164,61.0,-44.0,56.0,0.0,4283.0,-2230.0,-11162.0,-10979.0,-5.0,-3.0,-1.0,4.0,-1.0,-2.0,0.0,-3.0,0.32976269721984863
165,61.0,-44.0,56.0,0.0,4283.0,-2230.0,-11162.0,-10979.0,11.0,22.0,26.0,37.0,3.0,-4.0,1.0,3.0,0.3323361873626709
166,61.0,-44.0,56.0,0.0,4283.0,-2230.0,-11162.0,-10979.0,0.0,1.0,-1.0,-1.0,-4.0,-9.0,-4.0,-3.0,0.33458518981933594
167,41.0,-36.0,54.0,0.0,4287.0,-2240.0,-11168.0,-10970.0,0.0,1.0,-1.0,-1.0,-4.0,-9.0,-4.0,-3.0,0.3366539478302002
168,41.0,-36.0,54.0,0.0,4287.0,-2240.0,-11168.0,-10970.0,-7.0,-8.0,-13.0,5.0,-1.0,-1.0,-3.0,-3.0,0.33869314193725586
169,41.0,-36.0,54.0,0.0,4287.0,-2240.0,-11168.0,-10970.0,-2.0,-1.0,2.0,4.0,-1.0,2.0,0.0,0.0,0.3405287265777588
170,34.0,-40.0,57.0,0.0,4289.0,-2250.0,-11175.0,-10960.0,-2.0,-1.0,2.0,4.0,-1.0,2.0,0.0,0.0,0.34236764907836914
171,34.0,-40.0,57.0,0.0,4289.0,-2250.0,-11175.0,-10960.0,-1.0,-6.0,-5.0,-5.0,5.0,-2.0,-2.0,1.0,0.34426307678222656
172,34.0,-40.0,57.0,0.0,4289.0,-2250.0,-11175.0,-10960.0,0.0,-5.0,1.0,0.0,8.0,7.0,2.0,-1.0,0.3460550308227539
173,-26.0,-52.0,36.0,0.0,4285.0,-2261.0,-11175.0,-10960.0,0.0,-5.0,1.0,0.0,8.0,7.0,2.0,-1.0,0.3478717803955078
174,-26.0,-52.0,36.0,0.0,4285.0,-2261.0,-11175.0,-10960.0,2.0,7.0,12.0,-54.0,-6.0,-16.0,-3.0,3.0,0.3497884273529053
175,-26.0,-52.0,36.0,0.0,4285.0,-2261.0,-11175.0,-10960.0,-3.0,-7.0,-5.0,5.0,-1.0,-1.0,1.0,-4.0,0.35162997245788574
176,-68.0,-37.0,26.0,0.0,4278.0,-2269.0,-11171.0,-10964.0,-3.0,-7.0,-5.0,5.0,-1.0,-1.0,1.0,-4.0,0.3534858226776123
177,-68.0,-37.0,26.0,0.0,4278.0,-2269.0,-11171.0,-10964.0,0.0,-7.0,-4.0,9.0,3.0,8.0,0.0,-1.0,0.35534143447875977
178,-68.0,-37.0,26.0,0.0,4278.0,-2269.0,-11171.0,-10964.0,1.0,-3.0,5.0,11.0,1.0,-3.0,1.0,1.0,0.3572862148284912
179,404.0,-12.0,19.0,0.0,4267.0,-2331.0,-11183.0,-10943.0,1.0,-3.0,5.0,11.0,1.0,-3.0,1.0,1.0,0.35948657989501953
180,404.0,-12.0,19.0,0.0,4267.0,-2331.0,-11183.0,-10943.0,-3.0,0.0,12.0,6.0,4.0,-5.0,-4.0,-2.0,0.3618438243865967
181,404.0,-12.0,19.0,0.0,4267.0,-2331.0,-11183.0,-10943.0,-1.0,-1.0,-6.0,-2.0,-2.0,-1.0,1.0,0.0,0.38102197647094727
182,485.0,-22.0,-91.0,0.0,4272.0,-2302.0,-11236.0,-10893.0,-1.0,-1.0,-6.0,-2.0,-2.0,-1.0,1.0,0.0,0.38402843475341797
183,485.0,-22.0,-91.0,0.0,4272.0,-2302.0,-11236.0,-10893.0,-2.0,1.0,5.0,31.0,5.0,4.0,-1.0,0.0,0.38611531257629395
184,485.0,-22.0,-91.0,0.0,4272.0,-2302.0,-11236.0,-10893.0,0.0,-3.0,-12.0,-3.0,8.0,5.0,-2.0,1.0,0.38794565200805664
185,295.0,-17.0,-138.0,0.0,4256.0,-2262.0,-11269.0,-10874.0,0.0,-3.0,-12.0,-3.0,8.0,5.0,-2.0,1.0,0.39047861099243164
186,295.0,-17.0,-138.0,0.0,4256.0,-2262.0,-11269.0,-10874.0,1.0,8.0,5.0,2.0,2.0,0.0,2.0,0.0,0.3926675319671631
187,295.0,-17.0,-138.0,0.0,4256.0,-2262.0,-11269.0,-10874.0,-1.0,-5.0,-15.0,-9.0,-12.0,0.0,-1.0,-2.0,0.42667698860168457
188,33.0,10.0,-112.0,0.0,4233.0,-2227.0,-11269.0,-10890.0,-1.0,-5.0,-15.0,-9.0,-12.0,0.0,-1.0,-2.0,0.4301185607910156
189,33.0,10.0,-112.0,0.0,4233.0,-2227.0,-11269.0,-10890.0,-3.0,-6.0,-1.0,9.0,7.0,-1.0,-3.0,0.0,0.43325066566467285
190,33.0,10.0,-112.0,0.0,4233.0,-2227.0,-11269.0,-10890.0,-2.0,-2.0,-4.0,-45.0,-5.0,-1.0,0.0,1.0,0.43534064292907715
191,-221.0,15.0,-45.0,0.0,4208.0,-2209.0,-11239.0,-10934.0,-2.0,-2.0,-4.0,-45.0,-5.0,-1.0,0.0,1.0,0.43753504753112793
192,-221.0,15.0,-45.0,0.0,4208.0,-2209.0,-11239.0,-10934.0,1.0,0.0,2.0,-3.0,-11.0,-5.0,0.0,-4.0,0.4400136470794678
193,-221.0,15.0,-45.0,0.0,4208.0,-2209.0,-11239.0,-10934.0,-2.0,-3.0,-5.0,18.0,0.0,-2.0,0.0,-2.0,0.44187092781066895
194,-350.0,32.0,24.0,0.0,4194.0,-2206.0,-11192.0,-10989.0,-2.0,-3.0,-5.0,18.0,0.0,-2.0,0.0,-2.0,0.4542062282562256
195,-350.0,32.0,24.0,0.0,4194.0,-2206.0,-11192.0,-10989.0,0.0,-4.0,-25.0,-14.0,0.0,7.0,0.0,1.0,0.4576139450073242
196,-350.0,32.0,24.0,0.0,4194.0,-2206.0,-11192.0,-10989.0,2.0,5.0,11.0,-5.0,6.0,-13.0,-3.0,1.0,0.46089887619018555
197,-313.0,46.0,69.0,0.0,4192.0,-2212.0,-11148.0,-11032.0,2.0,5.0,11.0,-5.0,6.0,-13.0,-3.0,1.0,0.46858835220336914
198,-313.0,46.0,69.0,0.0,4192.0,-2212.0,-11148.0,-11032.0,-4.0,-3.0,3.0,-10.0,2.0,0.0,-1.0,-3.0,0.47067928314208984
199,-313.0,46.0,69.0,0.0,4192.0,-2212.0,-11148.0,-11032.0,-2.0,0.0,-1.0,12.0,5.0,11.0,4.0,0.0,0.49259519577026367
200,-127.0,68.0,81.0,0.0,4204.0,-2216.0,-11129.0,-11046.0,-2.0,0.0,-1.0,12.0,5.0,11.0,4.0,0.0,0.496457576751709
201,-127.0,68.0,81.0,0.0,4204.0,-2216.0,-11129.0,-11046.0,1.0,-5.0,0.0,4.0,-3.0,-3.0,-3.0,0.0,0.5011181831359863
202,-127.0,68.0,81.0,0.0,4204.0,-2216.0,-11129.0,-11046.0,2.0,3.0,5.0,18.0,2.0,-3.0,-1.0,-2.0,0.5043144226074219
203,26.0,85.0,67.0,0.0,4222.0,-2214.0,-11131.0,-11037.0,2.0,3.0,5.0,18.0,2.0,-3.0,-1.0,-2.0,0.5061404705047607
204,26.0,85.0,67.0,0.0,4222.0,-2214.0,-11131.0,-11037.0,1.0,11.0,18.0,-5.0,4.0,8.0,0.0,4.0,0.5080220699310303
205,26.0,85.0,67.0,0.0,4222.0,-2214.0,-11131.0,-11037.0,-4.0,2.0,2.0,8.0,-5.0,-2.0,-3.0,-5.0,0.5199596881866455
206,52.0,110.0,26.0,0.0,4241.0,-2206.0,-11137.0,-11026.0,-4.0,2.0,2.0,8.0,-5.0,-2.0,-3.0,-5.0,0.5360093116760254
207,52.0,110.0,26.0,0.0,4241.0,-2206.0,-11137.0,-11026.0,0.0,-5.0,-3.0,1.0,-2.0,6.0,0.0,-1.0,0.5379040241241455
208,52.0,110.0,26.0,0.0,4241.0,-2206.0,-11137.0,-11026.0,1.0,-3.0,-4.0,7.0,-1.0,-3.0,0.0,1.0,0.5435986518859863
209,43.0,102.0,-20.0,0.0,4254.0,-2194.0,-11142.0,-11019.0,1.0,-3.0,-4.0,7.0,-1.0,-3.0,0.0,1.0,0.5462324619293213
210,43.0,102.0,-20.0,0.0,4254.0,-2194.0,-11142.0,-11019.0,2.0,5.0,6.0,-12.0,2.0,-1.0,-2.0,-2.0,0.5501689910888672
211,43.0,102.0,-20.0,0.0,4254.0,-2194.0,-11142.0,-11019.0,2.0,0.0,-5.0,-9.0,-6.0,2.0,-1.0,-1.0,0.5830583572387695
212,1.0,93.0,-69.0,0.0,4259.0,-2178.0,-11140.0,-11021.0,2.0,0.0,-5.0,-9.0,-6.0,2.0,-1.0,-1.0,0.5874173641204834
213,1.0,93.0,-69.0,0.0,4259.0,-2178.0,-11140.0,-11021.0,-2.0,-5.0,-16.0,-49.0,-10.0,-12.0,-3.0,-2.0,0.6233224868774414
214,1.0,93.0,-69.0,0.0,4259.0,-2178.0,-11140.0,-11021.0,-1.0,-2.0,-2.0,-17.0,-1.0,6.0,1.0,0.0,0.6288638114929199
215,-16.0,81.0,-89.0,0.0,4257.0,-2157.0,-11137.0,-11029.0,-1.0,-2.0,-2.0,-17.0,-1.0,6.0,1.0,0.0,0.6328489780426025
216,-16.0,81.0,-89.0,0.0,4257.0,-2157.0,-11137.0,-11029.0,1.0,0.0,4.0,15.0,-3.0,-4.0,0.0,-1.0,0.6348245143890381
217,-16.0,81.0,-89.0,0.0,4257.0,-2157.0,-11137.0,-11029.0,-1.0,2.0,7.0,4.0,1.0,3.0,1.0,2.0,0.6370687484741211
218,-16.0,81.0,-89.0,0.0,4257.0,-2157.0,-11137.0,-11029.0,0.0,1.0,2.0,26.0,-1.0,1.0,-1.0,-3.0,0.6399374008178711
219,9.0,74.0,-75.0,0.0,4249.0,-2114.0,-11135.0,-11042.0,0.0,1.0,2.0,26.0,-1.0,1.0,-1.0,-3.0,0.6417632102966309
220,9.0,74.0,-75.0,0.0,4249.0,-2114.0,-11135.0,-11042.0,0.0,0.0,0.0,5.0,-3.0,-5.0,-2.0,-2.0,0.6436307430267334
221,9.0,74.0,-75.0,0.0,4249.0,-2114.0,-11135.0,-11042.0,-1.0,4.0,-5.0,-10.0,5.0,0.0,-1.0,1.0,0.6492857933044434
222,46.0,61.0,-59.0,0.0,4246.0,-2093.0,-11142.0,-11041.0,-1.0,4.0,-5.0,-10.0,5.0,0.0,-1.0,1.0,0.6515960693359375
223,46.0,61.0,-59.0,0.0,4246.0,-2093.0,-11142.0,-11041.0,-4.0,-4.0,-2.0,5.0,-1.0,1.0,-1.0,-1.0,0.6538071632385254
224,46.0,61.0,-59.0,0.0,4246.0,-2093.0,-11142.0,-11041.0,-4.0,-6.0,-2.0,5.0,-3.0,4.0,0.0,-2.0,0.6636075973510742
225,82.0,66.0,-56.0,0.0,4244.0,-2070.0,-11153.0,-11035.0,-4.0,-6.0,-2.0,5.0,-3.0,4.0,0.0,-2.0,0.665475606918335
226,82.0,66.0,-56.0,0.0,4244.0,-2070.0,-11153.0,-11035.0,0.0,9.0,19.0,19.0,-1.0,-3.0,-4.0,0.0,0.6702368259429932
227,82.0,66.0,-56.0,0.0,4244.0,-2070.0,-11153.0,-11035.0,-2.0,-3.0,0.0,-11.0,3.0,-3.0,-2.0,0.0,0.6773481369018555
228,56.0,56.0,-60.0,0.0,4241.0,-2048.0,-11158.0,-11035.0,-2.0,-3.0,0.0,-11.0,3.0,-3.0,-2.0,0.0,0.6936371326446533
229,56.0,56.0,-60.0,0.0,4241.0,-2048.0,-11158.0,-11035.0,-4.0,-9.0,-6.0,5.0,0.0,3.0,2.0,-1.0,0.6954941749572754
230,56.0,56.0,-60.0,0.0,4241.0,-2048.0,-11158.0,-11035.0,-3.0,-1.0,0.0,-6.0,-4.0,-4.0,-1.0,0.0,0.701488733291626
231,0.0,57.0,-49.0,0.0,4239.0,-2031.0,-11155.0,-11042.0,-3.0,-1.0,0.0,-6.0,-4.0,-4.0,-1.0,0.0,0.709341287612915
232,0.0,57.0,-49.0,0.0,4239.0,-2031.0,-11155.0,-11042.0,-5.0,-3.0,-2.0,15.0,0.0,0.0,0.0,-1.0,0.7125124931335449
233,0.0,57.0,-49.0,0.0,4239.0,-2031.0,-11155.0,-11042.0,7.0,15.0,25.0,-9.0,-8.0,-2.0,-1.0,5.0,0.7328400611877441
234,-59.0,47.0,-48.0,0.0,4237.0,-2019.0,-11144.0,-11056.0,7.0,15.0,25.0,-9.0,-8.0,-2.0,-1.0,5.0,0.7369635105133057
235,-59.0,47.0,-48.0,0.0,4237.0,-2019.0,-11144.0,-11056.0,-1.0,0.0,-10.0,-18.0,-9.0,-13.0,-2.0,-2.0,0.7414650917053223
236,-59.0,47.0,-48.0,0.0,4237.0,-2019.0,-11144.0,-11056.0,-6.0,-12.0,-15.0,-4.0,-4.0,0.0,-1.0,-4.0,0.7439312934875488
237,-93.0,48.0,-42.0,0.0,4234.0,-2010.0,-11130.0,-11073.0,-6.0,-12.0,-15.0,-4.0,-4.0,0.0,-1.0,-4.0,0.7457690238952637
238,-93.0,48.0,-42.0,0.0,4234.0,-2010.0,-11130.0,-11073.0,1.0,2.0,-3.0,-53.0,-2.0,1.0,1.0,0.0,0.7476298809051514
239,-93.0,48.0,-42.0,0.0,4234.0,-2010.0,-11130.0,-11073.0,-1.0,-1.0,-2.0,1.0,2.0,2.0,-1.0,1.0,0.770148754119873
240,-128.0,33.0,-45.0,0.0,4228.0,-2003.0,-11113.0,-11094.0,-1.0,-1.0,-2.0,1.0,2.0,2.0,-1.0,1.0,0.7733454704284668
241,-128.0,33.0,-45.0,0.0,4228.0,-2003.0,-11113.0,-11094.0,-1.0,-5.0,-9.0,16.0,1.0,-4.0,-2.0,-2.0,0.7766878604888916
242,-128.0,33.0,-45.0,0.0,4228.0,-2003.0,-11113.0,-11094.0,1.0,-4.0,-2.0,0.0,-2.0,-5.0,-2.0,-2.0,0.7841882705688477
243,-153.0,25.0,-43.0,0.0,4218.0,-1997.0,-11096.0,-11116.0,1.0,-4.0,-2.0,0.0,-2.0,-5.0,-2.0,-2.0,0.7860097885131836
244,-153.0,25.0,-43.0,0.0,4218.0,-1997.0,-11096.0,-11116.0,0.0,-3.0,-2.0,7.0,-1.0,-1.0,-2.0,2.0,0.7904918193817139
245,-153.0,25.0,-43.0,0.0,4218.0,-1997.0,-11096.0,-11116.0,1.0,-4.0,-9.0,30.0,-3.0,-1.0,0.0,-2.0,0.8063428401947021
246,-137.0,16.0,-11.0,0.0,4209.0,-1995.0,-11084.0,-11132.0,1.0,-4.0,-9.0,30.0,-3.0,-1.0,0.0,-2.0,0.8082058429718018
247,-137.0,16.0,-11.0,0.0,4209.0,-1995.0,-11084.0,-11132.0,-4.0,-8.0,-4.0,11.0,7.0,-4.0,-5.0,-2.0,0.8101050853729248
248,-137.0,16.0,-11.0,0.0,4209.0,-1995.0,-11084.0,-11132.0,-6.0,-2.0,-3.0,-5.0,3.0,1.0,-3.0,-3.0,0.8205749988555908
249,-71.0,11.0,47.0,0.0,4207.0,-1998.0,-11082.0,-11134.0,-6.0,-2.0,-3.0,-5.0,3.0,1.0,-3.0,-3.0,0.8282995223999023
250,-71.0,11.0,47.0,0.0,4207.0,-1998.0,-11082.0,-11134.0,4.0,6.0,-1.0,-5.0,1.0,10.0,2.0,-1.0,0.8302109241485596
251,-71.0,11.0,47.0,0.0,4207.0,-1998.0,-11082.0,-11134.0,3.0,5.0,13.0,-9.0,-2.0,-1.0,1.0,1.0,0.8443968296051025
252,-7.0,27.0,108.0,0.0,4219.0,-2008.0,-11087.0,-11122.0,3.0,5.0,13.0,-9.0,-2.0,-1.0,1.0,1.0,0.8486719131469727
253,-7.0,27.0,108.0,0.0,4219.0,-2008.0,-11087.0,-11122.0,-2.0,0.0,16.0,-44.0,-4.0,-3.0,0.0,0.0,0.8523776531219482
254,-7.0,27.0,108.0,0.0,4219.0,-2008.0,-11087.0,-11122.0,-2.0,-1.0,-7.0,-10.0,-1.0,-3.0,0.0,1.0,0.8573179244995117
255,88.0,32.0,134.0,0.0,4242.0,-2023.0,-11101.0,-11096.0,-2.0,-1.0,-7.0,-10.0,-1.0,-3.0,0.0,1.0,0.8746974468231201
256,88.0,32.0,134.0,0.0,4242.0,-2023.0,-11101.0,-11096.0,0.0,-5.0,7.0,23.0,1.0,-1.0,1.0,-3.0,0.8781304359436035
257,88.0,32.0,134.0,0.0,4242.0,-2023.0,-11101.0,-11096.0,0.0,2.0,4.0,-14.0,1.0,4.0,0.0,-2.0,0.8906443119049072
258,234.0,2.0,82.0,0.0,4265.0,-2032.0,-11131.0,-11057.0,0.0,2.0,4.0,-14.0,1.0,4.0,0.0,-2.0,0.8948583602905273
259,234.0,2.0,82.0,0.0,4265.0,-2032.0,-11131.0,-11057.0,-1.0,-2.0,1.0,17.0,2.0,-14.0,-2.0,0.0,0.9000029563903809
260,234.0,2.0,82.0,0.0,4265.0,-2032.0,-11131.0,-11057.0,1.0,-2.0,2.0,11.0,2.0,-3.0,-1.0,-2.0,0.9033536911010742
261,283.0,-30.0,2.0,0.0,4273.0,-2030.0,-11168.0,-11016.0,1.0,-2.0,2.0,11.0,2.0,-3.0,-1.0,-2.0,0.9108221530914307
262,283.0,-30.0,2.0,0.0,4273.0,-2030.0,-11168.0,-11016.0,0.0,0.0,-2.0,-1.0,-3.0,12.0,3.0,2.0,0.9127781391143799
263,283.0,-30.0,2.0,0.0,4273.0,-2030.0,-11168.0,-11016.0,-3.0,-4.0,-13.0,-53.0,2.0,-2.0,0.0,-2.0,0.9284312725067139
264,165.0,-42.0,-50.0,0.0,4268.0,-2023.0,-11188.0,-10999.0,-3.0,-4.0,-13.0,-53.0,2.0,-2.0,0.0,-2.0,0.9316620826721191
265,165.0,-42.0,-50.0,0.0,4268.0,-2023.0,-11188.0,-10999.0,-1.0,0.0,-4.0,-1.0,-5.0,0.0,-4.0,-2.0,0.93507981300354
266,165.0,-42.0,-50.0,0.0,4268.0,-2023.0,-11188.0,-10999.0,2.0,-1.0,-2.0,17.0,1.0,-7.0,0.0,1.0,0.9411373138427734
267,28.0,-52.0,-74.0,0.0,4254.0,-2017.0,-11192.0,-11001.0,2.0,-1.0,-2.0,17.0,1.0,-7.0,0.0,1.0,0.948441743850708
268,28.0,-52.0,-74.0,0.0,4254.0,-2017.0,-11192.0,-11001.0,-4.0,-6.0,-5.0,9.0,5.0,7.0,1.0,1.0,0.9503598213195801
269,28.0,-52.0,-74.0,0.0,4254.0,-2017.0,-11192.0,-11001.0,-2.0,2.0,-1.0,21.0,-3.0,0.0,-3.0,-2.0,0.9631295204162598
270,-82.0,-65.0,-56.0,0.0,4233.0,-2014.0,-11182.0,-11020.0,-2.0,2.0,-1.0,21.0,-3.0,0.0,-3.0,-2.0,0.9710986614227295
271,-82.0,-65.0,-56.0,0.0,4233.0,-2014.0,-11182.0,-11020.0,-1.0,-1.0,-4.0,0.0,-1.0,2.0,-2.0,0.0,0.9730179309844971
272,-82.0,-65.0,-56.0,0.0,4233.0,-2014.0,-11182.0,-11020.0,-2.0,2.0,11.0,18.0,2.0,8.0,1.0,-1.0,0.9785881042480469
273,-162.0,-48.0,-25.0,0.0,4215.0,-2015.0,-11162.0,-11047.0,-2.0,2.0,11.0,18.0,2.0,8.0,1.0,-1.0,0.9859297275543213
274,-162.0,-48.0,-25.0,0.0,4215.0,-2015.0,-11162.0,-11047.0,4.0,1.0,3.0,10.0,3.0,5.0,3.0,1.0,0.9878437519073486
275,-162.0,-48.0,-25.0,0.0,4215.0,-2015.0,-11162.0,-11047.0,1.0,2.0,-2.0,-9.0,-4.0,-22.0,-5.0,-4.0,1.020094871520996
276,-199.0,-21.0,6.0,0.0,4202.0,-2018.0,-11138.0,-11075.0,1.0,2.0,-2.0,-9.0,-4.0,-22.0,-5.0,-4.0,1.0235595703125
277,-199.0,-21.0,6.0,0.0,4202.0,-2018.0,-11138.0,-11075.0,-4.0,-7.0,-4.0,-5.0,3.0,-6.0,-2.0,-5.0,1.0272181034088135
278,-199.0,-21.0,6.0,0.0,4202.0,-2018.0,-11138.0,-11075.0,-2.0,1.0,6.0,3.0,0.0,-8.0,-3.0,-1.0,1.0307285785675049
279,-163.0,31.0,24.0,0.0,4196.0,-2015.0,-11119.0,-11098.0,-2.0,1.0,6.0,3.0,0.0,-8.0,-3.0,-1.0,1.0335848331451416
280,-163.0,31.0,24.0,0.0,4196.0,-2015.0,-11119.0,-11098.0,1.0,-4.0,-6.0,9.0,-3.0,-1.0,1.0,4.0,1.0358726978302002
281,-163.0,31.0,24.0,0.0,4196.0,-2015.0,-11119.0,-11098.0,-3.0,3.0,11.0,-49.0,-7.0,-12.0,2.0,3.0,1.038118839263916
282,-83.0,70.0,11.0,0.0,4195.0,-2003.0,-11109.0,-11110.0,-3.0,3.0,11.0,-49.0,-7.0,-12.0,2.0,3.0,1.0460124015808105
283,-83.0,70.0,11.0,0.0,4195.0,-2003.0,-11109.0,-11110.0,1.0,2.0,7.0,8.0,0.0,0.0,-3.0,-4.0,1.0479223728179932
284,-83.0,70.0,11.0,0.0,4195.0,-2003.0,-11109.0,-11110.0,-1.0,-9.0,-6.0,14.0,-1.0,1.0,-3.0,1.0,1.0599701404571533
285,-36.0,110.0,3.0,0.0,4199.0,-1984.0,-11107.0,-11114.0,-1.0,-9.0,-6.0,14.0,-1.0,1.0,-3.0,1.0,1.069223403930664
286,-36.0,110.0,3.0,0.0,4199.0,-1984.0,-11107.0,-11114.0,3.0,7.0,7.0,-6.0,1.0,9.0,2.0,3.0,1.0728552341461182
287,-36.0,110.0,3.0,0.0,4199.0,-1984.0,-11107.0,-11114.0,-5.0,-5.0,-10.0,7.0,1.0,1.0,0.0,-1.0,1.082735538482666
288,-37.0,130.0,-23.0,0.0,4206.0,-1964.0,-11103.0,-11119.0,-5.0,-5.0,-10.0,7.0,1.0,1.0,0.0,-1.0,1.0917859077453613
289,-37.0,130.0,-23.0,0.0,4206.0,-1964.0,-11103.0,-11119.0,2.0,1.0,2.0,-6.0,-5.0,-2.0,-3.0,-4.0,1.0949218273162842
290,4.0,156.0,-87.0,0.0,4216.0,-1940.0,-11104.0,-11118.0,2.0,1.0,2.0,-6.0,-5.0,-2.0,-3.0,-4.0,1.0974905490875244
291,4.0,156.0,-87.0,0.0,4216.0,-1940.0,-11104.0,-11118.0,-1.0,-3.0,8.0,7.0,-3.0,4.0,1.0,0.0,1.1146950721740723
292,4.0,156.0,-87.0,0.0,4216.0,-1940.0,-11104.0,-11118.0,4.0,11.0,29.0,18.0,1.0,9.0,3.0,5.0,1.1180074214935303
293,-23.0,178.0,-243.0,0.0,4215.0,-1899.0,-11098.0,-11132.0,4.0,11.0,29.0,18.0,1.0,9.0,3.0,5.0,1.1292788982391357
294,-23.0,178.0,-243.0,0.0,4215.0,-1899.0,-11098.0,-11132.0,-6.0,2.0,-8.0,-7.0,4.0,-6.0,-2.0,-7.0,1.1317007541656494
295,-23.0,178.0,-243.0,0.0,4215.0,-1899.0,-11098.0,-11132.0,18.0,26.0,20.0,-6.0,-12.0,-1.0,-6.0,-2.0,1.1338255405426025
296,-61.0,125.0,-471.0,0.0,4182.0,-1836.0,-11084.0,-11169.0,18.0,26.0,20.0,-6.0,-12.0,-1.0,-6.0,-2.0,1.1436114311218262
297,-61.0,125.0,-471.0,0.0,4182.0,-1836.0,-11084.0,-11169.0,6.0,-6.0,-13.0,-35.0,2.0,28.0,-1.0,-14.0,1.1510839462280273
298,-61.0,125.0,-471.0,0.0,4182.0,-1836.0,-11084.0,-11169.0,-16.0,-10.0,-26.0,-11.0,-2.0,-6.0,-6.0,-8.0,1.152921438217163
299,-165.0,92.0,-705.0,0.0,4117.0,-1754.0,-11058.0,-11232.0,-16.0,-10.0,-26.0,-11.0,-2.0,-6.0,-6.0,-8.0,1.166022777557373
300,-165.0,92.0,-705.0,0.0,4117.0,-1754.0,-11058.0,-11232.0,-3.0,7.0,3.0,11.0,3.0,12.0,6.0,12.0,1.1743552684783936
301,-165.0,92.0,-705.0,0.0,4117.0,-1754.0,-11058.0,-11232.0,2.0,-7.0,-13.0,-1.0,-1.0,-12.0,3.0,11.0,1.1769828796386719
302,-582.0,259.0,-1096.0,0.0,4025.0,-1619.0,-10946.0,-11394.0,2.0,-7.0,-13.0,-1.0,-1.0,-12.0,3.0,11.0,1.1801035404205322
303,-582.0,259.0,-1096.0,0.0,4025.0,-1619.0,-10946.0,-11394.0,-8.0,-10.0,-5.0,8.0,-6.0,2.0,-3.0,-1.0,1.2052550315856934
304,-582.0,259.0,-1096.0,0.0,4025.0,-1619.0,-10946.0,-11394.0,2.0,4.0,5.0,12.0,8.0,-16.0,-3.0,6.0,1.2088162899017334
305,-701.0,352.0,-1434.0,0.0,3878.0,-1402.0,-10797.0,-11614.0,2.0,4.0,5.0,12.0,8.0,-16.0,-3.0,6.0,1.2123353481292725
306,-701.0,352.0,-1434.0,0.0,3878.0,-1402.0,-10797.0,-11614.0,6.0,4.0,0.0,-42.0,-38.0,-8.0,-1.0,2.0,1.2196266651153564
307,-701.0,352.0,-1434.0,0.0,3878.0,-1402.0,-10797.0,-11614.0,-11.0,-6.0,-15.0,3.0,4.0,-3.0,-3.0,-10.0,1.221710205078125
308,-586.0,415.0,-1726.0,0.0,3696.0,-1159.0,-10710.0,-11779.0,-11.0,-6.0,-15.0,3.0,4.0,-3.0,-3.0,-10.0,1.2262752056121826
309,-586.0,415.0,-1726.0,0.0,3696.0,-1159.0,-10710.0,-11779.0,-2.0,12.0,16.0,15.0,3.0,2.0,2.0,0.0,1.2512226104736328
310,-586.0,415.0,-1726.0,0.0,3696.0,-1159.0,-10710.0,-11779.0,-9.0,10.0,38.0,-3.0,-4.0,-4.0,1.0,3.0,1.255094289779663
311,-836.0,438.0,-2024.0,0.0,3471.0,-887.0,-10589.0,-11979.0,-9.0,10.0,38.0,-3.0,-4.0,-4.0,1.0,3.0,1.2597384452819824
312,-836.0,438.0,-2024.0,0.0,3471.0,-887.0,-10589.0,-11979.0,9.0,-9.0,-14.0,24.0,7.0,-4.0,-2.0,8.0,1.2631239891052246
313,-836.0,438.0,-2024.0,0.0,3471.0,-887.0,-10589.0,-11979.0,6.0,1.0,18.0,10.0,-2.0,4.0,0.0,-1.0,1.2655675411224365
314,-1630.0,636.0,-2374.0,0.0,3209.0,-577.0,-10356.0,-12271.0,6.0,1.0,18.0,10.0,-2.0,4.0,0.0,-1.0,1.2673685550689697
315,-1630.0,636.0,-2374.0,0.0,3209.0,-577.0,-10356.0,-12271.0,-21.0,-33.0,-16.0,3.0,-1.0,-11.0,-4.0,-9.0,1.2715303897857666
316,-1630.0,636.0,-2374.0,0.0,3209.0,-577.0,-10356.0,-12271.0,20.0,29.0,-11.0,-14.0,-2.0,9.0,4.0,5.0,1.273674726486206
317,-2402.0,992.0,-2654.0,0.0,2939.0,-213.0,-10003.0,-12638.0,20.0,29.0,-11.0,-14.0,-2.0,9.0,4.0,5.0,1.2953765392303467
318,-2402.0,992.0,-2654.0,0.0,2939.0,-213.0,-10003.0,-12638.0,8.0,-15.0,-13.0,-9.0,1.0,6.0,-2.0,-1.0,1.2990636825561523
319,-2402.0,992.0,-2654.0,0.0,2939.0,-213.0,-10003.0,-12638.0,-27.0,-39.0,-13.0,-37.0,-2.0,-1.0,1.0,-4.0,1.3028733730316162
320,-3015.0,1316.0,-2958.0,0.0,2656.0,206.0,-9536.0,-13055.0,-27.0,-39.0,-13.0,-37.0,-2.0,-1.0,1.0,-4.0,1.3187754154205322
321,-3015.0,1316.0,-2958.0,0.0,2656.0,206.0,-9536.0,-13055.0,24.0,41.0,2.0,0.0,0.0,1.0,-1.0,8.0,1.3225841522216797
322,-3015.0,1316.0,-2958.0,0.0,2656.0,206.0,-9536.0,-13055.0,-4.0,-17.0,-12.0,10.0,4.0,-5.0,-4.0,-5.0,1.326098918914795
323,-3306.0,1401.0,-3392.0,0.0,2318.0,670.0,-8999.0,-13478.0,-4.0,-17.0,-12.0,10.0,4.0,-5.0,-4.0,-5.0,1.3291535377502441
324,-3306.0,1401.0,-3392.0,0.0,2318.0,670.0,-8999.0,-13478.0,-18.0,-14.0,-17.0,-7.0,4.0,-3.0,-2.0,-9.0,1.3310267925262451
325,-3306.0,1401.0,-3392.0,0.0,2318.0,670.0,-8999.0,-13478.0,1.0,-4.0,-7.0,6.0,1.0,-1.0,-1.0,-2.0,1.332810401916504
326,-3639.0,1296.0,-3740.0,0.0,1919.0,1133.0,-8389.0,-13896.0,1.0,-4.0,-7.0,6.0,1.0,-1.0,-1.0,-2.0,1.3458313941955566
327,-3639.0,1296.0,-3740.0,0.0,1919.0,1133.0,-8389.0,-13896.0,1.0,6.0,4.0,12.0,6.0,0.0,1.0,0.0,1.3530042171478271
328,-3639.0,1296.0,-3740.0,0.0,1919.0,1133.0,-8389.0,-13896.0,8.0,14.0,0.0,4.0,-4.0,2.0,0.0,-2.0,1.3547866344451904
329,-4065.0,1265.0,-3852.0,0.0,1501.0,1588.0,-7703.0,-14295.0,8.0,14.0,0.0,4.0,-4.0,2.0,0.0,-2.0,1.3631031513214111
330,-4065.0,1265.0,-3852.0,0.0,1501.0,1588.0,-7703.0,-14295.0,-8.0,-4.0,2.0,7.0,-5.0,0.0,1.0,0.0,1.3687198162078857
331,-4065.0,1265.0,-3852.0,0.0,1501.0,1588.0,-7703.0,-14295.0,2.0,9.0,7.0,1.0,3.0,1.0,-1.0,3.0,1.370518684387207
332,-4449.0,1569.0,-3895.0,0.0,1112.0,2065.0,-6936.0,-14658.0,2.0,9.0,7.0,1.0,3.0,1.0,-1.0,3.0,1.383544921875
333,-4449.0,1569.0,-3895.0,0.0,1112.0,2065.0,-6936.0,-14658.0,-2.0,-2.0,13.0,3.0,0.0,-4.0,0.0,-2.0,1.4083611965179443
334,-4449.0,1569.0,-3895.0,0.0,1112.0,2065.0,-6936.0,-14658.0,4.0,-4.0,-15.0,-3.0,2.0,-2.0,-2.0,0.0,1.4124140739440918
335,-4832.0,1822.0,-3954.0,0.0,743.0,2562.0,-6086.0,-14977.0,4.0,-4.0,-15.0,-3.0,2.0,-2.0,-2.0,0.0,1.414656400680542
336,-4832.0,1822.0,-3954.0,0.0,743.0,2562.0,-6086.0,-14977.0,0.0,-4.0,2.0,2.0,4.0,-5.0,0.0,-4.0,1.4219415187835693
337,-4832.0,1822.0,-3954.0,0.0,743.0,2562.0,-6086.0,-14977.0,-9.0,-11.0,-17.0,-1.0,-1.0,-2.0,-2.0,-6.0,1.4252912998199463
338,-5100.0,1963.0,-4065.0,0.0,372.0,3074.0,-5163.0,-15238.0,-9.0,-11.0,-17.0,-1.0,-1.0,-2.0,-2.0,-6.0,1.428044080734253
339,-5100.0,1963.0,-4065.0,0.0,372.0,3074.0,-5163.0,-15238.0,0.0,3.0,2.0,2.0,0.0,0.0,-2.0,1.0,1.4299592971801758
340,-5100.0,1963.0,-4065.0,0.0,372.0,3074.0,-5163.0,-15238.0,-1.0,-1.0,-1.0,2.0,-2.0,0.0,-1.0,0.0,1.4317538738250732
341,-5263.0,1996.0,-4137.0,0.0,-7.0,3580.0,-4182.0,-15432.0,-1.0,-1.0,-1.0,2.0,-2.0,0.0,-1.0,0.0,1.4426372051239014
342,-5263.0,1996.0,-4137.0,0.0,-7.0,3580.0,-4182.0,-15432.0,0.0,1.0,0.0,2.0,3.0,5.0,3.0,0.0,1.4518210887908936
343,-5263.0,1996.0,-4137.0,0.0,-7.0,3580.0,-4182.0,-15432.0,-4.0,-6.0,-3.0,0.0,-5.0,-2.0,0.0,-1.0,1.4536340236663818
344,-5277.0,1969.0,-4126.0,0.0,-387.0,4065.0,-3175.0,-15547.0,-4.0,-6.0,-3.0,0.0,-5.0,-2.0,0.0,-1.0,1.4751098155975342
345,-5277.0,1969.0,-4126.0,0.0,-387.0,4065.0,-3175.0,-15547.0,-1.0,3.0,3.0,3.0,1.0,-11.0,-7.0,-7.0,1.483311414718628
346,-5277.0,1969.0,-4126.0,0.0,-387.0,4065.0,-3175.0,-15547.0,0.0,-5.0,-3.0,0.0,1.0,5.0,2.0,2.0,1.4859607219696045
347,-5267.0,1929.0,-4014.0,0.0,-749.0,4520.0,-2151.0,-15583.0,0.0,-5.0,-3.0,0.0,1.0,5.0,2.0,2.0,1.4883310794830322
348,-5267.0,1929.0,-4014.0,0.0,-749.0,4520.0,-2151.0,-15583.0,3.0,2.0,1.0,-1.0,-1.0,6.0,1.0,-1.0,1.496415138244629
349,-5267.0,1929.0,-4014.0,0.0,-749.0,4520.0,-2151.0,-15583.0,-5.0,-4.0,-1.0,-1.0,-1.0,2.0,6.0,2.0,1.498382568359375
350,-5172.0,1955.0,-3813.0,0.0,-1081.0,4955.0,-1130.0,-15539.0,-5.0,-4.0,-1.0,-1.0,-1.0,2.0,6.0,2.0,1.5037341117858887
351,-5172.0,1955.0,-3813.0,0.0,-1081.0,4955.0,-1130.0,-15539.0,0.0,1.0,2.0,1.0,1.0,1.0,-2.0,1.0,1.518550157546997
352,-5172.0,1955.0,-3813.0,0.0,-1081.0,4955.0,-1130.0,-15539.0,-3.0,-4.0,-2.0,-2.0,-12.0,-2.0,-2.0,-4.0,1.5261189937591553
353,-4994.0,2066.0,-3598.0,0.0,-1386.0,5384.0,-131.0,-15412.0,-3.0,-4.0,-2.0,-2.0,-12.0,-2.0,-2.0,-4.0,1.5279805660247803
354,-4994.0,2066.0,-3598.0,0.0,-1386.0,5384.0,-131.0,-15412.0,1.0,-2.0,2.0,3.0,20.0,-11.0,-4.0,3.0,1.533766508102417
355,-4994.0,2066.0,-3598.0,0.0,-1386.0,5384.0,-131.0,-15412.0,-2.0,1.0,-1.0,-2.0,-16.0,-6.0,-2.0,-1.0,1.5359251499176025
356,-4576.0,2094.0,-3499.0,0.0,-1697.0,5793.0,803.0,-15210.0,-2.0,1.0,-1.0,-2.0,-16.0,-6.0,-2.0,-1.0,1.5578877925872803
357,-4576.0,2094.0,-3499.0,0.0,-1697.0,5793.0,803.0,-15210.0,-2.0,-3.0,-5.0,-3.0,-7.0,13.0,2.0,-2.0,1.5609352588653564
358,-4576.0,2094.0,-3499.0,0.0,-1697.0,5793.0,803.0,-15210.0,-3.0,-4.0,-5.0,-6.0,-17.0,35.0,-2.0,-8.0,1.5627381801605225
359,-4160.0,2023.0,-3421.0,0.0,-2016.0,6165.0,1670.0,-14953.0,-3.0,-4.0,-5.0,-6.0,-17.0,35.0,-2.0,-8.0,1.5891616344451904
360,-4160.0,2023.0,-3421.0,0.0,-2016.0,6165.0,1670.0,-14953.0,2.0,2.0,1.0,2.0,26.0,-10.0,-28.0,10.0,1.592968463897705
361,-4160.0,2023.0,-3421.0,0.0,-2016.0,6165.0,1670.0,-14953.0,-3.0,-2.0,1.0,0.0,-4.0,-4.0,-16.0,-12.0,1.598322868347168
362,-3884.0,1863.0,-3360.0,0.0,-2332.0,6488.0,2488.0,-14654.0,-3.0,-2.0,1.0,0.0,-4.0,-4.0,-16.0,-12.0,1.6016027927398682
363,-3884.0,1863.0,-3360.0,0.0,-2332.0,6488.0,2488.0,-14654.0,1.0,2.0,2.0,0.0,2.0,8.0,17.0,15.0,1.6035399436950684
364,-3884.0,1863.0,-3360.0,0.0,-2332.0,6488.0,2488.0,-14654.0,-1.0,-1.0,0.0,4.0,30.0,7.0,-9.0,-20.0,1.605375051498413
365,-3737.0,1663.0,-3276.0,0.0,-2633.0,6757.0,3277.0,-14322.0,-1.0,-1.0,0.0,4.0,30.0,7.0,-9.0,-20.0,1.6071710586547852
366,-3737.0,1663.0,-3276.0,0.0,-2633.0,6757.0,3277.0,-14322.0,-5.0,-1.0,-1.0,-2.0,-8.0,4.0,-1.0,-9.0,1.6165623664855957
367,-3737.0,1663.0,-3276.0,0.0,-2633.0,6757.0,3277.0,-14322.0,-1.0,-2.0,-3.0,-4.0,-41.0,33.0,18.0,6.0,1.6187069416046143
368,-3573.0,1598.0,-3224.0,0.0,-2930.0,6991.0,4036.0,-13954.0,-1.0,-2.0,-3.0,-4.0,-41.0,33.0,18.0,6.0,1.6420042514801025
369,-3573.0,1598.0,-3224.0,0.0,-2930.0,6991.0,4036.0,-13954.0,-4.0,-2.0,-4.0,-2.0,25.0,20.0,55.0,2.0,1.6455597877502441
370,-3573.0,1598.0,-3224.0,0.0,-2930.0,6991.0,4036.0,-13954.0,8.0,6.0,9.0,14.0,49.0,-68.0,-5.0,9.0,1.6485793590545654
371,-3454.0,1562.0,-3253.0,0.0,-3231.0,7188.0,4770.0,-13549.0,8.0,6.0,9.0,14.0,49.0,-68.0,-5.0,9.0,1.6540656089782715
372,-3454.0,1562.0,-3253.0,0.0,-3231.0,7188.0,4770.0,-13549.0,9.0,4.0,6.0,14.0,2.0,-76.0,-19.0,6.0,1.6560661792755127
373,-3454.0,1562.0,-3253.0,0.0,-3231.0,7188.0,4770.0,-13549.0,2.0,0.0,-2.0,-2.0,14.0,-31.0,-2.0,13.0,1.6582815647125244
374,-3286.0,1306.0,-3203.0,0.0,-3515.0,7328.0,5473.0,-13132.0,2.0,0.0,-2.0,-2.0,14.0,-31.0,-2.0,13.0,1.667912483215332
375,-3286.0,1306.0,-3203.0,0.0,-3515.0,7328.0,5473.0,-13132.0,-6.0,-6.0,-5.0,-8.0,-85.0,0.0,-15.0,-19.0,1.6925108432769775
376,-3286.0,1306.0,-3203.0,0.0,-3515.0,7328.0,5473.0,-13132.0,-5.0,1.0,2.0,1.0,3.0,13.0,-4.0,-27.0,1.6958460807800293
377,-2966.0,820.0,-2815.0,0.0,-3732.0,7393.0,6114.0,-12747.0,-5.0,1.0,2.0,1.0,3.0,13.0,-4.0,-27.0,1.7091736793518066
378,-2966.0,820.0,-2815.0,0.0,-3732.0,7393.0,6114.0,-12747.0,1.0,1.0,2.0,5.0,27.0,13.0,6.0,-4.0,1.7127389907836914
379,-2966.0,820.0,-2815.0,0.0,-3732.0,7393.0,6114.0,-12747.0,-8.0,-9.0,-11.0,-13.0,-24.0,0.0,12.0,8.0,1.7161026000976562
380,-2064.0,371.0,-2232.0,0.0,-3906.0,7387.0,6601.0,-12451.0,-8.0,-9.0,-11.0,-13.0,-24.0,0.0,12.0,8.0,1.722076177597046
381,-2064.0,371.0,-2232.0,0.0,-3906.0,7387.0,6601.0,-12451.0,3.0,0.0,-2.0,3.0,6.0,16.0,2.0,42.0,1.7240898609161377
382,-2064.0,371.0,-2232.0,0.0,-3906.0,7387.0,6601.0,-12451.0,-2.0,-4.0,-2.0,-1.0,64.0,-26.0,-26.0,5.0,1.7270159721374512
383,-744.0,-6.0,-1857.0,0.0,-4103.0,7299.0,6897.0,-12278.0,-2.0,-4.0,-2.0,-1.0,64.0,-26.0,-26.0,5.0,1.730132818222046
384,-744.0,-6.0,-1857.0,0.0,-4103.0,7299.0,6897.0,-12278.0,-9.0,-4.0,-5.0,-12.0,-18.0,4.0,-37.0,-11.0,1.7320780754089355
385,-744.0,-6.0,-1857.0,0.0,-4103.0,7299.0,6897.0,-12278.0,-6.0,-3.0,-6.0,-1.0,-11.0,121.0,22.0,-7.0,1.7338690757751465
386,143.0,-212.0,-1553.0,0.0,-4310.0,7228.0,7190.0,-12080.0,-6.0,-3.0,-6.0,-1.0,-11.0,121.0,22.0,-7.0,1.7592718601226807
387,143.0,-212.0,-1553.0,0.0,-4310.0,7228.0,7190.0,-12080.0,-1.0,-1.0,-1.0,-7.0,-18.0,-16.0,-7.0,-2.0,1.7622318267822266
388,143.0,-212.0,-1553.0,0.0,-4310.0,7228.0,7190.0,-12080.0,32.0,0.0,1.0,2.0,10.0,8.0,-9.0,8.0,1.7655458450317383
389,244.0,-66.0,-1069.0,0.0,-4473.0,7192.0,7427.0,-11897.0,32.0,0.0,1.0,2.0,10.0,8.0,-9.0,8.0,1.7711408138275146
390,244.0,-66.0,-1069.0,0.0,-4473.0,7192.0,7427.0,-11897.0,5.0,0.0,4.0,5.0,-41.0,-39.0,-19.0,-16.0,1.773298978805542
391,244.0,-66.0,-1069.0,0.0,-4473.0,7192.0,7427.0,-11897.0,-20.0,0.0,1.0,0.0,1.0,-37.0,-15.0,-27.0,1.7816927433013916
392,-96.0,452.0,-119.0,0.0,-4548.0,7288.0,7621.0,-11685.0,-20.0,0.0,1.0,0.0,1.0,-37.0,-15.0,-27.0,1.7837271690368652
393,-96.0,452.0,-119.0,0.0,-4548.0,7288.0,7621.0,-11685.0,9.0,-1.0,-1.0,1.0,22.0,-54.0,-26.0,-9.0,1.8432211875915527
394,-96.0,452.0,-119.0,0.0,-4548.0,7288.0,7621.0,-11685.0,-5.0,0.0,2.0,-4.0,-46.0,-5.0,-2.0,19.0,1.8523740768432617
395,-23.0,944.0,843.0,0.0,-4559.0,7509.0,7702.0,-11487.0,-5.0,0.0,2.0,-4.0,-46.0,-5.0,-2.0,19.0,1.8549368381500244
396,-23.0,944.0,843.0,0.0,-4559.0,7509.0,7702.0,-11487.0,1.0,1.0,0.0,-4.0,1.0,57.0,12.0,8.0,1.8571782112121582
397,-23.0,944.0,843.0,0.0,-4559.0,7509.0,7702.0,-11487.0,-5.0,1.0,2.0,3.0,-14.0,-23.0,-13.0,-11.0,1.8590137958526611
398,1132.0,659.0,1829.0,0.0,-4476.0,7940.0,7361.0,-11453.0,-5.0,1.0,2.0,3.0,-14.0,-23.0,-13.0,-11.0,1.8608145713806152
399,1132.0,659.0,1829.0,0.0,-4476.0,7940.0,7361.0,-11453.0,-1.0,3.0,3.0,2.0,0.0,-2.0,-1.0,-6.0,1.8626985549926758
400,1774.0,152.0,2295.0,0.0,-4367.0,8058.0,6973.0,-11654.0,-1.0,3.0,3.0,2.0,0.0,-2.0,-1.0,-6.0,1.8886384963989258
401,1774.0,152.0,2295.0,0.0,-4367.0,8058.0,6973.0,-11654.0,-2.0,0.0,0.0,-2.0,7.0,18.0,15.0,-4.0,1.8916902542114258
402,1774.0,152.0,2295.0,0.0,-4367.0,8058.0,6973.0,-11654.0,-2.0,0.0,0.0,-2.0,7.0,18.0,15.0,-4.0,1.8949792385101318
403,1774.0,152.0,2295.0,0.0,-4367.0,8058.0,6973.0,-11654.0,-6.0,-5.0,-6.0,-3.0,-1.0,-10.0,4.0,-7.0,1.8999385833740234
404,2569.0,-364.0,2785.0,0.0,-4221.0,8101.0,6455.0,-11972.0,-6.0,-5.0,-6.0,-3.0,-1.0,-10.0,4.0,-7.0,1.903320074081421
405,2569.0,-364.0,2785.0,0.0,-4221.0,8101.0,6455.0,-11972.0,5.0,1.0,2.0,1.0,4.0,6.0,8.0,11.0,1.9054665565490723
406,2569.0,-364.0,2785.0,0.0,-4221.0,8101.0,6455.0,-11972.0,3.0,1.0,1.0,0.0,-8.0,-24.0,-5.0,0.0,1.9072980880737305
407,3237.0,-826.0,3237.0,0.0,-4033.0,8070.0,5816.0,-12378.0,3.0,1.0,1.0,0.0,-8.0,-24.0,-5.0,0.0,1.9158053398132324
408,3237.0,-826.0,3237.0,0.0,-4033.0,8070.0,5816.0,-12378.0,-10.0,-7.0,-7.0,-4.0,-2.0,22.0,2.0,-13.0,1.9242446422576904
409,3237.0,-826.0,3237.0,0.0,-4033.0,8070.0,5816.0,-12378.0,-1.0,-1.0,0.0,-2.0,1.0,25.0,13.0,8.0,1.9329729080200195
410,4017.0,-1168.0,3858.0,0.0,-3795.0,7976.0,5010.0,-12858.0,-1.0,-1.0,0.0,-2.0,1.0,25.0,13.0,8.0,1.9352099895477295
411,4017.0,-1168.0,3858.0,0.0,-3795.0,7976.0,5010.0,-12858.0,5.0,7.0,5.0,3.0,4.0,-11.0,0.0,-4.0,1.9371569156646729
412,4017.0,-1168.0,3858.0,0.0,-3795.0,7976.0,5010.0,-12858.0,1.0,-3.0,-1.0,2.0,-1.0,8.0,1.0,4.0,1.938950777053833
413,4837.0,-1357.0,4658.0,0.0,-3486.0,7830.0,3996.0,-13379.0,1.0,-3.0,-1.0,2.0,-1.0,8.0,1.0,4.0,1.9453768730163574
414,4837.0,-1357.0,4658.0,0.0,-3486.0,7830.0,3996.0,-13379.0,1.0,0.0,0.0,0.0,-1.0,25.0,4.0,7.0,1.9620165824890137
415,4837.0,-1357.0,4658.0,0.0,-3486.0,7830.0,3996.0,-13379.0,1.0,0.0,0.0,0.0,-1.0,25.0,4.0,7.0,1.9653434753417969
416,4837.0,-1357.0,4658.0,0.0,-3486.0,7830.0,3996.0,-13379.0,-4.0,0.0,0.0,1.0,8.0,34.0,27.0,12.0,1.9705634117126465
417,5429.0,-1216.0,5469.0,0.0,-3085.0,7665.0,2773.0,-13874.0,-4.0,0.0,0.0,1.0,8.0,34.0,27.0,12.0,1.9732680320739746
418,5429.0,-1216.0,5469.0,0.0,-3085.0,7665.0,2773.0,-13874.0,-9.0,-3.0,-3.0,-1.0,-17.0,2.0,-20.0,-51.0,1.9751791954040527
419,5429.0,-1216.0,5469.0,0.0,-3085.0,7665.0,2773.0,-13874.0,7.0,0.0,1.0,5.0,57.0,35.0,43.0,51.0,1.9769885540008545
420,5638.0,-832.0,6152.0,0.0,-2589.0,7505.0,1428.0,-14261.0,7.0,0.0,1.0,5.0,57.0,35.0,43.0,51.0,1.9837193489074707
421,5638.0,-832.0,6152.0,0.0,-2589.0,7505.0,1428.0,-14261.0,-20.0,-8.0,-10.0,-6.0,30.0,58.0,-3.0,-55.0,1.9995949268341064
422,5638.0,-832.0,6152.0,0.0,-2589.0,7505.0,1428.0,-14261.0,-5.0,6.0,3.0,-13.0,20.0,85.0,-35.0,36.0,2.0026144981384277
423,5871.0,-706.0,7036.0,0.0,-1955.0,7302.0,-42.0,-14536.0,-5.0,6.0,3.0,-13.0,20.0,85.0,-35.0,36.0,2.005362033843994
424,5871.0,-706.0,7036.0,0.0,-1955.0,7302.0,-42.0,-14536.0,-7.0,3.0,2.0,13.0,10.0,-56.0,10.0,-20.0,2.022901773452759
425,5871.0,-706.0,7036.0,0.0,-1955.0,7302.0,-42.0,-14536.0,6.0,2.0,5.0,15.0,-33.0,40.0,19.0,56.0,2.0269768238067627
426,5626.0,-456.0,8096.0,0.0,-1113.0,7065.0,-1560.0,-14658.0,6.0,2.0,5.0,15.0,-33.0,40.0,19.0,56.0,2.03033709526062
427,5626.0,-456.0,8096.0,0.0,-1113.0,7065.0,-1560.0,-14658.0,-13.0,-2.0,10.0,9.0,-43.0,-56.0,-21.0,12.0,2.036146402359009
428,5626.0,-456.0,8096.0,0.0,-1113.0,7065.0,-1560.0,-14658.0,1.0,-8.0,25.0,26.0,-13.0,-75.0,-24.0,-76.0,2.038148880004883
429,5390.0,-4.0,9004.0,0.0,-88.0,6802.0,-3096.0,-14580.0,1.0,-8.0,25.0,26.0,-13.0,-75.0,-24.0,-76.0,2.042917013168335
430,5390.0,-4.0,9004.0,0.0,-88.0,6802.0,-3096.0,-14580.0,52.0,26.0,21.0,41.0,32.0,27.0,71.0,46.0,2.0508153438568115
431,5390.0,-4.0,9004.0,0.0,-88.0,6802.0,-3096.0,-14580.0,-13.0,3.0,26.0,55.0,29.0,-31.0,-14.0,-49.0,2.052673816680908
432,5424.0,-662.0,10334.0,0.0,1121.0,6292.0,-4687.0,-14340.0,-13.0,3.0,26.0,55.0,29.0,-31.0,-14.0,-49.0,2.075310468673706
433,5424.0,-662.0,10334.0,0.0,1121.0,6292.0,-4687.0,-14340.0,-24.0,-33.0,88.0,78.0,-17.0,-28.0,-19.0,3.0,2.078676462173462
434,5424.0,-662.0,10334.0,0.0,1121.0,6292.0,-4687.0,-14340.0,-57.0,20.0,43.0,55.0,-81.0,63.0,-13.0,-106.0,2.0814008712768555
435,5828.0,-2826.0,11871.0,0.0,2412.0,5253.0,-6385.0,-13938.0,-57.0,20.0,43.0,55.0,-81.0,63.0,-13.0,-106.0,2.089493751525879
436,5828.0,-2826.0,11871.0,0.0,2412.0,5253.0,-6385.0,-13938.0,-82.0,6.0,-73.0,-128.0,-100.0,-49.0,-9.0,-31.0,2.0914194583892822
437,5828.0,-2826.0,11871.0,0.0,2412.0,5253.0,-6385.0,-13938.0,14.0,-26.0,39.0,64.0,88.0,60.0,46.0,70.0,2.0936777591705322
438,5903.0,-3489.0,7626.0,0.0,2972.0,4319.0,-7763.0,-13443.0,14.0,-26.0,39.0,64.0,88.0,60.0,46.0,70.0,2.1030778884887695
439,5903.0,-3489.0,7626.0,0.0,2972.0,4319.0,-7763.0,-13443.0,-16.0,58.0,73.0,45.0,-36.0,127.0,67.0,46.0,2.120568037033081
440,5903.0,-3489.0,7626.0,0.0,2972.0,4319.0,-7763.0,-13443.0,-33.0,-13.0,-59.0,-104.0,-94.0,-127.0,-55.0,-39.0,2.12434458732605
441,3569.0,-2005.0,6553.0,0.0,3582.0,3574.0,-8629.0,-12976.0,-33.0,-13.0,-59.0,-104.0,-94.0,-127.0,-55.0,-39.0,2.127990961074829
442,3569.0,-2005.0,6553.0,0.0,3582.0,3574.0,-8629.0,-12976.0,-3.0,-75.0,-87.0,33.0,51.0,11.0,-2.0,67.0,2.1343531608581543
443,3569.0,-2005.0,6553.0,0.0,3582.0,3574.0,-8629.0,-12976.0,27.0,-14.0,-5.0,-22.0,3.0,20.0,18.0,28.0,2.1364457607269287
444,1471.0,-1684.0,5889.0,0.0,4191.0,2830.0,-9132.0,-12629.0,27.0,-14.0,-5.0,-22.0,3.0,20.0,18.0,28.0,2.150812864303589
445,1471.0,-1684.0,5889.0,0.0,4191.0,2830.0,-9132.0,-12629.0,19.0,-3.0,-17.0,-29.0,-23.0,-62.0,-61.0,-52.0,2.1540207862854004
446,1471.0,-1684.0,5889.0,0.0,4191.0,2830.0,-9132.0,-12629.0,16.0,34.0,-9.0,25.0,-101.0,2.0,27.0,30.0,2.157410144805908
447,363.0,-1689.0,5923.0,0.0,4821.0,2012.0,-9425.0,-12342.0,16.0,34.0,-9.0,25.0,-101.0,2.0,27.0,30.0,2.1625428199768066
448,363.0,-1689.0,5923.0,0.0,4821.0,2012.0,-9425.0,-12342.0,14.0,17.0,-5.0,21.0,65.0,28.0,34.0,-23.0,2.171220064163208
449,363.0,-1689.0,5923.0,0.0,4821.0,2012.0,-9425.0,-12342.0,-6.0,-50.0,-31.0,-26.0,8.0,15.0,-18.0,1.0,2.1730315685272217
450,649.0,-1368.0,4431.0,0.0,5271.0,1384.0,-9673.0,-12049.0,-6.0,-50.0,-31.0,-26.0,8.0,15.0,-18.0,1.0,2.1941044330596924
451,649.0,-1368.0,4431.0,0.0,5271.0,1384.0,-9673.0,-12049.0,35.0,40.0,58.0,1.0,-1.0,-74.0,-43.0,45.0,2.1961822509765625
452,649.0,-1368.0,4431.0,0.0,5271.0,1384.0,-9673.0,-12049.0,0.0,-20.0,-25.0,-102.0,66.0,-76.0,-28.0,-16.0,2.1995387077331543
453,1646.0,-1055.0,2738.0,0.0,5508.0,1028.0,-9979.0,-11725.0,0.0,-20.0,-25.0,-102.0,66.0,-76.0,-28.0,-16.0,2.210146903991699
454,1646.0,-1055.0,2738.0,0.0,5508.0,1028.0,-9979.0,-11725.0,12.0,-22.0,-48.0,-28.0,100.0,48.0,-37.0,-22.0,2.2138383388519287
455,1646.0,-1055.0,2738.0,0.0,5508.0,1028.0,-9979.0,-11725.0,21.0,23.0,16.0,53.0,29.0,32.0,31.0,6.0,2.2170896530151367
456,2851.0,-721.0,1823.0,0.0,5627.0,909.0,-10400.0,-11305.0,21.0,23.0,16.0,53.0,29.0,32.0,31.0,6.0,2.2237682342529297
457,2851.0,-721.0,1823.0,0.0,5627.0,909.0,-10400.0,-11305.0,15.0,-14.0,-27.0,-23.0,-9.0,15.0,-11.0,65.0,2.231374740600586
458,2851.0,-721.0,1823.0,0.0,5627.0,909.0,-10400.0,-11305.0,5.0,11.0,-21.0,-93.0,-6.0,-1.0,14.0,14.0,2.2332143783569336
459,2652.0,-495.0,999.0,0.0,5665.0,897.0,-10762.0,-10943.0,5.0,11.0,-21.0,-93.0,-6.0,-1.0,14.0,14.0,2.245885133743286
460,2652.0,-495.0,999.0,0.0,5665.0,897.0,-10762.0,-10943.0,-6.0,5.0,44.0,-16.0,-117.0,31.0,9.0,-25.0,2.254681348800659
461,2652.0,-495.0,999.0,0.0,5665.0,897.0,-10762.0,-10943.0,-8.0,-9.0,-26.0,-1.0,25.0,-33.0,-20.0,-6.0,2.257927417755127
462,1632.0,-311.0,789.0,0.0,5699.0,875.0,-10982.0,-10705.0,-8.0,-9.0,-26.0,-1.0,25.0,-33.0,-20.0,-6.0,2.2772915363311768
463,1632.0,-311.0,789.0,0.0,5699.0,875.0,-10982.0,-10705.0,4.0,14.0,20.0,-17.0,43.0,58.0,-8.0,-22.0,2.2806553840637207
464,1632.0,-311.0,789.0,0.0,5699.0,875.0,-10982.0,-10705.0,-13.0,22.0,-14.0,-94.0,-26.0,-10.0,-26.0,-2.0,2.2839760780334473
465,263.0,-241.0,656.0,0.0,5714.0,828.0,-11016.0,-10666.0,-13.0,22.0,-14.0,-94.0,-26.0,-10.0,-26.0,-2.0,2.287433385848999
466,263.0,-241.0,656.0,0.0,5714.0,828.0,-11016.0,-10666.0,2.0,-2.0,9.0,27.0,28.0,27.0,26.0,29.0,2.2909719944000244
467,263.0,-241.0,656.0,0.0,5714.0,828.0,-11016.0,-10666.0,-4.0,-12.0,9.0,77.0,29.0,63.0,-10.0,-12.0,2.2927937507629395
468,-531.0,-33.0,404.0,0.0,5769.0,748.0,-10928.0,-10732.0,-4.0,-12.0,9.0,77.0,29.0,63.0,-10.0,-12.0,2.3050501346588135
469,-531.0,-33.0,404.0,0.0,5769.0,748.0,-10928.0,-10732.0,9.0,-11.0,-25.0,27.0,-49.0,-52.0,-37.0,62.0,2.3137357234954834
470,-531.0,-33.0,404.0,0.0,5769.0,748.0,-10928.0,-10732.0,0.0,2.0,-11.0,66.0,-9.0,2.0,7.0,-29.0,2.3155672550201416
471,-309.0,145.0,99.0,0.0,5832.0,709.0,-10854.0,-10777.0,0.0,2.0,-11.0,66.0,-9.0,2.0,7.0,-29.0,2.330033779144287
472,-309.0,145.0,99.0,0.0,5832.0,709.0,-10854.0,-10777.0,-1.0,-3.0,-8.0,-29.0,26.0,-4.0,18.0,-35.0,2.3344876766204834
473,-309.0,145.0,99.0,0.0,5832.0,709.0,-10854.0,-10777.0,3.0,1.0,-4.0,39.0,6.0,5.0,-14.0,14.0,2.3383171558380127
474,-84.0,250.0,-44.0,0.0,5872.0,721.0,-10825.0,-10782.0,3.0,1.0,-4.0,39.0,6.0,5.0,-14.0,14.0,2.3427727222442627
475,-84.0,250.0,-44.0,0.0,5872.0,721.0,-10825.0,-10782.0,-3.0,-7.0,-28.0,-21.0,-25.0,24.0,9.0,-26.0,2.352505683898926
476,-84.0,250.0,-44.0,0.0,5872.0,721.0,-10825.0,-10782.0,5.0,-8.0,-16.0,-21.0,20.0,-20.0,7.0,17.0,2.355785846710205
477,-216.0,281.0,-133.0,0.0,5886.0,752.0,-10805.0,-10794.0,5.0,-8.0,-16.0,-21.0,20.0,-20.0,7.0,17.0,2.366082191467285
478,-216.0,281.0,-133.0,0.0,5886.0,752.0,-10805.0,-10794.0,-2.0,3.0,20.0,-55.0,1.0,-8.0,8.0,-25.0,2.3761394023895264
479,-216.0,281.0,-133.0,0.0,5886.0,752.0,-10805.0,-10794.0,1.0,-11.0,5.0,40.0,7.0,-19.0,-21.0,-20.0,2.378237724304199
480,-315.0,280.0,-246.0,0.0,5889.0,782.0,-10781.0,-10813.0,1.0,-11.0,5.0,40.0,7.0,-19.0,-21.0,-20.0,2.3972456455230713
481,-315.0,280.0,-246.0,0.0,5889.0,782.0,-10781.0,-10813.0,8.0,12.0,-21.0,-51.0,17.0,19.0,19.0,-13.0,2.401017189025879
482,-315.0,280.0,-246.0,0.0,5889.0,782.0,-10781.0,-10813.0,8.0,12.0,3.0,-4.0,-18.0,-24.0,24.0,15.0,2.4044361114501953
483,-128.0,240.0,-409.0,0.0,5873.0,834.0,-10776.0,-10823.0,8.0,12.0,3.0,-4.0,-18.0,-24.0,24.0,15.0,2.407816171646118
484,-128.0,240.0,-409.0,0.0,5873.0,834.0,-10776.0,-10823.0,3.0,-21.0,-6.0,62.0,56.0,0.0,-11.0,-11.0,2.4111721515655518
485,-128.0,240.0,-409.0,0.0,5873.0,834.0,-10776.0,-10823.0,3.0,-21.0,-6.0,62.0,56.0,0.0,-11.0,-11.0,2.414902448654175
486,-128.0,240.0,-409.0,0.0,5873.0,834.0,-10776.0,-10823.0,2.0,7.0,16.0,-5.0,-24.0,-46.0,16.0,-1.0,2.4259965419769287
487,60.0,175.0,-503.0,0.0,5833.0,909.0,-10791.0,-10824.0,2.0,7.0,16.0,-5.0,-24.0,-46.0,16.0,-1.0,2.4286463260650635
488,60.0,175.0,-503.0,0.0,5833.0,909.0,-10791.0,-10824.0,19.0,-1.0,-1.0,75.0,-5.0,-9.0,16.0,48.0,2.4338388442993164
489,60.0,175.0,-503.0,0.0,5833.0,909.0,-10791.0,-10824.0,-2.0,8.0,7.0,19.0,-1.0,27.0,-8.0,8.0,2.4362616539001465
490,60.0,118.0,-508.0,0.0,5791.0,972.0,-10803.0,-10828.0,-2.0,8.0,7.0,19.0,-1.0,27.0,-8.0,8.0,2.4494662284851074
491,60.0,118.0,-508.0,0.0,5791.0,972.0,-10803.0,-10828.0,-8.0,2.0,9.0,7.0,10.0,-17.0,-3.0,26.0,2.451467752456665
492,60.0,118.0,-508.0,0.0,5791.0,972.0,-10803.0,-10828.0,-1.0,1.0,-23.0,-49.0,-3.0,-33.0,-7.0,-37.0,2.4532785415649414
493,-82.0,99.0,-453.0,0.0,5770.0,1004.0,-10792.0,-10848.0,-1.0,1.0,-23.0,-49.0,-3.0,-33.0,-7.0,-37.0,2.4716861248016357
494,-82.0,99.0,-453.0,0.0,5770.0,1004.0,-10792.0,-10848.0,3.0,-1.0,-9.0,35.0,-74.0,-22.0,8.0,-27.0,2.473619222640991
495,-82.0,99.0,-453.0,0.0,5770.0,1004.0,-10792.0,-10848.0,9.0,6.0,27.0,51.0,4.0,7.0,28.0,43.0,2.475843906402588
496,-86.0,68.0,-371.0,0.0,5763.0,1012.0,-10785.0,-10859.0,9.0,6.0,27.0,51.0,4.0,7.0,28.0,43.0,2.4852309226989746
497,-86.0,68.0,-371.0,0.0,5763.0,1012.0,-10785.0,-10859.0,-6.0,-2.0,-9.0,-17.0,-9.0,-17.0,6.0,-13.0,2.4936182498931885
498,-86.0,68.0,-371.0,0.0,5763.0,1012.0,-10785.0,-10859.0,0.0,5.0,-6.0,-27.0,-3.0,6.0,-10.0,-18.0,2.4954657554626465
499,-20.0,62.0,-333.0,0.0,5759.0,1017.0,-10787.0,-10858.0,0.0,5.0,-6.0,-27.0,-3.0,6.0,-10.0,-18.0,2.51758074760437
500,-20.0,62.0,-333.0,0.0,5759.0,1017.0,-10787.0,-10858.0,-11.0,-9.0,10.0,17.0,22.0,27.0,-1.0,1.0,2.522448778152466
501,-20.0,62.0,-333.0,0.0,5759.0,1017.0,-10787.0,-10858.0,7.0,10.0,6.0,-22.0,-61.0,-28.0,3.0,-5.0,2.525934934616089
502,40.0,49.0,-285.0,0.0,5752.0,1026.0,-10803.0,-10845.0,7.0,10.0,6.0,-22.0,-61.0,-28.0,3.0,-5.0,2.5289671421051025
503,40.0,49.0,-285.0,0.0,5752.0,1026.0,-10803.0,-10845.0,10.0,-10.0,-12.0,44.0,-5.0,6.0,8.0,11.0,2.538806915283203
504,40.0,49.0,-285.0,0.0,5752.0,1026.0,-10803.0,-10845.0,0.0,-4.0,-4.0,25.0,54.0,-14.0,13.0,10.0,2.540903329849243
505,30.0,71.0,-254.0,0.0,5747.0,1037.0,-10819.0,-10831.0,0.0,-4.0,-4.0,25.0,54.0,-14.0,13.0,10.0,2.545269012451172
506,30.0,71.0,-254.0,0.0,5747.0,1037.0,-10819.0,-10831.0,-12.0,-11.0,-19.0,8.0,-29.0,-39.0,-18.0,-3.0,2.553471088409424
507,30.0,71.0,-254.0,0.0,5747.0,1037.0,-10819.0,-10831.0,6.0,5.0,2.0,-67.0,28.0,26.0,-10.0,6.0,2.5552828311920166
508,-10.0,85.0,-195.0,0.0,5749.0,1043.0,-10830.0,-10818.0,6.0,5.0,2.0,-67.0,28.0,26.0,-10.0,6.0,2.5698838233947754
509,-10.0,85.0,-195.0,0.0,5749.0,1043.0,-10830.0,-10818.0,2.0,22.0,26.0,20.0,14.0,14.0,9.0,36.0,2.5729944705963135
510,-10.0,85.0,-195.0,0.0,5749.0,1043.0,-10830.0,-10818.0,-11.0,-3.0,5.0,18.0,-17.0,23.0,1.0,-37.0,2.576017141342163
511,-17.0,85.0,-142.0,0.0,5758.0,1043.0,-10840.0,-10803.0,-11.0,-3.0,5.0,18.0,-17.0,23.0,1.0,-37.0,2.5924408435821533
512,-17.0,85.0,-142.0,0.0,5758.0,1043.0,-10840.0,-10803.0,-4.0,6.0,-26.0,-39.0,-26.0,-19.0,-14.0,-35.0,2.5955562591552734
513,-17.0,85.0,-142.0,0.0,5758.0,1043.0,-10840.0,-10803.0,2.0,-18.0,-2.0,-39.0,-23.0,-19.0,-25.0,45.0,2.5986950397491455
514,-21.0,71.0,-95.0,0.0,5768.0,1037.0,-10851.0,-10787.0,2.0,-18.0,-2.0,-39.0,-23.0,-19.0,-25.0,45.0,2.6061689853668213
515,-21.0,71.0,-95.0,0.0,5768.0,1037.0,-10851.0,-10787.0,9.0,-2.0,12.0,-65.0,-16.0,-6.0,-10.0,-18.0,2.6080589294433594
516,-21.0,71.0,-95.0,0.0,5768.0,1037.0,-10851.0,-10787.0,0.0,4.0,13.0,43.0,9.0,-17.0,-17.0,-27.0,2.620654821395874
517,-44.0,58.0,-80.0,0.0,5779.0,1028.0,-10859.0,-10774.0,0.0,4.0,13.0,43.0,9.0,-17.0,-17.0,-27.0,2.63042950630188
518,-44.0,58.0,-80.0,0.0,5779.0,1028.0,-10859.0,-10774.0,-6.0,-11.0,1.0,15.0,16.0,-6.0,-9.0,0.0,2.6324100494384766
519,-44.0,58.0,-80.0,0.0,5779.0,1028.0,-10859.0,-10774.0,0.0,-10.0,-24.0,-58.0,-14.0,35.0,9.0,2.0,2.6342034339904785
520,-13.0,70.0,-65.0,0.0,5790.0,1025.0,-10866.0,-10761.0,0.0,-10.0,-24.0,-58.0,-14.0,35.0,9.0,2.0,2.6431665420532227
521,-13.0,70.0,-65.0,0.0,5790.0,1025.0,-10866.0,-10761.0,-11.0,0.0,-12.0,-15.0,7.0,28.0,-12.0,-32.0,2.6529178619384766
522,-13.0,70.0,-65.0,0.0,5790.0,1025.0,-10866.0,-10761.0,3.0,0.0,2.0,65.0,32.0,4.0,2.0,8.0,2.655198097229004
523,0.0,66.0,-42.0,0.0,5801.0,1024.0,-10873.0,-10749.0,3.0,0.0,2.0,65.0,32.0,4.0,2.0,8.0,2.6661787033081055
524,0.0,66.0,-42.0,0.0,5801.0,1024.0,-10873.0,-10749.0,1.0,0.0,1.0,15.0,45.0,9.0,5.0,-11.0,2.6681082248687744
525,0.0,66.0,-42.0,0.0,5801.0,1024.0,-10873.0,-10749.0,-6.0,-6.0,1.0,37.0,-17.0,8.0,0.0,7.0,2.6729249954223633
526,-30.0,56.0,-20.0,0.0,5813.0,1018.0,-10874.0,-10742.0,-6.0,-6.0,1.0,37.0,-17.0,8.0,0.0,7.0,2.6907155513763428
527,-30.0,56.0,-20.0,0.0,5813.0,1018.0,-10874.0,-10742.0,-4.0,-6.0,-5.0,-24.0,47.0,-1.0,-11.0,-5.0,2.696284770965576
528,-30.0,56.0,-20.0,0.0,5813.0,1018.0,-10874.0,-10742.0,0.0,0.0,-31.0,-41.0,27.0,2.0,19.0,9.0,2.6995911598205566
529,-23.0,83.0,8.0,0.0,5834.0,1011.0,-10872.0,-10733.0,0.0,0.0,-31.0,-41.0,27.0,2.0,19.0,9.0,2.7115821838378906
530,-23.0,83.0,8.0,0.0,5834.0,1011.0,-10872.0,-10733.0,5.0,12.0,3.0,8.0,13.0,0.0,8.0,-14.0,2.717505931854248
531,-23.0,83.0,8.0,0.0,5834.0,1011.0,-10872.0,-10733.0,2.0,15.0,33.0,10.0,16.0,-11.0,0.0,-2.0,2.7212724685668945
532,37.0,143.0,34.0,0.0,5866.0,1009.0,-10873.0,-10714.0,2.0,15.0,33.0,10.0,16.0,-11.0,0.0,-2.0,2.727181911468506
533,37.0,143.0,34.0,0.0,5866.0,1009.0,-10873.0,-10714.0,-2.0,-2.0,3.0,13.0,9.0,-1.0,-17.0,26.0,2.730070114135742
534,37.0,143.0,34.0,0.0,5866.0,1009.0,-10873.0,-10714.0,-3.0,-10.0,-14.0,-49.0,-22.0,16.0,-3.0,24.0,2.731912612915039
535,137.0,177.0,78.0,0.0,5905.0,1014.0,-10887.0,-10678.0,-3.0,-10.0,-14.0,-49.0,-22.0,16.0,-3.0,24.0,2.749405860900879
536,137.0,177.0,78.0,0.0,5905.0,1014.0,-10887.0,-10678.0,-1.0,2.0,13.0,0.0,33.0,7.0,9.0,4.0,2.7513234615325928
537,137.0,177.0,78.0,0.0,5905.0,1014.0,-10887.0,-10678.0,0.0,14.0,54.0,-2.0,2.0,-3.0,-8.0,-20.0,2.753185272216797
538,189.0,159.0,92.0,0.0,5939.0,1023.0,-10908.0,-10637.0,0.0,14.0,54.0,-2.0,2.0,-3.0,-8.0,-20.0,2.762755870819092
539,189.0,159.0,92.0,0.0,5939.0,1023.0,-10908.0,-10637.0,7.0,1.0,-3.0,-28.0,-1.0,1.0,11.0,13.0,2.780252456665039
540,189.0,159.0,92.0,0.0,5939.0,1023.0,-10908.0,-10637.0,-3.0,-13.0,-11.0,36.0,-17.0,14.0,22.0,10.0,2.785041093826294
541,129.0,111.0,118.0,0.0,5967.0,1023.0,-10926.0,-10603.0,-3.0,-13.0,-11.0,36.0,-17.0,14.0,22.0,10.0,2.7940990924835205
542,129.0,111.0,118.0,0.0,5967.0,1023.0,-10926.0,-10603.0,-5.0,-3.0,13.0,78.0,-18.0,-19.0,-5.0,-22.0,2.7961361408233643
543,129.0,111.0,118.0,0.0,5967.0,1023.0,-10926.0,-10603.0,0.0,-8.0,-7.0,39.0,-3.0,19.0,1.0,-30.0,2.798212766647339
544,64.0,67.0,85.0,0.0,5985.0,1019.0,-10939.0,-10579.0,0.0,-8.0,-7.0,39.0,-3.0,19.0,1.0,-30.0,2.8085505962371826
545,64.0,67.0,85.0,0.0,5985.0,1019.0,-10939.0,-10579.0,-4.0,-1.0,-7.0,-66.0,-39.0,-40.0,6.0,-7.0,2.810457468032837
546,64.0,67.0,85.0,0.0,5985.0,1019.0,-10939.0,-10579.0,-6.0,-2.0,-6.0,-28.0,-23.0,-5.0,-11.0,-23.0,2.815340280532837
547,53.0,20.0,50.0,0.0,5996.0,1010.0,-10955.0,-10558.0,-6.0,-2.0,-6.0,-28.0,-23.0,-5.0,-11.0,-23.0,2.8229753971099854
548,53.0,20.0,50.0,0.0,5996.0,1010.0,-10955.0,-10558.0,7.0,3.0,-7.0,-25.0,35.0,-8.0,-4.0,17.0,2.8308777809143066
549,53.0,20.0,50.0,0.0,5996.0,1010.0,-10955.0,-10558.0,1.0,2.0,13.0,-46.0,-11.0,-21.0,-6.0,-3.0,2.8328282833099365
550,22.0,11.0,31.0,0.0,6005.0,1000.0,-10965.0,-10543.0,1.0,2.0,13.0,-46.0,-11.0,-21.0,-6.0,-3.0,2.8550467491149902
551,22.0,11.0,31.0,0.0,6005.0,1000.0,-10965.0,-10543.0,-5.0,-8.0,-8.0,25.0,-14.0,33.0,13.0,4.0,2.859670877456665
552,22.0,11.0,31.0,0.0,6005.0,1000.0,-10965.0,-10543.0,1.0,-2.0,-8.0,26.0,19.0,-4.0,-1.0,5.0,2.863323926925659
553,2.0,17.0,-5.0,0.0,6013.0,992.0,-10972.0,-10532.0,1.0,-2.0,-8.0,26.0,19.0,-4.0,-1.0,5.0,2.8710522651672363
554,2.0,17.0,-5.0,0.0,6013.0,992.0,-10972.0,-10532.0,-8.0,1.0,-1.0,-46.0,-30.0,-9.0,5.0,-20.0,2.8731696605682373
555,2.0,17.0,-5.0,0.0,6013.0,992.0,-10972.0,-10532.0,2.0,-9.0,-10.0,40.0,-32.0,-3.0,24.0,36.0,2.8749821186065674
556,13.0,8.0,-55.0,0.0,6014.0,989.0,-10981.0,-10522.0,2.0,-9.0,-10.0,40.0,-32.0,-3.0,24.0,36.0,2.8827526569366455
557,13.0,8.0,-55.0,0.0,6014.0,989.0,-10981.0,-10522.0,-8.0,-6.0,4.0,28.0,45.0,4.0,1.0,-34.0,2.899658441543579
558,13.0,8.0,-55.0,0.0,6014.0,989.0,-10981.0,-10522.0,-1.0,5.0,-6.0,-17.0,22.0,-1.0,-6.0,-13.0,2.9030513763427734
559,-3.0,36.0,-81.0,0.0,6017.0,991.0,-10982.0,-10520.0,-1.0,5.0,-6.0,-17.0,22.0,-1.0,-6.0,-13.0,2.91418719291687
560,-3.0,36.0,-81.0,0.0,6017.0,991.0,-10982.0,-10520.0,-3.0,-7.0,1.0,8.0,-16.0,20.0,-1.0,-9.0,2.9160943031311035
561,-3.0,36.0,-81.0,0.0,6017.0,991.0,-10982.0,-10520.0,14.0,5.0,-16.0,-14.0,15.0,-57.0,-24.0,-2.0,2.9179015159606934
562,-17.0,57.0,-109.0,0.0,6018.0,999.0,-10979.0,-10521.0,14.0,5.0,-16.0,-14.0,15.0,-57.0,-24.0,-2.0,2.9380719661712646
563,-17.0,57.0,-109.0,0.0,6018.0,999.0,-10979.0,-10521.0,0.0,-7.0,-2.0,33.0,-44.0,-9.0,-7.0,7.0,2.941237688064575
564,-17.0,57.0,-109.0,0.0,6018.0,999.0,-10979.0,-10521.0,-12.0,-10.0,2.0,20.0,-34.0,1.0,5.0,5.0,2.9431090354919434
565,-7.0,73.0,-126.0,0.0,6018.0,1014.0,-10977.0,-10522.0,-12.0,-10.0,2.0,20.0,-34.0,1.0,5.0,5.0,2.944918632507324
566,-7.0,73.0,-126.0,0.0,6018.0,1014.0,-10977.0,-10522.0,3.0,10.0,-2.0,-13.0,-2.0,13.0,8.0,22.0,2.9518725872039795
567,-7.0,73.0,-126.0,0.0,6018.0,1014.0,-10977.0,-10522.0,-3.0,4.0,0.0,4.0,17.0,3.0,3.0,-12.0,2.9541449546813965
568,-60.0,89.0,-147.0,0.0,6015.0,1032.0,-10968.0,-10531.0,-3.0,4.0,0.0,4.0,17.0,3.0,3.0,-12.0,2.9662530422210693
569,-60.0,89.0,-147.0,0.0,6015.0,1032.0,-10968.0,-10531.0,-5.0,1.0,-5.0,-34.0,8.0,-5.0,2.0,4.0,2.9682066440582275
570,-60.0,89.0,-147.0,0.0,6015.0,1032.0,-10968.0,-10531.0,-1.0,-3.0,-7.0,-24.0,50.0,13.0,14.0,-1.0,2.9727392196655273
571,-90.0,92.0,-162.0,0.0,6012.0,1049.0,-10955.0,-10544.0,-1.0,-3.0,-7.0,-24.0,50.0,13.0,14.0,-1.0,2.989267110824585
572,-90.0,92.0,-162.0,0.0,6012.0,1049.0,-10955.0,-10544.0,11.0,6.0,17.0,40.0,7.0,-18.0,0.0,23.0,2.9923083782196045
573,-90.0,92.0,-162.0,0.0,6012.0,1049.0,-10955.0,-10544.0,-3.0,-1.0,-12.0,-26.0,-16.0,12.0,-6.0,32.0,2.9952030181884766
574,-114.0,109.0,-182.0,0.0,6010.0,1068.0,-10940.0,-10560.0,-3.0,-1.0,-12.0,-26.0,-16.0,12.0,-6.0,32.0,3.002577066421509
575,-114.0,109.0,-182.0,0.0,6010.0,1068.0,-10940.0,-10560.0,-3.0,-13.0,-22.0,-77.0,-23.0,18.0,-14.0,-24.0,3.011047601699829
576,-114.0,109.0,-182.0,0.0,6010.0,1068.0,-10940.0,-10560.0,-7.0,0.0,4.0,20.0,-14.0,35.0,-3.0,-13.0,3.0137128829956055
577,-88.0,98.0,-199.0,0.0,6005.0,1087.0,-10930.0,-10571.0,-7.0,0.0,4.0,20.0,-14.0,35.0,-3.0,-13.0,3.0260655879974365
578,-88.0,98.0,-199.0,0.0,6005.0,1087.0,-10930.0,-10571.0,1.0,3.0,-1.0,-3.0,7.0,-17.0,-8.0,12.0,3.028163433074951
579,-88.0,98.0,-199.0,0.0,6005.0,1087.0,-10930.0,-10571.0,-1.0,0.0,1.0,11.0,11.0,6.0,-11.0,-21.0,3.0337493419647217
580,-80.0,89.0,-215.0,0.0,5997.0,1108.0,-10920.0,-10583.0,-1.0,0.0,1.0,11.0,11.0,6.0,-11.0,-21.0,3.0491552352905273
581,-80.0,89.0,-215.0,0.0,5997.0,1108.0,-10920.0,-10583.0,-1.0,3.0,10.0,44.0,-24.0,-28.0,-34.0,-20.0,3.052262544631958
582,-80.0,89.0,-215.0,0.0,5997.0,1108.0,-10920.0,-10583.0,14.0,11.0,7.0,36.0,-2.0,-17.0,6.0,26.0,3.056053638458252
583,-81.0,73.0,-201.0,0.0,5986.0,1129.0,-10912.0,-10596.0,14.0,11.0,7.0,36.0,-2.0,-17.0,6.0,26.0,3.0718600749969482
584,-81.0,73.0,-201.0,0.0,5986.0,1129.0,-10912.0,-10596.0,-1.0,3.0,-7.0,-18.0,-15.0,-24.0,-9.0,9.0,3.075399160385132
585,-81.0,73.0,-201.0,0.0,5986.0,1129.0,-10912.0,-10596.0,-6.0,-1.0,-12.0,22.0,3.0,-3.0,-12.0,-29.0,3.0791969299316406
586,-103.0,75.0,-188.0,0.0,5978.0,1144.0,-10903.0,-10608.0,-6.0,-1.0,-12.0,22.0,3.0,-3.0,-12.0,-29.0,3.0864152908325195
587,-103.0,75.0,-188.0,0.0,5978.0,1144.0,-10903.0,-10608.0,-3.0,-3.0,7.0,19.0,17.0,8.0,12.0,1.0,3.0883827209472656
588,-103.0,75.0,-188.0,0.0,5978.0,1144.0,-10903.0,-10608.0,0.0,-6.0,1.0,-12.0,-13.0,-17.0,-6.0,10.0,3.0927557945251465
589,-124.0,68.0,-178.0,0.0,5973.0,1154.0,-10892.0,-10621.0,0.0,-6.0,1.0,-12.0,-13.0,-17.0,-6.0,10.0,3.108248233795166
590,-124.0,68.0,-178.0,0.0,5973.0,1154.0,-10892.0,-10621.0,-4.0,-5.0,-6.0,-12.0,-1.0,17.0,8.0,-19.0,3.110585927963257
591,-124.0,68.0,-178.0,0.0,5973.0,1154.0,-10892.0,-10621.0,-1.0,4.0,0.0,-42.0,-5.0,0.0,13.0,-10.0,3.115849494934082
592,-74.0,73.0,-159.0,0.0,5971.0,1165.0,-10885.0,-10628.0,-1.0,4.0,0.0,-42.0,-5.0,0.0,13.0,-10.0,3.1319870948791504
593,-74.0,73.0,-159.0,0.0,5971.0,1165.0,-10885.0,-10628.0,-2.0,-2.0,5.0,14.0,6.0,-12.0,-1.0,11.0,3.140681505203247
594,-74.0,73.0,-159.0,0.0,5971.0,1165.0,-10885.0,-10628.0,0.0,-4.0,-5.0,-59.0,35.0,-2.0,0.0,26.0,3.1427254676818848
595,-15.0,82.0,-145.0,0.0,5970.0,1180.0,-10884.0,-10628.0,0.0,-4.0,-5.0,-59.0,35.0,-2.0,0.0,26.0,3.1462202072143555
596,-15.0,82.0,-145.0,0.0,5970.0,1180.0,-10884.0,-10628.0,-7.0,-7.0,-20.0,7.0,-4.0,-1.0,7.0,-7.0,3.1484549045562744
597,-15.0,82.0,-145.0,0.0,5970.0,1180.0,-10884.0,-10628.0,0.0,1.0,8.0,45.0,-1.0,3.0,-7.0,3.0,3.152784824371338
598,-7.0,71.0,-132.0,0.0,5969.0,1194.0,-10884.0,-10628.0,0.0,1.0,8.0,45.0,-1.0,3.0,-7.0,3.0,3.1700854301452637
599,-7.0,71.0,-132.0,0.0,5969.0,1194.0,-10884.0,-10628.0,-1.0,-2.0,2.0,8.0,12.0,14.0,9.0,13.0,3.1735572814941406
600,-7.0,71.0,-132.0,0.0,5969.0,1194.0,-10884.0,-10628.0,-8.0,-1.0,10.0,12.0,2.0,6.0,-1.0,-17.0,3.1767513751983643
601,-22.0,54.0,-105.0,0.0,5970.0,1201.0,-10881.0,-10628.0,-8.0,-1.0,10.0,12.0,2.0,6.0,-1.0,-17.0,3.192628860473633
602,-22.0,54.0,-105.0,0.0,5970.0,1201.0,-10881.0,-10628.0,2.0,3.0,-4.0,35.0,1.0,-2.0,4.0,-7.0,3.195765733718872
603,-22.0,54.0,-105.0,0.0,5970.0,1201.0,-10881.0,-10628.0,-1.0,-1.0,4.0,31.0,5.0,1.0,-4.0,10.0,3.1989974975585938
604,-24.0,44.0,-78.0,0.0,5973.0,1204.0,-10881.0,-10627.0,-1.0,-1.0,4.0,31.0,5.0,1.0,-4.0,10.0,3.2066688537597656
605,-24.0,44.0,-78.0,0.0,5973.0,1204.0,-10881.0,-10627.0,4.0,-2.0,-13.0,-28.0,-18.0,4.0,-1.0,23.0,3.2149171829223633
606,-24.0,44.0,-78.0,0.0,5973.0,1204.0,-10881.0,-10627.0,-4.0,-4.0,-5.0,25.0,-2.0,8.0,-2.0,-19.0,3.21832537651062
607,-34.0,52.0,-52.0,0.0,5980.0,1205.0,-10878.0,-10626.0,-4.0,-4.0,-5.0,25.0,-2.0,8.0,-2.0,-19.0,3.229310989379883
608,-34.0,52.0,-52.0,0.0,5980.0,1205.0,-10878.0,-10626.0,-1.0,1.0,3.0,-9.0,-20.0,-7.0,-9.0,-12.0,3.232227087020874
609,-34.0,52.0,-52.0,0.0,5980.0,1205.0,-10878.0,-10626.0,-5.0,-6.0,-4.0,7.0,-36.0,6.0,-3.0,-15.0,3.234729766845703
610,-29.0,37.0,-29.0,0.0,5986.0,1203.0,-10875.0,-10625.0,-5.0,-6.0,-4.0,7.0,-36.0,6.0,-3.0,-15.0,3.2609026432037354
611,-29.0,37.0,-29.0,0.0,5986.0,1203.0,-10875.0,-10625.0,3.0,4.0,12.0,19.0,21.0,-25.0,-5.0,8.0,3.2638838291168213
612,-29.0,37.0,-29.0,0.0,5986.0,1203.0,-10875.0,-10625.0,4.0,4.0,-5.0,-92.0,1.0,-3.0,9.0,14.0,3.266103982925415
613,-10.0,40.0,-19.0,0.0,5993.0,1203.0,-10874.0,-10622.0,4.0,4.0,-5.0,-92.0,1.0,-3.0,9.0,14.0,3.2683095932006836
614,-10.0,40.0,-19.0,0.0,5993.0,1203.0,-10874.0,-10622.0,0.0,-4.0,-3.0,-3.0,-17.0,9.0,5.0,-3.0,3.2730977535247803
615,-10.0,40.0,-19.0,0.0,5993.0,1203.0,-10874.0,-10622.0,-1.0,-5.0,-5.0,33.0,16.0,-3.0,0.0,-4.0,3.2749266624450684
616,3.0,46.0,-15.0,0.0,6000.0,1205.0,-10876.0,-10617.0,-1.0,-5.0,-5.0,33.0,16.0,-3.0,0.0,-4.0,3.2892746925354004
617,3.0,46.0,-15.0,0.0,6000.0,1205.0,-10876.0,-10617.0,2.0,5.0,6.0,-38.0,9.0,21.0,6.0,-1.0,3.2918457984924316
618,3.0,46.0,-15.0,0.0,6000.0,1205.0,-10876.0,-10617.0,-1.0,3.0,-8.0,-4.0,-27.0,5.0,-7.0,-8.0,3.3029258251190186
619,9.0,34.0,3.0,0.0,6006.0,1206.0,-10878.0,-10611.0,-1.0,3.0,-8.0,-4.0,-27.0,5.0,-7.0,-8.0,3.31229829788208
620,9.0,34.0,3.0,0.0,6006.0,1206.0,-10878.0,-10611.0,-5.0,-6.0,3.0,82.0,26.0,12.0,-1.0,-6.0,3.3142786026000977
621,9.0,34.0,3.0,0.0,6006.0,1206.0,-10878.0,-10611.0,-1.0,-2.0,2.0,10.0,-16.0,-9.0,-2.0,0.0,3.3161122798919678
622,-15.0,29.0,21.0,0.0,6012.0,1203.0,-10879.0,-10606.0,-1.0,-2.0,2.0,10.0,-16.0,-9.0,-2.0,0.0,3.3256239891052246
623,-15.0,29.0,21.0,0.0,6012.0,1203.0,-10879.0,-10606.0,-4.0,-9.0,-22.0,-22.0,-11.0,-28.0,-5.0,-23.0,3.3344058990478516
624,-15.0,29.0,21.0,0.0,6012.0,1203.0,-10879.0,-10606.0,5.0,5.0,6.0,-11.0,-17.0,6.0,15.0,25.0,3.3377187252044678
625,-53.0,22.0,37.0,0.0,6020.0,1196.0,-10877.0,-10605.0,5.0,5.0,6.0,-11.0,-17.0,6.0,15.0,25.0,3.3485260009765625
626,-53.0,22.0,37.0,0.0,6020.0,1196.0,-10877.0,-10605.0,-3.0,0.0,10.0,-56.0,5.0,-19.0,-4.0,3.0,3.350421190261841
627,-53.0,22.0,37.0,0.0,6020.0,1196.0,-10877.0,-10605.0,-8.0,-12.0,-12.0,-26.0,-11.0,6.0,-2.0,-13.0,3.3554892539978027
628,-38.0,30.0,52.0,0.0,6029.0,1190.0,-10877.0,-10601.0,-8.0,-12.0,-12.0,-26.0,-11.0,6.0,-2.0,-13.0,3.3739354610443115
629,-38.0,30.0,52.0,0.0,6029.0,1190.0,-10877.0,-10601.0,1.0,10.0,-2.0,-16.0,-24.0,6.0,5.0,4.0,3.380110740661621
630,-38.0,30.0,52.0,0.0,6029.0,1190.0,-10877.0,-10601.0,7.0,5.0,18.0,67.0,25.0,19.0,-1.0,0.0,3.383788585662842
631,-35.0,21.0,62.0,0.0,6037.0,1183.0,-10878.0,-10596.0,7.0,5.0,18.0,67.0,25.0,19.0,-1.0,0.0,3.386244535446167
632,-35.0,21.0,62.0,0.0,6037.0,1183.0,-10878.0,-10596.0,-7.0,-12.0,-4.0,-5.0,-2.0,8.0,0.0,13.0,3.3935720920562744
633,-35.0,21.0,62.0,0.0,6037.0,1183.0,-10878.0,-10596.0,6.0,2.0,0.0,-1.0,1.0,-14.0,-9.0,-2.0,3.395531415939331
634,-33.0,10.0,34.0,0.0,6043.0,1176.0,-10878.0,-10593.0,6.0,2.0,0.0,-1.0,1.0,-14.0,-9.0,-2.0,3.4100093841552734
635,-33.0,10.0,34.0,0.0,6043.0,1176.0,-10878.0,-10593.0,-3.0,2.0,6.0,-5.0,7.0,-5.0,-24.0,-25.0,3.413628101348877
636,-33.0,10.0,34.0,0.0,6043.0,1176.0,-10878.0,-10593.0,-6.0,-8.0,-8.0,39.0,-4.0,2.0,-8.0,-16.0,3.4235970973968506
637,3.0,10.0,15.0,0.0,6043.0,1175.0,-10879.0,-10593.0,-6.0,-8.0,-8.0,39.0,-4.0,2.0,-8.0,-16.0,3.4327187538146973
638,3.0,10.0,15.0,0.0,6043.0,1175.0,-10879.0,-10593.0,-1.0,1.0,0.0,-76.0,-30.0,14.0,18.0,16.0,3.4380314350128174
639,3.0,10.0,15.0,0.0,6043.0,1175.0,-10879.0,-10593.0,-4.0,-3.0,9.0,-27.0,-30.0,6.0,-9.0,-20.0,3.4419589042663574
640,36.0,-11.0,1.0,0.0,6042.0,1175.0,-10886.0,-10586.0,-4.0,-3.0,9.0,-27.0,-30.0,6.0,-9.0,-20.0,3.4459457397460938
641,36.0,-11.0,1.0,0.0,6042.0,1175.0,-10886.0,-10586.0,3.0,4.0,-8.0,2.0,2.0,34.0,21.0,11.0,3.4622488021850586
642,36.0,-11.0,1.0,0.0,6042.0,1175.0,-10886.0,-10586.0,1.0,1.0,10.0,-20.0,2.0,-9.0,-2.0,-2.0,3.465292453765869
643,45.0,-26.0,8.0,0.0,6039.0,1172.0,-10898.0,-10575.0,1.0,1.0,10.0,-20.0,2.0,-9.0,-2.0,-2.0,3.4686226844787598
644,45.0,-26.0,8.0,0.0,6039.0,1172.0,-10898.0,-10575.0,-1.0,-7.0,-1.0,18.0,11.0,-7.0,-2.0,-3.0,3.4705822467803955
645,45.0,-26.0,8.0,0.0,6039.0,1172.0,-10898.0,-10575.0,9.0,5.0,-23.0,12.0,-10.0,0.0,-1.0,21.0,3.4752776622772217
646,33.0,-18.0,9.0,0.0,6038.0,1168.0,-10908.0,-10566.0,9.0,5.0,-23.0,12.0,-10.0,0.0,-1.0,21.0,3.4915719032287598
647,33.0,-18.0,9.0,0.0,6038.0,1168.0,-10908.0,-10566.0,0.0,0.0,1.0,18.0,3.0,-37.0,1.0,-7.0,3.493805170059204
648,33.0,-18.0,9.0,0.0,6038.0,1168.0,-10908.0,-10566.0,-5.0,-8.0,3.0,10.0,19.0,-11.0,-9.0,-21.0,3.4956462383270264
649,43.0,-26.0,10.0,0.0,6036.0,1164.0,-10920.0,-10555.0,-5.0,-8.0,3.0,10.0,19.0,-11.0,-9.0,-21.0,3.505610942840576
650,43.0,-26.0,10.0,0.0,6036.0,1164.0,-10920.0,-10555.0,7.0,1.0,-6.0,37.0,2.0,14.0,-2.0,28.0,3.5136849880218506
651,43.0,-26.0,10.0,0.0,6036.0,1164.0,-10920.0,-10555.0,0.0,8.0,-15.0,-1.0,19.0,0.0,0.0,1.0,3.5155889987945557
652,21.0,-18.0,6.0,0.0,6034.0,1161.0,-10928.0,-10548.0,0.0,8.0,-15.0,-1.0,19.0,0.0,0.0,1.0,3.529940128326416
653,21.0,-18.0,6.0,0.0,6034.0,1161.0,-10928.0,-10548.0,-5.0,-5.0,-15.0,40.0,0.0,-4.0,-11.0,-11.0,3.5332555770874023
654,21.0,-18.0,6.0,0.0,6034.0,1161.0,-10928.0,-10548.0,-4.0,2.0,6.0,-1.0,11.0,-8.0,-6.0,-16.0,3.536214828491211
655,25.0,-13.0,19.0,0.0,6034.0,1158.0,-10936.0,-10541.0,-4.0,2.0,6.0,-1.0,11.0,-8.0,-6.0,-16.0,3.552417516708374
656,25.0,-13.0,19.0,0.0,6034.0,1158.0,-10936.0,-10541.0,1.0,4.0,6.0,3.0,12.0,-14.0,-3.0,0.0,3.5543904304504395
657,25.0,-13.0,19.0,0.0,6034.0,1158.0,-10936.0,-10541.0,-2.0,-2.0,-2.0,-45.0,5.0,11.0,-3.0,-2.0,3.55625319480896
658,10.0,-10.0,20.0,0.0,6035.0,1154.0,-10942.0,-10534.0,-2.0,-2.0,-2.0,-45.0,5.0,11.0,-3.0,-2.0,3.565856456756592
659,10.0,-10.0,20.0,0.0,6035.0,1154.0,-10942.0,-10534.0,5.0,0.0,11.0,4.0,8.0,12.0,3.0,6.0,3.5812742710113525
660,10.0,-10.0,20.0,0.0,6035.0,1154.0,-10942.0,-10534.0,2.0,3.0,1.0,-2.0,-21.0,0.0,1.0,14.0,3.583195686340332
661,1.0,-11.0,13.0,0.0,6035.0,1153.0,-10943.0,-10534.0,2.0,3.0,1.0,-2.0,-21.0,0.0,1.0,14.0,3.58966064453125
662,1.0,-11.0,13.0,0.0,6035.0,1153.0,-10943.0,-10534.0,0.0,3.0,0.0,-19.0,18.0,16.0,5.0,-2.0,3.592672824859619
663,1.0,-11.0,13.0,0.0,6035.0,1153.0,-10943.0,-10534.0,-3.0,-2.0,-5.0,-3.0,-35.0,-9.0,7.0,-5.0,3.594500780105591
664,5.0,-9.0,6.0,0.0,6036.0,1152.0,-10943.0,-10533.0,-3.0,-2.0,-5.0,-3.0,-35.0,-9.0,7.0,-5.0,3.611689567565918
665,5.0,-9.0,6.0,0.0,6036.0,1152.0,-10943.0,-10533.0,3.0,0.0,-6.0,-6.0,4.0,-3.0,-4.0,-3.0,3.615522623062134
666,5.0,-9.0,6.0,0.0,6036.0,1152.0,-10943.0,-10533.0,5.0,7.0,3.0,55.0,48.0,-20.0,-1.0,5.0,3.6175761222839355
667,-7.0,-6.0,7.0,0.0,6036.0,1152.0,-10944.0,-10532.0,5.0,7.0,3.0,55.0,48.0,-20.0,-1.0,5.0,3.6252005100250244
668,-7.0,-6.0,7.0,0.0,6036.0,1152.0,-10944.0,-10532.0,0.0,3.0,15.0,-4.0,-14.0,15.0,12.0,1.0,3.6341962814331055
669,-7.0,-6.0,7.0,0.0,6036.0,1152.0,-10944.0,-10532.0,-7.0,-4.0,-6.0,11.0,-48.0,-7.0,-9.0,-10.0,3.6395342350006104
670,-39.0,-12.0,4.0,0.0,6035.0,1147.0,-10944.0,-10533.0,-7.0,-4.0,-6.0,11.0,-48.0,-7.0,-9.0,-10.0,3.6490020751953125
671,-39.0,-12.0,4.0,0.0,6035.0,1147.0,-10944.0,-10533.0,-4.0,-3.0,-5.0,-34.0,1.0,0.0,-2.0,-6.0,3.6510367393493652
672,-39.0,-12.0,4.0,0.0,6035.0,1147.0,-10944.0,-10533.0,-4.0,6.0,-9.0,-46.0,13.0,-8.0,0.0,-7.0,3.6552486419677734
673,-29.0,-5.0,7.0,0.0,6036.0,1142.0,-10943.0,-10534.0,-4.0,6.0,-9.0,-46.0,13.0,-8.0,0.0,-7.0,3.671635389328003
674,-29.0,-5.0,7.0,0.0,6036.0,1142.0,-10943.0,-10534.0,-2.0,-9.0,-2.0,25.0,-20.0,3.0,-9.0,-7.0,3.6735570430755615
675,-29.0,-5.0,7.0,0.0,6036.0,1142.0,-10943.0,-10534.0,3.0,-1.0,-1.0,-17.0,13.0,1.0,5.0,2.0,3.6759402751922607
676,-47.0,19.0,1.0,0.0,6039.0,1139.0,-10939.0,-10536.0,3.0,-1.0,-1.0,-17.0,13.0,1.0,5.0,2.0,3.6859514713287354
677,-47.0,19.0,1.0,0.0,6039.0,1139.0,-10939.0,-10536.0,1.0,-1.0,3.0,8.0,-15.0,3.0,1.0,0.0,3.693753719329834
678,-47.0,19.0,1.0,0.0,6039.0,1139.0,-10939.0,-10536.0,1.0,-4.0,3.0,-11.0,3.0,8.0,2.0,2.0,3.6958868503570557
679,-28.0,26.0,-1.0,0.0,6043.0,1139.0,-10937.0,-10537.0,1.0,-4.0,3.0,-11.0,3.0,8.0,2.0,2.0,3.709188222885132
680,-28.0,26.0,-1.0,0.0,6043.0,1139.0,-10937.0,-10537.0,-6.0,-3.0,-10.0,3.0,4.0,-9.0,6.0,2.0,3.7126755714416504
681,-28.0,26.0,-1.0,0.0,6043.0,1139.0,-10937.0,-10537.0,0.0,9.0,6.0,55.0,15.0,-8.0,-1.0,-13.0,3.716008424758911
682,-35.0,21.0,-4.0,0.0,6045.0,1139.0,-10934.0,-10538.0,0.0,9.0,6.0,55.0,15.0,-8.0,-1.0,-13.0,3.7318990230560303
683,-35.0,21.0,-4.0,0.0,6045.0,1139.0,-10934.0,-10538.0,-3.0,3.0,3.0,18.0,-13.0,-15.0,-16.0,-7.0,3.73380446434021
684,-35.0,21.0,-4.0,0.0,6045.0,1139.0,-10934.0,-10538.0,-4.0,-13.0,-5.0,-9.0,4.0,10.0,7.0,4.0,3.7355923652648926
685,-36.0,28.0,5.0,0.0,6050.0,1137.0,-10931.0,-10538.0,-4.0,-13.0,-5.0,-9.0,4.0,10.0,7.0,4.0,3.7450220584869385
686,-36.0,28.0,5.0,0.0,6050.0,1137.0,-10931.0,-10538.0,10.0,6.0,2.0,0.0,25.0,-18.0,-2.0,13.0,3.7620151042938232
687,-36.0,28.0,5.0,0.0,6050.0,1137.0,-10931.0,-10538.0,-1.0,-4.0,9.0,53.0,-4.0,0.0,-7.0,1.0,3.765368938446045
688,-35.0,29.0,5.0,0.0,6055.0,1136.0,-10929.0,-10538.0,-1.0,-4.0,9.0,53.0,-4.0,0.0,-7.0,1.0,3.7688300609588623
689,-35.0,29.0,5.0,0.0,6055.0,1136.0,-10929.0,-10538.0,-1.0,0.0,-9.0,-25.0,-5.0,4.0,0.0,3.0,3.77081036567688
690,-35.0,29.0,5.0,0.0,6055.0,1136.0,-10929.0,-10538.0,2.0,-4.0,-22.0,-39.0,10.0,5.0,13.0,20.0,3.77544903755188
691,-39.0,26.0,11.0,0.0,6060.0,1134.0,-10926.0,-10539.0,2.0,-4.0,-22.0,-39.0,10.0,5.0,13.0,20.0,3.7910001277923584
692,-39.0,26.0,11.0,0.0,6060.0,1134.0,-10926.0,-10539.0,-1.0,2.0,1.0,8.0,6.0,-1.0,-3.0,-3.0,3.792924165725708
693,-39.0,26.0,11.0,0.0,6060.0,1134.0,-10926.0,-10539.0,-9.0,-5.0,-7.0,8.0,16.0,-6.0,-1.0,-3.0,3.806162118911743
694,-19.0,22.0,9.0,0.0,6063.0,1133.0,-10926.0,-10537.0,-9.0,-5.0,-7.0,8.0,16.0,-6.0,-1.0,-3.0,3.8082387447357178
695,-19.0,22.0,9.0,0.0,6063.0,1133.0,-10926.0,-10537.0,3.0,-4.0,-3.0,-50.0,-4.0,-1.0,16.0,27.0,3.8136634826660156
696,-19.0,22.0,9.0,0.0,6063.0,1133.0,-10926.0,-10537.0,3.0,11.0,2.0,-13.0,-54.0,-7.0,-5.0,3.0,3.81630539894104
697,-11.0,34.0,7.0,0.0,6068.0,1134.0,-10926.0,-10534.0,3.0,11.0,2.0,-13.0,-54.0,-7.0,-5.0,3.0,3.8288931846618652
698,-11.0,34.0,7.0,0.0,6068.0,1134.0,-10926.0,-10534.0,-1.0,-1.0,6.0,26.0,9.0,13.0,-4.0,-5.0,3.831158399581909
699,-11.0,34.0,7.0,0.0,6068.0,1134.0,-10926.0,-10534.0,0.0,-5.0,6.0,6.0,-35.0,-1.0,-8.0,10.0,3.83548641204834
