,Gyro 0,Gyro 1,Gyro 2,Label,Orientation 0,Orientation 1,Orientation 2,Orientation 3,Sensor 0,Sensor 1,Sensor 2,Sensor 3,Sensor 4,Sensor 5,Sensor 6,Sensor 7,Timestamp
0,-37.0,20.0,-12.0,1.0,-8552.0,-10123.0,-1649.0,-9494.0,-1.0,10.0,-5.0,15.0,-18.0,-10.0,-6.0,-6.0,2.1457672119140625e-06
1,-37.0,20.0,-12.0,1.0,-8552.0,-10123.0,-1649.0,-9494.0,1.0,16.0,-19.0,-18.0,-24.0,-2.0,-1.0,-6.0,0.002410411834716797
2,-37.0,20.0,-12.0,1.0,-8552.0,-10123.0,-1649.0,-9494.0,1.0,16.0,-19.0,-18.0,-24.0,-2.0,-1.0,-6.0,0.004425525665283203
3,-37.0,20.0,-12.0,1.0,-8552.0,-10123.0,-1649.0,-9494.0,-3.0,-10.0,-9.0,-7.0,7.0,8.0,-2.0,0.0,0.006798982620239258
4,-40.0,16.0,0.0,1.0,-8551.0,-10122.0,-1642.0,-9497.0,-3.0,-10.0,-9.0,-7.0,7.0,8.0,-2.0,0.0,0.010981321334838867
5,-40.0,16.0,0.0,1.0,-8551.0,-10122.0,-1642.0,-9497.0,0.0,-5.0,-5.0,3.0,34.0,7.0,-2.0,-3.0,0.013001441955566406
6,-40.0,16.0,0.0,1.0,-8551.0,-10122.0,-1642.0,-9497.0,0.0,-3.0,-26.0,5.0,-1.0,-8.0,1.0,-2.0,0.014931201934814453
7,-48.0,-2.0,-4.0,1.0,-8552.0,-10121.0,-1633.0,-9499.0,0.0,-3.0,-26.0,5.0,-1.0,-8.0,1.0,-2.0,0.016776084899902344
8,-48.0,-2.0,-4.0,1.0,-8552.0,-10121.0,-1633.0,-9499.0,0.0,-8.0,17.0,2.0,-3.0,-2.0,0.0,-4.0,0.018656492233276367
9,-48.0,-2.0,-4.0,1.0,-8552.0,-10121.0,-1633.0,-9499.0,-5.0,-9.0,-24.0,-20.0,5.0,5.0,4.0,0.0,0.02165842056274414
10,-57.0,-20.0,8.0,1.0,-8553.0,-10122.0,-1621.0,-9498.0,-5.0,-9.0,-24.0,-20.0,5.0,5.0,4.0,0.0,0.025072813034057617
11,-57.0,-20.0,8.0,1.0,-8553.0,-10122.0,-1621.0,-9498.0,0.0,10.0,57.0,-5.0,-16.0,-4.0,-2.0,18.0,0.027395963668823242
12,-57.0,-20.0,8.0,1.0,-8553.0,-10122.0,-1621.0,-9498.0,-2.0,0.0,20.0,20.0,2.0,-7.0,-5.0,-12.0,0.02922224998474121
13,-93.0,-42.0,11.0,1.0,-8559.0,-10122.0,-1603.0,-9496.0,-2.0,0.0,20.0,20.0,2.0,-7.0,-5.0,-12.0,0.03106832504272461
14,-93.0,-42.0,11.0,1.0,-8559.0,-10122.0,-1603.0,-9496.0,-1.0,-2.0,-26.0,-14.0,-8.0,-4.0,2.0,-14.0,0.032955169677734375
15,-93.0,-42.0,11.0,1.0,-8559.0,-10122.0,-1603.0,-9496.0,4.0,21.0,34.0,8.0,-2.0,-3.0,2.0,2.0,0.03473544120788574
16,-85.0,-47.0,19.0,1.0,-8564.0,-10123.0,-1586.0,-9493.0,4.0,21.0,34.0,8.0,-2.0,-3.0,2.0,2.0,0.03765439987182617
17,-85.0,-47.0,19.0,1.0,-8564.0,-10123.0,-1586.0,-9493.0,-3.0,-8.0,-9.0,-2.0,21.0,1.0,-2.0,-3.0,0.03960227966308594
18,-85.0,-47.0,19.0,1.0,-8564.0,-10123.0,-1586.0,-9493.0,-2.0,-9.0,-11.0,-8.0,-16.0,3.0,-3.0,-2.0,0.04140114784240723
19,-58.0,-52.0,15.0,1.0,-8567.0,-10126.0,-1572.0,-9490.0,-2.0,-9.0,-11.0,-8.0,-16.0,3.0,-3.0,-2.0,0.04319930076599121
20,-58.0,-52.0,15.0,1.0,-8567.0,-10126.0,-1572.0,-9490.0,-4.0,-8.0,-58.0,-6.0,1.0,-5.0,-1.0,0.0,0.0450596809387207
21,-58.0,-52.0,15.0,1.0,-8567.0,-10126.0,-1572.0,-9490.0,2.0,0.0,-22.0,-6.0,12.0,7.0,2.0,4.0,0.046921491622924805
22,-27.0,-66.0,13.0,1.0,-8568.0,-10135.0,-1563.0,-9482.0,2.0,0.0,-22.0,-6.0,12.0,7.0,2.0,4.0,0.048827171325683594
23,-27.0,-66.0,13.0,1.0,-8568.0,-10135.0,-1563.0,-9482.0,1.0,-4.0,-2.0,-13.0,10.0,5.0,1.0,0.0,0.05070090293884277
24,-27.0,-66.0,13.0,1.0,-8568.0,-10135.0,-1563.0,-9482.0,-6.0,-10.0,-10.0,-5.0,15.0,-13.0,-3.0,-23.0,0.053838491439819336
25,-41.0,-67.0,15.0,1.0,-8569.0,-10142.0,-1550.0,-9475.0,-6.0,-10.0,-10.0,-5.0,15.0,-13.0,-3.0,-23.0,0.0568842887878418
26,-41.0,-67.0,15.0,1.0,-8569.0,-10142.0,-1550.0,-9475.0,3.0,0.0,2.0,14.0,-14.0,-13.0,1.0,13.0,0.05894184112548828
27,-41.0,-67.0,15.0,1.0,-8569.0,-10142.0,-1550.0,-9475.0,-1.0,-6.0,3.0,-46.0,35.0,8.0,-1.0,3.0,0.060808658599853516
28,-33.0,-57.0,-6.0,1.0,-8571.0,-10147.0,-1539.0,-9470.0,-1.0,-6.0,3.0,-46.0,35.0,8.0,-1.0,3.0,0.06269145011901855
29,-33.0,-57.0,-6.0,1.0,-8571.0,-10147.0,-1539.0,-9470.0,2.0,7.0,26.0,13.0,10.0,0.0,-2.0,-1.0,0.06457138061523438
30,-33.0,-57.0,-6.0,1.0,-8571.0,-10147.0,-1539.0,-9470.0,1.0,3.0,-11.0,-4.0,-21.0,2.0,2.0,-1.0,0.0663602352142334
31,-4.0,-46.0,-15.0,1.0,-8572.0,-10152.0,-1534.0,-9464.0,1.0,3.0,-11.0,-4.0,-21.0,2.0,2.0,-1.0,0.06839823722839355
32,-4.0,-46.0,-15.0,1.0,-8572.0,-10152.0,-1534.0,-9464.0,-2.0,-6.0,-9.0,-4.0,-26.0,-2.0,-3.0,-5.0,0.07103323936462402
33,-4.0,-46.0,-15.0,1.0,-8572.0,-10152.0,-1534.0,-9464.0,-3.0,1.0,13.0,-1.0,11.0,6.0,1.0,5.0,0.07288765907287598
34,-7.0,-33.0,-22.0,1.0,-8574.0,-10156.0,-1531.0,-9458.0,-3.0,1.0,13.0,-1.0,11.0,6.0,1.0,5.0,0.07469439506530762
35,-7.0,-33.0,-22.0,1.0,-8574.0,-10156.0,-1531.0,-9458.0,-3.0,7.0,14.0,7.0,-8.0,1.0,-2.0,-8.0,0.07657623291015625
36,-7.0,-33.0,-22.0,1.0,-8574.0,-10156.0,-1531.0,-9458.0,-2.0,-3.0,0.0,8.0,-9.0,-4.0,-3.0,-16.0,0.078369140625
37,-9.0,-28.0,-10.0,1.0,-8575.0,-10160.0,-1529.0,-9454.0,-2.0,-3.0,0.0,8.0,-9.0,-4.0,-3.0,-16.0,0.08014059066772461
38,-9.0,-28.0,-10.0,1.0,-8575.0,-10160.0,-1529.0,-9454.0,0.0,6.0,-12.0,7.0,30.0,-4.0,-2.0,-17.0,0.08230423927307129
39,-9.0,-28.0,-10.0,1.0,-8575.0,-10160.0,-1529.0,-9454.0,4.0,7.0,11.0,19.0,-19.0,-4.0,-2.0,4.0,0.08550667762756348
40,-49.0,-31.0,-4.0,1.0,-8580.0,-10160.0,-1520.0,-9450.0,4.0,7.0,11.0,19.0,-19.0,-4.0,-2.0,4.0,0.08831620216369629
41,-49.0,-31.0,-4.0,1.0,-8580.0,-10160.0,-1520.0,-9450.0,-2.0,-3.0,21.0,-1.0,-4.0,1.0,-5.0,1.0,0.09033942222595215
42,-49.0,-31.0,-4.0,1.0,-8580.0,-10160.0,-1520.0,-9450.0,-4.0,-10.0,-11.0,-26.0,-15.0,1.0,5.0,18.0,0.09216785430908203
43,-55.0,-30.0,-10.0,1.0,-8585.0,-10160.0,-1511.0,-9447.0,-4.0,-10.0,-11.0,-26.0,-15.0,1.0,5.0,18.0,0.09396743774414062
44,-55.0,-30.0,-10.0,1.0,-8585.0,-10160.0,-1511.0,-9447.0,-4.0,0.0,-20.0,11.0,6.0,-3.0,0.0,3.0,0.09581398963928223
45,-55.0,-30.0,-10.0,1.0,-8585.0,-10160.0,-1511.0,-9447.0,0.0,4.0,28.0,6.0,22.0,-5.0,-4.0,-1.0,0.09759283065795898
46,-28.0,-32.0,-11.0,1.0,-8588.0,-10162.0,-1505.0,-9443.0,0.0,4.0,28.0,6.0,22.0,-5.0,-4.0,-1.0,0.09938716888427734
47,-28.0,-32.0,-11.0,1.0,-8588.0,-10162.0,-1505.0,-9443.0,-2.0,-7.0,-8.0,9.0,-10.0,-5.0,1.0,-2.0,0.10122466087341309
48,-28.0,-32.0,-11.0,1.0,-8588.0,-10162.0,-1505.0,-9443.0,-1.0,-5.0,-1.0,16.0,-18.0,4.0,-1.0,5.0,0.10398292541503906
49,-28.0,-25.0,-13.0,1.0,-8591.0,-10165.0,-1502.0,-9438.0,-1.0,-5.0,-1.0,16.0,-18.0,4.0,-1.0,5.0,0.10597681999206543
50,-28.0,-25.0,-13.0,1.0,-8591.0,-10165.0,-1502.0,-9438.0,-1.0,-4.0,-15.0,17.0,9.0,13.0,4.0,32.0,0.10792350769042969
51,-28.0,-25.0,-13.0,1.0,-8591.0,-10165.0,-1502.0,-9438.0,-1.0,0.0,-10.0,1.0,5.0,-3.0,2.0,6.0,0.10972332954406738
52,-59.0,-15.0,-10.0,1.0,-8597.0,-10162.0,-1494.0,-9437.0,-1.0,0.0,-10.0,1.0,5.0,-3.0,2.0,6.0,0.11153149604797363
53,-59.0,-15.0,-10.0,1.0,-8597.0,-10162.0,-1494.0,-9437.0,-3.0,3.0,-18.0,-17.0,-7.0,-7.0,-7.0,-26.0,0.11342000961303711
54,-59.0,-15.0,-10.0,1.0,-8597.0,-10162.0,-1494.0,-9437.0,-2.0,-2.0,8.0,12.0,-4.0,3.0,0.0,-4.0,0.11660146713256836
55,-39.0,-12.0,-2.0,1.0,-8599.0,-10162.0,-1486.0,-9436.0,-2.0,-2.0,8.0,12.0,-4.0,3.0,0.0,-4.0,0.12032198905944824
56,-39.0,-12.0,-2.0,1.0,-8599.0,-10162.0,-1486.0,-9436.0,2.0,-4.0,-3.0,-40.0,-4.0,-5.0,0.0,-3.0,0.12276840209960938
57,-39.0,-12.0,-2.0,1.0,-8599.0,-10162.0,-1486.0,-9436.0,1.0,10.0,24.0,1.0,-23.0,7.0,-2.0,-5.0,0.12468099594116211
58,-4.0,-25.0,-1.0,1.0,-8597.0,-10167.0,-1482.0,-9433.0,1.0,10.0,24.0,1.0,-23.0,7.0,-2.0,-5.0,0.12650609016418457
59,-4.0,-25.0,-1.0,1.0,-8597.0,-10167.0,-1482.0,-9433.0,1.0,0.0,14.0,-20.0,-11.0,-1.0,-2.0,1.0,0.12839961051940918
60,-4.0,-25.0,-1.0,1.0,-8597.0,-10167.0,-1482.0,-9433.0,5.0,6.0,6.0,1.0,18.0,-4.0,0.0,-11.0,0.1301867961883545
61,16.0,-25.0,6.0,1.0,-8593.0,-10174.0,-1481.0,-9429.0,5.0,6.0,6.0,1.0,18.0,-4.0,0.0,-11.0,0.13222312927246094
62,16.0,-25.0,6.0,1.0,-8593.0,-10174.0,-1481.0,-9429.0,2.0,-9.0,-4.0,21.0,-19.0,5.0,5.0,17.0,0.13411259651184082
63,16.0,-25.0,6.0,1.0,-8593.0,-10174.0,-1481.0,-9429.0,-2.0,-10.0,-48.0,5.0,-5.0,-3.0,2.0,4.0,0.13589000701904297
64,7.0,-31.0,22.0,1.0,-8588.0,-10182.0,-1477.0,-9426.0,-2.0,-10.0,-48.0,5.0,-5.0,-3.0,2.0,4.0,0.13766694068908691
65,7.0,-31.0,22.0,1.0,-8588.0,-10182.0,-1477.0,-9426.0,-2.0,0.0,-11.0,-15.0,-54.0,1.0,-7.0,-11.0,0.14006710052490234
66,7.0,-31.0,22.0,1.0,-8588.0,-10182.0,-1477.0,-9426.0,3.0,-4.0,-3.0,24.0,-18.0,-5.0,-4.0,1.0,0.14200758934020996
67,22.0,-31.0,14.0,1.0,-8583.0,-10192.0,-1476.0,-9421.0,3.0,-4.0,-3.0,24.0,-18.0,-5.0,-4.0,1.0,0.14385175704956055
68,22.0,-31.0,14.0,1.0,-8583.0,-10192.0,-1476.0,-9421.0,-3.0,-8.0,-3.0,-2.0,17.0,3.0,0.0,5.0,0.14714384078979492
69,22.0,-31.0,14.0,1.0,-8583.0,-10192.0,-1476.0,-9421.0,-2.0,-9.0,-7.0,-6.0,36.0,-6.0,-2.0,-5.0,0.14986824989318848
70,-27.0,-32.0,2.0,1.0,-8586.0,-10195.0,-1472.0,-9415.0,-2.0,-9.0,-7.0,-6.0,36.0,-6.0,-2.0,-5.0,0.15172433853149414
71,-27.0,-32.0,2.0,1.0,-8586.0,-10195.0,-1472.0,-9415.0,-4.0,-3.0,35.0,5.0,-10.0,-5.0,-3.0,-3.0,0.15452027320861816
72,-27.0,-32.0,2.0,1.0,-8586.0,-10195.0,-1472.0,-9415.0,-1.0,1.0,-9.0,11.0,15.0,6.0,5.0,7.0,0.15639019012451172
73,-18.0,-33.0,8.0,1.0,-8587.0,-10198.0,-1465.0,-9412.0,-1.0,1.0,-9.0,11.0,15.0,6.0,5.0,7.0,0.1582791805267334
74,-18.0,-33.0,8.0,1.0,-8587.0,-10198.0,-1465.0,-9412.0,1.0,-12.0,-22.0,1.0,24.0,-17.0,-4.0,-14.0,0.16013884544372559
75,-18.0,-33.0,8.0,1.0,-8587.0,-10198.0,-1465.0,-9412.0,1.0,13.0,75.0,19.0,-20.0,6.0,2.0,9.0,0.1619277000427246
76,-3.0,-29.0,-3.0,1.0,-8587.0,-10202.0,-1463.0,-9408.0,1.0,13.0,75.0,19.0,-20.0,6.0,2.0,9.0,0.16369891166687012
77,-3.0,-29.0,-3.0,1.0,-8587.0,-10202.0,-1463.0,-9408.0,2.0,20.0,27.0,-4.0,-12.0,-2.0,3.0,6.0,0.16575264930725098
78,-3.0,-29.0,-3.0,1.0,-8587.0,-10202.0,-1463.0,-9408.0,-2.0,3.0,9.0,12.0,8.0,-6.0,-2.0,10.0,0.16764259338378906
79,3.0,-13.0,-12.0,1.0,-8586.0,-10203.0,-1463.0,-9408.0,-2.0,3.0,9.0,12.0,8.0,-6.0,-2.0,10.0,0.16942167282104492
80,3.0,-13.0,-12.0,1.0,-8586.0,-10203.0,-1463.0,-9408.0,0.0,6.0,11.0,17.0,33.0,-6.0,2.0,8.0,0.1712815761566162
81,3.0,-13.0,-12.0,1.0,-8586.0,-10203.0,-1463.0,-9408.0,0.0,-7.0,-25.0,-26.0,-45.0,-4.0,0.0,-8.0,0.17312288284301758
82,-13.0,-11.0,-16.0,1.0,-8586.0,-10203.0,-1463.0,-9407.0,0.0,-7.0,-25.0,-26.0,-45.0,-4.0,0.0,-8.0,0.17543601989746094
83,-13.0,-11.0,-16.0,1.0,-8586.0,-10203.0,-1463.0,-9407.0,-3.0,0.0,27.0,-25.0,-11.0,-2.0,-1.0,31.0,0.17868304252624512
84,-13.0,-11.0,-16.0,1.0,-8586.0,-10203.0,-1463.0,-9407.0,0.0,-3.0,-29.0,-13.0,-7.0,-2.0,5.0,11.0,0.1807079315185547
85,-13.0,-9.0,-4.0,1.0,-8586.0,-10204.0,-1463.0,-9407.0,0.0,-3.0,-29.0,-13.0,-7.0,-2.0,5.0,11.0,0.1826634407043457
86,-13.0,-9.0,-4.0,1.0,-8586.0,-10204.0,-1463.0,-9407.0,0.0,-5.0,-23.0,2.0,-8.0,6.0,-2.0,-16.0,0.1845684051513672
87,-13.0,-9.0,-4.0,1.0,-8586.0,-10204.0,-1463.0,-9407.0,0.0,5.0,48.0,0.0,2.0,-1.0,1.0,1.0,0.18723726272583008
88,-19.0,-3.0,9.0,1.0,-8586.0,-10204.0,-1460.0,-9407.0,0.0,5.0,48.0,0.0,2.0,-1.0,1.0,1.0,0.18922829627990723
89,-19.0,-3.0,9.0,1.0,-8586.0,-10204.0,-1460.0,-9407.0,2.0,16.0,29.0,20.0,7.0,7.0,2.0,-5.0,0.19112634658813477
90,-19.0,-3.0,9.0,1.0,-8586.0,-10204.0,-1460.0,-9407.0,-2.0,-10.0,-89.0,-50.0,15.0,-9.0,-6.0,-17.0,0.19290447235107422
91,-16.0,-24.0,14.0,1.0,-8585.0,-10207.0,-1454.0,-9405.0,-2.0,-10.0,-89.0,-50.0,15.0,-9.0,-6.0,-17.0,0.19467496871948242
92,-16.0,-24.0,14.0,1.0,-8585.0,-10207.0,-1454.0,-9405.0,-4.0,-10.0,-16.0,-3.0,16.0,1.0,4.0,42.0,0.19650840759277344
93,-16.0,-24.0,14.0,1.0,-8585.0,-10207.0,-1454.0,-9405.0,-3.0,-14.0,-35.0,-2.0,-51.0,0.0,-5.0,-7.0,0.19839262962341309
94,-10.0,-13.0,23.0,1.0,-8582.0,-10211.0,-1450.0,-9405.0,-3.0,-14.0,-35.0,-2.0,-51.0,0.0,-5.0,-7.0,0.2001948356628418
95,-10.0,-13.0,23.0,1.0,-8582.0,-10211.0,-1450.0,-9405.0,-2.0,3.0,14.0,1.0,-6.0,1.0,-4.0,-24.0,0.20204901695251465
96,-10.0,-13.0,23.0,1.0,-8582.0,-10211.0,-1450.0,-9405.0,-2.0,-4.0,34.0,11.0,5.0,0.0,1.0,-4.0,0.20383095741271973
97,3.0,-12.0,17.0,1.0,-8581.0,-10213.0,-1448.0,-9404.0,-2.0,-4.0,34.0,11.0,5.0,0.0,1.0,-4.0,0.20571684837341309
98,3.0,-12.0,17.0,1.0,-8581.0,-10213.0,-1448.0,-9404.0,2.0,3.0,-22.0,19.0,5.0,-2.0,-4.0,-17.0,0.20890069007873535
99,3.0,-12.0,17.0,1.0,-8581.0,-10213.0,-1448.0,-9404.0,1.0,9.0,15.0,-5.0,29.0,1.0,2.0,0.0,0.21106338500976562
100,-9.0,-24.0,20.0,1.0,-8579.0,-10215.0,-1442.0,-9404.0,1.0,9.0,15.0,-5.0,29.0,1.0,2.0,0.0,0.21286892890930176
101,-9.0,-24.0,20.0,1.0,-8579.0,-10215.0,-1442.0,-9404.0,0.0,3.0,16.0,23.0,-1.0,11.0,3.0,-10.0,0.2147531509399414
102,-9.0,-24.0,20.0,1.0,-8579.0,-10215.0,-1442.0,-9404.0,-4.0,-3.0,-14.0,-18.0,-6.0,3.0,1.0,23.0,0.21653509140014648
103,0.0,-37.0,15.0,1.0,-8578.0,-10222.0,-1439.0,-9399.0,-4.0,-3.0,-14.0,-18.0,-6.0,3.0,1.0,23.0,0.21831345558166504
104,0.0,-37.0,15.0,1.0,-8578.0,-10222.0,-1439.0,-9399.0,2.0,-5.0,-65.0,-24.0,-14.0,-5.0,-6.0,-18.0,0.22153687477111816
105,0.0,-37.0,15.0,1.0,-8578.0,-10222.0,-1439.0,-9399.0,-1.0,-1.0,-29.0,-4.0,19.0,1.0,-4.0,-5.0,0.22343230247497559
106,-8.0,-38.0,19.0,1.0,-8578.0,-10227.0,-1437.0,-9393.0,-1.0,-1.0,-29.0,-4.0,19.0,1.0,-4.0,-5.0,0.2252185344696045
107,-8.0,-38.0,19.0,1.0,-8578.0,-10227.0,-1437.0,-9393.0,-1.0,-1.0,-5.0,-21.0,-5.0,1.0,0.0,-8.0,0.22711944580078125
108,-8.0,-38.0,19.0,1.0,-8578.0,-10227.0,-1437.0,-9393.0,-3.0,-4.0,-10.0,-4.0,0.0,8.0,-3.0,-16.0,0.2288837432861328
109,-27.0,-48.0,21.0,1.0,-8580.0,-10232.0,-1431.0,-9386.0,-3.0,-4.0,-10.0,-4.0,0.0,8.0,-3.0,-16.0,0.23065853118896484
110,-27.0,-48.0,21.0,1.0,-8580.0,-10232.0,-1431.0,-9386.0,1.0,-13.0,-25.0,41.0,-22.0,-7.0,0.0,-3.0,0.2327868938446045
111,-27.0,-48.0,21.0,1.0,-8580.0,-10232.0,-1431.0,-9386.0,1.0,-7.0,-16.0,-4.0,-4.0,-6.0,-1.0,-7.0,0.23457098007202148
112,-39.0,-52.0,15.0,1.0,-8583.0,-10236.0,-1422.0,-9381.0,1.0,-7.0,-16.0,-4.0,-4.0,-6.0,-1.0,-7.0,0.23643875122070312
113,-39.0,-52.0,15.0,1.0,-8583.0,-10236.0,-1422.0,-9381.0,5.0,-12.0,46.0,-14.0,-4.0,25.0,4.0,21.0,0.2397000789642334
114,-39.0,-52.0,15.0,1.0,-8583.0,-10236.0,-1422.0,-9381.0,4.0,10.0,29.0,-2.0,-19.0,6.0,3.0,-6.0,0.24178504943847656
115,-14.0,-46.0,4.0,1.0,-8584.0,-10240.0,-1415.0,-9376.0,4.0,10.0,29.0,-2.0,-19.0,6.0,3.0,-6.0,0.2435929775238037
116,-14.0,-46.0,4.0,1.0,-8584.0,-10240.0,-1415.0,-9376.0,-8.0,-2.0,-4.0,-5.0,8.0,-4.0,0.0,-9.0,0.24544548988342285
117,-14.0,-46.0,4.0,1.0,-8584.0,-10240.0,-1415.0,-9376.0,-1.0,9.0,18.0,-6.0,20.0,-5.0,-9.0,-10.0,0.2472224235534668
118,4.0,-29.0,-7.0,1.0,-8584.0,-10245.0,-1414.0,-9371.0,-1.0,9.0,18.0,-6.0,20.0,-5.0,-9.0,-10.0,0.24909138679504395
119,4.0,-29.0,-7.0,1.0,-8584.0,-10245.0,-1414.0,-9371.0,-1.0,7.0,5.0,-29.0,4.0,-5.0,4.0,4.0,0.25095105171203613
120,4.0,-29.0,-7.0,1.0,-8584.0,-10245.0,-1414.0,-9371.0,3.0,4.0,15.0,6.0,9.0,2.0,2.0,2.0,0.2540426254272461
121,-1.0,-25.0,-1.0,1.0,-8585.0,-10247.0,-1412.0,-9369.0,3.0,4.0,15.0,6.0,9.0,2.0,2.0,2.0,0.25590991973876953
122,-1.0,-25.0,-1.0,1.0,-8585.0,-10247.0,-1412.0,-9369.0,-1.0,28.0,32.0,7.0,-7.0,-20.0,-11.0,-11.0,0.2577831745147705
123,-1.0,-25.0,-1.0,1.0,-8585.0,-10247.0,-1412.0,-9369.0,3.0,6.0,-15.0,-30.0,5.0,-5.0,-5.0,-2.0,0.2595546245574951
124,-6.0,-23.0,3.0,1.0,-8586.0,-10247.0,-1408.0,-9368.0,3.0,6.0,-15.0,-30.0,5.0,-5.0,-5.0,-2.0,0.2613179683685303
125,-6.0,-23.0,3.0,1.0,-8586.0,-10247.0,-1408.0,-9368.0,-5.0,-18.0,-22.0,0.0,28.0,17.0,-2.0,-14.0,0.26316308975219727
126,-6.0,-23.0,3.0,1.0,-8586.0,-10247.0,-1408.0,-9368.0,-3.0,6.0,21.0,31.0,-1.0,-2.0,-1.0,3.0,0.2651970386505127
127,-29.0,-25.0,15.0,1.0,-8586.0,-10248.0,-1399.0,-9368.0,-3.0,6.0,21.0,31.0,-1.0,-2.0,-1.0,3.0,0.26714110374450684
128,-29.0,-25.0,15.0,1.0,-8586.0,-10248.0,-1399.0,-9368.0,-1.0,-3.0,-11.0,-39.0,-29.0,-9.0,1.0,-6.0,0.27045750617980957
129,-29.0,-25.0,15.0,1.0,-8586.0,-10248.0,-1399.0,-9368.0,-6.0,-6.0,28.0,22.0,4.0,0.0,3.0,-10.0,0.2724747657775879
130,-56.0,-24.0,10.0,1.0,-8590.0,-10246.0,-1388.0,-9368.0,-6.0,-6.0,28.0,22.0,4.0,0.0,3.0,-10.0,0.27432703971862793
131,-56.0,-24.0,10.0,1.0,-8590.0,-10246.0,-1388.0,-9368.0,3.0,0.0,11.0,-25.0,6.0,-6.0,2.0,25.0,0.27617788314819336
132,-56.0,-24.0,10.0,1.0,-8590.0,-10246.0,-1388.0,-9368.0,-9.0,-20.0,-7.0,32.0,2.0,9.0,-1.0,12.0,0.2779521942138672
133,-39.0,-24.0,12.0,1.0,-8592.0,-10247.0,-1379.0,-9368.0,-9.0,-20.0,-7.0,32.0,2.0,9.0,-1.0,12.0,0.2797079086303711
134,-39.0,-24.0,12.0,1.0,-8592.0,-10247.0,-1379.0,-9368.0,-3.0,-13.0,-37.0,-1.0,-9.0,-19.0,-7.0,-24.0,0.2815728187561035
135,-39.0,-24.0,12.0,1.0,-8592.0,-10247.0,-1379.0,-9368.0,-7.0,-1.0,-54.0,10.0,-2.0,-7.0,6.0,42.0,0.2833273410797119
136,-58.0,-12.0,11.0,1.0,-8597.0,-10242.0,-1369.0,-9369.0,-7.0,-1.0,-54.0,10.0,-2.0,-7.0,6.0,42.0,0.28523850440979004
137,-58.0,-12.0,11.0,1.0,-8597.0,-10242.0,-1369.0,-9369.0,-1.0,24.0,104.0,14.0,-7.0,9.0,3.0,-7.0,0.2881648540496826
138,-58.0,-12.0,11.0,1.0,-8597.0,-10242.0,-1369.0,-9369.0,5.0,4.0,-53.0,-43.0,-13.0,0.0,-17.0,-76.0,0.2900104522705078
139,-117.0,15.0,11.0,1.0,-8608.0,-10229.0,-1356.0,-9375.0,5.0,4.0,-53.0,-43.0,-13.0,0.0,-17.0,-76.0,0.2917976379394531
140,-117.0,15.0,11.0,1.0,-8608.0,-10229.0,-1356.0,-9375.0,10.0,34.0,25.0,7.0,5.0,23.0,15.0,19.0,0.29369044303894043
141,-117.0,15.0,11.0,1.0,-8608.0,-10229.0,-1356.0,-9375.0,4.0,2.0,-3.0,-51.0,-25.0,6.0,-5.0,16.0,0.29544639587402344
142,-136.0,-39.0,18.0,1.0,-8620.0,-10222.0,-1335.0,-9375.0,4.0,2.0,-3.0,-51.0,-25.0,6.0,-5.0,16.0,0.2971975803375244
143,-136.0,-39.0,18.0,1.0,-8620.0,-10222.0,-1335.0,-9375.0,-2.0,11.0,-9.0,12.0,10.0,-17.0,-9.0,-10.0,0.29984331130981445
144,-136.0,-39.0,18.0,1.0,-8620.0,-10222.0,-1335.0,-9375.0,7.0,12.0,47.0,38.0,-15.0,-1.0,13.0,-3.0,0.30331993103027344
145,-94.0,-44.0,17.0,1.0,-8630.0,-10221.0,-1322.0,-9369.0,7.0,12.0,47.0,38.0,-15.0,-1.0,13.0,-3.0,0.3057577610015869
146,-94.0,-44.0,17.0,1.0,-8630.0,-10221.0,-1322.0,-9369.0,-8.0,-20.0,-54.0,-5.0,1.0,-19.0,-16.0,-27.0,0.30765438079833984
147,-94.0,-44.0,17.0,1.0,-8630.0,-10221.0,-1322.0,-9369.0,4.0,4.0,-17.0,-6.0,50.0,-14.0,1.0,14.0,0.30953454971313477
148,-154.0,-20.0,-9.0,1.0,-8647.0,-10211.0,-1308.0,-9366.0,4.0,4.0,-17.0,-6.0,50.0,-14.0,1.0,14.0,0.311298131942749
149,-154.0,-20.0,-9.0,1.0,-8647.0,-10211.0,-1308.0,-9366.0,-1.0,-8.0,-14.0,-29.0,5.0,5.0,0.0,-3.0,0.31313443183898926
150,-154.0,-20.0,-9.0,1.0,-8647.0,-10211.0,-1308.0,-9366.0,2.0,-6.0,18.0,-23.0,-27.0,11.0,13.0,19.0,0.3151969909667969
151,-101.0,-4.0,-34.0,1.0,-8661.0,-10203.0,-1301.0,-9363.0,2.0,-6.0,18.0,-23.0,-27.0,11.0,13.0,19.0,0.3170945644378662
152,-101.0,-4.0,-34.0,1.0,-8661.0,-10203.0,-1301.0,-9363.0,-3.0,-16.0,-24.0,9.0,1.0,-4.0,-4.0,35.0,0.31905293464660645
153,-101.0,-4.0,-34.0,1.0,-8661.0,-10203.0,-1301.0,-9363.0,-7.0,-14.0,7.0,5.0,7.0,-8.0,-16.0,-36.0,0.3209388256072998
154,-88.0,-12.0,-46.0,1.0,-8674.0,-10196.0,-1295.0,-9359.0,-7.0,-14.0,7.0,5.0,7.0,-8.0,-16.0,-36.0,0.3252241611480713
155,-88.0,-12.0,-46.0,1.0,-8674.0,-10196.0,-1295.0,-9359.0,-1.0,-1.0,72.0,99.0,14.0,9.0,19.0,55.0,0.33528590202331543
156,-88.0,-12.0,-46.0,1.0,-8674.0,-10196.0,-1295.0,-9359.0,-7.0,4.0,59.0,33.0,1.0,2.0,2.0,4.0,0.33910655975341797
157,-65.0,-21.0,-58.0,1.0,-8690.0,-10192.0,-1298.0,-9348.0,-7.0,4.0,59.0,33.0,1.0,2.0,2.0,4.0,0.3495504856109619
158,-65.0,-21.0,-58.0,1.0,-8690.0,-10192.0,-1298.0,-9348.0,-7.0,-18.0,-33.0,22.0,8.0,-11.0,-8.0,-20.0,0.35181450843811035
159,-65.0,-21.0,-58.0,1.0,-8690.0,-10192.0,-1298.0,-9348.0,-12.0,-6.0,-65.0,-5.0,35.0,-8.0,-8.0,-50.0,0.355665922164917
160,-106.0,-16.0,-57.0,1.0,-8711.0,-10183.0,-1300.0,-9338.0,-12.0,-6.0,-65.0,-5.0,35.0,-8.0,-8.0,-50.0,0.3712501525878906
161,-106.0,-16.0,-57.0,1.0,-8711.0,-10183.0,-1300.0,-9338.0,-3.0,-2.0,-20.0,8.0,-19.0,8.0,0.0,-3.0,0.37314653396606445
162,-106.0,-16.0,-57.0,1.0,-8711.0,-10183.0,-1300.0,-9338.0,7.0,-12.0,-42.0,12.0,-23.0,9.0,21.0,77.0,0.3862898349761963
163,-180.0,-1.0,-35.0,1.0,-8735.0,-10166.0,-1287.0,-9336.0,7.0,-12.0,-42.0,12.0,-23.0,9.0,21.0,77.0,0.38804149627685547
164,-180.0,-1.0,-35.0,1.0,-8735.0,-10166.0,-1287.0,-9336.0,12.0,3.0,-46.0,-6.0,6.0,-16.0,-7.0,-33.0,0.3943758010864258
165,-180.0,-1.0,-35.0,1.0,-8735.0,-10166.0,-1287.0,-9336.0,-9.0,-8.0,-24.0,20.0,-52.0,27.0,-14.0,-39.0,0.3962986469268799
166,-217.0,4.0,-46.0,1.0,-8762.0,-10145.0,-1269.0,-9336.0,-9.0,-8.0,-24.0,20.0,-52.0,27.0,-14.0,-39.0,0.4085958003997803
167,-217.0,4.0,-46.0,1.0,-8762.0,-10145.0,-1269.0,-9336.0,-5.0,-32.0,-83.0,11.0,-40.0,8.0,-1.0,-19.0,0.41043949127197266
168,-217.0,4.0,-46.0,1.0,-8762.0,-10145.0,-1269.0,-9336.0,9.0,-2.0,-26.0,-8.0,60.0,5.0,4.0,14.0,0.41550755500793457
169,-224.0,11.0,-39.0,1.0,-8789.0,-10124.0,-1250.0,-9336.0,9.0,-2.0,-26.0,-8.0,60.0,5.0,4.0,14.0,0.43112921714782715
170,-224.0,11.0,-39.0,1.0,-8789.0,-10124.0,-1250.0,-9336.0,-2.0,33.0,8.0,-77.0,27.0,3.0,2.0,6.0,0.43296265602111816
171,-224.0,11.0,-39.0,1.0,-8789.0,-10124.0,-1250.0,-9336.0,0.0,-1.0,27.0,14.0,-23.0,14.0,12.0,43.0,0.4390428066253662
172,-177.0,20.0,-52.0,1.0,-8812.0,-10106.0,-1239.0,-9335.0,0.0,-1.0,27.0,14.0,-23.0,14.0,12.0,43.0,0.4462149143218994
173,-177.0,20.0,-52.0,1.0,-8812.0,-10106.0,-1239.0,-9335.0,-2.0,0.0,-3.0,-37.0,-1.0,-1.0,-2.0,-28.0,0.45453524589538574
174,-177.0,20.0,-52.0,1.0,-8812.0,-10106.0,-1239.0,-9335.0,4.0,29.0,88.0,33.0,9.0,-44.0,-13.0,-28.0,0.4568774700164795
175,-149.0,49.0,-74.0,1.0,-8835.0,-10086.0,-1238.0,-9335.0,4.0,29.0,88.0,33.0,9.0,-44.0,-13.0,-28.0,0.4688591957092285
176,-149.0,49.0,-74.0,1.0,-8835.0,-10086.0,-1238.0,-9335.0,-5.0,-7.0,27.0,27.0,-11.0,4.0,-1.0,-38.0,0.47209620475769043
177,-149.0,49.0,-74.0,1.0,-8835.0,-10086.0,-1238.0,-9335.0,3.0,-14.0,-39.0,-73.0,29.0,-30.0,-5.0,-25.0,0.4761013984680176
178,-183.0,34.0,-78.0,1.0,-8862.0,-10066.0,-1232.0,-9332.0,3.0,-14.0,-39.0,-73.0,29.0,-30.0,-5.0,-25.0,0.4920687675476074
179,-183.0,34.0,-78.0,1.0,-8862.0,-10066.0,-1232.0,-9332.0,-2.0,-2.0,-37.0,-34.0,-4.0,33.0,10.0,41.0,0.49495577812194824
180,-183.0,34.0,-78.0,1.0,-8862.0,-10066.0,-1232.0,-9332.0,-7.0,6.0,19.0,-12.0,12.0,4.0,-8.0,-22.0,0.49767518043518066
181,-200.0,39.0,-95.0,1.0,-8890.0,-10045.0,-1225.0,-9329.0,-7.0,6.0,19.0,-12.0,12.0,4.0,-8.0,-22.0,0.5157179832458496
182,-200.0,39.0,-95.0,1.0,-8890.0,-10045.0,-1225.0,-9329.0,-1.0,-25.0,-10.0,-43.0,27.0,-5.0,-10.0,-20.0,0.5204281806945801
183,-200.0,39.0,-95.0,1.0,-8890.0,-10045.0,-1225.0,-9329.0,-1.0,6.0,2.0,-18.0,-25.0,1.0,-7.0,-17.0,0.5238823890686035
184,-195.0,55.0,-105.0,1.0,-8919.0,-10022.0,-1220.0,-9327.0,-1.0,6.0,2.0,-18.0,-25.0,1.0,-7.0,-17.0,0.5287573337554932
185,-195.0,55.0,-105.0,1.0,-8919.0,-10022.0,-1220.0,-9327.0,-1.0,-16.0,4.0,51.0,3.0,-13.0,-8.0,11.0,0.5305981636047363
186,-195.0,55.0,-105.0,1.0,-8919.0,-10022.0,-1220.0,-9327.0,-2.0,-9.0,-6.0,19.0,-9.0,-7.0,-4.0,1.0,0.5352766513824463
187,-88.0,41.0,-90.0,1.0,-8934.0,-10009.0,-1220.0,-9326.0,-2.0,-9.0,-6.0,19.0,-9.0,-7.0,-4.0,1.0,0.5523934364318848
188,-88.0,41.0,-90.0,1.0,-8934.0,-10009.0,-1220.0,-9326.0,-1.0,12.0,48.0,69.0,-51.0,-5.0,3.0,16.0,0.5556178092956543
189,-88.0,41.0,-90.0,1.0,-8934.0,-10009.0,-1220.0,-9326.0,8.0,-1.0,17.0,-18.0,-19.0,4.0,7.0,24.0,0.5573740005493164
190,-10.0,19.0,-68.0,1.0,-8938.0,-10012.0,-1230.0,-9318.0,8.0,-1.0,17.0,-18.0,-19.0,4.0,7.0,24.0,0.5742988586425781
191,-10.0,19.0,-68.0,1.0,-8938.0,-10012.0,-1230.0,-9318.0,0.0,-1.0,-11.0,-21.0,32.0,-13.0,-4.0,-13.0,0.576256513595581
192,-10.0,19.0,-68.0,1.0,-8938.0,-10012.0,-1230.0,-9318.0,-10.0,1.0,23.0,-14.0,-18.0,1.0,-2.0,-9.0,0.5787129402160645
193,-24.0,-8.0,-45.0,1.0,-8945.0,-10010.0,-1232.0,-9313.0,-10.0,1.0,23.0,-14.0,-18.0,1.0,-2.0,-9.0,0.5888173580169678
194,-24.0,-8.0,-45.0,1.0,-8945.0,-10010.0,-1232.0,-9313.0,2.0,9.0,32.0,-32.0,17.0,19.0,-2.0,1.0,0.5906920433044434
195,-24.0,-8.0,-45.0,1.0,-8945.0,-10010.0,-1232.0,-9313.0,-1.0,-7.0,2.0,-9.0,11.0,7.0,6.0,37.0,0.5953216552734375
196,-53.0,-16.0,-41.0,1.0,-8957.0,-10004.0,-1229.0,-9309.0,-1.0,-7.0,2.0,-9.0,11.0,7.0,6.0,37.0,0.6123719215393066
197,-53.0,-16.0,-41.0,1.0,-8957.0,-10004.0,-1229.0,-9309.0,1.0,1.0,31.0,43.0,-28.0,-1.0,5.0,21.0,0.6156952381134033
198,-53.0,-16.0,-41.0,1.0,-8957.0,-10004.0,-1229.0,-9309.0,1.0,14.0,27.0,13.0,-35.0,-21.0,-9.0,16.0,0.619121789932251
199,-56.0,-28.0,-49.0,1.0,-8968.0,-10003.0,-1230.0,-9298.0,1.0,14.0,27.0,13.0,-35.0,-21.0,-9.0,16.0,0.6355147361755371
200,-56.0,-28.0,-49.0,1.0,-8968.0,-10003.0,-1230.0,-9298.0,12.0,40.0,63.0,31.0,10.0,-14.0,4.0,3.0,0.6390526294708252
201,-257.0,-56.0,-87.0,1.0,-9004.0,-9986.0,-1208.0,-9286.0,12.0,40.0,63.0,31.0,10.0,-14.0,4.0,3.0,0.6430234909057617
202,-257.0,-56.0,-87.0,1.0,-9004.0,-9986.0,-1208.0,-9286.0,0.0,-7.0,-25.0,-9.0,41.0,2.0,4.0,8.0,0.6497077941894531
203,-257.0,-56.0,-87.0,1.0,-9004.0,-9986.0,-1208.0,-9286.0,-6.0,-9.0,-37.0,-2.0,-5.0,-44.0,-12.0,-11.0,0.6518237590789795
204,-395.0,-62.0,-132.0,1.0,-9062.0,-9947.0,-1173.0,-9275.0,-6.0,-9.0,-37.0,-2.0,-5.0,-44.0,-12.0,-11.0,0.6636831760406494
205,-395.0,-62.0,-132.0,1.0,-9062.0,-9947.0,-1173.0,-9275.0,0.0,16.0,9.0,29.0,52.0,72.0,11.0,0.0,0.6738071441650391
206,-395.0,-62.0,-132.0,1.0,-9062.0,-9947.0,-1173.0,-9275.0,-2.0,-17.0,-38.0,33.0,-6.0,4.0,7.0,37.0,0.6761946678161621
207,-454.0,-58.0,-156.0,1.0,-9127.0,-9899.0,-1129.0,-9268.0,-2.0,-17.0,-38.0,33.0,-6.0,4.0,7.0,37.0,0.6779747009277344
208,-454.0,-58.0,-156.0,1.0,-9127.0,-9899.0,-1129.0,-9268.0,-2.0,-15.0,-68.0,11.0,-1.0,2.0,-13.0,-17.0,0.6864891052246094
209,-454.0,-58.0,-156.0,1.0,-9127.0,-9899.0,-1129.0,-9268.0,-11.0,-2.0,-56.0,-54.0,-6.0,9.0,4.0,6.0,0.6936385631561279
210,-463.0,16.0,-141.0,1.0,-9188.0,-9837.0,-1078.0,-9280.0,-11.0,-2.0,-56.0,-54.0,-6.0,9.0,4.0,6.0,0.6954023838043213
211,-463.0,16.0,-141.0,1.0,-9188.0,-9837.0,-1078.0,-9280.0,-14.0,-9.0,39.0,27.0,-17.0,-15.0,-5.0,-11.0,0.7179586887359619
212,-463.0,16.0,-141.0,1.0,-9188.0,-9837.0,-1078.0,-9280.0,-5.0,8.0,28.0,-20.0,-23.0,-30.0,-8.0,8.0,0.7221958637237549
213,-199.0,119.0,-116.0,1.0,-9225.0,-9776.0,-1060.0,-9310.0,-5.0,8.0,28.0,-20.0,-23.0,-30.0,-8.0,8.0,0.7253053188323975
214,-199.0,119.0,-116.0,1.0,-9225.0,-9776.0,-1060.0,-9310.0,1.0,1.0,54.0,-41.0,3.0,6.0,0.0,-29.0,0.7315704822540283
215,-199.0,119.0,-116.0,1.0,-9225.0,-9776.0,-1060.0,-9310.0,-6.0,-17.0,8.0,4.0,-17.0,-8.0,-2.0,-16.0,0.7340950965881348
216,-149.0,269.0,-70.0,1.0,-9261.0,-9701.0,-1075.0,-9351.0,-6.0,-17.0,8.0,4.0,-17.0,-8.0,-2.0,-16.0,0.7386281490325928
217,-149.0,269.0,-70.0,1.0,-9261.0,-9701.0,-1075.0,-9351.0,-5.0,0.0,6.0,31.0,10.0,0.0,-1.0,-9.0,0.745539665222168
218,-149.0,269.0,-70.0,1.0,-9261.0,-9701.0,-1075.0,-9351.0,9.0,13.0,-61.0,22.0,2.0,14.0,0.0,-8.0,0.7540013790130615
219,-584.0,461.0,-3.0,1.0,-9355.0,-9534.0,-1069.0,-9430.0,9.0,13.0,-61.0,22.0,2.0,14.0,0.0,-8.0,0.7568984031677246
220,-584.0,461.0,-3.0,1.0,-9355.0,-9534.0,-1069.0,-9430.0,5.0,12.0,-2.0,0.0,-7.0,-12.0,3.0,20.0,0.7710418701171875
221,-584.0,461.0,-3.0,1.0,-9355.0,-9534.0,-1069.0,-9430.0,4.0,0.0,2.0,28.0,21.0,19.0,-3.0,-17.0,0.785602331161499
222,-631.0,746.0,256.0,1.0,-9429.0,-9300.0,-1036.0,-9592.0,4.0,0.0,2.0,28.0,21.0,19.0,-3.0,-17.0,0.7885408401489258
223,-631.0,746.0,256.0,1.0,-9429.0,-9300.0,-1036.0,-9592.0,7.0,-17.0,-66.0,6.0,7.0,1.0,10.0,-3.0,0.791590690612793
224,-631.0,746.0,256.0,1.0,-9429.0,-9300.0,-1036.0,-9592.0,16.0,2.0,-2.0,-38.0,-18.0,2.0,4.0,-19.0,0.7950730323791504
225,298.0,1203.0,145.0,1.0,-9423.0,-9093.0,-1163.0,-9779.0,16.0,2.0,-2.0,-38.0,-18.0,2.0,4.0,-19.0,0.7982046604156494
226,298.0,1203.0,145.0,1.0,-9423.0,-9093.0,-1163.0,-9779.0,11.0,-8.0,-4.0,18.0,31.0,0.0,2.0,-21.0,0.8056983947753906
227,298.0,1203.0,145.0,1.0,-9423.0,-9093.0,-1163.0,-9779.0,2.0,-11.0,-6.0,-37.0,1.0,-6.0,-11.0,-9.0,0.814039945602417
228,1132.0,1632.0,9.0,1.0,-9301.0,-9009.0,-1454.0,-9933.0,2.0,-11.0,-6.0,-37.0,1.0,-6.0,-11.0,-9.0,0.8174111843109131
229,1132.0,1632.0,9.0,1.0,-9301.0,-9009.0,-1454.0,-9933.0,-2.0,-7.0,-38.0,-49.0,-43.0,-9.0,4.0,11.0,0.8293137550354004
230,1132.0,1632.0,9.0,1.0,-9301.0,-9009.0,-1454.0,-9933.0,-8.0,0.0,-1.0,96.0,37.0,-2.0,-9.0,7.0,0.8376593589782715
231,-116.0,1853.0,-427.0,1.0,-9344.0,-8768.0,-1688.0,-10071.0,-8.0,0.0,-1.0,96.0,37.0,-2.0,-9.0,7.0,0.8406276702880859
232,-116.0,1853.0,-427.0,1.0,-9344.0,-8768.0,-1688.0,-10071.0,-8.0,5.0,-9.0,-58.0,-61.0,-28.0,-29.0,4.0,0.8514909744262695
233,-116.0,1853.0,-427.0,1.0,-9344.0,-8768.0,-1688.0,-10071.0,-12.0,-9.0,-3.0,18.0,-15.0,14.0,30.0,1.0,0.853320837020874
234,-2123.0,2248.0,-503.0,1.0,-9570.0,-8267.0,-1741.0,-10271.0,-12.0,-9.0,-3.0,18.0,-15.0,14.0,30.0,1.0,0.8589508533477783
235,-2123.0,2248.0,-503.0,1.0,-9570.0,-8267.0,-1741.0,-10271.0,-8.0,-2.0,4.0,57.0,-2.0,-11.0,31.0,5.0,0.8661777973175049
236,-2123.0,2248.0,-503.0,1.0,-9570.0,-8267.0,-1741.0,-10271.0,3.0,2.0,53.0,19.0,26.0,11.0,0.0,8.0,0.8738741874694824
237,-2836.0,2696.0,-664.0,1.0,-9840.0,-7650.0,-1763.0,-10489.0,3.0,2.0,53.0,19.0,26.0,11.0,0.0,8.0,0.8756341934204102
238,-2836.0,2696.0,-664.0,1.0,-9840.0,-7650.0,-1763.0,-10489.0,-6.0,-1.0,30.0,34.0,25.0,-5.0,-20.0,3.0,0.8967015743255615
239,-2836.0,2696.0,-664.0,1.0,-9840.0,-7650.0,-1763.0,-10489.0,-4.0,-9.0,-9.0,-16.0,20.0,-4.0,0.0,-4.0,0.8992486000061035
240,-2246.0,3014.0,-852.0,1.0,-10058.0,-7041.0,-1899.0,-10683.0,-4.0,-9.0,-9.0,-16.0,20.0,-4.0,0.0,-4.0,0.9028608798980713
241,-2246.0,3014.0,-852.0,1.0,-10058.0,-7041.0,-1899.0,-10683.0,2.0,9.0,32.0,-13.0,13.0,0.0,-7.0,3.0,0.9121618270874023
242,-2246.0,3014.0,-852.0,1.0,-10058.0,-7041.0,-1899.0,-10683.0,0.0,-6.0,5.0,-27.0,-6.0,3.0,-7.0,1.0,0.9152195453643799
243,-1708.0,3252.0,-1397.0,1.0,-10275.0,-6440.0,-2163.0,-10805.0,0.0,-6.0,5.0,-27.0,-6.0,3.0,-7.0,1.0,0.9177041053771973
244,-1708.0,3252.0,-1397.0,1.0,-10275.0,-6440.0,-2163.0,-10805.0,-1.0,-4.0,-31.0,-9.0,-2.0,2.0,2.0,2.0,0.9257042407989502
245,-1708.0,3252.0,-1397.0,1.0,-10275.0,-6440.0,-2163.0,-10805.0,-3.0,-4.0,-9.0,-35.0,-5.0,-2.0,-6.0,4.0,0.9339122772216797
246,-2203.0,3430.0,-2018.0,1.0,-10574.0,-5734.0,-2426.0,-10858.0,-3.0,-4.0,-9.0,-35.0,-5.0,-2.0,-6.0,4.0,0.9356811046600342
247,-2203.0,3430.0,-2018.0,1.0,-10574.0,-5734.0,-2426.0,-10858.0,4.0,2.0,8.0,-21.0,-12.0,-2.0,2.0,1.0,0.9485089778900146
248,-2203.0,3430.0,-2018.0,1.0,-10574.0,-5734.0,-2426.0,-10858.0,-1.0,-2.0,-1.0,-29.0,26.0,-4.0,-6.0,-2.0,0.957038402557373
249,-2950.0,3606.0,-2242.0,1.0,-10898.0,-4939.0,-2635.0,-10880.0,-1.0,-2.0,-1.0,-29.0,26.0,-4.0,-6.0,-2.0,0.9601774215698242
250,-2950.0,3606.0,-2242.0,1.0,-10898.0,-4939.0,-2635.0,-10880.0,-2.0,-6.0,-11.0,22.0,-6.0,5.0,-2.0,1.0,0.9710216522216797
251,-2950.0,3606.0,-2242.0,1.0,-10898.0,-4939.0,-2635.0,-10880.0,0.0,1.0,-26.0,6.0,25.0,3.0,11.0,-3.0,0.972783088684082
252,-3560.0,3778.0,-2433.0,1.0,-11232.0,-4040.0,-2789.0,-10872.0,0.0,1.0,-26.0,6.0,25.0,3.0,11.0,-3.0,0.9786205291748047
253,-3560.0,3778.0,-2433.0,1.0,-11232.0,-4040.0,-2789.0,-10872.0,5.0,-1.0,0.0,-16.0,-35.0,-10.0,-10.0,2.0,0.9861817359924316
254,-3560.0,3778.0,-2433.0,1.0,-11232.0,-4040.0,-2789.0,-10872.0,3.0,7.0,12.0,0.0,-29.0,2.0,-4.0,-18.0,0.9934475421905518
255,-3699.0,3847.0,-2474.0,1.0,-11533.0,-3103.0,-2922.0,-10829.0,3.0,7.0,12.0,0.0,-29.0,2.0,-4.0,-18.0,0.9952676296234131
256,-3699.0,3847.0,-2474.0,1.0,-11533.0,-3103.0,-2922.0,-10829.0,-6.0,1.0,4.0,-15.0,-47.0,-11.0,9.0,-13.0,1.0081794261932373
257,-3699.0,3847.0,-2474.0,1.0,-11533.0,-3103.0,-2922.0,-10829.0,-1.0,3.0,1.0,-13.0,26.0,-8.0,-52.0,24.0,1.0167865753173828
258,-3382.0,3972.0,-2443.0,1.0,-11774.0,-2182.0,-3096.0,-10747.0,-1.0,3.0,1.0,-13.0,26.0,-8.0,-52.0,24.0,1.0206124782562256
259,-3382.0,3972.0,-2443.0,1.0,-11774.0,-2182.0,-3096.0,-10747.0,1.0,3.0,-5.0,12.0,15.0,1.0,-7.0,-28.0,1.0315322875976562
260,-3382.0,3972.0,-2443.0,1.0,-11774.0,-2182.0,-3096.0,-10747.0,-10.0,-3.0,-2.0,-5.0,17.0,1.0,8.0,4.0,1.0333476066589355
261,-3057.0,4094.0,-2338.0,1.0,-11949.0,-1285.0,-3308.0,-10634.0,-10.0,-3.0,-2.0,-5.0,17.0,1.0,8.0,4.0,1.0378258228302002
262,-3057.0,4094.0,-2338.0,1.0,-11949.0,-1285.0,-3308.0,-10634.0,7.0,6.0,-3.0,15.0,-1.0,-6.0,8.0,5.0,1.0456054210662842
263,-3057.0,4094.0,-2338.0,1.0,-11949.0,-1285.0,-3308.0,-10634.0,-6.0,-5.0,-3.0,-1.0,17.0,11.0,4.0,-25.0,1.0544869899749756
264,-2691.0,4089.0,-2394.0,1.0,-12089.0,-421.0,-3551.0,-10466.0,-6.0,-5.0,-3.0,-1.0,17.0,11.0,4.0,-25.0,1.056298017501831
265,-2691.0,4089.0,-2394.0,1.0,-12089.0,-421.0,-3551.0,-10466.0,4.0,3.0,0.0,4.0,11.0,10.0,37.0,30.0,1.068256139755249
266,-2691.0,4089.0,-2394.0,1.0,-12089.0,-421.0,-3551.0,-10466.0,2.0,1.0,-1.0,-4.0,-63.0,-18.0,-8.0,-12.0,1.077070713043213
267,-2546.0,3897.0,-2528.0,1.0,-12213.0,420.0,-3778.0,-10240.0,2.0,1.0,-1.0,-4.0,-63.0,-18.0,-8.0,-12.0,1.080446481704712
268,-2546.0,3897.0,-2528.0,1.0,-12213.0,420.0,-3778.0,-10240.0,-5.0,-1.0,5.0,2.0,-19.0,-9.0,16.0,2.0,1.0925028324127197
269,-2546.0,3897.0,-2528.0,1.0,-12213.0,420.0,-3778.0,-10240.0,20.0,0.0,0.0,-6.0,-43.0,6.0,-22.0,3.0,1.0958168506622314
270,-2562.0,3746.0,-2481.0,1.0,-12302.0,1252.0,-3970.0,-9989.0,20.0,0.0,0.0,-6.0,-43.0,6.0,-22.0,3.0,1.1072723865509033
271,-2562.0,3746.0,-2481.0,1.0,-12302.0,1252.0,-3970.0,-9989.0,-5.0,-2.0,1.0,-10.0,-62.0,-28.0,-47.0,-15.0,1.1092405319213867
272,-2562.0,3746.0,-2481.0,1.0,-12302.0,1252.0,-3970.0,-9989.0,15.0,7.0,1.0,-9.0,8.0,0.0,13.0,-1.0,1.113506555557251
273,-2602.0,3641.0,-2417.0,1.0,-12353.0,2078.0,-4132.0,-9719.0,15.0,7.0,1.0,-9.0,8.0,0.0,13.0,-1.0,1.115321397781372
274,-2602.0,3641.0,-2417.0,1.0,-12353.0,2078.0,-4132.0,-9719.0,5.0,-6.0,-10.0,-6.0,-3.0,2.0,81.0,-31.0,1.1281769275665283
275,-2602.0,3641.0,-2417.0,1.0,-12353.0,2078.0,-4132.0,-9719.0,4.0,4.0,2.0,-2.0,-13.0,6.0,43.0,27.0,1.1390624046325684
276,-2530.0,3499.0,-2340.0,1.0,-12370.0,2878.0,-4272.0,-9429.0,4.0,4.0,2.0,-2.0,-13.0,6.0,43.0,27.0,1.1434736251831055
277,-2530.0,3499.0,-2340.0,1.0,-12370.0,2878.0,-4272.0,-9429.0,2.0,-5.0,-7.0,2.0,47.0,12.0,-1.0,25.0,1.1514248847961426
278,-2530.0,3499.0,-2340.0,1.0,-12370.0,2878.0,-4272.0,-9429.0,-9.0,2.0,-4.0,2.0,-1.0,-1.0,-14.0,-43.0,1.1532318592071533
279,-2292.0,3340.0,-2113.0,1.0,-12345.0,3622.0,-4415.0,-9136.0,-9.0,2.0,-4.0,2.0,-1.0,-1.0,-14.0,-43.0,1.1577162742614746
280,-2292.0,3340.0,-2113.0,1.0,-12345.0,3622.0,-4415.0,-9136.0,-8.0,1.0,-1.0,1.0,12.0,-4.0,-38.0,87.0,1.1662445068359375
281,-2292.0,3340.0,-2113.0,1.0,-12345.0,3622.0,-4415.0,-9136.0,-6.0,-6.0,-4.0,6.0,10.0,-3.0,7.0,-14.0,1.1736032962799072
282,-1823.0,3141.0,-2175.0,1.0,-12325.0,4288.0,-4564.0,-8794.0,-6.0,-6.0,-4.0,6.0,10.0,-3.0,7.0,-14.0,1.1753625869750977
283,-1823.0,3141.0,-2175.0,1.0,-12325.0,4288.0,-4564.0,-8794.0,-7.0,-5.0,2.0,6.0,10.0,-2.0,28.0,-29.0,1.188830852508545
284,-1823.0,3141.0,-2175.0,1.0,-12325.0,4288.0,-4564.0,-8794.0,-12.0,3.0,5.0,5.0,-45.0,-36.0,34.0,18.0,1.19818115234375
285,-1448.0,2847.0,-2300.0,1.0,-12323.0,4886.0,-4695.0,-8407.0,-12.0,3.0,5.0,5.0,-45.0,-36.0,34.0,18.0,1.2019870281219482
286,-1448.0,2847.0,-2300.0,1.0,-12323.0,4886.0,-4695.0,-8407.0,3.0,1.0,-3.0,-5.0,-30.0,-62.0,-20.0,31.0,1.2123768329620361
287,-1448.0,2847.0,-2300.0,1.0,-12323.0,4886.0,-4695.0,-8407.0,11.0,13.0,9.0,5.0,17.0,-9.0,-57.0,39.0,1.2157478332519531
288,-1354.0,2596.0,-2305.0,1.0,-12317.0,5445.0,-4791.0,-8009.0,11.0,13.0,9.0,5.0,17.0,-9.0,-57.0,39.0,1.2189123630523682
289,-1354.0,2596.0,-2305.0,1.0,-12317.0,5445.0,-4791.0,-8009.0,2.0,-1.0,-6.0,-18.0,77.0,54.0,-13.0,-20.0,1.2271928787231445
290,-1354.0,2596.0,-2305.0,1.0,-12317.0,5445.0,-4791.0,-8009.0,-3.0,-11.0,-10.0,-11.0,92.0,50.0,12.0,60.0,1.2336037158966064
291,-1560.0,2294.0,-2301.0,1.0,-12290.0,6002.0,-4823.0,-7624.0,-3.0,-11.0,-10.0,-11.0,92.0,50.0,12.0,60.0,1.236100673675537
292,-1560.0,2294.0,-2301.0,1.0,-12290.0,6002.0,-4823.0,-7624.0,8.0,0.0,-2.0,-5.0,-75.0,-28.0,8.0,-74.0,1.2482664585113525
293,-1560.0,2294.0,-2301.0,1.0,-12290.0,6002.0,-4823.0,-7624.0,15.0,15.0,17.0,21.0,-42.0,20.0,51.0,-17.0,1.2575428485870361
294,-1508.0,1885.0,-2077.0,1.0,-12247.0,6507.0,-4814.0,-7276.0,15.0,15.0,17.0,21.0,-42.0,20.0,51.0,-17.0,1.2609748840332031
295,-1508.0,1885.0,-2077.0,1.0,-12247.0,6507.0,-4814.0,-7276.0,-41.0,-10.0,-4.0,2.0,10.0,77.0,-79.0,-114.0,1.271869421005249
296,-1508.0,1885.0,-2077.0,1.0,-12247.0,6507.0,-4814.0,-7276.0,-74.0,-19.0,-5.0,-17.0,-39.0,-14.0,-4.0,57.0,1.2736501693725586
297,-1260.0,1317.0,-1766.0,1.0,-12211.0,6914.0,-4765.0,-6987.0,-74.0,-19.0,-5.0,-17.0,-39.0,-14.0,-4.0,57.0,1.278256893157959
298,-1260.0,1317.0,-1766.0,1.0,-12211.0,6914.0,-4765.0,-6987.0,-103.0,-8.0,3.0,27.0,106.0,1.0,-10.0,-15.0,1.285841703414917
299,-1260.0,1317.0,-1766.0,1.0,-12211.0,6914.0,-4765.0,-6987.0,39.0,9.0,3.0,-9.0,74.0,-20.0,57.0,-122.0,1.2928392887115479
300,-1065.0,770.0,-1425.0,1.0,-12133.0,7397.0,-4682.0,-6679.0,39.0,9.0,3.0,-9.0,74.0,-20.0,57.0,-122.0,1.3007895946502686
301,-1065.0,770.0,-1425.0,1.0,-12133.0,7397.0,-4682.0,-6679.0,11.0,12.0,18.0,-15.0,-27.0,-7.0,79.0,35.0,1.3088722229003906
302,-1065.0,770.0,-1425.0,1.0,-12133.0,7397.0,-4682.0,-6679.0,-12.0,-18.0,-12.0,8.0,-26.0,-18.0,52.0,-70.0,1.3171074390411377
303,-781.0,321.0,-611.0,1.0,-12097.0,7554.0,-4618.0,-6612.0,-12.0,-18.0,-12.0,8.0,-26.0,-18.0,52.0,-70.0,1.321281909942627
304,-781.0,321.0,-611.0,1.0,-12097.0,7554.0,-4618.0,-6612.0,24.0,3.0,-9.0,-2.0,-63.0,23.0,-5.0,127.0,1.3322253227233887
305,-781.0,321.0,-611.0,1.0,-12097.0,7554.0,-4618.0,-6612.0,-19.0,-29.0,-1.0,47.0,-68.0,-15.0,-65.0,18.0,1.3400592803955078
306,-188.0,-11.0,267.0,1.0,-12063.0,7565.0,-4625.0,-6657.0,-19.0,-29.0,-1.0,47.0,-68.0,-15.0,-65.0,18.0,1.3431196212768555
307,-188.0,-11.0,267.0,1.0,-12063.0,7565.0,-4625.0,-6657.0,126.0,87.0,10.0,-2.0,-70.0,-85.0,-23.0,104.0,1.345134973526001
308,-188.0,-11.0,267.0,1.0,-12063.0,7565.0,-4625.0,-6657.0,-5.0,27.0,-9.0,-31.0,63.0,19.0,74.0,-27.0,1.36102294921875
309,1072.0,-524.0,917.0,1.0,-12109.0,7338.0,-4710.0,-6766.0,-5.0,27.0,-9.0,-31.0,63.0,19.0,74.0,-27.0,1.3636491298675537
310,1072.0,-524.0,917.0,1.0,-12109.0,7338.0,-4710.0,-6766.0,89.0,-25.0,-5.0,-4.0,127.0,38.0,-79.0,68.0,1.3687915802001953
311,1072.0,-524.0,917.0,1.0,-12109.0,7338.0,-4710.0,-6766.0,7.0,-30.0,-3.0,-10.0,74.0,-103.0,-45.0,127.0,1.3852572441101074
312,1946.0,-1265.0,1456.0,1.0,-12217.0,6910.0,-4801.0,-6957.0,7.0,-30.0,-3.0,-10.0,74.0,-103.0,-45.0,127.0,1.3895812034606934
313,1946.0,-1265.0,1456.0,1.0,-12217.0,6910.0,-4801.0,-6957.0,-2.0,1.0,7.0,10.0,-7.0,-74.0,-28.0,-106.0,1.393327236175537
314,1946.0,-1265.0,1456.0,1.0,-12217.0,6910.0,-4801.0,-6957.0,-110.0,-16.0,2.0,55.0,110.0,127.0,46.0,70.0,1.3957831859588623
315,2720.0,-2041.0,2349.0,1.0,-12323.0,6327.0,-4912.0,-7242.0,-110.0,-16.0,2.0,55.0,110.0,127.0,46.0,70.0,1.3976054191589355
316,2720.0,-2041.0,2349.0,1.0,-12323.0,6327.0,-4912.0,-7242.0,-97.0,-85.0,-42.0,-72.0,-26.0,-79.0,100.0,-49.0,1.4053688049316406
317,2720.0,-2041.0,2349.0,1.0,-12323.0,6327.0,-4912.0,-7242.0,-6.0,-22.0,-37.0,-26.0,45.0,64.0,-128.0,20.0,1.413449764251709
318,3444.0,-2706.0,3320.0,1.0,-12416.0,5518.0,-5035.0,-7649.0,-6.0,-22.0,-37.0,-26.0,45.0,64.0,-128.0,20.0,1.4208154678344727
319,3444.0,-2706.0,3320.0,1.0,-12416.0,5518.0,-5035.0,-7649.0,-121.0,-58.0,-9.0,22.0,-33.0,96.0,93.0,-57.0,1.428109884262085
320,3444.0,-2706.0,3320.0,1.0,-12416.0,5518.0,-5035.0,-7649.0,125.0,91.0,-10.0,-62.0,10.0,-115.0,-70.0,-128.0,1.4361793994903564
321,3817.0,-3584.0,3881.0,1.0,-12490.0,4511.0,-5077.0,-8144.0,125.0,91.0,-10.0,-62.0,10.0,-115.0,-70.0,-128.0,1.4379808902740479
322,3817.0,-3584.0,3881.0,1.0,-12490.0,4511.0,-5077.0,-8144.0,-1.0,20.0,1.0,28.0,122.0,-12.0,8.0,34.0,1.4516358375549316
323,3817.0,-3584.0,3881.0,1.0,-12490.0,4511.0,-5077.0,-8144.0,127.0,66.0,23.0,-1.0,-73.0,113.0,61.0,-61.0,1.4545402526855469
324,3694.0,-4662.0,4692.0,1.0,-12470.0,3308.0,-4985.0,-8784.0,127.0,66.0,23.0,-1.0,-73.0,113.0,61.0,-61.0,1.4578287601470947
325,3694.0,-4662.0,4692.0,1.0,-12470.0,3308.0,-4985.0,-8784.0,52.0,39.0,51.0,10.0,-128.0,-98.0,97.0,106.0,1.465864658355713
326,3694.0,-4662.0,4692.0,1.0,-12470.0,3308.0,-4985.0,-8784.0,84.0,28.0,5.0,20.0,1.0,24.0,-71.0,-68.0,1.4737937450408936
327,3528.0,-5424.0,5812.0,1.0,-12280.0,1984.0,-4774.0,-9535.0,84.0,28.0,5.0,20.0,1.0,24.0,-71.0,-68.0,1.4814121723175049
328,3528.0,-5424.0,5812.0,1.0,-12280.0,1984.0,-4774.0,-9535.0,53.0,-24.0,22.0,3.0,37.0,-3.0,-92.0,-128.0,1.4892988204956055
329,3528.0,-5424.0,5812.0,1.0,-12280.0,1984.0,-4774.0,-9535.0,-112.0,-128.0,-31.0,-60.0,-72.0,-56.0,103.0,66.0,1.4962043762207031
330,3319.0,-5859.0,6297.0,1.0,-11942.0,599.0,-4448.0,-10281.0,-112.0,-128.0,-31.0,-60.0,-72.0,-56.0,103.0,66.0,1.498227596282959
331,3319.0,-5859.0,6297.0,1.0,-11942.0,599.0,-4448.0,-10281.0,-19.0,-7.0,-8.0,-11.0,127.0,29.0,65.0,127.0,1.5120964050292969
332,3319.0,-5859.0,6297.0,1.0,-11942.0,599.0,-4448.0,-10281.0,-114.0,-101.0,-35.0,-32.0,-85.0,45.0,-103.0,-105.0,1.5152037143707275
333,1379.0,-5914.0,6215.0,1.0,-11490.0,-543.0,-3856.0,-11013.0,-114.0,-101.0,-35.0,-32.0,-85.0,45.0,-103.0,-105.0,1.5183334350585938
334,1379.0,-5914.0,6215.0,1.0,-11490.0,-543.0,-3856.0,-11013.0,38.0,61.0,21.0,63.0,-39.0,71.0,-95.0,-128.0,1.5263900756835938
335,1379.0,-5914.0,6215.0,1.0,-11490.0,-543.0,-3856.0,-11013.0,-88.0,-17.0,-55.0,9.0,-100.0,-12.0,-7.0,127.0,1.53377366065979
336,-39.0,-5281.0,5241.0,1.0,-11046.0,-1389.0,-3148.0,-11602.0,-88.0,-17.0,-55.0,9.0,-100.0,-12.0,-7.0,127.0,1.5403833389282227
337,-39.0,-5281.0,5241.0,1.0,-11046.0,-1389.0,-3148.0,-11602.0,-77.0,-106.0,-123.0,13.0,72.0,-17.0,-128.0,-128.0,1.5484888553619385
338,-39.0,-5281.0,5241.0,1.0,-11046.0,-1389.0,-3148.0,-11602.0,95.0,111.0,121.0,-43.0,-36.0,-17.0,-63.0,-49.0,1.5562670230865479
339,1181.0,-4126.0,3332.0,1.0,-10729.0,-2164.0,-2746.0,-11880.0,95.0,111.0,121.0,-43.0,-36.0,-17.0,-63.0,-49.0,1.5580604076385498
340,1181.0,-4126.0,3332.0,1.0,-10729.0,-2164.0,-2746.0,-11880.0,-86.0,-61.0,42.0,-128.0,33.0,45.0,63.0,86.0,1.5720820426940918
341,1181.0,-4126.0,3332.0,1.0,-10729.0,-2164.0,-2746.0,-11880.0,39.0,-78.0,-77.0,81.0,104.0,98.0,127.0,127.0,1.5738978385925293
342,3004.0,-2073.0,-106.0,1.0,-10725.0,-2779.0,-2892.0,-11719.0,39.0,-78.0,-77.0,81.0,104.0,98.0,127.0,127.0,1.5779821872711182
343,3004.0,-2073.0,-106.0,1.0,-10725.0,-2779.0,-2892.0,-11719.0,19.0,2.0,-76.0,65.0,-48.0,-85.0,-105.0,41.0,1.588684320449829
344,3004.0,-2073.0,-106.0,1.0,-10725.0,-2779.0,-2892.0,-11719.0,-114.0,21.0,46.0,-13.0,-97.0,-38.0,51.0,87.0,1.596099615097046
345,3177.0,-828.0,-1378.0,1.0,-10823.0,-3210.0,-3241.0,-11424.0,-114.0,21.0,46.0,-13.0,-97.0,-38.0,51.0,87.0,1.600816011428833
346,3177.0,-828.0,-1378.0,1.0,-10823.0,-3210.0,-3241.0,-11424.0,76.0,4.0,-31.0,-61.0,18.0,127.0,80.0,36.0,1.6085259914398193
347,3177.0,-828.0,-1378.0,1.0,-10823.0,-3210.0,-3241.0,-11424.0,117.0,49.0,79.0,3.0,34.0,-125.0,-34.0,-128.0,1.6156628131866455
348,1812.0,-729.0,500.0,1.0,-10730.0,-3499.0,-3337.0,-11400.0,117.0,49.0,79.0,3.0,34.0,-125.0,-34.0,-128.0,1.617438554763794
349,1812.0,-729.0,500.0,1.0,-10730.0,-3499.0,-3337.0,-11400.0,69.0,24.0,84.0,-22.0,80.0,32.0,83.0,86.0,1.6322603225708008
350,1812.0,-729.0,500.0,1.0,-10730.0,-3499.0,-3337.0,-11400.0,71.0,-31.0,-101.0,45.0,-28.0,19.0,59.0,58.0,1.6368441581726074
351,-848.0,-1149.0,1074.0,1.0,-10680.0,-3537.0,-3015.0,-11524.0,71.0,-31.0,-101.0,45.0,-28.0,19.0,59.0,58.0,1.6399993896484375
352,-848.0,-1149.0,1074.0,1.0,-10680.0,-3537.0,-3015.0,-11524.0,-20.0,11.0,91.0,21.0,-63.0,-73.0,-115.0,-128.0,1.645498275756836
353,-848.0,-1149.0,1074.0,1.0,-10680.0,-3537.0,-3015.0,-11524.0,-110.0,39.0,-93.0,-18.0,18.0,-77.0,15.0,-128.0,1.6530961990356445
354,-1848.0,-944.0,729.0,1.0,-10688.0,-3455.0,-2595.0,-11643.0,-110.0,39.0,-93.0,-18.0,18.0,-77.0,15.0,-128.0,1.6607158184051514
355,-1848.0,-944.0,729.0,1.0,-10688.0,-3455.0,-2595.0,-11643.0,32.0,127.0,37.0,-9.0,-128.0,-84.0,-33.0,-74.0,1.6683523654937744
356,-1848.0,-944.0,729.0,1.0,-10688.0,-3455.0,-2595.0,-11643.0,-35.0,38.0,-7.0,68.0,47.0,-53.0,-114.0,-128.0,1.6770472526550293
357,395.0,-875.0,1223.0,1.0,-10545.0,-3602.0,-2391.0,-11771.0,-35.0,38.0,-7.0,68.0,47.0,-53.0,-114.0,-128.0,1.680269718170166
358,395.0,-875.0,1223.0,1.0,-10545.0,-3602.0,-2391.0,-11771.0,-84.0,-34.0,11.0,14.0,60.0,93.0,0.0,-14.0,1.691394567489624
359,395.0,-875.0,1223.0,1.0,-10545.0,-3602.0,-2391.0,-11771.0,-9.0,-55.0,-40.0,-58.0,-38.0,-31.0,12.0,-26.0,1.693164348602295
360,1461.0,-940.0,987.0,1.0,-10379.0,-3933.0,-2439.0,-11804.0,-9.0,-55.0,-40.0,-58.0,-38.0,-31.0,12.0,-26.0,1.6979856491088867
361,1461.0,-940.0,987.0,1.0,-10379.0,-3933.0,-2439.0,-11804.0,-82.0,-19.0,40.0,89.0,14.0,74.0,68.0,104.0,1.7057006359100342
362,1461.0,-940.0,987.0,1.0,-10379.0,-3933.0,-2439.0,-11804.0,107.0,102.0,82.0,23.0,-61.0,7.0,-23.0,-31.0,1.7127888202667236
363,323.0,-799.0,559.0,1.0,-10298.0,-4138.0,-2358.0,-11821.0,107.0,102.0,82.0,23.0,-61.0,7.0,-23.0,-31.0,1.7212133407592773
364,323.0,-799.0,559.0,1.0,-10298.0,-4138.0,-2358.0,-11821.0,-2.0,63.0,-77.0,-42.0,15.0,-128.0,-24.0,-94.0,1.7279834747314453
365,323.0,-799.0,559.0,1.0,-10298.0,-4138.0,-2358.0,-11821.0,44.0,-41.0,-64.0,-69.0,47.0,-92.0,-36.0,-87.0,1.7370226383209229
366,364.0,-327.0,589.0,1.0,-10200.0,-4262.0,-2284.0,-11876.0,44.0,-41.0,-64.0,-69.0,47.0,-92.0,-36.0,-87.0,1.7389020919799805
367,364.0,-327.0,589.0,1.0,-10200.0,-4262.0,-2284.0,-11876.0,6.0,-37.0,-93.0,90.0,12.0,94.0,57.0,-95.0,1.7538864612579346
368,364.0,-327.0,589.0,1.0,-10200.0,-4262.0,-2284.0,-11876.0,6.0,-2.0,-92.0,-72.0,-19.0,88.0,22.0,-49.0,1.7571604251861572
369,833.0,-60.0,349.0,1.0,-10103.0,-4429.0,-2402.0,-11874.0,6.0,-2.0,-92.0,-72.0,-19.0,88.0,22.0,-49.0,1.7602849006652832
370,833.0,-60.0,349.0,1.0,-10103.0,-4429.0,-2402.0,-11874.0,71.0,21.0,-118.0,27.0,-97.0,-42.0,22.0,-10.0,1.7660729885101318
371,833.0,-60.0,349.0,1.0,-10103.0,-4429.0,-2402.0,-11874.0,-42.0,-62.0,-68.0,64.0,-17.0,10.0,-62.0,-65.0,1.77302885055542
372,8.0,5.0,67.0,1.0,-10076.0,-4508.0,-2445.0,-11859.0,-42.0,-62.0,-68.0,64.0,-17.0,10.0,-62.0,-65.0,1.7808265686035156
373,8.0,5.0,67.0,1.0,-10076.0,-4508.0,-2445.0,-11859.0,-29.0,-42.0,84.0,-75.0,-105.0,78.0,56.0,51.0,1.788569688796997
374,8.0,5.0,67.0,1.0,-10076.0,-4508.0,-2445.0,-11859.0,-21.0,56.0,28.0,42.0,-10.0,-74.0,19.0,15.0,1.7967772483825684
375,-196.0,62.0,-304.0,1.0,-10099.0,-4542.0,-2428.0,-11829.0,-21.0,56.0,28.0,42.0,-10.0,-74.0,19.0,15.0,1.800001621246338
376,-196.0,62.0,-304.0,1.0,-10099.0,-4542.0,-2428.0,-11829.0,32.0,23.0,117.0,96.0,76.0,1.0,-57.0,-95.0,1.8107147216796875
377,501.0,230.0,-343.0,1.0,-10096.0,-4612.0,-2545.0,-11780.0,32.0,23.0,117.0,96.0,76.0,1.0,-57.0,-95.0,1.835500955581665
378,501.0,230.0,-343.0,1.0,-10096.0,-4612.0,-2545.0,-11780.0,-64.0,-60.0,-16.0,-94.0,-15.0,29.0,45.0,-38.0,1.8390061855316162
379,501.0,230.0,-343.0,1.0,-10096.0,-4612.0,-2545.0,-11780.0,-14.0,-51.0,-88.0,-53.0,13.0,75.0,-10.0,-20.0,1.8425729274749756
380,548.0,158.0,-235.0,1.0,-10088.0,-4686.0,-2704.0,-11723.0,-14.0,-51.0,-88.0,-53.0,13.0,75.0,-10.0,-20.0,1.8570609092712402
381,548.0,158.0,-235.0,1.0,-10088.0,-4686.0,-2704.0,-11723.0,55.0,85.0,30.0,127.0,127.0,-55.0,-114.0,22.0,1.8589873313903809
382,548.0,158.0,-235.0,1.0,-10088.0,-4686.0,-2704.0,-11723.0,-28.0,-75.0,-92.0,-30.0,21.0,-65.0,-6.0,50.0,1.8607525825500488
383,55.0,18.0,-128.0,1.0,-10097.0,-4709.0,-2753.0,-11694.0,-28.0,-75.0,-92.0,-30.0,21.0,-65.0,-6.0,50.0,1.8779034614562988
384,55.0,18.0,-128.0,1.0,-10097.0,-4709.0,-2753.0,-11694.0,40.0,83.0,-24.0,-69.0,-43.0,65.0,-39.0,-8.0,1.8870823383331299
385,55.0,18.0,-128.0,1.0,-10097.0,-4709.0,-2753.0,-11694.0,-9.0,19.0,78.0,-94.0,2.0,-41.0,25.0,100.0,1.8889069557189941
386,-1.0,20.0,-39.0,1.0,-10092.0,-4720.0,-2716.0,-11703.0,-9.0,19.0,78.0,-94.0,2.0,-41.0,25.0,100.0,1.9095089435577393
387,216.0,40.0,-77.0,1.0,-10083.0,-4742.0,-2717.0,-11702.0,-9.0,19.0,78.0,-94.0,2.0,-41.0,25.0,100.0,1.9113943576812744
388,216.0,40.0,-77.0,1.0,-10083.0,-4742.0,-2717.0,-11702.0,-57.0,-85.0,-76.0,-22.0,-27.0,126.0,127.0,127.0,1.9132144451141357
389,216.0,40.0,-77.0,1.0,-10083.0,-4742.0,-2717.0,-11702.0,81.0,15.0,-59.0,55.0,49.0,84.0,9.0,-97.0,1.9227876663208008
390,30.0,-46.0,48.0,1.0,-10071.0,-4773.0,-2718.0,-11700.0,81.0,15.0,-59.0,55.0,49.0,84.0,9.0,-97.0,1.9403636455535889
391,30.0,-46.0,48.0,1.0,-10071.0,-4773.0,-2718.0,-11700.0,-16.0,-52.0,-8.0,-25.0,33.0,-97.0,12.0,123.0,1.9436304569244385
392,30.0,-46.0,48.0,1.0,-10071.0,-4773.0,-2718.0,-11700.0,15.0,22.0,44.0,-29.0,-49.0,-98.0,-70.0,-88.0,1.9467525482177734
393,-114.0,-120.0,164.0,1.0,-10053.0,-4795.0,-2677.0,-11715.0,15.0,22.0,44.0,-29.0,-49.0,-98.0,-70.0,-88.0,1.962080478668213
394,-114.0,-120.0,164.0,1.0,-10053.0,-4795.0,-2677.0,-11715.0,53.0,-5.0,32.0,29.0,0.0,35.0,-13.0,58.0,1.963987112045288
395,-114.0,-120.0,164.0,1.0,-10053.0,-4795.0,-2677.0,-11715.0,-29.0,-10.0,-31.0,57.0,-9.0,46.0,9.0,24.0,1.9689090251922607
396,-6.0,-105.0,197.0,1.0,-10028.0,-4820.0,-2640.0,-11735.0,-29.0,-10.0,-31.0,57.0,-9.0,46.0,9.0,24.0,1.9838831424713135
397,166.0,-117.0,186.0,1.0,-9992.0,-4876.0,-2640.0,-11742.0,-29.0,-10.0,-31.0,57.0,-9.0,46.0,9.0,24.0,1.9857888221740723
398,166.0,-117.0,186.0,1.0,-9992.0,-4876.0,-2640.0,-11742.0,-44.0,-44.0,-18.0,20.0,55.0,-3.0,-84.0,-112.0,2.0000994205474854
399,166.0,-117.0,186.0,1.0,-9992.0,-4876.0,-2640.0,-11742.0,34.0,55.0,-58.0,9.0,-89.0,-47.0,-20.0,-61.0,2.0053327083587646
400,90.0,-137.0,122.0,1.0,-9972.0,-4921.0,-2634.0,-11742.0,34.0,55.0,-58.0,9.0,-89.0,-47.0,-20.0,-61.0,2.0147905349731445
401,90.0,-137.0,122.0,1.0,-9972.0,-4921.0,-2634.0,-11742.0,-43.0,-13.0,127.0,59.0,-109.0,20.0,45.0,-43.0,2.0179028511047363
402,90.0,-137.0,122.0,1.0,-9972.0,-4921.0,-2634.0,-11742.0,-4.0,-29.0,-73.0,-54.0,36.0,-22.0,-29.0,19.0,2.0208263397216797
403,16.0,-148.0,88.0,1.0,-9962.0,-4951.0,-2618.0,-11742.0,-4.0,-29.0,-73.0,-54.0,36.0,-22.0,-29.0,19.0,2.0378427505493164
404,16.0,-148.0,88.0,1.0,-9962.0,-4951.0,-2618.0,-11742.0,-9.0,9.0,-9.0,-2.0,72.0,55.0,-42.0,-16.0,2.039741039276123
405,16.0,-148.0,88.0,1.0,-9962.0,-4951.0,-2618.0,-11742.0,55.0,12.0,26.0,-29.0,-15.0,-52.0,23.0,127.0,2.0415005683898926
406,168.0,-129.0,24.0,1.0,-9951.0,-4997.0,-2632.0,-11728.0,55.0,12.0,26.0,-29.0,-15.0,-52.0,23.0,127.0,2.0588715076446533
407,168.0,-129.0,24.0,1.0,-9951.0,-4997.0,-2632.0,-11728.0,52.0,-3.0,4.0,-29.0,-28.0,52.0,38.0,38.0,2.0670313835144043
408,168.0,-129.0,24.0,1.0,-9951.0,-4997.0,-2632.0,-11728.0,-45.0,-14.0,35.0,41.0,69.0,9.0,-40.0,-1.0,2.0709750652313232
409,270.0,-111.0,-28.0,1.0,-9938.0,-5059.0,-2674.0,-11703.0,-45.0,-14.0,35.0,41.0,69.0,9.0,-40.0,-1.0,2.105098009109497
410,210.0,-94.0,-29.0,1.0,-9929.0,-5109.0,-2705.0,-11681.0,-45.0,-14.0,35.0,41.0,69.0,9.0,-40.0,-1.0,2.1083014011383057
411,210.0,-94.0,-29.0,1.0,-9929.0,-5109.0,-2705.0,-11681.0,-20.0,-8.0,9.0,45.0,-67.0,-47.0,32.0,44.0,2.111860752105713
412,210.0,-94.0,-29.0,1.0,-9929.0,-5109.0,-2705.0,-11681.0,-2.0,2.0,45.0,-25.0,-62.0,-40.0,1.0,-21.0,2.11555814743042
413,194.0,-113.0,-54.0,1.0,-9923.0,-5154.0,-2712.0,-11665.0,-2.0,2.0,45.0,-25.0,-62.0,-40.0,1.0,-21.0,2.1188478469848633
414,194.0,-113.0,-54.0,1.0,-9923.0,-5154.0,-2712.0,-11665.0,-20.0,28.0,109.0,16.0,14.0,8.0,9.0,37.0,2.122223138809204
415,194.0,-113.0,-54.0,1.0,-9923.0,-5154.0,-2712.0,-11665.0,2.0,-18.0,-17.0,26.0,66.0,62.0,26.0,32.0,2.124512195587158
416,205.0,-172.0,-9.0,1.0,-9910.0,-5211.0,-2700.0,-11654.0,2.0,-18.0,-17.0,26.0,66.0,62.0,26.0,32.0,2.1329689025878906
417,205.0,-172.0,-9.0,1.0,-9910.0,-5211.0,-2700.0,-11654.0,11.0,1.0,-22.0,1.0,89.0,0.0,7.0,-28.0,2.1414618492126465
418,205.0,-172.0,-9.0,1.0,-9910.0,-5211.0,-2700.0,-11654.0,-22.0,-3.0,8.0,29.0,48.0,11.0,19.0,10.0,2.1433298587799072
419,205.0,-172.0,-9.0,1.0,-9910.0,-5211.0,-2700.0,-11654.0,-6.0,-3.0,-15.0,-17.0,27.0,-4.0,3.0,-17.0,2.1494178771972656
420,178.0,-242.0,-39.0,1.0,-9906.0,-5272.0,-2686.0,-11633.0,-6.0,-3.0,-15.0,-17.0,27.0,-4.0,3.0,-17.0,2.151843786239624
421,178.0,-242.0,-39.0,1.0,-9906.0,-5272.0,-2686.0,-11633.0,-14.0,-11.0,-11.0,-16.0,-16.0,-29.0,-1.0,-14.0,2.1543354988098145
422,178.0,-242.0,-39.0,1.0,-9906.0,-5272.0,-2686.0,-11633.0,-4.0,-16.0,-21.0,-12.0,8.0,9.0,-8.0,-1.0,2.1561596393585205
423,178.0,-242.0,-39.0,1.0,-9906.0,-5272.0,-2686.0,-11633.0,-2.0,-7.0,4.0,-1.0,-33.0,-8.0,-1.0,-5.0,2.157932996749878
424,178.0,-242.0,-39.0,1.0,-9906.0,-5272.0,-2686.0,-11633.0,-3.0,-20.0,7.0,-80.0,-16.0,-12.0,-8.0,-2.0,2.163576602935791
425,178.0,-242.0,-39.0,1.0,-9906.0,-5272.0,-2686.0,-11633.0,-6.0,-8.0,-12.0,-14.0,-6.0,-10.0,1.0,-7.0,2.165370225906372
426,102.0,-282.0,-127.0,1.0,-9915.0,-5326.0,-2638.0,-11612.0,-6.0,-8.0,-12.0,-14.0,-6.0,-10.0,1.0,-7.0,2.1721243858337402
427,102.0,-282.0,-127.0,1.0,-9915.0,-5326.0,-2638.0,-11612.0,-6.0,3.0,7.0,-10.0,1.0,-2.0,1.0,-10.0,2.1741530895233154
428,102.0,-282.0,-127.0,1.0,-9915.0,-5326.0,-2638.0,-11612.0,-2.0,6.0,-2.0,2.0,-12.0,7.0,-7.0,-1.0,2.175938606262207
429,102.0,-282.0,-127.0,1.0,-9915.0,-5326.0,-2638.0,-11612.0,-1.0,0.0,-29.0,-4.0,-1.0,-11.0,-3.0,-6.0,2.177722215652466
430,102.0,-282.0,-127.0,1.0,-9915.0,-5326.0,-2638.0,-11612.0,-2.0,-1.0,-14.0,-47.0,-26.0,-1.0,-1.0,1.0,2.1795778274536133
431,102.0,-282.0,-127.0,1.0,-9915.0,-5326.0,-2638.0,-11612.0,1.0,-3.0,-4.0,34.0,43.0,-3.0,0.0,1.0,2.1879496574401855
432,223.0,-323.0,-205.0,1.0,-9924.0,-5400.0,-2598.0,-11579.0,1.0,-3.0,-4.0,34.0,43.0,-3.0,0.0,1.0,2.1898043155670166
433,223.0,-323.0,-205.0,1.0,-9924.0,-5400.0,-2598.0,-11579.0,-3.0,-13.0,-37.0,-17.0,40.0,13.0,5.0,-3.0,2.191662073135376
434,223.0,-323.0,-205.0,1.0,-9924.0,-5400.0,-2598.0,-11579.0,1.0,6.0,31.0,25.0,4.0,-2.0,-4.0,2.0,2.1934220790863037
435,447.0,-364.0,-278.0,1.0,-9929.0,-5516.0,-2608.0,-11518.0,1.0,6.0,31.0,25.0,4.0,-2.0,-4.0,2.0,2.2006373405456543
436,447.0,-364.0,-278.0,1.0,-9929.0,-5516.0,-2608.0,-11518.0,-3.0,-3.0,8.0,-39.0,29.0,-16.0,-3.0,-1.0,2.207998514175415
437,447.0,-364.0,-278.0,1.0,-9929.0,-5516.0,-2608.0,-11518.0,1.0,5.0,0.0,4.0,-76.0,1.0,2.0,3.0,2.2176077365875244
438,643.0,-360.0,-191.0,1.0,-9908.0,-5664.0,-2653.0,-11454.0,1.0,5.0,0.0,4.0,-76.0,1.0,2.0,3.0,2.224195957183838
439,643.0,-360.0,-191.0,1.0,-9908.0,-5664.0,-2653.0,-11454.0,-3.0,-4.0,11.0,-6.0,14.0,1.0,2.0,2.0,2.240654945373535
440,643.0,-360.0,-191.0,1.0,-9908.0,-5664.0,-2653.0,-11454.0,-7.0,-20.0,-33.0,-16.0,13.0,-11.0,-6.0,-5.0,2.244852304458618
441,889.0,-428.0,-212.0,1.0,-9877.0,-5843.0,-2735.0,-11370.0,-7.0,-20.0,-33.0,-16.0,13.0,-11.0,-6.0,-5.0,2.2492141723632812
442,889.0,-428.0,-212.0,1.0,-9877.0,-5843.0,-2735.0,-11370.0,4.0,-4.0,-11.0,4.0,-16.0,-23.0,0.0,-5.0,2.2522308826446533
443,889.0,-428.0,-212.0,1.0,-9877.0,-5843.0,-2735.0,-11370.0,-7.0,-48.0,-48.0,-8.0,17.0,1.0,-3.0,-5.0,2.2543749809265137
444,1100.0,-561.0,-196.0,1.0,-9833.0,-6062.0,-2828.0,-11271.0,-7.0,-48.0,-48.0,-8.0,17.0,1.0,-3.0,-5.0,2.260577917098999
445,1100.0,-561.0,-196.0,1.0,-9833.0,-6062.0,-2828.0,-11271.0,1.0,-26.0,34.0,26.0,-16.0,-8.0,-2.0,2.0,2.2678802013397217
446,1100.0,-561.0,-196.0,1.0,-9833.0,-6062.0,-2828.0,-11271.0,13.0,58.0,56.0,4.0,-26.0,-4.0,0.0,4.0,2.275815010070801
447,1097.0,-646.0,-257.0,1.0,-9794.0,-6282.0,-2894.0,-11167.0,13.0,58.0,56.0,4.0,-26.0,-4.0,0.0,4.0,2.2828431129455566
448,1097.0,-646.0,-257.0,1.0,-9794.0,-6282.0,-2894.0,-11167.0,-4.0,14.0,-1.0,12.0,-8.0,7.0,1.0,-6.0,2.2921156883239746
449,1097.0,-646.0,-257.0,1.0,-9794.0,-6282.0,-2894.0,-11167.0,-3.0,-14.0,-3.0,-1.0,33.0,3.0,-2.0,9.0,2.2952425479888916
450,1314.0,-729.0,-383.0,1.0,-9753.0,-6527.0,-2967.0,-11043.0,-3.0,-14.0,-3.0,-1.0,33.0,3.0,-2.0,9.0,2.2986764907836914
451,1314.0,-729.0,-383.0,1.0,-9753.0,-6527.0,-2967.0,-11043.0,-6.0,-43.0,-32.0,-5.0,-8.0,-5.0,-3.0,4.0,2.3075222969055176
452,1314.0,-729.0,-383.0,1.0,-9753.0,-6527.0,-2967.0,-11043.0,3.0,8.0,22.0,-17.0,-12.0,-17.0,0.0,-6.0,2.3127317428588867
453,1734.0,-834.0,-342.0,1.0,-9690.0,-6810.0,-3111.0,-10886.0,3.0,8.0,22.0,-17.0,-12.0,-17.0,0.0,-6.0,2.321460485458374
454,1734.0,-834.0,-342.0,1.0,-9690.0,-6810.0,-3111.0,-10886.0,-6.0,-13.0,-82.0,-25.0,6.0,-3.0,-2.0,-4.0,2.328813076019287
455,1734.0,-834.0,-342.0,1.0,-9690.0,-6810.0,-3111.0,-10886.0,2.0,32.0,-15.0,-30.0,10.0,-46.0,-7.0,-3.0,2.3356680870056152
456,1351.0,-998.0,-57.0,1.0,-9612.0,-7109.0,-3187.0,-10741.0,2.0,32.0,-15.0,-30.0,10.0,-46.0,-7.0,-3.0,2.3437070846557617
457,1351.0,-998.0,-57.0,1.0,-9612.0,-7109.0,-3187.0,-10741.0,2.0,6.0,-1.0,21.0,19.0,-27.0,-1.0,34.0,2.3601670265197754
458,1351.0,-998.0,-57.0,1.0,-9612.0,-7109.0,-3187.0,-10741.0,-5.0,-21.0,-9.0,-6.0,22.0,15.0,-4.0,0.0,2.3631842136383057
459,874.0,-1048.0,49.0,1.0,-9556.0,-7358.0,-3174.0,-10626.0,-5.0,-21.0,-9.0,-6.0,22.0,15.0,-4.0,0.0,2.366370677947998
460,874.0,-1048.0,49.0,1.0,-9556.0,-7358.0,-3174.0,-10626.0,0.0,12.0,49.0,71.0,13.0,15.0,0.0,-11.0,2.370590925216675
461,874.0,-1048.0,49.0,1.0,-9556.0,-7358.0,-3174.0,-10626.0,-6.0,-22.0,-109.0,-15.0,24.0,-33.0,-2.0,-2.0,2.373995304107666
462,818.0,-1043.0,27.0,1.0,-9511.0,-7577.0,-3137.0,-10524.0,-6.0,-22.0,-109.0,-15.0,24.0,-33.0,-2.0,-2.0,2.3807241916656494
463,818.0,-1043.0,27.0,1.0,-9511.0,-7577.0,-3137.0,-10524.0,-1.0,28.0,47.0,26.0,0.0,17.0,3.0,-1.0,2.3882217407226562
464,818.0,-1043.0,27.0,1.0,-9511.0,-7577.0,-3137.0,-10524.0,-3.0,-10.0,-20.0,-17.0,1.0,17.0,0.0,-10.0,2.3961400985717773
465,1079.0,-1147.0,122.0,1.0,-9438.0,-7841.0,-3139.0,-10395.0,-3.0,-10.0,-20.0,-17.0,1.0,17.0,0.0,-10.0,2.404897689819336
466,1079.0,-1147.0,122.0,1.0,-9438.0,-7841.0,-3139.0,-10395.0,2.0,17.0,-3.0,28.0,26.0,-12.0,-1.0,-3.0,2.412069082260132
467,1079.0,-1147.0,122.0,1.0,-9438.0,-7841.0,-3139.0,-10395.0,-1.0,-10.0,-9.0,-11.0,3.0,43.0,10.0,40.0,2.4187865257263184
468,912.0,-1141.0,264.0,1.0,-9368.0,-8087.0,-3131.0,-10272.0,-1.0,-10.0,-9.0,-11.0,3.0,43.0,10.0,40.0,2.4205968379974365
469,912.0,-1141.0,264.0,1.0,-9368.0,-8087.0,-3131.0,-10272.0,0.0,-19.0,-38.0,-94.0,-32.0,28.0,6.0,34.0,2.42557954788208
470,912.0,-1141.0,264.0,1.0,-9368.0,-8087.0,-3131.0,-10272.0,-1.0,-7.0,7.0,59.0,10.0,-5.0,-5.0,-10.0,2.4334893226623535
471,473.0,-1183.0,489.0,1.0,-9313.0,-8292.0,-3043.0,-10185.0,-1.0,-7.0,7.0,59.0,10.0,-5.0,-5.0,-10.0,2.4405105113983154
472,473.0,-1183.0,489.0,1.0,-9313.0,-8292.0,-3043.0,-10185.0,3.0,-3.0,-25.0,-1.0,-45.0,-1.0,0.0,-19.0,2.4489500522613525
473,473.0,-1183.0,489.0,1.0,-9313.0,-8292.0,-3043.0,-10185.0,3.0,4.0,-15.0,-37.0,-36.0,-14.0,-2.0,-10.0,2.456716775894165
474,164.0,-1182.0,527.0,1.0,-9281.0,-8449.0,-2889.0,-10129.0,3.0,4.0,-15.0,-37.0,-36.0,-14.0,-2.0,-10.0,2.465034008026123
475,164.0,-1182.0,527.0,1.0,-9281.0,-8449.0,-2889.0,-10129.0,-1.0,3.0,13.0,25.0,5.0,-3.0,0.0,-16.0,2.4810402393341064
476,164.0,-1182.0,527.0,1.0,-9281.0,-8449.0,-2889.0,-10129.0,0.0,-2.0,32.0,44.0,7.0,9.0,3.0,4.0,2.4851865768432617
477,498.0,-1110.0,599.0,1.0,-9201.0,-8625.0,-2748.0,-10093.0,0.0,-2.0,32.0,44.0,7.0,9.0,3.0,4.0,2.4890923500061035
478,498.0,-1110.0,599.0,1.0,-9201.0,-8625.0,-2748.0,-10093.0,1.0,10.0,30.0,-9.0,-13.0,-6.0,-3.0,-29.0,2.4919745922088623
479,498.0,-1110.0,599.0,1.0,-9201.0,-8625.0,-2748.0,-10093.0,1.0,14.0,46.0,-62.0,-25.0,25.0,14.0,-7.0,2.4943838119506836
480,779.0,-967.0,601.0,1.0,-9089.0,-8818.0,-2664.0,-10050.0,1.0,14.0,46.0,-62.0,-25.0,25.0,14.0,-7.0,2.5002763271331787
481,779.0,-967.0,601.0,1.0,-9089.0,-8818.0,-2664.0,-10050.0,2.0,15.0,26.0,-5.0,32.0,22.0,0.0,7.0,2.508319854736328
482,779.0,-967.0,601.0,1.0,-9089.0,-8818.0,-2664.0,-10050.0,0.0,45.0,15.0,8.0,-38.0,-3.0,-4.0,-10.0,2.516204833984375
483,711.0,-976.0,485.0,1.0,-9008.0,-9005.0,-2627.0,-9967.0,0.0,45.0,15.0,8.0,-38.0,-3.0,-4.0,-10.0,2.524142026901245
484,711.0,-976.0,485.0,1.0,-9008.0,-9005.0,-2627.0,-9967.0,0.0,22.0,-47.0,33.0,6.0,-23.0,-6.0,-26.0,2.5315229892730713
485,711.0,-976.0,485.0,1.0,-9008.0,-9005.0,-2627.0,-9967.0,-8.0,-7.0,9.0,-13.0,10.0,17.0,-4.0,-1.0,2.5397207736968994
486,181.0,-870.0,490.0,1.0,-8976.0,-9119.0,-2534.0,-9916.0,-8.0,-7.0,9.0,-13.0,10.0,17.0,-4.0,-1.0,2.542654275894165
487,181.0,-870.0,490.0,1.0,-8976.0,-9119.0,-2534.0,-9916.0,-2.0,-17.0,-35.0,-16.0,14.0,5.0,-3.0,14.0,2.5446879863739014
488,181.0,-870.0,490.0,1.0,-8976.0,-9119.0,-2534.0,-9916.0,-2.0,-11.0,-8.0,62.0,4.0,-7.0,-1.0,0.0,2.5530028343200684
489,86.0,-710.0,470.0,1.0,-8953.0,-9178.0,-2413.0,-9912.0,-2.0,-11.0,-8.0,62.0,4.0,-7.0,-1.0,0.0,2.5602777004241943
490,86.0,-710.0,470.0,1.0,-8953.0,-9178.0,-2413.0,-9912.0,-7.0,-10.0,-54.0,-38.0,-14.0,10.0,2.0,-26.0,2.5701353549957275
491,86.0,-710.0,470.0,1.0,-8953.0,-9178.0,-2413.0,-9912.0,3.0,6.0,29.0,-13.0,-10.0,-30.0,-6.0,-33.0,2.5763509273529053
492,1515.0,-577.0,596.0,1.0,-8751.0,-9386.0,-2436.0,-9892.0,3.0,6.0,29.0,-13.0,-10.0,-30.0,-6.0,-33.0,2.58331561088562
493,1515.0,-577.0,596.0,1.0,-8751.0,-9386.0,-2436.0,-9892.0,5.0,-5.0,-12.0,20.0,-29.0,4.0,9.0,15.0,2.5911595821380615
494,1515.0,-577.0,596.0,1.0,-8751.0,-9386.0,-2436.0,-9892.0,3.0,-9.0,23.0,15.0,52.0,44.0,-13.0,-54.0,2.5995442867279053
495,1499.0,-530.0,220.0,1.0,-8594.0,-9597.0,-2552.0,-9797.0,3.0,-9.0,23.0,15.0,52.0,44.0,-13.0,-54.0,2.6032674312591553
496,1499.0,-530.0,220.0,1.0,-8594.0,-9597.0,-2552.0,-9797.0,-7.0,7.0,39.0,4.0,-42.0,-14.0,5.0,-4.0,2.6052193641662598
497,1499.0,-530.0,220.0,1.0,-8594.0,-9597.0,-2552.0,-9797.0,-11.0,-23.0,-18.0,31.0,-24.0,-11.0,1.0,3.0,2.6130971908569336
498,589.0,-456.0,92.0,1.0,-8549.0,-9717.0,-2615.0,-9702.0,-11.0,-23.0,-18.0,31.0,-24.0,-11.0,1.0,3.0,2.6210556030273438
499,589.0,-456.0,92.0,1.0,-8549.0,-9717.0,-2615.0,-9702.0,-2.0,-10.0,-33.0,-39.0,-2.0,10.0,-6.0,-23.0,2.6283109188079834
