,Gyro 0,Gyro 1,Gyro 2,Label,Orientation 0,Orientation 1,Orientation 2,Orientation 3,Sensor 0,Sensor 1,Sensor 2,Sensor 3,Sensor 4,Sensor 5,Sensor 6,Sensor 7,Timestamp
0,34.0,43.0,-23.0,1.0,-8362.0,-10296.0,-1411.0,-9516.0,-1.0,-7.0,2.0,-4.0,-18.0,-7.0,0.0,-8.0,2.1457672119140625e-06
1,34.0,43.0,-23.0,1.0,-8362.0,-10296.0,-1411.0,-9516.0,2.0,3.0,14.0,-14.0,7.0,2.0,1.0,1.0,0.0023789405822753906
2,34.0,43.0,-23.0,1.0,-8362.0,-10296.0,-1411.0,-9516.0,-2.0,-12.0,-28.0,7.0,18.0,5.0,-2.0,0.0,0.0042607784271240234
3,34.0,43.0,-23.0,1.0,-8362.0,-10296.0,-1411.0,-9516.0,0.0,8.0,27.0,5.0,-2.0,-2.0,0.0,1.0,0.007169008255004883
4,40.0,37.0,-35.0,1.0,-8359.0,-10298.0,-1423.0,-9514.0,0.0,8.0,27.0,5.0,-2.0,-2.0,0.0,1.0,0.011390924453735352
5,40.0,37.0,-35.0,1.0,-8359.0,-10298.0,-1423.0,-9514.0,-2.0,-7.0,-22.0,-3.0,1.0,1.0,1.0,-1.0,0.013503313064575195
6,40.0,37.0,-35.0,1.0,-8359.0,-10298.0,-1423.0,-9514.0,0.0,-8.0,-50.0,-38.0,-12.0,11.0,3.0,16.0,0.015366792678833008
7,5.0,36.0,-37.0,1.0,-8360.0,-10298.0,-1433.0,-9512.0,0.0,-8.0,-50.0,-38.0,-12.0,11.0,3.0,16.0,0.017214536666870117
8,5.0,36.0,-37.0,1.0,-8360.0,-10298.0,-1433.0,-9512.0,-4.0,0.0,0.0,7.0,12.0,-3.0,-5.0,-10.0,0.01908397674560547
9,5.0,36.0,-37.0,1.0,-8360.0,-10298.0,-1433.0,-9512.0,1.0,0.0,72.0,44.0,-3.0,-6.0,-3.0,-15.0,0.022164344787597656
10,5.0,26.0,-42.0,1.0,-8363.0,-10296.0,-1441.0,-9510.0,1.0,0.0,72.0,44.0,-3.0,-6.0,-3.0,-15.0,0.025188922882080078
11,5.0,26.0,-42.0,1.0,-8363.0,-10296.0,-1441.0,-9510.0,2.0,-7.0,-14.0,-2.0,-10.0,9.0,1.0,16.0,0.02799820899963379
12,5.0,26.0,-42.0,1.0,-8363.0,-10296.0,-1441.0,-9510.0,1.0,-6.0,23.0,-2.0,-15.0,-6.0,-3.0,6.0,0.029926300048828125
13,-18.0,19.0,-45.0,1.0,-8367.0,-10295.0,-1446.0,-9507.0,1.0,-6.0,23.0,-2.0,-15.0,-6.0,-3.0,6.0,0.03257942199707031
14,-18.0,19.0,-45.0,1.0,-8367.0,-10295.0,-1446.0,-9507.0,1.0,-4.0,-6.0,3.0,-9.0,-5.0,-2.0,2.0,0.03464818000793457
15,-18.0,19.0,-45.0,1.0,-8367.0,-10295.0,-1446.0,-9507.0,-3.0,3.0,17.0,-27.0,6.0,-3.0,-5.0,-17.0,0.03646063804626465
16,-24.0,20.0,-54.0,1.0,-8372.0,-10294.0,-1450.0,-9504.0,-3.0,3.0,17.0,-27.0,6.0,-3.0,-5.0,-17.0,0.038285255432128906
17,-24.0,20.0,-54.0,1.0,-8372.0,-10294.0,-1450.0,-9504.0,-1.0,3.0,-13.0,-8.0,10.0,-8.0,1.0,12.0,0.04022383689880371
18,-24.0,20.0,-54.0,1.0,-8372.0,-10294.0,-1450.0,-9504.0,-2.0,0.0,-6.0,17.0,-4.0,-8.0,-1.0,0.0,0.04203629493713379
19,18.0,2.0,-54.0,1.0,-8372.0,-10298.0,-1456.0,-9498.0,-2.0,0.0,-6.0,17.0,-4.0,-8.0,-1.0,0.0,0.04381418228149414
20,18.0,2.0,-54.0,1.0,-8372.0,-10298.0,-1456.0,-9498.0,4.0,24.0,43.0,19.0,12.0,8.0,-3.0,-4.0,0.04587841033935547
21,9.0,9.0,-51.0,1.0,-8372.0,-10301.0,-1461.0,-9494.0,4.0,24.0,43.0,19.0,12.0,8.0,-3.0,-4.0,0.04764747619628906
22,9.0,9.0,-51.0,1.0,-8372.0,-10301.0,-1461.0,-9494.0,0.0,6.0,-52.0,2.0,-5.0,-3.0,-2.0,-7.0,0.049523115158081055
23,9.0,9.0,-51.0,1.0,-8372.0,-10301.0,-1461.0,-9494.0,-3.0,-13.0,-13.0,1.0,-25.0,-15.0,-2.0,9.0,0.051286935806274414
24,-5.0,10.0,-43.0,1.0,-8374.0,-10301.0,-1463.0,-9492.0,-3.0,-13.0,-13.0,1.0,-25.0,-15.0,-2.0,9.0,0.05445146560668945
25,-5.0,10.0,-43.0,1.0,-8374.0,-10301.0,-1463.0,-9492.0,-7.0,-26.0,-103.0,-41.0,11.0,4.0,-3.0,-10.0,0.057401180267333984
26,-5.0,10.0,-43.0,1.0,-8374.0,-10301.0,-1463.0,-9492.0,-5.0,-1.0,-45.0,-8.0,0.0,-5.0,1.0,19.0,0.0593867301940918
27,-17.0,11.0,-35.0,1.0,-8377.0,-10301.0,-1466.0,-9489.0,-5.0,-1.0,-45.0,-8.0,0.0,-5.0,1.0,19.0,0.06128358840942383
28,-17.0,11.0,-35.0,1.0,-8377.0,-10301.0,-1466.0,-9489.0,-2.0,-9.0,-5.0,0.0,7.0,8.0,-4.0,2.0,0.06316113471984863
29,-17.0,11.0,-35.0,1.0,-8377.0,-10301.0,-1466.0,-9489.0,4.0,11.0,45.0,-24.0,1.0,4.0,1.0,-9.0,0.06505012512207031
30,-14.0,23.0,-22.0,1.0,-8378.0,-10299.0,-1467.0,-9490.0,4.0,11.0,45.0,-24.0,1.0,4.0,1.0,-9.0,0.06760954856872559
31,-14.0,23.0,-22.0,1.0,-8378.0,-10299.0,-1467.0,-9490.0,1.0,3.0,-14.0,20.0,10.0,-2.0,-2.0,-30.0,0.06955099105834961
32,-14.0,23.0,-22.0,1.0,-8378.0,-10299.0,-1467.0,-9490.0,-2.0,1.0,-16.0,-10.0,-17.0,6.0,5.0,-21.0,0.07132768630981445
33,-2.0,20.0,-23.0,1.0,-8378.0,-10298.0,-1470.0,-9490.0,-2.0,1.0,-16.0,-10.0,-17.0,6.0,5.0,-21.0,0.07310891151428223
34,-2.0,20.0,-23.0,1.0,-8378.0,-10298.0,-1470.0,-9490.0,1.0,4.0,37.0,19.0,-8.0,-1.0,2.0,0.0,0.0749368667602539
35,-2.0,20.0,-23.0,1.0,-8378.0,-10298.0,-1470.0,-9490.0,2.0,0.0,1.0,-10.0,-3.0,11.0,-2.0,1.0,0.07674217224121094
36,51.0,20.0,-8.0,1.0,-8373.0,-10301.0,-1479.0,-9490.0,2.0,0.0,1.0,-10.0,-3.0,11.0,-2.0,1.0,0.07865500450134277
37,51.0,20.0,-8.0,1.0,-8373.0,-10301.0,-1479.0,-9490.0,1.0,14.0,83.0,9.0,-5.0,-3.0,4.0,19.0,0.08051300048828125
38,51.0,20.0,-8.0,1.0,-8373.0,-10301.0,-1479.0,-9490.0,-4.0,-5.0,-7.0,16.0,11.0,-6.0,0.0,-5.0,0.08250260353088379
39,33.0,25.0,-3.0,1.0,-8369.0,-10302.0,-1485.0,-9492.0,-4.0,-5.0,-7.0,16.0,11.0,-6.0,0.0,-5.0,0.08553004264831543
40,33.0,25.0,-3.0,1.0,-8369.0,-10302.0,-1485.0,-9492.0,0.0,11.0,14.0,15.0,21.0,1.0,1.0,11.0,0.08839893341064453
41,33.0,25.0,-3.0,1.0,-8369.0,-10302.0,-1485.0,-9492.0,-5.0,-16.0,3.0,-3.0,-3.0,-9.0,-6.0,-42.0,0.09029412269592285
42,20.0,34.0,12.0,1.0,-8365.0,-10300.0,-1490.0,-9496.0,-5.0,-16.0,3.0,-3.0,-3.0,-9.0,-6.0,-42.0,0.09210371971130371
43,20.0,34.0,12.0,1.0,-8365.0,-10300.0,-1490.0,-9496.0,0.0,-8.0,-39.0,-16.0,1.0,3.0,0.0,5.0,0.09399938583374023
44,20.0,34.0,12.0,1.0,-8365.0,-10300.0,-1490.0,-9496.0,1.0,-9.0,-23.0,-6.0,2.0,2.0,-1.0,2.0,0.09578609466552734
45,2.0,39.0,-2.0,1.0,-8365.0,-10296.0,-1494.0,-9501.0,1.0,-9.0,-23.0,-6.0,2.0,2.0,-1.0,2.0,0.09756994247436523
46,2.0,39.0,-2.0,1.0,-8365.0,-10296.0,-1494.0,-9501.0,-1.0,-3.0,-12.0,4.0,-13.0,-7.0,-1.0,3.0,0.1005253791809082
47,2.0,39.0,-2.0,1.0,-8365.0,-10296.0,-1494.0,-9501.0,6.0,9.0,72.0,24.0,-12.0,-3.0,-1.0,8.0,0.10244035720825195
48,39.0,40.0,2.0,1.0,-8359.0,-10296.0,-1502.0,-9504.0,6.0,9.0,72.0,24.0,-12.0,-3.0,-1.0,8.0,0.10430788993835449
49,39.0,40.0,2.0,1.0,-8359.0,-10296.0,-1502.0,-9504.0,-1.0,-2.0,-20.0,-31.0,-6.0,-2.0,-2.0,0.0,0.10617303848266602
50,39.0,40.0,2.0,1.0,-8359.0,-10296.0,-1502.0,-9504.0,4.0,1.0,7.0,-3.0,19.0,-5.0,0.0,12.0,0.10796070098876953
51,48.0,51.0,-3.0,1.0,-8353.0,-10296.0,-1513.0,-9508.0,4.0,1.0,7.0,-3.0,19.0,-5.0,0.0,12.0,0.1098473072052002
52,48.0,51.0,-3.0,1.0,-8353.0,-10296.0,-1513.0,-9508.0,-1.0,3.0,-7.0,-11.0,-30.0,4.0,-1.0,-1.0,0.1120595932006836
53,48.0,51.0,-3.0,1.0,-8353.0,-10296.0,-1513.0,-9508.0,-4.0,-1.0,-55.0,-16.0,4.0,3.0,-2.0,0.0,0.11408305168151855
54,49.0,34.0,-5.0,1.0,-8348.0,-10298.0,-1523.0,-9509.0,-4.0,-1.0,-55.0,-16.0,4.0,3.0,-2.0,0.0,0.11698007583618164
55,49.0,34.0,-5.0,1.0,-8348.0,-10298.0,-1523.0,-9509.0,6.0,16.0,42.0,29.0,7.0,-2.0,0.0,-13.0,0.1191556453704834
56,49.0,34.0,-5.0,1.0,-8348.0,-10298.0,-1523.0,-9509.0,3.0,11.0,-4.0,-22.0,12.0,0.0,4.0,4.0,0.1210167407989502
57,83.0,7.0,-3.0,1.0,-8340.0,-10303.0,-1534.0,-9508.0,3.0,11.0,-4.0,-22.0,12.0,0.0,4.0,4.0,0.12281298637390137
58,83.0,7.0,-3.0,1.0,-8340.0,-10303.0,-1534.0,-9508.0,-2.0,-12.0,-10.0,-9.0,-12.0,-1.0,1.0,4.0,0.12465095520019531
59,83.0,7.0,-3.0,1.0,-8340.0,-10303.0,-1534.0,-9508.0,-2.0,-1.0,8.0,9.0,25.0,-2.0,0.0,-4.0,0.1264171600341797
60,103.0,9.0,6.0,1.0,-8329.0,-10311.0,-1548.0,-9507.0,-2.0,-1.0,8.0,9.0,25.0,-2.0,0.0,-4.0,0.1282031536102295
61,103.0,9.0,6.0,1.0,-8329.0,-10311.0,-1548.0,-9507.0,-1.0,-12.0,25.0,21.0,9.0,-9.0,-4.0,-2.0,0.13004064559936523
62,103.0,9.0,6.0,1.0,-8329.0,-10311.0,-1548.0,-9507.0,-7.0,-8.0,-21.0,-17.0,-2.0,0.0,-4.0,0.0,0.13282465934753418
63,79.0,1.0,15.0,1.0,-8320.0,-10317.0,-1556.0,-9506.0,-7.0,-8.0,-21.0,-17.0,-2.0,0.0,-4.0,0.0,0.1347522735595703
64,79.0,1.0,15.0,1.0,-8320.0,-10317.0,-1556.0,-9506.0,-4.0,-5.0,-15.0,2.0,13.0,6.0,0.0,-5.0,0.1366567611694336
65,79.0,1.0,15.0,1.0,-8320.0,-10317.0,-1556.0,-9506.0,-1.0,-6.0,-10.0,-25.0,-12.0,-3.0,-3.0,4.0,0.13843584060668945
66,16.0,4.0,24.0,1.0,-8317.0,-10319.0,-1557.0,-9507.0,-1.0,-6.0,-10.0,-25.0,-12.0,-3.0,-3.0,4.0,0.1401979923248291
67,16.0,4.0,24.0,1.0,-8317.0,-10319.0,-1557.0,-9507.0,-1.0,4.0,-3.0,-34.0,0.0,-3.0,-5.0,1.0,0.14210748672485352
68,16.0,4.0,24.0,1.0,-8317.0,-10319.0,-1557.0,-9507.0,1.0,1.0,18.0,23.0,-13.0,2.0,-2.0,-9.0,0.14389681816101074
69,-7.0,12.0,6.0,1.0,-8317.0,-10319.0,-1557.0,-9507.0,1.0,1.0,18.0,23.0,-13.0,2.0,-2.0,-9.0,0.1466367244720459
70,-7.0,12.0,6.0,1.0,-8317.0,-10319.0,-1557.0,-9507.0,-3.0,-1.0,24.0,24.0,-2.0,-7.0,0.0,12.0,0.15047931671142578
71,-7.0,12.0,6.0,1.0,-8317.0,-10319.0,-1557.0,-9507.0,0.0,6.0,9.0,22.0,-8.0,3.0,-2.0,3.0,0.15243124961853027
72,-6.0,13.0,5.0,1.0,-8317.0,-10319.0,-1557.0,-9508.0,0.0,6.0,9.0,22.0,-8.0,3.0,-2.0,3.0,0.1542370319366455
73,-6.0,13.0,5.0,1.0,-8317.0,-10319.0,-1557.0,-9508.0,-2.0,1.0,-51.0,-20.0,-4.0,-2.0,0.0,0.0,0.15608549118041992
74,-6.0,13.0,5.0,1.0,-8317.0,-10319.0,-1557.0,-9508.0,1.0,5.0,42.0,3.0,-12.0,3.0,4.0,-8.0,0.1578812599182129
75,-21.0,25.0,2.0,1.0,-8318.0,-10314.0,-1557.0,-9512.0,1.0,5.0,42.0,3.0,-12.0,3.0,4.0,-8.0,0.15964174270629883
76,-21.0,25.0,2.0,1.0,-8318.0,-10314.0,-1557.0,-9512.0,-4.0,-18.0,-47.0,-14.0,2.0,0.0,-8.0,-36.0,0.16175603866577148
77,-21.0,25.0,2.0,1.0,-8318.0,-10314.0,-1557.0,-9512.0,2.0,9.0,18.0,11.0,11.0,2.0,8.0,13.0,0.16355299949645996
78,-23.0,22.0,3.0,1.0,-8322.0,-10309.0,-1558.0,-9514.0,2.0,9.0,18.0,11.0,11.0,2.0,8.0,13.0,0.16535735130310059
79,-23.0,22.0,3.0,1.0,-8322.0,-10309.0,-1558.0,-9514.0,0.0,-2.0,-7.0,-1.0,4.0,5.0,1.0,7.0,0.1671905517578125
80,-23.0,22.0,3.0,1.0,-8322.0,-10309.0,-1558.0,-9514.0,-5.0,0.0,50.0,8.0,10.0,-9.0,-9.0,-7.0,0.16894221305847168
81,-46.0,18.0,2.0,1.0,-8327.0,-10303.0,-1556.0,-9516.0,-5.0,0.0,50.0,8.0,10.0,-9.0,-9.0,-7.0,0.1707170009613037
82,-46.0,18.0,2.0,1.0,-8327.0,-10303.0,-1556.0,-9516.0,1.0,4.0,12.0,-2.0,-10.0,4.0,7.0,16.0,0.17256784439086914
83,-46.0,18.0,2.0,1.0,-8327.0,-10303.0,-1556.0,-9516.0,-4.0,-19.0,-26.0,-20.0,-8.0,-2.0,0.0,5.0,0.17438673973083496
84,-33.0,5.0,11.0,1.0,-8330.0,-10300.0,-1554.0,-9517.0,-4.0,-19.0,-26.0,-20.0,-8.0,-2.0,0.0,5.0,0.17742252349853516
85,-33.0,5.0,11.0,1.0,-8330.0,-10300.0,-1554.0,-9517.0,7.0,10.0,34.0,7.0,14.0,2.0,0.0,-22.0,0.18004059791564941
86,-33.0,5.0,11.0,1.0,-8330.0,-10300.0,-1554.0,-9517.0,5.0,2.0,1.0,-8.0,-3.0,1.0,-2.0,-12.0,0.1823410987854004
87,-56.0,-18.0,1.0,1.0,-8338.0,-10295.0,-1548.0,-9515.0,5.0,2.0,1.0,-8.0,-3.0,1.0,-2.0,-12.0,0.1847093105316162
88,-56.0,-18.0,1.0,1.0,-8338.0,-10295.0,-1548.0,-9515.0,0.0,-3.0,-10.0,12.0,20.0,10.0,5.0,-13.0,0.18663573265075684
89,-56.0,-18.0,1.0,1.0,-8338.0,-10295.0,-1548.0,-9515.0,4.0,-3.0,-50.0,-6.0,-19.0,-11.0,-2.0,-20.0,0.18845105171203613
90,-108.0,-10.0,-3.0,1.0,-8351.0,-10286.0,-1537.0,-9516.0,4.0,-3.0,-50.0,-6.0,-19.0,-11.0,-2.0,-20.0,0.19026517868041992
91,-108.0,-10.0,-3.0,1.0,-8351.0,-10286.0,-1537.0,-9516.0,-9.0,-18.0,-12.0,-2.0,-18.0,4.0,1.0,11.0,0.19213342666625977
92,-108.0,-10.0,-3.0,1.0,-8351.0,-10286.0,-1537.0,-9516.0,-9.0,-9.0,-70.0,-22.0,-1.0,2.0,-4.0,-8.0,0.1939859390258789
93,-101.0,-32.0,-2.0,1.0,-8363.0,-10280.0,-1523.0,-9515.0,-9.0,-9.0,-70.0,-22.0,-1.0,2.0,-4.0,-8.0,0.19598817825317383
94,-101.0,-32.0,-2.0,1.0,-8363.0,-10280.0,-1523.0,-9515.0,2.0,0.0,-6.0,-3.0,8.0,-10.0,6.0,47.0,0.1978466510772705
95,-101.0,-32.0,-2.0,1.0,-8363.0,-10280.0,-1523.0,-9515.0,-4.0,5.0,3.0,-11.0,-8.0,-7.0,-6.0,-7.0,0.19959378242492676
96,-99.0,-31.0,-7.0,1.0,-8373.0,-10274.0,-1506.0,-9515.0,-4.0,5.0,3.0,-11.0,-8.0,-7.0,-6.0,-7.0,0.20134401321411133
97,-99.0,-31.0,-7.0,1.0,-8373.0,-10274.0,-1506.0,-9515.0,-3.0,-5.0,27.0,4.0,-4.0,11.0,-4.0,-7.0,0.2031722068786621
98,-99.0,-31.0,-7.0,1.0,-8373.0,-10274.0,-1506.0,-9515.0,5.0,13.0,-15.0,4.0,-27.0,-16.0,5.0,17.0,0.2049999237060547
99,-83.0,-26.0,-29.0,1.0,-8385.0,-10268.0,-1496.0,-9512.0,5.0,13.0,-15.0,4.0,-27.0,-16.0,5.0,17.0,0.20784974098205566
100,-83.0,-26.0,-29.0,1.0,-8385.0,-10268.0,-1496.0,-9512.0,-2.0,10.0,10.0,4.0,-7.0,-12.0,-10.0,-16.0,0.21045517921447754
101,-83.0,-26.0,-29.0,1.0,-8385.0,-10268.0,-1496.0,-9512.0,-3.0,1.0,55.0,29.0,33.0,0.0,-10.0,-12.0,0.212310791015625
102,-54.0,-19.0,-14.0,1.0,-8390.0,-10267.0,-1489.0,-9510.0,-3.0,1.0,55.0,29.0,33.0,0.0,-10.0,-12.0,0.21413421630859375
103,-54.0,-19.0,-14.0,1.0,-8390.0,-10267.0,-1489.0,-9510.0,0.0,6.0,-41.0,-21.0,-12.0,1.0,-4.0,-12.0,0.21688389778137207
104,-54.0,-19.0,-14.0,1.0,-8390.0,-10267.0,-1489.0,-9510.0,-2.0,0.0,12.0,13.0,42.0,-4.0,6.0,-1.0,0.21884703636169434
105,-60.0,-37.0,-19.0,1.0,-8399.0,-10265.0,-1480.0,-9506.0,-2.0,0.0,12.0,13.0,42.0,-4.0,6.0,-1.0,0.22063350677490234
106,-60.0,-37.0,-19.0,1.0,-8399.0,-10265.0,-1480.0,-9506.0,-5.0,-13.0,-9.0,0.0,15.0,0.0,3.0,39.0,0.22248506546020508
107,-60.0,-37.0,-19.0,1.0,-8399.0,-10265.0,-1480.0,-9506.0,5.0,8.0,-17.0,-16.0,3.0,-6.0,-16.0,-32.0,0.2242441177368164
108,-15.0,-32.0,-8.0,1.0,-8401.0,-10266.0,-1474.0,-9504.0,5.0,8.0,-17.0,-16.0,3.0,-6.0,-16.0,-32.0,0.2260439395904541
109,-15.0,-32.0,-8.0,1.0,-8401.0,-10266.0,-1474.0,-9504.0,-4.0,12.0,28.0,2.0,1.0,-22.0,3.0,22.0,0.22803997993469238
110,-15.0,-32.0,-8.0,1.0,-8401.0,-10266.0,-1474.0,-9504.0,-14.0,-9.0,22.0,-1.0,-3.0,10.0,0.0,-20.0,0.22986292839050293
111,-2.0,-16.0,0.0,1.0,-8401.0,-10265.0,-1474.0,-9504.0,-14.0,-9.0,22.0,-1.0,-3.0,10.0,0.0,-20.0,0.2316431999206543
112,-2.0,-16.0,0.0,1.0,-8401.0,-10265.0,-1474.0,-9504.0,8.0,5.0,25.0,20.0,-5.0,12.0,10.0,32.0,0.23353815078735352
113,-2.0,-16.0,0.0,1.0,-8401.0,-10265.0,-1474.0,-9504.0,-5.0,0.0,-5.0,11.0,-9.0,-8.0,-15.0,-9.0,0.23530268669128418
114,-12.0,-30.0,-8.0,1.0,-8404.0,-10269.0,-1473.0,-9498.0,-5.0,0.0,-5.0,11.0,-9.0,-8.0,-15.0,-9.0,0.23825359344482422
115,-12.0,-30.0,-8.0,1.0,-8404.0,-10269.0,-1473.0,-9498.0,-1.0,11.0,71.0,3.0,-4.0,-5.0,-1.0,1.0,0.24079656600952148
116,-12.0,-30.0,-8.0,1.0,-8404.0,-10269.0,-1473.0,-9498.0,9.0,36.0,5.0,17.0,-26.0,12.0,6.0,19.0,0.24271774291992188
117,23.0,-34.0,2.0,1.0,-8400.0,-10277.0,-1473.0,-9493.0,9.0,36.0,5.0,17.0,-26.0,12.0,6.0,19.0,0.24454522132873535
118,23.0,-34.0,2.0,1.0,-8400.0,-10277.0,-1473.0,-9493.0,2.0,-6.0,-27.0,-7.0,-18.0,13.0,-2.0,-6.0,0.24642705917358398
119,23.0,-34.0,2.0,1.0,-8400.0,-10277.0,-1473.0,-9493.0,-5.0,-24.0,-26.0,-34.0,-25.0,-2.0,0.0,12.0,0.2489631175994873
120,9.0,-23.0,8.0,1.0,-8397.0,-10283.0,-1472.0,-9489.0,-5.0,-24.0,-26.0,-34.0,-25.0,-2.0,0.0,12.0,0.2509419918060303
121,9.0,-23.0,8.0,1.0,-8397.0,-10283.0,-1472.0,-9489.0,-4.0,-4.0,-24.0,1.0,-1.0,-20.0,-10.0,-38.0,0.2528412342071533
122,9.0,-23.0,8.0,1.0,-8397.0,-10283.0,-1472.0,-9489.0,-1.0,-10.0,-25.0,-13.0,-16.0,23.0,25.0,85.0,0.254641056060791
123,-22.0,-8.0,2.0,1.0,-8398.0,-10284.0,-1468.0,-9488.0,-1.0,-10.0,-25.0,-13.0,-16.0,23.0,25.0,85.0,0.25646424293518066
124,-22.0,-8.0,2.0,1.0,-8398.0,-10284.0,-1468.0,-9488.0,7.0,-8.0,-17.0,-13.0,-16.0,0.0,-6.0,-14.0,0.2583277225494385
125,-22.0,-8.0,2.0,1.0,-8398.0,-10284.0,-1468.0,-9488.0,5.0,13.0,-8.0,-12.0,-3.0,-4.0,-1.0,-8.0,0.26017236709594727
126,-8.0,-5.0,-6.0,1.0,-8398.0,-10285.0,-1468.0,-9487.0,5.0,13.0,-8.0,-12.0,-3.0,-4.0,-1.0,-8.0,0.26216578483581543
127,-8.0,-5.0,-6.0,1.0,-8398.0,-10285.0,-1468.0,-9487.0,-4.0,-3.0,-8.0,12.0,26.0,14.0,1.0,-7.0,0.2640671730041504
128,-8.0,-5.0,-6.0,1.0,-8398.0,-10285.0,-1468.0,-9487.0,-5.0,-7.0,-10.0,-6.0,12.0,-6.0,1.0,-4.0,0.2658982276916504
129,10.0,-14.0,-20.0,1.0,-8399.0,-10288.0,-1472.0,-9482.0,-5.0,-7.0,-10.0,-6.0,12.0,-6.0,1.0,-4.0,0.2687804698944092
130,10.0,-14.0,-20.0,1.0,-8399.0,-10288.0,-1472.0,-9482.0,1.0,-6.0,-39.0,-7.0,-2.0,-4.0,-3.0,-12.0,0.2713794708251953
131,10.0,-14.0,-20.0,1.0,-8399.0,-10288.0,-1472.0,-9482.0,2.0,0.0,34.0,31.0,19.0,8.0,1.0,2.0,0.27323341369628906
132,-18.0,-10.0,-32.0,1.0,-8404.0,-10289.0,-1475.0,-9476.0,2.0,0.0,34.0,31.0,19.0,8.0,1.0,2.0,0.2750260829925537
133,-18.0,-10.0,-32.0,1.0,-8404.0,-10289.0,-1475.0,-9476.0,-3.0,-19.0,-39.0,-6.0,-1.0,-8.0,5.0,19.0,0.2768821716308594
134,-18.0,-10.0,-32.0,1.0,-8404.0,-10289.0,-1475.0,-9476.0,5.0,3.0,13.0,-2.0,2.0,-4.0,2.0,23.0,0.2787356376647949
135,-34.0,-1.0,-40.0,1.0,-8412.0,-10286.0,-1476.0,-9472.0,5.0,3.0,13.0,-2.0,2.0,-4.0,2.0,23.0,0.2805514335632324
136,-34.0,-1.0,-40.0,1.0,-8412.0,-10286.0,-1476.0,-9472.0,4.0,5.0,16.0,12.0,42.0,7.0,6.0,5.0,0.28336429595947266
137,-34.0,-1.0,-40.0,1.0,-8412.0,-10286.0,-1476.0,-9472.0,2.0,-9.0,-8.0,24.0,20.0,24.0,5.0,-11.0,0.2852823734283447
138,-6.0,0.0,-40.0,1.0,-8415.0,-10287.0,-1480.0,-9468.0,2.0,-9.0,-8.0,24.0,20.0,24.0,5.0,-11.0,0.2870807647705078
139,-6.0,0.0,-40.0,1.0,-8415.0,-10287.0,-1480.0,-9468.0,-14.0,-8.0,-20.0,-2.0,-14.0,-5.0,-3.0,-13.0,0.28894472122192383
140,-6.0,0.0,-40.0,1.0,-8415.0,-10287.0,-1480.0,-9468.0,-3.0,-8.0,28.0,12.0,9.0,-2.0,-6.0,-24.0,0.2907593250274658
141,-19.0,-2.0,-45.0,1.0,-8420.0,-10286.0,-1481.0,-9464.0,-3.0,-8.0,28.0,12.0,9.0,-2.0,-6.0,-24.0,0.29253697395324707
142,-19.0,-2.0,-45.0,1.0,-8420.0,-10286.0,-1481.0,-9464.0,-7.0,-5.0,5.0,-6.0,-16.0,-2.0,-1.0,15.0,0.2945709228515625
143,-19.0,-2.0,-45.0,1.0,-8420.0,-10286.0,-1481.0,-9464.0,-4.0,-13.0,15.0,14.0,-17.0,-17.0,-4.0,-8.0,0.2963881492614746
144,1.0,-2.0,-23.0,1.0,-8421.0,-10287.0,-1482.0,-9463.0,-4.0,-13.0,15.0,14.0,-17.0,-17.0,-4.0,-8.0,0.2993454933166504
145,1.0,-2.0,-23.0,1.0,-8421.0,-10287.0,-1482.0,-9463.0,-3.0,12.0,33.0,25.0,46.0,-4.0,-1.0,-8.0,0.3019282817840576
146,1.0,-2.0,-23.0,1.0,-8421.0,-10287.0,-1482.0,-9463.0,-2.0,5.0,-16.0,-4.0,1.0,1.0,-1.0,8.0,0.30385613441467285
147,-24.0,2.0,-8.0,1.0,-8423.0,-10285.0,-1480.0,-9463.0,-2.0,5.0,-16.0,-4.0,1.0,1.0,-1.0,8.0,0.30567407608032227
148,-24.0,2.0,-8.0,1.0,-8423.0,-10285.0,-1480.0,-9463.0,5.0,14.0,-5.0,-15.0,-9.0,-1.0,-6.0,-9.0,0.3075418472290039
149,-24.0,2.0,-8.0,1.0,-8423.0,-10285.0,-1480.0,-9463.0,7.0,8.0,-6.0,-9.0,-5.0,-1.0,-2.0,-3.0,0.30940937995910645
150,-43.0,-11.0,3.0,1.0,-8426.0,-10283.0,-1472.0,-9463.0,7.0,8.0,-6.0,-9.0,-5.0,-1.0,-2.0,-3.0,0.3112180233001709
151,-43.0,-11.0,3.0,1.0,-8426.0,-10283.0,-1472.0,-9463.0,0.0,-3.0,-10.0,-19.0,-27.0,9.0,-6.0,-14.0,0.3130788803100586
152,-43.0,-11.0,3.0,1.0,-8426.0,-10283.0,-1472.0,-9463.0,3.0,18.0,38.0,-10.0,-6.0,-1.0,3.0,-10.0,0.3149712085723877
153,-28.0,-11.0,6.0,1.0,-8427.0,-10284.0,-1466.0,-9463.0,3.0,18.0,38.0,-10.0,-6.0,-1.0,3.0,-10.0,0.31746506690979004
154,-28.0,-11.0,6.0,1.0,-8427.0,-10284.0,-1466.0,-9463.0,5.0,-11.0,-6.0,-2.0,8.0,-8.0,8.0,11.0,0.31940126419067383
155,-28.0,-11.0,6.0,1.0,-8427.0,-10284.0,-1466.0,-9463.0,-4.0,-8.0,-25.0,-21.0,6.0,-10.0,-8.0,-6.0,0.321213960647583
156,-39.0,2.0,0.0,1.0,-8429.0,-10283.0,-1462.0,-9463.0,-4.0,-8.0,-25.0,-21.0,6.0,-10.0,-8.0,-6.0,0.32305145263671875
157,-39.0,2.0,0.0,1.0,-8429.0,-10283.0,-1462.0,-9463.0,-2.0,-5.0,-11.0,-19.0,-27.0,0.0,-4.0,-6.0,0.32572507858276367
158,-39.0,2.0,0.0,1.0,-8429.0,-10283.0,-1462.0,-9463.0,7.0,13.0,75.0,9.0,-10.0,7.0,5.0,-6.0,0.32776737213134766
159,-34.0,18.0,-1.0,1.0,-8432.0,-10280.0,-1462.0,-9464.0,7.0,13.0,75.0,9.0,-10.0,7.0,5.0,-6.0,0.3411071300506592
160,-34.0,18.0,-1.0,1.0,-8432.0,-10280.0,-1462.0,-9464.0,-1.0,-2.0,-4.0,-3.0,-8.0,0.0,3.0,3.0,0.34291744232177734
161,-34.0,18.0,-1.0,1.0,-8432.0,-10280.0,-1462.0,-9464.0,-8.0,-13.0,-37.0,1.0,-5.0,-2.0,-1.0,8.0,0.3485703468322754
162,0.0,6.0,2.0,1.0,-8432.0,-10280.0,-1462.0,-9463.0,-8.0,-13.0,-37.0,1.0,-5.0,-2.0,-1.0,8.0,0.3561124801635742
163,0.0,6.0,2.0,1.0,-8432.0,-10280.0,-1462.0,-9463.0,2.0,2.0,2.0,9.0,-32.0,-10.0,-2.0,0.0,0.3637986183166504
164,0.0,6.0,2.0,1.0,-8432.0,-10280.0,-1462.0,-9463.0,-4.0,-9.0,-2.0,0.0,22.0,-9.0,-5.0,-33.0,0.36652684211730957
165,1.0,-1.0,2.0,1.0,-8432.0,-10280.0,-1462.0,-9463.0,-4.0,-9.0,-2.0,0.0,22.0,-9.0,-5.0,-33.0,0.378629207611084
166,1.0,-1.0,2.0,1.0,-8432.0,-10280.0,-1462.0,-9463.0,-5.0,3.0,3.0,1.0,16.0,4.0,1.0,-14.0,0.38724327087402344
167,1.0,-1.0,2.0,1.0,-8432.0,-10280.0,-1462.0,-9463.0,-1.0,-12.0,-11.0,-10.0,-27.0,4.0,-5.0,-5.0,0.3905212879180908
168,-5.0,6.0,3.0,1.0,-8432.0,-10281.0,-1462.0,-9463.0,-1.0,-12.0,-11.0,-10.0,-27.0,4.0,-5.0,-5.0,0.40184545516967773
169,-5.0,6.0,3.0,1.0,-8432.0,-10281.0,-1462.0,-9463.0,2.0,9.0,21.0,1.0,-5.0,5.0,1.0,3.0,0.40531492233276367
170,-5.0,6.0,3.0,1.0,-8432.0,-10281.0,-1462.0,-9463.0,-2.0,-11.0,-18.0,8.0,22.0,0.0,0.0,6.0,0.4086012840270996
171,-13.0,6.0,-10.0,1.0,-8432.0,-10281.0,-1462.0,-9463.0,-2.0,-11.0,-18.0,8.0,22.0,0.0,0.0,6.0,0.4165968894958496
172,-13.0,6.0,-10.0,1.0,-8432.0,-10281.0,-1462.0,-9463.0,1.0,0.0,-8.0,-13.0,-6.0,8.0,6.0,18.0,0.4243912696838379
173,-13.0,6.0,-10.0,1.0,-8432.0,-10281.0,-1462.0,-9463.0,-3.0,16.0,21.0,19.0,-15.0,-4.0,-7.0,-15.0,0.42618465423583984
174,-16.0,8.0,-13.0,1.0,-8432.0,-10281.0,-1462.0,-9462.0,-3.0,16.0,21.0,19.0,-15.0,-4.0,-7.0,-15.0,0.4384281635284424
175,-16.0,8.0,-13.0,1.0,-8432.0,-10281.0,-1462.0,-9462.0,3.0,6.0,-17.0,8.0,-2.0,-4.0,-5.0,-8.0,0.44724178314208984
176,-16.0,8.0,-13.0,1.0,-8432.0,-10281.0,-1462.0,-9462.0,-2.0,-6.0,-39.0,-9.0,-8.0,-2.0,8.0,44.0,0.4502739906311035
177,-7.0,12.0,-14.0,1.0,-8431.0,-10281.0,-1462.0,-9462.0,-2.0,-6.0,-39.0,-9.0,-8.0,-2.0,8.0,44.0,0.461092472076416
178,-7.0,12.0,-14.0,1.0,-8431.0,-10281.0,-1462.0,-9462.0,0.0,0.0,5.0,0.0,18.0,-5.0,-3.0,-3.0,0.4643833637237549
179,-7.0,12.0,-14.0,1.0,-8431.0,-10281.0,-1462.0,-9462.0,-3.0,9.0,-2.0,7.0,-10.0,0.0,0.0,-2.0,0.4687349796295166
180,-6.0,15.0,-7.0,1.0,-8431.0,-10282.0,-1462.0,-9462.0,-3.0,9.0,-2.0,7.0,-10.0,0.0,0.0,-2.0,0.4859187602996826
181,-6.0,15.0,-7.0,1.0,-8431.0,-10282.0,-1462.0,-9462.0,-3.0,-2.0,22.0,7.0,-24.0,-13.0,-11.0,-10.0,0.4894397258758545
182,-6.0,15.0,-7.0,1.0,-8431.0,-10282.0,-1462.0,-9462.0,-1.0,-5.0,11.0,-4.0,13.0,9.0,4.0,11.0,0.4927945137023926
183,-17.0,10.0,3.0,1.0,-8432.0,-10280.0,-1461.0,-9463.0,-1.0,-5.0,11.0,-4.0,13.0,9.0,4.0,11.0,0.5079555511474609
184,-17.0,10.0,3.0,1.0,-8432.0,-10280.0,-1461.0,-9463.0,3.0,2.0,5.0,5.0,-7.0,1.0,-5.0,-11.0,0.5110325813293457
185,-17.0,10.0,3.0,1.0,-8432.0,-10280.0,-1461.0,-9463.0,-1.0,-2.0,-11.0,-9.0,-11.0,-8.0,-4.0,-16.0,0.5135636329650879
186,-32.0,6.0,1.0,1.0,-8434.0,-10278.0,-1458.0,-9464.0,-1.0,-2.0,-11.0,-9.0,-11.0,-8.0,-4.0,-16.0,0.5211472511291504
187,-32.0,6.0,1.0,1.0,-8434.0,-10278.0,-1458.0,-9464.0,-5.0,-4.0,-9.0,3.0,12.0,5.0,0.0,-2.0,0.5229640007019043
188,-32.0,6.0,1.0,1.0,-8434.0,-10278.0,-1458.0,-9464.0,0.0,-1.0,-26.0,-19.0,-1.0,5.0,1.0,-10.0,0.5283355712890625
189,-47.0,14.0,4.0,1.0,-8437.0,-10275.0,-1453.0,-9466.0,0.0,-1.0,-26.0,-19.0,-1.0,5.0,1.0,-10.0,0.5448791980743408
190,-47.0,14.0,4.0,1.0,-8437.0,-10275.0,-1453.0,-9466.0,-5.0,6.0,14.0,21.0,-10.0,-3.0,2.0,20.0,0.5487496852874756
191,-47.0,14.0,4.0,1.0,-8437.0,-10275.0,-1453.0,-9466.0,3.0,9.0,14.0,-5.0,-7.0,-1.0,4.0,6.0,0.5520575046539307
192,-53.0,4.0,14.0,1.0,-8440.0,-10270.0,-1445.0,-9469.0,3.0,9.0,14.0,-5.0,-7.0,-1.0,4.0,6.0,0.5583047866821289
193,-53.0,4.0,14.0,1.0,-8440.0,-10270.0,-1445.0,-9469.0,-3.0,-11.0,-42.0,-9.0,-4.0,3.0,-6.0,-6.0,0.5661389827728271
194,-53.0,4.0,14.0,1.0,-8440.0,-10270.0,-1445.0,-9469.0,4.0,-4.0,-16.0,-1.0,13.0,10.0,0.0,14.0,0.5678858757019043
195,-150.0,0.0,-1.0,1.0,-8455.0,-10258.0,-1429.0,-9471.0,4.0,-4.0,-16.0,-1.0,13.0,10.0,0.0,14.0,0.5817878246307373
196,-150.0,0.0,-1.0,1.0,-8455.0,-10258.0,-1429.0,-9471.0,6.0,-7.0,11.0,-15.0,-18.0,-4.0,-2.0,2.0,0.585425615310669
197,-150.0,0.0,-1.0,1.0,-8455.0,-10258.0,-1429.0,-9471.0,-2.0,-1.0,46.0,14.0,-8.0,-4.0,3.0,15.0,0.5884983539581299
198,-311.0,-8.0,-17.0,1.0,-8492.0,-10231.0,-1399.0,-9473.0,-2.0,-1.0,46.0,14.0,-8.0,-4.0,3.0,15.0,0.6061017513275146
199,-311.0,-8.0,-17.0,1.0,-8492.0,-10231.0,-1399.0,-9473.0,1.0,4.0,-13.0,-6.0,5.0,-1.0,3.0,22.0,0.609882116317749
200,-311.0,-8.0,-17.0,1.0,-8492.0,-10231.0,-1399.0,-9473.0,6.0,1.0,17.0,-15.0,-7.0,-6.0,-7.0,0.0,0.6132285594940186
201,-464.0,-2.0,-17.0,1.0,-8545.0,-10187.0,-1351.0,-9479.0,6.0,1.0,17.0,-15.0,-7.0,-6.0,-7.0,0.0,0.618598222732544
202,-464.0,-2.0,-17.0,1.0,-8545.0,-10187.0,-1351.0,-9479.0,-3.0,-1.0,18.0,22.0,16.0,-3.0,-5.0,-23.0,0.6260788440704346
203,-464.0,-2.0,-17.0,1.0,-8545.0,-10187.0,-1351.0,-9479.0,-1.0,-20.0,-25.0,-37.0,-1.0,-14.0,0.0,4.0,0.6331548690795898
204,-565.0,-7.0,-15.0,1.0,-8607.0,-10131.0,-1285.0,-9492.0,-1.0,-20.0,-25.0,-37.0,-1.0,-14.0,0.0,4.0,0.6406679153442383
205,-565.0,-7.0,-15.0,1.0,-8607.0,-10131.0,-1285.0,-9492.0,0.0,-3.0,-12.0,-15.0,17.0,2.0,6.0,5.0,0.6496758460998535
206,-565.0,-7.0,-15.0,1.0,-8607.0,-10131.0,-1285.0,-9492.0,4.0,11.0,45.0,-16.0,11.0,0.0,-9.0,-52.0,0.6528592109680176
207,-572.0,-37.0,-28.0,1.0,-8670.0,-10077.0,-1215.0,-9501.0,4.0,11.0,45.0,-16.0,11.0,0.0,-9.0,-52.0,0.6652355194091797
208,-572.0,-37.0,-28.0,1.0,-8670.0,-10077.0,-1215.0,-9501.0,6.0,20.0,0.0,1.0,-15.0,6.0,7.0,-16.0,0.6698148250579834
209,-572.0,-37.0,-28.0,1.0,-8670.0,-10077.0,-1215.0,-9501.0,-1.0,-7.0,-22.0,34.0,18.0,-2.0,-3.0,-7.0,0.6731939315795898
210,-581.0,-53.0,-67.0,1.0,-8735.0,-10025.0,-1144.0,-9505.0,-1.0,-7.0,-22.0,34.0,18.0,-2.0,-3.0,-7.0,0.6785471439361572
211,-581.0,-53.0,-67.0,1.0,-8735.0,-10025.0,-1144.0,-9505.0,-12.0,-6.0,-17.0,8.0,23.0,-4.0,3.0,2.0,0.6862750053405762
212,-581.0,-53.0,-67.0,1.0,-8735.0,-10025.0,-1144.0,-9505.0,6.0,-4.0,-27.0,15.0,22.0,23.0,-4.0,-2.0,0.6880502700805664
213,-441.0,-21.0,-63.0,1.0,-8786.0,-9974.0,-1084.0,-9519.0,6.0,-4.0,-27.0,15.0,22.0,23.0,-4.0,-2.0,0.7009122371673584
214,-441.0,-21.0,-63.0,1.0,-8786.0,-9974.0,-1084.0,-9519.0,3.0,7.0,98.0,29.0,-10.0,3.0,-1.0,-4.0,0.7099671363830566
215,-441.0,-21.0,-63.0,1.0,-8786.0,-9974.0,-1084.0,-9519.0,-9.0,-4.0,2.0,24.0,-10.0,7.0,5.0,17.0,0.7131936550140381
216,-100.0,11.0,16.0,1.0,-8798.0,-9950.0,-1063.0,-9536.0,-9.0,-4.0,2.0,24.0,-10.0,7.0,5.0,17.0,0.7241957187652588
217,-100.0,11.0,16.0,1.0,-8798.0,-9950.0,-1063.0,-9536.0,-9.0,-9.0,-21.0,19.0,-24.0,14.0,0.0,9.0,0.7269937992095947
218,-100.0,11.0,16.0,1.0,-8798.0,-9950.0,-1063.0,-9536.0,-6.0,-10.0,-65.0,32.0,-17.0,-22.0,11.0,35.0,0.7316684722900391
219,81.0,62.0,50.0,1.0,-8789.0,-9938.0,-1069.0,-9556.0,-6.0,-10.0,-65.0,32.0,-17.0,-22.0,11.0,35.0,0.7383968830108643
220,81.0,62.0,50.0,1.0,-8789.0,-9938.0,-1069.0,-9556.0,6.0,7.0,-25.0,-32.0,-38.0,-5.0,-4.0,-9.0,0.746661901473999
221,81.0,62.0,50.0,1.0,-8789.0,-9938.0,-1069.0,-9556.0,7.0,30.0,35.0,-46.0,-7.0,-5.0,-1.0,-8.0,0.7531149387359619
222,281.0,204.0,14.0,1.0,-8769.0,-9925.0,-1121.0,-9582.0,7.0,30.0,35.0,-46.0,-7.0,-5.0,-1.0,-8.0,0.7613441944122314
223,281.0,204.0,14.0,1.0,-8769.0,-9925.0,-1121.0,-9582.0,-3.0,-8.0,-16.0,-16.0,10.0,-5.0,-3.0,-6.0,0.7687101364135742
224,281.0,204.0,14.0,1.0,-8769.0,-9925.0,-1121.0,-9582.0,-1.0,20.0,94.0,-30.0,1.0,1.0,-2.0,-2.0,0.7704904079437256
225,322.0,317.0,-1.0,1.0,-8757.0,-9894.0,-1207.0,-9614.0,-1.0,20.0,94.0,-30.0,1.0,1.0,-2.0,-2.0,0.7841641902923584
226,322.0,317.0,-1.0,1.0,-8757.0,-9894.0,-1207.0,-9614.0,2.0,37.0,118.0,7.0,-26.0,-34.0,-6.0,-11.0,0.7867155075073242
227,322.0,317.0,-1.0,1.0,-8757.0,-9894.0,-1207.0,-9614.0,-12.0,-16.0,-61.0,-11.0,33.0,7.0,-4.0,-2.0,0.7900683879852295
228,-353.0,387.0,-83.0,1.0,-8843.0,-9776.0,-1256.0,-9650.0,-12.0,-16.0,-61.0,-11.0,33.0,7.0,-4.0,-2.0,0.7984485626220703
229,-353.0,387.0,-83.0,1.0,-8843.0,-9776.0,-1256.0,-9650.0,-6.0,-21.0,-106.0,-40.0,8.0,-22.0,0.0,8.0,0.8062794208526611
230,-353.0,387.0,-83.0,1.0,-8843.0,-9776.0,-1256.0,-9650.0,-6.0,-8.0,0.0,6.0,58.0,3.0,-2.0,5.0,0.8080923557281494
231,-1452.0,521.0,-302.0,1.0,-9061.0,-9510.0,-1194.0,-9721.0,-6.0,-8.0,0.0,6.0,58.0,3.0,-2.0,5.0,0.820960283279419
232,-1452.0,521.0,-302.0,1.0,-9061.0,-9510.0,-1194.0,-9721.0,10.0,-2.0,25.0,28.0,11.0,-12.0,2.0,4.0,0.8300430774688721
233,-1452.0,521.0,-302.0,1.0,-9061.0,-9510.0,-1194.0,-9721.0,4.0,-11.0,-25.0,-34.0,-34.0,9.0,-4.0,-20.0,0.833810567855835
234,-644.0,1057.0,-337.0,1.0,-9199.0,-9180.0,-1197.0,-9907.0,4.0,-11.0,-25.0,-34.0,-34.0,9.0,-4.0,-20.0,0.8453705310821533
235,-644.0,1057.0,-337.0,1.0,-9199.0,-9180.0,-1197.0,-9907.0,10.0,-5.0,29.0,-54.0,5.0,11.0,10.0,-11.0,0.8489029407501221
236,-644.0,1057.0,-337.0,1.0,-9199.0,-9180.0,-1197.0,-9907.0,6.0,-3.0,13.0,59.0,-6.0,-1.0,-8.0,-19.0,0.8534667491912842
237,1363.0,1476.0,-372.0,1.0,-9145.0,-9050.0,-1555.0,-10025.0,6.0,-3.0,13.0,59.0,-6.0,-1.0,-8.0,-19.0,0.8680942058563232
238,1363.0,1476.0,-372.0,1.0,-9145.0,-9050.0,-1555.0,-10025.0,3.0,7.0,9.0,2.0,34.0,18.0,10.0,6.0,0.8714067935943604
239,1363.0,1476.0,-372.0,1.0,-9145.0,-9050.0,-1555.0,-10025.0,-10.0,-1.0,-30.0,-36.0,6.0,-21.0,-20.0,-2.0,0.8745479583740234
240,273.0,1802.0,-874.0,1.0,-9198.0,-8846.0,-1871.0,-10104.0,-10.0,-1.0,-30.0,-36.0,6.0,-21.0,-20.0,-2.0,0.8815586566925049
241,273.0,1802.0,-874.0,1.0,-9198.0,-8846.0,-1871.0,-10104.0,-3.0,-5.0,-14.0,-34.0,35.0,22.0,14.0,4.0,0.8895614147186279
242,273.0,1802.0,-874.0,1.0,-9198.0,-8846.0,-1871.0,-10104.0,-2.0,-1.0,-13.0,58.0,14.0,8.0,52.0,6.0,0.8916652202606201
243,-1754.0,2201.0,-971.0,1.0,-9438.0,-8385.0,-2003.0,-10251.0,-2.0,-1.0,-13.0,58.0,14.0,8.0,52.0,6.0,0.905087947845459
244,-1754.0,2201.0,-971.0,1.0,-9438.0,-8385.0,-2003.0,-10251.0,-7.0,-8.0,-22.0,-78.0,-33.0,6.0,10.0,3.0,0.9083278179168701
245,-1754.0,2201.0,-971.0,1.0,-9438.0,-8385.0,-2003.0,-10251.0,-5.0,-5.0,-6.0,-30.0,-31.0,-9.0,-19.0,-4.0,0.9116113185882568
246,-2379.0,2641.0,-1056.0,1.0,-9716.0,-7796.0,-2103.0,-10433.0,-5.0,-5.0,-6.0,-30.0,-31.0,-9.0,-19.0,-4.0,0.9184646606445312
247,-2379.0,2641.0,-1056.0,1.0,-9716.0,-7796.0,-2103.0,-10433.0,7.0,-1.0,-10.0,42.0,-1.0,-3.0,0.0,6.0,0.9261019229888916
248,-2379.0,2641.0,-1056.0,1.0,-9716.0,-7796.0,-2103.0,-10433.0,-1.0,0.0,5.0,-10.0,-18.0,11.0,18.0,4.0,0.9278817176818848
249,-2261.0,2990.0,-1271.0,1.0,-9975.0,-7181.0,-2268.0,-10595.0,-1.0,0.0,5.0,-10.0,-18.0,11.0,18.0,4.0,0.9404747486114502
250,-2261.0,2990.0,-1271.0,1.0,-9975.0,-7181.0,-2268.0,-10595.0,-6.0,-8.0,-32.0,48.0,29.0,-9.0,-13.0,-5.0,0.9512166976928711
251,-2261.0,2990.0,-1271.0,1.0,-9975.0,-7181.0,-2268.0,-10595.0,-3.0,-1.0,0.0,54.0,9.0,-1.0,1.0,-4.0,0.954268217086792
252,-2450.0,3202.0,-1652.0,1.0,-10267.0,-6496.0,-2460.0,-10714.0,-3.0,-1.0,0.0,54.0,9.0,-1.0,1.0,-4.0,0.9643292427062988
253,-2450.0,3202.0,-1652.0,1.0,-10267.0,-6496.0,-2460.0,-10714.0,-6.0,-3.0,-25.0,-1.0,6.0,1.0,-19.0,-5.0,0.9669604301452637
254,-2450.0,3202.0,-1652.0,1.0,-10267.0,-6496.0,-2460.0,-10714.0,0.0,-1.0,-10.0,23.0,-20.0,-9.0,-12.0,3.0,0.9698727130889893
255,-2832.0,3340.0,-2024.0,1.0,-10593.0,-5745.0,-2647.0,-10781.0,0.0,-1.0,-10.0,23.0,-20.0,-9.0,-12.0,3.0,0.9791653156280518
256,-2832.0,3340.0,-2024.0,1.0,-10593.0,-5745.0,-2647.0,-10781.0,-6.0,-17.0,-40.0,12.0,-30.0,1.0,2.0,2.0,0.9861352443695068
257,-2832.0,3340.0,-2024.0,1.0,-10593.0,-5745.0,-2647.0,-10781.0,0.0,-1.0,3.0,-29.0,-73.0,-21.0,-18.0,-4.0,0.9878671169281006
258,-3301.0,3470.0,-2391.0,1.0,-10949.0,-4918.0,-2810.0,-10794.0,0.0,-1.0,3.0,-29.0,-73.0,-21.0,-18.0,-4.0,1.000546932220459
259,-3301.0,3470.0,-2391.0,1.0,-10949.0,-4918.0,-2810.0,-10794.0,3.0,4.0,13.0,-3.0,-13.0,-16.0,-24.0,1.0,1.0107884407043457
260,-3301.0,3470.0,-2391.0,1.0,-10949.0,-4918.0,-2810.0,-10794.0,1.0,-5.0,1.0,-21.0,13.0,2.0,-10.0,-1.0,1.0139598846435547
261,-3856.0,3515.0,-2704.0,1.0,-11327.0,-4003.0,-2920.0,-10752.0,1.0,-5.0,1.0,-21.0,13.0,2.0,-10.0,-1.0,1.0243418216705322
262,-3856.0,3515.0,-2704.0,1.0,-11327.0,-4003.0,-2920.0,-10752.0,-6.0,-3.0,10.0,23.0,1.0,2.0,7.0,-3.0,1.0271673202514648
263,-3856.0,3515.0,-2704.0,1.0,-11327.0,-4003.0,-2920.0,-10752.0,3.0,4.0,2.0,-8.0,4.0,-10.0,3.0,8.0,1.0304701328277588
264,-4286.0,3546.0,-2752.0,1.0,-11685.0,-3011.0,-2971.0,-10679.0,3.0,4.0,2.0,-8.0,4.0,-10.0,3.0,8.0,1.0559594631195068
265,-4286.0,3546.0,-2752.0,1.0,-11685.0,-3011.0,-2971.0,-10679.0,-1.0,0.0,4.0,8.0,14.0,3.0,4.0,-14.0,1.0604801177978516
266,-4286.0,3546.0,-2752.0,1.0,-11685.0,-3011.0,-2971.0,-10679.0,0.0,-5.0,-8.0,-1.0,39.0,7.0,4.0,-19.0,1.0650231838226318
267,-4129.0,3576.0,-2513.0,1.0,-11961.0,-2028.0,-3024.0,-10589.0,0.0,-5.0,-8.0,-1.0,39.0,7.0,4.0,-19.0,1.0699150562286377
268,-4129.0,3576.0,-2513.0,1.0,-11961.0,-2028.0,-3024.0,-10589.0,-5.0,-3.0,6.0,-5.0,-6.0,10.0,-16.0,15.0,1.072059154510498
269,-4129.0,3576.0,-2513.0,1.0,-11961.0,-2028.0,-3024.0,-10589.0,-5.0,-4.0,-8.0,-8.0,-21.0,1.0,24.0,-8.0,1.0738468170166016
270,-3519.0,3590.0,-2280.0,1.0,-12154.0,-1121.0,-3132.0,-10473.0,-5.0,-4.0,-8.0,-8.0,-21.0,1.0,24.0,-8.0,1.0843846797943115
271,-3519.0,3590.0,-2280.0,1.0,-12154.0,-1121.0,-3132.0,-10473.0,1.0,3.0,6.0,3.0,6.0,32.0,47.0,81.0,1.086271047592163
272,-3519.0,3590.0,-2280.0,1.0,-12154.0,-1121.0,-3132.0,-10473.0,9.0,5.0,3.0,-5.0,-16.0,15.0,-13.0,3.0,1.088040828704834
273,-3061.0,3591.0,-2140.0,1.0,-12288.0,-274.0,-3279.0,-10327.0,9.0,5.0,3.0,-5.0,-16.0,15.0,-13.0,3.0,1.0980117321014404
274,-3061.0,3591.0,-2140.0,1.0,-12288.0,-274.0,-3279.0,-10327.0,-9.0,-5.0,-5.0,-9.0,-40.0,-9.0,-49.0,-31.0,1.1153802871704102
275,-3061.0,3591.0,-2140.0,1.0,-12288.0,-274.0,-3279.0,-10327.0,-2.0,0.0,0.0,1.0,36.0,0.0,19.0,-5.0,1.121886968612671
276,-2949.0,3609.0,-2178.0,1.0,-12389.0,570.0,-3431.0,-10142.0,-2.0,0.0,0.0,1.0,36.0,0.0,19.0,-5.0,1.1252262592315674
277,-2949.0,3609.0,-2178.0,1.0,-12389.0,570.0,-3431.0,-10142.0,9.0,1.0,1.0,3.0,13.0,-2.0,2.0,1.0,1.1291661262512207
278,-2949.0,3609.0,-2178.0,1.0,-12389.0,570.0,-3431.0,-10142.0,1.0,-1.0,-4.0,1.0,22.0,4.0,-12.0,-10.0,1.132322072982788
279,-2703.0,3535.0,-2186.0,1.0,-12462.0,1381.0,-3589.0,-9918.0,1.0,-1.0,-4.0,1.0,22.0,4.0,-12.0,-10.0,1.144667387008667
280,-2703.0,3535.0,-2186.0,1.0,-12462.0,1381.0,-3589.0,-9918.0,4.0,2.0,-2.0,-15.0,-94.0,1.0,1.0,-3.0,1.146562099456787
281,-2703.0,3535.0,-2186.0,1.0,-12462.0,1381.0,-3589.0,-9918.0,7.0,0.0,-4.0,2.0,-77.0,-12.0,11.0,0.0,1.1483078002929688
282,-2552.0,3507.0,-2162.0,1.0,-12503.0,2167.0,-3748.0,-9663.0,7.0,0.0,-4.0,2.0,-77.0,-12.0,11.0,0.0,1.1579322814941406
283,-2552.0,3507.0,-2162.0,1.0,-12503.0,2167.0,-3748.0,-9663.0,-8.0,-10.0,-21.0,-7.0,30.0,-47.0,-28.0,-26.0,1.1669013500213623
284,-2552.0,3507.0,-2162.0,1.0,-12503.0,2167.0,-3748.0,-9663.0,-3.0,6.0,7.0,12.0,8.0,6.0,14.0,18.0,1.1687490940093994
285,-2569.0,3538.0,-2075.0,1.0,-12501.0,2961.0,-3899.0,-9392.0,-3.0,6.0,7.0,12.0,8.0,6.0,14.0,18.0,1.180337905883789
286,-2569.0,3538.0,-2075.0,1.0,-12501.0,2961.0,-3899.0,-9392.0,-12.0,-9.0,1.0,-4.0,23.0,9.0,-3.0,-5.0,1.1897106170654297
287,-2569.0,3538.0,-2075.0,1.0,-12501.0,2961.0,-3899.0,-9392.0,2.0,0.0,-5.0,-7.0,0.0,9.0,36.0,91.0,1.1938176155090332
288,-2308.0,3381.0,-1978.0,1.0,-12472.0,3697.0,-4049.0,-9101.0,2.0,0.0,-5.0,-7.0,0.0,9.0,36.0,91.0,1.2044415473937988
289,-2308.0,3381.0,-1978.0,1.0,-12472.0,3697.0,-4049.0,-9101.0,-21.0,0.0,4.0,14.0,50.0,6.0,61.0,-11.0,1.207430124282837
290,-2308.0,3381.0,-1978.0,1.0,-12472.0,3697.0,-4049.0,-9101.0,14.0,4.0,2.0,7.0,-22.0,-8.0,-44.0,-32.0,1.210796594619751
291,-1836.0,3166.0,-1933.0,1.0,-12438.0,4346.0,-4215.0,-8781.0,14.0,4.0,2.0,7.0,-22.0,-8.0,-44.0,-32.0,1.2182319164276123
292,-1836.0,3166.0,-1933.0,1.0,-12438.0,4346.0,-4215.0,-8781.0,-5.0,3.0,3.0,-2.0,-76.0,14.0,54.0,42.0,1.2263901233673096
293,-1836.0,3166.0,-1933.0,1.0,-12438.0,4346.0,-4215.0,-8781.0,-20.0,-5.0,-4.0,-4.0,-33.0,-12.0,-7.0,-38.0,1.2282624244689941
294,-1660.0,2961.0,-1867.0,1.0,-12390.0,4950.0,-4363.0,-8450.0,-20.0,-5.0,-4.0,-4.0,-33.0,-12.0,-7.0,-38.0,1.2404074668884277
295,-1660.0,2961.0,-1867.0,1.0,-12390.0,4950.0,-4363.0,-8450.0,12.0,8.0,12.0,14.0,-16.0,-47.0,-96.0,-50.0,1.2499966621398926
296,-1660.0,2961.0,-1867.0,1.0,-12390.0,4950.0,-4363.0,-8450.0,40.0,-8.0,3.0,-20.0,7.0,18.0,22.0,-34.0,1.2537274360656738
297,-1554.0,2653.0,-1915.0,1.0,-12345.0,5512.0,-4468.0,-8106.0,40.0,-8.0,3.0,-20.0,7.0,18.0,22.0,-34.0,1.2639553546905518
298,-1554.0,2653.0,-1915.0,1.0,-12345.0,5512.0,-4468.0,-8106.0,36.0,0.0,-3.0,-1.0,11.0,24.0,-4.0,-2.0,1.267242193222046
299,-1554.0,2653.0,-1915.0,1.0,-12345.0,5512.0,-4468.0,-8106.0,-33.0,-13.0,-9.0,-16.0,71.0,14.0,92.0,118.0,1.2798867225646973
300,-1652.0,2362.0,-1979.0,1.0,-12294.0,6061.0,-4514.0,-7759.0,-33.0,-13.0,-9.0,-16.0,71.0,14.0,92.0,118.0,1.2832634449005127
301,-1652.0,2362.0,-1979.0,1.0,-12294.0,6061.0,-4514.0,-7759.0,11.0,7.0,2.0,-22.0,43.0,16.0,35.0,29.0,1.287827968597412
302,-1652.0,2362.0,-1979.0,1.0,-12294.0,6061.0,-4514.0,-7759.0,-23.0,-23.0,-30.0,-13.0,-70.0,-30.0,-128.0,-128.0,1.2906980514526367
303,-1697.0,1936.0,-1879.0,1.0,-12230.0,6572.0,-4505.0,-7442.0,-23.0,-23.0,-30.0,-13.0,-70.0,-30.0,-128.0,-128.0,1.3008923530578613
304,-1697.0,1936.0,-1879.0,1.0,-12230.0,6572.0,-4505.0,-7442.0,-62.0,-7.0,2.0,34.0,53.0,52.0,79.0,114.0,1.3094797134399414
305,-1697.0,1936.0,-1879.0,1.0,-12230.0,6572.0,-4505.0,-7442.0,-50.0,-7.0,-9.0,-7.0,-45.0,-53.0,-46.0,-96.0,1.312638521194458
306,-1657.0,1485.0,-1650.0,1.0,-12153.0,7033.0,-4454.0,-7173.0,-50.0,-7.0,-9.0,-7.0,-45.0,-53.0,-46.0,-96.0,1.3238673210144043
307,-1657.0,1485.0,-1650.0,1.0,-12153.0,7033.0,-4454.0,-7173.0,-21.0,-6.0,5.0,-22.0,-58.0,27.0,57.0,56.0,1.326286792755127
308,-1657.0,1485.0,-1650.0,1.0,-12153.0,7033.0,-4454.0,-7173.0,64.0,18.0,-14.0,-27.0,-17.0,11.0,43.0,17.0,1.3317430019378662
309,-1288.0,1159.0,-1134.0,1.0,-12020.0,7552.0,-4421.0,-6885.0,64.0,18.0,-14.0,-27.0,-17.0,11.0,43.0,17.0,1.3385581970214844
310,-1288.0,1159.0,-1134.0,1.0,-12020.0,7552.0,-4421.0,-6885.0,-38.0,2.0,-3.0,4.0,-50.0,-63.0,36.0,16.0,1.3630964756011963
311,-1288.0,1159.0,-1134.0,1.0,-12020.0,7552.0,-4421.0,-6885.0,-17.0,10.0,17.0,6.0,4.0,-12.0,5.0,-44.0,1.3667409420013428
312,-895.0,700.0,-739.0,1.0,-11967.0,7756.0,-4384.0,-6773.0,-17.0,10.0,17.0,6.0,4.0,-12.0,5.0,-44.0,1.3704078197479248
313,-895.0,700.0,-739.0,1.0,-11967.0,7756.0,-4384.0,-6773.0,30.0,-4.0,-40.0,21.0,33.0,-92.0,-65.0,-44.0,1.373908281326294
314,-895.0,700.0,-739.0,1.0,-11967.0,7756.0,-4384.0,-6773.0,-31.0,-27.0,-1.0,-6.0,40.0,89.0,47.0,-74.0,1.376676082611084
315,-418.0,326.0,-128.0,1.0,-11925.0,7841.0,-4385.0,-6748.0,-31.0,-27.0,-1.0,-6.0,40.0,89.0,47.0,-74.0,1.384030818939209
316,-418.0,326.0,-128.0,1.0,-11925.0,7841.0,-4385.0,-6748.0,77.0,34.0,25.0,33.0,127.0,107.0,-48.0,-128.0,1.3859310150146484
317,-418.0,326.0,-128.0,1.0,-11925.0,7841.0,-4385.0,-6748.0,-5.0,-27.0,-1.0,11.0,127.0,-34.0,92.0,97.0,1.3906090259552002
318,675.0,-3.0,784.0,1.0,-11924.0,7715.0,-4501.0,-6818.0,-5.0,-27.0,-1.0,11.0,127.0,-34.0,92.0,97.0,1.4081542491912842
319,675.0,-3.0,784.0,1.0,-11924.0,7715.0,-4501.0,-6818.0,-31.0,23.0,-15.0,-73.0,-108.0,-58.0,-86.0,33.0,1.4122569561004639
320,675.0,-3.0,784.0,1.0,-11924.0,7715.0,-4501.0,-6818.0,-87.0,20.0,10.0,55.0,-83.0,100.0,-23.0,127.0,1.4220612049102783
321,1943.0,-499.0,1498.0,1.0,-11996.0,7349.0,-4705.0,-6957.0,-87.0,20.0,10.0,55.0,-83.0,100.0,-23.0,127.0,1.4241321086883545
322,1943.0,-499.0,1498.0,1.0,-11996.0,7349.0,-4705.0,-6957.0,-99.0,-18.0,8.0,-31.0,-102.0,11.0,-126.0,-41.0,1.429140329360962
323,1943.0,-499.0,1498.0,1.0,-11996.0,7349.0,-4705.0,-6957.0,34.0,-3.0,20.0,50.0,77.0,74.0,79.0,104.0,1.4309206008911133
324,2763.0,-1205.0,2117.0,1.0,-12109.0,6781.0,-4923.0,-7183.0,34.0,-3.0,20.0,50.0,77.0,74.0,79.0,104.0,1.4436061382293701
325,2763.0,-1205.0,2117.0,1.0,-12109.0,6781.0,-4923.0,-7183.0,-45.0,-30.0,-25.0,35.0,55.0,15.0,-50.0,64.0,1.4454607963562012
326,2763.0,-1205.0,2117.0,1.0,-12109.0,6781.0,-4923.0,-7183.0,71.0,5.0,16.0,4.0,0.0,-23.0,-81.0,-41.0,1.450382947921753
327,3506.0,-2062.0,2876.0,1.0,-12236.0,5993.0,-5131.0,-7516.0,71.0,5.0,16.0,4.0,0.0,-23.0,-81.0,-41.0,1.4667737483978271
328,3506.0,-2062.0,2876.0,1.0,-12236.0,5993.0,-5131.0,-7516.0,-26.0,-23.0,-5.0,-3.0,85.0,-82.0,127.0,-44.0,1.4692022800445557
329,3506.0,-2062.0,2876.0,1.0,-12236.0,5993.0,-5131.0,-7516.0,-45.0,-2.0,-23.0,31.0,120.0,4.0,5.0,36.0,1.4728453159332275
330,4159.0,-3278.0,3925.0,1.0,-12337.0,4966.0,-5273.0,-7987.0,-45.0,-2.0,-23.0,31.0,120.0,4.0,5.0,36.0,1.480562448501587
331,4159.0,-3278.0,3925.0,1.0,-12337.0,4966.0,-5273.0,-7987.0,76.0,77.0,77.0,72.0,30.0,97.0,-2.0,124.0,1.488837718963623
332,4159.0,-3278.0,3925.0,1.0,-12337.0,4966.0,-5273.0,-7987.0,49.0,26.0,11.0,5.0,43.0,23.0,-72.0,-11.0,1.4906461238861084
333,4256.0,-4386.0,5067.0,1.0,-12337.0,3684.0,-5298.0,-8638.0,49.0,26.0,11.0,5.0,43.0,23.0,-72.0,-11.0,1.5046212673187256
334,4256.0,-4386.0,5067.0,1.0,-12337.0,3684.0,-5298.0,-8638.0,127.0,-38.0,-13.0,2.0,52.0,27.0,-50.0,-55.0,1.5081775188446045
335,4256.0,-4386.0,5067.0,1.0,-12337.0,3684.0,-5298.0,-8638.0,-67.0,-50.0,4.0,51.0,57.0,-128.0,-88.0,34.0,1.5115063190460205
336,3672.0,-5299.0,6180.0,1.0,-12151.0,2322.0,-5155.0,-9426.0,-67.0,-50.0,4.0,51.0,57.0,-128.0,-88.0,34.0,1.5281422138214111
337,3672.0,-5299.0,6180.0,1.0,-12151.0,2322.0,-5155.0,-9426.0,12.0,-82.0,0.0,-6.0,56.0,72.0,17.0,-128.0,1.5322260856628418
338,3672.0,-5299.0,6180.0,1.0,-12151.0,2322.0,-5155.0,-9426.0,88.0,71.0,39.0,24.0,76.0,9.0,35.0,2.0,1.5361461639404297
339,2842.0,-6055.0,6503.0,1.0,-11833.0,952.0,-4785.0,-10229.0,88.0,71.0,39.0,24.0,76.0,9.0,35.0,2.0,1.5403494834899902
340,2842.0,-6055.0,6503.0,1.0,-11833.0,952.0,-4785.0,-10229.0,-128.0,-30.0,-20.0,21.0,-56.0,-109.0,-26.0,120.0,1.549809455871582
341,2842.0,-6055.0,6503.0,1.0,-11833.0,952.0,-4785.0,-10229.0,-91.0,-57.0,-61.0,-53.0,-6.0,-33.0,-109.0,-9.0,1.551671028137207
342,1803.0,-6280.0,6298.0,1.0,-11421.0,-308.0,-4221.0,-10959.0,-91.0,-57.0,-61.0,-53.0,-6.0,-33.0,-109.0,-9.0,1.5657958984375
343,1803.0,-6280.0,6298.0,1.0,-11421.0,-308.0,-4221.0,-10959.0,-11.0,48.0,16.0,-41.0,73.0,-128.0,38.0,-71.0,1.5692665576934814
344,1803.0,-6280.0,6298.0,1.0,-11421.0,-308.0,-4221.0,-10959.0,-6.0,-20.0,32.0,-29.0,-82.0,89.0,122.0,8.0,1.572185754776001
345,801.0,-5517.0,5832.0,1.0,-10933.0,-1331.0,-3596.0,-11586.0,-6.0,-20.0,32.0,-29.0,-82.0,89.0,122.0,8.0,1.5868120193481445
346,801.0,-5517.0,5832.0,1.0,-10933.0,-1331.0,-3596.0,-11586.0,-34.0,-119.0,-122.0,-8.0,45.0,-57.0,123.0,90.0,1.5886495113372803
347,801.0,-5517.0,5832.0,1.0,-10933.0,-1331.0,-3596.0,-11586.0,8.0,56.0,-5.0,35.0,-29.0,29.0,64.0,13.0,1.5914006233215332
348,865.0,-4130.0,3957.0,1.0,-10561.0,-2107.0,-3149.0,-11940.0,8.0,56.0,-5.0,35.0,-29.0,29.0,64.0,13.0,1.6020212173461914
349,865.0,-4130.0,3957.0,1.0,-10561.0,-2107.0,-3149.0,-11940.0,-22.0,81.0,-102.0,84.0,37.0,127.0,-9.0,127.0,1.6097157001495361
350,865.0,-4130.0,3957.0,1.0,-10561.0,-2107.0,-3149.0,-11940.0,-84.0,7.0,60.0,-91.0,-17.0,-37.0,-49.0,-46.0,1.6131508350372314
351,3737.0,-2621.0,341.0,1.0,-10508.0,-2887.0,-3322.0,-11776.0,-84.0,7.0,60.0,-91.0,-17.0,-37.0,-49.0,-46.0,1.6247918605804443
352,3737.0,-2621.0,341.0,1.0,-10508.0,-2887.0,-3322.0,-11776.0,54.0,127.0,127.0,80.0,-85.0,-5.0,28.0,35.0,1.633167028427124
353,3737.0,-2621.0,341.0,1.0,-10508.0,-2887.0,-3322.0,-11776.0,13.0,59.0,86.0,-21.0,-117.0,-119.0,-20.0,-128.0,1.6363511085510254
354,3858.0,-1317.0,-674.0,1.0,-10510.0,-3470.0,-3684.0,-11506.0,13.0,59.0,86.0,-21.0,-117.0,-119.0,-20.0,-128.0,1.6467564105987549
355,3858.0,-1317.0,-674.0,1.0,-10510.0,-3470.0,-3684.0,-11506.0,-27.0,-78.0,71.0,-128.0,13.0,10.0,10.0,-61.0,1.6486163139343262
356,3858.0,-1317.0,-674.0,1.0,-10510.0,-3470.0,-3684.0,-11506.0,31.0,7.0,-71.0,62.0,23.0,-128.0,-93.0,-69.0,1.6503870487213135
357,2158.0,-1004.0,-64.0,1.0,-10488.0,-3797.0,-3829.0,-11375.0,31.0,7.0,-71.0,62.0,23.0,-128.0,-93.0,-69.0,1.6605033874511719
358,2158.0,-1004.0,-64.0,1.0,-10488.0,-3797.0,-3829.0,-11375.0,-62.0,-116.0,-128.0,-73.0,-58.0,-128.0,-22.0,-39.0,1.6689224243164062
359,2158.0,-1004.0,-64.0,1.0,-10488.0,-3797.0,-3829.0,-11375.0,87.0,79.0,-76.0,-128.0,95.0,127.0,68.0,-57.0,1.6707203388214111
360,81.0,-994.0,920.0,1.0,-10459.0,-3829.0,-3686.0,-11438.0,87.0,79.0,-76.0,-128.0,95.0,127.0,68.0,-57.0,1.6834969520568848
361,81.0,-994.0,920.0,1.0,-10459.0,-3829.0,-3686.0,-11438.0,-11.0,36.0,-15.0,72.0,-71.0,36.0,6.0,-120.0,1.6864402294158936
362,81.0,-994.0,920.0,1.0,-10459.0,-3829.0,-3686.0,-11438.0,-63.0,-80.0,-5.0,117.0,-113.0,-118.0,-109.0,-90.0,1.6910121440887451
363,-1438.0,-967.0,542.0,1.0,-10484.0,-3786.0,-3128.0,-11594.0,-63.0,-80.0,-5.0,117.0,-113.0,-118.0,-109.0,-90.0,1.7076845169067383
364,-1438.0,-967.0,542.0,1.0,-10484.0,-3786.0,-3128.0,-11594.0,52.0,18.0,39.0,99.0,14.0,-61.0,-1.0,-59.0,1.711378574371338
365,-1438.0,-967.0,542.0,1.0,-10484.0,-3786.0,-3128.0,-11594.0,42.0,-32.0,-64.0,3.0,-128.0,26.0,-42.0,-54.0,1.714378833770752
366,-303.0,-669.0,872.0,1.0,-10404.0,-3845.0,-2810.0,-11727.0,42.0,-32.0,-64.0,3.0,-128.0,26.0,-42.0,-54.0,1.7216191291809082
367,-303.0,-669.0,872.0,1.0,-10404.0,-3845.0,-2810.0,-11727.0,44.0,39.0,79.0,70.0,-91.0,49.0,-37.0,-128.0,1.7293167114257812
368,-303.0,-669.0,872.0,1.0,-10404.0,-3845.0,-2810.0,-11727.0,-84.0,-1.0,69.0,24.0,88.0,127.0,103.0,127.0,1.7322325706481934
369,1127.0,-835.0,1257.0,1.0,-10213.0,-4143.0,-2818.0,-11792.0,-84.0,-1.0,69.0,24.0,88.0,127.0,103.0,127.0,1.7438397407531738
370,1127.0,-835.0,1257.0,1.0,-10213.0,-4143.0,-2818.0,-11792.0,47.0,104.0,-108.0,13.0,37.0,-16.0,-38.0,-35.0,1.7463304996490479
371,1127.0,-835.0,1257.0,1.0,-10213.0,-4143.0,-2818.0,-11792.0,-60.0,-1.0,0.0,-109.0,-105.0,-61.0,-5.0,26.0,1.7508559226989746
372,37.0,-892.0,1093.0,1.0,-10082.0,-4338.0,-2662.0,-11870.0,-60.0,-1.0,0.0,-109.0,-105.0,-61.0,-5.0,26.0,1.767730712890625
373,37.0,-892.0,1093.0,1.0,-10082.0,-4338.0,-2662.0,-11870.0,113.0,-3.0,81.0,-11.0,-10.0,-11.0,17.0,-53.0,1.7696022987365723
374,37.0,-892.0,1093.0,1.0,-10082.0,-4338.0,-2662.0,-11870.0,-34.0,-101.0,-80.0,-37.0,22.0,-128.0,-9.0,119.0,1.7713587284088135
375,-239.0,-616.0,712.0,1.0,-10005.0,-4431.0,-2465.0,-11944.0,-34.0,-101.0,-80.0,-37.0,22.0,-128.0,-9.0,119.0,1.7835195064544678
376,-239.0,-616.0,712.0,1.0,-10005.0,-4431.0,-2465.0,-11944.0,20.0,-46.0,-89.0,-56.0,45.0,17.0,-32.0,-32.0,1.7889018058776855
377,-239.0,-616.0,712.0,1.0,-10005.0,-4431.0,-2465.0,-11944.0,-18.0,-50.0,-95.0,-70.0,-24.0,-59.0,61.0,-118.0,1.7907078266143799
378,714.0,-214.0,425.0,1.0,-9913.0,-4589.0,-2553.0,-11943.0,-18.0,-50.0,-95.0,-70.0,-24.0,-59.0,61.0,-118.0,1.8035340309143066
379,714.0,-214.0,425.0,1.0,-9913.0,-4589.0,-2553.0,-11943.0,27.0,-9.0,-20.0,22.0,-11.0,-128.0,-128.0,-91.0,1.8054344654083252
380,714.0,-214.0,425.0,1.0,-9913.0,-4589.0,-2553.0,-11943.0,49.0,-43.0,-102.0,-76.0,-30.0,62.0,18.0,-42.0,1.8111145496368408
381,474.0,41.0,-66.0,1.0,-9886.0,-4695.0,-2700.0,-11892.0,49.0,-43.0,-102.0,-76.0,-30.0,62.0,18.0,-42.0,1.8268983364105225
382,474.0,41.0,-66.0,1.0,-9886.0,-4695.0,-2700.0,-11892.0,18.0,33.0,70.0,9.0,-26.0,-7.0,-75.0,-107.0,1.8289759159088135
383,474.0,41.0,-66.0,1.0,-9886.0,-4695.0,-2700.0,-11892.0,-35.0,82.0,127.0,4.0,-67.0,-87.0,-84.0,37.0,1.8307881355285645
384,68.0,79.0,-352.0,1.0,-9908.0,-4734.0,-2739.0,-11848.0,-35.0,82.0,127.0,4.0,-67.0,-87.0,-84.0,37.0,1.8418834209442139
385,68.0,79.0,-352.0,1.0,-9908.0,-4734.0,-2739.0,-11848.0,-74.0,-29.0,21.0,9.0,84.0,3.0,102.0,127.0,1.8504002094268799
386,68.0,79.0,-352.0,1.0,-9908.0,-4734.0,-2739.0,-11848.0,-7.0,-48.0,-99.0,24.0,113.0,-51.0,-52.0,-113.0,1.8533082008361816
387,348.0,116.0,-349.0,1.0,-9916.0,-4792.0,-2813.0,-11801.0,-7.0,-48.0,-99.0,24.0,113.0,-51.0,-52.0,-113.0,1.8794705867767334
388,348.0,116.0,-349.0,1.0,-9916.0,-4792.0,-2813.0,-11801.0,27.0,-4.0,-51.0,15.0,65.0,-14.0,-4.0,-81.0,1.8870174884796143
389,374.0,79.0,-276.0,1.0,-9925.0,-4845.0,-2938.0,-11741.0,27.0,-4.0,-51.0,15.0,65.0,-14.0,-4.0,-81.0,1.8887627124786377
390,374.0,79.0,-276.0,1.0,-9925.0,-4845.0,-2938.0,-11741.0,58.0,-38.0,-50.0,12.0,105.0,-3.0,18.0,36.0,1.8905885219573975
391,56.0,26.0,-189.0,1.0,-9944.0,-4850.0,-2974.0,-11714.0,58.0,-38.0,-50.0,12.0,105.0,-3.0,18.0,36.0,1.9096803665161133
392,56.0,26.0,-189.0,1.0,-9944.0,-4850.0,-2974.0,-11714.0,43.0,26.0,-28.0,-47.0,-28.0,-35.0,-14.0,-12.0,1.9132740497589111
393,56.0,26.0,-189.0,1.0,-9944.0,-4850.0,-2974.0,-11714.0,120.0,82.0,11.0,-21.0,16.0,0.0,27.0,-128.0,1.917447566986084
394,-149.0,-44.0,53.0,1.0,-9942.0,-4852.0,-2941.0,-11723.0,120.0,82.0,11.0,-21.0,16.0,0.0,27.0,-128.0,1.9313228130340576
395,-149.0,-44.0,53.0,1.0,-9942.0,-4852.0,-2941.0,-11723.0,-44.0,-10.0,26.0,-91.0,-128.0,-11.0,-29.0,42.0,1.9389569759368896
396,-149.0,-44.0,53.0,1.0,-9942.0,-4852.0,-2941.0,-11723.0,-40.0,-26.0,-86.0,-63.0,-26.0,33.0,22.0,-24.0,1.9407000541687012
397,-270.0,-31.0,66.0,1.0,-9937.0,-4852.0,-2870.0,-11745.0,-40.0,-26.0,-86.0,-63.0,-26.0,33.0,22.0,-24.0,1.9629542827606201
398,-270.0,-31.0,66.0,1.0,-9937.0,-4852.0,-2870.0,-11745.0,-67.0,-57.0,97.0,104.0,55.0,111.0,6.0,-81.0,1.9675350189208984
399,-270.0,-31.0,66.0,1.0,-9937.0,-4852.0,-2870.0,-11745.0,-13.0,-21.0,-66.0,-30.0,-19.0,71.0,22.0,106.0,1.9711644649505615
400,122.0,-32.0,48.0,1.0,-9919.0,-4881.0,-2858.0,-11751.0,-13.0,-21.0,-66.0,-30.0,-19.0,71.0,22.0,106.0,1.9837861061096191
401,150.0,-53.0,118.0,1.0,-9897.0,-4917.0,-2888.0,-11747.0,-13.0,-21.0,-66.0,-30.0,-19.0,71.0,22.0,106.0,1.986097812652588
402,150.0,-53.0,118.0,1.0,-9897.0,-4917.0,-2888.0,-11747.0,-38.0,48.0,11.0,-104.0,58.0,103.0,120.0,127.0,1.9920098781585693
403,150.0,-53.0,118.0,1.0,-9897.0,-4917.0,-2888.0,-11747.0,108.0,87.0,67.0,64.0,-79.0,68.0,-4.0,-96.0,1.9957354068756104
404,-84.0,-45.0,183.0,1.0,-9874.0,-4938.0,-2870.0,-11762.0,108.0,87.0,67.0,64.0,-79.0,68.0,-4.0,-96.0,2.015904664993286
405,-84.0,-45.0,183.0,1.0,-9874.0,-4938.0,-2870.0,-11762.0,48.0,-26.0,-74.0,-15.0,-25.0,-81.0,-68.0,-45.0,2.020016670227051
406,-84.0,-45.0,183.0,1.0,-9874.0,-4938.0,-2870.0,-11762.0,-90.0,1.0,15.0,5.0,8.0,-77.0,-25.0,-99.0,2.022864818572998
407,72.0,-26.0,124.0,1.0,-9846.0,-4973.0,-2857.0,-11774.0,-90.0,1.0,15.0,5.0,8.0,-77.0,-25.0,-99.0,2.0368356704711914
408,72.0,-26.0,124.0,1.0,-9846.0,-4973.0,-2857.0,-11774.0,-35.0,-24.0,-66.0,-79.0,-9.0,100.0,89.0,109.0,2.0386745929718018
409,72.0,-26.0,124.0,1.0,-9846.0,-4973.0,-2857.0,-11774.0,18.0,-53.0,-39.0,-18.0,22.0,93.0,9.0,125.0,2.040410041809082
410,246.0,-17.0,34.0,1.0,-9823.0,-5022.0,-2893.0,-11763.0,18.0,-53.0,-39.0,-18.0,22.0,93.0,9.0,125.0,2.059528350830078
411,246.0,-17.0,34.0,1.0,-9823.0,-5022.0,-2893.0,-11763.0,-13.0,35.0,15.0,-4.0,86.0,-55.0,-23.0,-37.0,2.0687811374664307
412,164.0,-35.0,42.0,1.0,-9806.0,-5063.0,-2926.0,-11752.0,-13.0,35.0,15.0,-4.0,86.0,-55.0,-23.0,-37.0,2.0713424682617188
413,164.0,-35.0,42.0,1.0,-9806.0,-5063.0,-2926.0,-11752.0,53.0,40.0,46.0,-16.0,93.0,127.0,86.0,81.0,2.0732030868530273
414,74.0,-9.0,32.0,1.0,-9795.0,-5085.0,-2944.0,-11747.0,53.0,40.0,46.0,-16.0,93.0,127.0,86.0,81.0,2.0907015800476074
415,74.0,-9.0,32.0,1.0,-9795.0,-5085.0,-2944.0,-11747.0,-55.0,36.0,4.0,24.0,-44.0,-46.0,22.0,18.0,2.0939812660217285
416,74.0,-9.0,32.0,1.0,-9795.0,-5085.0,-2944.0,-11747.0,-27.0,-19.0,-33.0,114.0,51.0,24.0,27.0,96.0,2.0970606803894043
417,229.0,-9.0,-64.0,1.0,-9788.0,-5122.0,-2990.0,-11726.0,-27.0,-19.0,-33.0,114.0,51.0,24.0,27.0,96.0,2.1124155521392822
418,229.0,-9.0,-64.0,1.0,-9788.0,-5122.0,-2990.0,-11726.0,72.0,-36.0,-83.0,-84.0,-109.0,2.0,-103.0,-128.0,2.115562677383423
419,229.0,-9.0,-64.0,1.0,-9788.0,-5122.0,-2990.0,-11726.0,-29.0,-6.0,-36.0,-7.0,28.0,-3.0,-68.0,-73.0,2.119938611984253
420,254.0,-33.0,-70.0,1.0,-9782.0,-5162.0,-3043.0,-11699.0,-29.0,-6.0,-36.0,-7.0,28.0,-3.0,-68.0,-73.0,2.1351354122161865
421,254.0,-33.0,-70.0,1.0,-9782.0,-5162.0,-3043.0,-11699.0,-29.0,-57.0,-2.0,79.0,23.0,-40.0,48.0,-51.0,2.138944625854492
422,254.0,-33.0,-70.0,1.0,-9782.0,-5162.0,-3043.0,-11699.0,3.0,-26.0,41.0,67.0,45.0,-57.0,-39.0,-88.0,2.142583131790161
423,160.0,-69.0,-22.0,1.0,-9777.0,-5197.0,-3079.0,-11678.0,3.0,-26.0,41.0,67.0,45.0,-57.0,-39.0,-88.0,2.164323568344116
424,160.0,-69.0,-22.0,1.0,-9777.0,-5197.0,-3079.0,-11678.0,-65.0,9.0,5.0,-124.0,-72.0,-99.0,-31.0,-83.0,2.1680808067321777
425,160.0,-69.0,-22.0,1.0,-9777.0,-5197.0,-3079.0,-11678.0,4.0,-16.0,-4.0,61.0,-26.0,-98.0,-11.0,-48.0,2.1714603900909424
426,111.0,-84.0,-21.0,1.0,-9775.0,-5226.0,-3094.0,-11664.0,4.0,-16.0,-4.0,61.0,-26.0,-98.0,-11.0,-48.0,2.187537670135498
427,154.0,-100.0,-36.0,1.0,-9771.0,-5260.0,-3100.0,-11650.0,4.0,-16.0,-4.0,61.0,-26.0,-98.0,-11.0,-48.0,2.1893980503082275
428,154.0,-100.0,-36.0,1.0,-9771.0,-5260.0,-3100.0,-11650.0,3.0,5.0,-58.0,-67.0,2.0,-44.0,30.0,53.0,2.1912693977355957
429,154.0,-100.0,-36.0,1.0,-9771.0,-5260.0,-3100.0,-11650.0,-18.0,13.0,36.0,1.0,-15.0,-46.0,23.0,127.0,2.193074941635132
430,154.0,-100.0,-36.0,1.0,-9771.0,-5260.0,-3100.0,-11650.0,-90.0,-38.0,-75.0,-37.0,-12.0,22.0,-35.0,-54.0,2.1951239109039307
431,154.0,-100.0,-36.0,1.0,-9771.0,-5260.0,-3100.0,-11650.0,-6.0,12.0,88.0,42.0,23.0,71.0,26.0,-30.0,2.1969077587127686
432,197.0,-143.0,-35.0,1.0,-9767.0,-5304.0,-3116.0,-11629.0,-6.0,12.0,88.0,42.0,23.0,71.0,26.0,-30.0,2.2173120975494385
433,197.0,-143.0,-35.0,1.0,-9767.0,-5304.0,-3116.0,-11629.0,-33.0,-12.0,-42.0,-14.0,68.0,-27.0,-20.0,88.0,2.2191927433013916
434,197.0,-143.0,-35.0,1.0,-9767.0,-5304.0,-3116.0,-11629.0,-1.0,11.0,23.0,-5.0,-57.0,-14.0,61.0,127.0,2.220956563949585
435,107.0,-169.0,-20.0,1.0,-9766.0,-5342.0,-3114.0,-11612.0,-1.0,11.0,23.0,-5.0,-57.0,-14.0,61.0,127.0,2.238557815551758
436,107.0,-169.0,-20.0,1.0,-9766.0,-5342.0,-3114.0,-11612.0,11.0,14.0,38.0,-26.0,47.0,94.0,73.0,127.0,2.255870819091797
437,74.0,-190.0,-9.0,1.0,-9765.0,-5382.0,-3092.0,-11601.0,11.0,14.0,38.0,-26.0,47.0,94.0,73.0,127.0,2.2598114013671875
438,74.0,-190.0,-9.0,1.0,-9765.0,-5382.0,-3092.0,-11601.0,6.0,-14.0,21.0,-59.0,-3.0,-43.0,13.0,-50.0,2.2641491889953613
439,70.0,-172.0,43.0,1.0,-9755.0,-5419.0,-3054.0,-11602.0,6.0,-14.0,21.0,-59.0,-3.0,-43.0,13.0,-50.0,2.26924729347229
440,70.0,-172.0,43.0,1.0,-9755.0,-5419.0,-3054.0,-11602.0,33.0,10.0,12.0,40.0,38.0,37.0,20.0,27.0,2.2721025943756104
441,70.0,-172.0,43.0,1.0,-9755.0,-5419.0,-3054.0,-11602.0,15.0,-3.0,-32.0,-45.0,-14.0,-30.0,-29.0,-99.0,2.274374008178711
442,148.0,-217.0,56.0,1.0,-9737.0,-5480.0,-3027.0,-11596.0,15.0,-3.0,-32.0,-45.0,-14.0,-30.0,-29.0,-99.0,2.291886329650879
443,148.0,-217.0,56.0,1.0,-9737.0,-5480.0,-3027.0,-11596.0,14.0,8.0,20.0,19.0,-29.0,-45.0,5.0,10.0,2.294542074203491
444,148.0,-217.0,56.0,1.0,-9737.0,-5480.0,-3027.0,-11596.0,-9.0,17.0,15.0,6.0,-21.0,4.0,-19.0,-38.0,2.2977356910705566
445,164.0,-264.0,-47.0,1.0,-9729.0,-5550.0,-2995.0,-11577.0,-9.0,17.0,15.0,6.0,-21.0,4.0,-19.0,-38.0,2.3140361309051514
446,164.0,-264.0,-47.0,1.0,-9729.0,-5550.0,-2995.0,-11577.0,29.0,-6.0,-13.0,78.0,2.0,37.0,12.0,10.0,2.3224666118621826
447,164.0,-264.0,-47.0,1.0,-9729.0,-5550.0,-2995.0,-11577.0,-1.0,13.0,-2.0,10.0,14.0,6.0,-13.0,-11.0,2.325716257095337
448,159.0,-281.0,-63.0,1.0,-9720.0,-5629.0,-2951.0,-11559.0,-1.0,13.0,-2.0,10.0,14.0,6.0,-13.0,-11.0,2.3453121185302734
449,222.0,-280.0,-118.0,1.0,-9712.0,-5711.0,-2910.0,-11535.0,-1.0,13.0,-2.0,10.0,14.0,6.0,-13.0,-11.0,2.3496081829071045
450,222.0,-280.0,-118.0,1.0,-9712.0,-5711.0,-2910.0,-11535.0,0.0,4.0,11.0,31.0,10.0,8.0,1.0,46.0,2.3535187244415283
451,222.0,-280.0,-118.0,1.0,-9712.0,-5711.0,-2910.0,-11535.0,6.0,-7.0,-51.0,-24.0,-45.0,77.0,29.0,99.0,2.3571202754974365
452,383.0,-322.0,-88.0,1.0,-9689.0,-5828.0,-2905.0,-11497.0,6.0,-7.0,-51.0,-24.0,-45.0,77.0,29.0,99.0,2.366320848464966
453,383.0,-322.0,-88.0,1.0,-9689.0,-5828.0,-2905.0,-11497.0,7.0,1.0,8.0,9.0,-5.0,-5.0,-1.0,-41.0,2.374372720718384
454,383.0,-322.0,-88.0,1.0,-9689.0,-5828.0,-2905.0,-11497.0,2.0,3.0,-20.0,-58.0,9.0,20.0,-5.0,0.0,2.377378463745117
455,383.0,-322.0,-88.0,1.0,-9689.0,-5828.0,-2905.0,-11497.0,6.0,7.0,5.0,-14.0,-13.0,-3.0,-4.0,-14.0,2.382258415222168
456,383.0,-322.0,-88.0,1.0,-9689.0,-5828.0,-2905.0,-11497.0,-5.0,-4.0,-12.0,-6.0,-23.0,-22.0,-9.0,-33.0,2.3853743076324463
457,397.0,-407.0,-6.0,1.0,-9662.0,-5955.0,-2901.0,-11456.0,-5.0,-4.0,-12.0,-6.0,-23.0,-22.0,-9.0,-33.0,2.389310359954834
458,397.0,-407.0,-6.0,1.0,-9662.0,-5955.0,-2901.0,-11456.0,5.0,2.0,24.0,18.0,6.0,-15.0,-4.0,-21.0,2.3912103176116943
459,397.0,-407.0,-6.0,1.0,-9662.0,-5955.0,-2901.0,-11456.0,-1.0,1.0,9.0,21.0,11.0,-7.0,-4.0,-18.0,2.393448829650879
460,397.0,-407.0,-6.0,1.0,-9662.0,-5955.0,-2901.0,-11456.0,2.0,-7.0,4.0,11.0,17.0,8.0,5.0,7.0,2.3959081172943115
461,397.0,-407.0,-6.0,1.0,-9662.0,-5955.0,-2901.0,-11456.0,-1.0,-2.0,3.0,18.0,-4.0,-1.0,-8.0,-8.0,2.398869752883911
462,397.0,-407.0,-6.0,1.0,-9662.0,-5955.0,-2901.0,-11456.0,5.0,-3.0,-32.0,-24.0,-29.0,1.0,0.0,-12.0,2.4034981727600098
463,397.0,-407.0,-6.0,1.0,-9662.0,-5955.0,-2901.0,-11456.0,-2.0,1.0,2.0,18.0,-3.0,-18.0,-3.0,-32.0,2.4052934646606445
464,568.0,-477.0,33.0,1.0,-9619.0,-6105.0,-2900.0,-11413.0,-2.0,1.0,2.0,18.0,-3.0,-18.0,-3.0,-32.0,2.4119436740875244
465,568.0,-477.0,33.0,1.0,-9619.0,-6105.0,-2900.0,-11413.0,2.0,7.0,40.0,3.0,5.0,1.0,1.0,-8.0,2.413830041885376
466,568.0,-477.0,33.0,1.0,-9619.0,-6105.0,-2900.0,-11413.0,-2.0,-13.0,-13.0,0.0,6.0,-5.0,-1.0,0.0,2.41560959815979
467,568.0,-477.0,33.0,1.0,-9619.0,-6105.0,-2900.0,-11413.0,4.0,-12.0,-6.0,19.0,14.0,-2.0,0.0,2.0,2.4182300567626953
468,568.0,-477.0,33.0,1.0,-9619.0,-6105.0,-2900.0,-11413.0,-1.0,14.0,48.0,25.0,-21.0,10.0,-1.0,-8.0,2.4200451374053955
469,943.0,-593.0,5.0,1.0,-9555.0,-6310.0,-2929.0,-11348.0,-1.0,14.0,48.0,25.0,-21.0,10.0,-1.0,-8.0,2.427462100982666
470,943.0,-593.0,5.0,1.0,-9555.0,-6310.0,-2929.0,-11348.0,-5.0,-6.0,-13.0,35.0,-9.0,2.0,-1.0,-5.0,2.429673671722412
471,943.0,-593.0,5.0,1.0,-9555.0,-6310.0,-2929.0,-11348.0,-4.0,1.0,-38.0,40.0,13.0,-9.0,-4.0,-1.0,2.4323251247406006
472,943.0,-593.0,5.0,1.0,-9555.0,-6310.0,-2929.0,-11348.0,2.0,11.0,12.0,20.0,-1.0,0.0,1.0,4.0,2.434187173843384
473,943.0,-593.0,5.0,1.0,-9555.0,-6310.0,-2929.0,-11348.0,-7.0,-23.0,-32.0,-23.0,5.0,-7.0,-3.0,-16.0,2.4359538555145264
474,1363.0,-755.0,-80.0,1.0,-9470.0,-6598.0,-3031.0,-11228.0,-7.0,-23.0,-32.0,-23.0,5.0,-7.0,-3.0,-16.0,2.449475049972534
475,1363.0,-755.0,-80.0,1.0,-9470.0,-6598.0,-3031.0,-11228.0,7.0,37.0,16.0,14.0,1.0,-7.0,-1.0,-5.0,2.452582836151123
476,1363.0,-755.0,-80.0,1.0,-9470.0,-6598.0,-3031.0,-11228.0,0.0,1.0,27.0,3.0,-4.0,-20.0,-7.0,-2.0,2.4567458629608154
477,1221.0,-870.0,92.0,1.0,-9378.0,-6889.0,-3113.0,-11107.0,0.0,1.0,27.0,3.0,-4.0,-20.0,-7.0,-2.0,2.4634008407592773
478,1221.0,-870.0,92.0,1.0,-9378.0,-6889.0,-3113.0,-11107.0,-3.0,-18.0,-42.0,-37.0,-5.0,0.0,0.0,1.0,2.471341848373413
479,1221.0,-870.0,92.0,1.0,-9378.0,-6889.0,-3113.0,-11107.0,3.0,25.0,18.0,-26.0,9.0,-4.0,0.0,5.0,2.473142623901367
480,844.0,-1015.0,286.0,1.0,-9300.0,-7151.0,-3119.0,-11005.0,3.0,25.0,18.0,-26.0,9.0,-4.0,0.0,5.0,2.4878900051116943
481,844.0,-1015.0,286.0,1.0,-9300.0,-7151.0,-3119.0,-11005.0,1.0,9.0,68.0,33.0,8.0,-4.0,-1.0,-2.0,2.491760492324829
482,844.0,-1015.0,286.0,1.0,-9300.0,-7151.0,-3119.0,-11005.0,-2.0,-14.0,4.0,23.0,6.0,1.0,1.0,3.0,2.501643419265747
483,536.0,-1126.0,409.0,1.0,-9235.0,-7377.0,-3039.0,-10933.0,-2.0,-14.0,4.0,23.0,6.0,1.0,1.0,3.0,2.5092482566833496
484,536.0,-1126.0,409.0,1.0,-9235.0,-7377.0,-3039.0,-10933.0,-1.0,2.0,-3.0,-21.0,-1.0,10.0,-1.0,1.0,2.5113654136657715
485,536.0,-1126.0,409.0,1.0,-9235.0,-7377.0,-3039.0,-10933.0,-1.0,13.0,-20.0,1.0,-43.0,8.0,0.0,6.0,2.5131826400756836
486,807.0,-1250.0,443.0,1.0,-9153.0,-7626.0,-2966.0,-10851.0,-1.0,13.0,-20.0,1.0,-43.0,8.0,0.0,6.0,2.532466173171997
487,807.0,-1250.0,443.0,1.0,-9153.0,-7626.0,-2966.0,-10851.0,-8.0,-12.0,-48.0,10.0,3.0,-1.0,0.0,-6.0,2.535496473312378
488,807.0,-1250.0,443.0,1.0,-9153.0,-7626.0,-2966.0,-10851.0,-3.0,-5.0,-2.0,12.0,12.0,-10.0,1.0,1.0,2.538644790649414
489,1192.0,-1306.0,495.0,1.0,-9049.0,-7914.0,-2980.0,-10727.0,-3.0,-5.0,-2.0,12.0,12.0,-10.0,1.0,1.0,2.5463507175445557
490,1192.0,-1306.0,495.0,1.0,-9049.0,-7914.0,-2980.0,-10727.0,-4.0,-30.0,7.0,29.0,-1.0,-6.0,-3.0,-2.0,2.549311876296997
491,1192.0,-1306.0,495.0,1.0,-9049.0,-7914.0,-2980.0,-10727.0,-2.0,4.0,21.0,-35.0,0.0,21.0,-1.0,5.0,2.5525612831115723
492,656.0,-1270.0,738.0,1.0,-8957.0,-8156.0,-2913.0,-10642.0,-2.0,4.0,21.0,-35.0,0.0,21.0,-1.0,5.0,2.570187568664551
493,656.0,-1270.0,738.0,1.0,-8957.0,-8156.0,-2913.0,-10642.0,-4.0,3.0,8.0,2.0,26.0,3.0,-3.0,-13.0,2.5732226371765137
494,656.0,-1270.0,738.0,1.0,-8957.0,-8156.0,-2913.0,-10642.0,0.0,-3.0,-31.0,-16.0,20.0,-11.0,-3.0,-18.0,2.576101064682007
495,250.0,-1151.0,791.0,1.0,-8879.0,-8341.0,-2766.0,-10602.0,0.0,-3.0,-31.0,-16.0,20.0,-11.0,-3.0,-18.0,2.58483624458313
496,250.0,-1151.0,791.0,1.0,-8879.0,-8341.0,-2766.0,-10602.0,3.0,-2.0,-15.0,-56.0,-6.0,-11.0,-2.0,8.0,2.5914878845214844
497,250.0,-1151.0,791.0,1.0,-8879.0,-8341.0,-2766.0,-10602.0,3.0,5.0,11.0,78.0,31.0,-6.0,-3.0,4.0,2.593312978744507
498,477.0,-1102.0,583.0,1.0,-8796.0,-8535.0,-2655.0,-10545.0,3.0,5.0,11.0,78.0,31.0,-6.0,-3.0,4.0,2.6067323684692383
499,477.0,-1102.0,583.0,1.0,-8796.0,-8535.0,-2655.0,-10545.0,-4.0,-4.0,-14.0,-13.0,-13.0,-19.0,-3.0,-8.0,2.6103105545043945
