,Gyro 0,Gyro 1,Gyro 2,Label,Orientation 0,Orientation 1,Orientation 2,Orientation 3,Sensor 0,Sensor 1,Sensor 2,Sensor 3,Sensor 4,Sensor 5,Sensor 6,Sensor 7,Timestamp
0,-49.0,-73.0,20.0,1.0,-8633.0,-10050.0,-1400.0,-9537.0,-2.0,0.0,9.0,-10.0,2.0,34.0,9.0,1.0,2.384185791015625e-06
1,-49.0,-73.0,20.0,1.0,-8633.0,-10050.0,-1400.0,-9537.0,-2.0,3.0,-6.0,-19.0,4.0,2.0,9.0,-3.0,0.002135038375854492
2,-41.0,-50.0,13.0,1.0,-8637.0,-10052.0,-1389.0,-9534.0,-2.0,3.0,-6.0,-19.0,4.0,2.0,9.0,-3.0,0.003971099853515625
3,-41.0,-50.0,13.0,1.0,-8637.0,-10052.0,-1389.0,-9534.0,2.0,2.0,-10.0,10.0,9.0,-2.0,17.0,-11.0,0.006134748458862305
4,-41.0,-50.0,13.0,1.0,-8637.0,-10052.0,-1389.0,-9534.0,-1.0,30.0,-10.0,3.0,-18.0,8.0,8.0,-4.0,0.010255813598632812
5,-47.0,-37.0,2.0,1.0,-8641.0,-10053.0,-1379.0,-9531.0,-1.0,30.0,-10.0,3.0,-18.0,8.0,8.0,-4.0,0.012830018997192383
6,-47.0,-37.0,2.0,1.0,-8641.0,-10053.0,-1379.0,-9531.0,-2.0,-1.0,7.0,12.0,10.0,31.0,6.0,2.0,0.014743804931640625
7,-47.0,-37.0,2.0,1.0,-8641.0,-10053.0,-1379.0,-9531.0,-2.0,-18.0,-8.0,0.0,16.0,-12.0,-5.0,14.0,0.016834020614624023
8,-31.0,-7.0,-13.0,1.0,-8644.0,-10051.0,-1375.0,-9530.0,-2.0,-18.0,-8.0,0.0,16.0,-12.0,-5.0,14.0,0.018688678741455078
9,-31.0,-7.0,-13.0,1.0,-8644.0,-10051.0,-1375.0,-9530.0,-4.0,8.0,-13.0,-7.0,-23.0,-16.0,-4.0,-2.0,0.020672082901000977
10,-31.0,-7.0,-13.0,1.0,-8644.0,-10051.0,-1375.0,-9530.0,-1.0,27.0,-5.0,-5.0,-36.0,-20.0,4.0,-9.0,0.02310943603515625
11,-37.0,9.0,-19.0,1.0,-8649.0,-10047.0,-1372.0,-9531.0,-1.0,27.0,-5.0,-5.0,-36.0,-20.0,4.0,-9.0,0.0258944034576416
12,-37.0,9.0,-19.0,1.0,-8649.0,-10047.0,-1372.0,-9531.0,1.0,-29.0,-7.0,-44.0,19.0,-17.0,12.0,1.0,0.027873516082763672
13,-37.0,9.0,-19.0,1.0,-8649.0,-10047.0,-1372.0,-9531.0,-4.0,-39.0,-8.0,11.0,28.0,-5.0,-22.0,-7.0,0.029665231704711914
14,-26.0,11.0,-14.0,1.0,-8652.0,-10045.0,-1372.0,-9530.0,-4.0,-39.0,-8.0,11.0,28.0,-5.0,-22.0,-7.0,0.03145289421081543
15,-26.0,11.0,-14.0,1.0,-8652.0,-10045.0,-1372.0,-9530.0,-3.0,3.0,3.0,9.0,-1.0,-13.0,-14.0,-2.0,0.03335714340209961
16,-26.0,11.0,-14.0,1.0,-8652.0,-10045.0,-1372.0,-9530.0,4.0,5.0,13.0,7.0,6.0,15.0,2.0,1.0,0.035268306732177734
17,-43.0,-5.0,-3.0,1.0,-8655.0,-10045.0,-1368.0,-9528.0,4.0,5.0,13.0,7.0,6.0,15.0,2.0,1.0,0.03806567192077637
18,-43.0,-5.0,-3.0,1.0,-8655.0,-10045.0,-1368.0,-9528.0,-5.0,-5.0,-24.0,10.0,2.0,13.0,-2.0,-14.0,0.040140628814697266
19,-43.0,-5.0,-3.0,1.0,-8655.0,-10045.0,-1368.0,-9528.0,3.0,-4.0,-11.0,15.0,0.0,-14.0,6.0,2.0,0.04194808006286621
20,-52.0,-10.0,8.0,1.0,-8658.0,-10043.0,-1360.0,-9528.0,3.0,-4.0,-11.0,15.0,0.0,-14.0,6.0,2.0,0.04375624656677246
21,-52.0,-10.0,8.0,1.0,-8658.0,-10043.0,-1360.0,-9528.0,-3.0,-2.0,0.0,-13.0,-13.0,-16.0,-2.0,-2.0,0.045592308044433594
22,-52.0,-10.0,8.0,1.0,-8658.0,-10043.0,-1360.0,-9528.0,0.0,24.0,54.0,3.0,9.0,2.0,6.0,-4.0,0.04736781120300293
23,-37.0,0.0,11.0,1.0,-8660.0,-10042.0,-1355.0,-9529.0,0.0,24.0,54.0,3.0,9.0,2.0,6.0,-4.0,0.04919600486755371
24,-37.0,0.0,11.0,1.0,-8660.0,-10042.0,-1355.0,-9529.0,2.0,8.0,17.0,3.0,5.0,0.0,10.0,3.0,0.0514531135559082
25,-37.0,0.0,11.0,1.0,-8660.0,-10042.0,-1355.0,-9529.0,-3.0,-15.0,-23.0,-4.0,16.0,4.0,-7.0,-3.0,0.053863525390625
26,-12.0,-6.0,-5.0,1.0,-8659.0,-10043.0,-1355.0,-9529.0,-3.0,-15.0,-23.0,-4.0,16.0,4.0,-7.0,-3.0,0.05649089813232422
27,-12.0,-6.0,-5.0,1.0,-8659.0,-10043.0,-1355.0,-9529.0,3.0,5.0,18.0,12.0,-6.0,9.0,-2.0,8.0,0.05851316452026367
28,-12.0,-6.0,-5.0,1.0,-8659.0,-10043.0,-1355.0,-9529.0,-1.0,-5.0,-21.0,-5.0,-12.0,3.0,-4.0,-3.0,0.0603177547454834
29,-45.0,-5.0,-15.0,1.0,-8663.0,-10042.0,-1350.0,-9526.0,-1.0,-5.0,-21.0,-5.0,-12.0,3.0,-4.0,-3.0,0.06211972236633301
30,-45.0,-5.0,-15.0,1.0,-8663.0,-10042.0,-1350.0,-9526.0,-2.0,-7.0,-70.0,-12.0,11.0,-5.0,-6.0,0.0,0.06402206420898438
31,-45.0,-5.0,-15.0,1.0,-8663.0,-10042.0,-1350.0,-9526.0,0.0,-26.0,-6.0,-44.0,-1.0,2.0,1.0,10.0,0.06578183174133301
32,-8.0,-20.0,-19.0,1.0,-8667.0,-10042.0,-1350.0,-9523.0,0.0,-26.0,-6.0,-44.0,-1.0,2.0,1.0,10.0,0.06757640838623047
33,-8.0,-20.0,-19.0,1.0,-8667.0,-10042.0,-1350.0,-9523.0,10.0,89.0,11.0,13.0,-12.0,-7.0,3.0,5.0,0.0693972110748291
34,-8.0,-20.0,-19.0,1.0,-8667.0,-10042.0,-1350.0,-9523.0,3.0,71.0,10.0,15.0,10.0,9.0,13.0,-9.0,0.0724339485168457
35,15.0,-21.0,-22.0,1.0,-8667.0,-10047.0,-1353.0,-9517.0,3.0,71.0,10.0,15.0,10.0,9.0,13.0,-9.0,0.07433128356933594
36,15.0,-21.0,-22.0,1.0,-8667.0,-10047.0,-1353.0,-9517.0,16.0,77.0,34.0,5.0,-1.0,6.0,3.0,-6.0,0.07619309425354004
37,15.0,-21.0,-22.0,1.0,-8667.0,-10047.0,-1353.0,-9517.0,-23.0,-118.0,-10.0,-12.0,-12.0,-4.0,-7.0,-6.0,0.07796120643615723
38,-22.0,-16.0,-20.0,1.0,-8672.0,-10047.0,-1353.0,-9513.0,-23.0,-118.0,-10.0,-12.0,-12.0,-4.0,-7.0,-6.0,0.07971453666687012
39,-22.0,-16.0,-20.0,1.0,-8672.0,-10047.0,-1353.0,-9513.0,-30.0,-128.0,-15.0,-9.0,-4.0,-2.0,-2.0,-4.0,0.08154177665710449
40,-22.0,-16.0,-20.0,1.0,-8672.0,-10047.0,-1353.0,-9513.0,-9.0,-128.0,-22.0,-9.0,-2.0,1.0,5.0,0.0,0.0835564136505127
41,-45.0,-8.0,-7.0,1.0,-8677.0,-10045.0,-1348.0,-9511.0,-9.0,-128.0,-22.0,-9.0,-2.0,1.0,5.0,0.0,0.0860750675201416
42,-45.0,-8.0,-7.0,1.0,-8677.0,-10045.0,-1348.0,-9511.0,-2.0,-78.0,19.0,14.0,3.0,-1.0,-7.0,-2.0,0.08956265449523926
43,-45.0,-8.0,-7.0,1.0,-8677.0,-10045.0,-1348.0,-9511.0,10.0,38.0,31.0,-7.0,-6.0,-9.0,-3.0,12.0,0.09148502349853516
44,-35.0,-4.0,-9.0,1.0,-8680.0,-10043.0,-1344.0,-9510.0,10.0,38.0,31.0,-7.0,-6.0,-9.0,-3.0,12.0,0.09332704544067383
45,-35.0,-4.0,-9.0,1.0,-8680.0,-10043.0,-1344.0,-9510.0,4.0,5.0,13.0,13.0,-11.0,-4.0,-9.0,4.0,0.09518790245056152
46,-35.0,-4.0,-9.0,1.0,-8680.0,-10043.0,-1344.0,-9510.0,3.0,47.0,-9.0,4.0,-7.0,1.0,-6.0,-14.0,0.09693646430969238
47,-35.0,-4.0,0.0,1.0,-8682.0,-10042.0,-1339.0,-9510.0,3.0,47.0,-9.0,4.0,-7.0,1.0,-6.0,-14.0,0.09867262840270996
48,-35.0,-4.0,0.0,1.0,-8682.0,-10042.0,-1339.0,-9510.0,1.0,8.0,-5.0,-1.0,0.0,9.0,-6.0,7.0,0.10076093673706055
49,-35.0,-4.0,0.0,1.0,-8682.0,-10042.0,-1339.0,-9510.0,3.0,34.0,11.0,5.0,-14.0,-11.0,-12.0,-7.0,0.10252547264099121
50,-12.0,-4.0,-3.0,1.0,-8681.0,-10042.0,-1338.0,-9511.0,3.0,34.0,11.0,5.0,-14.0,-11.0,-12.0,-7.0,0.10428643226623535
51,-12.0,-4.0,-3.0,1.0,-8681.0,-10042.0,-1338.0,-9511.0,-1.0,14.0,-17.0,0.0,-6.0,2.0,0.0,-1.0,0.10610055923461914
52,-12.0,-4.0,-3.0,1.0,-8681.0,-10042.0,-1338.0,-9511.0,-1.0,9.0,-36.0,2.0,0.0,-2.0,5.0,0.0,0.10794663429260254
53,22.0,-9.0,-7.0,1.0,-8679.0,-10045.0,-1338.0,-9511.0,-1.0,9.0,-36.0,2.0,0.0,-2.0,5.0,0.0,0.10968637466430664
54,22.0,-9.0,-7.0,1.0,-8679.0,-10045.0,-1338.0,-9511.0,0.0,19.0,10.0,-26.0,-10.0,-7.0,0.0,-5.0,0.11154365539550781
55,22.0,-9.0,-7.0,1.0,-8679.0,-10045.0,-1338.0,-9511.0,-1.0,5.0,15.0,17.0,-11.0,2.0,4.0,15.0,0.1132805347442627
56,19.0,-8.0,1.0,1.0,-8677.0,-10048.0,-1341.0,-9509.0,-1.0,5.0,15.0,17.0,-11.0,2.0,4.0,15.0,0.11576318740844727
57,19.0,-8.0,1.0,1.0,-8677.0,-10048.0,-1341.0,-9509.0,2.0,0.0,7.0,-15.0,2.0,2.0,2.0,0.0,0.1183769702911377
58,19.0,-8.0,1.0,1.0,-8677.0,-10048.0,-1341.0,-9509.0,2.0,17.0,13.0,7.0,-6.0,2.0,5.0,-2.0,0.12031149864196777
59,-25.0,-1.0,12.0,1.0,-8678.0,-10049.0,-1338.0,-9508.0,2.0,17.0,13.0,7.0,-6.0,2.0,5.0,-2.0,0.12293148040771484
60,-25.0,-1.0,12.0,1.0,-8678.0,-10049.0,-1338.0,-9508.0,0.0,2.0,8.0,3.0,-7.0,4.0,3.0,2.0,0.1250593662261963
61,-25.0,-1.0,12.0,1.0,-8678.0,-10049.0,-1338.0,-9508.0,0.0,4.0,15.0,13.0,5.0,16.0,-4.0,-5.0,0.12686991691589355
62,-28.0,1.0,23.0,1.0,-8678.0,-10047.0,-1333.0,-9510.0,0.0,4.0,15.0,13.0,5.0,16.0,-4.0,-5.0,0.12867403030395508
63,-28.0,1.0,23.0,1.0,-8678.0,-10047.0,-1333.0,-9510.0,-3.0,-11.0,-2.0,6.0,-17.0,-15.0,-1.0,0.0,0.13055944442749023
64,-28.0,1.0,23.0,1.0,-8678.0,-10047.0,-1333.0,-9510.0,-2.0,-6.0,-23.0,4.0,-1.0,-9.0,-2.0,-7.0,0.13237953186035156
65,19.0,-1.0,15.0,1.0,-8673.0,-10050.0,-1333.0,-9511.0,-2.0,-6.0,-23.0,4.0,-1.0,-9.0,-2.0,-7.0,0.1344468593597412
66,19.0,-1.0,15.0,1.0,-8673.0,-10050.0,-1333.0,-9511.0,2.0,14.0,6.0,-5.0,-8.0,1.0,4.0,3.0,0.13630175590515137
67,19.0,-1.0,15.0,1.0,-8673.0,-10050.0,-1333.0,-9511.0,0.0,-3.0,-6.0,-14.0,-2.0,-7.0,-1.0,-1.0,0.1380937099456787
68,23.0,9.0,5.0,1.0,-8670.0,-10053.0,-1337.0,-9511.0,0.0,-3.0,-6.0,-14.0,-2.0,-7.0,-1.0,-1.0,0.13988304138183594
69,23.0,9.0,5.0,1.0,-8670.0,-10053.0,-1337.0,-9511.0,6.0,9.0,28.0,13.0,-13.0,-7.0,-1.0,1.0,0.14175724983215332
70,23.0,9.0,5.0,1.0,-8670.0,-10053.0,-1337.0,-9511.0,-3.0,-59.0,-3.0,0.0,4.0,1.0,-5.0,-1.0,0.1435399055480957
71,0.0,15.0,-5.0,1.0,-8670.0,-10053.0,-1337.0,-9511.0,-3.0,-59.0,-3.0,0.0,4.0,1.0,-5.0,-1.0,0.14599061012268066
72,0.0,15.0,-5.0,1.0,-8670.0,-10053.0,-1337.0,-9511.0,-2.0,-21.0,1.0,-4.0,11.0,3.0,0.0,2.0,0.14854741096496582
73,0.0,15.0,-5.0,1.0,-8670.0,-10053.0,-1337.0,-9511.0,0.0,-10.0,-3.0,0.0,3.0,-5.0,5.0,15.0,0.1504349708557129
74,-15.0,10.0,3.0,1.0,-8670.0,-10053.0,-1337.0,-9511.0,0.0,-10.0,-3.0,0.0,3.0,-5.0,5.0,15.0,0.15228033065795898
75,-15.0,10.0,3.0,1.0,-8670.0,-10053.0,-1337.0,-9511.0,-1.0,18.0,-2.0,-18.0,-9.0,-2.0,-4.0,1.0,0.15499138832092285
76,-15.0,10.0,3.0,1.0,-8670.0,-10053.0,-1337.0,-9511.0,-2.0,10.0,-22.0,-2.0,-4.0,9.0,-2.0,0.0,0.15710949897766113
77,-3.0,-8.0,4.0,1.0,-8669.0,-10053.0,-1336.0,-9511.0,-2.0,10.0,-22.0,-2.0,-4.0,9.0,-2.0,0.0,0.15894198417663574
78,-3.0,-8.0,4.0,1.0,-8669.0,-10053.0,-1336.0,-9511.0,-4.0,-8.0,-25.0,3.0,15.0,14.0,0.0,3.0,0.16086077690124512
79,-3.0,-8.0,4.0,1.0,-8669.0,-10053.0,-1336.0,-9511.0,-1.0,23.0,22.0,4.0,4.0,-4.0,-3.0,-3.0,0.16262269020080566
80,-15.0,-9.0,9.0,1.0,-8669.0,-10054.0,-1337.0,-9510.0,-1.0,23.0,22.0,4.0,4.0,-4.0,-3.0,-3.0,0.16438794136047363
81,-15.0,-9.0,9.0,1.0,-8669.0,-10054.0,-1337.0,-9510.0,-4.0,-17.0,15.0,1.0,-9.0,-31.0,-7.0,-7.0,0.16634607315063477
82,-15.0,-9.0,9.0,1.0,-8669.0,-10054.0,-1337.0,-9510.0,-1.0,2.0,-31.0,0.0,2.0,5.0,0.0,-1.0,0.16823029518127441
83,-17.0,-12.0,6.0,1.0,-8670.0,-10054.0,-1333.0,-9510.0,-1.0,2.0,-31.0,0.0,2.0,5.0,0.0,-1.0,0.1700000762939453
84,-17.0,-12.0,6.0,1.0,-8670.0,-10054.0,-1333.0,-9510.0,-3.0,-12.0,-22.0,5.0,15.0,8.0,0.0,-5.0,0.17183518409729004
85,-17.0,-12.0,6.0,1.0,-8670.0,-10054.0,-1333.0,-9510.0,-2.0,3.0,-15.0,-2.0,3.0,-3.0,-1.0,-6.0,0.17358112335205078
86,-15.0,-12.0,5.0,1.0,-8670.0,-10054.0,-1333.0,-9510.0,-2.0,3.0,-15.0,-2.0,3.0,-3.0,-1.0,-6.0,0.17549943923950195
87,-15.0,-12.0,5.0,1.0,-8670.0,-10054.0,-1333.0,-9510.0,0.0,0.0,8.0,-25.0,13.0,3.0,-6.0,-14.0,0.1788177490234375
88,-15.0,-12.0,5.0,1.0,-8670.0,-10054.0,-1333.0,-9510.0,3.0,5.0,24.0,12.0,9.0,10.0,3.0,-1.0,0.18091106414794922
89,-6.0,-14.0,4.0,1.0,-8670.0,-10054.0,-1333.0,-9510.0,3.0,5.0,24.0,12.0,9.0,10.0,3.0,-1.0,0.18268823623657227
90,-6.0,-14.0,4.0,1.0,-8670.0,-10054.0,-1333.0,-9510.0,-1.0,-7.0,-26.0,16.0,-12.0,-2.0,1.0,9.0,0.18524980545043945
91,-6.0,-14.0,4.0,1.0,-8670.0,-10054.0,-1333.0,-9510.0,-3.0,1.0,-9.0,-13.0,2.0,-6.0,1.0,-7.0,0.18822789192199707
92,21.0,-5.0,-6.0,1.0,-8668.0,-10057.0,-1335.0,-9508.0,-3.0,1.0,-9.0,-13.0,2.0,-6.0,1.0,-7.0,0.19064927101135254
93,21.0,-5.0,-6.0,1.0,-8668.0,-10057.0,-1335.0,-9508.0,-1.0,-1.0,5.0,10.0,6.0,-6.0,0.0,-1.0,0.19313812255859375
94,21.0,-5.0,-6.0,1.0,-8668.0,-10057.0,-1335.0,-9508.0,2.0,21.0,50.0,4.0,-10.0,7.0,-3.0,2.0,0.19536185264587402
95,10.0,-17.0,6.0,1.0,-8666.0,-10061.0,-1335.0,-9506.0,2.0,21.0,50.0,4.0,-10.0,7.0,-3.0,2.0,0.19747304916381836
96,10.0,-17.0,6.0,1.0,-8666.0,-10061.0,-1335.0,-9506.0,-2.0,1.0,28.0,12.0,9.0,6.0,-3.0,2.0,0.19966816902160645
97,10.0,-17.0,6.0,1.0,-8666.0,-10061.0,-1335.0,-9506.0,0.0,1.0,-12.0,-8.0,2.0,-3.0,-2.0,-3.0,0.20174241065979004
98,14.0,-6.0,14.0,1.0,-8666.0,-10061.0,-1335.0,-9506.0,0.0,1.0,-12.0,-8.0,2.0,-3.0,-2.0,-3.0,0.2039344310760498
99,14.0,-6.0,14.0,1.0,-8666.0,-10061.0,-1335.0,-9506.0,-1.0,-8.0,-36.0,-6.0,3.0,2.0,0.0,-2.0,0.20635628700256348
100,14.0,-6.0,14.0,1.0,-8666.0,-10061.0,-1335.0,-9506.0,1.0,5.0,9.0,-12.0,-5.0,-26.0,-6.0,-2.0,0.21128392219543457
101,1.0,3.0,5.0,1.0,-8666.0,-10061.0,-1334.0,-9506.0,1.0,5.0,9.0,-12.0,-5.0,-26.0,-6.0,-2.0,0.2134695053100586
102,1.0,3.0,5.0,1.0,-8666.0,-10061.0,-1334.0,-9506.0,-3.0,-3.0,-12.0,-1.0,-1.0,22.0,-2.0,-14.0,0.21555089950561523
103,1.0,3.0,5.0,1.0,-8666.0,-10061.0,-1334.0,-9506.0,-2.0,-4.0,-15.0,-12.0,-8.0,9.0,3.0,4.0,0.2175147533416748
104,-16.0,10.0,8.0,1.0,-8666.0,-10061.0,-1334.0,-9506.0,-2.0,-4.0,-15.0,-12.0,-8.0,9.0,3.0,4.0,0.2193450927734375
105,-16.0,10.0,8.0,1.0,-8666.0,-10061.0,-1334.0,-9506.0,-1.0,0.0,-27.0,-14.0,-17.0,-11.0,3.0,4.0,0.22272038459777832
106,-16.0,10.0,8.0,1.0,-8666.0,-10061.0,-1334.0,-9506.0,0.0,4.0,14.0,6.0,10.0,-3.0,-6.0,0.0,0.22574687004089355
107,-10.0,14.0,-3.0,1.0,-8666.0,-10060.0,-1334.0,-9507.0,0.0,4.0,14.0,6.0,10.0,-3.0,-6.0,0.0,0.22773051261901855
108,-10.0,14.0,-3.0,1.0,-8666.0,-10060.0,-1334.0,-9507.0,1.0,7.0,72.0,29.0,9.0,24.0,0.0,-2.0,0.2297654151916504
109,-10.0,14.0,-3.0,1.0,-8666.0,-10060.0,-1334.0,-9507.0,2.0,-1.0,-22.0,-8.0,5.0,7.0,11.0,1.0,0.23157882690429688
110,-4.0,6.0,8.0,1.0,-8666.0,-10061.0,-1334.0,-9507.0,2.0,-1.0,-22.0,-8.0,5.0,7.0,11.0,1.0,0.2337656021118164
111,-4.0,6.0,8.0,1.0,-8666.0,-10061.0,-1334.0,-9507.0,-1.0,-5.0,-26.0,-10.0,4.0,-4.0,4.0,2.0,0.23568248748779297
112,-4.0,6.0,8.0,1.0,-8666.0,-10061.0,-1334.0,-9507.0,0.0,0.0,5.0,-2.0,0.0,-5.0,-4.0,-3.0,0.23824787139892578
113,1.0,13.0,7.0,1.0,-8666.0,-10061.0,-1334.0,-9506.0,0.0,0.0,5.0,-2.0,0.0,-5.0,-4.0,-3.0,0.24092817306518555
114,1.0,13.0,7.0,1.0,-8666.0,-10061.0,-1334.0,-9506.0,0.0,1.0,5.0,8.0,6.0,-9.0,-4.0,-6.0,0.24291396141052246
115,1.0,13.0,7.0,1.0,-8666.0,-10061.0,-1334.0,-9506.0,1.0,-5.0,-11.0,0.0,12.0,-25.0,-3.0,4.0,0.24512791633605957
116,3.0,16.0,15.0,1.0,-8664.0,-10061.0,-1336.0,-9508.0,1.0,-5.0,-11.0,0.0,12.0,-25.0,-3.0,4.0,0.2471024990081787
117,3.0,16.0,15.0,1.0,-8664.0,-10061.0,-1336.0,-9508.0,-1.0,-10.0,-21.0,-4.0,-2.0,-8.0,3.0,3.0,0.24898123741149902
118,3.0,16.0,15.0,1.0,-8664.0,-10061.0,-1336.0,-9508.0,-4.0,-8.0,-33.0,-21.0,-5.0,8.0,1.0,0.0,0.2508234977722168
119,-16.0,10.0,14.0,1.0,-8663.0,-10061.0,-1336.0,-9508.0,-4.0,-8.0,-33.0,-21.0,-5.0,8.0,1.0,0.0,0.2526521682739258
120,-16.0,10.0,14.0,1.0,-8663.0,-10061.0,-1336.0,-9508.0,-5.0,-8.0,0.0,16.0,13.0,-8.0,-6.0,-7.0,0.25554561614990234
121,-16.0,10.0,14.0,1.0,-8663.0,-10061.0,-1336.0,-9508.0,0.0,-2.0,27.0,37.0,-11.0,12.0,-2.0,-1.0,0.2574961185455322
122,-14.0,-1.0,24.0,1.0,-8661.0,-10061.0,-1330.0,-9511.0,0.0,-2.0,27.0,37.0,-11.0,12.0,-2.0,-1.0,0.25933003425598145
123,-14.0,-1.0,24.0,1.0,-8661.0,-10061.0,-1330.0,-9511.0,0.0,-4.0,-5.0,-6.0,-14.0,-2.0,-2.0,1.0,0.2611813545227051
124,-14.0,-1.0,24.0,1.0,-8661.0,-10061.0,-1330.0,-9511.0,-1.0,-6.0,-12.0,-1.0,-3.0,-4.0,-1.0,-2.0,0.2629427909851074
125,3.0,-7.0,23.0,1.0,-8657.0,-10062.0,-1325.0,-9514.0,-1.0,-6.0,-12.0,-1.0,-3.0,-4.0,-1.0,-2.0,0.2647664546966553
126,3.0,-7.0,23.0,1.0,-8657.0,-10062.0,-1325.0,-9514.0,-1.0,7.0,43.0,8.0,3.0,18.0,0.0,1.0,0.26689743995666504
127,3.0,-7.0,23.0,1.0,-8657.0,-10062.0,-1325.0,-9514.0,0.0,10.0,30.0,2.0,1.0,-6.0,3.0,-4.0,0.2696566581726074
128,8.0,-26.0,11.0,1.0,-8656.0,-10065.0,-1322.0,-9513.0,0.0,10.0,30.0,2.0,1.0,-6.0,3.0,-4.0,0.2733018398284912
129,8.0,-26.0,11.0,1.0,-8656.0,-10065.0,-1322.0,-9513.0,1.0,-3.0,-25.0,-16.0,1.0,-7.0,2.0,4.0,0.2752654552459717
130,8.0,-26.0,11.0,1.0,-8656.0,-10065.0,-1322.0,-9513.0,-2.0,-8.0,-26.0,-16.0,-4.0,-4.0,-3.0,21.0,0.27706193923950195
131,16.0,-20.0,9.0,1.0,-8654.0,-10068.0,-1322.0,-9511.0,-2.0,-8.0,-26.0,-16.0,-4.0,-4.0,-3.0,21.0,0.2788374423980713
132,16.0,-20.0,9.0,1.0,-8654.0,-10068.0,-1322.0,-9511.0,0.0,1.0,10.0,14.0,1.0,-2.0,10.0,5.0,0.28073620796203613
133,16.0,-20.0,9.0,1.0,-8654.0,-10068.0,-1322.0,-9511.0,0.0,12.0,48.0,21.0,0.0,0.0,-4.0,-4.0,0.28249502182006836
134,19.0,-14.0,10.0,1.0,-8653.0,-10070.0,-1322.0,-9510.0,0.0,12.0,48.0,21.0,0.0,0.0,-4.0,-4.0,0.2845742702484131
135,19.0,-14.0,10.0,1.0,-8653.0,-10070.0,-1322.0,-9510.0,0.0,-1.0,-2.0,-5.0,-4.0,3.0,-7.0,4.0,0.2864251136779785
136,19.0,-14.0,10.0,1.0,-8653.0,-10070.0,-1322.0,-9510.0,-3.0,-6.0,-21.0,-6.0,-1.0,6.0,-3.0,-5.0,0.2882413864135742
137,2.0,-6.0,5.0,1.0,-8653.0,-10070.0,-1323.0,-9510.0,-3.0,-6.0,-21.0,-6.0,-1.0,6.0,-3.0,-5.0,0.28999853134155273
138,2.0,-6.0,5.0,1.0,-8653.0,-10070.0,-1323.0,-9510.0,0.0,6.0,-5.0,-28.0,13.0,18.0,-8.0,-4.0,0.2918694019317627
139,2.0,-6.0,5.0,1.0,-8653.0,-10070.0,-1323.0,-9510.0,6.0,0.0,-5.0,-1.0,-3.0,28.0,3.0,-8.0,0.2971477508544922
140,-21.0,-6.0,2.0,1.0,-8656.0,-10068.0,-1321.0,-9509.0,6.0,0.0,-5.0,-1.0,-3.0,28.0,3.0,-8.0,0.30611181259155273
141,-21.0,-6.0,2.0,1.0,-8656.0,-10068.0,-1321.0,-9509.0,-1.0,-6.0,-30.0,-16.0,-2.0,8.0,4.0,4.0,0.3132932186126709
142,-21.0,-6.0,2.0,1.0,-8656.0,-10068.0,-1321.0,-9509.0,-1.0,1.0,14.0,9.0,-5.0,-16.0,5.0,-2.0,0.31512975692749023
143,-6.0,-21.0,2.0,1.0,-8656.0,-10070.0,-1317.0,-9508.0,-1.0,1.0,14.0,9.0,-5.0,-16.0,5.0,-2.0,0.3195381164550781
144,-6.0,-21.0,2.0,1.0,-8656.0,-10070.0,-1317.0,-9508.0,0.0,-8.0,-54.0,-36.0,-1.0,-32.0,-4.0,0.0,0.33644533157348633
145,-6.0,-21.0,2.0,1.0,-8656.0,-10070.0,-1317.0,-9508.0,-1.0,7.0,-29.0,7.0,-9.0,-8.0,1.0,4.0,0.3403933048248291
146,4.0,-18.0,-3.0,1.0,-8657.0,-10071.0,-1317.0,-9506.0,-1.0,7.0,-29.0,7.0,-9.0,-8.0,1.0,4.0,0.3422250747680664
147,4.0,-18.0,-3.0,1.0,-8657.0,-10071.0,-1317.0,-9506.0,-3.0,-4.0,14.0,0.0,-13.0,-4.0,-1.0,-1.0,0.35001230239868164
148,4.0,-18.0,-3.0,1.0,-8657.0,-10071.0,-1317.0,-9506.0,-3.0,-9.0,-27.0,-13.0,2.0,9.0,4.0,-8.0,0.36525845527648926
149,14.0,-19.0,-4.0,1.0,-8656.0,-10075.0,-1318.0,-9502.0,-3.0,-9.0,-27.0,-13.0,2.0,9.0,4.0,-8.0,0.36704206466674805
150,14.0,-19.0,-4.0,1.0,-8656.0,-10075.0,-1318.0,-9502.0,1.0,3.0,13.0,7.0,3.0,-2.0,-7.0,-1.0,0.3816406726837158
151,14.0,-19.0,-4.0,1.0,-8656.0,-10075.0,-1318.0,-9502.0,-8.0,-11.0,-28.0,-7.0,12.0,-4.0,-10.0,-2.0,0.385204553604126
152,-41.0,-10.0,-15.0,1.0,-8662.0,-10073.0,-1316.0,-9500.0,-8.0,-11.0,-28.0,-7.0,12.0,-4.0,-10.0,-2.0,0.3885509967803955
153,-41.0,-10.0,-15.0,1.0,-8662.0,-10073.0,-1316.0,-9500.0,-1.0,12.0,67.0,16.0,-13.0,-12.0,-7.0,-17.0,0.3966398239135742
154,-41.0,-10.0,-15.0,1.0,-8662.0,-10073.0,-1316.0,-9500.0,3.0,-2.0,8.0,-2.0,-1.0,-6.0,3.0,2.0,0.3986997604370117
155,-29.0,-25.0,-13.0,1.0,-8665.0,-10074.0,-1311.0,-9496.0,3.0,-2.0,8.0,-2.0,-1.0,-6.0,3.0,2.0,0.40218281745910645
156,-29.0,-25.0,-13.0,1.0,-8665.0,-10074.0,-1311.0,-9496.0,-2.0,-4.0,-17.0,1.0,-2.0,5.0,-2.0,-2.0,0.40981531143188477
157,-29.0,-25.0,-13.0,1.0,-8665.0,-10074.0,-1311.0,-9496.0,-2.0,3.0,12.0,-2.0,11.0,4.0,-2.0,-3.0,0.41754698753356934
158,-18.0,-22.0,-21.0,1.0,-8669.0,-10075.0,-1308.0,-9492.0,-2.0,3.0,12.0,-2.0,11.0,4.0,-2.0,-3.0,0.42586660385131836
159,-18.0,-22.0,-21.0,1.0,-8669.0,-10075.0,-1308.0,-9492.0,0.0,5.0,14.0,1.0,-4.0,2.0,5.0,4.0,0.4332549571990967
160,-18.0,-22.0,-21.0,1.0,-8669.0,-10075.0,-1308.0,-9492.0,0.0,-3.0,1.0,-1.0,1.0,2.0,-2.0,-2.0,0.4402275085449219
161,-19.0,-32.0,-15.0,1.0,-8673.0,-10076.0,-1305.0,-9488.0,0.0,-3.0,1.0,-1.0,1.0,2.0,-2.0,-2.0,0.4469568729400635
162,-19.0,-32.0,-15.0,1.0,-8673.0,-10076.0,-1305.0,-9488.0,-1.0,-4.0,-13.0,4.0,2.0,-6.0,1.0,5.0,0.45599365234375
163,-19.0,-32.0,-15.0,1.0,-8673.0,-10076.0,-1305.0,-9488.0,-4.0,-3.0,1.0,-8.0,12.0,14.0,1.0,-4.0,0.45787763595581055
164,-4.0,-23.0,-18.0,1.0,-8675.0,-10077.0,-1303.0,-9485.0,-4.0,-3.0,1.0,-8.0,12.0,14.0,1.0,-4.0,0.46202588081359863
165,-4.0,-23.0,-18.0,1.0,-8675.0,-10077.0,-1303.0,-9485.0,-4.0,-10.0,-18.0,2.0,-2.0,2.0,0.0,-5.0,0.46982836723327637
166,-4.0,-23.0,-18.0,1.0,-8675.0,-10077.0,-1303.0,-9485.0,2.0,-3.0,-8.0,-3.0,-11.0,-4.0,-1.0,-9.0,0.4773716926574707
167,-9.0,-20.0,-19.0,1.0,-8678.0,-10078.0,-1302.0,-9482.0,2.0,-3.0,-8.0,-3.0,-11.0,-4.0,-1.0,-9.0,0.4865601062774658
168,-9.0,-20.0,-19.0,1.0,-8678.0,-10078.0,-1302.0,-9482.0,-3.0,-3.0,-6.0,0.0,6.0,-11.0,-7.0,-4.0,0.4923844337463379
169,-9.0,-20.0,-19.0,1.0,-8678.0,-10078.0,-1302.0,-9482.0,-2.0,-4.0,-1.0,-7.0,-2.0,-10.0,-3.0,-6.0,0.5000119209289551
170,-7.0,-18.0,-9.0,1.0,-8680.0,-10078.0,-1300.0,-9480.0,-2.0,-4.0,-1.0,-7.0,-2.0,-10.0,-3.0,-6.0,0.5072195529937744
171,-7.0,-18.0,-9.0,1.0,-8680.0,-10078.0,-1300.0,-9480.0,-1.0,-6.0,-24.0,8.0,-4.0,2.0,2.0,-4.0,0.5162506103515625
172,-7.0,-18.0,-9.0,1.0,-8680.0,-10078.0,-1300.0,-9480.0,-1.0,2.0,-3.0,0.0,-19.0,-7.0,3.0,1.0,0.5195174217224121
173,-1.0,-6.0,-2.0,1.0,-8680.0,-10078.0,-1299.0,-9480.0,-1.0,2.0,-3.0,0.0,-19.0,-7.0,3.0,1.0,0.5230276584625244
174,-1.0,-6.0,-2.0,1.0,-8680.0,-10078.0,-1299.0,-9480.0,1.0,-1.0,7.0,21.0,2.0,-10.0,-8.0,1.0,0.5296242237091064
175,-1.0,-6.0,-2.0,1.0,-8680.0,-10078.0,-1299.0,-9480.0,1.0,13.0,45.0,-2.0,-12.0,0.0,0.0,3.0,0.5372159481048584
176,10.0,-6.0,-6.0,1.0,-8679.0,-10079.0,-1299.0,-9480.0,1.0,13.0,45.0,-2.0,-12.0,0.0,0.0,3.0,0.5456604957580566
177,10.0,-6.0,-6.0,1.0,-8679.0,-10079.0,-1299.0,-9480.0,0.0,-2.0,-15.0,-7.0,-2.0,1.0,-2.0,-9.0,0.5537374019622803
178,10.0,-6.0,-6.0,1.0,-8679.0,-10079.0,-1299.0,-9480.0,3.0,-4.0,-25.0,-15.0,-4.0,-14.0,-2.0,6.0,0.559657096862793
179,44.0,-8.0,-11.0,1.0,-8674.0,-10084.0,-1303.0,-9478.0,3.0,-4.0,-25.0,-15.0,-4.0,-14.0,-2.0,6.0,0.5675227642059326
180,44.0,-8.0,-11.0,1.0,-8674.0,-10084.0,-1303.0,-9478.0,0.0,5.0,8.0,5.0,-2.0,-6.0,3.0,3.0,0.5754764080047607
181,44.0,-8.0,-11.0,1.0,-8674.0,-10084.0,-1303.0,-9478.0,-2.0,-7.0,-1.0,10.0,3.0,2.0,-5.0,6.0,0.5835468769073486
182,36.0,-7.0,-16.0,1.0,-8672.0,-10088.0,-1307.0,-9476.0,-2.0,-7.0,-1.0,10.0,3.0,2.0,-5.0,6.0,0.586646318435669
183,36.0,-7.0,-16.0,1.0,-8672.0,-10088.0,-1307.0,-9476.0,1.0,4.0,19.0,-2.0,-4.0,8.0,0.0,0.0,0.590268611907959
184,36.0,-7.0,-16.0,1.0,-8672.0,-10088.0,-1307.0,-9476.0,-1.0,3.0,25.0,14.0,6.0,-9.0,2.0,6.0,0.5973701477050781
185,36.0,-9.0,-7.0,1.0,-8669.0,-10092.0,-1312.0,-9473.0,-1.0,3.0,25.0,14.0,6.0,-9.0,2.0,6.0,0.604642391204834
186,36.0,-9.0,-7.0,1.0,-8669.0,-10092.0,-1312.0,-9473.0,-2.0,-10.0,-9.0,-6.0,-14.0,6.0,0.0,3.0,0.6129975318908691
187,36.0,-9.0,-7.0,1.0,-8669.0,-10092.0,-1312.0,-9473.0,2.0,1.0,-7.0,-5.0,-1.0,0.0,-4.0,4.0,0.6214985847473145
188,-15.0,-7.0,-2.0,1.0,-8669.0,-10092.0,-1312.0,-9473.0,2.0,1.0,-7.0,-5.0,-1.0,0.0,-4.0,4.0,0.6273307800292969
189,-15.0,-7.0,-2.0,1.0,-8669.0,-10092.0,-1312.0,-9473.0,0.0,1.0,6.0,4.0,1.0,3.0,3.0,5.0,0.6450161933898926
190,-15.0,-7.0,-2.0,1.0,-8669.0,-10092.0,-1312.0,-9473.0,-1.0,-2.0,1.0,-5.0,0.0,13.0,-2.0,-6.0,0.6484353542327881
191,-72.0,1.0,-1.0,1.0,-8676.0,-10086.0,-1303.0,-9475.0,-1.0,-2.0,1.0,-5.0,0.0,13.0,-2.0,-6.0,0.6515421867370605
192,-72.0,1.0,-1.0,1.0,-8676.0,-10086.0,-1303.0,-9475.0,3.0,6.0,11.0,0.0,11.0,-1.0,2.0,14.0,0.6557731628417969
193,-72.0,1.0,-1.0,1.0,-8676.0,-10086.0,-1303.0,-9475.0,-2.0,-1.0,-2.0,22.0,-4.0,-20.0,2.0,-1.0,0.6577565670013428
194,-138.0,21.0,-20.0,1.0,-8690.0,-10072.0,-1290.0,-9478.0,-2.0,-1.0,-2.0,22.0,-4.0,-20.0,2.0,-1.0,0.6648025512695312
195,-138.0,21.0,-20.0,1.0,-8690.0,-10072.0,-1290.0,-9478.0,-1.0,1.0,-19.0,-5.0,-12.0,-5.0,-7.0,-7.0,0.6736767292022705
196,-138.0,21.0,-20.0,1.0,-8690.0,-10072.0,-1290.0,-9478.0,0.0,6.0,48.0,19.0,7.0,11.0,5.0,3.0,0.6814901828765869
197,-266.0,36.0,-57.0,1.0,-8723.0,-10043.0,-1270.0,-9482.0,0.0,6.0,48.0,19.0,7.0,11.0,5.0,3.0,0.6870923042297363
198,-266.0,36.0,-57.0,1.0,-8723.0,-10043.0,-1270.0,-9482.0,-3.0,1.0,-5.0,-7.0,-4.0,-15.0,-4.0,2.0,0.6949362754821777
199,-266.0,36.0,-57.0,1.0,-8723.0,-10043.0,-1270.0,-9482.0,-2.0,5.0,11.0,-4.0,-18.0,2.0,-1.0,-10.0,0.7050833702087402
200,-546.0,82.0,-101.0,1.0,-8792.0,-9980.0,-1231.0,-9490.0,-2.0,5.0,11.0,-4.0,-18.0,2.0,-1.0,-10.0,0.7083618640899658
201,-546.0,82.0,-101.0,1.0,-8792.0,-9980.0,-1231.0,-9490.0,-2.0,-1.0,-27.0,-12.0,-4.0,6.0,-5.0,8.0,0.7122025489807129
202,-546.0,82.0,-101.0,1.0,-8792.0,-9980.0,-1231.0,-9490.0,1.0,-5.0,4.0,-19.0,16.0,17.0,16.0,31.0,0.7254242897033691
203,-883.0,128.0,-131.0,1.0,-8898.0,-9875.0,-1158.0,-9509.0,1.0,-5.0,4.0,-19.0,16.0,17.0,16.0,31.0,0.7272727489471436
204,-883.0,128.0,-131.0,1.0,-8898.0,-9875.0,-1158.0,-9509.0,1.0,-10.0,-72.0,4.0,9.0,-6.0,0.0,2.0,0.7338602542877197
205,-883.0,128.0,-131.0,1.0,-8898.0,-9875.0,-1158.0,-9509.0,-4.0,-24.0,-55.0,12.0,-12.0,14.0,6.0,-10.0,0.7490115165710449
206,-1173.0,111.0,-120.0,1.0,-9036.0,-9737.0,-1051.0,-9534.0,-4.0,-24.0,-55.0,12.0,-12.0,14.0,6.0,-10.0,0.7529606819152832
207,-1173.0,111.0,-120.0,1.0,-9036.0,-9737.0,-1051.0,-9534.0,-3.0,1.0,65.0,46.0,25.0,9.0,3.0,-16.0,0.7570030689239502
208,-1173.0,111.0,-120.0,1.0,-9036.0,-9737.0,-1051.0,-9534.0,-1.0,28.0,-96.0,-18.0,-10.0,-3.0,0.0,9.0,0.7637312412261963
209,-1401.0,96.0,-57.0,1.0,-9188.0,-9576.0,-906.0,-9567.0,-1.0,28.0,-96.0,-18.0,-10.0,-3.0,0.0,9.0,0.7655866146087646
210,-1401.0,96.0,-57.0,1.0,-9188.0,-9576.0,-906.0,-9567.0,-4.0,-15.0,-2.0,-34.0,-4.0,2.0,15.0,38.0,0.7696781158447266
211,-1401.0,96.0,-57.0,1.0,-9188.0,-9576.0,-906.0,-9567.0,-13.0,-24.0,-2.0,7.0,23.0,30.0,17.0,4.0,0.787142276763916
212,-1554.0,219.0,20.0,1.0,-9346.0,-9374.0,-741.0,-9628.0,-13.0,-24.0,-2.0,7.0,23.0,30.0,17.0,4.0,0.7908096313476562
213,-1554.0,219.0,20.0,1.0,-9346.0,-9374.0,-741.0,-9628.0,16.0,14.0,-64.0,-21.0,-2.0,6.0,18.0,-32.0,0.7958376407623291
214,-1554.0,219.0,20.0,1.0,-9346.0,-9374.0,-741.0,-9628.0,16.0,15.0,14.0,31.0,-13.0,-48.0,-23.0,-17.0,0.7999753952026367
215,-1067.0,260.0,162.0,1.0,-9459.0,-9150.0,-593.0,-9742.0,16.0,15.0,14.0,31.0,-13.0,-48.0,-23.0,-17.0,0.8174560070037842
216,-1067.0,260.0,162.0,1.0,-9459.0,-9150.0,-593.0,-9742.0,7.0,11.0,-33.0,26.0,-1.0,-1.0,-26.0,0.0,0.8237617015838623
217,-1067.0,260.0,162.0,1.0,-9459.0,-9150.0,-593.0,-9742.0,8.0,-2.0,-100.0,31.0,-13.0,13.0,3.0,-4.0,0.8278086185455322
218,704.0,559.0,163.0,1.0,-9401.0,-9072.0,-683.0,-9865.0,8.0,-2.0,-100.0,31.0,-13.0,13.0,3.0,-4.0,0.829822301864624
219,704.0,559.0,163.0,1.0,-9401.0,-9072.0,-683.0,-9865.0,3.0,-1.0,13.0,-26.0,-8.0,-2.0,7.0,1.0,0.8316528797149658
220,704.0,559.0,163.0,1.0,-9401.0,-9072.0,-683.0,-9865.0,-5.0,-3.0,90.0,-2.0,9.0,16.0,-25.0,-16.0,0.8377265930175781
221,1407.0,1051.0,-178.0,1.0,-9318.0,-8999.0,-949.0,-9988.0,-5.0,-3.0,90.0,-2.0,9.0,16.0,-25.0,-16.0,0.8547837734222412
222,1407.0,1051.0,-178.0,1.0,-9318.0,-8999.0,-949.0,-9988.0,-14.0,-2.0,104.0,-24.0,2.0,-28.0,-5.0,-10.0,0.8619725704193115
223,1407.0,1051.0,-178.0,1.0,-9318.0,-8999.0,-949.0,-9988.0,-13.0,-10.0,98.0,-19.0,-14.0,15.0,8.0,-3.0,0.8649322986602783
224,1770.0,1643.0,-276.0,1.0,-9175.0,-8963.0,-1347.0,-10106.0,-13.0,-10.0,98.0,-19.0,-14.0,15.0,8.0,-3.0,0.8667171001434326
225,1770.0,1643.0,-276.0,1.0,-9175.0,-8963.0,-1347.0,-10106.0,-13.0,-9.0,26.0,48.0,-6.0,10.0,-36.0,-19.0,0.8748292922973633
226,1770.0,1643.0,-276.0,1.0,-9175.0,-8963.0,-1347.0,-10106.0,-1.0,14.0,117.0,23.0,-16.0,-14.0,7.0,11.0,0.8828787803649902
227,-373.0,1992.0,-916.0,1.0,-9280.0,-8690.0,-1595.0,-10212.0,-1.0,14.0,117.0,23.0,-16.0,-14.0,7.0,11.0,0.884864330291748
228,-373.0,1992.0,-916.0,1.0,-9280.0,-8690.0,-1595.0,-10212.0,3.0,20.0,86.0,-73.0,-24.0,0.0,5.0,3.0,0.8905379772186279
229,-373.0,1992.0,-916.0,1.0,-9280.0,-8690.0,-1595.0,-10212.0,14.0,7.0,-120.0,-69.0,-21.0,-21.0,7.0,25.0,0.8972928524017334
230,-2364.0,2444.0,-853.0,1.0,-9550.0,-8158.0,-1659.0,-10391.0,14.0,7.0,-120.0,-69.0,-21.0,-21.0,7.0,25.0,0.904721736907959
231,-2364.0,2444.0,-853.0,1.0,-9550.0,-8158.0,-1659.0,-10391.0,-9.0,-10.0,-16.0,19.0,21.0,23.0,19.0,1.0,0.9124603271484375
232,-2364.0,2444.0,-853.0,1.0,-9550.0,-8158.0,-1659.0,-10391.0,0.0,0.0,26.0,-95.0,-9.0,4.0,61.0,20.0,0.9214930534362793
233,-2848.0,2929.0,-851.0,1.0,-9836.0,-7506.0,-1715.0,-10603.0,0.0,0.0,26.0,-95.0,-9.0,4.0,61.0,20.0,0.9272184371948242
234,-2848.0,2929.0,-851.0,1.0,-9836.0,-7506.0,-1715.0,-10603.0,8.0,-1.0,11.0,25.0,-14.0,-8.0,-22.0,2.0,0.9349749088287354
235,-2848.0,2929.0,-851.0,1.0,-9836.0,-7506.0,-1715.0,-10603.0,6.0,-1.0,2.0,50.0,13.0,3.0,42.0,-3.0,0.9427714347839355
236,-3210.0,3498.0,-1294.0,1.0,-10169.0,-6723.0,-1822.0,-10795.0,6.0,-1.0,2.0,50.0,13.0,3.0,42.0,-3.0,0.944530725479126
237,-3210.0,3498.0,-1294.0,1.0,-10169.0,-6723.0,-1822.0,-10795.0,-7.0,-8.0,0.0,-33.0,-33.0,14.0,28.0,-11.0,0.9507272243499756
238,-3210.0,3498.0,-1294.0,1.0,-10169.0,-6723.0,-1822.0,-10795.0,-7.0,-10.0,-2.0,6.0,29.0,-31.0,-24.0,-9.0,0.9570653438568115
239,-3206.0,4020.0,-1670.0,1.0,-10502.0,-5851.0,-2010.0,-10950.0,-7.0,-10.0,-2.0,6.0,29.0,-31.0,-24.0,-9.0,0.9647748470306396
240,-3206.0,4020.0,-1670.0,1.0,-10502.0,-5851.0,-2010.0,-10950.0,1.0,4.0,7.0,27.0,23.0,8.0,-1.0,2.0,0.9732551574707031
241,-3206.0,4020.0,-1670.0,1.0,-10502.0,-5851.0,-2010.0,-10950.0,-6.0,-7.0,-8.0,21.0,-2.0,0.0,-21.0,-4.0,0.9814882278442383
242,-3535.0,4195.0,-2322.0,1.0,-10890.0,-4884.0,-2212.0,-11006.0,-6.0,-7.0,-8.0,21.0,-2.0,0.0,-21.0,-4.0,0.9877324104309082
243,-3535.0,4195.0,-2322.0,1.0,-10890.0,-4884.0,-2212.0,-11006.0,-5.0,-6.0,-30.0,9.0,19.0,-5.0,-5.0,1.0,1.0047762393951416
244,-3535.0,4195.0,-2322.0,1.0,-10890.0,-4884.0,-2212.0,-11006.0,1.0,-5.0,-15.0,-5.0,23.0,2.0,-32.0,5.0,1.0081498622894287
245,-4522.0,4500.0,-2898.0,1.0,-11337.0,-3726.0,-2351.0,-10978.0,1.0,-5.0,-15.0,-5.0,23.0,2.0,-32.0,5.0,1.012164831161499
246,-4522.0,4500.0,-2898.0,1.0,-11337.0,-3726.0,-2351.0,-10978.0,-8.0,-3.0,-12.0,11.0,15.0,2.0,-2.0,13.0,1.0142102241516113
247,-4522.0,4500.0,-2898.0,1.0,-11337.0,-3726.0,-2351.0,-10978.0,-4.0,2.0,3.0,12.0,11.0,17.0,-30.0,-21.0,1.0167226791381836
248,-4227.0,4836.0,-2933.0,1.0,-11686.0,-2607.0,-2555.0,-10889.0,-4.0,2.0,3.0,12.0,11.0,17.0,-30.0,-21.0,1.0247244834899902
249,-4227.0,4836.0,-2933.0,1.0,-11686.0,-2607.0,-2555.0,-10889.0,-1.0,-4.0,-12.0,-10.0,-25.0,-12.0,4.0,-4.0,1.03267240524292
250,-4227.0,4836.0,-2933.0,1.0,-11686.0,-2607.0,-2555.0,-10889.0,-9.0,-5.0,-2.0,14.0,-1.0,1.0,-24.0,-3.0,1.0488183498382568
251,-3586.0,5028.0,-3044.0,1.0,-11962.0,-1536.0,-2847.0,-10719.0,-9.0,-5.0,-2.0,14.0,-1.0,1.0,-24.0,-3.0,1.0518896579742432
252,-3586.0,5028.0,-3044.0,1.0,-11962.0,-1536.0,-2847.0,-10719.0,-2.0,-2.0,-11.0,8.0,40.0,9.0,-26.0,-74.0,1.0559203624725342
253,-3586.0,5028.0,-3044.0,1.0,-11962.0,-1536.0,-2847.0,-10719.0,16.0,-2.0,5.0,-1.0,-37.0,-36.0,4.0,51.0,1.0634081363677979
254,-3037.0,4992.0,-3218.0,1.0,-12193.0,-518.0,-3187.0,-10458.0,16.0,-2.0,5.0,-1.0,-37.0,-36.0,4.0,51.0,1.065371036529541
255,-3037.0,4992.0,-3218.0,1.0,-12193.0,-518.0,-3187.0,-10458.0,6.0,-4.0,-5.0,0.0,-8.0,-21.0,10.0,4.0,1.0702943801879883
256,-3037.0,4992.0,-3218.0,1.0,-12193.0,-518.0,-3187.0,-10458.0,1.0,1.0,-5.0,-6.0,-17.0,-31.0,-98.0,16.0,1.0772583484649658
257,-2229.0,4836.0,-3138.0,1.0,-12361.0,382.0,-3584.0,-10133.0,1.0,1.0,-5.0,-6.0,-17.0,-31.0,-98.0,16.0,1.084874153137207
258,-2229.0,4836.0,-3138.0,1.0,-12361.0,382.0,-3584.0,-10133.0,0.0,-1.0,-11.0,9.0,37.0,17.0,-10.0,18.0,1.0932748317718506
259,-2229.0,4836.0,-3138.0,1.0,-12361.0,382.0,-3584.0,-10133.0,-2.0,8.0,16.0,11.0,14.0,39.0,-47.0,-119.0,1.1020736694335938
260,-2409.0,4702.0,-3174.0,1.0,-12485.0,1292.0,-3926.0,-9772.0,-2.0,8.0,16.0,11.0,14.0,39.0,-47.0,-119.0,1.115492582321167
261,-2409.0,4702.0,-3174.0,1.0,-12485.0,1292.0,-3926.0,-9772.0,8.0,17.0,22.0,17.0,-4.0,-1.0,-7.0,93.0,1.1192126274108887
262,-2409.0,4702.0,-3174.0,1.0,-12485.0,1292.0,-3926.0,-9772.0,10.0,-3.0,1.0,3.0,-3.0,-15.0,19.0,27.0,1.1240184307098389
263,-3024.0,4729.0,-3188.0,1.0,-12549.0,2291.0,-4185.0,-9392.0,10.0,-3.0,1.0,3.0,-3.0,-15.0,19.0,27.0,1.1273562908172607
264,-3024.0,4729.0,-3188.0,1.0,-12549.0,2291.0,-4185.0,-9392.0,-8.0,10.0,23.0,9.0,-3.0,37.0,59.0,-7.0,1.1486709117889404
265,-3024.0,4729.0,-3188.0,1.0,-12549.0,2291.0,-4185.0,-9392.0,8.0,-1.0,2.0,5.0,16.0,-83.0,-43.0,8.0,1.1524930000305176
266,-3134.0,4775.0,-2939.0,1.0,-12529.0,3311.0,-4419.0,-9000.0,8.0,-1.0,2.0,5.0,16.0,-83.0,-43.0,8.0,1.1554524898529053
267,-3134.0,4775.0,-2939.0,1.0,-12529.0,3311.0,-4419.0,-9000.0,19.0,-7.0,-25.0,-28.0,-42.0,-84.0,-82.0,-100.0,1.170914888381958
268,-3134.0,4775.0,-2939.0,1.0,-12529.0,3311.0,-4419.0,-9000.0,21.0,10.0,19.0,17.0,-19.0,71.0,106.0,-1.0,1.174880027770996
269,-2027.0,4370.0,-2750.0,1.0,-12496.0,4147.0,-4698.0,-8546.0,21.0,10.0,19.0,17.0,-19.0,71.0,106.0,-1.0,1.177384614944458
270,-2027.0,4370.0,-2750.0,1.0,-12496.0,4147.0,-4698.0,-8546.0,-26.0,-13.0,-6.0,-3.0,-12.0,45.0,60.0,90.0,1.179288387298584
271,-2027.0,4370.0,-2750.0,1.0,-12496.0,4147.0,-4698.0,-8546.0,-6.0,-2.0,-19.0,-28.0,-42.0,-82.0,8.0,-36.0,1.1832537651062012
272,-992.0,3681.0,-2589.0,1.0,-12486.0,4780.0,-4983.0,-8054.0,-6.0,-2.0,-19.0,-28.0,-42.0,-82.0,8.0,-36.0,1.1851348876953125
273,-992.0,3681.0,-2589.0,1.0,-12486.0,4780.0,-4983.0,-8054.0,19.0,2.0,-11.0,-21.0,-7.0,-109.0,-32.0,-127.0,1.1895759105682373
274,-992.0,3681.0,-2589.0,1.0,-12486.0,4780.0,-4983.0,-8054.0,-43.0,-17.0,-13.0,-6.0,15.0,90.0,25.0,-25.0,1.1977553367614746
275,-980.0,2857.0,-2385.0,1.0,-12473.0,5333.0,-5157.0,-7606.0,-43.0,-17.0,-13.0,-6.0,15.0,90.0,25.0,-25.0,1.2052717208862305
276,-980.0,2857.0,-2385.0,1.0,-12473.0,5333.0,-5157.0,-7606.0,-52.0,-28.0,-20.0,-9.0,-54.0,-24.0,-54.0,4.0,1.2130529880523682
277,-980.0,2857.0,-2385.0,1.0,-12473.0,5333.0,-5157.0,-7606.0,50.0,18.0,-11.0,5.0,18.0,95.0,72.0,60.0,1.2206621170043945
278,-1455.0,2002.0,-1870.0,1.0,-12424.0,5799.0,-5197.0,-7312.0,50.0,18.0,-11.0,5.0,18.0,95.0,72.0,60.0,1.2290513515472412
279,-1455.0,2002.0,-1870.0,1.0,-12424.0,5799.0,-5197.0,-7312.0,47.0,11.0,-33.0,3.0,28.0,97.0,-37.0,13.0,1.2439892292022705
280,-1455.0,2002.0,-1870.0,1.0,-12424.0,5799.0,-5197.0,-7312.0,-9.0,-3.0,18.0,9.0,-91.0,1.0,-56.0,-128.0,1.247757911682129
281,-1907.0,1266.0,-1210.0,1.0,-12323.0,6224.0,-5138.0,-7174.0,-9.0,-3.0,18.0,9.0,-91.0,1.0,-56.0,-128.0,1.2513117790222168
282,-1907.0,1266.0,-1210.0,1.0,-12323.0,6224.0,-5138.0,-7174.0,27.0,-14.0,-16.0,-21.0,71.0,29.0,48.0,-79.0,1.2598087787628174
283,-1907.0,1266.0,-1210.0,1.0,-12323.0,6224.0,-5138.0,-7174.0,4.0,-5.0,-5.0,-6.0,18.0,66.0,1.0,127.0,1.261855125427246
284,-1224.0,547.0,-599.0,1.0,-12254.0,6464.0,-5075.0,-7124.0,4.0,-5.0,-5.0,-6.0,18.0,66.0,1.0,127.0,1.2637779712677002
285,-1224.0,547.0,-599.0,1.0,-12254.0,6464.0,-5075.0,-7124.0,-58.0,-28.0,-18.0,-27.0,-54.0,-50.0,53.0,-5.0,1.2729833126068115
286,-1224.0,547.0,-599.0,1.0,-12254.0,6464.0,-5075.0,-7124.0,56.0,51.0,18.0,48.0,127.0,70.0,1.0,-45.0,1.2901194095611572
287,-235.0,-497.0,-149.0,1.0,-12277.0,6465.0,-4979.0,-7152.0,56.0,51.0,18.0,48.0,127.0,70.0,1.0,-45.0,1.293363094329834
288,-235.0,-497.0,-149.0,1.0,-12277.0,6465.0,-4979.0,-7152.0,-83.0,-22.0,2.0,39.0,104.0,-40.0,80.0,124.0,1.3128883838653564
289,-235.0,-497.0,-149.0,1.0,-12277.0,6465.0,-4979.0,-7152.0,-97.0,-28.0,-19.0,-19.0,85.0,14.0,14.0,111.0,1.317568302154541
290,829.0,-1407.0,1030.0,1.0,-12328.0,6187.0,-4927.0,-7342.0,-97.0,-28.0,-19.0,-19.0,85.0,14.0,14.0,111.0,1.3229420185089111
291,829.0,-1407.0,1030.0,1.0,-12328.0,6187.0,-4927.0,-7342.0,26.0,33.0,28.0,5.0,47.0,27.0,-47.0,1.0,1.3254354000091553
292,829.0,-1407.0,1030.0,1.0,-12328.0,6187.0,-4927.0,-7342.0,-36.0,13.0,35.0,20.0,15.0,-103.0,67.0,-128.0,1.3272500038146973
293,1792.0,-2188.0,2248.0,1.0,-12377.0,5645.0,-4925.0,-7690.0,-36.0,13.0,35.0,20.0,15.0,-103.0,67.0,-128.0,1.3290307521820068
294,1792.0,-2188.0,2248.0,1.0,-12377.0,5645.0,-4925.0,-7690.0,-97.0,-24.0,16.0,45.0,24.0,71.0,76.0,-63.0,1.3405652046203613
295,1792.0,-2188.0,2248.0,1.0,-12377.0,5645.0,-4925.0,-7690.0,-2.0,17.0,-12.0,-41.0,25.0,-3.0,66.0,94.0,1.3423619270324707
296,2296.0,-2975.0,3327.0,1.0,-12381.0,4900.0,-4914.0,-8187.0,-2.0,17.0,-12.0,-41.0,25.0,-3.0,66.0,94.0,1.3471784591674805
297,2296.0,-2975.0,3327.0,1.0,-12381.0,4900.0,-4914.0,-8187.0,57.0,19.0,19.0,6.0,-19.0,-29.0,23.0,105.0,1.3554801940917969
298,2296.0,-2975.0,3327.0,1.0,-12381.0,4900.0,-4914.0,-8187.0,34.0,-34.0,-42.0,-56.0,53.0,73.0,54.0,-5.0,1.3629531860351562
299,2351.0,-3943.0,4306.0,1.0,-12304.0,3990.0,-4810.0,-8832.0,34.0,-34.0,-42.0,-56.0,53.0,73.0,54.0,-5.0,1.3714256286621094
300,2351.0,-3943.0,4306.0,1.0,-12304.0,3990.0,-4810.0,-8832.0,81.0,63.0,34.0,-9.0,-28.0,-46.0,-128.0,-124.0,1.3735885620117188
301,2351.0,-3943.0,4306.0,1.0,-12304.0,3990.0,-4810.0,-8832.0,-28.0,-79.0,12.0,49.0,-12.0,-12.0,27.0,35.0,1.3773024082183838
302,2534.0,-5254.0,5229.0,1.0,-12148.0,2868.0,-4543.0,-9592.0,-28.0,-79.0,12.0,49.0,-12.0,-12.0,27.0,35.0,1.384777307510376
303,2534.0,-5254.0,5229.0,1.0,-12148.0,2868.0,-4543.0,-9592.0,-52.0,-20.0,-30.0,-70.0,-61.0,41.0,42.0,106.0,1.392185926437378
304,2534.0,-5254.0,5229.0,1.0,-12148.0,2868.0,-4543.0,-9592.0,-15.0,-22.0,-39.0,-64.0,-16.0,-14.0,-83.0,-50.0,1.4004201889038086
305,2590.0,-6231.0,5721.0,1.0,-11884.0,1582.0,-4149.0,-10369.0,-15.0,-22.0,-39.0,-64.0,-16.0,-14.0,-83.0,-50.0,1.4079060554504395
306,2590.0,-6231.0,5721.0,1.0,-11884.0,1582.0,-4149.0,-10369.0,-20.0,29.0,28.0,42.0,92.0,85.0,-45.0,-105.0,1.43387770652771
307,2590.0,-6231.0,5721.0,1.0,-11884.0,1582.0,-4149.0,-10369.0,-87.0,-97.0,-86.0,-6.0,-71.0,-123.0,-53.0,-125.0,1.4382829666137695
308,3074.0,-6969.0,6151.0,1.0,-11491.0,116.0,-3678.0,-11084.0,-87.0,-97.0,-86.0,-6.0,-71.0,-123.0,-53.0,-125.0,1.443824291229248
309,3074.0,-6969.0,6151.0,1.0,-11491.0,116.0,-3678.0,-11084.0,90.0,84.0,45.0,-64.0,31.0,-62.0,-5.0,25.0,1.4463613033294678
310,3074.0,-6969.0,6151.0,1.0,-11491.0,116.0,-3678.0,-11084.0,27.0,16.0,-6.0,-23.0,-16.0,45.0,28.0,123.0,1.448160171508789
311,1277.0,-6807.0,6114.0,1.0,-10971.0,-1107.0,-2972.0,-11749.0,27.0,16.0,-6.0,-23.0,-16.0,45.0,28.0,123.0,1.4499733448028564
312,1277.0,-6807.0,6114.0,1.0,-10971.0,-1107.0,-2972.0,-11749.0,-1.0,-111.0,9.0,-58.0,-19.0,71.0,127.0,127.0,1.4518482685089111
313,1277.0,-6807.0,6114.0,1.0,-10971.0,-1107.0,-2972.0,-11749.0,22.0,35.0,-68.0,-64.0,25.0,-66.0,-30.0,-92.0,1.4597036838531494
314,-72.0,-5601.0,4684.0,1.0,-10520.0,-1962.0,-2229.0,-12205.0,22.0,35.0,-68.0,-64.0,25.0,-66.0,-30.0,-92.0,1.4681456089019775
315,-72.0,-5601.0,4684.0,1.0,-10520.0,-1962.0,-2229.0,-12205.0,-4.0,-16.0,-104.0,-75.0,-102.0,47.0,-34.0,10.0,1.4940648078918457
316,-72.0,-5601.0,4684.0,1.0,-10520.0,-1962.0,-2229.0,-12205.0,46.0,89.0,81.0,8.0,-24.0,4.0,46.0,36.0,1.4983906745910645
317,1726.0,-3567.0,1692.0,1.0,-10333.0,-2673.0,-2012.0,-12268.0,46.0,89.0,81.0,8.0,-24.0,4.0,46.0,36.0,1.501438856124878
318,1726.0,-3567.0,1692.0,1.0,-10333.0,-2673.0,-2012.0,-12268.0,26.0,-118.0,64.0,-11.0,-12.0,-113.0,-67.0,-6.0,1.5045106410980225
319,1726.0,-3567.0,1692.0,1.0,-10333.0,-2673.0,-2012.0,-12268.0,-24.0,-106.0,60.0,46.0,-85.0,-76.0,-95.0,51.0,1.5068840980529785
320,4161.0,-1766.0,-1685.0,1.0,-10462.0,-3336.0,-2415.0,-11919.0,-24.0,-106.0,60.0,46.0,-85.0,-76.0,-95.0,51.0,1.5087330341339111
321,4161.0,-1766.0,-1685.0,1.0,-10462.0,-3336.0,-2415.0,-11919.0,60.0,-14.0,-81.0,-31.0,45.0,-46.0,-75.0,-111.0,1.5121214389801025
322,4161.0,-1766.0,-1685.0,1.0,-10462.0,-3336.0,-2415.0,-11919.0,-25.0,-40.0,-60.0,61.0,-18.0,-9.0,-65.0,32.0,1.520185947418213
323,2376.0,-950.0,-1052.0,1.0,-10532.0,-3702.0,-2653.0,-11696.0,-25.0,-40.0,-60.0,61.0,-18.0,-9.0,-65.0,32.0,1.527449131011963
324,2376.0,-950.0,-1052.0,1.0,-10532.0,-3702.0,-2653.0,-11696.0,-6.0,20.0,44.0,61.0,-87.0,-125.0,64.0,-16.0,1.5363428592681885
325,2376.0,-950.0,-1052.0,1.0,-10532.0,-3702.0,-2653.0,-11696.0,41.0,11.0,-128.0,-72.0,-15.0,-58.0,-62.0,-67.0,1.5423054695129395
326,-94.0,-1256.0,1087.0,1.0,-10491.0,-3674.0,-2474.0,-11781.0,41.0,11.0,-128.0,-72.0,-15.0,-58.0,-62.0,-67.0,1.558485507965088
327,-94.0,-1256.0,1087.0,1.0,-10491.0,-3674.0,-2474.0,-11781.0,-27.0,19.0,-128.0,-96.0,17.0,107.0,-73.0,-89.0,1.5615942478179932
328,-94.0,-1256.0,1087.0,1.0,-10491.0,-3674.0,-2474.0,-11781.0,61.0,27.0,38.0,127.0,84.0,-11.0,4.0,-22.0,1.565394639968872
329,-1970.0,-906.0,1123.0,1.0,-10450.0,-3570.0,-2050.0,-11929.0,61.0,27.0,38.0,127.0,84.0,-11.0,4.0,-22.0,1.5679771900177002
330,-1970.0,-906.0,1123.0,1.0,-10450.0,-3570.0,-2050.0,-11929.0,26.0,78.0,127.0,92.0,20.0,78.0,118.0,123.0,1.5728342533111572
331,-1970.0,-906.0,1123.0,1.0,-10450.0,-3570.0,-2050.0,-11929.0,52.0,38.0,12.0,79.0,6.0,101.0,49.0,-87.0,1.579610824584961
332,-565.0,-482.0,601.0,1.0,-10397.0,-3550.0,-1743.0,-12030.0,52.0,38.0,12.0,79.0,6.0,101.0,49.0,-87.0,1.5878641605377197
333,-565.0,-482.0,601.0,1.0,-10397.0,-3550.0,-1743.0,-12030.0,-44.0,13.0,96.0,127.0,-18.0,-46.0,-28.0,-48.0,1.5957186222076416
334,-565.0,-482.0,601.0,1.0,-10397.0,-3550.0,-1743.0,-12030.0,-37.0,12.0,-42.0,-27.0,38.0,37.0,37.0,-74.0,1.602895975112915
335,887.0,-748.0,1076.0,1.0,-10233.0,-3746.0,-1674.0,-12121.0,-37.0,12.0,-42.0,-27.0,38.0,37.0,37.0,-74.0,1.6102063655853271
336,887.0,-748.0,1076.0,1.0,-10233.0,-3746.0,-1674.0,-12121.0,-50.0,-12.0,-21.0,4.0,-11.0,-9.0,-10.0,81.0,1.6120636463165283
337,887.0,-748.0,1076.0,1.0,-10233.0,-3746.0,-1674.0,-12121.0,-24.0,47.0,9.0,-113.0,80.0,91.0,100.0,127.0,1.6262662410736084
338,132.0,-973.0,1213.0,1.0,-10076.0,-3906.0,-1469.0,-12228.0,-24.0,47.0,9.0,-113.0,80.0,91.0,100.0,127.0,1.6302821636199951
339,132.0,-973.0,1213.0,1.0,-10076.0,-3906.0,-1469.0,-12228.0,15.0,7.0,-77.0,-54.0,44.0,-2.0,-17.0,-97.0,1.633424997329712
340,132.0,-973.0,1213.0,1.0,-10076.0,-3906.0,-1469.0,-12228.0,-17.0,-31.0,-55.0,-44.0,-52.0,-119.0,-128.0,-104.0,1.6404311656951904
341,52.0,-840.0,771.0,1.0,-9959.0,-4018.0,-1160.0,-12320.0,-17.0,-31.0,-55.0,-44.0,-52.0,-119.0,-128.0,-104.0,1.6469545364379883
342,52.0,-840.0,771.0,1.0,-9959.0,-4018.0,-1160.0,-12320.0,17.0,-14.0,-118.0,105.0,2.0,14.0,16.0,-49.0,1.656102180480957
343,52.0,-840.0,771.0,1.0,-9959.0,-4018.0,-1160.0,-12320.0,65.0,21.0,-9.0,118.0,30.0,73.0,-2.0,-7.0,1.6621558666229248
344,1288.0,-334.0,933.0,1.0,-9753.0,-4299.0,-1210.0,-12385.0,65.0,21.0,-9.0,118.0,30.0,73.0,-2.0,-7.0,1.670766830444336
345,1288.0,-334.0,933.0,1.0,-9753.0,-4299.0,-1210.0,-12385.0,7.0,-29.0,-25.0,-71.0,-25.0,-111.0,-43.0,-77.0,1.6731822490692139
346,1288.0,-334.0,933.0,1.0,-9753.0,-4299.0,-1210.0,-12385.0,-61.0,10.0,63.0,-41.0,0.0,-128.0,-128.0,-118.0,1.6856119632720947
347,486.0,-8.0,638.0,1.0,-9635.0,-4470.0,-1347.0,-12403.0,-61.0,10.0,63.0,-41.0,0.0,-128.0,-128.0,-118.0,1.688490390777588
348,486.0,-8.0,638.0,1.0,-9635.0,-4470.0,-1347.0,-12403.0,-25.0,9.0,-89.0,-11.0,28.0,43.0,-22.0,-47.0,1.6924569606781006
349,486.0,-8.0,638.0,1.0,-9635.0,-4470.0,-1347.0,-12403.0,19.0,-16.0,-33.0,-35.0,8.0,79.0,92.0,127.0,1.6999008655548096
350,-215.0,76.0,-71.0,1.0,-9639.0,-4526.0,-1370.0,-12377.0,19.0,-16.0,-33.0,-35.0,8.0,79.0,92.0,127.0,1.707341194152832
351,-215.0,76.0,-71.0,1.0,-9639.0,-4526.0,-1370.0,-12377.0,-34.0,-59.0,-117.0,-68.0,8.0,93.0,-38.0,-70.0,1.7148635387420654
352,-215.0,76.0,-71.0,1.0,-9639.0,-4526.0,-1370.0,-12377.0,-31.0,18.0,26.0,76.0,63.0,33.0,-41.0,63.0,1.7233641147613525
353,16.0,130.0,-313.0,1.0,-9666.0,-4563.0,-1414.0,-12337.0,-31.0,18.0,26.0,76.0,63.0,33.0,-41.0,63.0,1.7395451068878174
354,16.0,130.0,-313.0,1.0,-9666.0,-4563.0,-1414.0,-12337.0,-10.0,28.0,40.0,11.0,-37.0,23.0,59.0,127.0,1.7433934211730957
355,16.0,130.0,-313.0,1.0,-9666.0,-4563.0,-1414.0,-12337.0,-45.0,-1.0,101.0,17.0,-51.0,-108.0,4.0,-107.0,1.7469899654388428
356,185.0,114.0,-413.0,1.0,-9708.0,-4621.0,-1545.0,-12267.0,-45.0,-1.0,101.0,17.0,-51.0,-108.0,4.0,-107.0,1.7511160373687744
357,185.0,114.0,-413.0,1.0,-9708.0,-4621.0,-1545.0,-12267.0,-4.0,-2.0,-70.0,1.0,-41.0,-128.0,-14.0,-82.0,1.7551231384277344
358,185.0,114.0,-413.0,1.0,-9708.0,-4621.0,-1545.0,-12267.0,-59.0,-12.0,97.0,-11.0,-92.0,-33.0,51.0,31.0,1.7598857879638672
359,-137.0,-4.0,-448.0,1.0,-9777.0,-4633.0,-1620.0,-12197.0,-59.0,-12.0,97.0,-11.0,-92.0,-33.0,51.0,31.0,1.7750365734100342
360,-137.0,-4.0,-448.0,1.0,-9777.0,-4633.0,-1620.0,-12197.0,45.0,0.0,16.0,9.0,18.0,-89.0,-22.0,92.0,1.7845616340637207
361,-137.0,-4.0,-448.0,1.0,-9777.0,-4633.0,-1620.0,-12197.0,52.0,-38.0,-128.0,-75.0,52.0,78.0,7.0,25.0,1.7888844013214111
362,-458.0,-125.0,-224.0,1.0,-9835.0,-4597.0,-1572.0,-12171.0,52.0,-38.0,-128.0,-75.0,52.0,78.0,7.0,25.0,1.7909488677978516
363,-458.0,-125.0,-224.0,1.0,-9835.0,-4597.0,-1572.0,-12171.0,67.0,-1.0,-73.0,88.0,53.0,62.0,102.0,82.0,1.792802333831787
364,-458.0,-125.0,-224.0,1.0,-9835.0,-4597.0,-1572.0,-12171.0,-35.0,6.0,-41.0,-44.0,25.0,-28.0,98.0,127.0,1.8141224384307861
365,-305.0,-106.0,-126.0,1.0,-9865.0,-4557.0,-1477.0,-12173.0,-35.0,6.0,-41.0,-44.0,25.0,-28.0,98.0,127.0,1.8160200119018555
366,-305.0,-106.0,-126.0,1.0,-9865.0,-4557.0,-1477.0,-12173.0,23.0,-41.0,19.0,86.0,87.0,25.0,-47.0,19.0,1.8179216384887695
367,-305.0,-106.0,-126.0,1.0,-9865.0,-4557.0,-1477.0,-12173.0,-52.0,10.0,-9.0,30.0,7.0,30.0,35.0,60.0,1.8197581768035889
368,420.0,-73.0,-302.0,1.0,-9888.0,-4572.0,-1500.0,-12147.0,-52.0,10.0,-9.0,30.0,7.0,30.0,35.0,60.0,1.827392339706421
369,420.0,-73.0,-302.0,1.0,-9888.0,-4572.0,-1500.0,-12147.0,18.0,67.0,127.0,23.0,21.0,52.0,77.0,-111.0,1.8352973461151123
370,420.0,-73.0,-302.0,1.0,-9888.0,-4572.0,-1500.0,-12147.0,37.0,3.0,-35.0,45.0,-67.0,-74.0,-83.0,-128.0,1.84391450881958
371,322.0,-138.0,-58.0,1.0,-9882.0,-4628.0,-1542.0,-12125.0,37.0,3.0,-35.0,45.0,-67.0,-74.0,-83.0,-128.0,1.85115647315979
372,322.0,-138.0,-58.0,1.0,-9882.0,-4628.0,-1542.0,-12125.0,-59.0,-25.0,91.0,14.0,-6.0,28.0,-54.0,-86.0,1.8547015190124512
373,322.0,-138.0,-58.0,1.0,-9882.0,-4628.0,-1542.0,-12125.0,-56.0,57.0,98.0,21.0,-55.0,-80.0,-49.0,-88.0,1.8656418323516846
374,-340.0,-128.0,201.0,1.0,-9866.0,-4623.0,-1440.0,-12152.0,-56.0,57.0,98.0,21.0,-55.0,-80.0,-49.0,-88.0,1.8677480220794678
375,-340.0,-128.0,201.0,1.0,-9866.0,-4623.0,-1440.0,-12152.0,25.0,74.0,125.0,23.0,-50.0,-50.0,28.0,62.0,1.8801138401031494
376,-28.0,-47.0,84.0,1.0,-9846.0,-4636.0,-1376.0,-12171.0,25.0,74.0,125.0,23.0,-50.0,-50.0,28.0,62.0,1.9062061309814453
377,-28.0,-47.0,84.0,1.0,-9846.0,-4636.0,-1376.0,-12171.0,-7.0,-27.0,-2.0,-53.0,16.0,-42.0,-99.0,12.0,1.9107666015625
378,-28.0,-47.0,84.0,1.0,-9846.0,-4636.0,-1376.0,-12171.0,-48.0,-41.0,-120.0,-59.0,-39.0,-106.0,-74.0,-92.0,1.9132397174835205
379,420.0,12.0,-68.0,1.0,-9828.0,-4709.0,-1450.0,-12149.0,-48.0,-41.0,-120.0,-59.0,-39.0,-106.0,-74.0,-92.0,1.9259586334228516
380,420.0,12.0,-68.0,1.0,-9828.0,-4709.0,-1450.0,-12149.0,30.0,-20.0,16.0,3.0,-32.0,48.0,7.0,-78.0,1.928389549255371
381,420.0,12.0,-68.0,1.0,-9828.0,-4709.0,-1450.0,-12149.0,32.0,-1.0,-124.0,-26.0,18.0,-30.0,-32.0,94.0,1.931363821029663
382,62.0,-1.0,81.0,1.0,-9814.0,-4740.0,-1488.0,-12144.0,32.0,-1.0,-124.0,-26.0,18.0,-30.0,-32.0,94.0,1.9483685493469238
383,-27.0,-31.0,122.0,1.0,-9798.0,-4755.0,-1485.0,-12151.0,32.0,-1.0,-124.0,-26.0,18.0,-30.0,-32.0,94.0,1.9577717781066895
384,-27.0,-31.0,122.0,1.0,-9798.0,-4755.0,-1485.0,-12151.0,10.0,3.0,10.0,53.0,73.0,127.0,44.0,-18.0,1.9615826606750488
385,-27.0,-31.0,122.0,1.0,-9798.0,-4755.0,-1485.0,-12151.0,-69.0,8.0,32.0,23.0,30.0,-70.0,-56.0,-30.0,1.9651691913604736
386,209.0,-36.0,7.0,1.0,-9789.0,-4783.0,-1525.0,-12142.0,-69.0,8.0,32.0,23.0,30.0,-70.0,-56.0,-30.0,1.9785640239715576
387,209.0,-36.0,7.0,1.0,-9789.0,-4783.0,-1525.0,-12142.0,25.0,31.0,2.0,-23.0,13.0,-47.0,-64.0,-61.0,1.9816584587097168
388,209.0,-36.0,7.0,1.0,-9789.0,-4783.0,-1525.0,-12142.0,-17.0,-11.0,74.0,61.0,57.0,59.0,42.0,-34.0,1.9853250980377197
389,93.0,-97.0,23.0,1.0,-9786.0,-4812.0,-1551.0,-12130.0,-17.0,-11.0,74.0,61.0,57.0,59.0,42.0,-34.0,2.001732587814331
390,93.0,-97.0,23.0,1.0,-9786.0,-4812.0,-1551.0,-12130.0,38.0,-29.0,-64.0,16.0,83.0,26.0,-7.0,-74.0,2.009495258331299
391,93.0,-97.0,23.0,1.0,-9786.0,-4812.0,-1551.0,-12130.0,38.0,-6.0,12.0,-32.0,48.0,-7.0,8.0,-38.0,2.0124671459198
392,63.0,-146.0,37.0,1.0,-9780.0,-4846.0,-1554.0,-12121.0,38.0,-6.0,12.0,-32.0,48.0,-7.0,8.0,-38.0,2.033522367477417
393,63.0,-146.0,37.0,1.0,-9780.0,-4846.0,-1554.0,-12121.0,-14.0,-25.0,-48.0,-28.0,-4.0,41.0,19.0,-53.0,2.037719488143921
394,282.0,-166.0,-37.0,1.0,-9773.0,-4908.0,-1593.0,-12096.0,-14.0,-25.0,-48.0,-28.0,-4.0,41.0,19.0,-53.0,2.039638042449951
395,282.0,-166.0,-37.0,1.0,-9773.0,-4908.0,-1593.0,-12096.0,-16.0,-5.0,22.0,56.0,34.0,49.0,23.0,-22.0,2.0414838790893555
396,340.0,-165.0,-40.0,1.0,-9762.0,-4975.0,-1634.0,-12072.0,-16.0,-5.0,22.0,56.0,34.0,49.0,23.0,-22.0,2.052340269088745
397,340.0,-165.0,-40.0,1.0,-9762.0,-4975.0,-1634.0,-12072.0,12.0,-13.0,-44.0,-3.0,-29.0,-1.0,-36.0,-58.0,2.061814785003662
398,340.0,-165.0,-40.0,1.0,-9762.0,-4975.0,-1634.0,-12072.0,2.0,-6.0,-43.0,-55.0,-52.0,-3.0,-8.0,-1.0,2.0648746490478516
399,180.0,-179.0,25.0,1.0,-9750.0,-5028.0,-1643.0,-12059.0,2.0,-6.0,-43.0,-55.0,-52.0,-3.0,-8.0,-1.0,2.084174871444702
400,180.0,-179.0,25.0,1.0,-9750.0,-5028.0,-1643.0,-12059.0,-21.0,2.0,19.0,-17.0,-38.0,7.0,7.0,10.0,2.087996244430542
401,180.0,-179.0,25.0,1.0,-9750.0,-5028.0,-1643.0,-12059.0,21.0,-16.0,-31.0,-42.0,-33.0,-30.0,-5.0,47.0,2.09240984916687
402,155.0,-190.0,9.0,1.0,-9740.0,-5076.0,-1631.0,-12049.0,21.0,-16.0,-31.0,-42.0,-33.0,-30.0,-5.0,47.0,2.1067962646484375
403,155.0,-190.0,9.0,1.0,-9740.0,-5076.0,-1631.0,-12049.0,3.0,-1.0,43.0,27.0,20.0,32.0,23.0,93.0,2.1098737716674805
404,155.0,-190.0,9.0,1.0,-9740.0,-5076.0,-1631.0,-12049.0,5.0,4.0,35.0,-32.0,-37.0,50.0,-20.0,2.0,2.1128273010253906
405,401.0,-165.0,-58.0,1.0,-9723.0,-5150.0,-1658.0,-12027.0,5.0,4.0,35.0,-32.0,-37.0,50.0,-20.0,2.0,2.13914155960083
406,498.0,-194.0,-176.0,1.0,-9715.0,-5239.0,-1704.0,-11989.0,5.0,4.0,35.0,-32.0,-37.0,50.0,-20.0,2.0,2.1433069705963135
407,498.0,-194.0,-176.0,1.0,-9715.0,-5239.0,-1704.0,-11989.0,10.0,7.0,4.0,-28.0,-1.0,-55.0,10.0,-22.0,2.1472854614257812
408,498.0,-194.0,-176.0,1.0,-9715.0,-5239.0,-1704.0,-11989.0,2.0,-1.0,57.0,39.0,-4.0,85.0,8.0,33.0,2.1497743129730225
409,414.0,-245.0,-222.0,1.0,-9718.0,-5323.0,-1728.0,-11946.0,2.0,-1.0,57.0,39.0,-4.0,85.0,8.0,33.0,2.1584866046905518
410,414.0,-245.0,-222.0,1.0,-9718.0,-5323.0,-1728.0,-11946.0,-14.0,-1.0,13.0,48.0,-39.0,-55.0,6.0,-4.0,2.1603481769561768
411,414.0,-245.0,-222.0,1.0,-9718.0,-5323.0,-1728.0,-11946.0,-1.0,-6.0,-63.0,-54.0,-103.0,-54.0,20.0,24.0,2.164821147918701
412,403.0,-273.0,-258.0,1.0,-9723.0,-5411.0,-1740.0,-11900.0,-1.0,-6.0,-63.0,-54.0,-103.0,-54.0,20.0,24.0,2.190502643585205
413,403.0,-273.0,-258.0,1.0,-9723.0,-5411.0,-1740.0,-11900.0,7.0,-3.0,-18.0,-9.0,29.0,60.0,19.0,38.0,2.19466495513916
414,403.0,-273.0,-258.0,1.0,-9723.0,-5411.0,-1740.0,-11900.0,-16.0,-3.0,-12.0,-8.0,27.0,127.0,-24.0,-39.0,2.198620557785034
415,607.0,-310.0,-268.0,1.0,-9715.0,-5536.0,-1781.0,-11843.0,-16.0,-3.0,-12.0,-8.0,27.0,127.0,-24.0,-39.0,2.201442003250122
416,607.0,-310.0,-268.0,1.0,-9715.0,-5536.0,-1781.0,-11843.0,10.0,2.0,2.0,-17.0,7.0,41.0,16.0,39.0,2.203294038772583
417,607.0,-310.0,-268.0,1.0,-9715.0,-5536.0,-1781.0,-11843.0,-9.0,-2.0,-30.0,-20.0,32.0,-4.0,-2.0,-15.0,2.2050423622131348
418,607.0,-310.0,-268.0,1.0,-9715.0,-5536.0,-1781.0,-11843.0,1.0,-5.0,-41.0,8.0,6.0,-119.0,14.0,20.0,2.2067935466766357
419,607.0,-310.0,-268.0,1.0,-9715.0,-5536.0,-1781.0,-11843.0,-8.0,-9.0,-40.0,-12.0,5.0,-126.0,4.0,-5.0,2.208629846572876
420,607.0,-310.0,-268.0,1.0,-9715.0,-5536.0,-1781.0,-11843.0,6.0,-3.0,-43.0,-30.0,-36.0,-58.0,14.0,24.0,2.2103888988494873
421,607.0,-310.0,-268.0,1.0,-9715.0,-5536.0,-1781.0,-11843.0,-10.0,4.0,-9.0,12.0,4.0,-16.0,8.0,-4.0,2.2122702598571777
422,670.0,-348.0,-247.0,1.0,-9702.0,-5676.0,-1838.0,-11779.0,-10.0,4.0,-9.0,12.0,4.0,-16.0,8.0,-4.0,2.2184834480285645
423,670.0,-348.0,-247.0,1.0,-9702.0,-5676.0,-1838.0,-11779.0,1.0,0.0,4.0,-8.0,-41.0,8.0,11.0,10.0,2.221188545227051
424,670.0,-348.0,-247.0,1.0,-9702.0,-5676.0,-1838.0,-11779.0,0.0,4.0,-2.0,23.0,9.0,16.0,4.0,12.0,2.223022699356079
425,670.0,-348.0,-247.0,1.0,-9702.0,-5676.0,-1838.0,-11779.0,-1.0,-11.0,2.0,3.0,18.0,30.0,-7.0,-16.0,2.2248220443725586
426,670.0,-348.0,-247.0,1.0,-9702.0,-5676.0,-1838.0,-11779.0,-1.0,-7.0,-17.0,-27.0,0.0,-10.0,-6.0,6.0,2.2265708446502686
427,785.0,-438.0,-308.0,1.0,-9691.0,-5829.0,-1901.0,-11702.0,-1.0,-7.0,-17.0,-27.0,0.0,-10.0,-6.0,6.0,2.233766555786133
428,785.0,-438.0,-308.0,1.0,-9691.0,-5829.0,-1901.0,-11702.0,1.0,13.0,33.0,-15.0,-6.0,33.0,2.0,58.0,2.235694408416748
429,785.0,-438.0,-308.0,1.0,-9691.0,-5829.0,-1901.0,-11702.0,-1.0,-7.0,-16.0,-1.0,1.0,-11.0,-7.0,-19.0,2.2375292778015137
430,785.0,-438.0,-308.0,1.0,-9691.0,-5829.0,-1901.0,-11702.0,-4.0,-12.0,-73.0,-38.0,4.0,-13.0,2.0,10.0,2.2393057346343994
431,951.0,-506.0,-273.0,1.0,-9671.0,-5998.0,-1979.0,-11621.0,-4.0,-12.0,-73.0,-38.0,4.0,-13.0,2.0,10.0,2.256026268005371
432,951.0,-506.0,-273.0,1.0,-9671.0,-5998.0,-1979.0,-11621.0,-4.0,11.0,-2.0,50.0,-7.0,16.0,-3.0,-6.0,2.2579169273376465
433,951.0,-506.0,-273.0,1.0,-9671.0,-5998.0,-1979.0,-11621.0,38.0,3.0,-21.0,-11.0,-9.0,28.0,5.0,-1.0,2.262308120727539
434,996.0,-565.0,-218.0,1.0,-9641.0,-6170.0,-2044.0,-11545.0,38.0,3.0,-21.0,-11.0,-9.0,28.0,5.0,-1.0,2.271190881729126
435,996.0,-565.0,-218.0,1.0,-9641.0,-6170.0,-2044.0,-11545.0,7.0,53.0,-3.0,-41.0,29.0,6.0,9.0,-9.0,2.274287462234497
436,996.0,-565.0,-218.0,1.0,-9641.0,-6170.0,-2044.0,-11545.0,-18.0,23.0,33.0,19.0,13.0,-18.0,-30.0,-13.0,2.2846720218658447
437,1197.0,-696.0,-195.0,1.0,-9594.0,-6384.0,-2122.0,-11453.0,-18.0,23.0,33.0,19.0,13.0,-18.0,-30.0,-13.0,2.293872356414795
438,1197.0,-696.0,-195.0,1.0,-9594.0,-6384.0,-2122.0,-11453.0,-17.0,-92.0,-73.0,-22.0,0.0,-5.0,-11.0,-8.0,2.297145366668701
439,1197.0,-696.0,-195.0,1.0,-9594.0,-6384.0,-2122.0,-11453.0,11.0,41.0,70.0,-16.0,85.0,39.0,8.0,-2.0,2.300497055053711
440,1316.0,-810.0,-257.0,1.0,-9536.0,-6652.0,-2215.0,-11330.0,11.0,41.0,70.0,-16.0,85.0,39.0,8.0,-2.0,2.3087542057037354
441,1316.0,-810.0,-257.0,1.0,-9536.0,-6652.0,-2215.0,-11330.0,4.0,24.0,13.0,0.0,-4.0,-4.0,16.0,33.0,2.3149383068084717
442,1316.0,-810.0,-257.0,1.0,-9536.0,-6652.0,-2215.0,-11330.0,-10.0,-38.0,-23.0,17.0,-11.0,-2.0,-4.0,-22.0,2.3225979804992676
443,1155.0,-813.0,-446.0,1.0,-9511.0,-6899.0,-2311.0,-11184.0,-10.0,-38.0,-23.0,17.0,-11.0,-2.0,-4.0,-22.0,2.3303632736206055
444,1155.0,-813.0,-446.0,1.0,-9511.0,-6899.0,-2311.0,-11184.0,-10.0,-6.0,-24.0,-15.0,-12.0,7.0,33.0,85.0,2.332305908203125
445,1155.0,-813.0,-446.0,1.0,-9511.0,-6899.0,-2311.0,-11184.0,14.0,10.0,0.0,2.0,-4.0,11.0,-7.0,-6.0,2.344688653945923
446,969.0,-828.0,-379.0,1.0,-9493.0,-7126.0,-2389.0,-11040.0,14.0,10.0,0.0,2.0,-4.0,11.0,-7.0,-6.0,2.3532016277313232
447,969.0,-828.0,-379.0,1.0,-9493.0,-7126.0,-2389.0,-11040.0,20.0,-2.0,23.0,0.0,-30.0,9.0,-6.0,-58.0,2.3567047119140625
448,969.0,-828.0,-379.0,1.0,-9493.0,-7126.0,-2389.0,-11040.0,-8.0,-1.0,48.0,62.0,-46.0,-31.0,1.0,-13.0,2.3603105545043945
449,621.0,-1157.0,-179.0,1.0,-9481.0,-7365.0,-2375.0,-10895.0,-8.0,-1.0,48.0,62.0,-46.0,-31.0,1.0,-13.0,2.3684048652648926
450,621.0,-1157.0,-179.0,1.0,-9481.0,-7365.0,-2375.0,-10895.0,0.0,-5.0,6.0,1.0,-7.0,-2.0,3.0,-1.0,2.375030517578125
451,621.0,-1157.0,-179.0,1.0,-9481.0,-7365.0,-2375.0,-10895.0,-12.0,-16.0,-13.0,-19.0,10.0,8.0,6.0,-28.0,2.3823318481445312
452,621.0,-1256.0,-26.0,1.0,-9439.0,-7633.0,-2322.0,-10757.0,-12.0,-16.0,-13.0,-19.0,10.0,8.0,6.0,-28.0,2.390672206878662
453,621.0,-1256.0,-26.0,1.0,-9439.0,-7633.0,-2322.0,-10757.0,1.0,3.0,25.0,36.0,13.0,11.0,-2.0,-1.0,2.3926072120666504
454,621.0,-1256.0,-26.0,1.0,-9439.0,-7633.0,-2322.0,-10757.0,-4.0,-2.0,-1.0,-11.0,1.0,-10.0,6.0,16.0,2.4062888622283936
455,536.0,-1074.0,-214.0,1.0,-9443.0,-7814.0,-2290.0,-10630.0,-4.0,-2.0,-1.0,-11.0,1.0,-10.0,6.0,16.0,2.4140400886535645
456,536.0,-1074.0,-214.0,1.0,-9443.0,-7814.0,-2290.0,-10630.0,-1.0,19.0,77.0,-14.0,-10.0,8.0,-6.0,-15.0,2.4171202182769775
457,536.0,-1074.0,-214.0,1.0,-9443.0,-7814.0,-2290.0,-10630.0,-4.0,-5.0,-5.0,-2.0,-2.0,-15.0,-6.0,-6.0,2.4287269115448
458,1063.0,-777.0,-70.0,1.0,-9403.0,-7971.0,-2355.0,-10533.0,-4.0,-5.0,-5.0,-2.0,-2.0,-15.0,-6.0,-6.0,2.4330408573150635
459,1063.0,-777.0,-70.0,1.0,-9403.0,-7971.0,-2355.0,-10533.0,-7.0,-38.0,-41.0,-1.0,-3.0,-16.0,-2.0,-10.0,2.436974048614502
460,1063.0,-777.0,-70.0,1.0,-9403.0,-7971.0,-2355.0,-10533.0,5.0,5.0,34.0,36.0,-8.0,-10.0,8.0,12.0,2.4423153400421143
461,1355.0,-615.0,280.0,1.0,-9279.0,-8172.0,-2433.0,-10472.0,5.0,5.0,34.0,36.0,-8.0,-10.0,8.0,12.0,2.451140880584717
462,1355.0,-615.0,280.0,1.0,-9279.0,-8172.0,-2433.0,-10472.0,-1.0,3.0,-15.0,4.0,9.0,3.0,-4.0,-9.0,2.4544291496276855
463,1355.0,-615.0,280.0,1.0,-9279.0,-8172.0,-2433.0,-10472.0,-7.0,-5.0,-16.0,-1.0,-1.0,-1.0,-4.0,-7.0,2.466068744659424
464,1313.0,-837.0,612.0,1.0,-9111.0,-8437.0,-2473.0,-10400.0,-7.0,-5.0,-16.0,-1.0,-1.0,-1.0,-4.0,-7.0,2.4742555618286133
465,1313.0,-837.0,612.0,1.0,-9111.0,-8437.0,-2473.0,-10400.0,-6.0,4.0,1.0,13.0,-10.0,10.0,-7.0,3.0,2.4771385192871094
466,1313.0,-837.0,612.0,1.0,-9111.0,-8437.0,-2473.0,-10400.0,-5.0,-1.0,-4.0,2.0,-16.0,2.0,2.0,3.0,2.48862624168396
467,601.0,-1002.0,665.0,1.0,-8991.0,-8672.0,-2406.0,-10326.0,-5.0,-1.0,-4.0,2.0,-16.0,2.0,2.0,3.0,2.492269515991211
468,601.0,-1002.0,665.0,1.0,-8991.0,-8672.0,-2406.0,-10326.0,1.0,10.0,13.0,-7.0,1.0,-13.0,-5.0,-8.0,2.496209144592285
469,601.0,-1002.0,665.0,1.0,-8991.0,-8672.0,-2406.0,-10326.0,-4.0,-15.0,-17.0,-19.0,1.0,2.0,2.0,4.0,2.5041465759277344
470,-102.0,-1005.0,446.0,1.0,-8959.0,-8804.0,-2232.0,-10282.0,-4.0,-15.0,-17.0,-19.0,1.0,2.0,2.0,4.0,2.510436773300171
471,-102.0,-1005.0,446.0,1.0,-8959.0,-8804.0,-2232.0,-10282.0,-4.0,-6.0,-7.0,-7.0,1.0,18.0,3.0,-5.0,2.512321949005127
472,-102.0,-1005.0,446.0,1.0,-8959.0,-8804.0,-2232.0,-10282.0,1.0,-4.0,-23.0,-6.0,-18.0,-45.0,-7.0,6.0,2.525379180908203
473,424.0,-954.0,537.0,1.0,-8864.0,-8984.0,-2120.0,-10232.0,1.0,-4.0,-23.0,-6.0,-18.0,-45.0,-7.0,6.0,2.5339274406433105
474,424.0,-954.0,537.0,1.0,-8864.0,-8984.0,-2120.0,-10232.0,1.0,7.0,15.0,-2.0,-9.0,-10.0,1.0,-2.0,2.537865400314331
475,424.0,-954.0,537.0,1.0,-8864.0,-8984.0,-2120.0,-10232.0,-1.0,-4.0,1.0,-15.0,5.0,10.0,2.0,5.0,2.5486111640930176
476,518.0,-941.0,632.0,1.0,-8752.0,-9174.0,-2027.0,-10178.0,-1.0,-4.0,1.0,-15.0,5.0,10.0,2.0,5.0,2.55074143409729
477,518.0,-941.0,632.0,1.0,-8752.0,-9174.0,-2027.0,-10178.0,3.0,17.0,19.0,12.0,10.0,-14.0,5.0,-2.0,2.555233955383301
478,518.0,-941.0,632.0,1.0,-8752.0,-9174.0,-2027.0,-10178.0,2.0,9.0,-10.0,-42.0,11.0,-3.0,8.0,3.0,2.56239914894104
479,398.0,-993.0,586.0,1.0,-8659.0,-9357.0,-1925.0,-10111.0,2.0,9.0,-10.0,-42.0,11.0,-3.0,8.0,3.0,2.571108102798462
480,398.0,-993.0,586.0,1.0,-8659.0,-9357.0,-1925.0,-10111.0,-2.0,-3.0,-21.0,-6.0,0.0,-6.0,2.0,-3.0,2.573058605194092
481,398.0,-993.0,586.0,1.0,-8659.0,-9357.0,-1925.0,-10111.0,-1.0,11.0,21.0,4.0,1.0,6.0,3.0,3.0,2.5853402614593506
482,176.0,-1018.0,495.0,1.0,-8600.0,-9506.0,-1796.0,-10045.0,-1.0,11.0,21.0,4.0,1.0,6.0,3.0,3.0,2.592595338821411
483,176.0,-1018.0,495.0,1.0,-8600.0,-9506.0,-1796.0,-10045.0,2.0,4.0,20.0,19.0,1.0,-19.0,-27.0,-4.0,2.599588632583618
484,176.0,-1018.0,495.0,1.0,-8600.0,-9506.0,-1796.0,-10045.0,2.0,7.0,65.0,32.0,-13.0,-15.0,-11.0,0.0,2.607743978500366
485,160.0,-996.0,385.0,1.0,-8561.0,-9636.0,-1680.0,-9976.0,2.0,7.0,65.0,32.0,-13.0,-15.0,-11.0,0.0,2.609510660171509
486,160.0,-996.0,385.0,1.0,-8561.0,-9636.0,-1680.0,-9976.0,0.0,10.0,4.0,-6.0,19.0,15.0,7.0,-2.0,2.6155266761779785
487,160.0,-996.0,385.0,1.0,-8561.0,-9636.0,-1680.0,-9976.0,-11.0,-15.0,-59.0,-33.0,-13.0,-3.0,0.0,-10.0,2.6226556301116943
488,354.0,-950.0,337.0,1.0,-8512.0,-9769.0,-1602.0,-9900.0,-11.0,-15.0,-59.0,-33.0,-13.0,-3.0,0.0,-10.0,2.630586862564087
489,354.0,-950.0,337.0,1.0,-8512.0,-9769.0,-1602.0,-9900.0,-1.0,4.0,31.0,-23.0,6.0,-3.0,1.0,-4.0,2.632681131362915
490,354.0,-950.0,337.0,1.0,-8512.0,-9769.0,-1602.0,-9900.0,5.0,6.0,12.0,-15.0,-12.0,35.0,-2.0,-2.0,2.6457269191741943
491,400.0,-874.0,264.0,1.0,-8476.0,-9887.0,-1555.0,-9821.0,5.0,6.0,12.0,-15.0,-12.0,35.0,-2.0,-2.0,2.6546502113342285
492,400.0,-874.0,264.0,1.0,-8476.0,-9887.0,-1555.0,-9821.0,1.0,-8.0,-25.0,-25.0,-10.0,10.0,-5.0,-30.0,2.657224178314209
493,400.0,-874.0,264.0,1.0,-8476.0,-9887.0,-1555.0,-9821.0,-1.0,-1.0,-12.0,6.0,1.0,8.0,3.0,-13.0,2.668644428253174
494,347.0,-784.0,239.0,1.0,-8447.0,-9984.0,-1510.0,-9754.0,-1.0,-1.0,-12.0,6.0,1.0,8.0,3.0,-13.0,2.6718008518218994
495,347.0,-784.0,239.0,1.0,-8447.0,-9984.0,-1510.0,-9754.0,1.0,-8.0,-35.0,-22.0,-13.0,10.0,4.0,12.0,2.6761245727539062
496,347.0,-784.0,239.0,1.0,-8447.0,-9984.0,-1510.0,-9754.0,-4.0,-7.0,-12.0,-8.0,-14.0,-40.0,-8.0,-4.0,2.6837620735168457
497,354.0,-665.0,215.0,1.0,-8418.0,-10069.0,-1479.0,-9697.0,-4.0,-7.0,-12.0,-8.0,-14.0,-40.0,-8.0,-4.0,2.6903252601623535
498,354.0,-665.0,215.0,1.0,-8418.0,-10069.0,-1479.0,-9697.0,-7.0,-16.0,-68.0,-32.0,-8.0,-14.0,-2.0,12.0,2.6922194957733154
499,354.0,-665.0,215.0,1.0,-8418.0,-10069.0,-1479.0,-9697.0,0.0,-4.0,-10.0,-17.0,6.0,3.0,4.0,12.0,2.7143514156341553
