,Gyro 0,Gyro 1,Gyro 2,Label,Orientation 0,Orientation 1,Orientation 2,Orientation 3,Sensor 0,Sensor 1,Sensor 2,Sensor 3,Sensor 4,Sensor 5,Sensor 6,Sensor 7,Timestamp
0,-51.0,-4.0,13.0,1.0,-8560.0,-10064.0,-1742.0,-9533.0,0.0,1.0,9.0,-19.0,-6.0,2.0,8.0,0.0,2.1457672119140625e-06
1,-51.0,-4.0,13.0,1.0,-8560.0,-10064.0,-1742.0,-9533.0,3.0,8.0,9.0,8.0,-13.0,-2.0,5.0,7.0,0.002101898193359375
2,-51.0,-4.0,13.0,1.0,-8560.0,-10064.0,-1742.0,-9533.0,1.0,-1.0,2.0,-5.0,-4.0,1.0,-3.0,-1.0,0.0039215087890625
3,-90.0,-19.0,17.0,1.0,-8567.0,-10061.0,-1730.0,-9533.0,1.0,-1.0,2.0,-5.0,-4.0,1.0,-3.0,-1.0,0.006888628005981445
4,-90.0,-19.0,17.0,1.0,-8567.0,-10061.0,-1730.0,-9533.0,-2.0,-3.0,-5.0,-19.0,-5.0,-5.0,-8.0,0.0,0.010559320449829102
5,-90.0,-19.0,17.0,1.0,-8567.0,-10061.0,-1730.0,-9533.0,-3.0,-1.0,7.0,19.0,14.0,-5.0,-16.0,13.0,0.01326894760131836
6,-117.0,-16.0,23.0,1.0,-8575.0,-10054.0,-1712.0,-9535.0,-3.0,-1.0,7.0,19.0,14.0,-5.0,-16.0,13.0,0.015070676803588867
7,-117.0,-16.0,23.0,1.0,-8575.0,-10054.0,-1712.0,-9535.0,-3.0,-1.0,7.0,19.0,14.0,-5.0,-16.0,13.0,0.016945362091064453
8,-117.0,-16.0,23.0,1.0,-8575.0,-10054.0,-1712.0,-9535.0,2.0,-4.0,-11.0,24.0,12.0,-1.0,-3.0,-26.0,0.01844501495361328
9,-117.0,-16.0,23.0,1.0,-8575.0,-10054.0,-1712.0,-9535.0,2.0,9.0,-16.0,6.0,31.0,5.0,4.0,-9.0,0.020616531372070312
10,-106.0,-23.0,16.0,1.0,-8583.0,-10049.0,-1696.0,-9536.0,2.0,9.0,-16.0,6.0,31.0,5.0,4.0,-9.0,0.02361154556274414
11,-106.0,-23.0,16.0,1.0,-8583.0,-10049.0,-1696.0,-9536.0,-5.0,7.0,45.0,-11.0,7.0,12.0,1.0,-4.0,0.026755094528198242
12,-106.0,-23.0,16.0,1.0,-8583.0,-10049.0,-1696.0,-9536.0,3.0,1.0,13.0,4.0,8.0,3.0,-2.0,-2.0,0.028756141662597656
13,-79.0,-25.0,11.0,1.0,-8588.0,-10047.0,-1681.0,-9536.0,3.0,1.0,13.0,4.0,8.0,3.0,-2.0,-2.0,0.03127717971801758
14,-79.0,-25.0,11.0,1.0,-8588.0,-10047.0,-1681.0,-9536.0,-1.0,0.0,-22.0,-1.0,4.0,-16.0,-9.0,-10.0,0.03325223922729492
15,-79.0,-25.0,11.0,1.0,-8588.0,-10047.0,-1681.0,-9536.0,-9.0,-6.0,-26.0,-2.0,-13.0,-9.0,13.0,41.0,0.035013437271118164
16,-39.0,-28.0,12.0,1.0,-8589.0,-10050.0,-1672.0,-9535.0,-9.0,-6.0,-26.0,-2.0,-13.0,-9.0,13.0,41.0,0.036777496337890625
17,-39.0,-28.0,12.0,1.0,-8589.0,-10050.0,-1672.0,-9535.0,1.0,-3.0,5.0,21.0,-2.0,-10.0,-9.0,3.0,0.03860616683959961
18,-39.0,-28.0,12.0,1.0,-8589.0,-10050.0,-1672.0,-9535.0,-4.0,-4.0,-14.0,-1.0,1.0,-9.0,-6.0,-17.0,0.04036283493041992
19,-41.0,-48.0,14.0,1.0,-8590.0,-10054.0,-1660.0,-9531.0,-4.0,-4.0,-14.0,-1.0,1.0,-9.0,-6.0,-17.0,0.042253971099853516
20,-41.0,-48.0,14.0,1.0,-8590.0,-10054.0,-1660.0,-9531.0,-6.0,-15.0,-39.0,-27.0,-1.0,43.0,16.0,40.0,0.044189453125
21,-41.0,-48.0,14.0,1.0,-8590.0,-10054.0,-1660.0,-9531.0,-5.0,16.0,11.0,10.0,-6.0,-19.0,-5.0,-43.0,0.045949459075927734
22,-62.0,-47.0,20.0,1.0,-8594.0,-10054.0,-1644.0,-9530.0,-5.0,16.0,11.0,10.0,-6.0,-19.0,-5.0,-43.0,0.04773092269897461
23,-62.0,-47.0,20.0,1.0,-8594.0,-10054.0,-1644.0,-9530.0,24.0,14.0,43.0,-12.0,-2.0,21.0,4.0,2.0,0.04956960678100586
24,-62.0,-47.0,20.0,1.0,-8594.0,-10054.0,-1644.0,-9530.0,-3.0,-18.0,30.0,-14.0,-29.0,20.0,3.0,3.0,0.05133461952209473
25,-88.0,-58.0,17.0,1.0,-8600.0,-10053.0,-1624.0,-9529.0,-3.0,-18.0,30.0,-14.0,-29.0,20.0,3.0,3.0,0.0538020133972168
26,-88.0,-58.0,17.0,1.0,-8600.0,-10053.0,-1624.0,-9529.0,-3.0,-13.0,-33.0,1.0,6.0,-12.0,-3.0,-10.0,0.05651235580444336
27,-88.0,-58.0,17.0,1.0,-8600.0,-10053.0,-1624.0,-9529.0,-8.0,-12.0,33.0,6.0,-13.0,2.0,2.0,10.0,0.058341026306152344
28,-117.0,-37.0,-6.0,1.0,-8612.0,-10046.0,-1605.0,-9529.0,-8.0,-12.0,33.0,6.0,-13.0,2.0,2.0,10.0,0.06012892723083496
29,-117.0,-37.0,-6.0,1.0,-8612.0,-10046.0,-1605.0,-9529.0,-1.0,11.0,50.0,11.0,-17.0,-1.0,-6.0,-5.0,0.061966896057128906
30,-117.0,-37.0,-6.0,1.0,-8612.0,-10046.0,-1605.0,-9529.0,-3.0,-24.0,-71.0,21.0,11.0,6.0,18.0,58.0,0.06477761268615723
31,-124.0,-16.0,-2.0,1.0,-8624.0,-10038.0,-1589.0,-9529.0,-3.0,-24.0,-71.0,21.0,11.0,6.0,18.0,58.0,0.06658482551574707
32,-124.0,-16.0,-2.0,1.0,-8624.0,-10038.0,-1589.0,-9529.0,1.0,24.0,3.0,-32.0,-20.0,-13.0,1.0,27.0,0.06842613220214844
33,-124.0,-16.0,-2.0,1.0,-8624.0,-10038.0,-1589.0,-9529.0,3.0,-1.0,-26.0,9.0,-1.0,22.0,-14.0,-48.0,0.07020878791809082
34,-146.0,-10.0,-27.0,1.0,-8639.0,-10029.0,-1573.0,-9528.0,3.0,-1.0,-26.0,9.0,-1.0,22.0,-14.0,-48.0,0.07199645042419434
35,-146.0,-10.0,-27.0,1.0,-8639.0,-10029.0,-1573.0,-9528.0,-14.0,-10.0,-4.0,19.0,7.0,11.0,-3.0,-18.0,0.07384872436523438
36,-146.0,-10.0,-27.0,1.0,-8639.0,-10029.0,-1573.0,-9528.0,-10.0,13.0,26.0,-11.0,6.0,-3.0,2.0,2.0,0.0758216381072998
37,-129.0,-4.0,-43.0,1.0,-8654.0,-10017.0,-1560.0,-9528.0,-10.0,13.0,26.0,-11.0,6.0,-3.0,2.0,2.0,0.07774639129638672
38,-129.0,-4.0,-43.0,1.0,-8654.0,-10017.0,-1560.0,-9528.0,-5.0,-6.0,4.0,-8.0,0.0,-3.0,2.0,3.0,0.07962393760681152
39,-129.0,-4.0,-43.0,1.0,-8654.0,-10017.0,-1560.0,-9528.0,-5.0,1.0,-8.0,-18.0,-3.0,-5.0,-7.0,-24.0,0.08139371871948242
40,-44.0,32.0,-65.0,1.0,-8664.0,-10011.0,-1565.0,-9526.0,-5.0,1.0,-8.0,-18.0,-3.0,-5.0,-7.0,-24.0,0.0832662582397461
41,-44.0,32.0,-65.0,1.0,-8664.0,-10011.0,-1565.0,-9526.0,-4.0,-10.0,-7.0,19.0,19.0,-14.0,-10.0,-61.0,0.08620429039001465
42,-44.0,32.0,-65.0,1.0,-8664.0,-10011.0,-1565.0,-9526.0,5.0,13.0,10.0,-19.0,-1.0,-35.0,-1.0,3.0,0.08836150169372559
43,-75.0,56.0,-64.0,1.0,-8679.0,-9997.0,-1573.0,-9525.0,5.0,13.0,10.0,-19.0,-1.0,-35.0,-1.0,3.0,0.09012246131896973
44,-75.0,56.0,-64.0,1.0,-8679.0,-9997.0,-1573.0,-9525.0,-13.0,-11.0,-33.0,-24.0,10.0,-2.0,-4.0,-15.0,0.09195137023925781
45,-75.0,56.0,-64.0,1.0,-8679.0,-9997.0,-1573.0,-9525.0,11.0,19.0,81.0,8.0,-5.0,-3.0,-3.0,6.0,0.09372138977050781
46,-94.0,62.0,-40.0,1.0,-8694.0,-9982.0,-1577.0,-9527.0,11.0,19.0,81.0,8.0,-5.0,-3.0,-3.0,6.0,0.09553194046020508
47,-94.0,62.0,-40.0,1.0,-8694.0,-9982.0,-1577.0,-9527.0,-3.0,0.0,-11.0,1.0,0.0,-5.0,9.0,5.0,0.09842753410339355
48,-94.0,62.0,-40.0,1.0,-8694.0,-9982.0,-1577.0,-9527.0,3.0,-22.0,-68.0,1.0,-27.0,5.0,9.0,50.0,0.10026240348815918
49,-107.0,41.0,-29.0,1.0,-8707.0,-9969.0,-1574.0,-9529.0,3.0,-22.0,-68.0,1.0,-27.0,5.0,9.0,50.0,0.10205435752868652
50,-107.0,41.0,-29.0,1.0,-8707.0,-9969.0,-1574.0,-9529.0,4.0,-12.0,-23.0,-14.0,-10.0,-11.0,-10.0,-4.0,0.10391855239868164
51,-107.0,41.0,-29.0,1.0,-8707.0,-9969.0,-1574.0,-9529.0,-5.0,-17.0,-13.0,3.0,1.0,-2.0,-3.0,-17.0,0.10573601722717285
52,-91.0,47.0,-23.0,1.0,-8718.0,-9956.0,-1571.0,-9533.0,-5.0,-17.0,-13.0,3.0,1.0,-2.0,-3.0,-17.0,0.10756731033325195
53,-91.0,47.0,-23.0,1.0,-8718.0,-9956.0,-1571.0,-9533.0,31.0,0.0,-42.0,-20.0,-1.0,-19.0,6.0,73.0,0.10971355438232422
54,-91.0,47.0,-23.0,1.0,-8718.0,-9956.0,-1571.0,-9533.0,25.0,-12.0,-14.0,-24.0,3.0,10.0,16.0,54.0,0.11151409149169922
55,-37.0,44.0,-30.0,1.0,-8722.0,-9950.0,-1574.0,-9535.0,25.0,-12.0,-14.0,-24.0,3.0,10.0,16.0,54.0,0.11328935623168945
56,-37.0,44.0,-30.0,1.0,-8722.0,-9950.0,-1574.0,-9535.0,-5.0,17.0,-25.0,-6.0,-13.0,-7.0,-6.0,-24.0,0.11584186553955078
57,-37.0,44.0,-30.0,1.0,-8722.0,-9950.0,-1574.0,-9535.0,-10.0,29.0,20.0,-13.0,-15.0,-10.0,-15.0,-29.0,0.11817669868469238
58,-42.0,33.0,-50.0,1.0,-8728.0,-9945.0,-1576.0,-9534.0,-10.0,29.0,20.0,-13.0,-15.0,-10.0,-15.0,-29.0,0.11995100975036621
59,-42.0,33.0,-50.0,1.0,-8728.0,-9945.0,-1576.0,-9534.0,-1.0,-15.0,-31.0,20.0,-45.0,-7.0,6.0,27.0,0.1217947006225586
60,-42.0,33.0,-50.0,1.0,-8728.0,-9945.0,-1576.0,-9534.0,-13.0,-13.0,-26.0,7.0,-1.0,17.0,7.0,-10.0,0.12360405921936035
61,44.0,25.0,-37.0,1.0,-8727.0,-9944.0,-1587.0,-9534.0,-13.0,-13.0,-26.0,7.0,-1.0,17.0,7.0,-10.0,0.12538743019104004
62,44.0,25.0,-37.0,1.0,-8727.0,-9944.0,-1587.0,-9534.0,-6.0,1.0,-14.0,0.0,7.0,17.0,-3.0,-34.0,0.12722992897033691
63,44.0,25.0,-37.0,1.0,-8727.0,-9944.0,-1587.0,-9534.0,-2.0,16.0,63.0,29.0,-13.0,-2.0,-9.0,-36.0,0.1290435791015625
64,-42.0,16.0,-24.0,1.0,-8735.0,-9938.0,-1588.0,-9533.0,-2.0,16.0,63.0,29.0,-13.0,-2.0,-9.0,-36.0,0.13192439079284668
65,-42.0,16.0,-24.0,1.0,-8735.0,-9938.0,-1588.0,-9533.0,-5.0,-20.0,40.0,37.0,10.0,-7.0,-4.0,-16.0,0.13386011123657227
66,-42.0,16.0,-24.0,1.0,-8735.0,-9938.0,-1588.0,-9533.0,8.0,7.0,-18.0,22.0,40.0,-1.0,-10.0,-10.0,0.13563823699951172
67,26.0,4.0,-24.0,1.0,-8734.0,-9940.0,-1595.0,-9531.0,8.0,7.0,-18.0,22.0,40.0,-1.0,-10.0,-10.0,0.13742947578430176
68,26.0,4.0,-24.0,1.0,-8734.0,-9940.0,-1595.0,-9531.0,-11.0,-12.0,2.0,-15.0,7.0,-1.0,12.0,2.0,0.13928461074829102
69,26.0,4.0,-24.0,1.0,-8734.0,-9940.0,-1595.0,-9531.0,21.0,5.0,30.0,18.0,15.0,-5.0,-13.0,-38.0,0.14107251167297363
70,-23.0,0.0,-11.0,1.0,-8738.0,-9936.0,-1592.0,-9531.0,21.0,5.0,30.0,18.0,15.0,-5.0,-13.0,-38.0,0.14310550689697266
71,-23.0,0.0,-11.0,1.0,-8738.0,-9936.0,-1592.0,-9531.0,-1.0,-3.0,30.0,17.0,41.0,8.0,21.0,68.0,0.14550042152404785
72,-23.0,0.0,-11.0,1.0,-8738.0,-9936.0,-1592.0,-9531.0,3.0,0.0,-26.0,-59.0,6.0,-3.0,-3.0,-5.0,0.14821815490722656
73,5.0,-1.0,-16.0,1.0,-8738.0,-9936.0,-1593.0,-9531.0,3.0,0.0,-26.0,-59.0,6.0,-3.0,-3.0,-5.0,0.15027284622192383
74,5.0,-1.0,-16.0,1.0,-8738.0,-9936.0,-1593.0,-9531.0,2.0,12.0,2.0,-6.0,-2.0,-3.0,-6.0,-8.0,0.15217041969299316
75,5.0,-1.0,-16.0,1.0,-8738.0,-9936.0,-1593.0,-9531.0,-3.0,-24.0,60.0,29.0,-9.0,31.0,-1.0,-2.0,0.1539597511291504
76,2.0,1.0,-17.0,1.0,-8740.0,-9937.0,-1596.0,-9529.0,-3.0,-24.0,60.0,29.0,-9.0,31.0,-1.0,-2.0,0.15573859214782715
77,2.0,1.0,-17.0,1.0,-8740.0,-9937.0,-1596.0,-9529.0,-5.0,5.0,-11.0,-18.0,-18.0,-5.0,-7.0,10.0,0.1575934886932373
78,2.0,1.0,-17.0,1.0,-8740.0,-9937.0,-1596.0,-9529.0,-9.0,-7.0,-20.0,4.0,-5.0,1.0,-3.0,-15.0,0.15938019752502441
79,-22.0,-7.0,-19.0,1.0,-8744.0,-9936.0,-1597.0,-9525.0,-9.0,-7.0,-20.0,4.0,-5.0,1.0,-3.0,-15.0,0.16116857528686523
80,-22.0,-7.0,-19.0,1.0,-8744.0,-9936.0,-1597.0,-9525.0,-6.0,-6.0,-14.0,-5.0,-8.0,8.0,7.0,-4.0,0.16347765922546387
81,-22.0,-7.0,-19.0,1.0,-8744.0,-9936.0,-1597.0,-9525.0,-12.0,7.0,-28.0,-7.0,17.0,-6.0,-4.0,-7.0,0.1656196117401123
82,-12.0,4.0,-19.0,1.0,-8747.0,-9936.0,-1600.0,-9522.0,-12.0,7.0,-28.0,-7.0,17.0,-6.0,-4.0,-7.0,0.16745567321777344
83,-12.0,4.0,-19.0,1.0,-8747.0,-9936.0,-1600.0,-9522.0,1.0,-2.0,-50.0,-9.0,-12.0,-2.0,-9.0,-17.0,0.1693708896636963
84,-12.0,4.0,-19.0,1.0,-8747.0,-9936.0,-1600.0,-9522.0,-8.0,6.0,49.0,7.0,-2.0,-11.0,5.0,-2.0,0.17120957374572754
85,-38.0,6.0,-25.0,1.0,-8753.0,-9933.0,-1600.0,-9520.0,-8.0,6.0,49.0,7.0,-2.0,-11.0,5.0,-2.0,0.1730213165283203
86,-38.0,6.0,-25.0,1.0,-8753.0,-9933.0,-1600.0,-9520.0,-2.0,8.0,13.0,-3.0,1.0,-17.0,-9.0,-24.0,0.1748981475830078
87,-38.0,6.0,-25.0,1.0,-8753.0,-9933.0,-1600.0,-9520.0,4.0,2.0,-44.0,-29.0,6.0,-17.0,-5.0,-10.0,0.1778402328491211
88,-31.0,-3.0,-34.0,1.0,-8758.0,-9931.0,-1598.0,-9518.0,4.0,2.0,-44.0,-29.0,6.0,-17.0,-5.0,-10.0,0.18133997917175293
89,-31.0,-3.0,-34.0,1.0,-8758.0,-9931.0,-1598.0,-9518.0,13.0,5.0,67.0,33.0,0.0,13.0,11.0,26.0,0.18344974517822266
90,-31.0,-3.0,-34.0,1.0,-8758.0,-9931.0,-1598.0,-9518.0,-5.0,-7.0,-81.0,-65.0,-13.0,-6.0,-2.0,6.0,0.18529534339904785
91,-26.0,-8.0,-34.0,1.0,-8763.0,-9930.0,-1598.0,-9513.0,-5.0,-7.0,-81.0,-65.0,-13.0,-6.0,-2.0,6.0,0.1870720386505127
92,-26.0,-8.0,-34.0,1.0,-8763.0,-9930.0,-1598.0,-9513.0,-9.0,-12.0,-20.0,9.0,15.0,2.0,2.0,5.0,0.18895816802978516
93,-26.0,-8.0,-34.0,1.0,-8763.0,-9930.0,-1598.0,-9513.0,9.0,10.0,8.0,5.0,-19.0,-3.0,0.0,-9.0,0.19073486328125
94,-40.0,-28.0,-28.0,1.0,-8768.0,-9932.0,-1592.0,-9508.0,9.0,10.0,8.0,5.0,-19.0,-3.0,0.0,-9.0,0.192795991897583
95,-40.0,-28.0,-28.0,1.0,-8768.0,-9932.0,-1592.0,-9508.0,8.0,5.0,14.0,-8.0,5.0,3.0,-1.0,20.0,0.19466137886047363
96,-40.0,-28.0,-28.0,1.0,-8768.0,-9932.0,-1592.0,-9508.0,-2.0,-19.0,3.0,11.0,-29.0,1.0,7.0,-2.0,0.19643425941467285
97,-24.0,-34.0,-27.0,1.0,-8772.0,-9935.0,-1588.0,-9502.0,-2.0,-19.0,3.0,11.0,-29.0,1.0,7.0,-2.0,0.19818782806396484
98,-24.0,-34.0,-27.0,1.0,-8772.0,-9935.0,-1588.0,-9502.0,4.0,10.0,3.0,16.0,-21.0,-9.0,2.0,29.0,0.20002484321594238
99,-24.0,-34.0,-27.0,1.0,-8772.0,-9935.0,-1588.0,-9502.0,-5.0,0.0,2.0,16.0,7.0,-4.0,-5.0,5.0,0.20180535316467285
100,-14.0,-26.0,-31.0,1.0,-8776.0,-9937.0,-1587.0,-9496.0,-5.0,0.0,2.0,16.0,7.0,-4.0,-5.0,5.0,0.20355677604675293
101,-14.0,-26.0,-31.0,1.0,-8776.0,-9937.0,-1587.0,-9496.0,-3.0,18.0,29.0,-1.0,35.0,21.0,7.0,0.0,0.2054884433746338
102,-14.0,-26.0,-31.0,1.0,-8776.0,-9937.0,-1587.0,-9496.0,6.0,0.0,-43.0,13.0,-9.0,-14.0,-4.0,24.0,0.20787835121154785
103,-11.0,-21.0,-29.0,1.0,-8778.0,-9940.0,-1585.0,-9491.0,6.0,0.0,-43.0,13.0,-9.0,-14.0,-4.0,24.0,0.21035003662109375
104,-11.0,-21.0,-29.0,1.0,-8778.0,-9940.0,-1585.0,-9491.0,0.0,14.0,-20.0,-11.0,16.0,17.0,-8.0,-60.0,0.21231675148010254
105,-11.0,-21.0,-29.0,1.0,-8778.0,-9940.0,-1585.0,-9491.0,-1.0,9.0,-1.0,2.0,7.0,10.0,18.0,65.0,0.2151174545288086
106,-18.0,-25.0,-32.0,1.0,-8781.0,-9944.0,-1582.0,-9486.0,-1.0,9.0,-1.0,2.0,7.0,10.0,18.0,65.0,0.21695661544799805
107,-18.0,-25.0,-32.0,1.0,-8781.0,-9944.0,-1582.0,-9486.0,-10.0,-25.0,-33.0,5.0,-4.0,-3.0,-7.0,-14.0,0.2188103199005127
108,-18.0,-25.0,-32.0,1.0,-8781.0,-9944.0,-1582.0,-9486.0,-6.0,-13.0,-3.0,30.0,3.0,-19.0,-12.0,-22.0,0.2205979824066162
109,-19.0,-19.0,-32.0,1.0,-8784.0,-9945.0,-1580.0,-9482.0,-6.0,-13.0,-3.0,30.0,3.0,-19.0,-12.0,-22.0,0.22237181663513184
110,-19.0,-19.0,-32.0,1.0,-8784.0,-9945.0,-1580.0,-9482.0,-3.0,-5.0,7.0,4.0,-14.0,-16.0,-2.0,-9.0,0.2242295742034912
111,-19.0,-19.0,-32.0,1.0,-8784.0,-9945.0,-1580.0,-9482.0,-6.0,-9.0,-19.0,-6.0,19.0,31.0,16.0,7.0,0.22628426551818848
112,16.0,-10.0,-18.0,1.0,-8781.0,-9949.0,-1579.0,-9480.0,-6.0,-9.0,-19.0,-6.0,19.0,31.0,16.0,7.0,0.22814249992370605
113,16.0,-10.0,-18.0,1.0,-8781.0,-9949.0,-1579.0,-9480.0,3.0,4.0,13.0,-11.0,-14.0,-10.0,-5.0,16.0,0.23000359535217285
114,16.0,-10.0,-18.0,1.0,-8781.0,-9949.0,-1579.0,-9480.0,-7.0,-5.0,37.0,18.0,14.0,-4.0,-10.0,-23.0,0.23178529739379883
115,8.0,0.0,-12.0,1.0,-8781.0,-9950.0,-1578.0,-9480.0,-7.0,-5.0,37.0,18.0,14.0,-4.0,-10.0,-23.0,0.23357582092285156
116,8.0,0.0,-12.0,1.0,-8781.0,-9950.0,-1578.0,-9480.0,3.0,11.0,95.0,17.0,-11.0,-10.0,7.0,5.0,0.23545193672180176
117,8.0,0.0,-12.0,1.0,-8781.0,-9950.0,-1578.0,-9480.0,7.0,-1.0,36.0,61.0,9.0,1.0,6.0,79.0,0.2376236915588379
118,12.0,-7.0,9.0,1.0,-8781.0,-9950.0,-1578.0,-9480.0,7.0,-1.0,36.0,61.0,9.0,1.0,6.0,79.0,0.24030542373657227
119,12.0,-7.0,9.0,1.0,-8781.0,-9950.0,-1578.0,-9480.0,0.0,-16.0,-45.0,-9.0,15.0,-4.0,-2.0,10.0,0.24259066581726074
120,12.0,-7.0,9.0,1.0,-8781.0,-9950.0,-1578.0,-9480.0,-16.0,-8.0,1.0,-23.0,-21.0,-2.0,4.0,-33.0,0.24442100524902344
121,7.0,0.0,8.0,1.0,-8780.0,-9950.0,-1578.0,-9480.0,-16.0,-8.0,1.0,-23.0,-21.0,-2.0,4.0,-33.0,0.2465226650238037
122,7.0,0.0,8.0,1.0,-8780.0,-9950.0,-1578.0,-9480.0,3.0,6.0,-13.0,-9.0,-16.0,-4.0,-4.0,-2.0,0.24879956245422363
123,7.0,0.0,8.0,1.0,-8780.0,-9950.0,-1578.0,-9480.0,4.0,17.0,-38.0,-46.0,-9.0,0.0,-10.0,-32.0,0.25058531761169434
124,4.0,1.0,5.0,1.0,-8780.0,-9951.0,-1578.0,-9480.0,4.0,17.0,-38.0,-46.0,-9.0,0.0,-10.0,-32.0,0.25237154960632324
125,4.0,1.0,5.0,1.0,-8780.0,-9951.0,-1578.0,-9480.0,0.0,7.0,1.0,22.0,-7.0,9.0,2.0,9.0,0.25421881675720215
126,4.0,1.0,5.0,1.0,-8780.0,-9951.0,-1578.0,-9480.0,12.0,-21.0,-47.0,-14.0,16.0,0.0,-4.0,-21.0,0.25600552558898926
127,19.0,-1.0,2.0,1.0,-8777.0,-9954.0,-1579.0,-9480.0,12.0,-21.0,-47.0,-14.0,16.0,0.0,-4.0,-21.0,0.2577807903289795
128,19.0,-1.0,2.0,1.0,-8777.0,-9954.0,-1579.0,-9480.0,-6.0,4.0,25.0,5.0,7.0,5.0,-8.0,-27.0,0.25981831550598145
129,19.0,-1.0,2.0,1.0,-8777.0,-9954.0,-1579.0,-9480.0,-8.0,-2.0,25.0,-3.0,1.0,1.0,4.0,3.0,0.261624813079834
130,16.0,-6.0,8.0,1.0,-8773.0,-9958.0,-1579.0,-9479.0,-8.0,-2.0,25.0,-3.0,1.0,1.0,4.0,3.0,0.26340603828430176
131,16.0,-6.0,8.0,1.0,-8773.0,-9958.0,-1579.0,-9479.0,11.0,-5.0,-34.0,-15.0,5.0,-4.0,-3.0,-8.0,0.26529407501220703
132,-5.0,-20.0,7.0,1.0,-8771.0,-9961.0,-1574.0,-9478.0,11.0,-5.0,-34.0,-15.0,5.0,-4.0,-3.0,-8.0,0.26709532737731934
133,-5.0,-20.0,7.0,1.0,-8771.0,-9961.0,-1574.0,-9478.0,16.0,6.0,110.0,31.0,-10.0,-7.0,5.0,16.0,0.2694413661956787
134,-5.0,-20.0,7.0,1.0,-8771.0,-9961.0,-1574.0,-9478.0,-4.0,-11.0,-4.0,-10.0,8.0,-1.0,14.0,51.0,0.27205467224121094
135,-9.0,-32.0,2.0,1.0,-8770.0,-9966.0,-1568.0,-9475.0,-4.0,-11.0,-4.0,-10.0,8.0,-1.0,14.0,51.0,0.2744452953338623
136,-9.0,-32.0,2.0,1.0,-8770.0,-9966.0,-1568.0,-9475.0,-4.0,-11.0,-69.0,3.0,-26.0,7.0,6.0,11.0,0.27638864517211914
137,-9.0,-32.0,2.0,1.0,-8770.0,-9966.0,-1568.0,-9475.0,-3.0,8.0,31.0,-8.0,-28.0,7.0,-3.0,-11.0,0.27820277214050293
138,-4.0,-25.0,-5.0,1.0,-8770.0,-9971.0,-1566.0,-9470.0,-3.0,8.0,31.0,-8.0,-28.0,7.0,-3.0,-11.0,0.28094983100891113
139,-4.0,-25.0,-5.0,1.0,-8770.0,-9971.0,-1566.0,-9470.0,-5.0,3.0,-3.0,-16.0,17.0,-4.0,-6.0,-14.0,0.28293824195861816
140,-4.0,-25.0,-5.0,1.0,-8770.0,-9971.0,-1566.0,-9470.0,-7.0,-8.0,-49.0,-15.0,-15.0,-5.0,1.0,-3.0,0.2847723960876465
141,4.0,-18.0,-4.0,1.0,-8770.0,-9974.0,-1565.0,-9468.0,-7.0,-8.0,-49.0,-15.0,-15.0,-5.0,1.0,-3.0,0.2865715026855469
142,4.0,-18.0,-4.0,1.0,-8770.0,-9974.0,-1565.0,-9468.0,5.0,8.0,26.0,-24.0,-32.0,1.0,2.0,-10.0,0.2885160446166992
143,4.0,-18.0,-4.0,1.0,-8770.0,-9974.0,-1565.0,-9468.0,7.0,5.0,-38.0,-18.0,20.0,-4.0,-9.0,-27.0,0.29030537605285645
144,23.0,-13.0,1.0,1.0,-8767.0,-9978.0,-1567.0,-9466.0,7.0,5.0,-38.0,-18.0,20.0,-4.0,-9.0,-27.0,0.29234957695007324
145,23.0,-13.0,1.0,1.0,-8767.0,-9978.0,-1567.0,-9466.0,-7.0,-3.0,-19.0,-23.0,1.0,-6.0,0.0,32.0,0.2943089008331299
146,23.0,-13.0,1.0,1.0,-8767.0,-9978.0,-1567.0,-9466.0,12.0,-6.0,-30.0,-23.0,-9.0,-15.0,11.0,13.0,0.29610300064086914
147,28.0,-17.0,6.0,1.0,-8764.0,-9982.0,-1567.0,-9464.0,12.0,-6.0,-30.0,-23.0,-9.0,-15.0,11.0,13.0,0.29787588119506836
148,28.0,-17.0,6.0,1.0,-8764.0,-9982.0,-1567.0,-9464.0,1.0,7.0,9.0,10.0,45.0,-7.0,-14.0,-39.0,0.3004944324493408
149,28.0,-17.0,6.0,1.0,-8764.0,-9982.0,-1567.0,-9464.0,-21.0,-9.0,19.0,16.0,1.0,3.0,-1.0,-1.0,0.3031289577484131
150,25.0,-20.0,2.0,1.0,-8761.0,-9985.0,-1566.0,-9464.0,-21.0,-9.0,19.0,16.0,1.0,3.0,-1.0,-1.0,0.30498623847961426
151,25.0,-20.0,2.0,1.0,-8761.0,-9985.0,-1566.0,-9464.0,-4.0,3.0,23.0,27.0,17.0,1.0,-1.0,4.0,0.30686163902282715
152,25.0,-20.0,2.0,1.0,-8761.0,-9985.0,-1566.0,-9464.0,-2.0,8.0,4.0,-19.0,26.0,-7.0,-9.0,-32.0,0.311495304107666
153,48.0,-19.0,-1.0,1.0,-8756.0,-9991.0,-1569.0,-9462.0,-2.0,8.0,4.0,-19.0,26.0,-7.0,-9.0,-32.0,0.31894612312316895
154,48.0,-19.0,-1.0,1.0,-8756.0,-9991.0,-1569.0,-9462.0,-2.0,-2.0,-5.0,0.0,-16.0,4.0,1.0,-24.0,0.32677698135375977
155,48.0,-19.0,-1.0,1.0,-8756.0,-9991.0,-1569.0,-9462.0,-4.0,1.0,-1.0,-31.0,-18.0,-1.0,-11.0,-43.0,0.3346238136291504
156,38.0,-17.0,9.0,1.0,-8753.0,-9993.0,-1571.0,-9461.0,-4.0,1.0,-1.0,-31.0,-18.0,-1.0,-11.0,-43.0,0.3364434242248535
157,38.0,-17.0,9.0,1.0,-8753.0,-9993.0,-1571.0,-9461.0,13.0,34.0,93.0,28.0,-4.0,-8.0,5.0,30.0,0.3500325679779053
158,38.0,-17.0,9.0,1.0,-8753.0,-9993.0,-1571.0,-9461.0,-2.0,-13.0,-82.0,-31.0,-7.0,-20.0,-9.0,-9.0,0.35182905197143555
159,23.0,-18.0,14.0,1.0,-8750.0,-9996.0,-1569.0,-9461.0,-2.0,-13.0,-82.0,-31.0,-7.0,-20.0,-9.0,-9.0,0.3567209243774414
160,23.0,-18.0,14.0,1.0,-8750.0,-9996.0,-1569.0,-9461.0,3.0,-4.0,-41.0,-3.0,-11.0,-7.0,-8.0,-17.0,0.3663516044616699
161,23.0,-18.0,14.0,1.0,-8750.0,-9996.0,-1569.0,-9461.0,0.0,-4.0,4.0,15.0,-6.0,9.0,1.0,12.0,0.37160468101501465
162,27.0,-12.0,17.0,1.0,-8746.0,-9999.0,-1568.0,-9463.0,0.0,-4.0,4.0,15.0,-6.0,9.0,1.0,12.0,0.37888073921203613
163,27.0,-12.0,17.0,1.0,-8746.0,-9999.0,-1568.0,-9463.0,-5.0,-10.0,-36.0,-32.0,-16.0,-5.0,-2.0,1.0,0.38643884658813477
164,27.0,-12.0,17.0,1.0,-8746.0,-9999.0,-1568.0,-9463.0,0.0,4.0,76.0,57.0,5.0,6.0,-6.0,-32.0,0.3952186107635498
165,22.0,-19.0,12.0,1.0,-8742.0,-10003.0,-1567.0,-9461.0,0.0,4.0,76.0,57.0,5.0,6.0,-6.0,-32.0,0.3982820510864258
166,22.0,-19.0,12.0,1.0,-8742.0,-10003.0,-1567.0,-9461.0,-3.0,-18.0,-38.0,2.0,-14.0,-2.0,6.0,4.0,0.4107639789581299
167,22.0,-19.0,12.0,1.0,-8742.0,-10003.0,-1567.0,-9461.0,10.0,16.0,77.0,12.0,31.0,6.0,5.0,27.0,0.4130227565765381
168,8.0,-14.0,20.0,1.0,-8741.0,-10005.0,-1567.0,-9460.0,10.0,16.0,77.0,12.0,31.0,6.0,5.0,27.0,0.4174630641937256
169,8.0,-14.0,20.0,1.0,-8741.0,-10005.0,-1567.0,-9460.0,-12.0,4.0,7.0,0.0,25.0,32.0,3.0,23.0,0.4255688190460205
170,8.0,-14.0,20.0,1.0,-8741.0,-10005.0,-1567.0,-9460.0,-6.0,-1.0,5.0,9.0,-35.0,-12.0,6.0,24.0,0.4318995475769043
171,-19.0,-25.0,18.0,1.0,-8742.0,-10006.0,-1562.0,-9459.0,-6.0,-1.0,5.0,9.0,-35.0,-12.0,6.0,24.0,0.4389986991882324
172,-19.0,-25.0,18.0,1.0,-8742.0,-10006.0,-1562.0,-9459.0,6.0,8.0,3.0,27.0,1.0,-4.0,-5.0,-18.0,0.4465141296386719
173,-19.0,-25.0,18.0,1.0,-8742.0,-10006.0,-1562.0,-9459.0,4.0,-1.0,-48.0,1.0,-1.0,9.0,-1.0,4.0,0.4549291133880615
174,-4.0,-41.0,9.0,1.0,-8742.0,-10010.0,-1555.0,-9457.0,4.0,-1.0,-48.0,1.0,-1.0,9.0,-1.0,4.0,0.4573798179626465
175,-4.0,-41.0,9.0,1.0,-8742.0,-10010.0,-1555.0,-9457.0,-8.0,-8.0,-25.0,-25.0,4.0,-8.0,8.0,33.0,0.4698035717010498
176,-4.0,-41.0,9.0,1.0,-8742.0,-10010.0,-1555.0,-9457.0,7.0,10.0,28.0,9.0,3.0,-3.0,2.0,-4.0,0.47157907485961914
177,28.0,-41.0,3.0,1.0,-8738.0,-10019.0,-1555.0,-9450.0,7.0,10.0,28.0,9.0,3.0,-3.0,2.0,-4.0,0.4774172306060791
178,28.0,-41.0,3.0,1.0,-8738.0,-10019.0,-1555.0,-9450.0,5.0,23.0,8.0,-21.0,-5.0,1.0,-9.0,-27.0,0.48497796058654785
179,28.0,-41.0,3.0,1.0,-8738.0,-10019.0,-1555.0,-9450.0,-6.0,-5.0,-20.0,-2.0,-31.0,27.0,3.0,15.0,0.49135470390319824
180,4.0,-48.0,-5.0,1.0,-8738.0,-10026.0,-1551.0,-9444.0,-6.0,-5.0,-20.0,-2.0,-31.0,27.0,3.0,15.0,0.4991598129272461
181,4.0,-48.0,-5.0,1.0,-8738.0,-10026.0,-1551.0,-9444.0,-1.0,-2.0,-59.0,-47.0,-14.0,-16.0,-5.0,-8.0,0.5065641403198242
182,4.0,-48.0,-5.0,1.0,-8738.0,-10026.0,-1551.0,-9444.0,-5.0,2.0,21.0,17.0,18.0,6.0,0.0,-25.0,0.5147097110748291
183,-3.0,-45.0,-16.0,1.0,-8740.0,-10031.0,-1549.0,-9437.0,-5.0,2.0,21.0,17.0,18.0,6.0,0.0,-25.0,0.5182058811187744
184,-3.0,-45.0,-16.0,1.0,-8740.0,-10031.0,-1549.0,-9437.0,-2.0,-8.0,3.0,-8.0,5.0,-3.0,0.0,7.0,0.5320510864257812
185,-3.0,-45.0,-16.0,1.0,-8740.0,-10031.0,-1549.0,-9437.0,0.0,-9.0,4.0,7.0,2.0,-7.0,3.0,30.0,0.5357346534729004
186,-30.0,-47.0,-27.0,1.0,-8746.0,-10032.0,-1543.0,-9431.0,0.0,-9.0,4.0,7.0,2.0,-7.0,3.0,30.0,0.5393426418304443
187,-30.0,-47.0,-27.0,1.0,-8746.0,-10032.0,-1543.0,-9431.0,1.0,-16.0,9.0,1.0,9.0,-5.0,6.0,9.0,0.5443940162658691
188,-30.0,-47.0,-27.0,1.0,-8746.0,-10032.0,-1543.0,-9431.0,-8.0,-8.0,-7.0,4.0,11.0,-9.0,-6.0,-12.0,0.551483154296875
189,-8.0,-36.0,-28.0,1.0,-8749.0,-10037.0,-1542.0,-9423.0,-8.0,-8.0,-7.0,4.0,11.0,-9.0,-6.0,-12.0,0.5592634677886963
190,-8.0,-36.0,-28.0,1.0,-8749.0,-10037.0,-1542.0,-9423.0,-1.0,-14.0,-41.0,8.0,30.0,5.0,-7.0,-12.0,0.5682826042175293
191,-8.0,-36.0,-28.0,1.0,-8749.0,-10037.0,-1542.0,-9423.0,-4.0,-4.0,-8.0,2.0,27.0,7.0,1.0,-3.0,0.5850009918212891
192,-17.0,-29.0,-24.0,1.0,-8753.0,-10040.0,-1541.0,-9417.0,-4.0,-4.0,-8.0,2.0,27.0,7.0,1.0,-3.0,0.5886683464050293
193,-17.0,-29.0,-24.0,1.0,-8753.0,-10040.0,-1541.0,-9417.0,-8.0,1.0,47.0,0.0,-20.0,-3.0,5.0,-18.0,0.5909054279327393
194,-17.0,-29.0,-24.0,1.0,-8753.0,-10040.0,-1541.0,-9417.0,-3.0,-12.0,-51.0,-32.0,-3.0,-4.0,0.0,-9.0,0.5971865653991699
195,-43.0,-26.0,-12.0,1.0,-8757.0,-10040.0,-1533.0,-9414.0,-3.0,-12.0,-51.0,-32.0,-3.0,-4.0,0.0,-9.0,0.5989434719085693
196,-43.0,-26.0,-12.0,1.0,-8757.0,-10040.0,-1533.0,-9414.0,1.0,3.0,22.0,10.0,-7.0,1.0,-6.0,-12.0,0.6042478084564209
197,-43.0,-26.0,-12.0,1.0,-8757.0,-10040.0,-1533.0,-9414.0,1.0,-2.0,13.0,17.0,2.0,-2.0,-5.0,1.0,0.6120114326477051
198,-31.0,-18.0,-6.0,1.0,-8760.0,-10039.0,-1526.0,-9414.0,1.0,-2.0,13.0,17.0,2.0,-2.0,-5.0,1.0,0.619091272354126
199,-31.0,-18.0,-6.0,1.0,-8760.0,-10039.0,-1526.0,-9414.0,3.0,-5.0,-5.0,19.0,-22.0,3.0,7.0,10.0,0.6269149780273438
200,-31.0,-18.0,-6.0,1.0,-8760.0,-10039.0,-1526.0,-9414.0,6.0,3.0,8.0,8.0,11.0,3.0,5.0,17.0,0.6347451210021973
201,-5.0,-9.0,-4.0,1.0,-8760.0,-10039.0,-1525.0,-9414.0,6.0,3.0,8.0,8.0,11.0,3.0,5.0,17.0,0.6365234851837158
202,-5.0,-9.0,-4.0,1.0,-8760.0,-10039.0,-1525.0,-9414.0,1.0,14.0,48.0,18.0,13.0,6.0,-3.0,-1.0,0.6578497886657715
203,-5.0,-9.0,-4.0,1.0,-8760.0,-10039.0,-1525.0,-9414.0,-5.0,-6.0,-42.0,-11.0,-11.0,-3.0,1.0,-12.0,0.6598966121673584
204,5.0,-9.0,3.0,1.0,-8760.0,-10039.0,-1525.0,-9414.0,-5.0,-6.0,-42.0,-11.0,-11.0,-3.0,1.0,-12.0,0.6617214679718018
205,5.0,-9.0,3.0,1.0,-8760.0,-10039.0,-1525.0,-9414.0,-6.0,-13.0,-28.0,-1.0,-27.0,-1.0,-2.0,27.0,0.6635594367980957
206,5.0,-9.0,3.0,1.0,-8760.0,-10039.0,-1525.0,-9414.0,-2.0,5.0,2.0,-10.0,-16.0,-2.0,-7.0,14.0,0.6717965602874756
207,4.0,-11.0,5.0,1.0,-8759.0,-10039.0,-1526.0,-9414.0,-2.0,5.0,2.0,-10.0,-16.0,-2.0,-7.0,14.0,0.679567813873291
208,4.0,-11.0,5.0,1.0,-8759.0,-10039.0,-1526.0,-9414.0,-3.0,-5.0,9.0,13.0,-2.0,-8.0,-2.0,-13.0,0.6867196559906006
209,4.0,-11.0,5.0,1.0,-8759.0,-10039.0,-1526.0,-9414.0,5.0,-3.0,-9.0,11.0,6.0,3.0,-2.0,-3.0,0.6960201263427734
210,-20.0,-21.0,4.0,1.0,-8761.0,-10041.0,-1521.0,-9412.0,5.0,-3.0,-9.0,11.0,6.0,3.0,-2.0,-3.0,0.6991837024688721
211,-20.0,-21.0,4.0,1.0,-8761.0,-10041.0,-1521.0,-9412.0,0.0,4.0,2.0,18.0,8.0,6.0,-1.0,3.0,0.7106177806854248
212,-20.0,-21.0,4.0,1.0,-8761.0,-10041.0,-1521.0,-9412.0,-3.0,-10.0,-34.0,-10.0,-8.0,-7.0,-3.0,-30.0,0.7147703170776367
213,8.0,-30.0,-1.0,1.0,-8760.0,-10046.0,-1520.0,-9407.0,-3.0,-10.0,-34.0,-10.0,-8.0,-7.0,-3.0,-30.0,0.7170743942260742
214,8.0,-30.0,-1.0,1.0,-8760.0,-10046.0,-1520.0,-9407.0,-2.0,8.0,11.0,-24.0,8.0,-6.0,-3.0,-14.0,0.7241532802581787
215,8.0,-30.0,-1.0,1.0,-8760.0,-10046.0,-1520.0,-9407.0,-6.0,-10.0,-1.0,-6.0,-5.0,-3.0,0.0,14.0,0.7318427562713623
216,-12.0,-26.0,3.0,1.0,-8761.0,-10048.0,-1516.0,-9405.0,-6.0,-10.0,-1.0,-6.0,-5.0,-3.0,0.0,14.0,0.7391231060028076
217,-12.0,-26.0,3.0,1.0,-8761.0,-10048.0,-1516.0,-9405.0,12.0,14.0,-2.0,-18.0,-22.0,16.0,-6.0,5.0,0.7481496334075928
218,-12.0,-26.0,3.0,1.0,-8761.0,-10048.0,-1516.0,-9405.0,3.0,0.0,15.0,-13.0,5.0,2.0,3.0,26.0,0.7544639110565186
219,0.0,-32.0,-4.0,1.0,-8762.0,-10051.0,-1513.0,-9401.0,3.0,0.0,15.0,-13.0,5.0,2.0,3.0,26.0,0.756249189376831
220,0.0,-32.0,-4.0,1.0,-8762.0,-10051.0,-1513.0,-9401.0,-7.0,-6.0,13.0,4.0,-1.0,-10.0,8.0,14.0,0.7709522247314453
221,0.0,-32.0,-4.0,1.0,-8762.0,-10051.0,-1513.0,-9401.0,-6.0,1.0,44.0,5.0,11.0,2.0,-5.0,-12.0,0.7743613719940186
222,20.0,-41.0,2.0,1.0,-8762.0,-10055.0,-1512.0,-9397.0,-6.0,1.0,44.0,5.0,11.0,2.0,-5.0,-12.0,0.7777214050292969
223,20.0,-41.0,2.0,1.0,-8762.0,-10055.0,-1512.0,-9397.0,13.0,4.0,-37.0,-24.0,19.0,-8.0,-1.0,15.0,0.7840096950531006
224,20.0,-41.0,2.0,1.0,-8762.0,-10055.0,-1512.0,-9397.0,-9.0,-7.0,-34.0,-19.0,-6.0,6.0,1.0,10.0,0.791306734085083
225,-3.0,-35.0,-4.0,1.0,-8765.0,-10055.0,-1508.0,-9395.0,-9.0,-7.0,-34.0,-19.0,-6.0,6.0,1.0,10.0,0.7995095252990723
226,-3.0,-35.0,-4.0,1.0,-8765.0,-10055.0,-1508.0,-9395.0,-16.0,-6.0,-2.0,10.0,0.0,3.0,-6.0,10.0,0.8156185150146484
227,-3.0,-35.0,-4.0,1.0,-8765.0,-10055.0,-1508.0,-9395.0,-5.0,18.0,25.0,-10.0,-8.0,6.0,-1.0,3.0,0.8185734748840332
228,-33.0,-16.0,-20.0,1.0,-8773.0,-10048.0,-1505.0,-9395.0,-5.0,18.0,25.0,-10.0,-8.0,6.0,-1.0,3.0,0.8217039108276367
229,-33.0,-16.0,-20.0,1.0,-8773.0,-10048.0,-1505.0,-9395.0,3.0,-9.0,-28.0,-3.0,1.0,2.0,3.0,66.0,0.8381576538085938
230,-33.0,-16.0,-20.0,1.0,-8773.0,-10048.0,-1505.0,-9395.0,-3.0,2.0,-15.0,-37.0,-17.0,-37.0,-28.0,-69.0,0.8400003910064697
231,-152.0,16.0,-40.0,1.0,-8797.0,-10030.0,-1499.0,-9394.0,-3.0,2.0,-15.0,-37.0,-17.0,-37.0,-28.0,-69.0,0.8417789936065674
232,-152.0,16.0,-40.0,1.0,-8797.0,-10030.0,-1499.0,-9394.0,13.0,21.0,48.0,17.0,-18.0,-8.0,7.0,25.0,0.8455519676208496
233,-152.0,16.0,-40.0,1.0,-8797.0,-10030.0,-1499.0,-9394.0,1.0,-8.0,-40.0,18.0,5.0,8.0,-4.0,-26.0,0.8525707721710205
234,-384.0,16.0,-78.0,1.0,-8852.0,-9982.0,-1472.0,-9397.0,1.0,-8.0,-40.0,18.0,5.0,8.0,-4.0,-26.0,0.8590772151947021
235,-384.0,16.0,-78.0,1.0,-8852.0,-9982.0,-1472.0,-9397.0,-11.0,-19.0,-94.0,-36.0,28.0,10.0,3.0,-17.0,0.8666598796844482
236,-384.0,16.0,-78.0,1.0,-8852.0,-9982.0,-1472.0,-9397.0,9.0,5.0,-42.0,-15.0,26.0,-39.0,-3.0,-1.0,0.8748581409454346
237,-689.0,27.0,-111.0,1.0,-8943.0,-9900.0,-1414.0,-9406.0,9.0,5.0,-42.0,-15.0,26.0,-39.0,-3.0,-1.0,0.8824117183685303
238,-689.0,27.0,-111.0,1.0,-8943.0,-9900.0,-1414.0,-9406.0,-3.0,5.0,33.0,57.0,-8.0,26.0,-3.0,-45.0,0.8911211490631104
239,-689.0,27.0,-111.0,1.0,-8943.0,-9900.0,-1414.0,-9406.0,-11.0,-28.0,-59.0,28.0,23.0,59.0,22.0,60.0,0.8939149379730225
240,-978.0,45.0,-129.0,1.0,-9064.0,-9788.0,-1327.0,-9421.0,-11.0,-28.0,-59.0,28.0,23.0,59.0,22.0,60.0,0.8957724571228027
241,-978.0,45.0,-129.0,1.0,-9064.0,-9788.0,-1327.0,-9421.0,-7.0,1.0,0.0,5.0,-10.0,7.0,-8.0,-32.0,0.9043138027191162
242,-978.0,45.0,-129.0,1.0,-9064.0,-9788.0,-1327.0,-9421.0,-7.0,6.0,-17.0,-33.0,7.0,6.0,-4.0,-1.0,0.9114453792572021
243,-1175.0,167.0,-134.0,1.0,-9205.0,-9636.0,-1229.0,-9453.0,-7.0,6.0,-17.0,-33.0,7.0,6.0,-4.0,-1.0,0.9194474220275879
244,-1175.0,167.0,-134.0,1.0,-9205.0,-9636.0,-1229.0,-9453.0,-13.0,19.0,90.0,-50.0,-11.0,-21.0,-5.0,-25.0,0.9270846843719482
245,-1175.0,167.0,-134.0,1.0,-9205.0,-9636.0,-1229.0,-9453.0,-8.0,55.0,35.0,27.0,-16.0,-9.0,1.0,13.0,0.934828519821167
246,-1136.0,319.0,-154.0,1.0,-9353.0,-9459.0,-1165.0,-9495.0,-8.0,55.0,35.0,27.0,-16.0,-9.0,1.0,13.0,0.9366788864135742
247,-1136.0,319.0,-154.0,1.0,-9353.0,-9459.0,-1165.0,-9495.0,-7.0,-13.0,-85.0,-32.0,3.0,-8.0,-4.0,-1.0,0.9515106678009033
248,-1136.0,319.0,-154.0,1.0,-9353.0,-9459.0,-1165.0,-9495.0,12.0,-34.0,-32.0,-20.0,-10.0,-3.0,0.0,5.0,0.9549522399902344
249,-687.0,495.0,-8.0,1.0,-9437.0,-9276.0,-1113.0,-9598.0,12.0,-34.0,-32.0,-20.0,-10.0,-3.0,0.0,5.0,0.9582991600036621
250,-687.0,495.0,-8.0,1.0,-9437.0,-9276.0,-1113.0,-9598.0,24.0,-16.0,17.0,104.0,3.0,0.0,2.0,0.0,0.9650919437408447
251,-687.0,495.0,-8.0,1.0,-9437.0,-9276.0,-1113.0,-9598.0,20.0,-7.0,79.0,69.0,-3.0,-4.0,2.0,-26.0,0.9813101291656494
252,694.0,760.0,40.0,1.0,-9376.0,-9208.0,-1238.0,-9708.0,20.0,-7.0,79.0,69.0,-3.0,-4.0,2.0,-26.0,0.9848287105560303
253,694.0,760.0,40.0,1.0,-9376.0,-9208.0,-1238.0,-9708.0,11.0,-20.0,9.0,-7.0,31.0,3.0,3.0,-14.0,0.9883506298065186
254,694.0,760.0,40.0,1.0,-9376.0,-9208.0,-1238.0,-9708.0,8.0,2.0,88.0,76.0,-16.0,-20.0,-3.0,-16.0,0.9958112239837646
255,1230.0,1090.0,-124.0,1.0,-9282.0,-9157.0,-1494.0,-9809.0,8.0,2.0,88.0,76.0,-16.0,-20.0,-3.0,-16.0,0.9991016387939453
256,1230.0,1090.0,-124.0,1.0,-9282.0,-9157.0,-1494.0,-9809.0,-3.0,-20.0,-15.0,-14.0,-14.0,-8.0,9.0,-12.0,1.0111546516418457
257,1230.0,1090.0,-124.0,1.0,-9282.0,-9157.0,-1494.0,-9809.0,-6.0,-8.0,-10.0,-9.0,-1.0,6.0,13.0,1.0,1.0157630443572998
258,564.0,1399.0,-376.0,1.0,-9299.0,-8981.0,-1771.0,-9910.0,-6.0,-8.0,-10.0,-9.0,-1.0,6.0,13.0,1.0,1.0253407955169678
259,564.0,1399.0,-376.0,1.0,-9299.0,-8981.0,-1771.0,-9910.0,-8.0,6.0,-4.0,-41.0,-15.0,-21.0,-27.0,-13.0,1.0274279117584229
260,564.0,1399.0,-376.0,1.0,-9299.0,-8981.0,-1771.0,-9910.0,15.0,12.0,-8.0,-63.0,-45.0,-7.0,-2.0,3.0,1.0314781665802002
261,-727.0,1671.0,-751.0,1.0,-9433.0,-8684.0,-1944.0,-10014.0,15.0,12.0,-8.0,-63.0,-45.0,-7.0,-2.0,3.0,1.0387730598449707
262,-727.0,1671.0,-751.0,1.0,-9433.0,-8684.0,-1944.0,-10014.0,-1.0,20.0,-5.0,-50.0,7.0,9.0,-8.0,-11.0,1.0552401542663574
263,-727.0,1671.0,-751.0,1.0,-9433.0,-8684.0,-1944.0,-10014.0,-2.0,9.0,6.0,13.0,-12.0,11.0,5.0,14.0,1.0578720569610596
264,-1654.0,2098.0,-774.0,1.0,-9642.0,-8238.0,-2060.0,-10168.0,-2.0,9.0,6.0,13.0,-12.0,11.0,5.0,14.0,1.061133623123169
265,-1654.0,2098.0,-774.0,1.0,-9642.0,-8238.0,-2060.0,-10168.0,12.0,11.0,-1.0,-23.0,-39.0,4.0,8.0,4.0,1.070241928100586
266,-1654.0,2098.0,-774.0,1.0,-9642.0,-8238.0,-2060.0,-10168.0,-2.0,0.0,5.0,37.0,21.0,5.0,-8.0,7.0,1.0727815628051758
267,-2251.0,2488.0,-1004.0,1.0,-9906.0,-7672.0,-2167.0,-10333.0,-2.0,0.0,5.0,37.0,21.0,5.0,-8.0,7.0,1.0761058330535889
268,-2251.0,2488.0,-1004.0,1.0,-9906.0,-7672.0,-2167.0,-10333.0,-6.0,0.0,-4.0,57.0,-12.0,-1.0,4.0,9.0,1.084188461303711
269,-2251.0,2488.0,-1004.0,1.0,-9906.0,-7672.0,-2167.0,-10333.0,-4.0,-4.0,-4.0,-7.0,-9.0,-3.0,14.0,7.0,1.0914816856384277
270,-2421.0,2910.0,-1304.0,1.0,-10185.0,-7030.0,-2323.0,-10483.0,-4.0,-4.0,-4.0,-7.0,-9.0,-3.0,14.0,7.0,1.0991125106811523
271,-2421.0,2910.0,-1304.0,1.0,-10185.0,-7030.0,-2323.0,-10483.0,-3.0,-2.0,-27.0,-20.0,31.0,1.0,3.0,5.0,1.1077067852020264
272,-2421.0,2910.0,-1304.0,1.0,-10185.0,-7030.0,-2323.0,-10483.0,-4.0,0.0,11.0,-17.0,2.0,-23.0,-5.0,-4.0,1.1158056259155273
273,-2562.0,3260.0,-1748.0,1.0,-10486.0,-6321.0,-2523.0,-10591.0,-4.0,0.0,11.0,-17.0,2.0,-23.0,-5.0,-4.0,1.117668628692627
274,-2562.0,3260.0,-1748.0,1.0,-10486.0,-6321.0,-2523.0,-10591.0,-3.0,-5.0,-10.0,15.0,15.0,-2.0,4.0,6.0,1.138810157775879
275,-2562.0,3260.0,-1748.0,1.0,-10486.0,-6321.0,-2523.0,-10591.0,-4.0,-5.0,-3.0,-18.0,14.0,0.0,-9.0,0.0,1.14198899269104
276,-3125.0,3387.0,-2197.0,1.0,-10840.0,-5523.0,-2707.0,-10637.0,-4.0,-5.0,-3.0,-18.0,14.0,0.0,-9.0,0.0,1.145122766494751
277,-3125.0,3387.0,-2197.0,1.0,-10840.0,-5523.0,-2707.0,-10637.0,-1.0,1.0,8.0,-30.0,12.0,1.0,1.0,1.0,1.149266242980957
278,-3125.0,3387.0,-2197.0,1.0,-10840.0,-5523.0,-2707.0,-10637.0,0.0,-2.0,13.0,-21.0,8.0,7.0,22.0,-3.0,1.1512482166290283
279,-3562.0,3523.0,-2553.0,1.0,-11216.0,-4636.0,-2863.0,-10629.0,0.0,-2.0,13.0,-21.0,8.0,7.0,22.0,-3.0,1.168508768081665
280,-3562.0,3523.0,-2553.0,1.0,-11216.0,-4636.0,-2863.0,-10629.0,-2.0,-8.0,9.0,22.0,-4.0,5.0,-7.0,5.0,1.1719999313354492
281,-3562.0,3523.0,-2553.0,1.0,-11216.0,-4636.0,-2863.0,-10629.0,7.0,2.0,-1.0,4.0,10.0,-2.0,-16.0,-1.0,1.1751580238342285
282,-3700.0,3593.0,-2582.0,1.0,-11556.0,-3716.0,-3004.0,-10587.0,7.0,2.0,-1.0,4.0,10.0,-2.0,-16.0,-1.0,1.17777681350708
283,-3700.0,3593.0,-2582.0,1.0,-11556.0,-3716.0,-3004.0,-10587.0,-2.0,0.0,8.0,14.0,-5.0,-5.0,0.0,-5.0,1.191033124923706
284,-3700.0,3593.0,-2582.0,1.0,-11556.0,-3716.0,-3004.0,-10587.0,-3.0,-2.0,-14.0,-9.0,39.0,-9.0,-6.0,-3.0,1.1950633525848389
285,-3963.0,3596.0,-2433.0,1.0,-11844.0,-2759.0,-3097.0,-10535.0,-3.0,-2.0,-14.0,-9.0,39.0,-9.0,-6.0,-3.0,1.1994223594665527
286,-3963.0,3596.0,-2433.0,1.0,-11844.0,-2759.0,-3097.0,-10535.0,-1.0,3.0,10.0,5.0,23.0,-5.0,25.0,-11.0,1.2039434909820557
287,-3963.0,3596.0,-2433.0,1.0,-11844.0,-2759.0,-3097.0,-10535.0,-9.0,-5.0,1.0,-17.0,-20.0,5.0,3.0,-11.0,1.2115201950073242
288,-3756.0,3524.0,-2222.0,1.0,-12060.0,-1840.0,-3182.0,-10465.0,-9.0,-5.0,1.0,-17.0,-20.0,5.0,3.0,-11.0,1.219142198562622
289,-3756.0,3524.0,-2222.0,1.0,-12060.0,-1840.0,-3182.0,-10465.0,-1.0,1.0,2.0,-3.0,16.0,3.0,-1.0,-4.0,1.2269792556762695
290,-3756.0,3524.0,-2222.0,1.0,-12060.0,-1840.0,-3182.0,-10465.0,0.0,-2.0,0.0,4.0,-25.0,-4.0,-3.0,0.0,1.2353243827819824
291,-3371.0,3478.0,-2165.0,1.0,-12225.0,-971.0,-3291.0,-10356.0,0.0,-2.0,0.0,4.0,-25.0,-4.0,-3.0,0.0,1.2382817268371582
292,-3371.0,3478.0,-2165.0,1.0,-12225.0,-971.0,-3291.0,-10356.0,-5.0,-5.0,-16.0,-9.0,-32.0,-7.0,15.0,28.0,1.249669075012207
293,-3371.0,3478.0,-2165.0,1.0,-12225.0,-971.0,-3291.0,-10356.0,0.0,-3.0,8.0,1.0,-14.0,4.0,-36.0,-1.0,1.2514777183532715
294,-2998.0,3447.0,-2079.0,1.0,-12344.0,-148.0,-3428.0,-10214.0,0.0,-3.0,8.0,1.0,-14.0,4.0,-36.0,-1.0,1.256565809249878
295,-2998.0,3447.0,-2079.0,1.0,-12344.0,-148.0,-3428.0,-10214.0,-2.0,0.0,3.0,-1.0,-26.0,-10.0,3.0,-54.0,1.2648913860321045
296,-2998.0,3447.0,-2079.0,1.0,-12344.0,-148.0,-3428.0,-10214.0,-2.0,-6.0,-7.0,-2.0,36.0,0.0,14.0,94.0,1.2714850902557373
297,-2578.0,3384.0,-2075.0,1.0,-12432.0,616.0,-3593.0,-10031.0,-2.0,-6.0,-7.0,-2.0,36.0,0.0,14.0,94.0,1.2789058685302734
298,-2578.0,3384.0,-2075.0,1.0,-12432.0,616.0,-3593.0,-10031.0,-9.0,2.0,6.0,22.0,-13.0,9.0,55.0,28.0,1.2867283821105957
299,-2578.0,3384.0,-2075.0,1.0,-12432.0,616.0,-3593.0,-10031.0,7.0,4.0,3.0,12.0,-34.0,1.0,-15.0,-128.0,1.2948229312896729
300,-2506.0,3345.0,-2176.0,1.0,-12504.0,1375.0,-3749.0,-9806.0,7.0,4.0,3.0,12.0,-34.0,1.0,-15.0,-128.0,1.302354097366333
301,-2506.0,3345.0,-2176.0,1.0,-12504.0,1375.0,-3749.0,-9806.0,14.0,8.0,9.0,23.0,25.0,42.0,-22.0,67.0,1.3100638389587402
302,-2506.0,3345.0,-2176.0,1.0,-12504.0,1375.0,-3749.0,-9806.0,-10.0,-2.0,-11.0,25.0,56.0,19.0,-67.0,-9.0,1.3118789196014404
303,-2633.0,3328.0,-2188.0,1.0,-12546.0,2159.0,-3881.0,-9557.0,-10.0,-2.0,-11.0,25.0,56.0,19.0,-67.0,-9.0,1.3164920806884766
304,-2633.0,3328.0,-2188.0,1.0,-12546.0,2159.0,-3881.0,-9557.0,-4.0,-8.0,-7.0,-11.0,1.0,1.0,12.0,-17.0,1.3239021301269531
305,-2633.0,3328.0,-2188.0,1.0,-12546.0,2159.0,-3881.0,-9557.0,0.0,9.0,15.0,-2.0,4.0,9.0,43.0,101.0,1.3318555355072021
306,-2587.0,3166.0,-2055.0,1.0,-12549.0,2915.0,-3991.0,-9303.0,0.0,9.0,15.0,-2.0,4.0,9.0,43.0,101.0,1.3392226696014404
307,-2587.0,3166.0,-2055.0,1.0,-12549.0,2915.0,-3991.0,-9303.0,-4.0,-10.0,-5.0,-8.0,16.0,-9.0,-14.0,26.0,1.346529245376587
308,-2587.0,3166.0,-2055.0,1.0,-12549.0,2915.0,-3991.0,-9303.0,9.0,4.0,5.0,-15.0,-99.0,-15.0,13.0,-10.0,1.3548614978790283
309,-2621.0,3027.0,-1979.0,1.0,-12521.0,3658.0,-4070.0,-9041.0,9.0,4.0,5.0,-15.0,-99.0,-15.0,13.0,-10.0,1.3624210357666016
310,-2621.0,3027.0,-1979.0,1.0,-12521.0,3658.0,-4070.0,-9041.0,4.0,3.0,6.0,-48.0,-32.0,-1.0,0.0,-35.0,1.3707051277160645
311,-2621.0,3027.0,-1979.0,1.0,-12521.0,3658.0,-4070.0,-9041.0,6.0,-2.0,-5.0,32.0,-10.0,1.0,15.0,-9.0,1.3732883930206299
312,-2278.0,2878.0,-1915.0,1.0,-12480.0,4340.0,-4153.0,-8754.0,6.0,-2.0,-5.0,32.0,-10.0,1.0,15.0,-9.0,1.3767199516296387
313,-2278.0,2878.0,-1915.0,1.0,-12480.0,4340.0,-4153.0,-8754.0,-6.0,-3.0,-2.0,11.0,33.0,-37.0,14.0,33.0,1.3846056461334229
314,-2278.0,2878.0,-1915.0,1.0,-12480.0,4340.0,-4153.0,-8754.0,7.0,-5.0,-4.0,-13.0,31.0,18.0,-5.0,-3.0,1.3915822505950928
315,-1891.0,2611.0,-1905.0,1.0,-12443.0,4943.0,-4231.0,-8443.0,7.0,-5.0,-4.0,-13.0,31.0,18.0,-5.0,-3.0,1.408299446105957
316,-1891.0,2611.0,-1905.0,1.0,-12443.0,4943.0,-4231.0,-8443.0,-11.0,-6.0,-6.0,10.0,45.0,-16.0,-96.0,-128.0,1.412503957748413
317,-1891.0,2611.0,-1905.0,1.0,-12443.0,4943.0,-4231.0,-8443.0,-34.0,-1.0,7.0,0.0,-28.0,-1.0,64.0,42.0,1.416271448135376
318,-1634.0,2398.0,-1858.0,1.0,-12405.0,5486.0,-4300.0,-8123.0,-34.0,-1.0,7.0,0.0,-28.0,-1.0,64.0,42.0,1.4218056201934814
319,-1634.0,2398.0,-1858.0,1.0,-12405.0,5486.0,-4300.0,-8123.0,25.0,8.0,5.0,24.0,-50.0,7.0,7.0,-35.0,1.430347204208374
320,-1634.0,2398.0,-1858.0,1.0,-12405.0,5486.0,-4300.0,-8123.0,-3.0,-7.0,-13.0,-28.0,-3.0,-26.0,11.0,-21.0,1.4373323917388916
321,-1485.0,2110.0,-1821.0,1.0,-12367.0,5980.0,-4341.0,-7803.0,-3.0,-7.0,-13.0,-28.0,-3.0,-26.0,11.0,-21.0,1.4391136169433594
322,-1485.0,2110.0,-1821.0,1.0,-12367.0,5980.0,-4341.0,-7803.0,-66.0,-5.0,2.0,-26.0,32.0,-7.0,-13.0,33.0,1.4446370601654053
323,-1485.0,2110.0,-1821.0,1.0,-12367.0,5980.0,-4341.0,-7803.0,-33.0,-12.0,-16.0,17.0,33.0,25.0,36.0,-13.0,1.4598522186279297
324,-1724.0,1849.0,-1721.0,1.0,-12299.0,6479.0,-4332.0,-7513.0,-33.0,-12.0,-16.0,17.0,33.0,25.0,36.0,-13.0,1.463026762008667
325,-1724.0,1849.0,-1721.0,1.0,-12299.0,6479.0,-4332.0,-7513.0,16.0,-15.0,-14.0,-13.0,58.0,6.0,85.0,-7.0,1.4675519466400146
326,-1724.0,1849.0,-1721.0,1.0,-12299.0,6479.0,-4332.0,-7513.0,-3.0,11.0,11.0,-13.0,30.0,24.0,78.0,38.0,1.4754290580749512
327,-1609.0,1567.0,-1567.0,1.0,-12222.0,6936.0,-4300.0,-7244.0,-3.0,11.0,11.0,-13.0,30.0,24.0,78.0,38.0,1.4819862842559814
328,-1609.0,1567.0,-1567.0,1.0,-12222.0,6936.0,-4300.0,-7244.0,-11.0,-3.0,-9.0,38.0,46.0,-61.0,-4.0,-47.0,1.4900834560394287
329,-1609.0,1567.0,-1567.0,1.0,-12222.0,6936.0,-4300.0,-7244.0,1.0,-14.0,-3.0,-17.0,8.0,10.0,-24.0,-9.0,1.4980804920196533
330,-1379.0,1291.0,-1371.0,1.0,-12095.0,7481.0,-4269.0,-6926.0,1.0,-14.0,-3.0,-17.0,8.0,10.0,-24.0,-9.0,1.5010104179382324
331,-1379.0,1291.0,-1371.0,1.0,-12095.0,7481.0,-4269.0,-6926.0,124.0,29.0,0.0,61.0,-5.0,44.0,-41.0,-73.0,1.5040733814239502
332,-1379.0,1291.0,-1371.0,1.0,-12095.0,7481.0,-4269.0,-6926.0,-33.0,-20.0,-5.0,-3.0,-34.0,-32.0,-128.0,44.0,1.511498212814331
333,-878.0,1010.0,-1036.0,1.0,-12053.0,7720.0,-4251.0,-6746.0,-33.0,-20.0,-5.0,-3.0,-34.0,-32.0,-128.0,44.0,1.5191142559051514
334,-878.0,1010.0,-1036.0,1.0,-12053.0,7720.0,-4251.0,-6746.0,42.0,43.0,28.0,-13.0,-34.0,27.0,-91.0,127.0,1.5268206596374512
335,-878.0,1010.0,-1036.0,1.0,-12053.0,7720.0,-4251.0,-6746.0,41.0,8.0,-8.0,-29.0,-12.0,-57.0,25.0,84.0,1.5349576473236084
336,-213.0,785.0,-280.0,1.0,-12018.0,7818.0,-4315.0,-6653.0,41.0,8.0,-8.0,-29.0,-12.0,-57.0,25.0,84.0,1.542647123336792
337,-213.0,785.0,-280.0,1.0,-12018.0,7818.0,-4315.0,-6653.0,-94.0,-36.0,-10.0,-35.0,-119.0,71.0,31.0,64.0,1.5507714748382568
338,-213.0,785.0,-280.0,1.0,-12018.0,7818.0,-4315.0,-6653.0,122.0,38.0,-9.0,-2.0,-25.0,-48.0,-73.0,-127.0,1.557225227355957
339,938.0,379.0,403.0,1.0,-12050.0,7703.0,-4467.0,-6629.0,122.0,38.0,-9.0,-2.0,-25.0,-48.0,-73.0,-127.0,1.559255838394165
340,938.0,379.0,403.0,1.0,-12050.0,7703.0,-4467.0,-6629.0,-74.0,2.0,10.0,-49.0,-79.0,-55.0,-36.0,23.0,1.564293622970581
341,938.0,379.0,403.0,1.0,-12050.0,7703.0,-4467.0,-6629.0,13.0,22.0,6.0,47.0,43.0,-5.0,67.0,46.0,1.571653127670288
342,2119.0,-166.0,1123.0,1.0,-12151.0,7356.0,-4691.0,-6685.0,13.0,22.0,6.0,47.0,43.0,-5.0,67.0,46.0,1.578995704650879
343,2119.0,-166.0,1123.0,1.0,-12151.0,7356.0,-4691.0,-6685.0,-84.0,-13.0,17.0,-68.0,-96.0,-20.0,94.0,90.0,1.5871257781982422
344,2119.0,-166.0,1123.0,1.0,-12151.0,7356.0,-4691.0,-6685.0,-72.0,-11.0,15.0,22.0,63.0,-4.0,119.0,-91.0,1.5957801342010498
345,2757.0,-843.0,2183.0,1.0,-12247.0,6812.0,-4952.0,-6896.0,-72.0,-11.0,15.0,22.0,63.0,-4.0,119.0,-91.0,1.602339506149292
346,2757.0,-843.0,2183.0,1.0,-12247.0,6812.0,-4952.0,-6896.0,-14.0,-3.0,-11.0,27.0,35.0,-77.0,-126.0,-37.0,1.608959436416626
347,2757.0,-843.0,2183.0,1.0,-12247.0,6812.0,-4952.0,-6896.0,-87.0,-25.0,-34.0,-49.0,-125.0,6.0,-30.0,-7.0,1.6180624961853027
348,3398.0,-1825.0,3142.0,1.0,-12343.0,6042.0,-5190.0,-7257.0,-87.0,-25.0,-34.0,-49.0,-125.0,6.0,-30.0,-7.0,1.6212177276611328
349,3398.0,-1825.0,3142.0,1.0,-12343.0,6042.0,-5190.0,-7257.0,12.0,26.0,21.0,93.0,120.0,125.0,99.0,11.0,1.6244733333587646
350,3398.0,-1825.0,3142.0,1.0,-12343.0,6042.0,-5190.0,-7257.0,125.0,24.0,9.0,86.0,118.0,127.0,-128.0,49.0,1.6320104598999023
351,3837.0,-2908.0,3756.0,1.0,-12436.0,5071.0,-5338.0,-7720.0,125.0,24.0,9.0,86.0,118.0,127.0,-128.0,49.0,1.6471753120422363
352,3837.0,-2908.0,3756.0,1.0,-12436.0,5071.0,-5338.0,-7720.0,-49.0,-5.0,12.0,2.0,-65.0,73.0,65.0,-92.0,1.649895429611206
353,3837.0,-2908.0,3756.0,1.0,-12436.0,5071.0,-5338.0,-7720.0,77.0,67.0,54.0,12.0,-21.0,-51.0,-13.0,-76.0,1.6548724174499512
354,3530.0,-3942.0,4416.0,1.0,-12458.0,3983.0,-5321.0,-8312.0,77.0,67.0,54.0,12.0,-21.0,-51.0,-13.0,-76.0,1.662055492401123
355,3530.0,-3942.0,4416.0,1.0,-12458.0,3983.0,-5321.0,-8312.0,-47.0,-25.0,-13.0,25.0,-60.0,-117.0,-26.0,-90.0,1.6689648628234863
356,3530.0,-3942.0,4416.0,1.0,-12458.0,3983.0,-5321.0,-8312.0,30.0,66.0,28.0,-68.0,-128.0,-123.0,39.0,-74.0,1.6778957843780518
357,3560.0,-4900.0,5400.0,1.0,-12358.0,2687.0,-5188.0,-9033.0,30.0,66.0,28.0,-68.0,-128.0,-123.0,39.0,-74.0,1.680861234664917
358,3560.0,-4900.0,5400.0,1.0,-12358.0,2687.0,-5188.0,-9033.0,-46.0,-54.0,-11.0,-30.0,-8.0,-99.0,95.0,101.0,1.693516731262207
359,3560.0,-4900.0,5400.0,1.0,-12358.0,2687.0,-5188.0,-9033.0,-72.0,-33.0,-6.0,-30.0,-72.0,-117.0,-11.0,127.0,1.6973443031311035
360,3525.0,-5574.0,6085.0,1.0,-12119.0,1312.0,-4939.0,-9771.0,-72.0,-33.0,-6.0,-30.0,-72.0,-117.0,-11.0,127.0,1.7071449756622314
361,3525.0,-5574.0,6085.0,1.0,-12119.0,1312.0,-4939.0,-9771.0,-13.0,72.0,35.0,3.0,115.0,98.0,34.0,41.0,1.7092838287353516
362,3525.0,-5574.0,6085.0,1.0,-12119.0,1312.0,-4939.0,-9771.0,-70.0,4.0,15.0,79.0,127.0,127.0,73.0,63.0,1.7141931056976318
363,3097.0,-5895.0,6151.0,1.0,-11768.0,-57.0,-4556.0,-10451.0,-70.0,4.0,15.0,79.0,127.0,127.0,73.0,63.0,1.7220673561096191
364,3097.0,-5895.0,6151.0,1.0,-11768.0,-57.0,-4556.0,-10451.0,-105.0,-38.0,-65.0,0.0,58.0,-66.0,33.0,-22.0,1.7297685146331787
365,3097.0,-5895.0,6151.0,1.0,-11768.0,-57.0,-4556.0,-10451.0,58.0,14.0,12.0,-73.0,124.0,64.0,-105.0,56.0,1.737257957458496
366,2128.0,-5672.0,5969.0,1.0,-11319.0,-1268.0,-4050.0,-11060.0,58.0,14.0,12.0,-73.0,124.0,64.0,-105.0,56.0,1.739072561264038
367,2128.0,-5672.0,5969.0,1.0,-11319.0,-1268.0,-4050.0,-11060.0,3.0,21.0,-27.0,-3.0,66.0,-23.0,-41.0,-19.0,1.7534329891204834
368,2128.0,-5672.0,5969.0,1.0,-11319.0,-1268.0,-4050.0,-11060.0,-106.0,-128.0,-71.0,1.0,-80.0,-70.0,-127.0,-126.0,1.7565631866455078
369,1301.0,-4792.0,5114.0,1.0,-10863.0,-2226.0,-3534.0,-11533.0,-106.0,-128.0,-71.0,1.0,-80.0,-70.0,-127.0,-126.0,1.7595014572143555
370,1301.0,-4792.0,5114.0,1.0,-10863.0,-2226.0,-3534.0,-11533.0,127.0,101.0,92.0,-16.0,70.0,-71.0,-128.0,-128.0,1.767451286315918
371,1301.0,-4792.0,5114.0,1.0,-10863.0,-2226.0,-3534.0,-11533.0,-63.0,-25.0,-85.0,44.0,56.0,109.0,59.0,-128.0,1.7738978862762451
372,1903.0,-3298.0,2963.0,1.0,-10557.0,-2976.0,-3306.0,-11715.0,-63.0,-25.0,-85.0,44.0,56.0,109.0,59.0,-128.0,1.7822837829589844
373,1903.0,-3298.0,2963.0,1.0,-10557.0,-2976.0,-3306.0,-11715.0,-25.0,-38.0,-91.0,-40.0,51.0,20.0,11.0,83.0,1.7900876998901367
374,1903.0,-3298.0,2963.0,1.0,-10557.0,-2976.0,-3306.0,-11715.0,12.0,80.0,85.0,63.0,-59.0,-42.0,4.0,-63.0,1.7980456352233887
375,3953.0,-2111.0,225.0,1.0,-10463.0,-3705.0,-3556.0,-11516.0,12.0,80.0,85.0,63.0,-59.0,-42.0,4.0,-63.0,1.7999298572540283
376,3953.0,-2111.0,225.0,1.0,-10463.0,-3705.0,-3556.0,-11516.0,33.0,30.0,66.0,-64.0,-128.0,-49.0,-33.0,-112.0,1.8125410079956055
377,3953.0,-2111.0,225.0,1.0,-10463.0,-3705.0,-3556.0,-11516.0,7.0,75.0,69.0,-15.0,-23.0,-47.0,-73.0,-68.0,1.8151488304138184
378,2235.0,-933.0,-599.0,1.0,-10480.0,-4052.0,-3753.0,-11319.0,7.0,75.0,69.0,-15.0,-23.0,-47.0,-73.0,-68.0,1.8188211917877197
379,2235.0,-933.0,-599.0,1.0,-10480.0,-4052.0,-3753.0,-11319.0,32.0,-121.0,53.0,-63.0,-128.0,1.0,-69.0,-80.0,1.8262386322021484
380,2235.0,-933.0,-599.0,1.0,-10480.0,-4052.0,-3753.0,-11319.0,-22.0,-23.0,-87.0,-103.0,-33.0,-38.0,-29.0,66.0,1.8348734378814697
381,627.0,-986.0,648.0,1.0,-10477.0,-4091.0,-3688.0,-11330.0,-22.0,-23.0,-87.0,-103.0,-33.0,-38.0,-29.0,66.0,1.8429992198944092
382,627.0,-986.0,648.0,1.0,-10477.0,-4091.0,-3688.0,-11330.0,-21.0,-115.0,-109.0,-40.0,93.0,60.0,-53.0,-58.0,1.8490972518920898
383,627.0,-986.0,648.0,1.0,-10477.0,-4091.0,-3688.0,-11330.0,99.0,43.0,70.0,94.0,36.0,96.0,42.0,-35.0,1.8577649593353271
384,-987.0,-955.0,1108.0,1.0,-10446.0,-4047.0,-3286.0,-11497.0,99.0,43.0,70.0,94.0,36.0,96.0,42.0,-35.0,1.8610422611236572
385,-987.0,-955.0,1108.0,1.0,-10446.0,-4047.0,-3286.0,-11497.0,16.0,-89.0,-128.0,124.0,-72.0,14.0,127.0,127.0,1.8825600147247314
386,-987.0,-955.0,1108.0,1.0,-10446.0,-4047.0,-3286.0,-11497.0,-67.0,-34.0,-128.0,-123.0,-37.0,-106.0,-7.0,-89.0,1.8862617015838623
387,-1045.0,-775.0,622.0,1.0,-10436.0,-4024.0,-2863.0,-11626.0,-67.0,-34.0,-128.0,-123.0,-37.0,-106.0,-7.0,-89.0,1.889925479888916
388,-1045.0,-775.0,622.0,1.0,-10436.0,-4024.0,-2863.0,-11626.0,30.0,55.0,54.0,29.0,-10.0,55.0,64.0,36.0,1.8934879302978516
389,-1045.0,-775.0,622.0,1.0,-10436.0,-4024.0,-2863.0,-11626.0,-41.0,-128.0,126.0,106.0,60.0,98.0,76.0,125.0,1.8954522609710693
390,160.0,-752.0,911.0,1.0,-10327.0,-4174.0,-2682.0,-11713.0,-41.0,-128.0,126.0,106.0,60.0,98.0,76.0,125.0,1.9017248153686523
391,160.0,-752.0,911.0,1.0,-10327.0,-4174.0,-2682.0,-11713.0,61.0,41.0,50.0,-93.0,-55.0,-84.0,-54.0,19.0,1.9095826148986816
392,160.0,-752.0,911.0,1.0,-10327.0,-4174.0,-2682.0,-11713.0,24.0,44.0,60.0,-76.0,31.0,19.0,-32.0,-103.0,1.917320966720581
393,922.0,-945.0,986.0,1.0,-10179.0,-4444.0,-2644.0,-11752.0,24.0,44.0,60.0,-76.0,31.0,19.0,-32.0,-103.0,1.9191477298736572
394,922.0,-945.0,986.0,1.0,-10179.0,-4444.0,-2644.0,-11752.0,-51.0,-11.0,18.0,4.0,93.0,126.0,-20.0,105.0,1.9325523376464844
395,922.0,-945.0,986.0,1.0,-10179.0,-4444.0,-2644.0,-11752.0,26.0,23.0,-12.0,127.0,113.0,111.0,-12.0,58.0,1.9357800483703613
396,214.0,-994.0,984.0,1.0,-10070.0,-4627.0,-2529.0,-11800.0,26.0,23.0,-12.0,127.0,113.0,111.0,-12.0,58.0,1.9404635429382324
397,214.0,-994.0,984.0,1.0,-10070.0,-4627.0,-2529.0,-11800.0,3.0,-41.0,8.0,112.0,127.0,-97.0,20.0,-40.0,1.9486355781555176
398,214.0,-994.0,984.0,1.0,-10070.0,-4627.0,-2529.0,-11800.0,-55.0,-89.0,-128.0,-124.0,94.0,4.0,79.0,99.0,1.9541032314300537
399,-9.0,-674.0,751.0,1.0,-9989.0,-4731.0,-2385.0,-11858.0,-55.0,-89.0,-128.0,-124.0,94.0,4.0,79.0,99.0,1.9622488021850586
400,-9.0,-674.0,751.0,1.0,-9989.0,-4731.0,-2385.0,-11858.0,-23.0,-70.0,-95.0,-9.0,-76.0,22.0,-79.0,-128.0,1.9711179733276367
401,-9.0,-674.0,751.0,1.0,-9989.0,-4731.0,-2385.0,-11858.0,-108.0,55.0,-84.0,-26.0,-43.0,-14.0,2.0,48.0,1.9771435260772705
402,656.0,-106.0,372.0,1.0,-9883.0,-4886.0,-2397.0,-11881.0,-108.0,55.0,-84.0,-26.0,-43.0,-14.0,2.0,48.0,1.9790403842926025
403,656.0,-106.0,372.0,1.0,-9883.0,-4886.0,-2397.0,-11881.0,-55.0,19.0,-97.0,-26.0,28.0,127.0,127.0,55.0,1.9929966926574707
404,656.0,-106.0,372.0,1.0,-9883.0,-4886.0,-2397.0,-11881.0,69.0,-17.0,-37.0,-5.0,-55.0,-108.0,36.0,-30.0,1.9962115287780762
405,687.0,102.0,51.0,1.0,-9822.0,-5019.0,-2552.0,-11844.0,69.0,-17.0,-37.0,-5.0,-55.0,-108.0,36.0,-30.0,2.0003767013549805
406,687.0,102.0,51.0,1.0,-9822.0,-5019.0,-2552.0,-11844.0,-80.0,18.0,84.0,-7.0,10.0,107.0,34.0,16.0,2.0073933601379395
407,687.0,102.0,51.0,1.0,-9822.0,-5019.0,-2552.0,-11844.0,-46.0,-35.0,-29.0,22.0,89.0,66.0,63.0,-66.0,2.014613389968872
408,-43.0,114.0,71.0,1.0,-9800.0,-5060.0,-2611.0,-11832.0,-46.0,-35.0,-29.0,22.0,89.0,66.0,63.0,-66.0,2.0221304893493652
409,-43.0,114.0,71.0,1.0,-9800.0,-5060.0,-2611.0,-11832.0,-23.0,127.0,56.0,-3.0,-61.0,-113.0,30.0,35.0,2.0315487384796143
410,-43.0,114.0,71.0,1.0,-9800.0,-5060.0,-2611.0,-11832.0,-21.0,-65.0,127.0,-15.0,34.0,-7.0,23.0,25.0,2.03743314743042
411,-274.0,250.0,-85.0,1.0,-9800.0,-5046.0,-2589.0,-11843.0,-21.0,-65.0,127.0,-15.0,34.0,-7.0,23.0,25.0,2.039243221282959
412,-274.0,250.0,-85.0,1.0,-9800.0,-5046.0,-2589.0,-11843.0,29.0,66.0,-16.0,86.0,86.0,-57.0,-47.0,45.0,2.051600933074951
413,270.0,297.0,-316.0,1.0,-9798.0,-5078.0,-2665.0,-11814.0,29.0,66.0,-16.0,86.0,86.0,-57.0,-47.0,45.0,2.0762062072753906
414,270.0,297.0,-316.0,1.0,-9798.0,-5078.0,-2665.0,-11814.0,84.0,-18.0,-73.0,2.0,-74.0,-78.0,-128.0,-128.0,2.080375909805298
415,270.0,297.0,-316.0,1.0,-9798.0,-5078.0,-2665.0,-11814.0,-19.0,-24.0,10.0,-30.0,-46.0,-12.0,-66.0,-116.0,2.0842931270599365
416,76.0,254.0,-214.0,1.0,-9801.0,-5104.0,-2764.0,-11777.0,-19.0,-24.0,10.0,-30.0,-46.0,-12.0,-66.0,-116.0,2.098540782928467
417,76.0,254.0,-214.0,1.0,-9801.0,-5104.0,-2764.0,-11777.0,13.0,-54.0,28.0,-43.0,-105.0,-105.0,-94.0,-67.0,2.1006124019622803
418,76.0,254.0,-214.0,1.0,-9801.0,-5104.0,-2764.0,-11777.0,73.0,-29.0,-6.0,-32.0,-52.0,93.0,77.0,-128.0,2.1121504306793213
419,-356.0,139.0,-110.0,1.0,-9824.0,-5075.0,-2764.0,-11771.0,73.0,-29.0,-6.0,-32.0,-52.0,93.0,77.0,-128.0,2.1295580863952637
420,-46.0,91.0,-112.0,1.0,-9831.0,-5069.0,-2758.0,-11769.0,73.0,-29.0,-6.0,-32.0,-52.0,93.0,77.0,-128.0,2.1337172985076904
421,-46.0,91.0,-112.0,1.0,-9831.0,-5069.0,-2758.0,-11769.0,-23.0,-19.0,109.0,53.0,-110.0,-15.0,-75.0,-85.0,2.137544631958008
422,-46.0,91.0,-112.0,1.0,-9831.0,-5069.0,-2758.0,-11769.0,11.0,88.0,49.0,-82.0,-56.0,-46.0,10.0,-111.0,2.140932083129883
423,247.0,65.0,-141.0,1.0,-9829.0,-5093.0,-2798.0,-11751.0,11.0,88.0,49.0,-82.0,-56.0,-46.0,10.0,-111.0,2.1490414142608643
424,247.0,65.0,-141.0,1.0,-9829.0,-5093.0,-2798.0,-11751.0,-73.0,51.0,-35.0,-15.0,36.0,127.0,91.0,126.0,2.15809965133667
425,247.0,65.0,-141.0,1.0,-9829.0,-5093.0,-2798.0,-11751.0,-27.0,-21.0,-10.0,-58.0,-29.0,-106.0,-52.0,-127.0,2.161264657974243
426,127.0,-23.0,-58.0,1.0,-9826.0,-5129.0,-2843.0,-11727.0,-27.0,-21.0,-10.0,-58.0,-29.0,-106.0,-52.0,-127.0,2.18166446685791
427,127.0,-23.0,-58.0,1.0,-9826.0,-5129.0,-2843.0,-11727.0,-33.0,7.0,-25.0,127.0,-52.0,-83.0,-10.0,-128.0,2.1865108013153076
428,127.0,-23.0,-58.0,1.0,-9826.0,-5129.0,-2843.0,-11727.0,12.0,-54.0,34.0,40.0,-57.0,127.0,95.0,59.0,2.190499782562256
429,-76.0,-89.0,33.0,1.0,-9825.0,-5149.0,-2837.0,-11721.0,12.0,-54.0,34.0,40.0,-57.0,127.0,95.0,59.0,2.2028934955596924
430,-76.0,-89.0,33.0,1.0,-9825.0,-5149.0,-2837.0,-11721.0,7.0,-20.0,-1.0,-37.0,75.0,-72.0,-24.0,127.0,2.2054004669189453
431,-76.0,-89.0,33.0,1.0,-9825.0,-5149.0,-2837.0,-11721.0,44.0,-78.0,-116.0,76.0,2.0,20.0,-55.0,32.0,2.2088816165924072
432,43.0,-100.0,26.0,1.0,-9815.0,-5182.0,-2819.0,-11719.0,44.0,-78.0,-116.0,76.0,2.0,20.0,-55.0,32.0,2.2251205444335938
433,104.0,-99.0,36.0,1.0,-9801.0,-5218.0,-2799.0,-11720.0,44.0,-78.0,-116.0,76.0,2.0,20.0,-55.0,32.0,2.2344541549682617
434,104.0,-99.0,36.0,1.0,-9801.0,-5218.0,-2799.0,-11720.0,73.0,19.0,-30.0,-55.0,4.0,96.0,-5.0,-28.0,2.237656354904175
435,104.0,-99.0,36.0,1.0,-9801.0,-5218.0,-2799.0,-11720.0,-45.0,8.0,-16.0,-31.0,61.0,-128.0,-24.0,113.0,2.2396042346954346
436,123.0,-82.0,-7.0,1.0,-9791.0,-5252.0,-2790.0,-11715.0,-45.0,8.0,-16.0,-31.0,61.0,-128.0,-24.0,113.0,2.255310535430908
437,123.0,-82.0,-7.0,1.0,-9791.0,-5252.0,-2790.0,-11715.0,64.0,-54.0,-62.0,-44.0,29.0,-29.0,43.0,84.0,2.2580063343048096
438,123.0,-82.0,-7.0,1.0,-9791.0,-5252.0,-2790.0,-11715.0,6.0,-21.0,-108.0,33.0,-22.0,-95.0,-39.0,-91.0,2.26096510887146
439,133.0,-62.0,-24.0,1.0,-9782.0,-5288.0,-2796.0,-11705.0,6.0,-21.0,-108.0,33.0,-22.0,-95.0,-39.0,-91.0,2.2790729999542236
440,133.0,-62.0,-24.0,1.0,-9782.0,-5288.0,-2796.0,-11705.0,-28.0,-20.0,-3.0,0.0,-2.0,-113.0,3.0,-128.0,2.2841763496398926
441,133.0,-62.0,-24.0,1.0,-9782.0,-5288.0,-2796.0,-11705.0,19.0,0.0,-17.0,24.0,-51.0,59.0,17.0,32.0,2.28779935836792
442,245.0,-48.0,-39.0,1.0,-9767.0,-5336.0,-2822.0,-11689.0,19.0,0.0,-17.0,24.0,-51.0,59.0,17.0,32.0,2.308699369430542
443,245.0,-48.0,-39.0,1.0,-9767.0,-5336.0,-2822.0,-11689.0,2.0,45.0,33.0,38.0,3.0,61.0,11.0,23.0,2.3122096061706543
444,245.0,-48.0,-39.0,1.0,-9767.0,-5336.0,-2822.0,-11689.0,-2.0,10.0,31.0,-13.0,39.0,-14.0,-40.0,-34.0,2.3157057762145996
445,251.0,-67.0,-42.0,1.0,-9753.0,-5381.0,-2833.0,-11677.0,-2.0,10.0,31.0,-13.0,39.0,-14.0,-40.0,-34.0,2.33201003074646
446,294.0,-122.0,-59.0,1.0,-9739.0,-5440.0,-2840.0,-11661.0,-2.0,10.0,31.0,-13.0,39.0,-14.0,-40.0,-34.0,2.335327625274658
447,294.0,-122.0,-59.0,1.0,-9739.0,-5440.0,-2840.0,-11661.0,-32.0,14.0,18.0,3.0,3.0,44.0,30.0,21.0,2.33939528465271
448,294.0,-122.0,-59.0,1.0,-9739.0,-5440.0,-2840.0,-11661.0,1.0,-6.0,32.0,0.0,50.0,10.0,-11.0,-5.0,2.3426766395568848
449,294.0,-122.0,-59.0,1.0,-9739.0,-5440.0,-2840.0,-11661.0,0.0,4.0,-16.0,15.0,5.0,4.0,21.0,-2.0,2.3454995155334473
450,294.0,-122.0,-59.0,1.0,-9739.0,-5440.0,-2840.0,-11661.0,25.0,-1.0,-11.0,-44.0,-2.0,-9.0,1.0,-4.0,2.3483264446258545
451,294.0,-122.0,-59.0,1.0,-9739.0,-5440.0,-2840.0,-11661.0,3.0,13.0,96.0,-15.0,7.0,12.0,-15.0,5.0,2.353742837905884
452,246.0,-249.0,-117.0,1.0,-9734.0,-5519.0,-2833.0,-11629.0,3.0,13.0,96.0,-15.0,7.0,12.0,-15.0,5.0,2.355527639389038
453,246.0,-249.0,-117.0,1.0,-9734.0,-5519.0,-2833.0,-11629.0,-14.0,-10.0,-12.0,22.0,55.0,-7.0,-27.0,-72.0,2.3573853969573975
454,246.0,-249.0,-117.0,1.0,-9734.0,-5519.0,-2833.0,-11629.0,-23.0,33.0,-16.0,40.0,5.0,27.0,22.0,29.0,2.359452486038208
455,246.0,-249.0,-117.0,1.0,-9734.0,-5519.0,-2833.0,-11629.0,0.0,-4.0,9.0,15.0,-73.0,-9.0,-22.0,-30.0,2.361264705657959
456,246.0,-249.0,-117.0,1.0,-9734.0,-5519.0,-2833.0,-11629.0,-7.0,-8.0,-14.0,-11.0,-14.0,16.0,11.0,-5.0,2.363046169281006
457,246.0,-249.0,-117.0,1.0,-9734.0,-5519.0,-2833.0,-11629.0,7.0,22.0,-11.0,-1.0,-1.0,-5.0,-4.0,-1.0,2.3648173809051514
458,215.0,-329.0,-168.0,1.0,-9738.0,-5609.0,-2817.0,-11587.0,7.0,22.0,-11.0,-1.0,-1.0,-5.0,-4.0,-1.0,2.3671975135803223
459,215.0,-329.0,-168.0,1.0,-9738.0,-5609.0,-2817.0,-11587.0,-12.0,2.0,-18.0,-25.0,-25.0,3.0,8.0,12.0,2.3700292110443115
460,215.0,-329.0,-168.0,1.0,-9738.0,-5609.0,-2817.0,-11587.0,8.0,-9.0,13.0,15.0,45.0,11.0,0.0,9.0,2.371952772140503
461,215.0,-329.0,-168.0,1.0,-9738.0,-5609.0,-2817.0,-11587.0,-7.0,-16.0,-1.0,-2.0,-29.0,3.0,-3.0,-20.0,2.3737940788269043
462,418.0,-356.0,-177.0,1.0,-9728.0,-5725.0,-2817.0,-11537.0,-7.0,-16.0,-1.0,-2.0,-29.0,3.0,-3.0,-20.0,2.3820557594299316
463,418.0,-356.0,-177.0,1.0,-9728.0,-5725.0,-2817.0,-11537.0,13.0,2.0,9.0,16.0,-68.0,8.0,2.0,8.0,2.3892107009887695
464,418.0,-356.0,-177.0,1.0,-9728.0,-5725.0,-2817.0,-11537.0,-2.0,17.0,-25.0,-9.0,4.0,-7.0,-1.0,-12.0,2.4053547382354736
465,618.0,-389.0,-199.0,1.0,-9709.0,-5867.0,-2841.0,-11477.0,-2.0,17.0,-25.0,-9.0,4.0,-7.0,-1.0,-12.0,2.408945083618164
466,618.0,-389.0,-199.0,1.0,-9709.0,-5867.0,-2841.0,-11477.0,-9.0,-50.0,-19.0,-36.0,45.0,4.0,2.0,11.0,2.412489414215088
467,618.0,-389.0,-199.0,1.0,-9709.0,-5867.0,-2841.0,-11477.0,5.0,12.0,25.0,2.0,44.0,7.0,6.0,-1.0,2.4207026958465576
468,871.0,-442.0,-208.0,1.0,-9676.0,-6033.0,-2886.0,-11407.0,5.0,12.0,25.0,2.0,44.0,7.0,6.0,-1.0,2.4229373931884766
469,871.0,-442.0,-208.0,1.0,-9676.0,-6033.0,-2886.0,-11407.0,2.0,26.0,-15.0,-10.0,-5.0,-7.0,-5.0,-8.0,2.4266231060028076
470,871.0,-442.0,-208.0,1.0,-9676.0,-6033.0,-2886.0,-11407.0,-4.0,-8.0,-9.0,-11.0,-28.0,-3.0,1.0,-6.0,2.4341230392456055
471,1237.0,-578.0,-272.0,1.0,-9631.0,-6264.0,-3005.0,-11289.0,-4.0,-8.0,-9.0,-11.0,-28.0,-3.0,1.0,-6.0,2.441710948944092
472,1237.0,-578.0,-272.0,1.0,-9631.0,-6264.0,-3005.0,-11289.0,4.0,-2.0,10.0,-12.0,10.0,-11.0,-1.0,-3.0,2.4490175247192383
473,1237.0,-578.0,-272.0,1.0,-9631.0,-6264.0,-3005.0,-11289.0,-7.0,-2.0,0.0,-16.0,-19.0,1.0,3.0,2.0,2.4565560817718506
474,1168.0,-684.0,-199.0,1.0,-9586.0,-6498.0,-3114.0,-11165.0,-7.0,-2.0,0.0,-16.0,-19.0,1.0,3.0,2.0,2.4661073684692383
475,1168.0,-684.0,-199.0,1.0,-9586.0,-6498.0,-3114.0,-11165.0,3.0,7.0,35.0,32.0,7.0,3.0,0.0,29.0,2.481140375137329
476,1168.0,-684.0,-199.0,1.0,-9586.0,-6498.0,-3114.0,-11165.0,3.0,-14.0,7.0,25.0,1.0,15.0,3.0,2.0,2.484804153442383
477,1005.0,-825.0,-16.0,1.0,-9535.0,-6728.0,-3165.0,-11058.0,3.0,-14.0,7.0,25.0,1.0,15.0,3.0,2.0,2.488614559173584
478,1005.0,-825.0,-16.0,1.0,-9535.0,-6728.0,-3165.0,-11058.0,2.0,52.0,18.0,18.0,25.0,5.0,0.0,-4.0,2.493001937866211
479,1005.0,-825.0,-16.0,1.0,-9535.0,-6728.0,-3165.0,-11058.0,1.0,71.0,-2.0,29.0,12.0,-9.0,-2.0,-3.0,2.4956612586975098
480,966.0,-973.0,55.0,1.0,-9479.0,-6965.0,-3166.0,-10958.0,1.0,71.0,-2.0,29.0,12.0,-9.0,-2.0,-3.0,2.501695156097412
481,966.0,-973.0,55.0,1.0,-9479.0,-6965.0,-3166.0,-10958.0,-1.0,-26.0,-9.0,7.0,11.0,-4.0,0.0,0.0,2.5094449520111084
482,966.0,-973.0,55.0,1.0,-9479.0,-6965.0,-3166.0,-10958.0,-14.0,-49.0,-84.0,-35.0,-9.0,-7.0,-4.0,-9.0,2.5166385173797607
483,1158.0,-1155.0,107.0,1.0,-9407.0,-7255.0,-3196.0,-10823.0,-14.0,-49.0,-84.0,-35.0,-9.0,-7.0,-4.0,-9.0,2.524637222290039
484,1158.0,-1155.0,107.0,1.0,-9407.0,-7255.0,-3196.0,-10823.0,-2.0,-1.0,-30.0,-20.0,-15.0,-18.0,-8.0,-4.0,2.532130241394043
485,1158.0,-1155.0,107.0,1.0,-9407.0,-7255.0,-3196.0,-10823.0,-4.0,-28.0,-1.0,10.0,13.0,1.0,-2.0,3.0,2.5394961833953857
486,995.0,-1274.0,457.0,1.0,-9306.0,-7556.0,-3173.0,-10710.0,-4.0,-28.0,-1.0,10.0,13.0,1.0,-2.0,3.0,2.5412983894348145
487,995.0,-1274.0,457.0,1.0,-9306.0,-7556.0,-3173.0,-10710.0,-6.0,-28.0,-17.0,-7.0,5.0,8.0,-2.0,-3.0,2.546586275100708
488,995.0,-1274.0,457.0,1.0,-9306.0,-7556.0,-3173.0,-10710.0,-1.0,-1.0,27.0,13.0,-4.0,-14.0,-3.0,4.0,2.5542702674865723
489,574.0,-1368.0,620.0,1.0,-9221.0,-7817.0,-3052.0,-10632.0,-1.0,-1.0,27.0,13.0,-4.0,-14.0,-3.0,4.0,2.561598777770996
490,574.0,-1368.0,620.0,1.0,-9221.0,-7817.0,-3052.0,-10632.0,1.0,-2.0,21.0,-2.0,1.0,4.0,3.0,-5.0,2.5697624683380127
491,574.0,-1368.0,620.0,1.0,-9221.0,-7817.0,-3052.0,-10632.0,1.0,13.0,58.0,-13.0,-1.0,1.0,-4.0,-3.0,2.5776407718658447
492,342.0,-1409.0,526.0,1.0,-9163.0,-8038.0,-2874.0,-10566.0,1.0,13.0,58.0,-13.0,-1.0,1.0,-4.0,-3.0,2.5852854251861572
493,342.0,-1409.0,526.0,1.0,-9163.0,-8038.0,-2874.0,-10566.0,-2.0,0.0,-5.0,12.0,10.0,-22.0,-3.0,-7.0,2.5923542976379395
494,342.0,-1409.0,526.0,1.0,-9163.0,-8038.0,-2874.0,-10566.0,1.0,-2.0,3.0,-11.0,-1.0,6.0,2.0,2.0,2.6002583503723145
495,656.0,-1377.0,432.0,1.0,-9101.0,-8259.0,-2758.0,-10480.0,1.0,-2.0,3.0,-11.0,-1.0,6.0,2.0,2.0,2.6032159328460693
496,656.0,-1377.0,432.0,1.0,-9101.0,-8259.0,-2758.0,-10480.0,1.0,-3.0,-18.0,22.0,-2.0,-14.0,-3.0,1.0,2.60750675201416
497,656.0,-1377.0,432.0,1.0,-9101.0,-8259.0,-2758.0,-10480.0,-2.0,-12.0,-30.0,27.0,6.0,-13.0,2.0,3.0,2.6142537593841553
498,783.0,-1402.0,635.0,1.0,-9015.0,-8501.0,-2678.0,-10381.0,-2.0,-12.0,-30.0,27.0,6.0,-13.0,2.0,3.0,2.621321678161621
499,783.0,-1402.0,635.0,1.0,-9015.0,-8501.0,-2678.0,-10381.0,1.0,12.0,-6.0,-21.0,12.0,10.0,2.0,-1.0,2.6306536197662354
