Gyro 0,Gyro 1,Gyro 2,Orientation 0,Orientation 1,Orientation 2,Orientation 3,Sensor 0,Sensor 1,Sensor 2,Sensor 3,Sensor 4,Sensor 5,Sensor 6,Sensor 7,Sensor Mean,Sensor Variance,Gyro Mean,Gyro Variance,Orientation Mean,Orientation Variance,Label
-6.995909462776105,-23.110183639398993,19.305212892956618,82.7134531325886,-44.01550688117854,126.31587848418417,-118.27645156322194,-15.596491228070189,-11.272189349112438,-34.364705882352936,5.720720720720731,8.466666666666669,2.4901960784313744,-0.49803921568627274,-22.764150943396224,12.646645010554606,128.68736275690043,16.470435331710572,458.4141220679272,41.7096165549814,1264.6054111576589,1
-6.995909462776105,-23.110183639398993,19.305212892956618,82.7134531325886,-44.01550688117854,126.31587848418417,-118.27645156322194,-15.596491228070189,-14.278106508875752,4.482352941176472,11.441441441441452,11.454901960784316,8.466666666666669,1.4941176470588253,-16.773584905660375,10.498457912466755,28.979535348695133,16.470435331710572,458.4141220679272,41.7096165549814,1264.6054111576589,1
-6.995909462776105,-23.110183639398993,19.305212892956618,82.7134531325886,-44.01550688117854,126.31587848418417,-118.27645156322194,-6.684210526315804,14.278106508875727,32.372549019607845,19.45045045045046,2.4901960784313744,1.4941176470588253,1.4941176470588253,-16.773584905660375,11.879666597932404,119.69316042142034,16.470435331710572,458.4141220679272,41.7096165549814,1264.6054111576589,1
-7.6712571584401354,-23.958263772954922,19.456824512534812,82.7134531325886,-43.990889707307645,126.29996868149078,-118.04173725550594,-6.684210526315804,14.278106508875727,32.372549019607845,19.45045045045046,2.4901960784313744,1.4941176470588253,1.4941176470588253,-16.773584905660375,11.879666597932404,119.69316042142034,17.028781814643292,481.01154840753384,42.042847139359445,1245.6393827461782,1
-7.6712571584401354,-23.958263772954922,19.456824512534812,82.7134531325886,-43.990889707307645,126.29996868149078,-118.04173725550594,-15.596491228070189,17.28402366863904,9.462745098039218,-1.1441441441441338,-13.44705882352941,-7.470588235294116,2.4901960784313744,-20.367924528301884,10.907896475556171,48.381354990170735,17.028781814643292,481.01154840753384,42.042847139359445,1245.6393827461782,1
-7.6712571584401354,-23.958263772954922,19.456824512534812,82.7134531325886,-43.990889707307645,126.29996868149078,-118.04173725550594,-17.824561403508785,-33.816568047337284,-9.462745098039214,-4.576576576576567,-10.458823529411763,-0.49803921568627274,-1.4941176470588218,-29.952830188679243,13.510532713287244,160.07533780568428,17.028781814643292,481.01154840753384,42.042847139359445,1245.6393827461782,1
-6.822743386964815,-23.322203672787975,19.77689348719989,82.8984944147644,-44.064741228920354,126.34769808957095,-118.19821346064994,-17.824561403508785,-33.816568047337284,-9.462745098039214,-4.576576576576567,-10.458823529411763,-0.49803921568627274,-1.4941176470588218,-29.952830188679243,13.510532713287244,160.07533780568428,16.640613515650895,472.88417459449204,41.99919719158409,1257.7066910905423,1
-6.822743386964815,-23.322203672787975,19.77689348719989,82.8984944147644,-44.064741228920354,126.34769808957095,-118.19821346064994,-22.28070175438598,-14.278106508875752,10.458823529411767,9.153153153153164,-0.49803921568627274,8.466666666666669,0.4980392156862763,-13.179245283018865,9.851596915860593,51.843220123649175,16.640613515650895,472.88417459449204,41.99919719158409,1257.7066910905423,1
-6.822743386964815,-23.322203672787975,19.77689348719989,82.8984944147644,-44.064741228920354,126.34769808957095,-118.19821346064994,-4.456140350877208,30.81065088757395,43.32941176470588,4.576576576576588,1.4941176470588253,8.466666666666669,2.4901960784313744,-16.773584905660375,14.049668109693858,235.6945770175886,16.640613515650895,472.88417459449204,41.99919719158409,1257.7066910905423,1
-6.649577311153525,-23.194991652754588,20.282265552460533,83.20689655172407,-44.138592750533064,126.44315690573131,-118.55028492222394,-4.456140350877208,30.81065088757395,43.32941176470588,4.576576576576588,1.4941176470588253,8.466666666666669,2.4901960784313744,-16.773584905660375,14.049668109693858,235.6945770175886,16.70894483878955,481.55779830901463,42.228051252313065,1261.5703148886282,1
-6.649577311153525,-23.194991652754588,20.282265552460533,83.20689655172407,-44.138592750533064,126.44315690573131,-118.55028492222394,-18.938596491228083,-39.82840236686391,-22.41176470588235,-1.1441441441441338,-16.435294117647057,4.482352941176472,0.4980392156862763,-25.160377358490564,16.112371417639856,185.0290351591145,16.70894483878955,481.55779830901463,42.228051252313065,1261.5703148886282,1
-6.649577311153525,-23.194991652754588,20.282265552460533,83.20689655172407,-44.138592750533064,126.44315690573131,-118.55028492222394,-22.28070175438598,-26.301775147929003,-5.478431372549018,17.162162162162176,-15.439215686274508,-8.466666666666665,17.43137254901961,-35.94339622641509,18.562965195675254,94.56156554584594,16.70894483878955,481.55779830901463,42.228051252313065,1261.5703148886282,1
-6.73616034905917,-23.40701168614357,20.1811911394084,83.45361826129181,-44.212444272145774,126.55452552458505,-118.86323733251194,-22.28070175438598,-26.301775147929003,-5.478431372549018,17.162162162162176,-15.439215686274508,-8.466666666666665,17.43137254901961,-35.94339622641509,18.562965195675254,94.56156554584594,16.77478772487038,483.7320868363888,42.34727369561459,1269.9001522140702,1
-6.73616034905917,-23.40701168614357,20.1811911394084,83.45361826129181,-44.212444272145774,126.55452552458505,-118.86323733251194,-10.0263157894737,-3.757396449704154,11.454901960784316,19.45045045045046,17.43137254901961,-7.470588235294116,-4.482352941176469,-27.556603773584904,12.703747768685966,67.45978800451643,16.77478772487038,483.7320868363888,42.34727369561459,1269.9001522140702,1
-6.73616034905917,-23.40701168614357,20.1811911394084,83.45361826129181,-44.212444272145774,126.55452552458505,-118.86323733251194,-17.824561403508785,-27.80473372781066,-1.4941176470588218,9.153153153153164,7.4705882352941195,5.4784313725490215,-15.439215686274508,-22.764150943396224,13.428619021130663,82.37245494841935,16.77478772487038,483.7320868363888,42.34727369561459,1269.9001522140702,1
-7.117125715844008,-23.576627712854755,19.945350842286768,83.76202039825148,-44.26167861988759,126.64998434074539,-118.98059448636995,-17.824561403508785,-27.80473372781066,-1.4941176470588218,9.153153153153164,7.4705882352941195,5.4784313725490215,-15.439215686274508,-22.764150943396224,13.428619021130663,82.37245494841935,16.879701423661842,482.9092434671962,42.427999651131,1284.67249627022,1
-7.117125715844008,-23.576627712854755,19.945350842286768,83.76202039825148,-44.26167861988759,126.64998434074539,-118.98059448636995,-18.938596491228083,-33.816568047337284,-32.372549019607845,2.2882882882882987,-6.474509803921567,-2.490196078431371,6.4745098039215705,-19.169811320754715,15.253128606686342,164.52953478894253,16.879701423661842,482.9092434671962,42.427999651131,1284.67249627022,1
-7.117125715844008,-23.576627712854755,19.945350842286768,83.76202039825148,-44.26167861988759,126.64998434074539,-118.98059448636995,-15.596491228070189,-6.763313609467467,1.4941176470588253,1.144144144144155,-1.4941176470588218,-11.454901960784312,-0.49803921568627274,-16.773584905660375,6.902338794741302,46.63493091373936,16.879701423661842,482.9092434671962,42.427999651131,1284.67249627022,1
-7.93100627215707,-23.067779632721198,19.911659371269394,83.63865954346761,-44.11397557666217,126.69771374882558,-119.05883258894195,-15.596491228070189,-6.763313609467467,1.4941176470588253,1.144144144144155,-1.4941176470588218,-11.454901960784312,-0.49803921568627274,-16.773584905660375,6.902338794741302,46.63493091373936,16.970148425382554,475.2613524997453,42.206032849152734,1289.987189869027,1
-7.93100627215707,-23.067779632721198,19.911659371269394,83.63865954346761,-44.11397557666217,126.69771374882558,-119.05883258894195,-13.368421052631593,-18.786982248520722,-16.435294117647057,6.864864864864876,-12.450980392156861,-8.466666666666665,0.4980392156862763,-14.377358490566035,11.40607588109251,34.54142102115798,16.970148425382554,475.2613524997453,42.206032849152734,1289.987189869027,1
-7.93100627215707,-23.067779632721198,19.911659371269394,83.63865954346761,-44.11397557666217,126.69771374882558,-119.05883258894195,-20.05263157894738,-11.272189349112438,-21.415686274509802,6.864864864864876,-16.435294117647057,-9.462745098039214,-12.450980392156861,-29.952830188679243,15.98840273299461,57.39392644666399,16.970148425382554,475.2613524997453,42.206032849152734,1289.987189869027,1
-7.480774475047717,-23.237395659432384,20.4675686430561,83.45361826129181,-43.94165535956583,126.77726276229254,-119.33266594794395,-20.05263157894738,-11.272189349112438,-21.415686274509802,6.864864864864876,-16.435294117647057,-9.462745098039214,-12.450980392156861,-29.952830188679243,15.98840273299461,57.39392644666399,17.0619129258454,489.9174831462089,42.38619418792676,1266.817975441364,1
-7.480774475047717,-23.237395659432384,20.4675686430561,83.45361826129181,-43.94165535956583,126.77726276229254,-119.33266594794395,-23.394736842105274,-33.816568047337284,12.450980392156865,11.441441441441452,-1.4941176470588218,-7.470588235294116,-7.470588235294116,-29.952830188679243,15.936481378670898,136.57996750732892,17.0619129258454,489.9174831462089,42.38619418792676,1266.817975441364,1
-7.480774475047717,-23.237395659432384,20.4675686430561,83.45361826129181,-43.94165535956583,126.77726276229254,-119.33266594794395,-24.508771929824576,-42.834319526627226,-40.34117647058824,5.720720720720731,-8.466666666666665,-0.49803921568627274,1.4941176470588253,-17.971698113207545,17.72943878629751,282.5826865881061,17.0619129258454,489.9174831462089,42.38619418792676,1266.817975441364,1
-6.320561767112075,-22.81335559265442,20.1811911394084,83.57697911607568,-44.01550688117854,126.8568117757595,-119.80209456337596,-24.508771929824576,-42.834319526627226,-40.34117647058824,5.720720720720731,-8.466666666666665,-0.49803921568627274,1.4941176470588253,-17.971698113207545,17.72943878629751,282.5826865881061,16.438369499724967,470.48103399760805,42.190508616046166,1286.3620277645928,1
-6.320561767112075,-22.81335559265442,20.1811911394084,83.57697911607568,-44.01550688117854,126.8568117757595,-119.80209456337596,-8.912280701754401,38.325443786982234,33.3686274509804,3.432432432432443,-12.450980392156861,0.4980392156862763,-3.48627450980392,-20.367924528301884,15.105250377262303,204.34971182825979,16.438369499724967,470.48103399760805,42.190508616046166,1286.3620277645928,1
-6.320561767112075,-22.81335559265442,20.1811911394084,83.57697911607568,-44.01550688117854,126.8568117757595,-119.80209456337596,-13.368421052631593,-18.786982248520722,8.466666666666669,13.72972972972974,-1.4941176470588218,4.482352941176472,0.4980392156862763,-13.179245283018865,9.250694348061145,43.35956624220065,16.438369499724967,470.48103399760805,42.190508616046166,1286.3620277645928,1
-6.56299427324788,-22.47412353923205,20.02957951983021,83.70033997085955,-44.138592750533064,126.8568117757595,-120.03680887109195,-13.368421052631593,-18.786982248520722,8.466666666666669,13.72972972972974,-1.4941176470588218,4.482352941176472,0.4980392156862763,-13.179245283018865,9.250694348061145,43.35956624220065,16.355565777436713,461.1489648653501,42.06801434330727,1301.431851734608,1
-6.56299427324788,-22.47412353923205,20.02957951983021,83.70033997085955,-44.138592750533064,126.8568117757595,-120.03680887109195,-10.0263157894737,-6.763313609467467,-4.482352941176469,13.72972972972974,26.39607843137255,3.4862745098039234,-24.40392156862745,-15.575471698113205,13.107932284720563,75.33957834910338,16.355565777436713,461.1489648653501,42.06801434330727,1301.431851734608,1
-6.56299427324788,-22.47412353923205,20.02957951983021,83.70033997085955,-44.138592750533064,126.8568117757595,-120.03680887109195,-12.254385964912295,6.763313609467444,25.400000000000002,9.153153153153164,6.4745098039215705,14.443137254901963,-10.458823529411763,-20.367924528301884,13.16440598050876,44.74325008855406,16.355565777436713,461.1489648653501,42.06801434330727,1301.431851734608,1
-6.943959640032718,-21.498831385642735,19.945350842286768,83.70033997085955,-44.26167861988759,126.79317256498592,-120.27152317880795,-12.254385964912295,6.763313609467444,25.400000000000002,9.153153153153164,6.4745098039215705,14.443137254901963,-10.458823529411763,-20.367924528301884,13.16440598050876,44.74325008855406,16.12938062265407,442.0832583812602,41.71484073292968,1322.6899351433033,1
-6.943959640032718,-21.498831385642735,19.945350842286768,83.70033997085955,-44.26167861988759,126.79317256498592,-120.27152317880795,-10.0263157894737,2.254437869822473,1.4941176470588253,-3.4324324324324227,-3.48627450980392,12.450980392156865,5.4784313725490215,-19.169811320754715,7.224100166756493,38.11405595308638,16.12938062265407,442.0832583812602,41.71484073292968,1322.6899351433033,1
-6.943959640032718,-21.498831385642735,19.945350842286768,83.70033997085955,-44.26167861988759,126.79317256498592,-120.27152317880795,-14.482456140350891,-27.80473372781066,-43.32941176470588,-13.72972972972972,-14.44313725490196,-3.48627450980392,3.4862745098039234,-19.169811320754715,17.491478619732707,171.6525230249505,16.12938062265407,442.0832583812602,41.71484073292968,1322.6899351433033,1
-7.965639487319328,-21.66844741235392,20.501260114073478,83.39193783389987,-44.18782709827488,126.72953335421235,-120.31064223009396,-14.482456140350891,-27.80473372781066,-43.32941176470588,-13.72972972972972,-14.44313725490196,-3.48627450980392,3.4862745098039234,-19.169811320754715,17.491478619732707,171.6525230249505,16.711782337915576,462.73592513509936,41.85388178677575,1294.398156677835,1
-7.965639487319328,-21.66844741235392,20.501260114073478,83.39193783389987,-44.18782709827488,126.72953335421235,-120.31064223009396,-8.912280701754401,23.295857988165668,42.333333333333336,4.576576576576588,5.4784313725490215,-16.435294117647057,3.4862745098039234,-19.169811320754715,15.46098249007309,171.80199336937017,16.711782337915576,462.73592513509936,41.85388178677575,1294.398156677835,1
-7.965639487319328,-21.66844741235392,20.501260114073478,83.39193783389987,-44.18782709827488,126.72953335421235,-120.31064223009396,-13.368421052631593,2.254437869822473,24.403921568627453,21.73873873873875,7.4705882352941195,-7.470588235294116,5.4784313725490215,-19.169811320754715,12.66936729921403,68.13323326696265,16.711782337915576,462.73592513509936,41.85388178677575,1294.398156677835,1
-8.138805563130619,-23.576627712854755,20.265419816951844,83.02185526954827,-43.94165535956583,126.72953335421235,-120.23240412752196,-13.368421052631593,2.254437869822473,24.403921568627453,21.73873873873875,7.4705882352941195,-7.470588235294116,5.4784313725490215,-19.169811320754715,12.66936729921403,68.13323326696265,17.326951030979075,494.5419172958091,42.287967599784956,1247.1782279521442,1
-8.138805563130619,-23.576627712854755,20.265419816951844,83.02185526954827,-43.94165535956583,126.72953335421235,-120.23240412752196,-23.394736842105274,-36.8224852071006,-10.458823529411763,1.144144144144155,-15.439215686274508,-3.48627450980392,5.4784313725490215,-28.754716981132074,15.622353534065166,166.97317065252258,17.326951030979075,494.5419172958091,42.287967599784956,1247.1782279521442,1
-8.138805563130619,-23.576627712854755,20.265419816951844,83.02185526954827,-43.94165535956583,126.72953335421235,-120.23240412752196,-16.710526315789487,-8.266272189349124,9.462745098039218,8.00900900900902,-6.474509803921567,-0.49803921568627274,-9.462745098039214,-17.971698113207545,9.60694310538018,31.08666674857556,17.326951030979075,494.5419172958091,42.287967599784956,1247.1782279521442,1
-7.532724297791104,-23.61903171953255,20.38333996551266,82.83681398737247,-43.76933514246949,126.82499217037272,-120.46711843523796,-16.710526315789487,-8.266272189349124,9.462745098039218,8.00900900900902,-6.474509803921567,-0.49803921568627274,-9.462745098039214,-17.971698113207545,9.60694310538018,31.08666674857556,17.178365327612106,495.7141073880913,42.27972855747256,1236.2753092079076,1
-7.532724297791104,-23.61903171953255,20.38333996551266,82.83681398737247,-43.76933514246949,126.82499217037272,-120.46711843523796,-18.938596491228083,-12.775147928994095,-5.478431372549018,1.0658141036401503e-14,-2.490196078431371,-12.450980392156861,0.4980392156862763,-22.764150943396224,9.424442802805242,74.42995361302657,17.178365327612106,495.7141073880913,42.27972855747256,1236.2753092079076,1
-7.532724297791104,-23.61903171953255,20.38333996551266,82.83681398737247,-43.76933514246949,126.82499217037272,-120.46711843523796,-18.938596491228083,0.751479289940816,42.333333333333336,11.441441441441452,6.4745098039215705,-3.48627450980392,1.4941176470588253,-22.764150943396224,13.460487932515528,201.04104448205823,17.178365327612106,495.7141073880913,42.27972855747256,1236.2753092079076,1
-6.840059994545944,-22.728547579298827,20.164345403899716,83.02185526954827,-43.79395231634041,126.92045098653307,-120.85830894809796,-18.938596491228083,0.751479289940816,42.333333333333336,11.441441441441452,6.4745098039215705,-3.48627450980392,1.4941176470588253,-22.764150943396224,13.460487932515528,201.04104448205823,16.577650992581496,470.2470361870951,41.97158275091561,1265.4874385895864,1
-6.840059994545944,-22.728547579298827,20.164345403899716,83.02185526954827,-43.79395231634041,126.92045098653307,-120.85830894809796,-15.596491228070189,6.763313609467444,19.423529411764708,8.00900900900902,-8.466666666666665,-10.458823529411763,1.4941176470588253,-21.566037735849054,11.472248604662209,46.558367225300266,16.577650992581496,470.2470361870951,41.97158275091561,1265.4874385895864,1
-6.840059994545944,-22.728547579298827,20.164345403899716,83.02185526954827,-43.79395231634041,126.92045098653307,-120.85830894809796,-10.0263157894737,21.79289940828401,1.4941176470588253,5.720720720720731,0.4980392156862763,-3.48627450980392,-1.4941176470588218,-15.575471698113205,7.510994579524936,59.4751498040565,16.577650992581496,470.2470361870951,41.97158275091561,1265.4874385895864,1
-7.428824652304329,-23.15258764607679,19.77689348719989,83.0835356969402,-43.79395231634041,126.93636078922646,-120.85830894809796,-10.0263157894737,21.79289940828401,1.4941176470588253,5.720720720720731,0.4980392156862763,-3.48627450980392,-1.4941176470588218,-15.575471698113205,7.510994579524936,59.4751498040565,16.786101928527003,471.72136209047255,42.00433894340563,1268.4741322002733,1
-7.428824652304329,-23.15258764607679,19.77689348719989,83.0835356969402,-43.79395231634041,126.93636078922646,-120.85830894809796,-13.368421052631593,-15.781065088757408,4.482352941176472,10.297297297297309,-3.48627450980392,6.4745098039215705,3.4862745098039234,-20.367924528301884,9.71801496646176,39.92054912776263,16.786101928527003,471.72136209047255,42.00433894340563,1268.4741322002733,1
-7.428824652304329,-23.15258764607679,19.77689348719989,83.0835356969402,-43.79395231634041,126.93636078922646,-120.85830894809796,-15.596491228070189,-27.80473372781066,-17.431372549019606,4.576576576576588,15.439215686274512,-11.454901960784312,24.403921568627453,-20.367924528301884,17.134392228183152,53.20575423267537,16.786101928527003,471.72136209047255,42.00433894340563,1268.4741322002733,1
-8.10417234796836,-22.34691151919866,19.709510545165134,82.8984944147644,-43.74471796859859,126.88863138114627,-120.74095179423996,-15.596491228070189,-27.80473372781066,-17.431372549019606,4.576576576576588,15.439215686274512,-11.454901960784312,24.403921568627453,-20.367924528301884,17.134392228183152,53.20575423267537,16.720198137444054,457.5332020058984,41.651638826376065,1277.7162929214799,1
-8.10417234796836,-22.34691151919866,19.709510545165134,82.8984944147644,-43.74471796859859,126.88863138114627,-120.74095179423996,-20.05263157894738,-9.76923076923078,-7.470588235294116,5.720720720720731,3.4862745098039234,4.482352941176472,6.4745098039215705,-25.160377358490564,10.327085739698193,62.87172886833751,16.720198137444054,457.5332020058984,41.651638826376065,1277.7162929214799,1
-8.10417234796836,-22.34691151919866,19.709510545165134,82.8984944147644,-43.74471796859859,126.88863138114627,-120.74095179423996,-8.912280701754401,-0.75147928994084,-30.380392156862744,-2.2882882882882782,-5.478431372549018,16.43529411764706,7.4705882352941195,-16.773584905660375,11.061292383499605,95.23934114071908,16.720198137444054,457.5332020058984,41.651638826376065,1277.7162929214799,1
-7.08249250068175,-23.449415692821365,19.709510545165134,82.96017484215633,-43.76933514246949,126.88863138114627,-120.74095179423996,-8.912280701754401,-0.75147928994084,-30.380392156862744,-2.2882882882882782,-5.478431372549018,16.43529411764706,7.4705882352941195,-16.773584905660375,11.061292383499605,95.23934114071908,16.74713957955608,474.7300860003376,42.03970036004761,1259.3606465090497,1
-7.08249250068175,-23.449415692821365,19.709510545165134,82.96017484215633,-43.76933514246949,126.88863138114627,-120.74095179423996,-11.140350877192997,-14.278106508875752,-13.44705882352941,3.432432432432443,-20.419607843137253,4.482352941176472,-8.466666666666665,-25.160377358490564,12.603369181437696,55.94261634091661,16.74713957955608,474.7300860003376,42.03970036004761,1259.3606465090497,1
-7.08249250068175,-23.449415692821365,19.709510545165134,82.96017484215633,-43.76933514246949,126.88863138114627,-120.74095179423996,-14.482456140350891,5.260355029585787,26.39607843137255,9.153153153153164,5.4784313725490215,9.462745098039218,-6.474509803921567,-25.160377358490564,12.733513298432847,73.61825340581592,16.74713957955608,474.7300860003376,42.03970036004761,1259.3606465090497,1
-6.9612762476138474,-24.127879799666104,19.13675553786974,83.39193783389987,-43.96627253343672,126.90454118383968,-120.54535653780997,-14.482456140350891,5.260355029585787,26.39607843137255,9.153153153153164,5.4784313725490215,9.462745098039218,-6.474509803921567,-25.160377358490564,12.733513298432847,73.61825340581592,16.74197052838323,474.6047019132333,42.21885772381191,1277.644724662964,1
-6.9612762476138474,-24.127879799666104,19.13675553786974,83.39193783389987,-43.96627253343672,126.90454118383968,-120.54535653780997,-18.938596491228083,-17.284023668639065,5.4784313725490215,14.873873873873885,6.4745098039215705,7.4705882352941195,0.4980392156862763,-19.169811320754715,11.273484247743342,51.054334828345695,16.74197052838323,474.6047019132333,42.21885772381191,1277.644724662964,1
-6.9612762476138474,-24.127879799666104,19.13675553786974,83.39193783389987,-43.96627253343672,126.90454118383968,-120.54535653780997,-8.912280701754401,3.75739644970413,9.462745098039218,5.720720720720731,2.4901960784313744,-0.49803921568627274,1.4941176470588253,-15.575471698113205,5.988870951188519,25.73731275907412,16.74197052838323,474.6047019132333,42.21885772381191,1277.644724662964,1
-7.879056449413683,-23.322203672787975,18.900915240748102,83.39193783389987,-43.990889707307645,126.84090197306611,-120.19328507623595,-8.912280701754401,3.75739644970413,9.462745098039218,5.720720720720731,2.4901960784313744,-0.49803921568627274,1.4941176470588253,-15.575471698113205,5.988870951188519,25.73731275907412,16.700725120983254,456.4082417792146,41.871685582478655,1297.8354581160593,1
-7.879056449413683,-23.322203672787975,18.900915240748102,83.39193783389987,-43.990889707307645,126.84090197306611,-120.19328507623595,-13.368421052631593,-24.798816568047346,-28.388235294117646,21.73873873873875,16.43529411764706,4.482352941176472,3.4862745098039234,-14.377358490566035,15.884436464091104,80.3872861677502,16.700725120983254,456.4082417792146,41.871685582478655,1297.8354581160593,1
-7.879056449413683,-23.322203672787975,18.900915240748102,83.39193783389987,-43.990889707307645,126.84090197306611,-120.19328507623595,-23.394736842105274,-39.82840236686391,17.43137254901961,9.153153153153164,-11.454901960784312,-13.44705882352941,-11.454901960784312,-29.952830188679243,19.514669730614905,116.44208803054507,16.700725120983254,456.4082417792146,41.871685582478655,1297.8354581160593,1
-7.498091082628846,-23.70383973288814,19.069372595834984,83.63865954346761,-44.08935840279125,126.82499217037272,-119.88033266594796,-23.394736842105274,-39.82840236686391,17.43137254901961,9.153153153153164,-11.454901960784312,-13.44705882352941,-11.454901960784312,-29.952830188679243,19.514669730614905,116.44208803054507,16.757101137117324,466.3340180899846,42.13729062406358,1297.1422880494626,1
-7.498091082628846,-23.70383973288814,19.069372595834984,83.63865954346761,-44.08935840279125,126.82499217037272,-119.88033266594796,-13.368421052631593,0.751479289940816,-16.435294117647057,5.720720720720731,0.4980392156862763,3.4862745098039234,36.35686274509804,-8.386792452830186,10.62548551304483,140.49704444130202,16.757101137117324,466.3340180899846,42.13729062406358,1297.1422880494626,1
-7.498091082628846,-23.70383973288814,19.069372595834984,83.63865954346761,-44.08935840279125,126.82499217037272,-119.88033266594796,-22.28070175438598,-15.781065088757408,-38.34901960784313,11.441441441441452,12.450980392156865,4.482352941176472,11.454901960784316,-13.179245283018865,16.177463558695564,104.76694876815542,16.757101137117324,466.3340180899846,42.13729062406358,1297.1422880494626,1
-7.6712571584401354,-24.08547579298831,19.439978777026123,83.76202039825148,-44.08935840279125,126.84090197306611,-119.64561835823196,-22.28070175438598,-15.781065088757408,-38.34901960784313,11.441441441441452,12.450980392156865,4.482352941176472,11.454901960784316,-13.179245283018865,16.177463558695564,104.76694876815542,17.065570576151522,483.1518138096093,42.429158322755306,1286.699276145321,1
-7.6712571584401354,-24.08547579298831,19.439978777026123,83.76202039825148,-44.08935840279125,126.84090197306611,-119.64561835823196,-8.912280701754401,21.79289940828401,16.43529411764706,2.2882882882882987,11.454901960784316,1.4941176470588253,-8.466666666666665,-26.358490566037734,12.150367419565164,78.36636804938053,17.065570576151522,483.1518138096093,42.429158322755306,1286.699276145321,1
-7.6712571584401354,-24.08547579298831,19.439978777026123,83.76202039825148,-44.08935840279125,126.84090197306611,-119.64561835823196,-16.710526315789487,-14.278106508875752,-4.482352941176469,4.576576576576588,-3.48627450980392,-2.490196078431371,-7.470588235294116,-26.358490566037734,9.981638966498178,70.85893208398225,17.065570576151522,483.1518138096093,42.429158322755306,1286.699276145321,1
-6.90932642487046,-24.2126878130217,19.338904363973995,84.07042253521126,-44.18782709827488,126.90454118383968,-119.60649930694595,-16.710526315789487,-14.278106508875752,-4.482352941176469,4.576576576576588,-3.48627450980392,-2.490196078431371,-7.470588235294116,-26.358490566037734,9.981638966498178,70.85893208398225,16.820306200622053,480.85285267079297,42.540671570735654,1299.478602655575,1
-6.90932642487046,-24.2126878130217,19.338904363973995,84.07042253521126,-44.18782709827488,126.90454118383968,-119.60649930694595,-21.16666666666668,-6.763313609467467,7.4705882352941195,9.153153153153164,-4.482352941176469,-8.466666666666665,-5.478431372549018,-25.160377358490564,11.017693750433018,59.58245954523203,16.820306200622053,480.85285267079297,42.540671570735654,1299.478602655575,1
-6.90932642487046,-24.2126878130217,19.338904363973995,84.07042253521126,-44.18782709827488,126.90454118383968,-119.60649930694595,-13.368421052631593,-20.28994082840238,0.4980392156862763,11.441441441441452,17.43137254901961,-0.49803921568627274,-12.450980392156861,-21.566037735849054,12.193034053859186,65.20172263189514,16.820306200622053,480.85285267079297,42.540671570735654,1299.478602655575,1
-6.320561767112075,-23.958263772954922,19.170447008887113,84.62554638173867,-44.40938166311304,126.95227059191984,-119.64561835823196,-13.368421052631593,-20.28994082840238,0.4980392156862763,11.441441441441452,17.43137254901961,-0.49803921568627274,-12.450980392156861,-21.566037735849054,12.193034053859186,65.20172263189514,16.483090849651372,470.1609590281263,42.584752387860235,1331.3020670683663,1
-6.320561767112075,-23.958263772954922,19.170447008887113,84.62554638173867,-44.40938166311304,126.95227059191984,-119.64561835823196,-18.938596491228083,-18.786982248520722,-33.36862745098039,-3.4324324324324227,-22.41176470588235,-3.48627450980392,-6.474509803921567,-23.962264150943394,16.357681474214104,118.11839590925031,16.483090849651372,470.1609590281263,42.584752387860235,1331.3020670683663,1
-6.320561767112075,-23.958263772954922,19.170447008887113,84.62554638173867,-44.40938166311304,126.95227059191984,-119.64561835823196,-17.824561403508785,-14.278106508875752,8.466666666666669,8.00900900900902,-6.474509803921567,-7.470588235294116,-4.482352941176469,-16.773584905660375,10.472422434264093,25.601219368960916,16.483090849651372,470.1609590281263,42.584752387860235,1331.3020670683663,1
-6.528361058085622,-23.83105175292153,19.11990980236105,85.18067022826608,-44.70478774956388,126.96818039461323,-119.56738025565996,-17.824561403508785,-14.278106508875752,8.466666666666669,8.00900900900902,-6.474509803921567,-7.470588235294116,-4.482352941176469,-16.773584905660375,10.472422434264093,25.601219368960916,16.493107537789403,467.0003336558936,42.71054392784955,1358.3324355995815,1
-6.528361058085622,-23.83105175292153,19.11990980236105,85.18067022826608,-44.70478774956388,126.96818039461323,-119.56738025565996,-14.482456140350891,11.272189349112413,45.321568627450986,12.585585585585598,21.415686274509806,6.4745098039215705,-2.490196078431371,-23.962264150943394,17.250557001288254,178.50481095494925,16.493107537789403,467.0003336558936,42.71054392784955,1358.3324355995815,1
-6.528361058085622,-23.83105175292153,19.11990980236105,85.18067022826608,-44.70478774956388,126.96818039461323,-119.56738025565996,-18.938596491228083,-8.266272189349124,-4.482352941176469,8.00900900900902,0.4980392156862763,0.4980392156862763,2.4901960784313744,-27.556603773584904,8.842388614268941,93.1140412971017,16.493107537789403,467.0003336558936,42.71054392784955,1358.3324355995815,1
-7.411508044723201,-23.194991652754588,19.01883538930892,85.30403108304995,-44.8278736189184,126.88863138114627,-119.25442784537195,-18.938596491228083,-8.266272189349124,-4.482352941176469,8.00900900900902,0.4980392156862763,0.4980392156862763,2.4901960784313744,-27.556603773584904,8.842388614268941,93.1140412971017,16.541778362262235,454.94810039718874,42.505952708371154,1378.1167047080407,1
-7.411508044723201,-23.194991652754588,19.01883538930892,85.30403108304995,-44.8278736189184,126.88863138114627,-119.25442784537195,-8.912280701754401,8.266272189349099,25.400000000000002,2.2882882882882987,-14.44313725490196,0.4980392156862763,-2.490196078431371,-10.783018867924525,9.13515407454199,65.98211085999544,16.541778362262235,454.94810039718874,42.505952708371154,1378.1167047080407,1
-7.411508044723201,-23.194991652754588,19.01883538930892,85.30403108304995,-44.8278736189184,126.88863138114627,-119.25442784537195,-18.938596491228083,-12.775147928994095,-1.4941176470588218,6.864864864864876,-8.466666666666665,2.4901960784313744,-4.482352941176469,-23.962264150943394,9.934275846170472,64.8402883144627,16.541778362262235,454.94810039718874,42.505952708371154,1378.1167047080407,1
-7.290291791655298,-23.746243739565937,18.951452447274168,85.48907236522575,-44.926342314402035,126.84090197306611,-118.98059448636995,-18.938596491228083,-12.775147928994095,-1.4941176470588218,6.864864864864876,-8.466666666666665,2.4901960784313744,-4.482352941176469,-23.962264150943394,9.934275846170472,64.8402883144627,16.662662659498466,463.75345914617196,42.728922850688626,1377.0702957633368,1
-7.290291791655298,-23.746243739565937,18.951452447274168,85.48907236522575,-44.926342314402035,126.84090197306611,-118.98059448636995,-14.482456140350891,-32.313609467455635,-33.36862745098039,10.297297297297309,5.4784313725490215,-0.49803921568627274,-1.4941176470588218,-27.556603773584904,15.686147795620407,185.26124476814226,16.662662659498466,463.75345914617196,42.728922850688626,1377.0702957633368,1
-7.290291791655298,-23.746243739565937,18.951452447274168,85.48907236522575,-44.926342314402035,126.84090197306611,-118.98059448636995,-11.140350877192997,-23.295857988165693,-20.419607843137253,1.144144144144155,4.482352941176472,3.4862745098039234,-1.4941176470588218,-19.169811320754715,10.579064658929255,84.52866376613895,16.662662659498466,463.75345914617196,42.728922850688626,1377.0702957633368,1
-7.307608399236427,-23.322203672787975,19.01883538930892,85.48907236522575,-44.97557666214385,126.77726276229254,-118.78499922993994,-11.140350877192997,-23.295857988165693,-20.419607843137253,1.144144144144155,4.482352941176472,3.4862745098039234,-1.4941176470588218,-19.169811320754715,10.579064658929255,84.52866376613895,16.54954915377777,457.05208219751876,42.61003714244088,1383.5884908734324,1
-7.307608399236427,-23.322203672787975,19.01883538930892,85.48907236522575,-44.97557666214385,126.77726276229254,-118.78499922993994,-15.596491228070189,-18.786982248520722,-27.392156862745097,4.576576576576588,3.4862745098039234,8.466666666666669,1.4941176470588253,-19.169811320754715,12.37113463252459,85.23848323405034,16.54954915377777,457.05208219751876,42.61003714244088,1383.5884908734324,1
-7.307608399236427,-23.322203672787975,19.01883538930892,85.48907236522575,-44.97557666214385,126.77726276229254,-118.78499922993994,-6.684210526315804,14.278106508875727,-5.478431372549018,-4.576576576576567,-7.470588235294116,-7.470588235294116,-1.4941176470588218,-17.971698113207545,8.178039651896464,28.756042385447454,16.54954915377777,457.05208219751876,42.61003714244088,1383.5884908734324,1
-8.363921461685296,-22.728547579298827,19.254675686430556,84.99562894609028,-44.778639271176615,126.71362355151896,-118.58940397350995,-6.684210526315804,14.278106508875727,-5.478431372549018,-4.576576576576567,-7.470588235294116,-7.470588235294116,-1.4941176470588218,-17.971698113207545,8.178039651896464,28.756042385447454,16.78238157580489,455.2867379514698,42.326284070606555,1368.521690559242,1
-8.363921461685296,-22.728547579298827,19.254675686430556,84.99562894609028,-44.778639271176615,126.71362355151896,-118.58940397350995,-15.596491228070189,-15.781065088757408,-9.462745098039214,5.720720720720731,8.466666666666669,-3.48627450980392,1.4941176470588253,-31.150943396226413,11.394878044417922,90.32414222298056,16.78238157580489,455.2867379514698,42.326284070606555,1368.521690559242,1
-8.363921461685296,-22.728547579298827,19.254675686430556,84.99562894609028,-44.778639271176615,126.71362355151896,-118.58940397350995,-12.254385964912295,17.28402366863904,-40.34117647058824,10.297297297297309,-2.490196078431371,1.4941176470588253,-0.49803921568627274,-37.14150943396226,15.225093222071951,245.1568316278127,16.78238157580489,455.2867379514698,42.326284070606555,1368.521690559242,1
-8.017589310062716,-23.067779632721198,19.642127603130383,84.6872268091306,-44.606319054080274,126.72953335421235,-118.58940397350995,-12.254385964912295,17.28402366863904,-40.34117647058824,10.297297297297309,-2.490196078431371,1.4941176470588253,-0.49803921568627274,-37.14150943396226,15.225093222071951,245.1568316278127,16.909165515304768,469.28405742687846,42.465711348327396,1339.9260488120935,1
-8.017589310062716,-23.067779632721198,19.642127603130383,84.6872268091306,-44.606319054080274,126.72953335421235,-118.58940397350995,-11.140350877192997,2.254437869822473,-4.482352941176469,6.864864864864876,1.4941176470588253,-2.490196078431371,-12.450980392156861,-19.169811320754715,7.543388998932324,38.87543820225518,16.909165515304768,469.28405742687846,42.465711348327396,1339.9260488120935,1
-8.017589310062716,-23.067779632721198,19.642127603130383,84.6872268091306,-44.606319054080274,126.72953335421235,-118.58940397350995,-15.596491228070189,8.266272189349099,29.3843137254902,32.03603603603605,13.447058823529414,1.4941176470588253,5.4784313725490215,-16.773584905660375,15.309538240967896,117.24196325435449,16.909165515304768,469.28405742687846,42.465711348327396,1339.9260488120935,1
-7.238341968911911,-23.915859766277123,19.692664809656446,84.74890723652254,-44.606319054080274,126.72953335421235,-118.58940397350995,-15.596491228070189,8.266272189349099,29.3843137254902,32.03603603603605,13.447058823529414,1.4941176470588253,5.4784313725490215,-16.773584905660375,15.309538240967896,117.24196325435449,16.948955514948494,484.1870236130884,42.78581060415203,1325.1349531436554,1
-7.238341968911911,-23.915859766277123,19.692664809656446,84.74890723652254,-44.606319054080274,126.72953335421235,-118.58940397350995,-17.824561403508785,-41.33136094674557,-28.388235294117646,1.0658141036401503e-14,-15.439215686274508,2.4901960784313744,2.4901960784313744,-22.764150943396224,16.340989553863185,209.2346964935975,16.948955514948494,484.1870236130884,42.78581060415203,1325.1349531436554,1
-7.238341968911911,-23.915859766277123,19.692664809656446,84.74890723652254,-44.606319054080274,126.72953335421235,-118.58940397350995,-14.482456140350891,-8.266272189349124,12.450980392156865,1.144144144144155,-25.4,-7.470588235294116,1.4941176470588253,-17.971698113207545,11.085032107695191,68.22418355454526,16.948955514948494,484.1870236130884,42.78581060415203,1325.1349531436554,1
-7.77515680392691,-23.576627712854755,19.456824512534812,84.62554638173867,-44.50785035859664,126.74544315690576,-118.47204681965195,-14.482456140350891,-8.266272189349124,12.450980392156865,1.144144144144155,-25.4,-7.470588235294116,1.4941176470588253,-17.971698113207545,11.085032107695191,68.22418355454526,16.936203009772157,473.85754995678326,42.55299953570941,1331.8175931858366,1
-7.77515680392691,-23.576627712854755,19.456824512534812,84.62554638173867,-44.50785035859664,126.74544315690576,-118.47204681965195,-16.710526315789487,-11.272189349112438,24.403921568627453,12.585585585585598,4.482352941176472,5.4784313725490215,7.4705882352941195,-14.377358490566035,12.097619232337578,43.15085573547622,16.936203009772157,473.85754995678326,42.55299953570941,1331.8175931858366,1
-7.77515680392691,-23.576627712854755,19.456824512534812,84.62554638173867,-44.50785035859664,126.74544315690576,-118.47204681965195,-8.912280701754401,5.260355029585787,10.458823529411767,10.297297297297309,17.43137254901961,2.4901960784313744,-3.48627450980392,-21.566037735849054,9.987829678894153,44.538484152741205,16.936203009772157,473.85754995678326,42.55299953570941,1331.8175931858366,1
-7.60199072811562,-22.855759599332217,19.793739222708574,84.44050509956287,-44.40938166311304,126.74544315690576,-118.58940397350995,-8.912280701754401,5.260355029585787,10.458823529411767,10.297297297297309,17.43137254901961,2.4901960784313744,-3.48627450980392,-21.566037735849054,9.987829678894153,44.538484152741205,16.7504965167188,467.0305390143735,42.36333464053455,1330.2101975753085,1
-7.60199072811562,-22.855759599332217,19.793739222708574,84.44050509956287,-44.40938166311304,126.74544315690576,-118.58940397350995,-6.684210526315804,-0.75147928994084,-42.33333333333333,-1.1441441441441338,-9.462745098039214,-15.439215686274508,-1.4941176470588218,-22.764150943396224,12.50917458356286,205.02569426218864,16.7504965167188,467.0305390143735,42.36333464053455,1330.2101975753085,1
-7.60199072811562,-22.855759599332217,19.793739222708574,84.44050509956287,-44.40938166311304,126.74544315690576,-118.58940397350995,-16.710526315789487,-3.757396449704154,-10.458823529411763,5.720720720720731,-2.490196078431371,-2.490196078431371,-2.490196078431371,-23.962264150943394,8.510039925232956,64.1286356498605,16.7504965167188,467.0305390143735,42.36333464053455,1330.2101975753085,1
-7.394191437142072,-22.13489148580968,20.147499668391028,84.317144244779,-44.384764489242116,126.74544315690576,-118.78499922993994,-16.710526315789487,-3.757396449704154,-10.458823529411763,5.720720720720731,-2.490196078431371,-2.490196078431371,-2.490196078431371,-23.962264150943394,8.510039925232956,64.1286356498605,16.558860863780925,460.6055980990368,42.19984513299323,1331.3875949127082,1
-7.394191437142072,-22.13489148580968,20.147499668391028,84.317144244779,-44.384764489242116,126.74544315690576,-118.78499922993994,-15.596491228070189,-15.781065088757408,9.462745098039218,16.01801801801803,12.450980392156865,-2.490196078431371,0.4980392156862763,-19.169811320754715,11.433418304989258,45.94089503608325,16.558860863780925,460.6055980990368,42.19984513299323,1331.3875949127082,1
-7.394191437142072,-22.13489148580968,20.147499668391028,84.317144244779,-44.384764489242116,126.74544315690576,-118.78499922993994,-18.938596491228083,-11.272189349112438,12.450980392156865,12.585585585585598,9.462745098039218,3.4862745098039234,-0.49803921568627274,-20.367924528301884,11.132791896239286,46.34888159959189,16.558860863780925,460.6055980990368,42.19984513299323,1331.3875949127082,1
-7.913689664575942,-21.965275459098493,20.299111287969218,83.9470616804274,-44.237061446016696,126.72953335421235,-118.94147543508394,-18.938596491228083,-11.272189349112438,12.450980392156865,12.585585585585598,9.462745098039218,3.4862745098039234,-0.49803921568627274,-20.367924528301884,11.132791896239286,46.34888159959189,16.726025470547885,463.2812646724123,42.070482809165036,1315.9299192320814,1
-7.913689664575942,-21.965275459098493,20.299111287969218,83.9470616804274,-44.237061446016696,126.72953335421235,-118.94147543508394,-24.508771929824576,-18.786982248520722,51.29803921568627,17.162162162162176,-2.490196078431371,1.4941176470588253,-4.482352941176469,-25.160377358490564,18.172874947668873,271.3145301175923,16.726025470547885,463.2812646724123,42.070482809165036,1315.9299192320814,1
-7.913689664575942,-21.965275459098493,20.299111287969218,83.9470616804274,-44.237061446016696,126.72953335421235,-118.94147543508394,-14.482456140350891,-26.301775147929003,-9.462745098039214,-2.2882882882882782,2.4901960784313744,8.466666666666669,5.4784313725490215,-14.377358490566035,10.418489660352561,63.221781981522824,16.726025470547885,463.2812646724123,42.070482809165036,1315.9299192320814,1
-7.705890373602394,-21.456427378964936,20.19803687491709,83.63865954346761,-44.163209924403986,126.68180394613219,-119.13707069151396,-14.482456140350891,-26.301775147929003,-9.462745098039214,-2.2882882882882782,2.4901960784313744,8.466666666666669,5.4784313725490215,-14.377358490566035,10.418489660352561,63.221781981522824,16.453451542494808,450.46680268407465,41.76437459911654,1315.4876913656992,1
-7.705890373602394,-21.456427378964936,20.19803687491709,83.63865954346761,-44.163209924403986,126.68180394613219,-119.13707069151396,-15.596491228070189,-3.757396449704154,19.423529411764708,19.45045045045046,6.4745098039215705,1.4941176470588253,-6.474509803921567,-23.962264150943394,12.079158618229357,72.28207800469612,16.453451542494808,450.46680268407465,41.76437459911654,1315.4876913656992,1
-7.705890373602394,-21.456427378964936,20.19803687491709,83.63865954346761,-44.163209924403986,126.68180394613219,-119.13707069151396,-11.140350877192997,15.781065088757384,-2.490196078431371,10.297297297297309,9.462745098039218,2.4901960784313744,-4.482352941176469,-22.764150943396224,9.863544300340294,48.73020988354717,16.453451542494808,450.46680268407465,41.76437459911654,1315.4876913656992,1
-8.208071993455134,-21.20200333889816,20.349648494495284,83.0835356969402,-43.94165535956583,126.64998434074539,-119.37178499922994,-11.140350877192997,15.781065088757384,-2.490196078431371,10.297297297297309,9.462745098039218,2.4901960784313744,-4.482352941176469,-22.764150943396224,9.863544300340294,48.73020988354717,16.586574608949526,451.8209035602564,41.545062510111215,1294.2651932148774,1
-8.208071993455134,-21.20200333889816,20.349648494495284,83.0835356969402,-43.94165535956583,126.64998434074539,-119.37178499922994,-16.710526315789487,-6.763313609467467,10.458823529411767,9.153153153153164,-23.4078431372549,-14.44313725490196,17.43137254901961,-21.566037735849054,14.991775910605925,35.08608714765866,16.586574608949526,451.8209035602564,41.545062510111215,1294.2651932148774,1
-8.208071993455134,-21.20200333889816,20.349648494495284,83.0835356969402,-43.94165535956583,126.64998434074539,-119.37178499922994,-22.28070175438598,-38.32544378698226,31.376470588235296,14.873873873873885,-2.490196078431371,-4.482352941176469,4.482352941176472,-17.971698113207545,17.035386259683662,174.1021782791767,16.586574608949526,451.8209035602564,41.545062510111215,1294.2651932148774,1
-7.688573766021265,-21.583639398998326,20.433877172038724,82.7134531325886,-43.8185694902113,126.64998434074539,-119.68473740951795,-22.28070175438598,-38.32544378698226,31.376470588235296,14.873873873873885,-2.490196078431371,-4.482352941176469,4.482352941176472,-17.971698113207545,17.035386259683662,174.1021782791767,16.568696779019437,458.23613241761734,41.57698990120855,1269.4869436846477,1
-7.688573766021265,-21.583639398998326,20.433877172038724,82.7134531325886,-43.8185694902113,126.64998434074539,-119.68473740951795,-16.710526315789487,-9.76923076923078,-12.450980392156861,1.0658141036401503e-14,7.4705882352941195,7.4705882352941195,-1.4941176470588218,-19.169811320754715,9.316980364447364,45.227274026612726,16.568696779019437,458.23613241761734,41.57698990120855,1269.4869436846477,1
-7.688573766021265,-21.583639398998326,20.433877172038724,82.7134531325886,-43.8185694902113,126.64998434074539,-119.68473740951795,-13.368421052631593,-27.80473372781066,-1.4941176470588218,6.864864864864876,8.466666666666669,2.4901960784313744,-6.474509803921567,-23.962264150943394,11.36572174904112,94.5335015217338,16.568696779019437,458.23613241761734,41.57698990120855,1269.4869436846477,1
-8.381238069266423,-21.965275459098493,20.534951585090855,82.34337056823699,-43.597014925373145,126.64998434074539,-119.84121361466195,-13.368421052631593,-27.80473372781066,-1.4941176470588218,6.864864864864876,8.466666666666669,2.4901960784313744,-6.474509803921567,-23.962264150943394,11.36572174904112,94.5335015217338,16.960488371151925,471.15689912379304,41.61453253747545,1244.6401420981451,1
-8.381238069266423,-21.965275459098493,20.534951585090855,82.34337056823699,-43.597014925373145,126.64998434074539,-119.84121361466195,-10.0263157894737,-2.254437869822497,-1.4941176470588218,8.00900900900902,0.4980392156862763,-3.48627450980392,-5.478431372549018,-23.962264150943394,6.90111119554333,58.22698456630542,16.960488371151925,471.15689912379304,41.61453253747545,1244.6401420981451,1
-8.381238069266423,-21.965275459098493,20.534951585090855,82.34337056823699,-43.597014925373145,126.64998434074539,-119.84121361466195,-23.394736842105274,-27.80473372781066,7.4705882352941195,3.432432432432443,4.482352941176472,6.4745098039215705,-2.490196078431371,-23.962264150943394,12.438976776514412,113.22642991942732,16.960488371151925,471.15689912379304,41.61453253747545,1244.6401420981451,1
-8.485137714753199,-21.8804674457429,20.332802758986595,81.78824672170947,-43.35084318666409,126.64998434074539,-119.95857076851996,-23.394736842105274,-27.80473372781066,7.4705882352941195,3.432432432432443,4.482352941176472,6.4745098039215705,-2.490196078431371,-23.962264150943394,12.438976776514412,113.22642991942732,16.899469306494233,465.31145552124167,41.33383897547966,1228.0181460693223,1
-8.485137714753199,-21.8804674457429,20.332802758986595,81.78824672170947,-43.35084318666409,126.64998434074539,-119.95857076851996,-11.140350877192997,3.75739644970413,33.3686274509804,11.441441441441452,-3.48627450980392,-1.4941176470588218,0.4980392156862763,-11.981132075471695,9.645922458417461,113.77554739261154,16.899469306494233,465.31145552124167,41.33383897547966,1228.0181460693223,1
-8.485137714753199,-21.8804674457429,20.332802758986595,81.78824672170947,-43.35084318666409,126.64998434074539,-119.95857076851996,-15.596491228070189,-8.266272189349124,27.3921568627451,2.2882882882882987,-11.454901960784312,-0.49803921568627274,4.482352941176472,-19.169811320754715,11.143539250856811,84.67950787004109,16.899469306494233,465.31145552124167,41.33383897547966,1228.0181460693223,1
-7.879056449413683,-21.32921535893155,20.534951585090855,81.35648372996593,-43.17852296956778,126.64998434074539,-120.31064223009396,-15.596491228070189,-8.266272189349124,27.3921568627451,2.2882882882882987,-11.454901960784312,-0.49803921568627274,4.482352941176472,-19.169811320754715,11.143539250856811,84.67950787004109,16.581074464478693,456.8118501988582,41.073550224662775,1217.1937625801154,1
-7.879056449413683,-21.32921535893155,20.534951585090855,81.35648372996593,-43.17852296956778,126.64998434074539,-120.31064223009396,-22.28070175438598,-15.781065088757408,-0.49803921568627274,4.576576576576588,1.4941176470588253,9.462745098039218,-2.490196078431371,-15.575471698113205,9.019864144631109,65.19621659797008,16.581074464478693,456.8118501988582,41.073550224662775,1217.1937625801154,1
-7.879056449413683,-21.32921535893155,20.534951585090855,81.35648372996593,-43.17852296956778,126.64998434074539,-120.31064223009396,-32.30701754385966,-42.834319526627226,-39.345098039215685,8.00900900900902,-13.44705882352941,8.466666666666669,0.4980392156862763,-25.160377358490564,21.258448272885563,251.59010863894812,16.581074464478693,456.8118501988582,41.073550224662775,1217.1937625801154,1
-7.272975184074169,-21.62604340567612,20.619180262634295,81.1097620203982,-43.129288621825964,126.61816473535862,-120.62359464038197,-32.30701754385966,-42.834319526627226,-39.345098039215685,8.00900900900902,-13.44705882352941,8.466666666666669,0.4980392156862763,-25.160377358490564,21.258448272885563,251.59010863894812,16.506066284128195,461.4403042704805,41.11832856290287,1199.7395058361612,1
-7.272975184074169,-21.62604340567612,20.619180262634295,81.1097620203982,-43.129288621825964,126.61816473535862,-120.62359464038197,-10.0263157894737,6.763313609467444,13.447058823529414,13.72972972972974,3.4862745098039234,-0.49803921568627274,-5.478431372549018,-27.556603773584904,10.123220852978053,71.07760858513397,16.506066284128195,461.4403042704805,41.11832856290287,1199.7395058361612,1
-7.272975184074169,-21.62604340567612,20.619180262634295,81.1097620203982,-43.129288621825964,126.61816473535862,-120.62359464038197,-14.482456140350891,-12.775147928994095,0.4980392156862763,3.432432432432443,-7.470588235294116,-3.48627450980392,1.4941176470588253,-26.358490566037734,8.749693334457287,76.78353133632153,16.506066284128195,461.4403042704805,41.11832856290287,1199.7395058361612,1
-7.982956094900457,-22.050083472454087,20.66971746916036,80.73967945604659,-42.9323512308587,126.634074538052,-120.85830894809796,-14.482456140350891,-12.775147928994095,0.4980392156862763,3.432432432432443,-7.470588235294116,-3.48627450980392,1.4941176470588253,-26.358490566037734,8.749693334457287,76.78353133632153,16.900919012171634,473.97352791935185,41.15316013255368,1175.7957366877204,1
-7.982956094900457,-22.050083472454087,20.66971746916036,80.73967945604659,-42.9323512308587,126.634074538052,-120.85830894809796,-10.0263157894737,0.751479289940816,10.458823529411767,8.00900900900902,-2.490196078431371,-2.490196078431371,-2.490196078431371,-25.160377358490564,7.734574151452498,63.954523467633855,16.900919012171634,473.97352791935185,41.15316013255368,1175.7957366877204,1
-7.982956094900457,-22.050083472454087,20.66971746916036,80.73967945604659,-42.9323512308587,126.634074538052,-120.85830894809796,-11.140350877192997,6.763313609467444,39.345098039215685,20.594594594594607,13.447058823529414,6.4745098039215705,2.4901960784313744,-16.773584905660375,14.628588341501683,134.33657360831418,16.900919012171634,473.97352791935185,41.15316013255368,1175.7957366877204,1
-8.537087537496586,-22.389315525876455,20.56864305610823,80.12287518212725,-42.61232797053694,126.634074538052,-120.93654705066996,-11.140350877192997,6.763313609467444,39.345098039215685,20.594594594594607,13.447058823529414,6.4745098039215705,2.4901960784313744,-16.773584905660375,14.628588341501683,134.33657360831418,17.165015373160426,480.7356631935115,41.02694458803731,1147.197553823966,1
-8.537087537496586,-22.389315525876455,20.56864305610823,80.12287518212725,-42.61232797053694,126.634074538052,-120.93654705066996,-18.938596491228083,-15.781065088757408,-20.419607843137253,1.0658141036401503e-14,-5.478431372549018,-17.431372549019606,-5.478431372549018,-26.358490566037734,13.735749410409767,81.99364805802315,17.165015373160426,480.7356631935115,41.02694458803731,1147.197553823966,1
-8.537087537496586,-22.389315525876455,20.56864305610823,80.12287518212725,-42.61232797053694,126.634074538052,-120.93654705066996,-3.34210526315791,17.28402366863904,3.4862745098039234,5.720720720720731,-2.490196078431371,4.482352941176472,-2.490196078431371,-19.169811320754715,7.308210072639442,46.78338979204924,17.165015373160426,480.7356631935115,41.02694458803731,1147.197553823966,1
-8.26002181619852,-22.26210350584307,20.636025998142983,79.69111219038359,-42.36615623182789,126.6658941434388,-121.09302325581396,-3.34210526315791,17.28402366863904,3.4862745098039234,5.720720720720731,-2.490196078431371,4.482352941176472,-2.490196078431371,-19.169811320754715,7.308210072639442,46.78338979204924,17.052717106728192,478.54823097882473,40.86308056478988,1131.373061953841,1
-8.26002181619852,-22.26210350584307,20.636025998142983,79.69111219038359,-42.36615623182789,126.6658941434388,-121.09302325581396,-10.0263157894737,-0.75147928994084,-6.474509803921567,-5.72072072072071,-3.48627450980392,3.4862745098039234,5.4784313725490215,-19.169811320754715,6.82422716462105,32.14001961952667,17.052717106728192,478.54823097882473,40.86308056478988,1131.373061953841,1
-8.26002181619852,-22.26210350584307,20.636025998142983,79.69111219038359,-42.36615623182789,126.6658941434388,-121.09302325581396,-16.710526315789487,-24.798816568047346,5.4784313725490215,1.144144144144155,0.4980392156862763,-6.474509803921567,-2.490196078431371,-22.764150943396224,10.044851805245681,97.84683595458314,17.052717106728192,478.54823097882473,40.86308056478988,1131.373061953841,1
-8.346604854104166,-21.62604340567612,20.585488791616918,79.19766877124812,-42.119984493118835,126.64998434074539,-121.28861851224397,-16.710526315789487,-24.798816568047346,5.4784313725490215,1.144144144144155,0.4980392156862763,-6.474509803921567,-2.490196078431371,-22.764150943396224,10.044851805245681,97.84683595458314,16.852712350465733,465.8704969021428,40.46973365618038,1125.1604071838822,1
-8.346604854104166,-21.62604340567612,20.585488791616918,79.19766877124812,-42.119984493118835,126.64998434074539,-121.28861851224397,-16.710526315789487,-24.798816568047346,-22.41176470588235,2.2882882882882987,8.466666666666669,10.458823529411767,-1.4941176470588218,-17.971698113207545,13.075087729294037,77.19555072828027,16.852712350465733,465.8704969021428,40.46973365618038,1125.1604071838822,1
-8.346604854104166,-21.62604340567612,20.585488791616918,79.19766877124812,-42.119984493118835,126.64998434074539,-121.28861851224397,-7.7982456140351015,9.769230769230756,-5.478431372549018,10.297297297297309,-0.49803921568627274,3.4862745098039234,-0.49803921568627274,-20.367924528301884,7.274185315323818,42.355773723944296,16.852712350465733,465.8704969021428,40.46973365618038,1125.1604071838822,1
-8.208071993455134,-22.21969949916527,20.518105849582167,78.82758620689651,-41.9230471021516,126.6658941434388,-121.44509471738797,-7.7982456140351015,9.769230769230756,-5.478431372549018,10.297297297297309,-0.49803921568627274,3.4862745098039234,-0.49803921568627274,-20.367924528301884,7.274185315323818,42.355773723944296,16.98195911406752,474.6731674760008,40.52179718521465,1101.2239596672775,1
-8.208071993455134,-22.21969949916527,20.518105849582167,78.82758620689651,-41.9230471021516,126.6658941434388,-121.44509471738797,-20.05263157894738,-8.266272189349124,-14.44313725490196,3.432432432432443,-2.490196078431371,-12.450980392156861,1.4941176470588253,-13.179245283018865,9.476126607037104,44.22888207770292,16.98195911406752,474.6731674760008,40.52179718521465,1101.2239596672775,1
-8.208071993455134,-22.21969949916527,20.518105849582167,78.82758620689651,-41.9230471021516,126.6658941434388,-121.44509471738797,-20.05263157894738,-27.80473372781066,-43.32941176470588,8.00900900900902,-11.454901960784312,12.450980392156865,11.454901960784316,-8.386792452830186,17.867920355878578,150.06964794002766,16.98195911406752,474.6731674760008,40.52179718521465,1101.2239596672775,1
-6.822743386964815,-22.55893155258764,20.282265552460533,79.01262748907232,-42.02151579763523,126.71362355151896,-121.75804712767597,-20.05263157894738,-27.80473372781066,-43.32941176470588,8.00900900900902,-11.454901960784312,12.450980392156865,11.454901960784316,-8.386792452830186,17.867920355878578,150.06964794002766,16.554646830670993,469.612882830634,40.617941531373496,1106.90973436177,1
-6.822743386964815,-22.55893155258764,20.282265552460533,79.01262748907232,-42.02151579763523,126.71362355151896,-121.75804712767597,-15.596491228070189,-17.284023668639065,-14.44313725490196,14.873873873873885,4.482352941176472,0.4980392156862763,2.4901960784313744,-21.566037735849054,11.404268999578536,60.428590049991726,16.554646830670993,469.612882830634,40.617941531373496,1106.90973436177,1
-6.822743386964815,-22.55893155258764,20.282265552460533,79.01262748907232,-42.02151579763523,126.71362355151896,-121.75804712767597,-16.710526315789487,0.751479289940816,-4.482352941176469,9.153153153153164,5.4784313725490215,0.4980392156862763,-9.462745098039214,-25.160377358490564,8.962138093103126,70.5668778265219,16.554646830670993,469.612882830634,40.617941531373496,1106.90973436177,1
-7.688573766021265,-23.40701168614357,20.063270990847585,79.19766877124812,-41.99689862376431,126.77726276229254,-121.71892807638997,-16.710526315789487,0.751479289940816,-4.482352941176469,9.153153153153164,5.4784313725490215,0.4980392156862763,-9.462745098039214,-25.160377358490564,8.962138093103126,70.5668778265219,17.052952147670805,484.48327567926754,40.88931714941309,1103.4425034459575,1
-7.688573766021265,-23.40701168614357,20.063270990847585,79.19766877124812,-41.99689862376431,126.77726276229254,-121.71892807638997,-20.05263157894738,-26.301775147929003,-1.4941176470588218,16.01801801801803,13.447058823529414,3.4862745098039234,0.4980392156862763,-21.566037735849054,12.857994084602737,98.34230436431143,17.052952147670805,484.48327567926754,40.88931714941309,1103.4425034459575,1
-7.688573766021265,-23.40701168614357,20.063270990847585,79.19766877124812,-41.99689862376431,126.77726276229254,-121.71892807638997,-4.456140350877208,20.289940828402354,27.3921568627451,2.2882882882882987,0.4980392156862763,-6.474509803921567,2.4901960784313744,-17.971698113207545,10.232621192694966,102.97192065536501,17.052952147670805,484.48327567926754,40.88931714941309,1103.4425034459575,1
-8.052222525224973,-22.855759599332217,20.13065393288234,78.88926663428845,-41.873812754409784,126.74544315690576,-121.64068997381797,-4.456140350877208,20.289940828402354,27.3921568627451,2.2882882882882987,0.4980392156862763,-6.474509803921567,2.4901960784313744,-17.971698113207545,10.232621192694966,102.97192065536501,17.012878685813178,476.8751639533276,40.62522672216767,1099.9591130206084,1
-8.052222525224973,-22.855759599332217,20.13065393288234,78.88926663428845,-41.873812754409784,126.74544315690576,-121.64068997381797,-15.596491228070189,15.781065088757384,37.352941176470594,-5.72072072072071,5.4784313725490215,-8.466666666666665,-5.478431372549018,-21.566037735849054,14.430098170204078,121.60634244605352,17.012878685813178,476.8751639533276,40.62522672216767,1099.9591130206084,1
-8.052222525224973,-22.855759599332217,20.13065393288234,78.88926663428845,-41.873812754409784,126.74544315690576,-121.64068997381797,-21.16666666666668,-24.798816568047346,10.458823529411767,1.144144144144155,0.4980392156862763,2.4901960784313744,-0.49803921568627274,-33.54716981132076,11.82523690367433,169.5892969643676,17.012878685813178,476.8751639533276,40.62522672216767,1099.9591130206084,1
-8.190755385874006,-23.576627712854755,20.164345403899716,78.70422535211264,-41.67687536344255,126.79317256498592,-121.56245187124597,-21.16666666666668,-24.798816568047346,10.458823529411767,1.144144144144155,0.4980392156862763,2.4901960784313744,-0.49803921568627274,-33.54716981132076,11.82523690367433,169.5892969643676,17.310576167542823,492.334922876836,40.81506615628904,1079.6022060638502,1
-8.190755385874006,-23.576627712854755,20.164345403899716,78.70422535211264,-41.67687536344255,126.79317256498592,-121.56245187124597,-14.482456140350891,-11.272189349112438,-6.474509803921567,18.30630630630632,6.4745098039215705,10.458823529411767,-2.490196078431371,-25.160377358490564,11.88992104624331,53.34772408925063,17.310576167542823,492.334922876836,40.81506615628904,1079.6022060638502,1
-8.190755385874006,-23.576627712854755,20.164345403899716,78.70422535211264,-41.67687536344255,126.79317256498592,-121.56245187124597,-15.596491228070189,-11.272189349112438,-14.44313725490196,4.576576576576588,1.4941176470588253,-6.474509803921567,0.4980392156862763,-20.367924528301884,9.340373200453715,51.5962204971401,17.310576167542823,492.334922876836,40.81506615628904,1079.6022060638502,1
-7.515407690209974,-23.449415692821365,19.74320201618251,78.70422535211264,-41.67687536344255,126.79317256498592,-121.56245187124597,-15.596491228070189,-11.272189349112438,-14.44313725490196,4.576576576576588,1.4941176470588253,-6.474509803921567,0.4980392156862763,-20.367924528301884,9.340373200453715,51.5962204971401,16.902675133071284,477.0877731181456,40.63228102037217,1090.5387138535853,1
-7.515407690209974,-23.449415692821365,19.74320201618251,78.70422535211264,-41.67687536344255,126.79317256498592,-121.56245187124597,-12.254385964912295,-0.75147928994084,22.411764705882355,10.297297297297309,1.4941176470588253,2.4901960784313744,-2.490196078431371,-25.160377358490564,9.668726802555618,94.12301869775975,16.902675133071284,477.0877731181456,40.63228102037217,1090.5387138535853,1
-7.515407690209974,-23.449415692821365,19.74320201618251,78.70422535211264,-41.67687536344255,126.79317256498592,-121.56245187124597,-16.710526315789487,-9.76923076923078,-7.470588235294116,-1.1441441441441338,19.423529411764708,-6.474509803921567,-2.490196078431371,-23.962264150943394,10.930623613689946,67.93628643760141,16.902675133071284,477.0877731181456,40.63228102037217,1090.5387138535853,1
-7.134442323425137,-23.534223706176956,19.591590396604317,78.70422535211264,-41.70149253731344,126.79317256498592,-121.56245187124597,-16.710526315789487,-9.76923076923078,-7.470588235294116,-1.1441441441441338,19.423529411764708,-6.474509803921567,-2.490196078431371,-23.962264150943394,10.930623613689946,67.93628643760141,16.75341880873547,473.844916063631,40.61001315163131,1092.2628417349138,1
-7.134442323425137,-23.534223706176956,19.591590396604317,78.70422535211264,-41.70149253731344,126.79317256498592,-121.56245187124597,-12.254385964912295,3.75739644970413,-5.478431372549018,13.72972972972974,11.454901960784316,4.482352941176472,25.400000000000002,-20.367924528301884,12.115640368394732,59.97362519046995,16.75341880873547,473.844916063631,40.61001315163131,1092.2628417349138,1
-7.134442323425137,-23.534223706176956,19.591590396604317,78.70422535211264,-41.70149253731344,126.79317256498592,-121.56245187124597,-11.140350877192997,-3.757396449704154,-20.419607843137253,1.0658141036401503e-14,-9.462745098039214,1.4941176470588253,-5.478431372549018,-20.367924528301884,9.01507172699792,63.093596642778174,16.75341880873547,473.844916063631,40.61001315163131,1092.2628417349138,1
-7.7924734115080385,-23.534223706176956,19.507361719060878,78.76590577950458,-41.70149253731344,126.76135295959915,-121.28861851224397,-11.140350877192997,-3.757396449704154,-20.419607843137253,1.0658141036401503e-14,-9.462745098039214,1.4941176470588253,-5.478431372549018,-20.367924528301884,9.01507172699792,63.093596642778174,16.944686278915288,474.27696273566664,40.60249706824747,1096.3882277126613,1
-7.7924734115080385,-23.534223706176956,19.507361719060878,78.76590577950458,-41.70149253731344,126.76135295959915,-121.28861851224397,-14.482456140350891,-21.792899408284036,-13.44705882352941,1.144144144144155,-11.454901960784312,0.4980392156862763,-7.470588235294116,-17.971698113207545,11.032723255160093,57.613005935476444,16.944686278915288,474.27696273566664,40.60249706824747,1096.3882277126613,1
-7.7924734115080385,-23.534223706176956,19.507361719060878,78.76590577950458,-41.70149253731344,126.76135295959915,-121.28861851224397,-17.824561403508785,-15.781065088757408,-21.415686274509802,4.576576576576588,-11.454901960784312,-0.49803921568627274,5.4784313725490215,-22.764150943396224,12.474176604471053,68.73937444646924,16.944686278915288,474.27696273566664,40.60249706824747,1096.3882277126613,1
-8.26002181619852,-23.576627712854755,19.57474466109563,78.51918406993684,-41.52917232021713,126.74544315690576,-121.05390420452797,-17.824561403508785,-15.781065088757408,-21.415686274509802,4.576576576576588,-11.454901960784312,-0.49803921568627274,5.4784313725490215,-22.764150943396224,12.474176604471053,68.73937444646924,17.137131396716303,478.56892979905183,40.55685214796241,1084.8577507056084,1
-8.26002181619852,-23.576627712854755,19.57474466109563,78.51918406993684,-41.52917232021713,126.74544315690576,-121.05390420452797,-14.482456140350891,-15.781065088757408,-6.474509803921567,8.00900900900902,-15.439215686274508,5.4784313725490215,-6.474509803921567,-23.962264150943394,12.012682631965923,42.128953331608734,17.137131396716303,478.56892979905183,40.55685214796241,1084.8577507056084,1
-8.26002181619852,-23.576627712854755,19.57474466109563,78.51918406993684,-41.52917232021713,126.74544315690576,-121.05390420452797,-16.710526315789487,-15.781065088757408,-4.482352941176469,13.72972972972974,8.466666666666669,5.4784313725490215,-5.478431372549018,-44.33018867924528,14.307174020807887,170.88504816041967,17.137131396716303,478.56892979905183,40.55685214796241,1084.8577507056084,1
-7.688573766021265,-23.746243739565937,19.38944157050006,78.4575036425449,-41.45532079860439,126.74544315690576,-120.89742799938396,-16.710526315789487,-15.781065088757408,-4.482352941176469,13.72972972972974,8.466666666666669,5.4784313725490215,-5.478431372549018,-44.33018867924528,14.307174020807887,170.88504816041967,16.941419692029086,475.292504452201,40.531062984203636,1083.5566070431057,1
-7.688573766021265,-23.746243739565937,19.38944157050006,78.4575036425449,-41.45532079860439,126.74544315690576,-120.89742799938396,-12.254385964912295,8.266272189349099,-16.435294117647057,6.864864864864876,1.4941176470588253,5.4784313725490215,-3.48627450980392,-21.566037735849054,9.48070980025427,46.595616932503326,16.941419692029086,475.292504452201,40.531062984203636,1083.5566070431057,1
-7.688573766021265,-23.746243739565937,19.38944157050006,78.4575036425449,-41.45532079860439,126.74544315690576,-120.89742799938396,-6.684210526315804,29.307692307692292,48.30980392156863,13.72972972972974,5.4784313725490215,5.4784313725490215,1.4941176470588253,-8.386792452830186,14.858651166286691,256.04615887153255,16.941419692029086,475.292504452201,40.531062984203636,1083.5566070431057,1
-6.632260703572396,-23.237395659432384,19.355750099482684,78.58086449732878,-41.60302384182984,126.72953335421235,-120.93654705066996,-6.684210526315804,29.307692307692292,48.30980392156863,13.72972972972974,5.4784313725490215,5.4784313725490215,1.4941176470588253,-8.386792452830186,14.858651166286691,256.04615887153255,16.408468820829153,460.8805463403692,40.39133675208128,1097.5968151170405,1
-6.632260703572396,-23.237395659432384,19.355750099482684,78.58086449732878,-41.60302384182984,126.72953335421235,-120.93654705066996,-18.938596491228083,-21.792899408284036,5.4784313725490215,6.864864864864876,0.4980392156862763,-7.470588235294116,0.4980392156862763,-23.962264150943394,10.68796536931701,89.625075664228,16.408468820829153,460.8805463403692,40.39133675208128,1097.5968151170405,1
-6.632260703572396,-23.237395659432384,19.355750099482684,78.58086449732878,-41.60302384182984,126.72953335421235,-120.93654705066996,-22.28070175438598,-14.278106508875752,6.4745098039215705,16.01801801801803,1.4941176470588253,-7.470588235294116,-1.4941176470588218,-19.169811320754715,11.084996366920976,63.36130695389587,16.408468820829153,460.8805463403692,40.39133675208128,1097.5968151170405,1
-6.2512953367875586,-23.576627712854755,19.65897333863907,79.07430791646425,-41.82457840666797,126.77726276229254,-121.09302325581396,-22.28070175438598,-14.278106508875752,6.4745098039215705,16.01801801801803,1.4941176470588253,-7.470588235294116,-1.4941176470588218,-19.169811320754715,11.084996366920976,63.36130695389587,16.495632129427126,473.47106050965505,40.769969655986024,1104.2537511288049,1
-6.2512953367875586,-23.576627712854755,19.65897333863907,79.07430791646425,-41.82457840666797,126.77726276229254,-121.09302325581396,-13.368421052631593,-0.75147928994084,-4.482352941176469,3.432432432432443,-8.466666666666665,0.4980392156862763,-3.48627450980392,-17.971698113207545,6.557170527693218,39.178447250990644,16.495632129427126,473.47106050965505,40.769969655986024,1104.2537511288049,1
-6.2512953367875586,-23.576627712854755,19.65897333863907,79.07430791646425,-41.82457840666797,126.77726276229254,-121.09302325581396,-21.16666666666668,-15.781065088757408,-0.49803921568627274,6.864864864864876,-8.466666666666665,-5.478431372549018,-0.49803921568627274,-16.773584905660375,9.440919749567195,59.242189777197595,16.495632129427126,473.47106050965505,40.769969655986024,1104.2537511288049,1
-6.857376602127073,-23.237395659432384,19.675819074147757,79.32102962603199,-41.972281449893416,126.76135295959915,-121.09302325581396,-21.16666666666668,-15.781065088757408,-0.49803921568627274,6.864864864864876,-8.466666666666665,-5.478431372549018,-0.49803921568627274,-16.773584905660375,9.440919749567195,59.242189777197595,16.590197111902402,468.97658264725567,40.74474811987071,1119.2683280751623,1
-6.857376602127073,-23.237395659432384,19.675819074147757,79.32102962603199,-41.972281449893416,126.76135295959915,-121.09302325581396,-20.05263157894738,-21.792899408284036,18.42745098039216,-2.2882882882882782,-27.392156862745097,-14.44313725490196,-4.482352941176469,-25.160377358490564,16.75491183415324,84.01424204167982,16.590197111902402,468.97658264725567,40.74474811987071,1119.2683280751623,1
-6.857376602127073,-23.237395659432384,19.675819074147757,79.32102962603199,-41.972281449893416,126.76135295959915,-121.09302325581396,-7.7982456140351015,-6.763313609467467,1.4941176470588253,6.864864864864876,-2.490196078431371,-0.49803921568627274,3.4862745098039234,-19.169811320754715,6.070607857512819,35.311494330829134,16.590197111902402,468.97658264725567,40.74474811987071,1119.2683280751623,1
-7.77515680392691,-23.322203672787975,19.642127603130383,79.19766877124812,-41.898429928280706,126.76135295959915,-120.97566610195597,-7.7982456140351015,-6.763313609467467,1.4941176470588253,6.864864864864876,-2.490196078431371,-0.49803921568627274,3.4862745098039234,-19.169811320754715,6.070607857512819,35.311494330829134,16.913162693281755,473.225318764481,40.72066668238883,1113.7455072791784,1
-7.77515680392691,-23.322203672787975,19.642127603130383,79.19766877124812,-41.898429928280706,126.76135295959915,-120.97566610195597,-20.05263157894738,-30.810650887573974,-20.419607843137253,26.315315315315328,23.407843137254904,4.482352941176472,0.4980392156862763,-23.962264150943394,18.743588133754372,113.24863306770769,16.913162693281755,473.225318764481,40.72066668238883,1113.7455072791784,1
-7.77515680392691,-23.322203672787975,19.642127603130383,79.19766877124812,-41.898429928280706,126.76135295959915,-120.97566610195597,-18.938596491228083,-21.792899408284036,-2.490196078431371,2.2882882882882987,10.458823529411767,-5.478431372549018,-1.4941176470588218,-16.773584905660375,9.96436721511397,67.67358107844959,16.913162693281755,473.225318764481,40.72066668238883,1113.7455072791784,1
-7.342241614398684,-23.449415692821365,19.709510545165134,79.19766877124812,-41.898429928280706,126.76135295959915,-121.01478515324196,-18.938596491228083,-21.792899408284036,-2.490196078431371,2.2882882882882987,10.458823529411767,-5.478431372549018,-1.4941176470588218,-16.773584905660375,9.96436721511397,67.67358107844959,16.833722617461728,475.6552109518394,40.78553166974487,1110.115930156878,1
-7.342241614398684,-23.449415692821365,19.709510545165134,79.19766877124812,-41.898429928280706,126.76135295959915,-121.01478515324196,-15.596491228070189,-5.26035502958581,15.439215686274512,10.297297297297309,4.482352941176472,3.4862745098039234,-1.4941176470588218,-13.179245283018865,8.654418702785737,32.04348189371135,16.833722617461728,475.6552109518394,40.78553166974487,1110.115930156878,1
-7.342241614398684,-23.449415692821365,19.709510545165134,79.19766877124812,-41.898429928280706,126.76135295959915,-121.01478515324196,-14.482456140350891,-9.76923076923078,-9.462745098039214,4.576576576576588,-8.466666666666665,2.4901960784313744,0.4980392156862763,-22.764150943396224,9.063757686047252,50.68492981256147,16.833722617461728,475.6552109518394,40.78553166974487,1110.115930156878,1
-6.943959640032718,-22.855759599332217,19.810584958217262,79.32102962603199,-41.972281449893416,126.77726276229254,-121.13214230709997,-14.482456140350891,-9.76923076923078,-9.462745098039214,4.576576576576588,-8.466666666666665,2.4901960784313744,0.4980392156862763,-22.764150943396224,9.063757686047252,50.68492981256147,16.53676806586073,464.90133208467387,40.662458061193824,1123.1821387240077,1
-6.943959640032718,-22.855759599332217,19.810584958217262,79.32102962603199,-41.972281449893416,126.77726276229254,-121.13214230709997,-21.16666666666668,-23.295857988165693,5.4784313725490215,-8.009009009008999,-4.482352941176469,-6.474509803921567,-0.49803921568627274,-21.566037735849054,11.37136309162797,82.5388308677635,16.53676806586073,464.90133208467387,40.662458061193824,1123.1821387240077,1
-6.943959640032718,-22.855759599332217,19.810584958217262,79.32102962603199,-41.972281449893416,126.77726276229254,-121.13214230709997,-16.710526315789487,-18.786982248520722,-15.439215686274508,1.0658141036401503e-14,-14.44313725490196,-2.490196078431371,2.4901960784313744,-22.764150943396224,11.640550575718208,75.10790943901952,16.53676806586073,464.90133208467387,40.662458061193824,1123.1821387240077,1
-7.567357512953362,-23.576627712854755,19.642127603130383,79.32102962603199,-41.898429928280706,126.82499217037272,-121.13214230709997,-16.710526315789487,-18.786982248520722,-15.439215686274508,1.0658141036401503e-14,-14.44313725490196,-2.490196078431371,2.4901960784313744,-22.764150943396224,11.640550575718208,75.10790943901952,16.928704276312832,477.4189372798046,40.84659498067237,1114.0816637383914,1
-7.567357512953362,-23.576627712854755,19.642127603130383,79.32102962603199,-41.898429928280706,126.82499217037272,-121.13214230709997,-7.7982456140351015,8.266272189349099,3.4862745098039234,1.144144144144155,-17.431372549019606,-2.490196078431371,-1.4941176470588218,-17.971698113207545,7.510290105631203,46.66279323526371,16.928704276312832,477.4189372798046,40.84659498067237,1114.0816637383914,1
-7.567357512953362,-23.576627712854755,19.642127603130383,79.32102962603199,-41.898429928280706,126.82499217037272,-121.13214230709997,-14.482456140350891,2.254437869822473,12.450980392156865,19.45045045045046,9.462745098039218,-9.462745098039214,-3.48627450980392,-17.971698113207545,11.127723458983823,38.82632271304794,16.928704276312832,477.4189372798046,40.84659498067237,1114.0816637383914,1
-7.324925006817556,-23.49181969949916,19.894813635760705,79.50607090820779,-41.9230471021516,126.87272157845288,-121.17126135838596,-14.482456140350891,2.254437869822473,12.450980392156865,19.45045045045046,9.462745098039218,-9.462745098039214,-3.48627450980392,-17.971698113207545,11.127723458983823,38.82632271304794,16.903852780692475,480.7804346571346,40.96423474782255,1117.3394641161271,1
-7.324925006817556,-23.49181969949916,19.894813635760705,79.50607090820779,-41.9230471021516,126.87272157845288,-121.17126135838596,-17.824561403508785,2.254437869822473,6.4745098039215705,8.00900900900902,14.443137254901963,7.4705882352941195,-8.466666666666665,-29.952830188679243,11.86196755397548,76.64016727611765,16.903852780692475,480.7804346571346,40.96423474782255,1117.3394641161271,1
-7.324925006817556,-23.49181969949916,19.894813635760705,79.50607090820779,-41.9230471021516,126.87272157845288,-121.17126135838596,-16.710526315789487,-3.757396449704154,-15.439215686274508,4.576576576576588,-2.490196078431371,7.4705882352941195,-6.474509803921567,-16.773584905660375,9.21157425645652,37.018934660091496,16.903852780692475,480.7804346571346,40.96423474782255,1117.3394641161271,1
-7.6712571584401354,-23.449415692821365,19.82743069372595,79.50607090820779,-41.84919558053889,126.93636078922646,-121.21038040967197,-16.710526315789487,-3.757396449704154,-15.439215686274508,4.576576576576588,-2.490196078431371,7.4705882352941195,-6.474509803921567,-16.773584905660375,9.21157425645652,37.018934660091496,16.98270118166248,479.6689255819579,40.927639098251696,1119.5012445199918,1
-7.6712571584401354,-23.449415692821365,19.82743069372595,79.50607090820779,-41.84919558053889,126.93636078922646,-121.21038040967197,-22.28070175438598,-18.786982248520722,-42.33333333333333,3.432432432432443,0.4980392156862763,8.466666666666669,-6.474509803921567,-21.566037735849054,15.479837898849503,187.88796764587775,16.98270118166248,479.6689255819579,40.927639098251696,1119.5012445199918,1
-7.6712571584401354,-23.449415692821365,19.82743069372595,79.50607090820779,-41.84919558053889,126.93636078922646,-121.21038040967197,-14.482456140350891,5.260355029585787,43.32941176470588,19.45045045045046,6.4745098039215705,0.4980392156862763,3.4862745098039234,-17.971698113207545,13.86914937846404,190.23539213279355,16.98270118166248,479.6689255819579,40.927639098251696,1119.5012445199918,1
-6.701527133896912,-22.898163606010012,19.74320201618251,79.50607090820779,-41.898429928280706,126.93636078922646,-121.40597566610197,-14.482456140350891,5.260355029585787,43.32941176470588,19.45045045045046,6.4745098039215705,0.4980392156862763,3.4862745098039234,-17.971698113207545,13.86914937846404,190.23539213279355,16.44763091869648,463.3234658260578,40.71581217680011,1131.0015749954844,1
-6.701527133896912,-22.898163606010012,19.74320201618251,79.50607090820779,-41.898429928280706,126.93636078922646,-121.40597566610197,-13.368421052631593,-14.278106508875752,-5.478431372549018,5.720720720720731,-1.4941176470588218,2.4901960784313744,4.482352941176472,-27.556603773584904,9.358618761878583,76.07718074598351,16.44763091869648,463.3234658260578,40.71581217680011,1131.0015749954844,1
-6.701527133896912,-22.898163606010012,19.74320201618251,79.50607090820779,-41.898429928280706,126.93636078922646,-121.40597566610197,-17.824561403508785,-39.82840236686391,-4.482352941176469,12.585585585585598,-7.470588235294116,-4.482352941176469,0.4980392156862763,-15.575471698113205,12.843419298425603,154.51746581342064,16.44763091869648,463.3234658260578,40.71581217680011,1131.0015749954844,1
-6.5456776656667515,-23.067779632721198,19.945350842286768,79.62943176299166,-41.94766427602249,126.96818039461323,-121.67980902510396,-17.824561403508785,-39.82840236686391,-4.482352941176469,12.585585585585598,-7.470588235294116,-4.482352941176469,0.4980392156862763,-15.575471698113205,12.843419298425603,154.51746581342064,16.51960271355824,470.81397301316827,40.88085407933321,1128.5265947677187,1
-6.5456776656667515,-23.067779632721198,19.945350842286768,79.62943176299166,-41.94766427602249,126.96818039461323,-121.67980902510396,-14.482456140350891,-17.284023668639065,1.4941176470588253,6.864864864864876,5.4784313725490215,-3.48627450980392,0.4980392156862763,-28.754716981132074,9.792865550010617,94.26930767621398,16.51960271355824,470.81397301316827,40.88085407933321,1128.5265947677187,1
-6.5456776656667515,-23.067779632721198,19.945350842286768,79.62943176299166,-41.94766427602249,126.96818039461323,-121.67980902510396,-15.596491228070189,-11.272189349112438,-18.427450980392155,1.144144144144155,-4.482352941176469,-0.49803921568627274,0.4980392156862763,-27.556603773584904,9.934413855981607,100.22945186512064,16.51960271355824,470.81397301316827,40.88085407933321,1128.5265947677187,1
-6.268611944368687,-23.025375626043402,19.945350842286768,79.99951432734338,-42.16921884086065,127.00000000000003,-121.95364238410598,-15.596491228070189,-11.272189349112438,-18.427450980392155,1.144144144144155,-4.482352941176469,-0.49803921568627274,0.4980392156862763,-27.556603773584904,9.934413855981607,100.22945186512064,16.413112804232952,469.0740512132835,40.99008026522451,1143.6735975522383,1
-6.268611944368687,-23.025375626043402,19.945350842286768,79.99951432734338,-42.16921884086065,127.00000000000003,-121.95364238410598,-11.140350877192997,14.278106508875727,34.36470588235294,9.153153153153164,-37.35294117647059,6.4745098039215705,3.4862745098039234,-14.377358490566035,16.328425050292118,159.39561257790368,16.413112804232952,469.0740512132835,40.99008026522451,1143.6735975522383,1
-6.268611944368687,-23.025375626043402,19.945350842286768,79.99951432734338,-42.16921884086065,127.00000000000003,-121.95364238410598,-14.482456140350891,0.751479289940816,19.423529411764708,14.873873873873885,1.4941176470588253,2.4901960784313744,1.4941176470588253,-20.367924528301884,9.422211827097652,74.87221018207785,16.413112804232952,469.0740512132835,40.99008026522451,1143.6735975522383,1
-7.688573766021265,-22.55893155258764,19.77689348719989,79.93783389995144,-42.16921884086065,126.96818039461323,-121.87540428153397,-14.482456140350891,0.751479289940816,19.423529411764708,14.873873873873885,1.4941176470588253,2.4901960784313744,1.4941176470588253,-20.367924528301884,9.422211827097652,74.87221018207785,16.674799601936265,461.3002523229599,40.757886313246324,1153.2361536220367,1
-7.688573766021265,-22.55893155258764,19.77689348719989,79.93783389995144,-42.16921884086065,126.96818039461323,-121.87540428153397,-8.912280701754401,-2.254437869822497,5.4784313725490215,9.153153153153164,8.466666666666669,2.4901960784313744,-0.49803921568627274,-19.169811320754715,7.052877047352264,35.139327613027156,16.674799601936265,461.3002523229599,40.757886313246324,1153.2361536220367,1
-7.688573766021265,-22.55893155258764,19.77689348719989,79.93783389995144,-42.16921884086065,126.96818039461323,-121.87540428153397,-21.16666666666668,-35.31952662721895,-6.474509803921567,9.153153153153164,12.450980392156865,4.482352941176472,7.4705882352941195,-22.764150943396224,14.910241095373005,113.11550999825018,16.674799601936265,461.3002523229599,40.757886313246324,1153.2361536220367,1
-8.519770929915456,-22.13489148580968,19.7600477516912,79.38271005342392,-41.94766427602249,126.88863138114627,-121.75804712767597,-21.16666666666668,-35.31952662721895,-6.474509803921567,9.153153153153164,12.450980392156865,4.482352941176472,7.4705882352941195,-22.764150943396224,14.910241095373005,113.11550999825018,16.804903389138776,456.71759768832885,40.425883096974935,1139.6357455764032,1
-8.519770929915456,-22.13489148580968,19.7600477516912,79.38271005342392,-41.94766427602249,126.88863138114627,-121.75804712767597,-13.368421052631593,-9.76923076923078,-20.419607843137253,16.01801801801803,4.482352941176472,0.4980392156862763,-23.4078431372549,-19.169811320754715,13.391665537236253,64.10635820395491,16.804903389138776,456.71759768832885,40.425883096974935,1139.6357455764032,1
-8.519770929915456,-22.13489148580968,19.7600477516912,79.38271005342392,-41.94766427602249,126.88863138114627,-121.75804712767597,-11.140350877192997,3.75739644970413,-36.35686274509804,-2.2882882882882782,1.4941176470588253,-18.427450980392155,-3.48627450980392,-15.575471698113205,11.565776649456444,141.6712039167123,16.804903389138776,456.71759768832885,40.425883096974935,1139.6357455764032,1
-7.307608399236427,-22.47412353923205,19.962196577795456,79.13598834385618,-41.873812754409784,126.87272157845288,-121.91452333281997,-11.140350877192997,3.75739644970413,-36.35686274509804,-2.2882882882882782,1.4941176470588253,-18.427450980392155,-3.48627450980392,-15.575471698113205,11.565776649456444,141.6712039167123,16.581309505421313,462.4177850086504,40.524102820294566,1119.7357220283686,1
-7.307608399236427,-22.47412353923205,19.962196577795456,79.13598834385618,-41.873812754409784,126.87272157845288,-121.91452333281997,-18.938596491228083,-17.284023668639065,-12.450980392156861,2.2882882882882987,4.482352941176472,-18.427450980392155,3.4862745098039234,-17.971698113207545,11.916208173111551,53.78591857234077,16.581309505421313,462.4177850086504,40.524102820294566,1119.7357220283686,1
-7.307608399236427,-22.47412353923205,19.962196577795456,79.13598834385618,-41.873812754409784,126.87272157845288,-121.91452333281997,-20.05263157894738,-11.272189349112438,-12.450980392156861,4.576576576576588,-8.466666666666665,-3.48627450980392,4.482352941176472,-20.367924528301884,10.644449567842777,45.35574155908965,16.581309505421313,462.4177850086504,40.524102820294566,1119.7357220283686,1
-6.632260703572396,-22.601335559265436,19.911659371269394,79.13598834385618,-41.94766427602249,126.87272157845288,-122.14923764053597,-20.05263157894738,-11.272189349112438,-12.450980392156861,4.576576576576588,-8.466666666666665,-3.48627450980392,4.482352941176472,-20.367924528301884,10.644449567842777,45.35574155908965,16.381751878035743,461.15763044166613,40.54966109146367,1118.4870776206149,1
-6.632260703572396,-22.601335559265436,19.911659371269394,79.13598834385618,-41.94766427602249,126.87272157845288,-122.14923764053597,-12.254385964912295,29.307692307692292,44.325490196078434,4.576576576576588,6.4745098039215705,4.482352941176472,2.4901960784313744,-20.367924528301884,15.534891049636364,221.0294871229615,16.381751878035743,461.15763044166613,40.54966109146367,1118.4870776206149,1
-6.632260703572396,-22.601335559265436,19.911659371269394,79.13598834385618,-41.94766427602249,126.87272157845288,-122.14923764053597,-12.254385964912295,-12.775147928994095,-13.44705882352941,5.720720720720731,-4.482352941176469,0.4980392156862763,-5.478431372549018,-23.962264150943394,9.82730013981396,54.12294810595946,16.381751878035743,461.15763044166613,40.54966109146367,1118.4870776206149,1
-7.151758931006266,-22.728547579298827,19.7600477516912,79.13598834385618,-41.94766427602249,126.8568117757595,-122.14923764053597,-12.254385964912295,-12.775147928994095,-13.44705882352941,5.720720720720731,-4.482352941176469,0.4980392156862763,-5.478431372549018,-23.962264150943394,9.82730013981396,54.12294810595946,16.546784753998764,462.0270694535139,40.54152789161541,1119.3522810063098,1
-7.151758931006266,-22.728547579298827,19.7600477516912,79.13598834385618,-41.94766427602249,126.8568117757595,-122.14923764053597,-16.710526315789487,-36.8224852071006,-23.4078431372549,-6.864864864864854,0.4980392156862763,2.4901960784313744,5.4784313725490215,-16.773584905660375,13.630746387167111,151.66115720277028,16.546784753998764,462.0270694535139,40.54152789161541,1119.3522810063098,1
-7.151758931006266,-22.728547579298827,19.7600477516912,79.13598834385618,-41.94766427602249,126.8568117757595,-122.14923764053597,-7.7982456140351015,6.763313609467444,12.450980392156865,13.72972972972974,1.4941176470588253,-6.474509803921567,-1.4941176470588218,-27.556603773584904,9.720202277126658,71.42560602428483,16.546784753998764,462.0270694535139,40.54152789161541,1119.3522810063098,1
-7.428824652304329,-22.431719532554254,19.591590396604317,79.07430791646425,-41.94766427602249,126.82499217037272,-122.18835669182198,-7.7982456140351015,6.763313609467444,12.450980392156865,13.72972972972974,1.4941176470588253,-6.474509803921567,-1.4941176470588218,-27.556603773584904,9.720202277126658,71.42560602428483,16.484044860487632,453.52471026753926,40.36587261520761,1125.7738059808964,1
-7.428824652304329,-22.431719532554254,19.591590396604317,79.07430791646425,-41.94766427602249,126.82499217037272,-122.18835669182198,-13.368421052631593,-6.763313609467467,21.415686274509806,2.2882882882882987,-18.427450980392155,3.4862745098039234,21.415686274509806,-22.764150943396224,13.741158991624907,72.3332310326433,16.484044860487632,453.52471026753926,40.36587261520761,1125.7738059808964,1
-7.428824652304329,-22.431719532554254,19.591590396604317,79.07430791646425,-41.94766427602249,126.82499217037272,-122.18835669182198,-16.710526315789487,-20.28994082840238,7.4705882352941195,4.576576576576588,-2.490196078431371,3.4862745098039234,-8.466666666666665,-20.367924528301884,10.482336717408302,56.219292336875235,16.484044860487632,453.52471026753926,40.36587261520761,1125.7738059808964,1
-7.619307335696749,-22.34691151919866,19.692664809656446,78.88926663428845,-41.9230471021516,126.77726276229254,-122.18835669182198,-16.710526315789487,-20.28994082840238,7.4705882352941195,4.576576576576588,-2.490196078431371,3.4862745098039234,-8.466666666666665,-20.367924528301884,10.482336717408302,56.219292336875235,16.552961221517283,455.028687560681,40.30961432104785,1118.0534358566767,1
-7.619307335696749,-22.34691151919866,19.692664809656446,78.88926663428845,-41.9230471021516,126.77726276229254,-122.18835669182198,-21.16666666666668,-35.31952662721895,-0.49803921568627274,14.873873873873885,20.419607843137257,0.4980392156862763,-7.470588235294116,-21.566037735849054,15.22654742667656,142.9010047804979,16.552961221517283,455.028687560681,40.30961432104785,1118.0534358566767,1
-7.619307335696749,-22.34691151919866,19.692664809656446,78.88926663428845,-41.9230471021516,126.77726276229254,-122.18835669182198,-16.710526315789487,-17.284023668639065,-10.458823529411763,14.873873873873885,2.4901960784313744,6.4745098039215705,5.4784313725490215,-13.179245283018865,10.86870374070438,30.77065425460838,16.552961221517283,455.028687560681,40.30961432104785,1118.0534358566767,1
-7.723206981183522,-22.21969949916527,19.608436132113006,78.70422535211264,-41.898429928280706,126.69771374882558,-122.11011858924998,-16.710526315789487,-17.284023668639065,-10.458823529411763,14.873873873873885,2.4901960784313744,6.4745098039215705,5.4784313725490215,-13.179245283018865,10.86870374070438,30.77065425460838,16.51711420415393,451.12665683085356,40.17745366113031,1114.9387767898359,1
-7.723206981183522,-22.21969949916527,19.608436132113006,78.70422535211264,-41.898429928280706,126.69771374882558,-122.11011858924998,-20.05263157894738,-12.775147928994095,-16.435294117647057,2.2882882882882987,4.482352941176472,2.4901960784313744,-4.482352941176469,-26.358490566037734,11.17059430508736,83.36632200703454,16.51711420415393,451.12665683085356,40.17745366113031,1114.9387767898359,1
-7.723206981183522,-22.21969949916527,19.608436132113006,78.70422535211264,-41.898429928280706,126.69771374882558,-122.11011858924998,-15.596491228070189,6.763313609467444,11.454901960784316,-1.1441441441441338,-0.49803921568627274,1.4941176470588253,-4.482352941176469,-23.962264150943394,8.174453112166379,69.1007638042084,16.51711420415393,451.12665683085356,40.17745366113031,1114.9387767898359,1
-7.688573766021265,-22.34691151919866,19.55789892558694,78.51918406993684,-41.873812754409784,126.64998434074539,-122.07099953796397,-15.596491228070189,6.763313609467444,11.454901960784316,-1.1441441441441338,-0.49803921568627274,1.4941176470588253,-4.482352941176469,-23.962264150943394,8.174453112166379,69.1007638042084,16.531128070268952,452.20837970569823,40.14133150490748,1106.5893234391792,1
-7.688573766021265,-22.34691151919866,19.55789892558694,78.51918406993684,-41.873812754409784,126.64998434074539,-122.07099953796397,-14.482456140350891,-0.75147928994084,-13.44705882352941,20.594594594594607,15.439215686274512,11.454901960784316,-0.49803921568627274,-22.764150943396224,12.428987081819635,66.78114094740314,16.531128070268952,452.20837970569823,40.14133150490748,1106.5893234391792,1
-7.688573766021265,-22.34691151919866,19.55789892558694,78.51918406993684,-41.873812754409784,126.64998434074539,-122.07099953796397,-16.710526315789487,-11.272189349112438,-4.482352941176469,11.441441441441452,0.4980392156862763,-2.490196078431371,-2.490196078431371,-28.754716981132074,9.767457300150117,90.50859721164773,16.531128070268952,452.20837970569823,40.14133150490748,1106.5893234391792,1
-7.203708753749653,-22.092487479131883,19.74320201618251,78.39582321515297,-41.94766427602249,126.58634512997183,-122.14923764053597,-16.710526315789487,-11.272189349112438,-4.482352941176469,11.441441441441452,0.4980392156862763,-2.490196078431371,-2.490196078431371,-28.754716981132074,9.767457300150117,90.50859721164773,16.34646608302135,449.6727745874066,40.07717090348912,1102.6191217832425,1
-7.203708753749653,-22.092487479131883,19.74320201618251,78.39582321515297,-41.94766427602249,126.58634512997183,-122.14923764053597,-11.140350877192997,3.75739644970413,26.39607843137255,20.594594594594607,2.4901960784313744,-3.48627450980392,0.4980392156862763,-20.367924528301884,11.091356835635967,101.20367661321964,16.34646608302135,449.6727745874066,40.07717090348912,1102.6191217832425,1
-7.203708753749653,-22.092487479131883,19.74320201618251,78.39582321515297,-41.94766427602249,126.58634512997183,-122.14923764053597,-21.16666666666668,-29.307692307692317,-9.462745098039214,3.432432432432443,1.4941176470588253,-11.454901960784312,2.4901960784313744,-22.764150943396224,12.696612891812673,110.93096044780998,16.34646608302135,449.6727745874066,40.07717090348912,1102.6191217832425,1
-6.4590946277611065,-22.26210350584307,19.692664809656446,78.64254492472071,-42.193836014731545,126.55452552458505,-122.30571384567997,-21.16666666666668,-29.307692307692317,-9.462745098039214,3.432432432432443,1.4941176470588253,-11.454901960784312,2.4901960784313744,-22.764150943396224,12.696612891812673,110.93096044780998,16.13795431442021,448.97536594675626,40.199104413406744,1110.0740925635673,1
-6.4590946277611065,-22.26210350584307,19.692664809656446,78.64254492472071,-42.193836014731545,126.55452552458505,-122.30571384567997,-10.0263157894737,0.751479289940816,-26.396078431372548,1.144144144144155,-19.423529411764704,-21.415686274509802,40.34117647058824,3.552713678800501e-15,14.937301226474247,211.06937725954802,16.13795431442021,448.97536594675626,40.199104413406744,1110.0740925635673,1
-6.4590946277611065,-22.26210350584307,19.692664809656446,78.64254492472071,-42.193836014731545,126.55452552458505,-122.30571384567997,-16.710526315789487,-11.272189349112438,28.38823529411765,4.576576576576588,-4.482352941176469,-0.49803921568627274,-7.470588235294116,-31.150943396226413,13.068681415497428,130.47827446230028,16.13795431442021,448.97536594675626,40.199104413406744,1110.0740925635673,1
-7.359558221979814,-22.431719532554254,19.84427642923464,78.58086449732878,-42.16921884086065,126.52270591919827,-122.38395194825198,-16.710526315789487,-11.272189349112438,28.38823529411765,4.576576576576588,-4.482352941176469,-0.49803921568627274,-7.470588235294116,-31.150943396226413,13.068681415497428,130.47827446230028,16.5451847279229,459.079750143964,40.285620153039225,1101.5680199948597,1
-7.359558221979814,-22.431719532554254,19.84427642923464,78.58086449732878,-42.16921884086065,126.52270591919827,-122.38395194825198,-11.140350877192997,2.254437869822473,-6.474509803921567,2.2882882882882987,-7.470588235294116,-7.470588235294116,-11.454901960784312,-19.169811320754715,8.465434573919076,30.47894431885266,16.5451847279229,459.079750143964,40.285620153039225,1101.5680199948597,1
-7.359558221979814,-22.431719532554254,19.84427642923464,78.58086449732878,-42.16921884086065,126.52270591919827,-122.38395194825198,-15.596491228070189,-23.295857988165693,-36.35686274509804,1.144144144144155,10.458823529411767,-27.392156862745097,14.443137254901963,-13.179245283018865,17.733339879444472,119.3316133554126,16.5451847279229,459.079750143964,40.285620153039225,1101.5680199948597,1
-7.134442323425137,-22.092487479131883,19.962196577795456,78.4575036425449,-42.16921884086065,126.53861572189166,-122.65778530725397,-15.596491228070189,-23.295857988165693,-36.35686274509804,1.144144144144155,10.458823529411767,-27.392156862745097,14.443137254901963,-13.179245283018865,17.733339879444472,119.3316133554126,16.396375460117493,454.42790095854696,40.17072923315741,1100.5423558375758,1
-7.134442323425137,-22.092487479131883,19.962196577795456,78.4575036425449,-42.16921884086065,126.53861572189166,-122.65778530725397,-15.596491228070189,-24.798816568047346,0.4980392156862763,-12.585585585585576,-8.466666666666665,-0.49803921568627274,-1.4941176470588218,-25.160377358490564,11.137266685661464,104.53951992067661,16.396375460117493,454.42790095854696,40.17072923315741,1100.5423558375758,1
-7.134442323425137,-22.092487479131883,19.962196577795456,78.4575036425449,-42.16921884086065,126.53861572189166,-122.65778530725397,-10.0263157894737,-0.75147928994084,23.407843137254904,10.297297297297309,-3.48627450980392,10.458823529411767,-8.466666666666665,-17.971698113207545,10.608299791632081,52.99606610591219,16.396375460117493,454.42790095854696,40.17072923315741,1100.5423558375758,1
-6.441778020179977,-23.49181969949916,19.92850510677808,78.76590577950458,-42.26768753634428,126.60225493266523,-122.93161866625599,-10.0263157894737,-0.75147928994084,23.407843137254904,10.297297297297309,-3.48627450980392,10.458823529411767,-8.466666666666665,-17.971698113207545,10.608299791632081,52.99606610591219,16.620700942152407,478.5700599575108,40.72874352859394,1088.2935867982508,1
-6.441778020179977,-23.49181969949916,19.92850510677808,78.76590577950458,-42.26768753634428,126.60225493266523,-122.93161866625599,-22.28070175438598,-30.810650887573974,-12.450980392156861,16.01801801801803,-3.48627450980392,7.4705882352941195,-19.423529411764704,-34.74528301886792,18.33575327848319,117.17184168999627,16.620700942152407,478.5700599575108,40.72874352859394,1088.2935867982508,1
-6.441778020179977,-23.49181969949916,19.92850510677808,78.76590577950458,-42.26768753634428,126.60225493266523,-122.93161866625599,-5.570175438596506,20.289940828402354,20.419607843137257,11.441441441441452,6.4745098039215705,22.411764705882355,-2.490196078431371,-14.377358490566035,12.934374328797363,58.47245626440542,16.620700942152407,478.5700599575108,40.72874352859394,1088.2935867982508,1
-6.372511589855462,-23.83105175292153,19.7600477516912,79.01262748907232,-42.36615623182789,126.6658941434388,-123.16633297397198,-5.570175438596506,20.289940828402354,20.419607843137257,11.441441441441452,6.4745098039215705,22.411764705882355,-2.490196078431371,-14.377358490566035,12.934374328797363,58.47245626440542,16.654537031489397,481.3158730643162,40.867908997895015,1095.4079299728808,1
-6.372511589855462,-23.83105175292153,19.7600477516912,79.01262748907232,-42.36615623182789,126.6658941434388,-123.16633297397198,-21.16666666666668,-38.32544378698226,-40.34117647058824,6.864864864864876,66.23921568627452,-8.466666666666665,-15.439215686274508,-27.556603773584904,28.04998170023783,393.4352075057708,16.654537031489397,481.3158730643162,40.867908997895015,1095.4079299728808,1
-6.372511589855462,-23.83105175292153,19.7600477516912,79.01262748907232,-42.36615623182789,126.6658941434388,-123.16633297397198,-24.508771929824576,-39.82840236686391,-20.419607843137253,1.144144144144155,-6.474509803921567,0.4980392156862763,8.466666666666669,-10.783018867924525,14.015395104771116,180.56083542346013,16.654537031489397,481.3158730643162,40.867908997895015,1095.4079299728808,1
-5.437414780474496,-22.304507512520864,20.046425255338896,79.38271005342392,-42.63694514440786,126.69771374882558,-123.71399969197599,-24.508771929824576,-39.82840236686391,-20.419607843137253,1.144144144144155,-6.474509803921567,0.4980392156862763,8.466666666666669,-10.783018867924525,14.015395104771116,180.56083542346013,15.929449182778086,454.58773775169243,40.577880940427896,1130.635805736668,1
-5.437414780474496,-22.304507512520864,20.046425255338896,79.38271005342392,-42.63694514440786,126.69771374882558,-123.71399969197599,-13.368421052631593,-12.775147928994095,-3.48627450980392,12.585585585585598,-13.44705882352941,-3.48627450980392,-2.490196078431371,-28.754716981132074,11.299209433738998,73.87220229331034,15.929449182778086,454.58773775169243,40.577880940427896,1130.635805736668,1
-5.437414780474496,-22.304507512520864,20.046425255338896,79.38271005342392,-42.63694514440786,126.69771374882558,-123.71399969197599,-14.482456140350891,9.769230769230756,-4.482352941176469,5.720720720720731,-3.48627450980392,-5.478431372549018,1.4941176470588253,-21.566037735849054,8.309952729592457,45.00695937395653,15.929449182778086,454.58773775169243,40.577880940427896,1130.635805736668,1
-5.437414780474496,-21.795659432387307,20.147499668391028,79.50607090820779,-42.88311688311691,126.68180394613219,-124.339904512552,-14.482456140350891,9.769230769230756,-4.482352941176469,5.720720720720731,-3.48627450980392,-5.478431372549018,1.4941176470588253,-21.566037735849054,8.309952729592457,45.00695937395653,15.793524627084276,446.90143513346777,40.48307666966204,1142.774667158095,1
-5.437414780474496,-21.795659432387307,20.147499668391028,79.50607090820779,-42.88311688311691,126.68180394613219,-124.339904512552,-18.938596491228083,-14.278106508875752,-45.32156862745098,11.441441441441452,-12.450980392156861,-12.450980392156861,-7.470588235294116,-27.556603773584904,18.738608232773625,151.94747788621217,15.793524627084276,446.90143513346777,40.48307666966204,1142.774667158095,1
-5.437414780474496,-21.795659432387307,20.147499668391028,79.50607090820779,-42.88311688311691,126.68180394613219,-124.339904512552,-11.140350877192997,-6.763313609467467,4.482352941176472,5.720720720720731,-7.470588235294116,7.4705882352941195,-2.490196078431371,-17.971698113207545,7.938726101348102,22.754767420980965,15.793524627084276,446.90143513346777,40.48307666966204,1142.774667158095,1
-6.2166621216253,-21.20200333889816,19.92850510677808,79.25934919864005,-43.00620275247144,126.55452552458505,-124.65285692283999,-11.140350877192997,-6.763313609467467,4.482352941176472,5.720720720720731,-7.470588235294116,7.4705882352941195,-2.490196078431371,-17.971698113207545,7.938726101348102,22.754767420980965,15.782390189100513,433.3081576331865,40.12995254810543,1148.7377111129558,1
-6.2166621216253,-21.20200333889816,19.92850510677808,79.25934919864005,-43.00620275247144,126.55452552458505,-124.65285692283999,-16.710526315789487,-29.307692307692317,6.4745098039215705,18.30630630630632,6.4745098039215705,0.4980392156862763,23.407843137254904,-19.169811320754715,15.043654776415895,94.61519433595807,15.782390189100513,433.3081576331865,40.12995254810543,1148.7377111129558,1
-6.2166621216253,-21.20200333889816,19.92850510677808,79.25934919864005,-43.00620275247144,126.55452552458505,-124.65285692283999,-23.394736842105274,-32.313609467455635,-15.439215686274508,-2.2882882882882782,14.443137254901963,-20.419607843137253,-13.44705882352941,-27.556603773584904,18.662782247409652,87.77822629709294,15.782390189100513,433.3081576331865,40.12995254810543,1148.7377111129558,1
-6.303245159530945,-22.389315525876455,19.13675553786974,78.82758620689651,-43.055437100213254,126.36360789226435,-124.691975974126,-23.394736842105274,-32.313609467455635,-15.439215686274508,-2.2882882882882782,14.443137254901963,-20.419607843137253,-13.44705882352941,-27.556603773584904,18.662782247409652,87.77822629709294,15.943105407759047,438.39497888434425,40.1178857568809,1126.4754683163496,1
-6.303245159530945,-22.389315525876455,19.13675553786974,78.82758620689651,-43.055437100213254,126.36360789226435,-124.691975974126,-21.16666666666668,-3.757396449704154,24.403921568627453,1.0658141036401503e-14,1.4941176470588253,17.43137254901961,16.43529411764706,-11.981132075471695,12.083737634274437,87.0450038719047,15.943105407759047,438.39497888434425,40.1178857568809,1126.4754683163496,1
-6.303245159530945,-22.389315525876455,19.13675553786974,78.82758620689651,-43.055437100213254,126.36360789226435,-124.691975974126,-16.710526315789487,-26.301775147929003,-11.454901960784312,1.144144144144155,-4.482352941176469,25.400000000000002,14.443137254901963,2.3962264150943433,12.791633022477466,96.30564429548382,15.943105407759047,438.39497888434425,40.1178857568809,1126.4754683163496,1
-4.952549768202884,-22.55893155258764,18.345005968961395,78.76590577950458,-43.449311882147725,126.04541183839652,-124.49638071769598,-16.710526315789487,-26.301775147929003,-11.454901960784312,1.144144144144155,-4.482352941176469,25.400000000000002,14.443137254901963,2.3962264150943433,12.791633022477466,96.30564429548382,15.285495763250639,420.98214793842976,39.88994776701787,1137.944375747557,1
-4.952549768202884,-22.55893155258764,18.345005968961395,78.76590577950458,-43.449311882147725,126.04541183839652,-124.49638071769598,-12.254385964912295,11.272189349112413,95.12549019607843,14.873873873873885,-47.31372549019608,34.36470588235294,-25.4,-8.386792452830186,31.12389540116953,847.5383193435675,15.285495763250639,420.98214793842976,39.88994776701787,1137.944375747557,1
-4.952549768202884,-22.55893155258764,18.345005968961395,78.76590577950458,-43.449311882147725,126.04541183839652,-124.49638071769598,-22.28070175438598,-54.85798816568048,-7.470588235294116,-41.18918918918918,0.4980392156862763,-30.380392156862744,62.254901960784316,-39.5377358490566,32.30869206586746,467.0709302461952,15.285495763250639,420.98214793842976,39.88994776701787,1137.944375747557,1
-5.645214071448043,-23.36460767946577,17.233187425387975,78.14910150558524,-43.8431866640822,125.44083933604763,-123.40104728168798,-22.28070175438598,-54.85798816568048,-7.470588235294116,-41.18918918918918,0.4980392156862763,-30.380392156862744,62.254901960784316,-39.5377358490566,32.30869206586746,467.0709302461952,15.414336392100596,414.26318871032913,39.582298870146325,1124.947277723702,1
-5.645214071448043,-23.36460767946577,17.233187425387975,78.14910150558524,-43.8431866640822,125.44083933604763,-123.40104728168798,-20.05263157894738,-20.28994082840238,-13.44705882352941,27.45945945945947,-4.482352941176469,11.454901960784316,40.34117647058824,-23.962264150943394,20.18622327672888,120.23900636254304,15.414336392100596,414.26318871032913,39.582298870146325,1124.947277723702,1
-5.645214071448043,-23.36460767946577,17.233187425387975,78.14910150558524,-43.8431866640822,125.44083933604763,-123.40104728168798,-22.28070175438598,-35.31952662721895,39.345098039215685,59.49549549549551,-8.466666666666665,-11.454901960784312,-99.10980392156863,-65.89622641509433,42.67105261005375,947.5806602151033,15.414336392100596,414.26318871032913,39.582298870146325,1124.947277723702,1
-9.48950095445868,-19.37863105175292,16.070831675288492,75.2501214181641,-43.597014925373145,124.21578452865646,-121.13214230709997,-22.28070175438598,-35.31952662721895,39.345098039215685,59.49549549549551,-8.466666666666665,-11.454901960784312,-99.10980392156863,-65.89622641509433,42.67105261005375,947.5806602151033,14.97965456050003,334.63165097673783,36.89986138173517,1105.792217825023,1
-9.48950095445868,-19.37863105175292,16.070831675288492,75.2501214181641,-43.597014925373145,124.21578452865646,-121.13214230709997,-2.228070175438612,41.33136094674555,39.345098039215685,11.441441441441452,-3.48627450980392,22.411764705882355,-16.435294117647057,-4.792452830188676,17.683969595795414,242.5620821604039,14.97965456050003,334.63165097673783,36.89986138173517,1105.792217825023,1
-9.48950095445868,-19.37863105175292,16.070831675288492,75.2501214181641,-43.597014925373145,124.21578452865646,-121.13214230709997,-8.912280701754401,21.79289940828401,25.400000000000002,-89.24324324324324,45.321568627450986,15.439215686274512,-33.36862745098039,-14.377358490566035,31.731899201069197,674.4508514618901,14.97965456050003,334.63165097673783,36.89986138173517,1105.792217825023,1
-14.268884646850282,-12.721202003338894,15.38015651943228,69.39048081593,-42.53847644892423,122.21114938928909,-117.88526105036193,-8.912280701754401,21.79289940828401,25.400000000000002,-89.24324324324324,45.321568627450986,15.439215686274512,-33.36862745098039,-14.377358490566035,31.731899201069197,674.4508514618901,14.12341438987382,278.5245524117114,32.49727977956706,1022.5987218117822,1
-14.268884646850282,-12.721202003338894,15.38015651943228,69.39048081593,-42.53847644892423,122.21114938928909,-117.88526105036193,-16.710526315789487,3.75739644970413,25.400000000000002,-41.18918918918918,55.28235294117647,1.4941176470588253,-92.13725490196079,-37.14150943396226,34.139043359855144,891.2015956918951,14.12341438987382,278.5245524117114,32.49727977956706,1022.5987218117822,1
-14.268884646850282,-12.721202003338894,15.38015651943228,69.39048081593,-42.53847644892423,122.21114938928909,-117.88526105036193,-11.140350877192997,2.254437869822473,-4.482352941176469,29.74774774774776,97.11764705882354,-10.458823529411763,-18.427450980392155,-22.764150943396224,24.549120243495423,944.5624759374389,14.12341438987382,278.5245524117114,32.49727977956706,1022.5987218117822,1
-19.93141532587946,-8.862437395659429,14.807401512136881,60.878581835842624,-40.34754797441366,119.69740056373318,-113.6604035114739,-11.140350877192997,2.254437869822473,-4.482352941176469,29.74774774774776,97.11764705882354,-10.458823529411763,-18.427450980392155,-22.764150943396224,24.549120243495423,944.5624759374389,14.533751411225259,314.9281569409956,28.18280691454631,810.5959228646028,1
-19.93141532587946,-8.862437395659429,14.807401512136881,60.878581835842624,-40.34754797441366,119.69740056373318,-113.6604035114739,-3.34210526315791,35.31952662721892,5.4784313725490215,-67.5045045045045,18.42745098039216,13.447058823529414,50.30196078431373,1.1981132075471734,24.3773939454016,591.9383367931115,14.533751411225259,314.9281569409956,28.18280691454631,810.5959228646028,1
-19.93141532587946,-8.862437395659429,14.807401512136881,60.878581835842624,-40.34754797441366,119.69740056373318,-113.6604035114739,-11.140350877192997,24.79881656804732,-25.4,-18.306306306306297,-2.490196078431371,32.372549019607845,22.411764705882355,-35.94339622641509,21.607922472735407,118.93557125397767,14.533751411225259,314.9281569409956,28.18280691454631,810.5959228646028,1
-26.200027270248153,-13.866110183639394,12.667993102533487,51.50315687226805,-36.99961232797057,117.19956154087068,-107.63606961342985,-11.140350877192997,24.79881656804732,-25.4,-18.306306306306297,-2.490196078431371,32.372549019607845,22.411764705882355,-35.94339622641509,21.607922472735407,118.93557125397767,17.57804351880701,394.48452593326635,26.012420052813642,487.69211883402585,1
-26.200027270248153,-13.866110183639394,12.667993102533487,51.50315687226805,-36.99961232797057,117.19956154087068,-107.63606961342985,-15.596491228070189,-12.775147928994095,29.3843137254902,48.05405405405407,126.00392156862745,-35.36078431372549,35.36078431372549,-33.54716981132076,42.01033336800097,1280.4730082063384,17.57804351880701,394.48452593326635,26.012420052813642,487.69211883402585,1
-26.200027270248153,-13.866110183639394,12.667993102533487,51.50315687226805,-36.99961232797057,117.19956154087068,-107.63606961342985,21.16666666666665,126.99999999999999,78.1921568627451,94.96396396396398,-29.384313725490195,3.4862745098039234,12.450980392156865,-7.188679245283016,46.72912942076371,2188.9427654411797,17.57804351880701,394.48452593326635,26.012420052813642,487.69211883402585,1
-33.07472047995637,-10.897829716193652,10.376973073351897,40.46236036911114,-32.56852103120761,114.28806764797997,-100.3208070229478,21.16666666666665,126.99999999999999,78.1921568627451,94.96396396396398,-29.384313725490195,3.4862745098039234,12.450980392156865,-7.188679245283016,46.72912942076371,2188.9427654411797,18.116507756500642,472.0802317220884,20.579054386218896,296.577215517587,1
-33.07472047995637,-10.897829716193652,10.376973073351897,40.46236036911114,-32.56852103120761,114.28806764797997,-100.3208070229478,-24.508771929824576,-15.781065088757408,24.403921568627453,-52.63063063063063,-127.0,-37.35294117647059,-33.36862745098039,-63.5,47.318244730661384,1281.8691175312053,18.116507756500642,472.0802317220884,20.579054386218896,296.577215517587,1
-33.07472047995637,-10.897829716193652,10.376973073351897,40.46236036911114,-32.56852103120761,114.28806764797997,-100.3208070229478,-25.62280701754387,-38.32544378698226,-48.30980392156863,99.54054054054056,-118.03529411764706,54.286274509803924,28.38823529411765,-13.179245283018865,53.21095555890285,1367.8846545679942,18.116507756500642,472.0802317220884,20.579054386218896,296.577215517587,1
-40.86719389146441,-0.9752921535893115,7.395277888314093,29.174842156386603,-27.866640821864735,110.97882868775449,-92.10580625288773,-25.62280701754387,-38.32544378698226,-48.30980392156863,99.54054054054056,-118.03529411764706,54.286274509803924,28.38823529411765,-13.179245283018865,53.21095555890285,1367.8846545679942,16.41258797778927,665.1160748974349,12.515137399430003,218.4633761502392,1
-40.86719389146441,-0.9752921535893115,7.395277888314093,29.174842156386603,-27.866640821864735,110.97882868775449,-92.10580625288773,-20.05263157894738,-20.28994082840238,-55.28235294117647,69.79279279279281,-84.1686274509804,6.4745098039215705,93.13333333333334,-37.14150943396226,48.291962270439576,1037.6628385927143,16.41258797778927,665.1160748974349,12.515137399430003,218.4633761502392,1
-40.86719389146441,-0.9752921535893115,7.395277888314093,29.174842156386603,-27.866640821864735,110.97882868775449,-92.10580625288773,-33.42105263157896,-75.89940828402368,-99.10980392156863,80.0900900900901,-114.05098039215686,-16.435294117647057,8.466666666666669,-25.160377358490564,56.57920918277781,1641.0973516145411,16.41258797778927,665.1160748974349,12.515137399430003,218.4633761502392,1
-42.92787019361876,8.395993322203676,3.807136224963516,17.332200097134432,-23.31246365574725,106.79455057939244,-83.18666255967966,-33.42105263157896,-75.89940828402368,-99.10980392156863,80.0900900900901,-114.05098039215686,-16.435294117647057,8.466666666666669,-25.160377358490564,56.57920918277781,1641.0973516145411,18.376999913595316,806.5595667657644,9.845109881433876,47.30679228825211,1
-42.92787019361876,8.395993322203676,3.807136224963516,17.332200097134432,-23.31246365574725,106.79455057939244,-83.18666255967966,-14.482456140350891,-29.307692307692317,-42.33333333333333,-93.81981981981981,-48.30980392156863,-6.474509803921567,-26.396078431372548,-10.783018867924525,33.988339078247954,801.4396292304481,18.376999913595316,806.5595667657644,9.845109881433876,47.30679228825211,1
-42.92787019361876,8.395993322203676,3.807136224963516,17.332200097134432,-23.31246365574725,106.79455057939244,-83.18666255967966,-1.1140350877193121,8.266272189349099,-0.49803921568627274,-69.79279279279278,-25.4,1.4941176470588253,15.439215686274512,-1.1981132075471663,15.400323228303495,561.5274140688583,18.376999913595316,806.5595667657644,9.845109881433876,47.30679228825211,1
-43.56858467412053,19.039398998330554,-0.033691471017384345,5.489558037882375,-19.226012793177006,101.76705292828063,-73.95456645618358,-1.1140350877193121,8.266272189349099,-0.49803921568627274,-69.79279279279278,-25.4,1.4941176470588253,15.439215686274512,-1.1981132075471663,15.400323228303495,561.5274140688583,20.880558381156156,1029.8048876312382,8.187549502410105,95.76359811044048,1
-43.56858467412053,19.039398998330554,-0.033691471017384345,5.489558037882375,-19.226012793177006,101.76705292828063,-73.95456645618358,-20.05263157894738,-54.85798816568048,-77.19607843137254,28.603603603603617,-0.49803921568627274,-9.462745098039214,-15.439215686274508,-22.764150943396224,28.609306590375034,641.0479587852706,20.880558381156156,1029.8048876312382,8.187549502410105,95.76359811044048,1
-43.56858467412053,19.039398998330554,-0.033691471017384345,5.489558037882375,-19.226012793177006,101.76705292828063,-73.95456645618358,-16.710526315789487,-20.28994082840238,24.403921568627453,-75.5135135135135,-4.482352941176469,-34.364705882352936,-14.44313725490196,-17.971698113207545,26.022474552246464,472.0032414545215,20.880558381156156,1029.8048876312382,8.187549502410105,95.76359811044048,1
-46.01022634305972,31.378964941569286,-4.245125348189422,-6.599805730937419,-15.336499321573967,95.65768869401819,-64.05744648082552,-16.710526315789487,-20.28994082840238,24.403921568627453,-75.5135135135135,-4.482352941176469,-34.364705882352936,-14.44313725490196,-17.971698113207545,26.022474552246464,472.0032414545215,27.21143887760614,1500.4143996289158,14.07463200689871,225.9660836616682,1
-46.01022634305972,31.378964941569286,-4.245125348189422,-6.599805730937419,-15.336499321573967,95.65768869401819,-64.05744648082552,-15.596491228070189,-14.278106508875752,7.4705882352941195,30.891891891891905,11.454901960784316,-3.48627450980392,20.419607843137257,-5.990566037735846,13.698553526949162,78.89239175872386,27.21143887760614,1500.4143996289158,14.07463200689871,225.9660836616682,1
-46.01022634305972,31.378964941569286,-4.245125348189422,-6.599805730937419,-15.336499321573967,95.65768869401819,-64.05744648082552,-8.912280701754401,39.82840236686389,23.407843137254904,38.900900900900915,29.3843137254902,-5.478431372549018,2.4901960784313744,-13.179245283018865,20.197701695782946,219.52929278140326,27.21143887760614,1500.4143996289158,14.07463200689871,225.9660836616682,1
-52.55590400872648,40.4110183639399,-8.119644515187698,-19.614375910636227,-10.61000193836017,88.49827748199188,-52.791159710457435,-8.912280701754401,39.82840236686389,23.407843137254904,38.900900900900915,29.3843137254902,-5.478431372549018,2.4901960784313744,-13.179245283018865,20.197701695782946,219.52929278140326,33.695522295951356,2162.1091754516715,22.715012929921276,267.8936687039901,1
-52.55590400872648,40.4110183639399,-8.119644515187698,-19.614375910636227,-10.61000193836017,88.49827748199188,-52.791159710457435,-15.596491228070189,-6.763313609467467,-3.48627450980392,11.441441441441452,4.482352941176472,-2.490196078431371,-17.431372549019606,-9.584905660377355,8.909543502223478,31.289949762596596,33.695522295951356,2162.1091754516715,22.715012929921276,267.8936687039901,1
-52.55590400872648,40.4110183639399,-8.119644515187698,-19.614375910636227,-10.61000193836017,88.49827748199188,-52.791159710457435,-23.394736842105274,-29.307692307692317,32.372549019607845,25.171171171171185,16.43529411764706,-3.48627450980392,-8.466666666666665,-22.764150943396224,20.174816947261313,100.54320470492344,33.695522295951356,2162.1091754516715,22.715012929921276,267.8936687039901,1
-62.47832015271339,45.75392320534225,-9.45045762037406,-33.985915492957815,-3.9141306454739606,80.44791731913563,-40.42953950408133,-23.394736842105274,-29.307692307692317,32.372549019607845,25.171171171171185,16.43529411764706,-3.48627450980392,-8.466666666666665,-22.764150943396224,20.174816947261313,100.54320470492344,39.2275669928099,2928.9493949027947,29.73009877289137,343.0693853358402,1
-62.47832015271339,45.75392320534225,-9.45045762037406,-33.985915492957815,-3.9141306454739606,80.44791731913563,-40.42953950408133,-13.368421052631593,-5.26035502958581,35.36078431372549,52.63063063063065,-3.48627450980392,-22.41176470588235,-23.4078431372549,-33.54716981132076,23.684155398854433,275.2888083654576,39.2275669928099,2928.9493949027947,29.73009877289137,343.0693853358402,1
-62.47832015271339,45.75392320534225,-9.45045762037406,-33.985915492957815,-3.9141306454739606,80.44791731913563,-40.42953950408133,5.5701754385964755,96.94082840236685,23.407843137254904,-12.585585585585576,2.4901960784313744,2.4901960784313744,7.4705882352941195,-15.575471698113205,20.816360581759234,997.016481126266,39.2275669928099,2928.9493949027947,29.73009877289137,343.0693853358402,1
