Gyro 0,Gyro 1,Gyro 2,Orientation 0,Orientation 1,Orientation 2,Orientation 3,Sensor 0,Sensor 1,Sensor 2,Sensor 3,Sensor 4,Sensor 5,Sensor 6,Sensor 7,Sensor Mean,Sensor Variance,Gyro Mean,Gyro Variance,Orientation Mean,Orientation Variance,Label
-26.770549672213807,-34.0466725374261,-34.77827440338416,114.579795808705,-126.63965242064197,29.542780748663063,23.263491259184207,14.873873873873883,-4.703703703703708,17.272000000000006,-3.48627450980392,-12.7,26.39607843137255,-15.439215686274508,-8.231481481481497,12.887828460813758,55.604813137916075,31.865165537674688,19.60014343502262,61.134914249838424,2142.400333953526,1
-26.770549672213807,-34.0466725374261,-34.77827440338416,114.579795808705,-126.63965242064197,29.542780748663063,23.263491259184207,17.162162162162172,-5.879629629629633,-10.159999999999997,-2.490196078431371,22.225,7.4705882352941195,2.4901960784313744,-4.70370370370372,9.072684485956549,51.15913136283678,31.865165537674688,19.60014343502262,61.134914249838424,2142.400333953526,1
-26.578416540595047,-34.71770033966538,-34.67690956979808,114.71628156904887,-126.68469586806171,29.42959001782529,23.392196605016466,17.162162162162172,-5.879629629629633,-10.159999999999997,-2.490196078431371,22.225,7.4705882352941195,2.4901960784313744,-4.70370370370372,9.072684485956549,51.15913136283678,31.991008816686172,21.972532332127532,61.37029715950411,2134.3459554392716,1
-26.578416540595047,-34.71770033966538,-34.67690956979808,114.71628156904887,-126.68469586806171,29.42959001782529,23.392196605016466,20.594594594594604,-1.17592592592593,-2.0319999999999965,3.4862745098039234,-11.641666666666666,0.4980392156862763,-0.49803921568627274,-7.055555555555571,5.872761960489905,50.24199299944177,31.991008816686172,21.972532332127532,61.37029715950411,2134.3459554392716,1
-26.877290300890895,-34.174487356900244,-35.163460771011266,114.76177682249687,-126.66968138558846,29.24093879976229,23.520901950848724,20.594594594594604,-1.17592592592593,-2.0319999999999965,3.4862745098039234,-11.641666666666666,0.4980392156862763,-0.49803921568627274,-7.055555555555571,5.872761960489905,50.24199299944177,32.07174614293413,20.481295724657464,61.36657498346946,2138.5302016763117,1
-26.877290300890895,-34.174487356900244,-35.163460771011266,114.76177682249687,-126.66968138558846,29.24093879976229,23.520901950848724,14.873873873873883,-2.3518518518518556,10.160000000000004,0.4980392156862763,-22.224999999999998,4.482352941176472,8.466666666666669,-5.879629629629646,8.617176772360601,50.926813130825245,32.07174614293413,20.481295724657464,61.36657498346946,2138.5302016763117,1
-26.877290300890895,-34.174487356900244,-35.163460771011266,114.76177682249687,-126.66968138558846,29.24093879976229,23.520901950848724,16.01801801801803,8.231481481481477,18.288000000000004,8.466666666666669,-17.991666666666667,-7.470588235294116,3.4862745098039234,-7.055555555555571,10.876031391685807,32.229976938212204,32.07174614293413,20.481295724657464,61.36657498346946,2138.5302016763117,1
-26.2795427802992,-33.471505849792436,-34.92018517040467,115.03474834318467,-126.63965242064197,28.901366607248946,23.520901950848724,16.01801801801803,8.231481481481477,18.288000000000004,8.466666666666669,-17.991666666666667,-7.470588235294116,3.4862745098039234,-7.055555555555571,10.876031391685807,32.229976938212204,31.55707793349877,21.41395091343529,61.142146454460594,2178.834071695872,1
-26.2795427802992,-33.471505849792436,-34.92018517040467,115.03474834318467,-126.63965242064197,28.901366607248946,23.520901950848724,24.02702702702704,15.287037037037031,11.176000000000004,11.454901960784316,1.0583333333333353,-7.470588235294116,1.4941176470588253,-5.879629629629646,9.73095435877054,57.61567033589115,31.55707793349877,21.41395091343529,61.142146454460594,2178.834071695872,1
-26.2795427802992,-33.471505849792436,-34.92018517040467,115.03474834318467,-126.63965242064197,28.901366607248946,23.520901950848724,24.02702702702704,16.46296296296296,3.552713678800501e-15,-5.478431372549018,-20.10833333333333,4.482352941176472,-2.490196078431371,-5.879629629629646,9.86611666813873,80.68942873298283,31.55707793349877,21.41395091343529,61.142146454460594,2178.834071695872,1
-27.47503782148259,-33.98276512768903,-35.204006704445696,114.76177682249687,-126.57959449074895,28.637254901960745,23.649607296680983,24.02702702702704,16.46296296296296,3.552713678800501e-15,-5.478431372549018,-20.10833333333333,4.482352941176472,-2.490196078431371,-5.879629629629646,9.86611666813873,80.68942873298283,32.220603217872444,17.263150945759328,61.3161828848772,2142.696491255896,1
-27.47503782148259,-33.98276512768903,-35.204006704445696,114.76177682249687,-126.57959449074895,28.637254901960745,23.649607296680983,16.01801801801803,-10.583333333333336,-57.912,-8.466666666666665,-12.7,-8.466666666666665,1.4941176470588253,-10.58333333333335,15.778016958134609,307.1021796424449,32.220603217872444,17.263150945759328,61.3161828848772,2142.696491255896,1
-27.47503782148259,-33.98276512768903,-35.204006704445696,114.76177682249687,-126.57959449074895,28.637254901960745,23.649607296680983,25.17117117117118,9.407407407407403,-7.1119999999999965,2.4901960784313744,-9.524999999999999,8.466666666666669,0.4980392156862763,-4.70370370370372,8.421773030383328,56.605949428726284,32.220603217872444,17.263150945759328,61.3161828848772,2142.696491255896,1
-28.222222222222214,-34.43011699584854,-35.244552637880126,114.35231954146514,-126.47449311343618,28.674985145573345,23.585254623764854,25.17117117117118,9.407407407407403,-7.1119999999999965,2.4901960784313744,-9.524999999999999,8.466666666666669,0.4980392156862763,-4.70370370370372,8.421773030383328,56.605949428726284,32.63229728531696,14.752397900350452,61.34232972506461,2107.710091604919,1
-28.222222222222214,-34.43011699584854,-35.244552637880126,114.35231954146514,-126.47449311343618,28.674985145573345,23.585254623764854,21.73873873873875,14.111111111111105,19.304000000000002,-10.458823529411763,1.0583333333333353,-9.462745098039214,-0.49803921568627274,-8.231481481481497,10.607909063475242,58.88209877774337,32.63229728531696,14.752397900350452,61.34232972506461,2107.710091604919,1
-28.222222222222214,-34.43011699584854,-35.244552637880126,114.35231954146514,-126.47449311343618,28.674985145573345,23.585254623764854,13.72972972972974,-10.583333333333336,-17.272,2.4901960784313744,-25.4,5.4784313725490215,2.4901960784313744,-7.055555555555571,10.562430268503803,63.381595571308154,32.63229728531696,14.752397900350452,61.34232972506461,2107.710091604919,1
-27.304252815599252,-34.46207070071708,-34.39308803575705,114.48880530180907,-126.5045220783827,28.712715389185945,23.520901950848724,13.72972972972974,-10.583333333333336,-17.272,2.4901960784313744,-25.4,5.4784313725490215,2.4901960784313744,-7.055555555555571,10.562430268503803,63.381595571308154,32.05313718402446,16.915116710521218,61.11465467942773,2136.601155647503,1
-27.304252815599252,-34.46207070071708,-34.39308803575705,114.48880530180907,-126.5045220783827,28.712715389185945,23.520901950848724,9.153153153153163,-32.925925925925924,-19.303999999999995,0.4980392156862763,4.233333333333336,-2.490196078431371,-2.490196078431371,-11.759259259259274,10.356762880527588,121.61320190469469,32.05313718402446,16.915116710521218,61.11465467942773,2136.601155647503,1
-27.304252815599252,-34.46207070071708,-34.39308803575705,114.48880530180907,-126.5045220783827,28.712715389185945,23.520901950848724,22.882882882882893,1.1759259259259218,1.0160000000000036,-2.490196078431371,-9.524999999999999,-0.49803921568627274,2.4901960784313744,-5.879629629629646,5.744733726373434,57.13878968279863,32.05313718402446,16.915116710521218,61.11465467942773,2136.601155647503,1
-27.795259707513857,-35.324820732167574,-34.02817463484716,114.534300555257,-126.59460897322222,28.976827094474118,23.585254623764854,22.882882882882893,1.1759259259259218,1.0160000000000036,-2.490196078431371,-9.524999999999999,-0.49803921568627274,2.4901960784313744,-5.879629629629646,5.744733726373434,57.13878968279863,32.38275169150953,16.204134802842486,61.29576530742391,2126.176549276499,1
-27.795259707513857,-35.324820732167574,-34.02817463484716,114.534300555257,-126.59460897322222,28.976827094474118,23.585254623764854,16.01801801801803,4.703703703703699,-25.4,-7.470588235294116,-23.28333333333333,-16.435294117647057,-1.4941176470588218,-10.58333333333335,13.17354854854855,73.97202904053547,32.38275169150953,16.204134802842486,61.29576530742391,2126.176549276499,1
-27.795259707513857,-35.324820732167574,-34.02817463484716,114.534300555257,-126.59460897322222,28.976827094474118,23.585254623764854,12.585585585585596,-5.879629629629633,-8.127999999999997,-4.482352941176469,-30.691666666666666,-9.462745098039214,-2.490196078431371,-9.407407407407423,10.390947925867046,77.36726126065265,32.38275169150953,16.204134802842486,61.29576530742391,2126.176549276499,1
-28.841317868549325,-34.90942256887659,-33.68353420065449,114.44331004836107,-126.62463793816872,29.42959001782529,23.392196605016466,12.585585585585596,-5.879629629629633,-8.127999999999997,-4.482352941176469,-30.691666666666666,-9.462745098039214,-2.490196078431371,-9.407407407407423,10.390947925867046,77.36726126065265,32.4780915460268,10.295292658730357,61.01208893929739,2141.547242477075,1
-28.841317868549325,-34.90942256887659,-33.68353420065449,114.44331004836107,-126.62463793816872,29.42959001782529,23.392196605016466,17.162162162162172,12.93518518518518,70.104,4.482352941176472,-15.874999999999998,5.4784313725490215,-3.48627450980392,-16.462962962962976,18.248296141729966,471.1043897022532,32.4780915460268,10.295292658730357,61.01208893929739,2141.547242477075,1
-28.841317868549325,-34.90942256887659,-33.68353420065449,114.44331004836107,-126.62463793816872,29.42959001782529,23.392196605016466,17.162162162162172,-18.814814814814817,-59.943999999999996,10.458823529411767,26.458333333333336,5.4784313725490215,2.4901960784313744,-5.879629629629646,18.335798865041514,347.4889666048002,32.4780915460268,10.295292658730357,61.01208893929739,2141.547242477075,1
-29.054799125903504,-34.90942256887659,-33.84571793439222,114.3068242880172,-126.65466690311521,29.920083184789036,23.134785913351948,17.162162162162172,-18.814814814814817,-59.943999999999996,10.458823529411767,26.458333333333336,5.4784313725490215,2.4901960784313744,-5.879629629629646,18.335798865041514,347.4889666048002,32.6033132097241,9.726831039660757,61.02065493042867,2129.8447504915607,1
-29.054799125903504,-34.90942256887659,-33.84571793439222,114.3068242880172,-126.65466690311521,29.920083184789036,23.134785913351948,24.02702702702704,11.759259259259254,21.336000000000006,8.466666666666669,3.1750000000000025,-24.40392156862745,-4.482352941176469,-4.70370370370372,12.794241395807575,82.97071038915242,32.6033132097241,9.726831039660757,61.02065493042867,2129.8447504915607,1
-29.054799125903504,-34.90942256887659,-33.84571793439222,114.3068242880172,-126.65466690311521,29.920083184789036,23.134785913351948,18.30630630630632,-7.055555555555559,8.128000000000004,6.4745098039215705,-1.0583333333333318,3.4862745098039234,2.4901960784313744,-9.407407407407423,7.050822874344937,29.021017196566216,32.6033132097241,9.726831039660757,61.02065493042867,2129.8447504915607,1
-27.346949067070085,-35.22895961756196,-34.14981243515046,114.48880530180907,-126.75976828042798,30.071004159239436,23.327843932100336,18.30630630630632,-7.055555555555559,8.128000000000004,6.4745098039215705,-1.0583333333333318,3.4862745098039234,2.4901960784313744,-9.407407407407423,7.050822874344937,29.021017196566216,32.241907039927504,18.261599827356964,61.28919245150717,2122.9402452268323,1
-27.346949067070085,-35.22895961756196,-34.14981243515046,114.48880530180907,-126.75976828042798,30.071004159239436,23.327843932100336,20.594594594594604,2.3518518518518476,-30.479999999999997,-0.49803921568627274,5.291666666666668,14.443137254901963,4.482352941176472,-7.055555555555571,10.649649760054174,108.3007083680575,32.241907039927504,18.261599827356964,61.28919245150717,2122.9402452268323,1
-27.346949067070085,-35.22895961756196,-34.14981243515046,114.48880530180907,-126.75976828042798,30.071004159239436,23.327843932100336,21.73873873873875,10.583333333333329,21.336000000000006,5.4784313725490215,-24.341666666666665,6.4745098039215705,0.4980392156862763,-5.879629629629646,12.041293595065657,82.73284315898981,32.241907039927504,18.261599827356964,61.28919245150717,2122.9402452268323,1
-27.282904689863834,-35.005283683482205,-34.271450235453756,114.67078631560094,-126.86486965774074,30.108734402852036,23.585254623764854,21.73873873873875,10.583333333333329,21.336000000000006,5.4784313725490215,-24.341666666666665,6.4745098039215705,0.4980392156862763,-5.879629629629646,12.041293595065657,82.73284315898981,32.186546202933265,18.16890294888472,61.31584007817897,2135.197343881003,1
-27.282904689863834,-35.005283683482205,-34.271450235453756,114.67078631560094,-126.86486965774074,30.108734402852036,23.585254623764854,20.594594594594604,-3.9968028886505635e-15,-44.70399999999999,-3.48627450980392,-5.291666666666664,7.4705882352941195,2.4901960784313744,-4.70370370370372,11.0926279735618,223.21503133262058,32.186546202933265,18.16890294888472,61.31584007817897,2135.197343881003,1
-27.282904689863834,-35.005283683482205,-34.271450235453756,114.67078631560094,-126.86486965774074,30.108734402852036,23.585254623764854,19.45045045045046,1.1759259259259218,22.352000000000004,-4.482352941176469,-22.224999999999998,0.4980392156862763,-0.49803921568627274,-5.879629629629646,9.57017967231938,99.38803720235822,32.186546202933265,18.16890294888472,61.31584007817897,2135.197343881003,1
-26.984030929567986,-34.110579947163174,-34.37281506903984,114.8527673293928,-126.87988414021399,29.995543672014236,23.649607296680983,19.45045045045046,1.1759259259259218,22.352000000000004,-4.482352941176469,-22.224999999999998,0.4980392156862763,-0.49803921568627274,-5.879629629629646,9.57017967231938,99.38803720235822,31.822475315256998,17.575099869840567,61.112054115198596,2166.0653843924865,1
-26.984030929567986,-34.110579947163174,-34.37281506903984,114.8527673293928,-126.87988414021399,29.995543672014236,23.649607296680983,18.30630630630632,-9.40740740740741,-10.159999999999997,6.4745098039215705,-3.174999999999998,-5.478431372549018,-0.49803921568627274,-7.055555555555571,7.56940620767827,28.645785968177993,31.822475315256998,17.575099869840567,61.112054115198596,2166.0653843924865,1
-26.984030929567986,-34.110579947163174,-34.37281506903984,114.8527673293928,-126.87988414021399,29.995543672014236,23.649607296680983,20.594594594594604,4.703703703703699,-14.223999999999997,-8.466666666666665,5.291666666666668,1.4941176470588253,1.4941176470588253,-8.231481481481497,8.062543550903847,42.92224371260069,31.822475315256998,17.575099869840567,61.112054115198596,2166.0653843924865,1
-26.66380904353672,-34.46207070071708,-34.494452869343135,115.08024359663261,-126.93994207010701,29.844622697563835,23.778312642513242,20.594594594594604,4.703703703703699,-14.223999999999997,-8.466666666666665,5.291666666666668,1.4941176470588253,1.4941176470588253,-8.231481481481497,8.062543550903847,42.92224371260069,31.87344420453231,20.3554860342224,61.34558905556427,2165.560086137178,1
-26.66380904353672,-34.46207070071708,-34.494452869343135,115.08024359663261,-126.93994207010701,29.844622697563835,23.778312642513242,21.73873873873875,7.055555555555551,-51.815999999999995,-25.4,-61.38333333333333,-17.431372549019606,-3.48627450980392,-11.759259259259274,25.008816743213806,438.7264016173531,31.87344420453231,20.3554860342224,61.34558905556427,2165.560086137178,1
-26.66380904353672,-34.46207070071708,-34.494452869343135,115.08024359663261,-126.93994207010701,29.844622697563835,23.778312642513242,14.873873873873883,4.703703703703699,-33.528,-0.49803921568627274,5.291666666666668,-5.478431372549018,-3.48627450980392,-11.759259259259274,9.952406075192842,111.9682744033209,31.87344420453231,20.3554860342224,61.34558905556427,2165.560086137178,1
-26.66380904353672,-34.01471883255756,-34.534998802777565,115.35321511732042,-127.0,29.618241235888263,23.971370661261744,14.873873873873883,4.703703703703699,-33.528,-0.49803921568627274,5.291666666666668,-5.478431372549018,-3.48627450980392,-11.759259259259274,9.952406075192842,111.9682744033209,31.737842226290613,19.377032366618756,61.300977584218515,2191.3009595630056,1
-26.66380904353672,-34.01471883255756,-34.534998802777565,115.35321511732042,-127.0,29.618241235888263,23.971370661261744,16.01801801801803,-1.17592592592593,14.224000000000004,11.454901960784316,20.108333333333334,8.466666666666669,3.4862745098039234,-5.879629629629646,10.101718755520231,42.55607883473973,31.737842226290613,19.377032366618756,61.300977584218515,2191.3009595630056,1
-26.66380904353672,-34.01471883255756,-34.534998802777565,115.35321511732042,-127.0,29.618241235888263,23.971370661261744,22.882882882882893,16.46296296296296,60.96000000000001,5.4784313725490215,-21.166666666666664,-0.49803921568627274,-0.49803921568627274,-5.879629629629646,16.72833149325797,397.88394299269487,31.737842226290613,19.377032366618756,61.300977584218515,2191.3009595630056,1
-27.282904689863834,-33.82299660334634,-34.494452869343135,115.44420562421635,-126.98498551752675,29.46732026143789,24.035723334177874,22.882882882882893,16.46296296296296,60.96000000000001,5.4784313725490215,-21.166666666666664,-0.49803921568627274,-0.49803921568627274,-5.879629629629646,16.72833149325797,397.88394299269487,31.866784720851104,15.871680483149474,61.253885032301945,2202.555847770134,1
-27.282904689863834,-33.82299660334634,-34.494452869343135,115.44420562421635,-126.98498551752675,29.46732026143789,24.035723334177874,18.30630630630632,-3.9968028886505635e-15,-19.303999999999995,-4.482352941176469,-15.874999999999998,6.4745098039215705,0.4980392156862763,-5.879629629629646,8.852479737090036,61.38265204970331,31.866784720851104,15.871680483149474,61.253885032301945,2202.555847770134,1
-27.282904689863834,-33.82299660334634,-34.494452869343135,115.44420562421635,-126.98498551752675,29.46732026143789,24.035723334177874,18.30630630630632,-7.055555555555559,-20.319999999999997,1.4941176470588253,30.69166666666667,-19.423529411764704,-2.490196078431371,-8.231481481481497,13.501606643408117,104.98567259585577,31.866784720851104,15.871680483149474,61.253885032301945,2202.555847770134,1
-28.286266599428465,-34.46207070071708,-34.575544736211995,115.26222461042448,-126.95495655258026,29.655971479500863,23.907017988345615,18.30630630630632,-7.055555555555559,-20.319999999999997,1.4941176470588253,30.69166666666667,-19.423529411764704,-2.490196078431371,-8.231481481481497,13.501606643408117,104.98567259585577,32.44129401211918,12.951408689341342,61.43328001578451,2173.169676218797,1
-28.286266599428465,-34.46207070071708,-34.575544736211995,115.26222461042448,-126.95495655258026,29.655971479500863,23.907017988345615,19.45045045045046,1.1759259259259218,33.528000000000006,11.454901960784316,1.0583333333333353,2.4901960784313744,-2.490196078431371,-9.407407407407423,10.131926404345526,130.83120896096287,32.44129401211918,12.951408689341342,61.43328001578451,2173.169676218797,1
-28.286266599428465,-34.46207070071708,-34.575544736211995,115.26222461042448,-126.95495655258026,29.655971479500863,23.907017988345615,16.01801801801803,-1.17592592592593,-28.447999999999997,-4.482352941176469,-7.408333333333331,16.43529411764706,0.4980392156862763,-8.231481481481497,10.337180629158574,89.35558485299346,32.44129401211918,12.951408689341342,61.43328001578451,2173.169676218797,1
-27.645822827365933,-34.270348471505855,-34.61609066964643,115.30771986387248,-126.95495655258026,29.806892453951264,23.713959969597113,16.01801801801803,-1.17592592592593,-28.447999999999997,-4.482352941176469,-7.408333333333331,16.43529411764706,0.4980392156862763,-8.231481481481497,10.337180629158574,89.35558485299346,32.177420656172735,15.431418578428696,61.398053001674924,2179.7190203117348,1
-27.645822827365933,-34.270348471505855,-34.61609066964643,115.30771986387248,-126.95495655258026,29.806892453951264,23.713959969597113,30.891891891891902,59.972222222222214,68.072,-33.36862745098039,-8.466666666666665,3.4862745098039234,1.4941176470588253,-3.5277777777777937,26.159947270800213,703.1446190286671,32.177420656172735,15.431418578428696,61.398053001674924,2179.7190203117348,1
-27.645822827365933,-34.270348471505855,-34.61609066964643,115.30771986387248,-126.95495655258026,29.806892453951264,23.713959969597113,19.45045045045046,9.407407407407403,15.240000000000002,5.4784313725490215,-17.991666666666667,-1.4941176470588218,2.4901960784313744,-7.055555555555571,9.825978147264916,48.372253206877645,32.177420656172735,15.431418578428696,61.398053001674924,2179.7190203117348,1
-26.599764666330465,-33.72713548874073,-34.59581770292922,115.58069138456028,-126.9699710350535,29.50505050505049,23.842665315429485,19.45045045045046,9.407407407407403,15.240000000000002,5.4784313725490215,-17.991666666666667,-1.4941176470588218,2.4901960784313744,-7.055555555555571,9.825978147264916,48.372253206877645,31.640905952666802,19.24848129891545,61.30121485874341,2209.8848311348406,1
-26.599764666330465,-33.72713548874073,-34.59581770292922,115.58069138456028,-126.9699710350535,29.50505050505049,23.842665315429485,12.585585585585596,-19.990740740740744,-24.383999999999997,12.450980392156865,-1.0583333333333318,2.4901960784313744,1.4941176470588253,-8.231481481481497,10.335679407348529,75.76195985804053,31.640905952666802,19.24848129891545,61.30121485874341,2209.8848311348406,1
-26.599764666330465,-33.72713548874073,-34.59581770292922,115.58069138456028,-126.9699710350535,29.50505050505049,23.842665315429485,28.603603603603617,43.50925925925925,34.544000000000004,-7.470588235294116,-26.458333333333332,0.4980392156862763,-1.4941176470588218,-7.055555555555571,18.704187106223877,273.4073114463871,31.640905952666802,19.24848129891545,61.30121485874341,2209.8848311348406,1
-27.85930408472011,-33.63127437413512,-34.67690956979808,115.39871037076841,-126.89489862268724,29.39185977421269,23.713959969597113,28.603603603603617,43.50925925925925,34.544000000000004,-7.470588235294116,-26.458333333333332,0.4980392156862763,-1.4941176470588218,-7.055555555555571,18.704187106223877,273.4073114463871,32.05582934288444,13.481456422410638,61.23563143823387,2200.502677829578,1
-27.85930408472011,-33.63127437413512,-34.67690956979808,115.39871037076841,-126.89489862268724,29.39185977421269,23.713959969597113,17.162162162162172,-2.3518518518518556,-13.207999999999997,-3.48627450980392,-16.93333333333333,-16.435294117647057,-0.49803921568627274,-5.879629629629646,9.49432310251428,51.03053998927844,32.05582934288444,13.481456422410638,61.23563143823387,2200.502677829578,1
-27.85930408472011,-33.63127437413512,-34.67690956979808,115.39871037076841,-126.89489862268724,29.39185977421269,23.713959969597113,16.01801801801803,-18.814814814814817,-41.656,9.462745098039218,5.291666666666668,0.4980392156862763,1.4941176470588253,-8.231481481481497,12.683360367720667,178.09120726953572,32.05582934288444,13.481456422410638,61.23563143823387,2200.502677829578,1
-28.478399731047226,-33.950811422820486,-34.92018517040467,115.12573885008061,-126.819826210321,29.46732026143789,23.649607296680983,16.01801801801803,-18.814814814814817,-41.656,9.462745098039218,5.291666666666668,0.4980392156862763,1.4941176470588253,-8.231481481481497,12.683360367720667,178.09120726953572,32.44979877475746,12.06392913891328,61.33224514776859,2170.5398948911384,1
-28.478399731047226,-33.950811422820486,-34.92018517040467,115.12573885008061,-126.819826210321,29.46732026143789,23.649607296680983,17.162162162162172,5.879629629629625,37.592000000000006,7.4705882352941195,-15.874999999999998,8.466666666666669,-0.49803921568627274,-10.58333333333335,12.940927405346526,127.7560353298493,32.44979877475746,12.06392913891328,61.33224514776859,2170.5398948911384,1
-28.478399731047226,-33.950811422820486,-34.92018517040467,115.12573885008061,-126.819826210321,29.46732026143789,23.649607296680983,26.315315315315324,34.10185185185185,80.26400000000001,-0.49803921568627274,-3.174999999999998,9.462745098039218,3.4862745098039234,-1.1759259259259425,19.80989398957782,753.0993916336331,32.44979877475746,12.06392913891328,61.33224514776859,2170.5398948911384,1
-28.670532862665986,-33.82299660334634,-34.85936627025302,114.8527673293928,-126.71472483300823,29.655971479500863,23.263491259184207,26.315315315315324,34.10185185185185,80.26400000000001,-0.49803921568627274,-3.174999999999998,9.462745098039218,3.4862745098039234,-1.1759259259259425,19.80989398957782,753.0993916336331,32.45096524542178,10.987267272062562,61.17837673433072,2160.973669835088,1
-28.670532862665986,-33.82299660334634,-34.85936627025302,114.8527673293928,-126.71472483300823,29.655971479500863,23.263491259184207,16.01801801801803,-2.3518518518518556,-18.287999999999997,-3.48627450980392,-21.166666666666664,2.4901960784313744,1.4941176470588253,-4.70370370370372,8.7498535594418,67.83139059788694,32.45096524542178,10.987267272062562,61.17837673433072,2160.973669835088,1
-28.670532862665986,-33.82299660334634,-34.85936627025302,114.8527673293928,-126.71472483300823,29.655971479500863,23.263491259184207,17.162162162162172,-15.287037037037038,-74.16799999999999,-8.466666666666665,-22.224999999999998,3.4862745098039234,-0.49803921568627274,-11.759259259259274,19.131554856326918,545.3302580679875,32.45096524542178,10.987267272062562,61.17837673433072,2160.973669835088,1
-27.346949067070085,-34.07862624229463,-34.77827440338416,114.8527673293928,-126.72973931548148,29.655971479500863,23.327843932100336,17.162162162162172,-15.287037037037038,-74.16799999999999,-8.466666666666665,-22.224999999999998,3.4862745098039234,-0.49803921568627274,-11.759259259259274,19.131554856326918,545.3302580679875,32.06794990424962,16.838263565816433,61.23655599169053,2156.145965544194,1
-27.346949067070085,-34.07862624229463,-34.77827440338416,114.8527673293928,-126.72973931548148,29.655971479500863,23.327843932100336,18.30630630630632,-10.583333333333336,-9.143999999999997,0.4980392156862763,-8.466666666666665,2.4901960784313744,0.4980392156862763,-7.055555555555571,7.130267046458227,36.02533386657474,32.06794990424962,16.838263565816433,61.23655599169053,2156.145965544194,1
-27.346949067070085,-34.07862624229463,-34.77827440338416,114.8527673293928,-126.72973931548148,29.655971479500863,23.327843932100336,12.585585585585596,-9.40740740740741,-19.303999999999995,-5.478431372549018,-15.874999999999998,0.4980392156862763,-1.4941176470588218,-7.055555555555571,8.962267097980337,44.46471035451299,32.06794990424962,16.838263565816433,61.23655599169053,2156.145965544194,1
-27.47503782148259,-33.72713548874073,-34.65663660308086,114.89826258284074,-126.68469586806171,29.580510992275663,23.134785913351948,12.585585585585596,-9.40740740740741,-19.303999999999995,-5.478431372549018,-15.874999999999998,0.4980392156862763,-1.4941176470588218,-7.055555555555571,8.962267097980337,44.46471035451299,31.95293663776806,15.254676437057995,61.09401155822078,2171.389064320629,1
-27.47503782148259,-33.72713548874073,-34.65663660308086,114.89826258284074,-126.68469586806171,29.580510992275663,23.134785913351948,19.45045045045046,1.1759259259259218,-32.512,-2.490196078431371,-7.408333333333331,-5.478431372549018,-1.4941176470588218,-8.231481481481497,9.780117036153802,118.94497415650484,31.95293663776806,15.254676437057995,61.09401155822078,2171.389064320629,1
-27.47503782148259,-33.72713548874073,-34.65663660308086,114.89826258284074,-126.68469586806171,29.580510992275663,23.134785913351948,13.72972972972974,-23.51851851851852,-22.351999999999997,0.4980392156862763,-32.80833333333333,-3.48627450980392,-0.49803921568627274,-10.58333333333335,13.434283482011427,142.63459871299284,31.95293663776806,15.254676437057995,61.09401155822078,2171.389064320629,1
-28.179525970751378,-33.66322807900366,-34.85936627025302,114.67078631560094,-126.59460897322222,29.618241235888263,22.941727894603446,13.72972972972974,-23.51851851851852,-22.351999999999997,0.4980392156862763,-32.80833333333333,-3.48627450980392,-0.49803921568627274,-10.58333333333335,13.434283482011427,142.63459871299284,32.23404010666935,12.68700030191033,61.06446022161921,2155.5863346138713,1
-28.179525970751378,-33.66322807900366,-34.85936627025302,114.67078631560094,-126.59460897322222,29.618241235888263,22.941727894603446,21.73873873873875,7.055555555555551,10.160000000000004,11.454901960784316,-6.349999999999998,-1.4941176470588218,0.4980392156862763,-14.111111111111127,9.107808028616855,47.87186511206981,32.23404010666935,12.68700030191033,61.06446022161921,2155.5863346138713,1
-28.179525970751378,-33.66322807900366,-34.85936627025302,114.67078631560094,-126.59460897322222,29.618241235888263,22.941727894603446,14.873873873873883,-5.879629629629633,21.336000000000006,-9.462745098039214,-7.408333333333331,-2.490196078431371,-2.490196078431371,-12.935185185185201,9.609519909615502,42.347456830357274,32.23404010666935,12.68700030191033,61.06446022161921,2155.5863346138713,1
-28.030089090603454,-33.120015096238525,-34.89991220368746,114.62529106215294,-126.48950759590946,29.580510992275663,22.6199645300228,14.873873873873883,-5.879629629629633,21.336000000000006,-9.462745098039214,-7.408333333333331,-2.490196078431371,-2.490196078431371,-12.935185185185201,9.609519909615502,42.347456830357274,32.01667213017648,12.711641676834741,60.8817394540263,2167.0690130198045,1
-28.030089090603454,-33.120015096238525,-34.89991220368746,114.62529106215294,-126.48950759590946,29.580510992275663,22.6199645300228,17.162162162162172,-3.5277777777777812,-33.528,1.4941176470588253,-2.1166666666666645,8.466666666666669,-0.49803921568627274,-7.055555555555571,9.231123211446743,125.40410588483057,32.01667213017648,12.711641676834741,60.8817394540263,2167.0690130198045,1
-28.030089090603454,-33.120015096238525,-34.89991220368746,114.62529106215294,-126.48950759590946,29.580510992275663,22.6199645300228,26.315315315315324,36.453703703703695,26.416000000000004,16.43529411764706,-1.0583333333333318,2.4901960784313744,2.4901960784313744,-4.70370370370372,14.545342791320735,190.343336893428,32.01667213017648,12.711641676834741,60.8817394540263,2167.0690130198045,1
-27.47503782148259,-33.56736696439805,-34.9607311038391,114.67078631560094,-126.45947863096293,29.50505050505049,22.49125918419054,26.315315315315324,36.453703703703695,26.416000000000004,16.43529411764706,-1.0583333333333318,2.4901960784313744,2.4901960784313744,-4.70370370370372,14.545342791320735,190.343336893428,32.001045296573245,15.84892365470245,61.066294794612695,2155.5664993240453,1
-27.47503782148259,-33.56736696439805,-34.9607311038391,114.67078631560094,-126.45947863096293,29.50505050505049,22.49125918419054,13.72972972972974,-16.462962962962965,-30.479999999999997,1.4941176470588253,-4.233333333333332,-0.49803921568627274,-1.4941176470588218,-8.231481481481497,9.577972752163932,106.43653546852967,32.001045296573245,15.84892365470245,61.066294794612695,2155.5664993240453,1
-27.47503782148259,-33.56736696439805,-34.9607311038391,114.67078631560094,-126.45947863096293,29.50505050505049,22.49125918419054,11.441441441441452,-24.694444444444446,-13.207999999999997,5.4784313725490215,-1.0583333333333318,-0.49803921568627274,0.4980392156862763,-8.231481481481497,8.138526313077787,69.23931450532575,32.001045296573245,15.84892365470245,61.066294794612695,2155.5664993240453,1
-27.6031265758951,-33.15196880110707,-34.63636363636365,114.8527673293928,-126.41443518354319,29.46732026143789,22.233848492525908,11.441441441441452,-24.694444444444446,-13.207999999999997,5.4784313725490215,-1.0583333333333318,-0.49803921568627274,0.4980392156862763,-8.231481481481497,8.138526313077787,69.23931450532575,31.79715300445527,13.743250269329993,60.88036658895451,2185.3158882715825,1
-27.6031265758951,-33.15196880110707,-34.63636363636365,114.8527673293928,-126.41443518354319,29.46732026143789,22.233848492525908,16.01801801801803,-8.231481481481485,-39.623999999999995,-3.48627450980392,-13.758333333333331,2.4901960784313744,-0.49803921568627274,-5.879629629629646,11.248246533298008,160.66802489065034,31.79715300445527,13.743250269329993,60.88036658895451,2185.3158882715825,1
-27.6031265758951,-33.15196880110707,-34.63636363636365,114.8527673293928,-126.41443518354319,29.46732026143789,22.233848492525908,19.45045045045046,-12.935185185185189,-31.495999999999995,-3.48627450980392,-12.7,-5.478431372549018,-3.48627450980392,-7.055555555555571,12.011021447918509,92.70175130546751,31.79715300445527,13.743250269329993,60.88036658895451,2185.3158882715825,1
-27.923348461926363,-33.34369103031828,-34.67690956979808,114.8527673293928,-126.33936277117692,29.50505050505049,21.84773245502913,19.45045045045046,-12.935185185185189,-31.495999999999995,-3.48627450980392,-12.7,-5.478431372549018,-3.48627450980392,-7.055555555555571,12.011021447918509,92.70175130546751,31.98131635401424,12.79469547841526,60.957789309836386,2178.945859714855,1
-27.923348461926363,-33.34369103031828,-34.67690956979808,114.8527673293928,-126.33936277117692,29.50505050505049,21.84773245502913,14.873873873873883,-11.759259259259263,-6.0959999999999965,10.458823529411767,3.1750000000000025,3.4862745098039234,-1.4941176470588218,-11.759259259259274,7.887826009833366,24.437916499709424,31.98131635401424,12.79469547841526,60.957789309836386,2178.945859714855,1
-27.923348461926363,-33.34369103031828,-34.67690956979808,114.8527673293928,-126.33936277117692,29.50505050505049,21.84773245502913,21.73873873873875,5.879629629629625,1.0160000000000036,4.482352941176472,1.0583333333333353,-12.450980392156861,-0.49803921568627274,-8.231481481481497,6.919444466525352,52.76988131857994,31.98131635401424,12.79469547841526,60.957789309836386,2178.945859714855,1
-27.795259707513857,-33.471505849792436,-34.59581770292922,114.89826258284074,-126.26429035881068,29.580510992275663,21.46161641753224,21.73873873873875,5.879629629629625,1.0160000000000036,4.482352941176472,1.0583333333333353,-12.450980392156861,-0.49803921568627274,-8.231481481481497,6.919444466525352,52.76988131857994,31.954194420078505,13.28857274330735,60.98852871185414,2180.010573816227,1
-27.795259707513857,-33.471505849792436,-34.59581770292922,114.89826258284074,-126.26429035881068,29.580510992275663,21.46161641753224,20.594594594594604,5.879629629629625,8.128000000000004,-2.490196078431371,-9.524999999999999,-8.466666666666665,-1.4941176470588218,-4.70370370370372,7.660238540010601,35.47229731534029,31.954194420078505,13.28857274330735,60.98852871185414,2180.010573816227,1
-27.795259707513857,-33.471505849792436,-34.59581770292922,114.89826258284074,-126.26429035881068,29.580510992275663,21.46161641753224,14.873873873873883,12.93518518518518,2.0320000000000036,-0.49803921568627274,2.116666666666669,9.462745098039218,0.4980392156862763,-9.407407407407423,6.477994582818115,34.28343944124076,31.954194420078505,13.28857274330735,60.98852871185414,2180.010573816227,1
-27.795259707513857,-33.854950308214875,-34.41336100247427,114.98925308973668,-126.2492758763374,29.731431966726063,21.204205725867723,14.873873873873883,12.93518518518518,2.0320000000000036,-0.49803921568627274,2.116666666666669,9.462745098039218,0.4980392156862763,-9.407407407407423,6.477994582818115,34.28343944124076,32.021190339400995,13.471822905007365,61.08585480014194,2179.2602160008796,1
-27.795259707513857,-33.854950308214875,-34.41336100247427,114.98925308973668,-126.2492758763374,29.731431966726063,21.204205725867723,22.882882882882893,15.287037037037031,28.448000000000004,0.4980392156862763,-10.583333333333332,1.4941176470588253,1.4941176470588253,-2.351851851851868,10.379922451863631,118.1310261820322,32.021190339400995,13.471822905007365,61.08585480014194,2179.2602160008796,1
-27.795259707513857,-33.854950308214875,-34.41336100247427,114.98925308973668,-126.2492758763374,29.731431966726063,21.204205725867723,16.01801801801803,1.1759259259259218,-3.0479999999999965,-8.466666666666665,-17.991666666666667,4.482352941176472,3.4862745098039234,-5.879629629629646,7.568566794735915,38.74064810218171,32.021190339400995,13.471822905007365,61.08585480014194,2179.2602160008796,1
-27.77391158177844,-34.3023021763744,-34.190358368584896,115.03474834318467,-126.2492758763374,29.882352941176435,21.011147707119335,16.01801801801803,1.1759259259259218,-3.0479999999999965,-8.466666666666665,-17.991666666666667,4.482352941176472,3.4862745098039234,-5.879629629629646,7.568566794735915,38.74064810218171,32.088857375579245,13.967200756605047,61.17580296271465,2175.5926309763654,1
-27.77391158177844,-34.3023021763744,-34.190358368584896,115.03474834318467,-126.2492758763374,29.882352941176435,21.011147707119335,19.45045045045046,11.759259259259254,-4.0639999999999965,-11.454901960784312,-23.28333333333333,1.4941176470588253,-1.4941176470588218,-9.407407407407423,10.300948463169053,64.36178034038922,32.088857375579245,13.967200756605047,61.17580296271465,2175.5926309763654,1
-27.77391158177844,-34.3023021763744,-34.190358368584896,115.03474834318467,-126.2492758763374,29.882352941176435,21.011147707119335,19.45045045045046,-3.5277777777777812,1.0160000000000036,2.4901960784313744,-14.816666666666665,10.458823529411767,3.4862745098039234,-8.231481481481497,7.934708811752934,43.30767684764838,32.088857375579245,13.967200756605047,61.17580296271465,2175.5926309763654,1
-27.624474701630515,-34.525978110454155,-34.02817463484716,115.21672935697654,-126.27930484128393,30.108734402852036,20.818089688370947,19.45045045045046,-3.5277777777777812,1.0160000000000036,2.4901960784313744,-14.816666666666665,10.458823529411767,3.4862745098039234,-8.231481481481497,7.934708811752934,43.30767684764838,32.05954248231061,14.814321739501601,61.256960700759294,2183.8044271494464,1
-27.624474701630515,-34.525978110454155,-34.02817463484716,115.21672935697654,-126.27930484128393,30.108734402852036,20.818089688370947,14.873873873873883,-7.055555555555559,-6.0959999999999965,-5.478431372549018,-21.166666666666664,-14.44313725490196,-1.4941176470588218,-7.055555555555571,9.707917240770184,41.84048579578895,32.05954248231061,14.814321739501601,61.256960700759294,2183.8044271494464,1
-27.624474701630515,-34.525978110454155,-34.02817463484716,115.21672935697654,-126.27930484128393,30.108734402852036,20.818089688370947,25.17117117117118,-3.9968028886505635e-15,20.320000000000004,-2.490196078431371,19.05,-1.4941176470588218,-2.490196078431371,-7.055555555555571,9.75890456633104,101.70263088702833,32.05954248231061,14.814321739501601,61.256960700759294,2183.8044271494464,1
-27.048075306774237,-34.3023021763744,-33.967355734695516,115.48970087766435,-126.32434828870367,30.108734402852036,20.818089688370947,25.17117117117118,-3.9968028886505635e-15,20.320000000000004,-2.490196078431371,19.05,-1.4941176470588218,-2.490196078431371,-7.055555555555571,9.75890456633104,101.70263088702833,31.772577739281385,16.768739705772795,61.253119596244744,2206.233109101724,1
-27.048075306774237,-34.3023021763744,-33.967355734695516,115.48970087766435,-126.32434828870367,30.108734402852036,20.818089688370947,24.02702702702704,22.342592592592588,28.448000000000004,14.443137254901963,2.116666666666669,10.458823529411767,-0.49803921568627274,-7.055555555555571,13.673730230230234,108.93019666602119,31.772577739281385,16.768739705772795,61.253119596244744,2206.233109101724,1
-27.048075306774237,-34.3023021763744,-33.967355734695516,115.48970087766435,-126.32434828870367,30.108734402852036,20.818089688370947,21.73873873873875,15.287037037037031,-62.992,-6.474509803921567,-16.93333333333333,-3.48627450980392,3.4862745098039234,-4.70370370370372,16.88773395454278,395.3977093991504,31.772577739281385,16.768739705772795,61.253119596244744,2206.233109101724,1
-27.795259707513857,-34.49402440558561,-34.02817463484716,115.58069138456028,-126.33936277117692,30.33511586452761,20.625031669622444,21.73873873873875,15.287037037037031,-62.992,-6.474509803921567,-16.93333333333333,-3.48627450980392,3.4862745098039234,-4.70370370370372,16.88773395454278,395.3977093991504,32.10581958264888,13.989948830067295,61.36763014166436,2204.3462609967128,1
-27.795259707513857,-34.49402440558561,-34.02817463484716,115.58069138456028,-126.33936277117692,30.33511586452761,20.625031669622444,14.873873873873883,-5.879629629629633,31.496000000000002,10.458823529411767,-4.233333333333332,-1.4941176470588218,1.4941176470588253,-8.231481481481497,9.77017214273097,97.66860545796044,32.10581958264888,13.989948830067295,61.36763014166436,2204.3462609967128,1
-27.795259707513857,-34.49402440558561,-34.02817463484716,115.58069138456028,-126.33936277117692,30.33511586452761,20.625031669622444,17.162162162162172,-14.111111111111114,-10.159999999999997,7.4705882352941195,20.108333333333334,-0.49803921568627274,-3.48627450980392,-5.879629629629646,9.85951727462757,46.619310769498085,32.10581958264888,13.989948830067295,61.36763014166436,2204.3462609967128,1
-27.88065221045553,-34.845515159139524,-34.10926650171603,115.53519613111229,-126.35437725365017,30.59922756981578,20.431973650874056,17.162162162162172,-14.111111111111114,-10.159999999999997,7.4705882352941195,20.108333333333334,-0.49803921568627274,-3.48627450980392,-5.879629629629646,9.85951727462757,46.619310769498085,32.278477957103696,14.641168994800585,61.49665926398928,2190.258115575949,1
-27.88065221045553,-34.845515159139524,-34.10926650171603,115.53519613111229,-126.35437725365017,30.59922756981578,20.431973650874056,24.02702702702704,15.287037037037031,2.0320000000000036,2.4901960784313744,22.225,-1.4941176470588218,1.4941176470588253,-11.759259259259274,10.101094336984046,91.68005051629079,32.278477957103696,14.641168994800585,61.49665926398928,2190.258115575949,1
-27.88065221045553,-34.845515159139524,-34.10926650171603,115.53519613111229,-126.35437725365017,30.59922756981578,20.431973650874056,10.297297297297307,-38.80555555555556,-41.656,1.4941176470588253,-7.408333333333331,-8.466666666666665,-2.490196078431371,-10.58333333333335,15.15018748895955,251.13008824545395,32.278477957103696,14.641168994800585,61.49665926398928,2190.258115575949,1
-27.19751218692216,-34.49402440558561,-34.453906935908705,115.62618663800822,-126.36939173612342,30.56149732620318,20.431973650874056,10.297297297297307,-38.80555555555556,-41.656,1.4941176470588253,-7.408333333333331,-8.466666666666665,-2.490196078431371,-10.58333333333335,15.15018748895955,251.13008824545395,32.04848117613883,17.649327453599636,61.524705993167515,2195.2280583258985,1
-27.19751218692216,-34.49402440558561,-34.453906935908705,115.62618663800822,-126.36939173612342,30.56149732620318,20.431973650874056,24.02702702702704,21.16666666666666,26.416000000000004,3.4862745098039234,-2.1166666666666645,-2.490196078431371,-1.4941176470588218,-5.879629629629646,10.884572278160517,119.28249263952213,32.04848117613883,17.649327453599636,61.524705993167515,2195.2280583258985,1
-27.19751218692216,-34.49402440558561,-34.453906935908705,115.62618663800822,-126.36939173612342,30.56149732620318,20.431973650874056,22.882882882882893,34.10185185185185,7.112000000000004,3.4862745098039234,-10.583333333333332,0.4980392156862763,0.4980392156862763,-9.407407407407423,11.071228552081497,138.53183059854422,32.04848117613883,17.649327453599636,61.524705993167515,2195.2280583258985,1
-27.346949067070085,-34.39816329098,-34.33226913560541,115.71717714490416,-126.3844062185967,30.59922756981578,20.431973650874056,22.882882882882893,34.10185185185185,7.112000000000004,3.4862745098039234,-10.583333333333332,0.4980392156862763,0.4980392156862763,-9.407407407407423,11.071228552081497,138.53183059854422,32.0257938312185,16.419776755177395,61.48253652382985,2206.04826798274,1
-27.346949067070085,-34.39816329098,-34.33226913560541,115.71717714490416,-126.3844062185967,30.59922756981578,20.431973650874056,13.72972972972974,-11.759259259259263,2.0320000000000036,3.4862745098039234,-10.583333333333332,4.482352941176472,-0.49803921568627274,-7.055555555555571,6.703318068068072,23.674335050530754,32.0257938312185,16.419776755177395,61.48253652382985,2206.04826798274,1
-27.346949067070085,-34.39816329098,-34.33226913560541,115.71717714490416,-126.3844062185967,30.59922756981578,20.431973650874056,14.873873873873883,-19.990740740740744,-29.464,-19.423529411764704,-50.8,6.4745098039215705,0.4980392156862763,-8.231481481481497,18.719521815933582,250.49475167040166,32.0257938312185,16.419776755177395,61.48253652382985,2206.04826798274,1
-27.304252815599252,-34.55793181532269,-34.35254210232262,115.76267239835215,-126.41443518354319,30.59922756981578,20.496326323790186,14.873873873873883,-19.990740740740744,-29.464,-19.423529411764704,-50.8,6.4745098039215705,0.4980392156862763,-8.231481481481497,18.719521815933582,250.49475167040166,32.071575577748185,17.056070972429083,61.55771543866582,2203.6435654846373,1
-27.304252815599252,-34.55793181532269,-34.35254210232262,115.76267239835215,-126.41443518354319,30.59922756981578,20.496326323790186,22.882882882882893,5.879629629629625,-20.319999999999997,-2.490196078431371,-8.466666666666665,-4.482352941176469,-1.4941176470588218,-9.407407407407423,9.427906656656658,64.10344181646505,32.071575577748185,17.056070972429083,61.55771543866582,2203.6435654846373,1
-27.304252815599252,-34.55793181532269,-34.35254210232262,115.76267239835215,-126.41443518354319,30.59922756981578,20.496326323790186,13.72972972972974,4.703703703703699,7.112000000000004,3.4862745098039234,6.350000000000001,3.4862745098039234,-1.4941176470588218,-11.759259259259274,6.515169919919924,18.110660583624334,32.071575577748185,17.056070972429083,61.55771543866582,2203.6435654846373,1
-27.816607833249275,-34.23839476663732,-34.47417990262592,115.76267239835215,-126.39942070106994,30.63695781342838,20.431973650874056,13.72972972972974,4.703703703703699,7.112000000000004,3.4862745098039234,6.350000000000001,3.4862745098039234,-1.4941176470588218,-11.759259259259274,6.515169919919924,18.110660583624334,32.17639416750417,14.269701317855102,61.491749022538464,2209.0137417051687,1
-27.816607833249275,-34.23839476663732,-34.47417990262592,115.76267239835215,-126.39942070106994,30.63695781342838,20.431973650874056,16.01801801801803,-23.51851851851852,38.608000000000004,-12.450980392156861,-23.28333333333333,-6.474509803921567,-1.4941176470588218,-8.231481481481497,16.259869899311077,142.03682876465098,32.17639416750417,14.269701317855102,61.491749022538464,2209.0137417051687,1
-27.816607833249275,-34.23839476663732,-34.47417990262592,115.76267239835215,-126.39942070106994,30.63695781342838,20.431973650874056,21.73873873873875,21.16666666666666,28.448000000000004,0.4980392156862763,-8.466666666666665,-6.474509803921567,0.4980392156862763,-7.055555555555571,11.79327698286522,111.5884085337235,32.17639416750417,14.269701317855102,61.491749022538464,2209.0137417051687,1
-27.731215330307606,-34.49402440558561,-34.25117726873654,115.76267239835215,-126.39942070106994,30.825609031491354,20.238915632125668,21.73873873873875,21.16666666666666,28.448000000000004,0.4980392156862763,-8.466666666666665,-6.474509803921567,0.4980392156862763,-7.055555555555571,11.79327698286522,111.5884085337235,32.158805668209915,14.717410833183392,61.50262469089143,2208.1293265949034,1
-27.731215330307606,-34.49402440558561,-34.25117726873654,115.76267239835215,-126.39942070106994,30.825609031491354,20.238915632125668,18.30630630630632,9.407407407407403,8.128000000000004,4.482352941176472,-4.233333333333332,-5.478431372549018,-1.4941176470588218,-8.231481481481497,7.470178811164109,25.895923024353102,32.158805668209915,14.717410833183392,61.50262469089143,2208.1293265949034,1
-27.731215330307606,-34.49402440558561,-34.25117726873654,115.76267239835215,-126.39942070106994,30.825609031491354,20.238915632125668,22.882882882882893,10.583333333333329,31.496000000000002,6.4745098039215705,-30.691666666666666,0.4980392156862763,-1.4941176470588218,-7.055555555555571,13.897013138138142,159.82492442335797,32.158805668209915,14.717410833183392,61.50262469089143,2208.1293265949034,1
-27.02672718103882,-35.22895961756196,-34.37281506903984,115.89915815869603,-126.47449311343618,30.863339275103954,20.431973650874056,22.882882882882893,10.583333333333329,31.496000000000002,6.4745098039215705,-30.691666666666666,0.4980392156862763,-1.4941176470588218,-7.055555555555571,13.897013138138142,159.82492442335797,32.20950062254687,20.329101281491965,61.83364428176594,2192.4930889543807,1
-27.02672718103882,-35.22895961756196,-34.37281506903984,115.89915815869603,-126.47449311343618,30.863339275103954,20.431973650874056,10.297297297297307,-8.231481481481485,-13.207999999999997,-14.44313725490196,-9.524999999999999,-0.49803921568627274,-4.482352941176469,-10.58333333333335,8.908580190484605,20.716684154936804,32.20950062254687,20.329101281491965,61.83364428176594,2192.4930889543807,1
-27.02672718103882,-35.22895961756196,-34.37281506903984,115.89915815869603,-126.47449311343618,30.863339275103954,20.431973650874056,24.02702702702704,16.46296296296296,1.0160000000000036,8.466666666666669,7.408333333333335,6.4745098039215705,1.4941176470588253,-4.70370370370372,8.756665143084264,61.25289976447281,32.20950062254687,20.329101281491965,61.83364428176594,2192.4930889543807,1
-27.19751218692216,-34.941376273745135,-34.67690956979808,115.85366290524809,-126.47449311343618,30.825609031491354,20.496326323790186,24.02702702702704,16.46296296296296,1.0160000000000036,8.466666666666669,7.408333333333335,6.4745098039215705,1.4941176470588253,-4.70370370370372,8.756665143084264,61.25289976447281,32.27193267682179,19.32979314060906,61.823982916263766,2189.4222254434135,1
-27.19751218692216,-34.941376273745135,-34.67690956979808,115.85366290524809,-126.47449311343618,30.825609031491354,20.496326323790186,18.30630630630632,2.3518518518518476,-37.592,2.4901960784313744,-2.1166666666666645,3.4862745098039234,2.4901960784313744,-5.879629629629646,9.339140140140143,159.95154265587567,32.27193267682179,19.32979314060906,61.823982916263766,2189.4222254434135,1
-27.19751218692216,-34.941376273745135,-34.67690956979808,115.85366290524809,-126.47449311343618,30.825609031491354,20.496326323790186,18.30630630630632,4.703703703703699,26.416000000000004,-6.474509803921567,-1.0583333333333318,1.4941176470588253,-0.49803921568627274,-10.58333333333335,8.691792917917923,86.88562054034017,32.27193267682179,19.32979314060906,61.823982916263766,2189.4222254434135,1
-27.624474701630515,-34.525978110454155,-34.839093303535805,115.71717714490416,-126.45947863096293,30.787878787878753,20.560678996706315,18.30630630630632,4.703703703703699,26.416000000000004,-6.474509803921567,-1.0583333333333318,1.4941176470588253,-0.49803921568627274,-10.58333333333335,8.691792917917923,86.88562054034017,32.32984870520682,16.629918666183453,61.694082852964705,2188.89554793787,1
-27.624474701630515,-34.525978110454155,-34.839093303535805,115.71717714490416,-126.45947863096293,30.787878787878753,20.560678996706315,18.30630630630632,-12.935185185185189,-12.191999999999997,-0.49803921568627274,5.291666666666668,-6.474509803921567,-1.4941176470588218,-10.58333333333335,8.471894769769772,37.32987297073881,32.32984870520682,16.629918666183453,61.694082852964705,2188.89554793787,1
-27.624474701630515,-34.525978110454155,-34.839093303535805,115.71717714490416,-126.45947863096293,30.787878787878753,20.560678996706315,12.585585585585596,-30.574074074074076,-44.70399999999999,10.458823529411767,14.81666666666667,6.4745098039215705,-1.4941176470588218,-9.407407407407423,16.31439808926574,203.41621221464695,32.32984870520682,16.629918666183453,61.694082852964705,2188.89554793787,1
-27.005379055303404,-34.36620958611147,-34.494452869343135,115.71717714490416,-126.45947863096293,30.787878787878753,20.560678996706315,12.585585585585596,-30.574074074074076,-44.70399999999999,10.458823529411767,14.81666666666667,6.4745098039215705,-1.4941176470588218,-9.407407407407423,16.31439808926574,203.41621221464695,31.95534717025267,18.38074983918429,61.52594653345292,2202.5212179725404,1
-27.005379055303404,-34.36620958611147,-34.494452869343135,115.71717714490416,-126.45947863096293,30.787878787878753,20.560678996706315,20.594594594594604,12.93518518518518,4.064000000000004,6.4745098039215705,15.875000000000004,7.4705882352941195,1.4941176470588253,-5.879629629629646,9.348453136960494,42.19583610949006,31.95534717025267,18.38074983918429,61.52594653345292,2202.5212179725404,1
-27.005379055303404,-34.36620958611147,-34.494452869343135,115.71717714490416,-126.45947863096293,30.787878787878753,20.560678996706315,20.594594594594604,-2.3518518518518556,-19.303999999999995,-0.49803921568627274,-5.291666666666664,-5.478431372549018,-0.49803921568627274,-10.58333333333335,8.074994531296003,64.45523331215558,31.95534717025267,18.38074983918429,61.52594653345292,2202.5212179725404,1
-26.813245923684644,-34.23839476663732,-34.41336100247427,115.89915815869603,-126.47449311343618,30.67468805704098,20.560678996706315,20.594594594594604,-2.3518518518518556,-19.303999999999995,-0.49803921568627274,-5.291666666666664,-5.478431372549018,-0.49803921568627274,-10.58333333333335,8.074994531296003,64.45523331215558,31.821667230932075,18.820866289088308,61.5169713092692,2218.0743381903994,1
-26.813245923684644,-34.23839476663732,-34.41336100247427,115.89915815869603,-126.47449311343618,30.67468805704098,20.560678996706315,11.441441441441452,-19.990740740740744,-66.03999999999999,7.4705882352941195,-13.758333333333331,2.4901960784313744,-2.490196078431371,-9.407407407407423,16.636112914384977,431.96268089422165,31.821667230932075,18.820866289088308,61.5169713092692,2218.0743381903994,1
-26.813245923684644,-34.23839476663732,-34.41336100247427,115.89915815869603,-126.47449311343618,30.67468805704098,20.560678996706315,16.01801801801803,7.055555555555551,-10.159999999999997,-12.450980392156861,2.116666666666669,-1.4941176470588218,-2.490196078431371,-5.879629629629646,7.2081454984396185,28.062167478176736,31.821667230932075,18.820866289088308,61.5169713092692,2218.0743381903994,1
-26.19415027735753,-34.6537929299283,-34.98100407055632,116.12663442593589,-126.54956552580245,30.41057635175281,20.946795034203205,16.01801801801803,7.055555555555551,-10.159999999999997,-12.450980392156861,2.116666666666669,-1.4941176470588218,-2.490196078431371,-5.879629629629646,7.2081454984396185,28.062167478176736,31.94298242594738,24.813570087132938,61.920477142140165,2203.7573823893376,1
-26.19415027735753,-34.6537929299283,-34.98100407055632,116.12663442593589,-126.54956552580245,30.41057635175281,20.946795034203205,20.594594594594604,4.703703703703699,27.432000000000002,-1.4941176470588218,-12.7,6.4745098039215705,-1.4941176470588218,-7.055555555555571,10.243574868986636,88.11215525153963,31.94298242594738,24.813570087132938,61.920477142140165,2203.7573823893376,1
-26.19415027735753,-34.6537929299283,-34.98100407055632,116.12663442593589,-126.54956552580245,30.41057635175281,20.946795034203205,21.73873873873875,5.879629629629625,40.64,-4.482352941176469,-34.925,-1.4941176470588218,-0.49803921568627274,2.351851851851835,14.001216253017724,262.61981494979494,31.94298242594738,24.813570087132938,61.920477142140165,2203.7573823893376,1
-26.38628340897629,-34.55793181532269,-34.98100407055632,116.30861543972776,-126.60962345569547,30.108734402852036,21.268558398783853,21.73873873873875,5.879629629629625,40.64,-4.482352941176469,-34.925,-1.4941176470588218,-0.49803921568627274,2.351851851851835,14.001216253017724,262.61981494979494,31.975073098285097,23.470675176780453,61.94918377520225,2216.2556057009506,1
-26.38628340897629,-34.55793181532269,-34.98100407055632,116.30861543972776,-126.60962345569547,30.108734402852036,21.268558398783853,19.45045045045046,1.1759259259259218,-35.559999999999995,-5.478431372549018,-7.408333333333331,12.450980392156865,3.4862745098039234,-3.5277777777777937,11.067271720249664,132.69474995492322,31.975073098285097,23.470675176780453,61.94918377520225,2216.2556057009506,1
-26.38628340897629,-34.55793181532269,-34.98100407055632,116.30861543972776,-126.60962345569547,30.108734402852036,21.268558398783853,21.73873873873875,12.93518518518518,3.552713678800501e-15,0.4980392156862763,10.583333333333336,5.4784313725490215,2.4901960784313744,-5.879629629629646,7.450444194194199,54.122592442706825,31.975073098285097,23.470675176780453,61.94918377520225,2216.2556057009506,1
-26.599764666330465,-35.101144798087816,-34.9607311038391,116.3996059466237,-126.66968138558846,29.957813428401636,21.590321763364614,21.73873873873875,12.93518518518518,3.552713678800501e-15,0.4980392156862763,10.583333333333336,5.4784313725490215,2.4901960784313744,-5.879629629629646,7.450444194194199,54.122592442706825,32.2205468560858,23.69982331988618,62.15382728285021,2206.9583061307103,1
-26.599764666330465,-35.101144798087816,-34.9607311038391,116.3996059466237,-126.66968138558846,29.957813428401636,21.590321763364614,16.01801801801803,-11.759259259259263,-9.143999999999997,13.447058823529414,15.875000000000004,5.4784313725490215,0.4980392156862763,-5.879629629629646,9.762429539833956,30.528555048487686,32.2205468560858,23.69982331988618,62.15382728285021,2206.9583061307103,1
-26.599764666330465,-35.101144798087816,-34.9607311038391,116.3996059466237,-126.66968138558846,29.957813428401636,21.590321763364614,16.01801801801803,-1.17592592592593,-18.287999999999997,-7.470588235294116,-6.349999999999998,1.4941176470588253,-1.4941176470588218,-8.231481481481497,7.565281119354652,43.27101010538513,32.2205468560858,23.69982331988618,62.15382728285021,2206.9583061307103,1
-26.685157169272138,-34.46207070071708,-34.94045813712189,116.49059645351963,-126.66968138558846,29.806892453951264,21.719027109196873,16.01801801801803,-1.17592592592593,-18.287999999999997,-7.470588235294116,-6.349999999999998,1.4941176470588253,-1.4941176470588218,-8.231481481481497,7.565281119354652,43.27101010538513,32.02922866903703,21.476538780777062,61.96437509711953,2229.888825190184,1
-26.685157169272138,-34.46207070071708,-34.94045813712189,116.49059645351963,-126.66968138558846,29.806892453951264,21.719027109196873,16.01801801801803,-9.40740740740741,-37.592,-12.450980392156861,-35.983333333333334,-13.44705882352941,-0.49803921568627274,-8.231481481481497,16.703539833951602,174.9749496323825,32.02922866903703,21.476538780777062,61.96437509711953,2229.888825190184,1
-26.685157169272138,-34.46207070071708,-34.94045813712189,116.49059645351963,-126.66968138558846,29.806892453951264,21.719027109196873,21.73873873873875,-3.5277777777777812,33.528000000000006,3.4862745098039234,-22.224999999999998,-2.490196078431371,-0.49803921568627274,-11.759259259259274,12.406660697462172,146.9395653654976,32.02922866903703,21.476538780777062,61.96437509711953,2229.888825190184,1
-27.240208438392997,-34.621839225059766,-34.92018517040467,116.49059645351963,-126.66968138558846,29.806892453951264,21.654674436280743,21.73873873873875,-3.5277777777777812,33.528000000000006,3.4862745098039234,-22.224999999999998,-2.490196078431371,-0.49803921568627274,-11.759259259259274,12.406660697462172,146.9395653654976,32.260744277952476,18.926587663001854,62.01087361632802,2226.0524028886884,1
-27.240208438392997,-34.621839225059766,-34.92018517040467,116.49059645351963,-126.66968138558846,29.806892453951264,21.654674436280743,19.45045045045046,-2.3518518518518556,3.0480000000000036,3.4862745098039234,-10.583333333333332,0.4980392156862763,-2.490196078431371,-7.055555555555571,6.120462624389099,39.12172430503098,32.260744277952476,18.926587663001854,62.01087361632802,2226.0524028886884,1
-27.240208438392997,-34.621839225059766,-34.92018517040467,116.49059645351963,-126.66968138558846,29.806892453951264,21.654674436280743,22.882882882882893,12.93518518518518,18.288000000000004,-1.4941176470588218,-21.166666666666664,-3.48627450980392,-2.490196078431371,-5.879629629629646,11.077869074957313,78.11831703442817,32.260744277952476,18.926587663001854,62.01087361632802,2226.0524028886884,1
-27.11211968398049,-34.78160774940245,-34.67690956979808,116.44510120007163,-126.65466690311521,29.806892453951264,21.654674436280743,22.882882882882893,12.93518518518518,18.288000000000004,-1.4941176470588218,-21.166666666666664,-3.48627450980392,-2.490196078431371,-5.879629629629646,11.077869074957313,78.11831703442817,32.19021233439367,19.343009151838384,61.96787283975738,2225.8290477935734,1
-27.11211968398049,-34.78160774940245,-34.67690956979808,116.44510120007163,-126.65466690311521,29.806892453951264,21.654674436280743,19.45045045045046,-7.055555555555559,6.096000000000004,-1.4941176470588218,-10.583333333333332,-1.4941176470588218,-2.490196078431371,-8.231481481481497,7.111906524171233,35.865495867788866,32.19021233439367,19.343009151838384,61.96787283975738,2225.8290477935734,1
-27.11211968398049,-34.78160774940245,-34.67690956979808,116.44510120007163,-126.65466690311521,29.806892453951264,21.654674436280743,16.01801801801803,-4.703703703703708,-44.70399999999999,-2.490196078431371,11.64166666666667,5.4784313725490215,-1.4941176470588218,-9.407407407407423,11.99219261172938,198.44603827514155,32.19021233439367,19.343009151838384,61.96787283975738,2225.8290477935734,1
-26.45032778618254,-34.685746634796836,-34.63636363636365,116.71807272075944,-126.71472483300823,29.731431966726063,21.783379782113002,16.01801801801803,-4.703703703703708,-44.70399999999999,-2.490196078431371,11.64166666666667,5.4784313725490215,-1.4941176470588218,-9.407407407407423,11.99219261172938,198.44603827514155,31.924146019114342,22.472624205516023,62.013394330639976,2244.451987994936,1
-26.45032778618254,-34.685746634796836,-34.63636363636365,116.71807272075944,-126.71472483300823,29.731431966726063,21.783379782113002,21.73873873873875,8.231481481481477,-4.0639999999999965,8.466666666666669,-1.0583333333333318,1.4941176470588253,2.4901960784313744,-9.407407407407423,7.11886766913973,45.879603182207184,31.924146019114342,22.472624205516023,62.013394330639976,2244.451987994936,1
-26.45032778618254,-34.685746634796836,-34.63636363636365,116.71807272075944,-126.71472483300823,29.731431966726063,21.783379782113002,17.162162162162172,-2.3518518518518556,-7.1119999999999965,4.482352941176472,-7.408333333333331,0.4980392156862763,0.4980392156862763,-8.231481481481497,5.968032525172235,29.84864680129246,31.924146019114342,22.472624205516023,62.013394330639976,2244.451987994936,1
-26.493024037653377,-33.950811422820486,-34.43363396919148,116.99104424144724,-126.72973931548148,29.542780748663063,21.783379782113002,17.162162162162172,-2.3518518518518556,-7.1119999999999965,4.482352941176472,-7.408333333333331,0.4980392156862763,0.4980392156862763,-8.231481481481497,5.968032525172235,29.84864680129246,31.625823143221783,19.817499396413904,61.79182987781974,2285.2732291740967,1
-26.493024037653377,-33.950811422820486,-34.43363396919148,116.99104424144724,-126.72973931548148,29.542780748663063,21.783379782113002,18.30630630630632,11.759259259259254,1.0160000000000036,-11.454901960784312,-25.4,-11.454901960784312,0.4980392156862763,-7.055555555555571,10.868120532297006,69.58905697010742,31.625823143221783,19.817499396413904,61.79182987781974,2285.2732291740967,1
-26.493024037653377,-33.950811422820486,-34.43363396919148,116.99104424144724,-126.72973931548148,29.542780748663063,21.783379782113002,19.45045045045046,10.583333333333329,35.56,7.4705882352941195,1.0583333333333353,9.462745098039218,0.4980392156862763,-4.70370370370372,11.098399171230056,134.0415754667164,31.625823143221783,19.817499396413904,61.79182987781974,2285.2732291740967,1
-27.795259707513857,-33.120015096238525,-34.494452869343135,116.99104424144724,-126.59460897322222,29.655971479500863,21.139853052951594,19.45045045045046,10.583333333333329,35.56,7.4705882352941195,1.0583333333333353,9.462745098039218,0.4980392156862763,-4.70370370370372,11.098399171230056,134.0415754667164,31.803242557698507,12.520214693564885,61.535170735676296,2306.987699514085,1
-27.795259707513857,-33.120015096238525,-34.494452869343135,116.99104424144724,-126.59460897322222,29.655971479500863,21.139853052951594,32.03603603603605,35.27777777777777,32.512,-19.423529411764704,-40.21666666666667,4.482352941176472,1.4941176470588253,-4.70370370370372,21.268273023023028,249.74947590541538,31.803242557698507,12.520214693564885,61.535170735676296,2306.987699514085,1
-27.795259707513857,-33.120015096238525,-34.494452869343135,116.99104424144724,-126.59460897322222,29.655971479500863,21.139853052951594,17.162162162162172,-5.879629629629633,-28.447999999999997,-5.478431372549018,-21.166666666666664,-6.474509803921567,0.4980392156862763,-10.58333333333335,11.961346522993585,89.43190375775906,31.803242557698507,12.520214693564885,61.535170735676296,2306.987699514085,1
-27.19751218692216,-33.82299660334634,-34.453906935908705,117.12753000179117,-126.51953656085595,29.806892453951264,20.625031669622444,17.162162162162172,-5.879629629629633,-28.447999999999997,-5.478431372549018,-21.166666666666664,-6.474509803921567,0.4980392156862763,-10.58333333333335,11.961346522993585,89.43190375775906,31.824805242059067,16.158392725522184,61.801477847015406,2295.8285472366597,1
-27.19751218692216,-33.82299660334634,-34.453906935908705,117.12753000179117,-126.51953656085595,29.806892453951264,20.625031669622444,21.73873873873875,25.870370370370363,37.592000000000006,15.439215686274512,-1.0583333333333318,-6.474509803921567,1.4941176470588253,-8.231481481481497,14.737345882647357,166.98439747272363,31.824805242059067,16.158392725522184,61.801477847015406,2295.8285472366597,1
-27.19751218692216,-33.82299660334634,-34.453906935908705,117.12753000179117,-126.51953656085595,29.806892453951264,20.625031669622444,17.162162162162172,-14.111111111111114,-25.4,-8.466666666666665,-15.874999999999998,-4.482352941176469,0.4980392156862763,-9.407407407407423,11.925342438026265,61.95026332571084,31.824805242059067,16.158392725522184,61.801477847015406,2295.8285472366597,1
-25.041351487644974,-33.56736696439805,-34.43363396919148,117.76446355006269,-126.5645800082757,29.39185977421269,20.625031669622444,17.162162162162172,-14.111111111111114,-25.4,-8.466666666666665,-15.874999999999998,-4.482352941176469,0.4980392156862763,-9.407407407407423,11.925342438026265,61.95026332571084,31.014117473744836,26.94305477443203,61.921821494550734,2338.988108435922,1
-25.041351487644974,-33.56736696439805,-34.43363396919148,117.76446355006269,-126.5645800082757,29.39185977421269,20.625031669622444,12.585585585585596,-10.583333333333336,-28.447999999999997,-11.454901960784312,-11.641666666666666,-1.4941176470588218,-2.490196078431371,-10.58333333333335,11.16014182564918,67.21229694762869,31.014117473744836,26.94305477443203,61.921821494550734,2338.988108435922,1
-25.041351487644974,-33.56736696439805,-34.43363396919148,117.76446355006269,-126.5645800082757,29.39185977421269,20.625031669622444,12.585585585585596,-9.40740740740741,-7.1119999999999965,3.4862745098039234,-33.86666666666666,-10.458823529411763,-0.49803921568627274,-10.58333333333335,10.99976628098687,101.46645070905149,31.014117473744836,26.94305477443203,61.921821494550734,2338.988108435922,1
-26.151454025886693,-33.08806139136999,-34.51472583606035,118.17392083109439,-126.54956552580245,29.052287581699318,20.560678996706315,12.585585585585596,-9.40740740740741,-7.1119999999999965,3.4862745098039234,-33.86666666666666,-10.458823529411763,-0.49803921568627274,-10.58333333333335,10.99976628098687,101.46645070905149,31.251413751105677,20.016034758577693,61.92556935284157,2373.4166258752352,1
-26.151454025886693,-33.08806139136999,-34.51472583606035,118.17392083109439,-126.54956552580245,29.052287581699318,20.560678996706315,17.162162162162172,-5.879629629629633,-21.336,-11.454901960784312,-19.049999999999997,-6.474509803921567,-2.490196078431371,-8.231481481481497,11.509860139551318,47.787803889567954,31.251413751105677,20.016034758577693,61.92556935284157,2373.4166258752352,1
-26.151454025886693,-33.08806139136999,-34.51472583606035,118.17392083109439,-126.54956552580245,29.052287581699318,20.560678996706315,18.30630630630632,-3.5277777777777812,3.552713678800501e-15,7.4705882352941195,12.700000000000003,-7.470588235294116,-1.4941176470588218,-8.231481481481497,7.400107460401582,36.053199330231315,31.251413751105677,20.016034758577693,61.92556935284157,2373.4166258752352,1
-27.304252815599252,-32.44898729399925,-34.55527176949478,118.3104065914383,-126.42944966601644,28.788175876411145,20.238915632125668,18.30630630630632,-3.5277777777777812,3.552713678800501e-15,7.4705882352941195,12.700000000000003,-7.470588235294116,-1.4941176470588218,-8.231481481481497,7.400107460401582,36.053199330231315,31.43617062636443,13.913667169117232,61.771555218310766,2398.590394517381,1
-27.304252815599252,-32.44898729399925,-34.55527176949478,118.3104065914383,-126.42944966601644,28.788175876411145,20.238915632125668,19.45045045045046,8.231481481481477,-5.0799999999999965,14.443137254901963,-8.466666666666665,12.450980392156865,2.4901960784313744,-1.1759259259259425,8.973604781251844,38.6540710244442,31.43617062636443,13.913667169117232,61.771555218310766,2398.590394517381,1
-27.304252815599252,-32.44898729399925,-34.55527176949478,118.3104065914383,-126.42944966601644,28.788175876411145,20.238915632125668,21.73873873873875,14.111111111111105,-16.255999999999997,3.4862745098039234,-7.408333333333331,-1.4941176470588218,0.4980392156862763,-7.055555555555571,9.006021263910972,58.05503003282325,31.43617062636443,13.913667169117232,61.771555218310766,2398.590394517381,1
-27.090771558245073,-32.48094099886779,-34.37281506903984,118.5833781121261,-126.33936277117692,28.599524658348173,19.852799594628777,21.73873873873875,14.111111111111105,-16.255999999999997,3.4862745098039234,-7.408333333333331,-1.4941176470588218,0.4980392156862763,-7.055555555555571,9.006021263910972,58.05503003282325,31.3148425420509,14.276878631520079,61.81237806001124,2418.1046320622663,1
-27.090771558245073,-32.48094099886779,-34.37281506903984,118.5833781121261,-126.33936277117692,28.599524658348173,19.852799594628777,25.17117117117118,5.879629629629625,28.448000000000004,-16.435294117647057,-17.991666666666667,7.4705882352941195,1.4941176470588253,-3.5277777777777937,13.30228065565566,103.73535656104725,31.3148425420509,14.276878631520079,61.81237806001124,2418.1046320622663,1
-27.090771558245073,-32.48094099886779,-34.37281506903984,118.5833781121261,-126.33936277117692,28.599524658348173,19.852799594628777,16.01801801801803,-8.231481481481485,-18.287999999999997,0.4980392156862763,-17.991666666666667,-1.4941176470588218,-1.4941176470588218,-14.111111111111127,9.765818973385153,60.478816459931735,31.3148425420509,14.276878631520079,61.81237806001124,2418.1046320622663,1
-25.788535888384594,-33.439552144923894,-34.47417990262592,119.1293211535017,-126.33936277117692,28.410873440285172,19.59538890296426,16.01801801801803,-8.231481481481485,-18.287999999999997,0.4980392156862763,-17.991666666666667,-1.4941176470588218,-1.4941176470588218,-14.111111111111127,9.765818973385153,60.478816459931735,31.234089311978135,22.508152716160396,62.34768440035051,2418.38331792436,1
-25.788535888384594,-33.439552144923894,-34.47417990262592,119.1293211535017,-126.33936277117692,28.410873440285172,19.59538890296426,11.441441441441452,-22.342592592592595,-23.367999999999995,-2.490196078431371,25.400000000000006,-21.415686274509802,-3.48627450980392,-10.58333333333335,15.065940528764061,84.92209820083987,31.234089311978135,22.508152716160396,62.34768440035051,2418.38331792436,1
-25.788535888384594,-33.439552144923894,-34.47417990262592,119.1293211535017,-126.33936277117692,28.410873440285172,19.59538890296426,22.882882882882893,14.111111111111105,13.208000000000004,-19.423529411764704,-27.516666666666666,-7.470588235294116,-2.490196078431371,-9.407407407407423,14.563797724194785,69.33113358359934,31.234089311978135,22.508152716160396,62.34768440035051,2418.38331792436,1
-24.12338208102201,-33.56736696439805,-34.271450235453756,120.03922622246105,-126.41443518354319,27.920380273321427,19.65974157588039,22.882882882882893,14.111111111111105,13.208000000000004,-19.423529411764704,-27.516666666666666,-7.470588235294116,-2.490196078431371,-9.407407407407423,14.563797724194785,69.33113358359934,30.65406642695794,32.111311832834545,62.62601447410429,2472.3315957593836,1
-24.12338208102201,-33.56736696439805,-34.271450235453756,120.03922622246105,-126.41443518354319,27.920380273321427,19.65974157588039,17.162162162162172,5.879629629629625,-21.336,28.38823529411765,22.225,25.400000000000002,1.4941176470588253,-8.231481481481497,16.26457827680622,97.57641450293248,30.65406642695794,32.111311832834545,62.62601447410429,2472.3315957593836,1
-24.12338208102201,-33.56736696439805,-34.271450235453756,120.03922622246105,-126.41443518354319,27.920380273321427,19.65974157588039,21.73873873873875,18.81481481481481,27.432000000000002,-1.4941176470588218,-23.28333333333333,-5.478431372549018,-2.490196078431371,-12.935185185185201,14.208352146263913,101.7065397158771,30.65406642695794,32.111311832834545,62.62601447410429,2472.3315957593836,1
-26.215498403092948,-32.60875581834194,-35.36619043818342,119.99373096901309,-126.15918898149792,27.618538324420655,18.95186217380285,21.73873873873875,18.81481481481481,27.432000000000002,-1.4941176470588218,-23.28333333333333,-5.478431372549018,-2.490196078431371,-12.935185185185201,14.208352146263913,101.7065397158771,31.396814886539435,22.035391796900807,62.65622574184615,2467.592990677222,1
-26.215498403092948,-32.60875581834194,-35.36619043818342,119.99373096901309,-126.15918898149792,27.618538324420655,18.95186217380285,18.30630630630632,14.111111111111105,22.352000000000004,-38.34901960784313,-32.80833333333333,17.43137254901961,13.447058823529414,-9.407407407407423,20.776576142318792,100.10525383697674,31.396814886539435,22.035391796900807,62.65622574184615,2467.592990677222,1
-26.215498403092948,-32.60875581834194,-35.36619043818342,119.99373096901309,-126.15918898149792,27.618538324420655,18.95186217380285,-2.2882882882882782,-69.37962962962963,-89.408,4.482352941176472,-13.758333333333331,-28.388235294117646,-9.462745098039214,-15.287037037037052,29.056827702702705,1056.6682884221811,31.396814886539435,22.035391796900807,62.65622574184615,2467.592990677222,1
-26.38628340897629,-31.458422443074607,-36.35956580732701,119.67526419487731,-125.70875450730034,27.278966131907282,17.729161388396278,-2.2882882882882782,-69.37962962962963,-89.408,4.482352941176472,-13.758333333333331,-28.388235294117646,-9.462745098039214,-15.287037037037052,29.056827702702705,1056.6682884221811,31.4014238864593,24.869027075905237,62.49775081509298,2457.9563287908018,1
-26.38628340897629,-31.458422443074607,-36.35956580732701,119.67526419487731,-125.70875450730034,27.278966131907282,17.729161388396278,11.441441441441452,-23.51851851851852,-8.127999999999997,-4.482352941176469,14.81666666666667,11.454901960784316,-35.36078431372549,-15.287037037037052,15.561212859918747,95.39990868219287,31.4014238864593,24.869027075905237,62.49775081509298,2457.9563287908018,1
-26.38628340897629,-31.458422443074607,-36.35956580732701,119.67526419487731,-125.70875450730034,27.278966131907282,17.729161388396278,21.73873873873875,11.759259259259254,-12.191999999999997,2.4901960784313744,3.1750000000000025,12.450980392156865,45.321568627450986,5.879629629629612,14.375921590708355,195.15486761276227,31.4014238864593,24.869027075905237,62.49775081509298,2457.9563287908018,1
-24.528996469994947,-33.024153981632914,-37.25157634288452,119.22031166039764,-125.39345037536208,26.14705882352939,17.857866734228537,21.73873873873875,11.759259259259254,-12.191999999999997,2.4901960784313744,3.1750000000000025,12.450980392156865,45.321568627450986,5.879629629629612,14.375921590708355,195.15486761276227,31.601575598170793,41.983806598333985,63.16534732830502,2361.087044659234,1
-24.528996469994947,-33.024153981632914,-37.25157634288452,119.22031166039764,-125.39345037536208,26.14705882352939,17.857866734228537,21.73873873873875,37.62962962962962,83.312,42.333333333333336,-21.166666666666664,-20.419607843137253,0.4980392156862763,-9.407407407407423,29.563177854324913,654.7779833983386,31.601575598170793,41.983806598333985,63.16534732830502,2361.087044659234,1
-24.528996469994947,-33.024153981632914,-37.25157634288452,119.22031166039764,-125.39345037536208,26.14705882352939,17.857866734228537,2.288288288288296,-27.046296296296298,-55.879999999999995,-2.490196078431371,-13.758333333333331,-20.419607843137253,-15.439215686274508,-17.638888888888903,19.370103301831243,288.5226529397128,31.601575598170793,41.983806598333985,63.16534732830502,2361.087044659234,1
-27.02672718103882,-28.614542709774824,-37.55567084364276,118.17392083109439,-124.64272625169949,24.8642305407011,16.82822396757024,2.288288288288296,-27.046296296296298,-55.879999999999995,-2.490196078431371,-13.758333333333331,-20.419607843137253,-15.439215686274508,-17.638888888888903,19.370103301831243,288.5226529397128,31.06564691148547,32.220597518304594,61.44804479483732,2433.3547021371637,1
-27.02672718103882,-28.614542709774824,-37.55567084364276,118.17392083109439,-124.64272625169949,24.8642305407011,16.82822396757024,28.603603603603617,12.93518518518518,34.544000000000004,-50.30196078431372,31.75,-2.490196078431371,17.43137254901961,18.814814814814795,24.608891626921036,219.4847935367035,31.06564691148547,32.220597518304594,61.44804479483732,2433.3547021371637,1
-27.02672718103882,-28.614542709774824,-37.55567084364276,118.17392083109439,-124.64272625169949,24.8642305407011,16.82822396757024,28.603603603603617,69.37962962962962,75.18400000000001,-8.466666666666665,16.933333333333337,25.400000000000002,29.3843137254902,-27.046296296296312,35.04973040687747,579.2837783693777,31.06564691148547,32.220597518304594,61.44804479483732,2433.3547021371637,1
-31.403092956799455,-22.990690652912324,-38.14358687844202,116.44510120007163,-123.30643731158008,24.071895424836583,13.739295667595684,28.603603603603617,69.37962962962962,75.18400000000001,-8.466666666666665,16.933333333333337,25.400000000000002,29.3843137254902,-27.046296296296312,35.04973040687747,579.2837783693777,30.845790162717933,57.635505808636346,59.193126243808656,2515.74404329984,1
-31.403092956799455,-22.990690652912324,-38.14358687844202,116.44510120007163,-123.30643731158008,24.071895424836583,13.739295667595684,18.30630630630632,-21.166666666666668,13.208000000000004,71.21960784313725,6.350000000000001,13.447058823529414,20.419607843137257,-3.5277777777777937,20.955628157569336,452.4681590545997,30.845790162717933,57.635505808636346,59.193126243808656,2515.74404329984,1
-31.403092956799455,-22.990690652912324,-38.14358687844202,116.44510120007163,-123.30643731158008,24.071895424836583,13.739295667595684,12.585585585585596,-39.98148148148148,-75.184,27.3921568627451,30.69166666666667,31.376470588235296,-30.380392156862744,-8.231481481481497,31.977904352882298,413.76797564279775,30.845790162717933,57.635505808636346,59.193126243808656,2515.74404329984,1
-30.93343419062026,-17.33488489118129,-36.64338734136803,114.94375783628874,-121.3395401075841,23.430481283422438,7.947555105143124,12.585585585585596,-39.98148148148148,-75.184,27.3921568627451,30.69166666666667,31.376470588235296,-30.380392156862744,-8.231481481481497,31.977904352882298,413.76797564279775,28.30390214105653,98.39039581697901,56.30734335627935,2671.8763940208078,1
-30.93343419062026,-17.33488489118129,-36.64338734136803,114.94375783628874,-121.3395401075841,23.430481283422438,7.947555105143124,22.882882882882893,-8.231481481481485,-3.0479999999999965,-4.482352941176469,-65.61666666666667,-4.482352941176469,37.352941176470594,-7.055555555555571,19.14402920567627,494.21086936325935,28.30390214105653,98.39039581697901,56.30734335627935,2671.8763940208078,1
-30.93343419062026,-17.33488489118129,-36.64338734136803,114.94375783628874,-121.3395401075841,23.430481283422438,7.947555105143124,28.603603603603617,16.46296296296296,29.464000000000006,-48.30980392156863,-25.4,-11.454901960784312,-28.388235294117646,-1.1759259259259425,23.657429208620385,199.63108133056215,28.30390214105653,98.39039581697901,56.30734335627935,2671.8763940208078,1
-35.97159186417885,-19.124292363819357,-37.271849309601734,111.71359484148309,-118.96725187681031,24.222816399286955,0.8687610843678613,28.603603603603617,16.46296296296296,29.464000000000006,-48.30980392156863,-25.4,-11.454901960784312,-28.388235294117646,-1.1759259259259425,23.657429208620385,199.63108133056215,30.789244512533315,102.47599882993417,56.03657883830139,2407.2810390390164,1
-35.97159186417885,-19.124292363819357,-37.271849309601734,111.71359484148309,-118.96725187681031,24.222816399286955,0.8687610843678613,12.585585585585596,-27.046296296296298,-73.152,-57.27450980392157,-31.75,-54.28627450980392,-88.15294117647059,-8.231481481481497,44.05988610669493,826.4365144107526,30.789244512533315,102.47599882993417,56.03657883830139,2407.2810390390164,1
-35.97159186417885,-19.124292363819357,-37.271849309601734,111.71359484148309,-118.96725187681031,24.222816399286955,0.8687610843678613,28.603603603603617,5.879629629629625,-47.751999999999995,45.321568627450986,4.233333333333336,32.372549019607845,-33.36862745098039,-2.351851851851868,24.98539543955721,339.68199065878423,30.789244512533315,102.47599882993417,56.03657883830139,2407.2810390390164,1
-47.158009749537726,-23.629764750283062,-42.29954505547131,104.5253447967043,-116.17455813678549,26.713012477718337,-5.952622244742884,28.603603603603617,5.879629629629625,-47.751999999999995,45.321568627450986,4.233333333333336,32.372549019607845,-33.36862745098039,-2.351851851851868,24.98539543955721,339.68199065878423,37.695773185097366,154.29061476207283,56.81821820081956,1794.1176201878288,1
-47.158009749537726,-23.629764750283062,-42.29954505547131,104.5253447967043,-116.17455813678549,26.713012477718337,-5.952622244742884,30.891891891891902,32.925925925925924,-19.303999999999995,-9.462745098039214,-28.575,-10.458823529411763,-13.44705882352941,-15.287037037037052,20.04406028822941,89.56188968850587,37.695773185097366,154.29061476207283,56.81821820081956,1794.1176201878288,1
-47.158009749537726,-23.629764750283062,-42.29954505547131,104.5253447967043,-116.17455813678549,26.713012477718337,-5.952622244742884,17.162162162162172,1.1759259259259218,-5.0799999999999965,-48.30980392156863,14.81666666666667,-15.439215686274508,-21.415686274509802,-12.935185185185201,17.041830727786614,202.2896909813494,37.695773185097366,154.29061476207283,56.81821820081956,1794.1176201878288,1
-58.79273827534038,-21.648635048433775,-49.65863197382075,93.833960236432,-112.55606786073182,30.63695781342838,-13.610590321763425,17.162162162162172,1.1759259259259218,-5.0799999999999965,-48.30980392156863,14.81666666666667,-15.439215686274508,-21.415686274509802,-12.935185185185201,17.041830727786614,202.2896909813494,43.36666843253164,374.6127050364571,55.0470757528955,1324.4567878944501,1
-58.79273827534038,-21.648635048433775,-49.65863197382075,93.833960236432,-112.55606786073182,30.63695781342838,-13.610590321763425,2.288288288288296,-23.51851851851852,-92.456,31.376470588235296,33.86666666666667,-19.423529411764704,3.4862745098039234,-18.81481481481483,28.15382034976153,805.7467127531033,43.36666843253164,374.6127050364571,55.0470757528955,1324.4567878944501,1
-58.79273827534038,-21.648635048433775,-49.65863197382075,93.833960236432,-112.55606786073182,30.63695781342838,-13.610590321763425,19.45045045045046,1.1759259259259218,-68.072,-37.35294117647059,-14.816666666666665,-4.482352941176469,3.4862745098039234,-1.5987211554602254e-14,18.604576458811756,555.9256157579255,43.36666843253164,374.6127050364571,55.0470757528955,1324.4567878944501,1
-61.88821650697596,-12.669643980374897,-52.030569079735024,83.73401397098331,-108.69734586510612,33.46672608437311,-20.882442361287076,19.45045045045046,1.1759259259259218,-68.072,-37.35294117647059,-14.816666666666665,-4.482352941176469,3.4862745098039234,-1.5987211554602254e-14,18.604576458811756,555.9256157579255,42.196143189028625,678.1539198389195,49.47807567703108,1267.422587468657,1
-61.88821650697596,-12.669643980374897,-52.030569079735024,83.73401397098331,-108.69734586510612,33.46672608437311,-20.882442361287076,11.441441441441452,-8.231481481481485,16.256000000000004,76.2,-8.466666666666665,3.4862745098039234,12.450980392156865,-11.759259259259274,18.53651296885121,556.8126495338995,42.196143189028625,678.1539198389195,49.47807567703108,1267.422587468657,1
-61.88821650697596,-12.669643980374897,-52.030569079735024,83.73401397098331,-108.69734586510612,33.46672608437311,-20.882442361287076,19.45045045045046,7.055555555555551,57.912000000000006,-45.32156862745098,-47.625,11.454901960784316,13.447058823529414,-3.5277777777777937,25.724289149443564,447.8081152580418,42.196143189028625,678.1539198389195,49.47807567703108,1267.422587468657,1
-62.63540090771558,-2.859856585734061,-54.240322451911574,73.72505821243061,-104.07288526334457,35.20231729055257,-28.990879148720524,19.45045045045046,7.055555555555551,57.912000000000006,-45.32156862745098,-47.625,11.454901960784316,13.447058823529414,-3.5277777777777937,25.724289149443564,447.8081152580418,39.911859981787075,1047.2575523156188,43.60841241669208,1340.2473336458397,1
-62.63540090771558,-2.859856585734061,-54.240322451911574,73.72505821243061,-104.07288526334457,35.20231729055257,-28.990879148720524,19.45045045045046,7.055555555555551,57.912000000000006,-45.32156862745098,-47.625,11.454901960784316,13.447058823529414,-3.5277777777777937,25.724289149443564,447.8081152580418,39.911859981787075,1047.2575523156188,43.60841241669208,1340.2473336458397,1
-62.63540090771558,-2.859856585734061,-54.240322451911574,73.72505821243061,-104.07288526334457,35.20231729055257,-28.990879148720524,25.17117117117118,14.111111111111105,-20.319999999999997,-42.33333333333333,-69.85,13.447058823529414,4.482352941176472,-15.287037037037052,25.62525805216982,442.58927205310795,39.911859981787075,1047.2575523156188,43.60841241669208,1340.2473336458397,1
-62.63540090771558,-2.859856585734061,-54.240322451911574,73.72505821243061,-104.07288526334457,35.20231729055257,-28.990879148720524,49.19819819819821,97.60185185185183,112.77600000000001,-74.2078431372549,-17.991666666666667,0.4980392156862763,20.419607843137257,4.703703703703686,47.17461382706236,1875.8991653697587,39.911859981787075,1047.2575523156188,43.60841241669208,1340.2473336458397,1
-67.41738107244915,5.767643728770906,-55.63915715539948,63.53412144008598,-98.65265709050068,37.01336898395718,-38.45072206739292,49.19819819819821,97.60185185185183,112.77600000000001,-74.2078431372549,-17.991666666666667,0.4980392156862763,20.419607843137257,4.703703703703686,47.17461382706236,1875.8991653697587,42.94139398553984,1544.2616014372506,41.64697410808546,981.0773766151219,1
-67.41738107244915,5.767643728770906,-55.63915715539948,63.53412144008598,-98.65265709050068,37.01336898395718,-38.45072206739292,14.873873873873883,-16.462962962962965,-45.72,4.482352941176472,-21.166666666666664,30.380392156862747,-0.49803921568627274,-7.055555555555571,17.579980421598073,221.60719729647676,42.94139398553984,1544.2616014372506,41.64697410808546,981.0773766151219,1
-67.41738107244915,5.767643728770906,-55.63915715539948,63.53412144008598,-98.65265709050068,37.01336898395718,-38.45072206739292,19.45045045045046,2.3518518518518476,-12.191999999999997,-3.48627450980392,-75.14166666666667,-59.266666666666666,16.43529411764706,-4.70370370370372,24.128488495848792,762.604302221394,42.94139398553984,1544.2616014372506,41.64697410808546,981.0773766151219,1
-78.5611027063372,9.314504969178508,-58.315188762072,51.29589826258285,-92.31654548678844,40.82412358882945,-49.06891309855587,19.45045045045046,2.3518518518518476,-12.191999999999997,-3.48627450980392,-75.14166666666667,-59.266666666666666,16.43529411764706,-4.70370370370372,24.128488495848792,762.604302221394,48.73026547919591,2117.632488327082,39.641863997944455,702.1291390238081,1
-78.5611027063372,9.314504969178508,-58.315188762072,51.29589826258285,-92.31654548678844,40.82412358882945,-49.06891309855587,22.882882882882893,16.46296296296296,3.0480000000000036,-53.29019607843137,28.575000000000003,3.4862745098039234,0.4980392156862763,-9.407407407407423,17.206345382146857,313.25090021407,48.73026547919591,2117.632488327082,39.641863997944455,702.1291390238081,1
-78.5611027063372,9.314504969178508,-58.315188762072,51.29589826258285,-92.31654548678844,40.82412358882945,-49.06891309855587,9.153153153153163,-27.046296296296298,7.112000000000004,127.0,31.75,21.415686274509806,-0.49803921568627274,-7.055555555555571,28.87884131190014,1691.3837316735667,48.73026547919591,2117.632488327082,39.641863997944455,702.1291390238081,1
-86.97226424609178,9.857717951943634,-62.53196583925294,37.010388679921164,-85.21469527694036,46.29500891265593,-59.49404611097043,9.153153153153163,-27.046296296296298,7.112000000000004,127.0,31.75,21.415686274509806,-0.49803921568627274,-7.055555555555571,28.87884131190014,1691.3837316735667,53.120649345762786,2535.6066596794353,36.46669082370591,693.8658031425671,1
-86.97226424609178,9.857717951943634,-62.53196583925294,37.010388679921164,-85.21469527694036,46.29500891265593,-59.49404611097043,19.45045045045046,7.055555555555551,86.36,84.1686274509804,6.350000000000001,4.482352941176472,9.462745098039218,-7.055555555555571,28.04816088146971,1268.093157159957,53.120649345762786,2535.6066596794353,36.46669082370591,693.8658031425671,1
-86.97226424609178,9.857717951943634,-62.53196583925294,37.010388679921164,-85.21469527694036,46.29500891265593,-59.49404611097043,21.73873873873875,3.5277777777777732,-19.303999999999995,28.38823529411765,15.875000000000004,4.482352941176472,0.4980392156862763,-8.231481481481497,12.755703181122303,100.28614732645272,53.120649345762786,2535.6066596794353,36.46669082370591,693.8658031425671,1
-93.26996133804,8.643477166939228,-65.99864314789689,21.132545226580703,-77.58733818052848,52.97326203208553,-68.56777299214593,21.73873873873875,3.5277777777777732,-19.303999999999995,28.38823529411765,15.875000000000004,4.482352941176472,0.4980392156862763,-8.231481481481497,12.755703181122303,100.28614732645272,55.97069388429204,2783.586644805114,31.92488851380561,909.7597713977818,1
-93.26996133804,8.643477166939228,-65.99864314789689,21.132545226580703,-77.58733818052848,52.97326203208553,-68.56777299214593,17.162162162162172,4.703703703703699,14.224000000000004,-13.44705882352941,-3.174999999999998,5.4784313725490215,7.4705882352941195,-5.879629629629646,8.942571740858508,27.218151337071543,55.97069388429204,2783.586644805114,31.92488851380561,909.7597713977818,1
-93.26996133804,8.643477166939228,-65.99864314789689,21.132545226580703,-77.58733818052848,52.97326203208553,-68.56777299214593,16.01801801801803,-3.5277777777777812,10.160000000000004,5.4784313725490215,-14.816666666666665,6.4745098039215705,1.4941176470588253,-7.055555555555571,8.128134605193432,26.74207005006994,55.97069388429204,2783.586644805114,31.92488851380561,909.7597713977818,1
-107.97881996974282,7.0457919235123825,-67.86375608588077,3.1619201146336877,-69.05911213572148,63.04723707664883,-77.51279452748929,16.01801801801803,-3.5277777777777812,10.160000000000004,5.4784313725490215,-14.816666666666665,6.4745098039215705,1.4941176470588253,-7.055555555555571,8.128134605193432,26.74207005006994,60.96278932637866,3408.5533457619827,26.023822708008947,1316.706133855515,1
-107.97881996974282,7.0457919235123825,-67.86375608588077,3.1619201146336877,-69.05911213572148,63.04723707664883,-77.51279452748929,17.162162162162172,3.5277777777777732,-27.431999999999995,-4.482352941176469,8.466666666666669,1.4941176470588253,-1.4941176470588218,-5.879629629629646,8.742353058941296,82.6972151534476,60.96278932637866,3408.5533457619827,26.023822708008947,1316.706133855515,1
-107.97881996974282,7.0457919235123825,-67.86375608588077,3.1619201146336877,-69.05911213572148,63.04723707664883,-77.51279452748929,14.873873873873883,-22.342592592592595,-44.70399999999999,-56.27843137254902,-74.08333333333333,-2.490196078431371,4.482352941176472,-8.231481481481497,28.43578270917977,714.2533206879644,60.96278932637866,3408.5533457619827,26.023822708008947,1316.706133855515,1
-123.86182551689359,16.088690401308334,-65.8770053475936,-14.717714490417336,-58.89430750133003,76.3660130718954,-88.51710159614902,14.873873873873883,-22.342592592592595,-44.70399999999999,-56.27843137254902,-74.08333333333333,-2.490196078431371,4.482352941176472,-8.231481481481497,28.43578270917977,714.2533206879644,68.60917375526516,4944.460259239751,32.22780341310642,849.6714868579824,1
-123.86182551689359,16.088690401308334,-65.8770053475936,-14.717714490417336,-58.89430750133003,76.3660130718954,-88.51710159614902,28.603603603603617,38.80555555555555,31.496000000000002,-21.415686274509802,-27.516666666666666,-5.478431372549018,0.4980392156862763,-7.055555555555571,20.108692280515815,196.71427654883973,68.60917375526516,4944.460259239751,32.22780341310642,849.6714868579824,1
-123.86182551689359,16.088690401308334,-65.8770053475936,-14.717714490417336,-58.89430750133003,76.3660130718954,-88.51710159614902,9.153153153153163,-30.574074074074076,-60.959999999999994,-31.376470588235293,25.400000000000006,10.458823529411767,4.482352941176472,-9.407407407407423,22.726535211682275,350.04761350305154,68.60917375526516,4944.460259239751,32.22780341310642,849.6714868579824,1
-127.0,27.36834821990187,-63.64697900869982,-30.32258642307005,-47.78359047112373,89.79797979797976,-99.45705599189262,9.153153153153163,-30.574074074074076,-60.959999999999994,-31.376470588235293,25.400000000000006,10.458823529411767,4.482352941176472,-9.407407407407423,22.726535211682275,350.04761350305154,72.67177574286723,6021.163665232408,40.445971217223914,405.896952745359,1
-127.0,27.36834821990187,-63.64697900869982,-30.32258642307005,-47.78359047112373,89.79797979797976,-99.45705599189262,22.882882882882893,11.759259259259254,29.464000000000006,-72.2156862745098,-16.93333333333333,-0.49803921568627274,3.4862745098039234,-7.055555555555571,20.53687887887888,531.4218271091543,72.67177574286723,6021.163665232408,40.445971217223914,405.896952745359,1
-127.0,27.36834821990187,-63.64697900869982,-30.32258642307005,-47.78359047112373,89.79797979797976,-99.45705599189262,5.720720720720731,-29.39814814814815,-46.736,1.4941176470588253,-27.516666666666666,-7.470588235294116,-4.482352941176469,-12.935185185185201,16.969222443031267,254.31641396709438,72.67177574286723,6021.163665232408,40.445971217223914,405.896952745359,1
-123.37081862497898,39.287080135866134,-61.86295793758481,-42.92477162815692,-36.16238103682687,101.38116458704692,-109.04560425639727,5.720720720720731,-29.39814814814815,-46.736,1.4941176470588253,-27.516666666666666,-7.470588235294116,-4.482352941176469,-12.935185185185201,16.969222443031267,254.31641396709438,74.84028556614331,6745.356526315634,48.02493656720262,146.9263264336368,1
-123.37081862497898,39.287080135866134,-61.86295793758481,-42.92477162815692,-36.16238103682687,101.38116458704692,-109.04560425639727,-17.162162162162154,-127.0,-127.0,16.43529411764706,-14.816666666666665,-7.470588235294116,-2.490196078431371,-17.638888888888903,41.25172451863628,2828.81361059404,74.84028556614331,6745.356526315634,48.02493656720262,146.9263264336368,1
-123.37081862497898,39.287080135866134,-61.86295793758481,-42.92477162815692,-36.16238103682687,101.38116458704692,-109.04560425639727,18.30630630630632,-15.287037037037038,-2.0319999999999965,45.321568627450986,-4.233333333333332,-2.490196078431371,-0.49803921568627274,-7.055555555555571,11.90300451922511,223.95527442932766,74.84028556614331,6745.356526315634,48.02493656720262,146.9263264336368,1
-120.87308791393511,48.425839728267704,-61.599409370261,-53.38867992118935,-24.015664715966196,111.60606060606058,-116.70357233341781,18.30630630630632,-15.287037037037038,-2.0319999999999965,45.321568627450986,-4.233333333333332,-2.490196078431371,-0.49803921568627274,-7.055555555555571,11.90300451922511,223.95527442932766,76.96611233748793,7380.175218015322,54.471309673239354,44.264799663129736,1
-120.87308791393511,48.425839728267704,-61.599409370261,-53.38867992118935,-24.015664715966196,111.60606060606058,-116.70357233341781,19.45045045045046,-3.9968028886505635e-15,-50.8,51.29803921568627,1.0583333333333353,1.4941176470588253,-0.49803921568627274,-7.055555555555571,16.456816927221343,496.7450896194963,76.96611233748793,7380.175218015322,54.471309673239354,44.264799663129736,1
-120.87308791393511,48.425839728267704,-61.599409370261,-53.38867992118935,-24.015664715966196,111.60606060606058,-116.70357233341781,19.45045045045046,12.93518518518518,29.464000000000006,-6.474509803921567,5.291666666666668,1.4941176470588253,1.4941176470588253,-7.055555555555571,10.457450369487137,94.72383446491335,76.96611233748793,7380.175218015322,54.471309673239354,44.264799663129736,1
-114.98100521095982,60.376525349100504,-61.923776837736455,-61.66881604871935,-11.343441508541712,119.56714200831846,-122.10919685837348,19.45045045045046,12.93518518518518,29.464000000000006,-6.474509803921567,5.291666666666668,1.4941176470588253,1.4941176470588253,-7.055555555555571,10.457450369487137,94.72383446491335,79.09376913259892,8087.116153627085,61.32303941185211,0.6881679042239592,1
-114.98100521095982,60.376525349100504,-61.923776837736455,-61.66881604871935,-11.343441508541712,119.56714200831846,-122.10919685837348,24.02702702702704,24.69444444444444,23.368000000000002,3.4862745098039234,13.758333333333336,1.4941176470588253,9.462745098039218,9.40740740740739,13.712293683389271,87.24030660465475,79.09376913259892,8087.116153627085,61.32303941185211,0.6881679042239592,1
-114.98100521095982,60.376525349100504,-61.923776837736455,-61.66881604871935,-11.343441508541712,119.56714200831846,-122.10919685837348,25.17117117117118,25.870370370370363,37.592000000000006,4.482352941176472,10.583333333333336,3.4862745098039234,-4.482352941176469,-19.990740740740755,16.457324500971566,159.03541327578816,79.09376913259892,8087.116153627085,61.32303941185211,0.6881679042239592,1
-106.93276180870734,74.08466473770285,-63.484795274962096,-68.17463729177865,1.8542885854465823,124.3966131907308,-124.49024575627061,25.17117117117118,25.870370370370363,37.592000000000006,4.482352941176472,10.583333333333336,3.4862745098039234,-4.482352941176469,-19.990740740740755,16.457324500971566,159.03541327578816,81.5007406071241,8930.065139596447,68.58136576814786,28.21337919690322,1
-106.93276180870734,74.08466473770285,-63.484795274962096,-68.17463729177865,1.8542885854465823,124.3966131907308,-124.49024575627061,27.45945945945947,18.81481481481481,22.352000000000004,-5.478431372549018,1.0583333333333353,-2.490196078431371,-16.435294117647057,-12.935185185185201,13.377964295177534,92.9491299461316,81.5007406071241,8930.065139596447,68.58136576814786,28.21337919690322,1
-106.93276180870734,74.08466473770285,-63.484795274962096,-68.17463729177865,1.8542885854465823,124.3966131907308,-124.49024575627061,6.864864864864874,-18.814814814814817,35.56,17.43137254901961,9.525000000000002,-0.49803921568627274,3.4862745098039234,-1.1759259259259425,11.669536485014431,140.65370009600244,81.5007406071241,8930.065139596447,68.58136576814786,28.21337919690322,1
-103.2822323079509,88.55969304315008,-69.05986112219651,-74.27100125380622,16.057989005142744,126.99999999999997,-122.43096022295413,6.864864864864874,-18.814814814814817,35.56,17.43137254901961,9.525000000000002,-0.49803921568627274,3.4862745098039234,-1.1759259259259425,11.669536485014431,140.65370009600244,86.96726215776584,10469.736477879262,77.29685180638427,101.92768991126259,1
-103.2822323079509,88.55969304315008,-69.05986112219651,-74.27100125380622,16.057989005142744,126.99999999999997,-122.43096022295413,13.72972972972974,10.583333333333329,-68.072,-11.454901960784312,11.64166666666667,8.466666666666669,-2.490196078431371,-14.111111111111127,17.568700693340404,429.82683056157066,86.96726215776584,10469.736477879262,77.29685180638427,101.92768991126259,1
-103.2822323079509,88.55969304315008,-69.05986112219651,-74.27100125380622,16.057989005142744,126.99999999999997,-122.43096022295413,19.45045045045046,19.990740740740733,55.88,12.450980392156865,-9.524999999999999,3.4862745098039234,-5.478431372549018,-5.879629629629646,16.517688386916333,291.477400497101,86.96726215776584,10469.736477879262,77.29685180638427,101.92768991126259,1
-96.70700958144225,99.23223046924141,-71.9588953627584,-79.1389933727387,30.652065969143454,126.7736185383244,-115.80263491259188,19.45045045045046,19.990740740740733,55.88,12.450980392156865,-9.524999999999999,3.4862745098039234,-5.478431372549018,-5.879629629629646,16.517688386916333,291.477400497101,89.29937847114736,11385.176085441342,83.44337306824617,199.85446537995253,1
-96.70700958144225,99.23223046924141,-71.9588953627584,-79.1389933727387,30.652065969143454,126.7736185383244,-115.80263491259188,20.594594594594604,11.759259259259254,15.240000000000002,-14.44313725490196,-40.21666666666667,11.454901960784316,-10.458823529411763,-11.759259259259274,16.990830315609728,98.57643210716942,89.29937847114736,11385.176085441342,83.44337306824617,199.85446537995253,1
-96.70700958144225,99.23223046924141,-71.9588953627584,-79.1389933727387,30.652065969143454,126.7736185383244,-115.80263491259188,28.603603603603617,19.990740740740733,-17.272,-3.48627450980392,-15.874999999999998,-23.4078431372549,12.450980392156865,-16.462962962962976,17.193675668315375,55.61298458852012,89.29937847114736,11385.176085441342,83.44337306824617,199.85446537995253,1
-88.08236678433349,103.80161026544218,-78.42597174555033,-84.23446175891098,44.97588224862563,124.13250148544263,-103.1895110210287,28.603603603603617,19.990740740740733,-17.272,-3.48627450980392,-15.874999999999998,-23.4078431372549,12.450980392156865,-16.462962962962976,17.193675668315375,55.61298458852012,90.10331626510867,11686.59970985948,88.8206812566345,176.75581453402924,1
-88.08236678433349,103.80161026544218,-78.42597174555033,-84.23446175891098,44.97588224862563,124.13250148544263,-103.1895110210287,32.03603603603605,11.759259259259254,13.208000000000004,3.4862745098039234,-30.691666666666666,52.294117647058826,20.419607843137257,3.527777777777761,20.927842467467467,279.06502546005817,90.10331626510867,11686.59970985948,88.8206812566345,176.75581453402924,1
-88.08236678433349,103.80161026544218,-78.42597174555033,-84.23446175891098,44.97588224862563,124.13250148544263,-103.1895110210287,11.441441441441452,-5.879629629629633,-32.512,5.4784313725490215,-8.466666666666665,-0.49803921568627274,-14.44313725490196,-21.166666666666682,12.48575153094271,104.84750426432814,90.10331626510867,11686.59970985948,88.8206812566345,176.75581453402924,1
-92.33064380568162,113.32381431626618,-79.82480644903823,-87.32813899337276,60.230596441449414,121.71776589423645,-87.10134279199394,11.441441441441452,-5.879629629629633,-32.512,5.4784313725490215,-8.466666666666665,-0.49803921568627274,-14.44313725490196,-21.166666666666682,12.48575153094271,104.84750426432814,95.15975485699535,13292.756969493697,93.4922532528924,309.04311047545986,1
-92.33064380568162,113.32381431626618,-79.82480644903823,-87.32813899337276,60.230596441449414,121.71776589423645,-87.10134279199394,26.315315315315324,5.879629629629625,-12.191999999999997,-3.48627450980392,-7.408333333333331,-30.380392156862744,13.447058823529414,-10.58333333333335,13.711542137725962,93.49938602245273,95.15975485699535,13292.756969493697,93.4922532528924,309.04311047545986,1
-92.33064380568162,113.32381431626618,-79.82480644903823,-87.32813899337276,60.230596441449414,121.71776589423645,-87.10134279199394,16.01801801801803,-25.870370370370374,-78.232,-5.478431372549018,9.525000000000002,-3.48627450980392,1.4941176470588253,5.879629629629612,18.247980193428724,650.26913094198,95.15975485699535,13292.756969493697,93.4922532528924,309.04311047545986,1
-85.60598419902504,126.00943514907536,-79.54098491499721,-88.23804406233211,75.80061476621148,116.96375519904929,-66.12237142133267,16.01801801801803,-25.870370370370374,-78.232,-5.478431372549018,9.525000000000002,-3.48627450980392,1.4941176470588253,5.879629629629612,18.247980193428724,650.26913094198,97.05213475436587,14511.474185117386,97.92948804213489,610.2722815994911,1
-85.60598419902504,126.00943514907536,-79.54098491499721,-88.23804406233211,75.80061476621148,116.96375519904929,-66.12237142133267,22.882882882882893,17.638888888888886,35.56,19.423529411764708,13.758333333333336,21.415686274509806,-25.4,-7.055555555555571,20.3918595433669,70.39779412880452,97.05213475436587,14511.474185117386,97.92948804213489,610.2722815994911,1
-85.60598419902504,126.00943514907536,-79.54098491499721,-88.23804406233211,75.80061476621148,116.96375519904929,-66.12237142133267,19.45045045045046,15.287037037037031,-9.143999999999997,5.4784313725490215,-20.10833333333333,-32.372549019607845,9.462745098039218,-7.055555555555571,14.79488773332156,80.88303636107763,97.05213475436587,14511.474185117386,97.92948804213489,610.2722815994911,1
-68.18591359892417,127.0,-74.29028653523825,-87.19165323302883,90.03434415085415,108.43672014260247,-41.410945021535326,19.45045045045046,15.287037037037031,-9.143999999999997,5.4784313725490215,-20.10833333333333,-32.372549019607845,9.462745098039218,-7.055555555555571,14.79488773332156,80.88303636107763,89.82540004472081,13108.763948305103,96.16064658942236,754.9106047545949,1
-68.18591359892417,127.0,-74.29028653523825,-87.19165323302883,90.03434415085415,108.43672014260247,-41.410945021535326,22.882882882882893,4.703703703703699,32.512,12.450980392156865,-7.408333333333331,11.454901960784316,4.482352941176472,-4.70370370370372,12.574857364717662,103.01520149662299,89.82540004472081,13108.763948305103,96.16064658942236,754.9106047545949,1
-68.18591359892417,127.0,-74.29028653523825,-87.19165323302883,90.03434415085415,108.43672014260247,-41.410945021535326,22.882882882882893,10.583333333333329,20.320000000000004,11.454901960784316,-12.7,7.4705882352941195,37.352941176470594,3.527777777777761,15.786553170817877,115.83078335006428,89.82540004472081,13108.763948305103,96.16064658942236,754.9106047545949,1
-48.844511682635726,109.90476789533272,-79.25716338095619,-88.87497761060365,101.9408287521428,98.96642899584074,-11.165188750950051,22.882882882882893,10.583333333333329,20.320000000000004,11.454901960784316,-12.7,7.4705882352941195,37.352941176470594,3.527777777777761,15.786553170817877,115.83078335006428,79.33548098630821,10318.083232337132,92.67896962896418,245.6716820742213,1
-48.844511682635726,109.90476789533272,-79.25716338095619,-88.87497761060365,101.9408287521428,98.96642899584074,-11.165188750950051,21.73873873873875,17.638888888888886,3.552713678800501e-15,9.462745098039218,12.700000000000003,-34.364705882352936,11.454901960784316,-8.231481481481497,14.448932756285702,106.32407461466035,79.33548098630821,10318.083232337132,92.67896962896418,245.6716820742213,1
-48.844511682635726,109.90476789533272,-79.25716338095619,-88.87497761060365,101.9408287521428,98.96642899584074,-11.165188750950051,20.594594594594604,2.3518518518518476,3.552713678800501e-15,-3.48627450980392,11.64166666666667,21.415686274509806,-25.4,-16.462962962962976,12.669129607548728,95.44529348706094,79.33548098630821,10318.083232337132,92.67896962896418,245.6716820742213,1
-15.840309295679935,82.8719335765505,-91.11684891052758,-98.065018807093,110.09369273511851,87.79827688651216,26.73853559665565,20.594594594594604,2.3518518518518476,3.552713678800501e-15,-3.48627450980392,11.64166666666667,21.415686274509806,-25.4,-16.462962962962976,12.669129607548728,95.44529348706094,63.276363927586004,7613.793456764617,90.68460043139036,57.84758876641944,1
-15.840309295679935,82.8719335765505,-91.11684891052758,-98.065018807093,110.09369273511851,87.79827688651216,26.73853559665565,20.594594594594604,2.3518518518518476,-1.0159999999999965,1.4941176470588253,11.64166666666667,6.4745098039215705,-25.4,-15.287037037037052,10.53247220014132,85.96722762408797,63.276363927586004,7613.793456764617,90.68460043139036,57.84758876641944,1
-15.840309295679935,82.8719335765505,-91.11684891052758,-98.065018807093,110.09369273511851,87.79827688651216,26.73853559665565,28.603603603603617,19.990740740740733,17.272000000000006,13.447058823529414,19.05,-70.2235294117647,23.407843137254904,-9.407407407407423,25.1752728905376,365.32276086957376,63.276363927586004,7613.793456764617,90.68460043139036,57.84758876641944,1
-11.165069759623456,64.81809032582714,-87.91372016920744,-107.16406949668641,116.51989123367026,78.25252525252523,63.41955915885478,28.603603603603617,19.990740740740733,17.272000000000006,13.447058823529414,19.05,-70.2235294117647,23.407843137254904,-9.407407407407423,25.1752728905376,365.32276086957376,54.63229341821935,5831.8003155591505,86.63195999724034,449.5276698385426,1
-11.165069759623456,64.81809032582714,-87.91372016920744,-107.16406949668641,116.51989123367026,78.25252525252523,63.41955915885478,14.873873873873883,-8.231481481481485,-8.127999999999997,-4.482352941176469,5.291666666666668,-16.435294117647057,5.4784313725490215,-1.5987211554602254e-14,7.865137556674324,29.770858878612387,54.63229341821935,5831.8003155591505,86.63195999724034,449.5276698385426,1
-11.165069759623456,64.81809032582714,-87.91372016920744,-107.16406949668641,116.51989123367026,78.25252525252523,63.41955915885478,16.01801801801803,8.231481481481477,23.368000000000002,5.4784313725490215,29.633333333333333,33.3686274509804,-20.419607843137253,-12.935185185185201,18.681585585585587,97.75383508944174,54.63229341821935,5831.8003155591505,86.63195999724034,449.5276698385426,1
-19.320053790553025,47.786765630896966,-77.08795594221408,-112.66899516389037,122.12029319619316,71.42335115864526,93.79402077527232,16.01801801801803,8.231481481481477,23.368000000000002,5.4784313725490215,29.633333333333333,33.3686274509804,-20.419607843137253,-12.935185185185201,18.681585585585587,97.75383508944174,48.06492512122136,3905.691969971498,79.18123891233381,1055.7123024877553,1
-19.320053790553025,47.786765630896966,-77.08795594221408,-112.66899516389037,122.12029319619316,71.42335115864526,93.79402077527232,4.576576576576587,-29.39814814814815,-48.768,-15.439215686274508,-27.516666666666666,-41.33725490196078,-8.466666666666665,-16.462962962962976,23.99568645115704,243.45554397850972,48.06492512122136,3905.691969971498,79.18123891233381,1055.7123024877553,1
-19.320053790553025,47.786765630896966,-77.08795594221408,-112.66899516389037,122.12029319619316,71.42335115864526,93.79402077527232,24.02702702702704,-4.703703703703708,9.144000000000004,-3.48627450980392,-51.858333333333334,15.439215686274512,4.482352941176472,-2.351851851851868,14.436594881646357,283.02090573913694,48.06492512122136,3905.691969971498,79.18123891233381,1055.7123024877553,1
-26.72785342074297,17.015347842495906,-65.69454864713865,-116.21762493283182,126.44446414848967,69.23499702911465,115.28781352926273,24.02702702702704,-4.703703703703708,9.144000000000004,-3.48627450980392,-51.858333333333334,15.439215686274512,4.482352941176472,-2.351851851851868,14.436594881646357,283.02090573913694,36.47924997012584,1712.1329951581824,66.30917380748879,2460.556268042748,1
-26.72785342074297,17.015347842495906,-65.69454864713865,-116.21762493283182,126.44446414848967,69.23499702911465,115.28781352926273,28.603603603603617,18.81481481481481,15.240000000000002,21.415686274509806,25.400000000000006,35.36078431372549,9.462745098039218,-2.351851851851868,19.581185744568103,112.3271074478873,36.47924997012584,1712.1329951581824,66.30917380748879,2460.556268042748,1
-26.72785342074297,17.015347842495906,-65.69454864713865,-116.21762493283182,126.44446414848967,69.23499702911465,115.28781352926273,22.882882882882893,11.759259259259254,-3.0479999999999965,-1.4941176470588218,1.7763568394002505e-15,21.415686274509806,15.439215686274512,-1.1759259259259425,9.651885959488904,89.50596852863247,36.47924997012584,1712.1329951581824,66.30917380748879,2460.556268042748,1
-18.53017313834257,-20.881746131588887,-52.67930401468594,-120.67615977073257,126.99999999999999,68.40493166963753,125.45553585001267,22.882882882882893,11.759259259259254,-3.0479999999999965,-1.4941176470588218,1.7763568394002505e-15,21.415686274509806,15.439215686274512,-1.1759259259259425,9.651885959488904,89.50596852863247,30.6970744282058,363.7962870801835,64.74573663900247,2598.9303456030043,1
-18.53017313834257,-20.881746131588887,-52.67930401468594,-120.67615977073257,126.99999999999999,68.40493166963753,125.45553585001267,11.441441441441452,-4.703703703703708,-19.303999999999995,4.482352941176472,22.225,-14.44313725490196,16.43529411764706,-8.231481481481497,12.658301367544018,43.476797923483254,30.6970744282058,363.7962870801835,64.74573663900247,2598.9303456030043,1
-18.53017313834257,-20.881746131588887,-52.67930401468594,-120.67615977073257,126.99999999999999,68.40493166963753,125.45553585001267,16.01801801801803,-12.935185185185189,25.400000000000006,8.466666666666669,-46.56666666666666,3.4862745098039234,0.4980392156862763,-4.70370370370372,14.75931924571631,228.71739295200067,30.6970744282058,363.7962870801835,64.74573663900247,2598.9303456030043,1
-2.8393007228105454,-45.42219147062524,-33.70380716737171,-125.1801898620813,124.41750901460068,65.57516339869278,127.0,16.01801801801803,-12.935185185185189,25.400000000000006,8.466666666666669,-46.56666666666666,3.4862745098039234,0.4980392156862763,-4.70370370370372,14.75931924571631,228.71739295200067,27.321766453602496,483.8734788642365,68.10206283335943,2477.764571499869,1
-2.8393007228105454,-45.42219147062524,-33.70380716737171,-125.1801898620813,124.41750901460068,65.57516339869278,127.0,22.882882882882893,8.231481481481477,3.0480000000000036,-8.466666666666665,-2.1166666666666645,63.25098039215686,2.4901960784313744,-10.58333333333335,15.13377593770241,423.35482729939673,27.321766453602496,483.8734788642365,68.10206283335943,2477.764571499869,1
-2.8393007228105454,-45.42219147062524,-33.70380716737171,-125.1801898620813,124.41750901460068,65.57516339869278,127.0,12.585585585585596,-15.287037037037038,-22.351999999999997,-15.439215686274508,-46.56666666666666,-66.2392156862745,-11.454901960784312,-5.879629629629646,24.475531531531534,437.07593765617565,27.321766453602496,483.8734788642365,68.10206283335943,2477.764571499869,1
-1.2381912926542142,-66.06428481570009,-14.120121318540996,-127.0,120.00325116746467,62.707664884135454,118.31238915632127,12.585585585585596,-15.287037037037038,-22.351999999999997,-15.439215686274508,-46.56666666666666,-66.2392156862745,-11.454901960784312,-5.879629629629646,24.475531531531534,437.07593765617565,27.140865808965103,1177.7604406783548,69.0614687114137,3192.2040862637696,1
-1.2381912926542142,-66.06428481570009,-14.120121318540996,-127.0,120.00325116746467,62.707664884135454,118.31238915632127,19.45045045045046,7.055555555555551,-9.143999999999997,-11.454901960784312,-38.099999999999994,-21.415686274509802,-4.482352941176469,-7.055555555555571,14.76981284225402,125.40905734106813,27.140865808965103,1177.7604406783548,69.0614687114137,3192.2040862637696,1
-1.2381912926542142,-66.06428481570009,-14.120121318540996,-127.0,120.00325116746467,62.707664884135454,118.31238915632127,14.873873873873883,-1.17592592592593,-18.287999999999997,-10.458823529411763,-10.583333333333332,43.32941176470588,-6.474509803921567,-12.935185185185201,14.764882927044694,160.16026827426438,27.140865808965103,1177.7604406783548,69.0614687114137,3192.2040862637696,1
3.6718776264918596,-83.09560951063028,4.510735094580561,-126.36306645172846,114.50795058225452,59.425133689839555,103.38256903977708,14.873873873873883,-1.17592592592593,-18.287999999999997,-10.458823529411763,-10.583333333333332,43.32941176470588,-6.474509803921567,-12.935185185185201,14.764882927044694,160.16026827426438,30.426074077234233,2534.02868683823,71.32313701897976,3815.9409957180437,1
3.6718776264918596,-83.09560951063028,4.510735094580561,-126.36306645172846,114.50795058225452,59.425133689839555,103.38256903977708,11.441441441441452,-11.759259259259263,-24.383999999999997,-5.478431372549018,-14.816666666666665,1.4941176470588253,2.4901960784313744,-9.407407407407423,10.158939984101753,54.94476048226142,30.426074077234233,2534.02868683823,71.32313701897976,3815.9409957180437,1
3.6718776264918596,-83.09560951063028,4.510735094580561,-126.36306645172846,114.50795058225452,59.425133689839555,103.38256903977708,18.30630630630632,5.879629629629625,4.064000000000004,7.4705882352941195,-14.816666666666665,-26.396078431372548,-3.48627450980392,-4.70370370370372,10.640405935347115,69.54803973538712,30.426074077234233,2534.02868683823,71.32313701897976,3815.9409957180437,1
20.302067574382264,-92.74562838092842,23.405140075025926,-123.90632276553828,106.21995625701955,52.14319667260841,82.91841905244485,18.30630630630632,5.879629629629625,4.064000000000004,7.4705882352941195,-14.816666666666665,-26.396078431372548,-3.48627450980392,-4.70370370370372,10.640405935347115,69.54803973538712,45.48427867677887,4380.06860544289,80.01903040716421,2646.5966525372996,1
20.302067574382264,-92.74562838092842,23.405140075025926,-123.90632276553828,106.21995625701955,52.14319667260841,82.91841905244485,25.17117117117118,9.407407407407403,9.144000000000004,0.4980392156862763,1.7763568394002505e-15,4.482352941176472,7.4705882352941195,-9.407407407407423,8.19762079726786,61.82007829012118,45.48427867677887,4380.06860544289,80.01903040716421,2646.5966525372996,1
20.302067574382264,-92.74562838092842,23.405140075025926,-123.90632276553828,106.21995625701955,52.14319667260841,82.91841905244485,20.594594594594604,9.407407407407403,6.096000000000004,-1.4941176470588218,-15.874999999999998,18.42745098039216,-1.4941176470588218,-4.70370370370372,9.761548997526942,57.95304632131318,45.48427867677887,4380.06860544289,80.01903040716421,2646.5966525372996,1
22.77845015969072,-101.21336017109071,35.38646340490061,-118.53788285867813,96.49057161435242,44.33303624480092,58.206992652647614,20.594594594594604,9.407407407407403,6.096000000000004,-1.4941176470588218,-15.874999999999998,18.42745098039216,-1.4941176470588218,-4.70370370370372,9.761548997526942,57.95304632131318,53.12609124522735,5698.740471347971,85.04590214488981,1924.5796635662387,1
22.77845015969072,-101.21336017109071,35.38646340490061,-118.53788285867813,96.49057161435242,44.33303624480092,58.206992652647614,8.009009009009018,-9.40740740740741,-4.0639999999999965,-6.474509803921567,-33.86666666666666,-15.439215686274508,-4.482352941176469,-10.58333333333335,11.540811855973622,94.71073296124156,53.12609124522735,5698.740471347971,85.04590214488981,1924.5796635662387,1
22.77845015969072,-101.21336017109071,35.38646340490061,-118.53788285867813,96.49057161435242,44.33303624480092,58.206992652647614,13.72972972972974,-17.638888888888893,22.352000000000004,10.458823529411767,1.0583333333333353,15.439215686274512,-14.44313725490196,-10.58333333333335,13.212932719484195,38.868950509796164,53.12609124522735,5698.740471347971,85.04590214488981,1924.5796635662387,1
22.970583291309474,-111.5983142533652,38.52877324606911,-112.07755686906683,85.69515871608439,38.0698158051099,32.40157081327584,13.72972972972974,-17.638888888888893,22.352000000000004,10.458823529411767,1.0583333333333353,15.439215686274512,-14.44313725490196,-10.58333333333335,13.212932719484195,38.868950509796164,57.6992235969146,6814.83131035339,87.40154812283372,1791.4685114873614,1
