Gyro 0,Gyro 1,Gyro 2,Orientation 0,Orientation 1,Orientation 2,Orientation 3,Sensor 0,Sensor 1,Sensor 2,Sensor 3,Sensor 4,Sensor 5,Sensor 6,Sensor 7,Sensor Mean,Sensor Variance,Gyro Mean,Gyro Variance,Orientation Mean,Orientation Variance,Label
-36.15710038874914,4.4889543446244655,-33.415009041591325,122.81571325126725,-125.71917927316989,67.72315705128204,13.435831520664408,14.111111111111107,36.9902912621359,31.889867841409707,-33.2489270386266,-25.82157676348547,-13.44705882352941,-3.48627450980392,12.211538461538467,21.40083072645507,147.8212110660813,24.687021258321646,516.0552117880247,53.57322554582768,3805.0707378114425,1
-36.15710038874914,4.4889543446244655,-33.415009041591325,122.81571325126725,-125.71917927316989,67.72315705128204,13.435831520664408,10.262626262626258,27.126213592232983,45.3171806167401,7.085836909871256,19.49792531120333,-5.478431372549018,9.462745098039218,14.65384615384616,17.36060066463854,178.33518793728504,24.687021258321646,516.0552117880247,53.57322554582768,3805.0707378114425,1
-36.15710038874914,4.4889543446244655,-33.415009041591325,122.81571325126725,-125.71917927316989,67.72315705128204,13.435831520664408,11.54545454545454,19.7281553398058,-12.867841409691614,-8.17596566523604,19.49792531120333,18.42745098039216,14.443137254901963,23.201923076923084,15.985981697951066,25.31228477233694,24.687021258321646,516.0552117880247,53.57322554582768,3805.0707378114425,1
-36.09901669334553,4.382074479276264,-33.55280289330923,122.53982621288924,-125.79278965976934,68.18108974358978,13.63674115087997,11.54545454545454,19.7281553398058,-12.867841409691614,-8.17596566523604,19.49792531120333,18.42745098039216,14.443137254901963,23.201923076923084,15.985981697951066,25.31228477233694,24.677964688643673,514.0428114191187,53.49156786182491,3788.479335037812,1
-36.09901669334553,4.382074479276264,-33.55280289330923,122.53982621288924,-125.79278965976934,68.18108974358978,13.63674115087997,10.262626262626258,7.398058252427159,-3.9162995594713497,-3.8154506437768125,-6.850622406638996,-5.478431372549018,-5.478431372549018,12.211538461538467,6.926432291447135,8.88903354666964,24.677964688643673,514.0428114191187,53.49156786182491,3788.479335037812,1
-35.944126838935894,4.301914580265113,-33.55280289330923,122.58580738595225,-125.9400104329682,68.79166666666669,13.837650781095533,10.262626262626258,7.398058252427159,-3.9162995594713497,-3.8154506437768125,-6.850622406638996,-5.478431372549018,-5.478431372549018,12.211538461538467,6.926432291447135,8.88903354666964,24.59961477083674,509.7403191888508,53.48017495317553,3795.5949422260774,1
-35.944126838935894,4.301914580265113,-33.55280289330923,122.58580738595225,-125.9400104329682,68.79166666666669,13.837650781095533,16.67676767676767,27.126213592232983,-10.629955947136548,-4.905579399141619,8.958506224066399,4.482352941176472,-1.4941176470588218,14.65384615384616,11.115917447678335,68.54452390666172,24.59961477083674,509.7403191888508,53.48017495317553,3795.5949422260774,1
-35.944126838935894,4.301914580265113,-33.55280289330923,122.58580738595225,-125.9400104329682,68.79166666666669,13.837650781095533,12.828282828282823,27.126213592232983,-21.81938325991188,-8.17596566523604,-6.850622406638996,4.482352941176472,-13.44705882352941,15.875000000000007,13.825609939626077,59.144259172211704,24.59961477083674,509.7403191888508,53.48017495317553,3795.5949422260774,1
-35.460096043905786,4.248474647591013,-33.96618444846293,122.63178855901526,-126.13139743812673,69.04607371794873,14.339924856634354,12.828282828282823,27.126213592232983,-21.81938325991188,-8.17596566523604,-6.850622406638996,4.482352941176472,-13.44705882352941,15.875000000000007,13.825609939626077,59.144259172211704,24.55825171331991,506.56042134070265,53.61548255168973,3793.2234401248083,1
-35.460096043905786,4.248474647591013,-33.96618444846293,122.63178855901526,-126.13139743812673,69.04607371794873,14.339924856634354,14.111111111111107,23.42718446601939,-9.511013215859016,-4.905579399141619,4.742738589211627,-1.4941176470588218,-4.482352941176469,14.65384615384616,9.665992940428026,53.511686584575784,24.55825171331991,506.56042134070265,53.61548255168973,3793.2234401248083,1
-35.460096043905786,4.248474647591013,-33.96618444846293,122.63178855901526,-126.13139743812673,69.04607371794873,14.339924856634354,5.131313131313126,9.864077669902887,30.770925110132175,11.446351931330483,26.87551867219918,-1.4941176470588218,-3.48627450980392,8.548076923076929,12.202081949352191,117.1603423846536,24.55825171331991,506.56042134070265,53.61548255168973,3793.2234401248083,1
-35.65370836191783,5.183673469387773,-33.874321880650996,122.58580738595225,-126.19028574740625,69.24959935897436,14.490607079296012,5.131313131313126,9.864077669902887,30.770925110132175,11.446351931330483,26.87551867219918,-1.4941176470588218,-3.48627450980392,8.548076923076929,12.202081949352191,117.1603423846536,24.903901237318866,532.7308286415357,53.881267578663675,3746.0236691631553,1
-35.65370836191783,5.183673469387773,-33.874321880650996,122.58580738595225,-126.19028574740625,69.24959935897436,14.490607079296012,3.848484848484844,-1.2330097087378888,-22.938325991189416,-13.626609442060074,-28.98340248962655,-0.49803921568627274,-3.48627450980392,9.769230769230775,10.547922121852467,112.2843981060435,24.903901237318866,532.7308286415357,53.881267578663675,3746.0236691631553,1
-35.65370836191783,5.183673469387773,-33.874321880650996,122.58580738595225,-126.19028574740625,69.24959935897436,14.490607079296012,8.979797979797976,20.961165048543663,-13.98678414096915,-22.34763948497853,-21.605809128630696,-1.4941176470588218,-2.490196078431371,5.329070518200751e-15,11.483188688551277,90.76997222957758,24.903901237318866,532.7308286415357,53.881267578663675,3746.0236691631553,1
-35.86668191173108,5.023353671365471,-34.21880650994576,122.44786386676327,-126.23445197936593,69.55488782051285,14.591061894403822,8.979797979797976,20.961165048543663,-13.98678414096915,-22.34763948497853,-21.605809128630696,-1.4941176470588218,-2.490196078431371,5.329070518200751e-15,11.483188688551277,90.76997222957758,25.03628069768077,535.7762731703999,53.8966746826915,3737.54277052524,1
-35.86668191173108,5.023353671365471,-34.21880650994576,122.44786386676327,-126.23445197936593,69.55488782051285,14.591061894403822,8.979797979797976,16.029126213592207,6.154185022026447,-8.17596566523604,5.79668049792532,9.462745098039218,4.482352941176472,18.3173076923077,9.674770138762673,24.605849634285132,25.03628069768077,535.7762731703999,53.8966746826915,3737.54277052524,1
-35.86668191173108,5.023353671365471,-34.21880650994576,122.44786386676327,-126.23445197936593,69.55488782051285,14.591061894403822,14.111111111111107,29.59223300970871,3.9162995594713816,-8.17596566523604,-8.958506224066381,-9.462745098039214,5.4784313725490215,18.3173076923077,12.251574966561195,70.21916639357221,25.03628069768077,535.7762731703999,53.8966746826915,3737.54277052524,1
-34.91798155347207,5.424153166421226,-34.241772151898736,122.58580738595225,-126.32278444328523,69.453125,14.842198932173233,14.111111111111107,29.59223300970871,3.9162995594713816,-8.17596566523604,-8.958506224066381,-9.462745098039214,5.4784313725490215,18.3173076923077,12.251574966561195,70.21916639357221,24.861302290597347,533.5551207118888,54.083910901424076,3726.996157480799,1
-34.91798155347207,5.424153166421226,-34.241772151898736,122.58580738595225,-126.32278444328523,69.453125,14.842198932173233,7.696969696969692,12.330097087378615,-13.98678414096915,-15.806866952789688,4.742738589211627,-2.490196078431371,40.34117647058824,15.875000000000007,14.158728627042299,137.30368990878154,24.861302290597347,533.5551207118888,54.083910901424076,3726.996157480799,1
-34.91798155347207,5.424153166421226,-34.241772151898736,122.58580738595225,-126.32278444328523,69.453125,14.842198932173233,20.52525252525252,54.252427184465986,60.982378854625566,-11.446351931330462,12.120331950207477,10.458823529411767,10.458823529411767,14.65384615384616,24.362279457318962,435.24681428666383,24.861302290597347,533.5551207118888,54.083910901424076,3726.996157480799,1
-35.20840003049013,5.103513570376622,-34.63218806509946,122.44786386676327,-126.39639482988468,69.24959935897436,15.244018192604301,20.52525252525252,54.252427184465986,60.982378854625566,-11.446351931330462,12.120331950207477,10.458823529411767,10.458823529411767,14.65384615384616,24.362279457318962,435.24681428666383,24.981367221988737,534.0513971427304,54.061188500746454,3725.5386800665533,1
-35.20840003049013,5.103513570376622,-34.63218806509946,122.44786386676327,-126.39639482988468,69.24959935897436,15.244018192604301,11.54545454545454,28.359223300970847,21.81938325991191,-14.716738197424881,-2.634854771784224,-9.462745098039214,-20.419607843137253,12.211538461538467,15.146193184782668,65.36023607255757,24.981367221988737,534.0513971427304,54.061188500746454,3725.5386800665533,1
-35.20840003049013,5.103513570376622,-34.63218806509946,122.44786386676327,-126.39639482988468,69.24959935897436,15.244018192604301,16.67676767676767,22.194174757281527,34.127753303964774,-4.905579399141619,7.904564315352706,1.4941176470588253,-4.482352941176469,13.432692307692314,13.152250293554488,120.1219944179962,24.981367221988737,534.0513971427304,54.061188500746454,3725.5386800665533,1
-35.5375409711106,5.424153166421226,-34.402531645569624,122.30992034757429,-126.42583898452443,69.24959935897436,15.495155230373712,16.67676767676767,22.194174757281527,34.127753303964774,-4.905579399141619,7.904564315352706,1.4941176470588253,-4.482352941176469,13.432692307692314,13.152250293554488,120.1219944179962,25.121408594367153,544.2189093165728,54.04553505318838,3704.9563295354706,1
-35.5375409711106,5.424153166421226,-34.402531645569624,122.30992034757429,-126.42583898452443,69.24959935897436,15.495155230373712,12.828282828282823,28.359223300970847,-7.27312775330395,-12.536480686695267,-0.5269709543568377,1.4941176470588253,-2.490196078431371,12.211538461538467,9.714992213829799,83.09376659985358,25.121408594367153,544.2189093165728,54.04553505318838,3704.9563295354706,1
-35.5375409711106,5.424153166421226,-34.402531645569624,122.30992034757429,-126.42583898452443,69.24959935897436,15.495155230373712,15.39393939393939,24.660194174757255,47.55506607929517,3.8154506437768365,3.6887966804979344,-1.4941176470588218,-3.48627450980392,19.538461538461547,14.954037583448859,248.84282822651215,25.121408594367153,544.2189093165728,54.04553505318838,3704.9563295354706,1
-35.65370836191783,5.023353671365471,-34.12694394213382,122.21795800144827,-126.47000521648411,69.453125,15.64583745303537,15.39393939393939,24.660194174757255,47.55506607929517,3.8154506437768365,3.6887966804979344,-1.4941176470588218,-3.48627450980392,19.538461538461547,14.954037583448859,248.84282822651215,24.934668658472372,531.6166980797774,53.78941853831585,3723.603501455292,1
-35.65370836191783,5.023353671365471,-34.12694394213382,122.21795800144827,-126.47000521648411,69.453125,15.64583745303537,12.828282828282823,20.961165048543663,21.81938325991191,-8.17596566523604,-7.9045643153526886,-5.478431372549018,-1.4941176470588218,13.432692307692314,11.511825305578409,51.69359478330983,24.934668658472372,531.6166980797774,53.78941853831585,3723.603501455292,1
-35.65370836191783,5.023353671365471,-34.12694394213382,122.21795800144827,-126.47000521648411,69.453125,15.64583745303537,2.5656565656565604,13.563106796116479,-6.154185022026418,-0.545064377682392,8.958506224066399,6.4745098039215705,3.4862745098039234,18.3173076923077,7.508076373947681,35.37054905153654,24.934668658472372,531.6166980797774,53.78941853831585,3723.603501455292,1
-35.44073481210458,5.023353671365471,-34.19584086799277,122.35590152063725,-126.57305975772331,69.8601762820513,15.696064860589274,2.5656565656565604,13.563106796116479,-6.154185022026418,-0.545064377682392,8.958506224066399,6.4745098039215705,3.4862745098039234,18.3173076923077,7.508076373947681,35.37054905153654,24.886643117154275,529.5062396743679,53.85836535333183,3731.692848052831,1
-35.44073481210458,5.023353671365471,-34.19584086799277,122.35590152063725,-126.57305975772331,69.8601762820513,15.696064860589274,17.959595959595955,45.62135922330094,62.1013215859031,-4.905579399141619,5.79668049792532,15.439215686274512,-1.4941176470588218,12.211538461538467,20.691176057592344,468.97445259191375,24.886643117154275,529.5062396743679,53.85836535333183,3731.692848052831,1
-35.44073481210458,5.023353671365471,-34.19584086799277,122.35590152063725,-126.57305975772331,69.8601762820513,15.696064860589274,20.52525252525252,45.62135922330094,21.81938325991191,-7.085836909871233,18.443983402489636,6.4745098039215705,45.321568627450986,19.538461538461547,23.103794411332544,225.21461609274027,24.886643117154275,529.5062396743679,53.85836535333183,3731.692848052831,1
-34.66628554005641,4.782873974332018,-34.33363471971067,122.40188269370026,-126.64667014432274,69.91105769230771,15.896974490804837,20.52525252525252,45.62135922330094,21.81938325991191,-7.085836909871233,18.443983402489636,6.4745098039215705,45.321568627450986,19.538461538461547,23.103794411332544,225.21461609274027,24.5942647446997,514.4080158951762,53.83946379591432,3743.9158289942584,1
-34.66628554005641,4.782873974332018,-34.33363471971067,122.40188269370026,-126.64667014432274,69.91105769230771,15.896974490804837,12.828282828282823,25.89320388349512,-20.700440528634346,-16.896995708154495,-5.796680497925303,-4.482352941176469,-5.478431372549018,13.432692307692314,13.188635008488735,60.23746117709579,24.5942647446997,514.4080158951762,53.83946379591432,3743.9158289942584,1
-34.66628554005641,4.782873974332018,-34.33363471971067,122.40188269370026,-126.64667014432274,69.91105769230771,15.896974490804837,7.696969696969692,25.89320388349512,9.511013215859046,-5.995708154506426,-3.6887966804979166,3.4862745098039234,-14.44313725490196,10.990384615384622,10.213186001427339,53.82714154319241,24.5942647446997,514.4080158951762,53.83946379591432,3743.9158289942584,1
-33.38844424117692,4.91647380601727,-34.49439421338156,122.95365677045623,-126.86750130412105,69.453125,16.499703381451468,7.696969696969692,25.89320388349512,9.511013215859046,-5.995708154506426,-3.6887966804979166,3.4862745098039234,-14.44313725490196,10.990384615384622,10.213186001427339,53.82714154319241,24.26643742019192,503.61773166429265,54.12150826328502,3772.111844991048,1
-33.38844424117692,4.91647380601727,-34.49439421338156,122.95365677045623,-126.86750130412105,69.453125,16.499703381451468,10.262626262626258,22.194174757281527,0.5594713656387817,-1.6351931330471983,7.904564315352706,4.482352941176472,2.4901960784313744,15.875000000000007,8.175447356694292,58.13950947309312,24.26643742019192,503.61773166429265,54.12150826328502,3772.111844991048,1
-33.38844424117692,4.91647380601727,-34.49439421338156,122.95365677045623,-126.86750130412105,69.453125,16.499703381451468,11.54545454545454,11.097087378640751,-68.81497797356828,-33.2489270386266,-21.605809128630696,-6.474509803921567,-8.466666666666665,9.769230769230775,21.377832913092483,445.31341010899604,24.26643742019192,503.61773166429265,54.12150826328502,3772.111844991048,1
-35.34392865309856,5.1569535030507225,-34.51735985533454,122.90767559739322,-126.94111169072048,69.453125,16.801067826774783,11.54545454545454,11.097087378640751,-68.81497797356828,-33.2489270386266,-21.605809128630696,-6.474509803921567,-8.466666666666665,9.769230769230775,21.377832913092483,445.31341010899604,25.006080670494608,535.8426353105126,54.19399631859283,3756.6856553151883,1
-35.34392865309856,5.1569535030507225,-34.51735985533454,122.90767559739322,-126.94111169072048,69.453125,16.801067826774783,19.24242424242424,24.660194174757255,31.889867841409707,-1.6351931330471983,-25.82157676348547,-5.478431372549018,-6.474509803921567,18.3173076923077,16.68993812798777,120.54448463009768,25.006080670494608,535.8426353105126,54.19399631859283,3756.6856553151883,1
-35.34392865309856,5.1569535030507225,-34.51735985533454,122.90767559739322,-126.94111169072048,69.453125,16.801067826774783,6.414141414141409,30.825242718446574,12.867841409691646,-10.356223175965653,4.742738589211627,-14.44313725490196,-11.454901960784312,15.875000000000007,13.3724033153929,63.98976047594247,25.006080670494608,535.8426353105126,54.19399631859283,3756.6856553151883,1
-36.23454531595396,5.958552493162231,-34.33363471971067,122.72375090514123,-126.8969454587608,69.75841346153848,16.650385604113126,6.414141414141409,30.825242718446574,12.867841409691646,-10.356223175965653,4.742738589211627,-14.44313725490196,-11.454901960784312,15.875000000000007,13.3724033153929,63.98976047594247,25.50891084294229,567.8885523702924,54.33864603933805,3708.6782484710207,1
-36.23454531595396,5.958552493162231,-34.33363471971067,122.72375090514123,-126.8969454587608,69.75841346153848,16.650385604113126,6.414141414141409,20.961165048543663,44.198237885462575,-1.6351931330471983,20.55186721991702,5.4784313725490215,4.482352941176472,10.990384615384622,14.338971703777748,197.87048018192436,25.50891084294229,567.8885523702924,54.33864603933805,3708.6782484710207,1
-36.23454531595396,5.958552493162231,-34.33363471971067,122.72375090514123,-126.8969454587608,69.75841346153848,16.650385604113126,10.262626262626258,27.126213592232983,60.982378854625566,-0.545064377682392,-19.49792531120331,-3.48627450980392,-0.49803921568627274,13.432692307692314,16.978901803944126,403.86345756447787,25.50891084294229,567.8885523702924,54.33864603933805,3708.6782484710207,1
-34.53075691744798,5.8249526614769795,-34.21880650994576,122.99963794351925,-126.94111169072048,69.65665064102566,16.650385604113126,10.262626262626258,27.126213592232983,60.982378854625566,-0.545064377682392,-19.49792531120331,-3.48627450980392,-0.49803921568627274,13.432692307692314,16.978901803944126,403.86345756447787,24.858172029623574,538.6972095423632,54.34779903831399,3736.358972891742,1
-34.53075691744798,5.8249526614769795,-34.21880650994576,122.99963794351925,-126.94111169072048,69.65665064102566,16.650385604113126,12.828282828282823,19.7281553398058,-25.17621145374448,-13.626609442060074,0.5269709543568553,-1.4941176470588218,24.403921568627453,12.211538461538467,13.749475961934348,86.86992758812542,24.858172029623574,538.6972095423632,54.34779903831399,3736.358972891742,1
-34.53075691744798,5.8249526614769795,-34.21880650994576,122.99963794351925,-126.94111169072048,69.65665064102566,16.650385604113126,20.52525252525252,34.52427184466016,-6.154185022026418,-11.446351931330462,0.5269709543568553,-19.423529411764704,-8.466666666666665,15.875000000000007,14.617778544507225,110.55999564020132,24.858172029623574,538.6972095423632,54.34779903831399,3736.358972891742,1
-33.64014025459258,6.225752156532734,-34.402531645569624,123.41346850108624,-127.0,69.04607371794873,16.85129523432863,20.52525252525252,34.52427184466016,-6.154185022026418,-11.446351931330462,0.5269709543568553,-19.423529411764704,-8.466666666666665,15.875000000000007,14.617778544507225,110.55999564020132,24.756141352231648,540.0880105121047,54.68058410106287,3741.6397740536854,1
-33.64014025459258,6.225752156532734,-34.402531645569624,123.41346850108624,-127.0,69.04607371794873,16.85129523432863,12.828282828282823,35.75728155339803,-3.9162995594713497,-9.266094420600847,27.929460580912874,3.4862745098039234,-11.454901960784312,10.990384615384622,14.453622503579847,131.04293083974576,24.756141352231648,540.0880105121047,54.68058410106287,3741.6397740536854,1
-33.64014025459258,6.225752156532734,-34.402531645569624,123.41346850108624,-127.0,69.04607371794873,16.85129523432863,12.828282828282823,24.660194174757255,-35.24669603524227,-2.7253218884120054,26.87551867219918,3.4862745098039234,-1.4941176470588218,10.990384615384622,14.788348796392611,161.47906460857212,24.756141352231648,540.0880105121047,54.68058410106287,3741.6397740536854,1
-34.10480981782148,6.599831685251438,-35.02260397830018,123.55141202027522,-127.0,68.18108974358978,17.202887087205852,12.828282828282823,24.660194174757255,-35.24669603524227,-2.7253218884120054,26.87551867219918,3.4862745098039234,-1.4941176470588218,10.990384615384622,14.788348796392611,161.47906460857212,25.2424151604577,565.0228894301981,55.05794922794229,3720.479330169148,1
-34.10480981782148,6.599831685251438,-35.02260397830018,123.55141202027522,-127.0,68.18108974358978,17.202887087205852,24.37373737373737,44.388349514563075,41.960352422907505,-4.905579399141619,-5.796680497925303,7.4705882352941195,0.4980392156862763,19.538461538461547,18.6164735247146,292.5666506631805,25.2424151604577,565.0228894301981,55.05794922794229,3720.479330169148,1
-34.10480981782148,6.599831685251438,-35.02260397830018,123.55141202027522,-127.0,68.18108974358978,17.202887087205852,11.54545454545454,22.194174757281527,9.511013215859046,-3.8154506437768125,-14.228215767634847,6.4745098039215705,-3.48627450980392,15.875000000000007,10.891261655466533,41.495777475960715,25.2424151604577,565.0228894301981,55.05794922794229,3720.479330169148,1
-35.9634880707371,6.5731117189143875,-34.60922242314648,123.36748732802323,-126.94111169072048,68.13020833333337,17.152659679651947,11.54545454545454,22.194174757281527,9.511013215859046,-3.8154506437768125,-14.228215767634847,6.4745098039215705,-3.48627450980392,15.875000000000007,10.891261655466533,41.495777475960715,25.715274070932654,584.5301670829291,54.84994049002804,3717.496544377638,1
-35.9634880707371,6.5731117189143875,-34.60922242314648,123.36748732802323,-126.94111169072048,68.13020833333337,17.152659679651947,1.2828282828282767,8.631067961165023,-8.392070484581481,-14.716738197424881,-3.6887966804979166,-3.48627450980392,-6.474509803921567,15.875000000000007,7.818410740027884,27.689439121967496,25.715274070932654,584.5301670829291,54.84994049002804,3717.496544377638,1
-35.9634880707371,6.5731117189143875,-34.60922242314648,123.36748732802323,-126.94111169072048,68.13020833333337,17.152659679651947,14.111111111111107,22.194174757281527,22.938325991189444,-1.6351931330471983,-0.5269709543568377,14.443137254901963,1.4941176470588253,17.096153846153854,11.804898086887594,87.01333301402646,25.715274070932654,584.5301670829291,54.84994049002804,3717.496544377638,1
-35.5375409711106,6.6532716179255385,-33.59873417721519,123.55141202027522,-126.9116675360807,68.23197115384619,16.901522641882536,14.111111111111107,22.194174757281527,22.938325991189444,-1.6351931330471983,-0.5269709543568377,14.443137254901963,1.4941176470588253,17.096153846153854,11.804898086887594,87.01333301402646,25.26318225541711,567.3412682065447,54.601139271805316,3747.1195721998133,1
-35.5375409711106,6.6532716179255385,-33.59873417721519,123.55141202027522,-126.9116675360807,68.23197115384619,16.901522641882536,23.090909090909086,62.88349514563104,48.6740088105727,-19.07725321888411,-20.551867219917003,-12.450980392156861,-4.482352941176469,12.211538461538467,25.42780066009822,399.23710222924467,25.26318225541711,567.3412682065447,54.601139271805316,3747.1195721998133,1
-35.5375409711106,6.6532716179255385,-33.59873417721519,123.55141202027522,-126.9116675360807,68.23197115384619,16.901522641882536,8.979797979797976,18.495145631067935,-1.6784140969162848,11.446351931330483,-5.796680497925303,9.462745098039218,16.43529411764706,12.211538461538467,10.563245976782841,29.467359925362093,25.26318225541711,567.3412682065447,54.601139271805316,3747.1195721998133,1
-34.879259089869656,6.038712392173382,-33.66763110307414,123.9192614047792,-126.98527792268013,68.23197115384619,16.901522641882536,8.979797979797976,18.495145631067935,-1.6784140969162848,11.446351931330483,-5.796680497925303,9.462745098039218,16.43529411764706,12.211538461538467,10.563245976782841,29.467359925362093,24.861867528372397,542.0570243910432,54.54186830000891,3800.7562927937624,1
-34.879259089869656,6.038712392173382,-33.66763110307414,123.9192614047792,-126.98527792268013,68.23197115384619,16.901522641882536,6.414141414141409,24.660194174757255,19.581497797356846,-7.085836909871233,-10.012448132780074,-15.439215686274508,-4.482352941176469,10.990384615384622,12.333258958967802,49.362122232730876,24.861867528372397,542.0570243910432,54.54186830000891,3800.7562927937624,1
-34.879259089869656,6.038712392173382,-33.66763110307414,123.9192614047792,-126.98527792268013,68.23197115384619,16.901522641882536,6.414141414141409,12.330097087378615,25.176211453744507,-9.266094420600847,-12.120331950207461,-5.478431372549018,-4.482352941176469,10.990384615384622,10.782255656897867,42.94486222922708,24.861867528372397,542.0570243910432,54.54186830000891,3800.7562927937624,1
-35.18903879868893,6.305912055543884,-34.0121157323689,124.1031860970312,-127.0,68.18108974358978,16.85129523432863,6.414141414141409,12.330097087378615,25.176211453744507,-9.266094420600847,-12.120331950207461,-5.478431372549018,-4.482352941176469,10.990384615384622,10.782255656897867,42.94486222922708,25.169022195533902,558.1265765010232,54.80707129498132,3793.3720755395843,1
-35.18903879868893,6.305912055543884,-34.0121157323689,124.1031860970312,-127.0,68.18108974358978,16.85129523432863,11.54545454545454,12.330097087378615,-12.867841409691614,3.8154506437768365,-0.5269709543568377,7.4705882352941195,-4.482352941176469,15.875000000000007,8.614219477141129,28.57487189426775,25.169022195533902,558.1265765010232,54.80707129498132,3793.3720755395843,1
-35.18903879868893,6.305912055543884,-34.0121157323689,124.1031860970312,-127.0,68.18108974358978,16.85129523432863,14.111111111111107,28.359223300970847,-10.629955947136548,-10.356223175965653,6.850622406639014,-3.48627450980392,-1.4941176470588218,13.432692307692314,11.090027550797277,68.78019768654622,25.169022195533902,558.1265765010232,54.80707129498132,3793.3720755395843,1
-36.17646162055035,6.359351988217985,-34.21880650994576,123.96524257784222,-126.95583376804035,68.333733974359,16.650385604113126,14.111111111111107,28.359223300970847,-10.629955947136548,-10.356223175965653,6.850622406639014,-3.48627450980392,-1.4941176470588218,13.432692307692314,11.090027550797277,68.78019768654622,25.584873372904696,576.6191333323426,54.84780035866865,3776.9529157526513,1
-36.17646162055035,6.359351988217985,-34.21880650994576,123.96524257784222,-126.95583376804035,68.333733974359,16.650385604113126,14.111111111111107,38.22330097087376,1.678414096916315,-14.716738197424881,18.443983402489636,11.454901960784316,-5.478431372549018,14.65384615384616,14.8450909082494,118.9533683493853,25.584873372904696,576.6191333323426,54.84780035866865,3776.9529157526513,1
-36.17646162055035,6.359351988217985,-34.21880650994576,123.96524257784222,-126.95583376804035,68.333733974359,16.650385604113126,10.262626262626258,35.75728155339803,67.69603524229078,-1.6351931330471983,15.282157676348557,3.4862745098039234,-0.49803921568627274,14.65384615384616,18.6589317183809,520.6810809138572,25.584873372904696,576.6191333323426,54.84780035866865,3776.9529157526513,1
-35.924765607134695,6.519671786240287,-34.241772151898736,123.78131788559023,-126.86750130412105,68.2828525641026,16.549930789005316,10.262626262626258,35.75728155339803,67.69603524229078,-1.6351931330471983,15.282157676348557,3.4862745098039234,-0.49803921568627274,14.65384615384616,18.6589317183809,520.6810809138572,25.562069848424574,577.6430074220909,54.84758727457642,3756.023124134776,1
-35.924765607134695,6.519671786240287,-34.241772151898736,123.78131788559023,-126.86750130412105,68.2828525641026,16.549930789005316,12.828282828282823,28.359223300970847,-54.26872246696034,-22.34763948497853,1.5809128630705482,-2.490196078431371,-1.4941176470588218,14.65384615384616,17.25286760294993,322.5282925339183,25.562069848424574,577.6430074220909,54.84758727457642,3756.023124134776,1
-35.924765607134695,6.519671786240287,-34.241772151898736,123.78131788559023,-126.86750130412105,68.2828525641026,16.549930789005316,12.828282828282823,28.359223300970847,1.678414096916315,-12.536480686695267,-3.6887966804979166,0.4980392156862763,19.423529411764708,18.3173076923077,12.166259239140231,95.9000596240588,25.562069848424574,577.6430074220909,54.84758727457642,3756.023124134776,1
-35.55690220291181,6.920471281296042,-33.82839059674503,123.78131788559023,-126.8086129948415,68.13020833333337,16.39924856634366,12.828282828282823,28.359223300970847,1.678414096916315,-12.536480686695267,-3.6887966804979166,0.4980392156862763,19.423529411764708,18.3173076923077,12.166259239140231,95.9000596240588,25.43525469365096,577.9641258075344,54.84339325454377,3745.3371197985593,1
-35.55690220291181,6.920471281296042,-33.82839059674503,123.78131788559023,-126.8086129948415,68.13020833333337,16.39924856634366,8.979797979797976,23.42718446601939,35.24669603524231,-3.8154506437768125,-3.6887966804979166,-3.48627450980392,1.4941176470588253,9.769230769230775,11.23844359142849,142.76680888435496,25.43525469365096,577.9641258075344,54.84339325454377,3745.3371197985593,1
-35.55690220291181,6.920471281296042,-33.82839059674503,123.78131788559023,-126.8086129948415,68.13020833333337,16.39924856634366,8.979797979797976,4.932038834951431,18.46255506607931,-19.07725321888411,-7.9045643153526886,-1.4941176470588218,-10.458823529411763,8.548076923076929,9.982153439326629,37.113334820545916,25.43525469365096,577.9641258075344,54.84339325454377,3745.3371197985593,1
-35.402012348502176,7.267830843677695,-33.62169981916818,124.05720492396819,-126.77916884020172,67.97756410256409,16.148111528574248,8.979797979797976,4.932038834951431,18.46255506607931,-19.07725321888411,-7.9045643153526886,-1.4941176470588218,-10.458823529411763,8.548076923076929,9.982153439326629,37.113334820545916,25.430514337116012,582.6397914291892,54.98224519560469,3752.1441486006092,1
-35.402012348502176,7.267830843677695,-33.62169981916818,124.05720492396819,-126.77916884020172,67.97756410256409,16.148111528574248,19.24242424242424,43.155339805825214,37.48458149779737,8.175965665236063,2.634854771784241,20.419607843137257,-0.49803921568627274,17.096153846153854,18.588370861005565,236.6862317861705,25.430514337116012,582.6397914291892,54.98224519560469,3752.1441486006092,1
-35.402012348502176,7.267830843677695,-33.62169981916818,124.05720492396819,-126.77916884020172,67.97756410256409,16.148111528574248,14.111111111111107,17.26213592233007,1.678414096916315,-11.446351931330462,-1.5809128630705307,10.458823529411767,-0.49803921568627274,17.096153846153854,9.266492814501298,49.77293166425856,25.430514337116012,582.6397914291892,54.98224519560469,3752.1441486006092,1
-35.86668191173108,7.267830843677695,-33.59873417721519,124.24112961622018,-126.69083637628239,68.18108974358978,15.64583745303537,14.111111111111107,17.26213592233007,1.678414096916315,-11.446351931330462,-1.5809128630705307,10.458823529411767,-0.49803921568627274,17.096153846153854,9.266492814501298,49.77293166425856,25.57774897754132,589.3009856966472,55.03589821237102,3765.3521578352565,1
-35.86668191173108,7.267830843677695,-33.59873417721519,124.24112961622018,-126.69083637628239,68.18108974358978,15.64583745303537,7.696969696969692,6.165048543689295,33.00881057268724,4.905579399141644,-12.120331950207461,-6.474509803921567,-7.470588235294116,12.211538461538467,11.256672082931185,84.4213148041504,25.57774897754132,589.3009856966472,55.03589821237102,3765.3521578352565,1
-35.86668191173108,7.267830843677695,-33.59873417721519,124.24112961622018,-126.69083637628239,68.18108974358978,15.64583745303537,14.111111111111107,27.126213592232983,3.9162995594713816,-5.995708154506426,-0.5269709543568377,0.4980392156862763,-0.49803921568627274,13.432692307692314,8.26313426384295,88.74524905676161,25.57774897754132,589.3009856966472,55.03589821237102,3765.3521578352565,1
-35.673069593719035,6.81359141594784,-34.540325497287526,124.24112961622018,-126.63194806700287,68.13020833333337,15.444927822819864,14.111111111111107,27.126213592232983,3.9162995594713816,-5.995708154506426,-0.5269709543568377,0.4980392156862763,-0.49803921568627274,13.432692307692314,8.26313426384295,88.74524905676161,25.6756621689848,586.0909861675203,55.19834884315185,3767.372128362811,1
-35.673069593719035,6.81359141594784,-34.540325497287526,124.24112961622018,-126.63194806700287,68.13020833333337,15.444927822819864,5.131313131313126,18.495145631067935,29.65198237885464,-9.266094420600847,-3.6887966804979166,-3.48627450980392,1.4941176470588253,12.211538461538467,10.42815785759196,91.52070439988363,25.6756621689848,586.0909861675203,55.19834884315185,3767.372128362811,1
-35.673069593719035,6.81359141594784,-34.540325497287526,124.24112961622018,-126.63194806700287,68.13020833333337,15.444927822819864,8.979797979797976,20.961165048543663,13.986784140969178,-17.9871244635193,13.174273858921172,-4.482352941176469,-6.474509803921567,15.875000000000007,12.740126029606166,32.61076868866983,25.6756621689848,586.0909861675203,55.19834884315185,3767.372128362811,1
-36.15710038874914,6.519671786240287,-34.60922242314648,124.01122375090517,-126.52889352576364,68.23197115384619,15.244018192604301,8.979797979797976,20.961165048543663,13.986784140969178,-17.9871244635193,13.174273858921172,-4.482352941176469,-6.474509803921567,15.875000000000007,12.740126029606166,32.61076868866983,25.761998199378638,585.8814580598798,55.04670598676398,3764.334246576239,1
-36.15710038874914,6.519671786240287,-34.60922242314648,124.01122375090517,-126.52889352576364,68.23197115384619,15.244018192604301,3.848484848484844,-7.398058252427205,-82.24229074889867,-3.8154506437768125,18.443983402489636,-11.454901960784312,7.4705882352941195,14.65384615384616,18.66595053075022,686.070382487127,25.761998199378638,585.8814580598798,55.04670598676398,3764.334246576239,1
-36.15710038874914,6.519671786240287,-34.60922242314648,124.01122375090517,-126.52889352576364,68.23197115384619,15.244018192604301,11.54545454545454,28.359223300970847,-5.035242290748883,-7.085836909871233,-10.012448132780074,2.4901960784313744,5.4784313725490215,13.432692307692314,10.429940617312287,65.67673619250733,25.761998199378638,585.8814580598798,55.04670598676398,3764.334246576239,1
-35.460096043905786,6.225752156532734,-34.56329113924051,124.01122375090517,-126.54361560308354,68.18108974358978,15.244018192604301,11.54545454545454,28.359223300970847,-5.035242290748883,-7.085836909871233,-10.012448132780074,2.4901960784313744,5.4784313725490215,13.432692307692314,10.429940617312287,65.67673619250733,25.41637977989301,567.0433753685833,54.933422348892805,3779.561013801017,1
-35.460096043905786,6.225752156532734,-34.56329113924051,124.01122375090517,-126.54361560308354,68.18108974358978,15.244018192604301,12.828282828282823,14.796116504854343,-22.938325991189416,-9.266094420600847,-6.850622406638996,-0.49803921568627274,3.4862745098039234,13.432692307692314,10.512056023093617,50.18014819792647,25.41637977989301,567.0433753685833,54.933422348892805,3779.561013801017,1
-35.460096043905786,6.225752156532734,-34.56329113924051,124.01122375090517,-126.54361560308354,68.18108974358978,15.244018192604301,12.828282828282823,19.7281553398058,-10.629955947136548,-4.905579399141619,-2.634854771784224,-5.478431372549018,-9.462745098039214,13.432692307692314,9.887587133053945,30.80671842844625,25.41637977989301,567.0433753685833,54.933422348892805,3779.561013801017,1
-36.02157176614072,5.771512728802879,-34.103978300180835,123.82729905865318,-126.54361560308354,68.333733974359,15.294245600158206,12.828282828282823,19.7281553398058,-10.629955947136548,-4.905579399141619,-2.634854771784224,-5.478431372549018,-9.462745098039214,13.432692307692314,9.887587133053945,30.80671842844625,25.299020931708146,556.7323101841246,54.56759669587897,3798.361929873384,1
-36.02157176614072,5.771512728802879,-34.103978300180835,123.82729905865318,-126.54361560308354,68.333733974359,15.294245600158206,15.39393939393939,27.126213592232983,24.057268722466976,-9.266094420600847,-3.6887966804979166,-1.4941176470588218,-3.48627450980392,14.65384615384616,12.395818890055875,92.98511943189702,25.299020931708146,556.7323101841246,54.56759669587897,3798.361929873384,1
-36.02157176614072,5.771512728802879,-34.103978300180835,123.82729905865318,-126.54361560308354,68.333733974359,15.294245600158206,7.696969696969692,19.7281553398058,-7.27312775330395,-16.896995708154495,-40.57676348547717,-20.419607843137253,-7.470588235294116,8.548076923076929,16.076285623152426,130.22686549935023,25.299020931708146,556.7323101841246,54.56759669587897,3798.361929873384,1
-35.827959448128674,6.118872291184533,-34.035081374321884,123.73533671252721,-126.49944937112389,68.38461538461542,15.193790785050453,7.696969696969692,19.7281553398058,-7.27312775330395,-16.896995708154495,-40.57676348547717,-20.419607843137253,-7.470588235294116,8.548076923076929,16.076285623152426,130.22686549935023,25.327304371211696,562.5151832875712,54.62976345934455,3776.5138733816066,1
-35.827959448128674,6.118872291184533,-34.035081374321884,123.73533671252721,-126.49944937112389,68.38461538461542,15.193790785050453,16.67676767676767,44.388349514563075,33.00881057268724,-14.716738197424881,-6.850622406638996,-0.49803921568627274,-0.49803921568627274,13.432692307692314,16.25875738839334,238.24155899458736,25.327304371211696,562.5151832875712,54.62976345934455,3776.5138733816066,1
-35.827959448128674,6.118872291184533,-34.035081374321884,123.73533671252721,-126.49944937112389,68.38461538461542,15.193790785050453,8.979797979797976,17.26213592233007,-12.867841409691614,1.6351931330472222,32.145228215767645,7.4705882352941195,22.411764705882355,5.329070518200751e-15,12.846568700226376,116.85875305516662,25.327304371211696,562.5151832875712,54.62976345934455,3776.5138733816066,1
-35.886043143532284,6.546391752577337,-34.0121157323689,123.6893555394642,-126.44056106184433,68.43549679487182,15.043108562388795,8.979797979797976,17.26213592233007,-12.867841409691614,1.6351931330472222,32.145228215767645,7.4705882352941195,22.411764705882355,5.329070518200751e-15,12.846568700226376,116.85875305516662,25.481516876159503,574.8359440935551,54.749287674803476,3753.1412163215446,1
-35.886043143532284,6.546391752577337,-34.0121157323689,123.6893555394642,-126.44056106184433,68.43549679487182,15.043108562388795,14.111111111111107,29.59223300970871,28.53303964757711,-13.626609442060074,-4.742738589211609,-3.48627450980392,2.4901960784313744,17.096153846153854,14.20979452925722,113.20338504595709,25.481516876159503,574.8359440935551,54.749287674803476,3753.1412163215446,1
-35.886043143532284,6.546391752577337,-34.0121157323689,123.6893555394642,-126.44056106184433,68.43549679487182,15.043108562388795,12.828282828282823,29.59223300970871,13.986784140969178,-1.6351931330471983,-5.796680497925303,-8.466666666666665,-6.474509803921567,17.096153846153854,11.984562990834412,75.57354059048973,25.481516876159503,574.8359440935551,54.749287674803476,3753.1412163215446,1
-35.944126838935894,6.305912055543884,-33.75949367088608,123.6893555394642,-126.42583898452443,68.63902243589746,14.892426339727137,12.828282828282823,29.59223300970871,13.986784140969178,-1.6351931330471983,-5.796680497925303,-8.466666666666665,-6.474509803921567,17.096153846153854,11.984562990834412,75.57354059048973,25.336510855121954,565.8458574479074,54.58492042196472,3769.9920005590857,1
-35.944126838935894,6.305912055543884,-33.75949367088608,123.6893555394642,-126.42583898452443,68.63902243589746,14.892426339727137,7.696969696969692,9.864077669902887,78.8854625550661,-0.545064377682392,1.5809128630705482,5.4784313725490215,-3.48627450980392,10.990384615384622,14.815947207553648,684.1590707109299,25.336510855121954,565.8458574479074,54.58492042196472,3769.9920005590857,1
-35.944126838935894,6.305912055543884,-33.75949367088608,123.6893555394642,-126.42583898452443,68.63902243589746,14.892426339727137,12.828282828282823,20.961165048543663,10.62995594713658,-20.167381974248915,-17.390041493775925,3.4862745098039234,-8.466666666666665,12.211538461538467,13.26766336624962,35.82588274315513,25.336510855121954,565.8458574479074,54.58492042196472,3769.9920005590857,1
-35.47945727570699,6.332632021880935,-33.89728752260398,123.78131788559023,-126.41111690720456,68.68990384615387,14.691516709511575,12.828282828282823,20.961165048543663,10.62995594713658,-20.167381974248915,-17.390041493775925,3.4862745098039234,-8.466666666666665,12.211538461538467,13.26766336624962,35.82588274315513,25.23645894006397,561.533416518805,54.670412476691716,3772.190493046673,1
-35.47945727570699,6.332632021880935,-33.89728752260398,123.78131788559023,-126.41111690720456,68.68990384615387,14.691516709511575,12.828282828282823,12.330097087378615,-18.46255506607928,-9.266094420600847,3.6887966804979344,-17.431372549019606,-4.482352941176469,14.65384615384616,11.642924715860218,30.163953893602972,25.23645894006397,561.533416518805,54.670412476691716,3772.190493046673,1
-35.47945727570699,6.332632021880935,-33.89728752260398,123.78131788559023,-126.41111690720456,68.68990384615387,14.691516709511575,11.54545454545454,27.126213592232983,19.581497797356846,-8.17596566523604,6.850622406639014,7.4705882352941195,-3.48627450980392,14.65384615384616,12.361307863232954,60.94643304865331,25.23645894006397,561.533416518805,54.670412476691716,3772.190493046673,1
-35.0728714078817,6.118872291184533,-33.98915009041592,124.05720492396819,-126.44056106184433,68.79166666666669,14.591061894403822,11.54545454545454,27.126213592232983,19.581497797356846,-8.17596566523604,6.850622406639014,7.4705882352941195,-3.48627450980392,14.65384615384616,12.361307863232954,60.94643304865331,25.060297929827385,551.0979433710759,54.72174243518955,3799.7428650512047,1
-35.0728714078817,6.118872291184533,-33.98915009041592,124.05720492396819,-126.44056106184433,68.79166666666669,14.591061894403822,20.52525252525252,61.65048543689318,-17.343612334801747,-22.34763948497853,-1.5809128630705307,11.454901960784316,2.4901960784313744,17.096153846153854,19.311144316295753,353.0167834306007,25.060297929827385,551.0979433710759,54.72174243518955,3799.7428650512047,1
-35.0728714078817,6.118872291184533,-33.98915009041592,124.05720492396819,-126.44056106184433,68.79166666666669,14.591061894403822,14.111111111111107,30.825242718446574,29.65198237885464,5.995708154506449,12.120331950207477,-0.49803921568627274,-4.482352941176469,15.875000000000007,14.194971058748624,124.54108519633643,25.060297929827385,551.0979433710759,54.72174243518955,3799.7428650512047,1
-34.43395075844196,6.252472122869785,-33.874321880650996,124.42505430847217,-126.49944937112389,68.58814102564105,14.591061894403822,14.111111111111107,30.825242718446574,29.65198237885464,5.995708154506449,12.120331950207477,-0.49803921568627274,-4.482352941176469,15.875000000000007,14.194971058748624,124.54108519633643,24.853581587320914,544.3096313931294,54.85061610399765,3821.1934846115423,1
-34.43395075844196,6.252472122869785,-33.874321880650996,124.42505430847217,-126.49944937112389,68.58814102564105,14.591061894403822,7.696969696969692,8.631067961165023,3.9162995594713816,-12.536480686695267,-2.634854771784224,-2.490196078431371,-1.4941176470588218,14.65384615384616,6.756729069427742,24.446207999113245,24.853581587320914,544.3096313931294,54.85061610399765,3821.1934846115423,1
-34.43395075844196,6.252472122869785,-33.874321880650996,124.42505430847217,-126.49944937112389,68.58814102564105,14.591061894403822,8.979797979797976,12.330097087378615,0.5594713656387817,-16.896995708154495,16.33609958506225,7.4705882352941195,-1.4941176470588218,12.211538461538467,9.53483825874044,37.88804436072512,24.853581587320914,544.3096313931294,54.85061610399765,3821.1934846115423,1
-34.6469243082552,6.305912055543884,-33.92025316455697,124.70094134685019,-126.52889352576364,68.333733974359,14.691516709511575,8.979797979797976,12.330097087378615,0.5594713656387817,-16.896995708154495,16.33609958506225,7.4705882352941195,-1.4941176470588218,12.211538461538467,9.53483825874044,37.88804436072512,24.957696509452017,549.3012042510067,54.97570218898367,3836.844690437493,1
-34.6469243082552,6.305912055543884,-33.92025316455697,124.70094134685019,-126.52889352576364,68.333733974359,14.691516709511575,12.828282828282823,43.155339805825214,81.12334801762117,3.8154506437768365,-23.71369294605808,-36.35686274509804,1.4941176470588253,14.65384615384616,27.142617598445895,689.9797467096836,24.957696509452017,549.3012042510067,54.97570218898367,3836.844690437493,1
-34.6469243082552,6.305912055543884,-33.92025316455697,124.70094134685019,-126.52889352576364,68.333733974359,14.691516709511575,14.111111111111107,18.495145631067935,9.511013215859046,-12.536480686695267,-8.958506224066381,-1.4941176470588218,-3.48627450980392,13.432692307692314,10.253167666669349,31.8393664855324,24.957696509452017,549.3012042510067,54.97570218898367,3836.844690437493,1
-35.86668191173108,6.519671786240287,-33.736528028933094,124.65496017378717,-126.47000521648411,68.43549679487182,14.440379671742164,14.111111111111107,18.495145631067935,9.511013215859046,-12.536480686695267,-8.958506224066381,-1.4941176470588218,-3.48627450980392,13.432692307692314,10.253167666669349,31.8393664855324,25.374293908968156,570.283693155516,54.97038666298685,3827.1441549704527,1
-35.86668191173108,6.519671786240287,-33.736528028933094,124.65496017378717,-126.47000521648411,68.43549679487182,14.440379671742164,-2.565656565656571,-9.86407766990294,6.154185022026447,5.995708154506449,4.742738589211627,7.4705882352941195,-10.458823529411763,8.548076923076929,6.974981836135855,7.037432163407547,25.374293908968156,570.283693155516,54.97038666298685,3827.1441549704527,1
-35.86668191173108,6.519671786240287,-33.736528028933094,124.65496017378717,-126.47000521648411,68.43549679487182,14.440379671742164,17.959595959595955,59.18446601941744,28.53303964757711,-9.266094420600847,10.012448132780092,1.4941176470588253,4.482352941176472,17.096153846153854,18.503533576795075,343.0211990188639,25.374293908968156,570.283693155516,54.97038666298685,3827.1441549704527,1
-36.040932997941916,6.225752156532734,-33.782459312839066,124.5170166545982,-126.39639482988468,68.68990384615387,14.139015226418849,17.959595959595955,59.18446601941744,28.53303964757711,-9.266094420600847,10.012448132780092,1.4941176470588253,4.482352941176472,17.096153846153854,18.503533576795075,343.0211990188639,25.349714822437903,565.3717270519605,54.84174270799,3830.825876975781,1
-36.040932997941916,6.225752156532734,-33.782459312839066,124.5170166545982,-126.39639482988468,68.68990384615387,14.139015226418849,12.828282828282823,19.7281553398058,-27.414096916299542,-9.266094420600847,-13.174273858921154,2.4901960784313744,1.4941176470588253,13.432692307692314,12.478488674636585,72.5555586503839,25.349714822437903,565.3717270519605,54.84174270799,3830.825876975781,1
-36.040932997941916,6.225752156532734,-33.782459312839066,124.5170166545982,-126.39639482988468,68.68990384615387,14.139015226418849,12.828282828282823,25.89320388349512,13.986784140969178,-11.446351931330462,11.066390041493785,7.4705882352941195,-0.49803921568627274,14.65384615384616,12.230435803799741,51.18019978605863,25.349714822437903,565.3717270519605,54.84174270799,3830.825876975781,1
-34.97606524887568,6.011992425836332,-33.55280289330923,124.74692251991314,-126.42583898452443,68.68990384615387,14.088787818864944,12.828282828282823,25.89320388349512,13.986784140969178,-11.446351931330462,11.066390041493785,7.4705882352941195,-0.49803921568627274,14.65384615384616,12.230435803799741,51.18019978605863,24.846953522673743,541.2365960540288,54.77057261301957,3862.14122002032,1
-34.97606524887568,6.011992425836332,-33.55280289330923,124.74692251991314,-126.42583898452443,68.68990384615387,14.088787818864944,12.828282828282823,17.26213592233007,-48.67400881057267,-7.085836909871233,4.742738589211627,15.439215686274512,-0.49803921568627274,9.769230769230775,14.537436091432498,221.1095533777556,24.846953522673743,541.2365960540288,54.77057261301957,3862.14122002032,1
-34.97606524887568,6.011992425836332,-33.55280289330923,124.74692251991314,-126.42583898452443,68.68990384615387,14.088787818864944,14.111111111111107,23.42718446601939,11.748898678414113,-7.085836909871233,1.5809128630705482,0.4980392156862763,17.43137254901961,9.769230769230775,10.706573320302882,60.1706261237099,24.846953522673743,541.2365960540288,54.77057261301957,3862.14122002032,1
-35.22776126229134,6.145592257521583,-33.59873417721519,124.93084721216513,-126.45528313916421,68.74078525641028,14.038560411311039,14.111111111111107,23.42718446601939,11.748898678414113,-7.085836909871233,1.5809128630705482,0.4980392156862763,17.43137254901961,9.769230769230775,10.706573320302882,60.1706261237099,24.99069589900937,549.0032657450407,54.8917245489673,3867.527777888564,1
-35.22776126229134,6.145592257521583,-33.59873417721519,124.93084721216513,-126.45528313916421,68.74078525641028,14.038560411311039,12.828282828282823,41.922330097087354,35.24669603524231,-13.626609442060074,0.5269709543568553,17.43137254901961,2.4901960784313744,4.88461538461539,16.119634171136973,229.35868745465586,24.99069589900937,549.0032657450407,54.8917245489673,3867.527777888564,1
-35.22776126229134,6.145592257521583,-33.59873417721519,124.93084721216513,-126.45528313916421,68.74078525641028,14.038560411311039,7.696969696969692,17.26213592233007,37.48458149779737,2.7253218884120294,-12.120331950207461,-9.462745098039214,-13.44705882352941,14.65384615384616,14.356623878891426,107.54990063651881,24.99069589900937,549.0032657450407,54.8917245489673,3867.527777888564,1
-35.75051452092385,6.439511887229136,-33.75949367088608,124.97682838522815,-126.41111690720456,68.99519230769232,13.737195965987723,7.696969696969692,17.26213592233007,37.48458149779737,2.7253218884120294,-12.120331950207461,-9.462745098039214,-13.44705882352941,14.65384615384616,14.356623878891426,107.54990063651881,25.316506693013025,566.6537567012183,55.058611314447795,3853.0131599324077,1
-35.75051452092385,6.439511887229136,-33.75949367088608,124.97682838522815,-126.41111690720456,68.99519230769232,13.737195965987723,15.39393939393939,20.961165048543663,1.678414096916315,-12.536480686695267,6.850622406639014,15.439215686274512,10.458823529411767,19.538461538461547,12.857140298360186,41.47352231520098,25.316506693013025,566.6537567012183,55.058611314447795,3853.0131599324077,1
-35.75051452092385,6.439511887229136,-33.75949367088608,124.97682838522815,-126.41111690720456,68.99519230769232,13.737195965987723,16.67676767676767,23.42718446601939,15.105726872246713,-7.085836909871233,12.120331950207477,-1.4941176470588218,-1.4941176470588218,14.65384615384616,11.507241165384537,58.87275086653526,25.316506693013025,566.6537567012183,55.058611314447795,3853.0131599324077,1
-35.11159387148411,6.439511887229136,-33.92025316455697,125.20673425054315,-126.41111690720456,68.99519230769232,13.536286335772218,16.67676767676767,23.42718446601939,15.105726872246713,-7.085836909871233,12.120331950207477,-1.4941176470588218,-1.4941176470588218,14.65384615384616,11.507241165384537,58.87275086653526,25.157119641090073,559.4707195811883,55.188833100776414,3865.677646351737,1
-35.11159387148411,6.439511887229136,-33.92025316455697,125.20673425054315,-126.41111690720456,68.99519230769232,13.536286335772218,12.828282828282823,24.660194174757255,31.889867841409707,-0.545064377682392,6.850622406639014,-1.4941176470588218,-5.478431372549018,13.432692307692314,12.147409119508916,124.15546349745401,25.157119641090073,559.4707195811883,55.188833100776414,3865.677646351737,1
-35.11159387148411,6.439511887229136,-33.92025316455697,125.20673425054315,-126.41111690720456,68.99519230769232,13.536286335772218,17.959595959595955,51.786407766990266,-13.98678414096915,-5.995708154506426,2.634854771784241,-1.4941176470588218,-4.482352941176469,17.096153846153854,14.429496903529397,270.2599325202245,25.157119641090073,559.4707195811883,55.188833100776414,3865.677646351737,1
-35.460096043905786,6.706711550599639,-34.08101265822785,125.29869659666912,-126.36695067524491,68.94431089743591,13.38560411311056,17.959595959595955,51.786407766990266,-13.98678414096915,-5.995708154506426,2.634854771784241,-1.4941176470588218,-4.482352941176469,17.096153846153854,14.429496903529397,270.2599325202245,25.415940084244426,573.9299966386775,55.36214026849887,3855.6795235652703,1
-35.460096043905786,6.706711550599639,-34.08101265822785,125.29869659666912,-126.36695067524491,68.94431089743591,13.38560411311056,8.979797979797976,20.961165048543663,10.62995594713658,-0.545064377682392,4.742738589211627,-11.454901960784312,-2.490196078431371,14.65384615384616,9.307208266929258,44.99312809122689,25.415940084244426,573.9299966386775,55.36214026849887,3855.6795235652703,1
-35.460096043905786,6.706711550599639,-34.08101265822785,125.29869659666912,-126.36695067524491,68.94431089743591,13.38560411311056,7.696969696969692,16.029126213592207,22.938325991189444,-11.446351931330462,1.5809128630705482,-8.466666666666665,0.4980392156862763,14.65384615384616,10.413779841543931,56.42207098316199,25.415940084244426,573.9299966386775,55.36214026849887,3855.6795235652703,1
-35.769875752725056,6.840311382284891,-34.471428571428575,125.34467776973213,-126.29334028864545,68.99519230769232,13.03401226023334,7.696969696969692,16.029126213592207,22.938325991189444,-11.446351931330462,1.5809128630705482,-8.466666666666665,0.4980392156862763,14.65384615384616,10.413779841543931,56.42207098316199,25.693871902146174,587.3289784610716,55.55213924114853,3844.1184849779183,1
-35.769875752725056,6.840311382284891,-34.471428571428575,125.34467776973213,-126.29334028864545,68.99519230769232,13.03401226023334,28.222222222222218,67.8155339805825,38.60352422907491,0.5450643776824151,-1.5809128630705307,2.4901960784313744,1.4941176470588253,18.3173076923077,19.88360988630381,581.3660897220659,25.693871902146174,587.3289784610716,55.55213924114853,3844.1184849779183,1
-35.769875752725056,6.840311382284891,-34.471428571428575,125.34467776973213,-126.29334028864545,68.99519230769232,13.03401226023334,8.979797979797976,17.26213592233007,3.9162995594713816,-8.17596566523604,-3.6887966804979166,-1.4941176470588218,-1.4941176470588218,13.432692307692314,7.305490426142918,33.192802985083375,25.693871902146174,587.3289784610716,55.55213924114853,3844.1184849779183,1
-35.80859821632747,6.679991584262589,-34.26473779385172,125.25271542360616,-126.21972990204603,69.04607371794873,12.782875222463929,8.979797979797976,17.26213592233007,3.9162995594713816,-8.17596566523604,-3.6887966804979166,-1.4941176470588218,-1.4941176470588218,13.432692307692314,7.305490426142918,33.192802985083375,25.58444253148059,580.689105348985,55.39914826724015,3849.870189213562,1
-35.80859821632747,6.679991584262589,-34.26473779385172,125.25271542360616,-126.21972990204603,69.04607371794873,12.782875222463929,10.262626262626258,23.42718446601939,50.91189427312777,5.995708154506449,15.282157676348557,-27.392156862745097,-29.384313725490195,17.096153846153854,22.469024408377194,197.5512102766865,25.58444253148059,580.689105348985,55.39914826724015,3849.870189213562,1
-35.80859821632747,6.679991584262589,-34.26473779385172,125.25271542360616,-126.21972990204603,69.04607371794873,12.782875222463929,12.828282828282823,23.42718446601939,-20.700440528634346,-17.9871244635193,-7.9045643153526886,6.4745098039215705,-6.474509803921567,14.65384615384616,13.806307795437231,43.08364512178048,25.58444253148059,580.689105348985,55.39914826724015,3849.870189213562,1
-35.20840003049013,6.599831685251438,-34.28770343580471,125.29869659666912,-126.17556367008638,68.79166666666669,12.782875222463929,12.828282828282823,23.42718446601939,-20.700440528634346,-17.9871244635193,-7.9045643153526886,6.4745098039215705,-6.474509803921567,14.65384615384616,13.806307795437231,43.08364512178048,25.365311717182095,570.094408282034,55.39541057257509,3856.506608243496,1
-35.20840003049013,6.599831685251438,-34.28770343580471,125.29869659666912,-126.17556367008638,68.79166666666669,12.782875222463929,8.979797979797976,20.961165048543663,11.748898678414113,-3.8154506437768125,21.605809128630714,3.4862745098039234,4.482352941176472,13.432692307692314,11.064055154729498,53.255538938397066,25.365311717182095,570.094408282034,55.39541057257509,3856.506608243496,1
-35.20840003049013,6.599831685251438,-34.28770343580471,125.29869659666912,-126.17556367008638,68.79166666666669,12.782875222463929,8.979797979797976,27.126213592232983,22.938325991189444,-8.17596566523604,-16.336099585062232,-1.4941176470588218,-0.49803921568627274,15.875000000000007,12.677944959532972,92.14333536110426,25.365311717182095,570.094408282034,55.39541057257509,3856.506608243496,1
-35.65370836191783,6.733431516936689,-33.92025316455697,125.34467776973213,-126.1461195154466,68.68990384615387,12.682420407356119,8.979797979797976,27.126213592232983,22.938325991189444,-8.17596566523604,-16.336099585062232,-1.4941176470588218,-0.49803921568627274,15.875000000000007,12.677944959532972,92.14333536110426,25.43579768113716,575.3994287021915,55.332787483741924,3861.029403888025,1
-35.65370836191783,6.733431516936689,-33.92025316455697,125.34467776973213,-126.1461195154466,68.68990384615387,12.682420407356119,11.54545454545454,32.05825242718444,29.65198237885464,-15.806866952789688,4.742738589211627,1.4941176470588253,2.4901960784313744,13.432692307692314,13.902787615834681,136.4557713269009,25.43579768113716,575.3994287021915,55.332787483741924,3861.029403888025,1
-35.65370836191783,6.733431516936689,-33.92025316455697,125.34467776973213,-126.1461195154466,68.68990384615387,12.682420407356119,12.828282828282823,20.961165048543663,8.392070484581513,-5.995708154506426,-27.929460580912856,6.4745098039215705,4.482352941176472,13.432692307692314,12.562030268702205,67.19665201383309,25.43579768113716,575.3994287021915,55.332787483741924,3861.029403888025,1
-35.75051452092385,6.706711550599639,-33.75949367088608,125.43664011585815,-126.11667536080682,68.68990384615387,12.531738184694461,12.828282828282823,20.961165048543663,8.392070484581513,-5.995708154506426,-27.929460580912856,6.4745098039215705,4.482352941176472,13.432692307692314,12.562030268702205,67.19665201383309,25.405573247469857,574.0156624568561,55.300948445781295,3872.2246896419883,1
-35.75051452092385,6.706711550599639,-33.75949367088608,125.43664011585815,-126.11667536080682,68.68990384615387,12.531738184694461,5.131313131313126,-6.165048543689345,-67.69603524229073,-25.61802575107295,-23.71369294605808,-2.490196078431371,-1.4941176470588218,9.769230769230775,17.75970751364315,492.33250116560185,25.405573247469857,574.0156624568561,55.300948445781295,3872.2246896419883,1
-35.75051452092385,6.706711550599639,-33.75949367088608,125.43664011585815,-126.11667536080682,68.68990384615387,12.531738184694461,12.828282828282823,23.42718446601939,1.678414096916315,-2.7253218884120054,6.850622406639014,2.4901960784313744,-1.4941176470588218,13.432692307692314,8.115853964931507,61.78675642950197,25.405573247469857,574.0156624568561,55.300948445781295,3872.2246896419883,1
-35.886043143532284,6.546391752577337,-33.874321880650996,125.43664011585815,-126.07250912884717,68.8425480769231,12.28060114692505,12.828282828282823,23.42718446601939,1.678414096916315,-2.7253218884120054,6.850622406639014,2.4901960784313744,-1.4941176470588218,13.432692307692314,8.115853964931507,61.78675642950197,25.435585592253535,573.0654407119268,55.28578458302883,3877.560840262137,1
-35.886043143532284,6.546391752577337,-33.874321880650996,125.43664011585815,-126.07250912884717,68.8425480769231,12.28060114692505,7.696969696969692,20.961165048543663,7.273127753303981,-10.356223175965653,5.79668049792532,14.443137254901963,7.4705882352941195,15.875000000000007,11.23411145786305,28.450354093343986,25.435585592253535,573.0654407119268,55.28578458302883,3877.560840262137,1
-35.886043143532284,6.546391752577337,-33.874321880650996,125.43664011585815,-126.07250912884717,68.8425480769231,12.28060114692505,20.52525252525252,46.85436893203881,25.176211453744507,-5.995708154506426,1.5809128630705482,0.4980392156862763,-2.490196078431371,15.875000000000007,14.87446115284131,253.91075600479954,25.435585592253535,573.0654407119268,55.28578458302883,3877.560840262137,1
-35.59562466651422,6.466231853566186,-34.26473779385172,125.43664011585815,-126.0430649742074,68.74078525641028,12.230373739371146,20.52525252525252,46.85436893203881,25.176211453744507,-5.995708154506426,1.5809128630705482,0.4980392156862763,-2.490196078431371,15.875000000000007,14.87446115284131,253.91075600479954,25.442198104644046,571.6638203670891,55.389203254425354,3873.1717912703334,1
-35.59562466651422,6.466231853566186,-34.26473779385172,125.43664011585815,-126.0430649742074,68.74078525641028,12.230373739371146,19.24242424242424,54.252427184465986,-11.748898678414083,-11.446351931330462,5.79668049792532,-0.49803921568627274,7.4705882352941195,15.875000000000007,15.79130124819256,275.6293770528705,25.442198104644046,571.6638203670891,55.389203254425354,3873.1717912703334,1
-35.59562466651422,6.466231853566186,-34.26473779385172,125.43664011585815,-126.0430649742074,68.74078525641028,12.230373739371146,14.111111111111107,32.05825242718444,29.65198237885464,-4.905579399141619,7.904564315352706,3.4862745098039234,-3.48627450980392,3.6634615384615437,12.408437523714237,142.65950097825495,25.442198104644046,571.6638203670891,55.389203254425354,3873.1717912703334,1
-35.28584495769495,6.199032190195684,-34.28770343580471,125.43664011585815,-126.0430649742074,68.74078525641028,12.28060114692505,14.111111111111107,32.05825242718444,29.65198237885464,-4.905579399141619,7.904564315352706,3.4862745098039234,-3.48627450980392,3.6634615384615437,12.408437523714237,142.65950097825495,25.25752686123178,560.1945133538248,55.30779191395285,3885.784875680383,1
-35.28584495769495,6.199032190195684,-34.28770343580471,125.43664011585815,-126.0430649742074,68.74078525641028,12.28060114692505,12.828282828282823,17.26213592233007,-5.035242290748883,-13.626609442060074,-4.742738589211609,-5.478431372549018,-12.450980392156861,14.65384615384616,10.759783373898188,24.238531452352415,25.25752686123178,560.1945133538248,55.30779191395285,3885.784875680383,1
-35.28584495769495,6.199032190195684,-34.28770343580471,125.43664011585815,-126.0430649742074,68.74078525641028,12.28060114692505,12.828282828282823,25.89320388349512,7.273127753303981,-10.356223175965653,-8.958506224066381,5.4784313725490215,11.454901960784316,21.980769230769237,13.027930803652065,51.71339774869397,25.25752686123178,560.1945133538248,55.30779191395285,3885.784875680383,1
-34.89862032167086,5.958552493162231,-34.05804701627487,125.62056480811009,-126.08723120616705,68.58814102564105,12.381055962032804,12.828282828282823,25.89320388349512,7.273127753303981,-10.356223175965653,-8.958506224066381,5.4784313725490215,11.454901960784316,21.980769230769237,13.027930803652065,51.71339774869397,24.971739943702655,545.2238950335937,55.21238810584907,3915.3789080162182,1
-34.89862032167086,5.958552493162231,-34.05804701627487,125.62056480811009,-126.08723120616705,68.58814102564105,12.381055962032804,10.262626262626258,20.961165048543663,57.62555066079297,0.5450643776824151,13.174273858921172,-3.48627450980392,3.4862745098039234,14.65384615384616,15.524384422752558,335.7494210309591,24.971739943702655,545.2238950335937,55.21238810584907,3915.3789080162182,1
-35.20840003049013,5.87839259415108,-33.736528028933094,125.75850832729913,-126.11667536080682,68.58814102564105,12.381055962032804,10.262626262626258,20.961165048543663,57.62555066079297,0.5450643776824151,13.174273858921172,-3.48627450980392,3.4862745098039234,14.65384615384616,15.524384422752558,335.7494210309591,24.94110688452477,543.2721452237498,55.124476316794436,3935.8937860214146,1
-35.20840003049013,5.87839259415108,-33.736528028933094,125.75850832729913,-126.11667536080682,68.58814102564105,12.381055962032804,14.111111111111107,32.05825242718444,46.43612334801764,-2.7253218884120054,-6.850622406638996,-2.490196078431371,-3.48627450980392,13.432692307692314,15.198824259661475,255.46932884465681,24.94110688452477,543.2721452237498,55.124476316794436,3935.8937860214146,1
-35.20840003049013,5.87839259415108,-33.736528028933094,125.75850832729913,-126.11667536080682,68.58814102564105,12.381055962032804,5.131313131313126,9.864077669902887,-11.748898678414083,-3.8154506437768125,27.929460580912874,-2.490196078431371,3.4862745098039234,17.096153846153854,10.195228142338618,76.48167180634353,24.94110688452477,543.2721452237498,55.124476316794436,3935.8937860214146,1
-35.092232639682905,5.931832526825181,-34.172875226039785,125.71252715423611,-126.11667536080682,68.58814102564105,12.381055962032804,5.131313131313126,9.864077669902887,-11.748898678414083,-3.8154506437768125,27.929460580912874,-2.490196078431371,3.4862745098039234,17.096153846153854,10.195228142338618,76.48167180634353,25.065646797515956,548.701120797105,55.272411635700365,3920.746528883212,1
-35.092232639682905,5.931832526825181,-34.172875226039785,125.71252715423611,-126.11667536080682,68.58814102564105,12.381055962032804,11.54545454545454,27.126213592232983,24.057268722466976,-4.905579399141619,-11.066390041493767,-14.44313725490196,-3.48627450980392,9.769230769230775,13.299943604340815,70.7855793149009,25.065646797515956,548.701120797105,55.272411635700365,3920.746528883212,1
-35.092232639682905,5.931832526825181,-34.172875226039785,125.71252715423611,-126.11667536080682,68.58814102564105,12.381055962032804,16.67676767676767,50.5533980582524,80.00440528634363,-0.545064377682392,-5.796680497925303,3.4862745098039234,2.4901960784313744,12.211538461538467,21.470540618343144,821.1382918694811,25.065646797515956,548.701120797105,55.272411635700365,3920.746528883212,1
-34.80181416266484,5.477593099095326,-34.63218806509946,125.75850832729913,-126.17556367008638,68.333733974359,12.682420407356119,16.67676767676767,50.5533980582524,80.00440528634363,-0.545064377682392,-5.796680497925303,3.4862745098039234,2.4901960784313744,12.211538461538467,21.470540618343144,821.1382918694811,24.97053177561988,538.5423279018847,55.289429830497966,3936.9158700491803,1
-34.80181416266484,5.477593099095326,-34.63218806509946,125.75850832729913,-126.17556367008638,68.333733974359,12.682420407356119,14.111111111111107,23.42718446601939,-6.154185022026418,-2.7253218884120054,6.850622406639014,2.4901960784313744,0.4980392156862763,14.65384615384616,8.863813292771468,61.833666684464404,24.97053177561988,538.5423279018847,55.289429830497966,3936.9158700491803,1
-34.80181416266484,5.477593099095326,-34.63218806509946,125.75850832729913,-126.17556367008638,68.333733974359,12.682420407356119,15.39393939393939,23.42718446601939,-6.154185022026418,-15.806866952789688,-8.958506224066381,7.4705882352941195,-20.419607843137253,10.990384615384622,13.577657844082157,38.93264268278982,24.97053177561988,538.5423279018847,55.289429830497966,3936.9158700491803,1
-34.93734278527327,5.130233536713672,-34.21880650994576,125.8504706734251,-126.2638961340057,68.333733974359,12.933557445125587,15.39393939393939,23.42718446601939,-6.154185022026418,-15.806866952789688,-8.958506224066381,7.4705882352941195,-20.419607843137253,10.990384615384622,13.577657844082157,38.93264268278982,24.76212761064424,525.7123198818031,55.0665035733615,3969.3137682219253,1
-34.93734278527327,5.130233536713672,-34.21880650994576,125.8504706734251,-126.2638961340057,68.333733974359,12.933557445125587,11.54545454545454,22.194174757281527,2.7973568281938483,-4.905579399141619,-8.958506224066381,-25.4,-3.48627450980392,14.65384615384616,11.742649052223499,72.4220749998411,24.76212761064424,525.7123198818031,55.0665035733615,3969.3137682219253,1
-34.93734278527327,5.130233536713672,-34.21880650994576,125.8504706734251,-126.2638961340057,68.333733974359,12.933557445125587,11.54545454545454,19.7281553398058,7.273127753303981,-2.7253218884120054,10.012448132780092,-0.49803921568627274,8.466666666666669,20.759615384615394,10.126103615840593,52.23754871538016,24.76212761064424,525.7123198818031,55.0665035733615,3969.3137682219253,1
-34.43395075844196,5.290553334735974,-34.05804701627487,126.03439536567709,-126.32278444328523,68.18108974358978,13.134467075341092,11.54545454545454,19.7281553398058,7.273127753303981,-2.7253218884120054,10.012448132780092,-0.49803921568627274,8.466666666666669,20.759615384615394,10.126103615840593,52.23754871538016,24.594183703150936,521.0816464426428,55.127665238895965,3977.715456133471,1
-34.43395075844196,5.290553334735974,-34.05804701627487,126.03439536567709,-126.32278444328523,68.18108974358978,13.134467075341092,21.808080808080803,48.08737864077667,33.00881057268724,-8.17596566523604,3.6887966804979344,-0.49803921568627274,-0.49803921568627274,17.096153846153854,16.607658080600636,292.04052729727056,24.594183703150936,521.0816464426428,55.127665238895965,3977.715456133471,1
-34.43395075844196,5.290553334735974,-34.05804701627487,126.03439536567709,-126.32278444328523,68.18108974358978,13.134467075341092,14.111111111111107,28.359223300970847,-2.7973568281938164,-16.896995708154495,-34.253112033195016,-3.48627450980392,1.4941176470588253,10.990384615384622,14.048571969234082,146.60777323796316,24.594183703150936,521.0816464426428,55.127665238895965,3977.715456133471,1
-33.369083009375714,5.450873132758276,-33.98915009041592,126.58616944243306,-126.45528313916421,67.87580128205127,13.335376705556655,14.111111111111107,28.359223300970847,-2.7973568281938164,-16.896995708154495,-34.253112033195016,-3.48627450980392,1.4941176470588253,10.990384615384622,14.048571969234082,146.60777323796316,24.269702077516637,510.48148498445266,55.34206422186909,4010.400209437086,1
-33.369083009375714,5.450873132758276,-33.98915009041592,126.58616944243306,-126.45528313916421,67.87580128205127,13.335376705556655,-1.2828282828282873,-7.398058252427205,-43.079295154185004,-9.266094420600847,17.390041493775943,5.4784313725490215,2.4901960784313744,12.211538461538467,12.324560439542019,181.52203892066592,24.269702077516637,510.48148498445266,55.34206422186909,4010.400209437086,1
-33.369083009375714,5.450873132758276,-33.98915009041592,126.58616944243306,-126.45528313916421,67.87580128205127,13.335376705556655,10.262626262626258,25.89320388349512,19.581497797356846,-2.7253218884120054,1.5809128630705482,8.466666666666669,-0.49803921568627274,12.211538461538467,10.152475879856523,80.80189331377925,24.269702077516637,510.48148498445266,55.34206422186909,4010.400209437086,1
-33.11738699596006,4.7294340416579175,-34.28770343580471,126.95401882693704,-126.58778183504319,67.51963141025641,13.737195965987723,10.262626262626258,25.89320388349512,19.581497797356846,-2.7253218884120054,1.5809128630705482,8.466666666666669,-0.49803921568627274,12.211538461538467,10.152475879856523,80.80189331377925,24.044841491140897,492.68142002634534,55.323718768133226,4066.597737279941,1
-33.11738699596006,4.7294340416579175,-34.28770343580471,126.95401882693704,-126.58778183504319,67.51963141025641,13.737195965987723,8.979797979797976,20.961165048543663,-30.770925110132147,-11.446351931330462,2.634854771784241,3.4862745098039234,0.4980392156862763,14.65384615384616,11.678906840115607,105.82584522368133,24.044841491140897,492.68142002634534,55.323718768133226,4066.597737279941,1
-33.11738699596006,4.7294340416579175,-34.28770343580471,126.95401882693704,-126.58778183504319,67.51963141025641,13.737195965987723,17.959595959595955,12.330097087378615,9.511013215859046,-17.9871244635193,-10.012448132780074,-29.384313725490195,-25.4,10.990384615384622,16.696872150000974,55.41794972148539,24.044841491140897,492.68142002634534,55.323718768133226,4066.597737279941,1
-33.64014025459258,4.96991373869137,-34.42549728752261,127.00000000000006,-126.54361560308354,67.46875,13.536286335772218,17.959595959595955,12.330097087378615,9.511013215859046,-17.9871244635193,-10.012448132780074,-29.384313725490195,-25.4,10.990384615384622,16.696872150000974,55.41794972148539,24.345183760268853,507.2252441596361,55.465137008738004,4054.8353179345195,1
-33.64014025459258,4.96991373869137,-34.42549728752261,127.00000000000006,-126.54361560308354,67.46875,13.536286335772218,17.959595959595955,59.18446601941744,11.748898678414113,-9.266094420600847,43.73858921161827,11.454901960784316,-4.482352941176469,12.211538461538467,21.255804706643236,378.32335511825255,24.345183760268853,507.2252441596361,55.465137008738004,4054.8353179345195,1
-33.64014025459258,4.96991373869137,-34.42549728752261,127.00000000000006,-126.54361560308354,67.46875,13.536286335772218,11.54545454545454,41.922330097087354,71.05286343612337,-28.888412017167372,-33.19917012448132,2.4901960784313744,-2.490196078431371,30.52884615384616,27.764683566377858,521.915043129303,24.345183760268853,507.2252441596361,55.465137008738004,4054.8353179345195,1
-33.81439134080342,5.183673469387773,-35.9871609403255,126.81607530774806,-126.44056106184433,67.21434294871796,13.486058928218313,11.54545454545454,41.922330097087354,71.05286343612337,-28.888412017167372,-33.19917012448132,2.4901960784313744,-2.490196078431371,30.52884615384616,27.764683566377858,521.915043129303,24.99507525017223,536.7679321107518,55.995636572487115,3998.864617084192,1
-33.81439134080342,5.183673469387773,-35.9871609403255,126.81607530774806,-126.44056106184433,67.21434294871796,13.486058928218313,-5.329070518200751e-15,-13.563106796116529,-2.7973568281938164,-33.2489270386266,-22.65975103734439,18.42745098039216,21.415686274509806,9.769230769230775,15.235188715551761,121.07016770844477,24.99507525017223,536.7679321107518,55.995636572487115,3998.864617084192,1
-33.81439134080342,5.183673469387773,-35.9871609403255,126.81607530774806,-126.44056106184433,67.21434294871796,13.486058928218313,19.24242424242424,43.155339805825214,10.62995594713658,80.12446351931332,6.850622406639014,1.4941176470588253,-21.415686274509802,6.105769230769237,23.627297384209527,692.0945514473931,24.99507525017223,536.7679321107518,55.995636572487115,3998.864617084192,1
-32.69143989633356,5.985272459499281,-37.50289330922243,126.17233888486606,-126.19028574740625,65.73878205128204,13.787423373541628,19.24242424242424,43.155339805825214,10.62995594713658,80.12446351931332,6.850622406639014,1.4941176470588253,-21.415686274509802,6.105769230769237,23.627297384209527,692.0945514473931,25.393201888351758,568.3764540880086,56.55350155119592,3883.426989775743,1
-32.69143989633356,5.985272459499281,-37.50289330922243,126.17233888486606,-126.19028574740625,65.73878205128204,13.787423373541628,7.696969696969692,9.864077669902887,46.43612334801764,-1.6351931330471983,-25.82157676348547,31.376470588235296,45.321568627450986,15.875000000000007,23.00337247838865,291.3695081303473,25.393201888351758,568.3764540880086,56.55350155119592,3883.426989775743,1
-32.69143989633356,5.985272459499281,-37.50289330922243,126.17233888486606,-126.19028574740625,65.73878205128204,13.787423373541628,25.656565656565654,13.563106796116479,13.986784140969178,-48.51072961373389,19.49792531120333,43.32941176470588,-0.49803921568627274,23.201923076923084,23.53056069698797,251.11774923468906,25.393201888351758,568.3764540880086,56.55350155119592,3883.426989775743,1
-31.897629392484184,8.817588891226611,-37.227305605786626,125.16075307748014,-125.5866805772909,63.09294871794873,13.686968558433875,25.656565656565654,13.563106796116479,13.986784140969178,-48.51072961373389,19.49792531120333,43.32941176470588,-0.49803921568627274,23.201923076923084,23.53056069698797,251.11774923468906,25.98084129649914,634.3777929449899,57.068549191497794,3679.1891734880296,1
-31.897629392484184,8.817588891226611,-37.227305605786626,125.16075307748014,-125.5866805772909,63.09294871794873,13.686968558433875,12.828282828282823,27.126213592232983,5.035242290748914,-10.356223175965653,-19.49792531120331,10.458823529411767,-26.396078431372548,10.990384615384622,15.336146721825328,65.50282128483998,25.98084129649914,634.3777929449899,57.068549191497794,3679.1891734880296,1
-31.897629392484184,8.817588891226611,-37.227305605786626,125.16075307748014,-125.5866805772909,63.09294871794873,13.686968558433875,7.696969696969692,16.029126213592207,5.035242290748914,-45.240343347639474,37.41493775933611,37.352941176470594,33.3686274509804,25.644230769230777,25.97280233812102,222.53407460587235,25.98084129649914,634.3777929449899,57.068549191497794,3679.1891734880296,1
-35.982849302538305,13.867662528929115,-38.90379746835443,123.36748732802323,-124.35002608242047,61.261217948717956,11.527190033616762,7.696969696969692,16.029126213592207,5.035242290748914,-45.240343347639474,37.41493775933611,37.352941176470594,33.3686274509804,25.644230769230777,25.97280233812102,222.53407460587235,29.584769766607284,879.7387430485926,58.71298244176893,3291.855764741289,1
-35.982849302538305,13.867662528929115,-38.90379746835443,123.36748732802323,-124.35002608242047,61.261217948717956,11.527190033616762,33.35353535353535,99.87378640776696,2.7973568281938483,-52.87124463519312,13.174273858921172,-35.36078431372549,-9.462745098039214,31.750000000000007,34.8304658119219,958.0981515544174,29.584769766607284,879.7387430485926,58.71298244176893,3291.855764741289,1
-35.982849302538305,13.867662528929115,-38.90379746835443,123.36748732802323,-124.35002608242047,61.261217948717956,11.527190033616762,11.54545454545454,29.59223300970871,-19.581497797356814,12.536480686695292,8.958506224066399,-37.35294117647059,-48.30980392156863,19.538461538461547,23.426922362472816,192.87376152415013,29.584769766607284,879.7387430485926,58.71298244176893,3291.855764741289,1
-40.397210153212896,16.753418893330547,-43.93327305605787,119.78095582910942,-122.46560018547501,59.785657051282044,8.262408542614196,11.54545454545454,29.59223300970871,-19.581497797356814,12.536480686695292,8.958506224066399,-37.35294117647059,-48.30980392156863,19.538461538461547,23.426922362472816,192.87376152415013,33.69463403420044,1160.2621201714094,60.15588259283262,2851.048136900311,1
-40.397210153212896,16.753418893330547,-43.93327305605787,119.78095582910942,-122.46560018547501,59.785657051282044,8.262408542614196,8.979797979797976,22.194174757281527,59.86343612334804,39.789699570815465,35.30705394190873,22.411764705882355,8.466666666666669,14.65384615384616,26.458304987443363,310.7184322442599,33.69463403420044,1160.2621201714094,60.15588259283262,2851.048136900311,1
-40.397210153212896,16.753418893330547,-43.93327305605787,119.78095582910942,-122.46560018547501,59.785657051282044,8.262408542614196,19.24242424242424,46.85436893203881,75.5286343612335,35.429184549356236,-16.336099585062232,-4.482352941176469,107.07843137254902,52.509615384615394,44.68263892105699,1151.8726497203002,33.69463403420044,1160.2621201714094,60.15588259283262,2851.048136900311,1
-45.56665904413446,18.99789606564277,-48.52640144665462,113.7574221578567,-119.83034834521533,58.56450320512823,4.294443345857246,19.24242424242424,46.85436893203881,75.5286343612335,35.429184549356236,-16.336099585062232,-4.482352941176469,107.07843137254902,52.509615384615394,44.68263892105699,1151.8726497203002,37.696985518810614,1456.145434356998,60.42723989005136,2351.0644130471155,1
-45.56665904413446,18.99789606564277,-48.52640144665462,113.7574221578567,-119.83034834521533,58.56450320512823,4.294443345857246,8.979797979797976,7.398058252427159,57.62555066079297,47.42060085836911,0.5269709543568553,41.33725490196079,81.18039215686275,15.875000000000007,32.54295322057095,826.2504449744213,37.696985518810614,1456.145434356998,60.42723989005136,2351.0644130471155,1
-45.56665904413446,18.99789606564277,-48.52640144665462,113.7574221578567,-119.83034834521533,58.56450320512823,4.294443345857246,3.848484848484844,2.466019417475703,-80.0044052863436,-127.0,-21.605809128630696,2.4901960784313744,-9.462745098039214,-19.538461538461533,33.30201517448337,2088.9586176940006,37.696985518810614,1456.145434356998,60.42723989005136,2351.0644130471155,1
-55.57641588535712,19.345255628024425,-52.01717902350814,103.96343229543817,-116.42954848432157,58.3609775641026,0.2260233339924298,3.848484848484844,2.466019417475703,-80.0044052863436,-127.0,-21.605809128630696,2.4901960784313744,-9.462745098039214,-19.538461538461533,33.30201517448337,2088.9586176940006,42.31295017896323,1786.4203514653414,58.441955648990245,1821.017271644917,1
-55.57641588535712,19.345255628024425,-52.01717902350814,103.96343229543817,-116.42954848432157,58.3609775641026,0.2260233339924298,-2.565656565656571,6.165048543689295,-2.7973568281938164,-41.969957081545054,-40.57676348547717,-58.27058823529411,-95.12549019607843,-4.88461538461538,31.54443454006873,1138.3050938474078,42.31295017896323,1786.4203514653414,58.441955648990245,1821.017271644917,1
-55.57641588535712,19.345255628024425,-52.01717902350814,103.96343229543817,-116.42954848432157,58.3609775641026,0.2260233339924298,5.131313131313126,-8.631067961165073,-31.889867841409675,85.57510729613736,20.55186721991702,45.321568627450986,22.411764705882355,10.990384615384622,28.812867674832525,699.8481713449038,42.31295017896323,1786.4203514653414,58.441955648990245,1821.017271644917,1
-65.19894809055569,21.64317273301075,-55.209403254972884,90.6748732802318,-111.90987074711646,59.48036858974359,-4.796717421396124,5.131313131313126,-8.631067961165073,-31.889867841409675,85.57510729613736,20.55186721991702,45.321568627450986,22.411764705882355,10.990384615384622,28.812867674832525,699.8481713449038,47.350508026179774,2257.943898524305,55.84248308940514,1191.644512667873,1
-65.19894809055569,21.64317273301075,-55.209403254972884,90.6748732802318,-111.90987074711646,59.48036858974359,-4.796717421396124,2.5656565656565604,3.699029126213567,-31.889867841409675,-8.17596566523604,2.634854771784241,-83.17254901960784,-26.396078431372548,-6.105769230769226,20.579971331506215,767.7774971554669,47.350508026179774,2257.943898524305,55.84248308940514,1191.644512667873,1
-65.19894809055569,21.64317273301075,-55.209403254972884,90.6748732802318,-111.90987074711646,59.48036858974359,-4.796717421396124,8.979797979797976,24.660194174757255,127.00000000000001,-14.716738197424881,-21.605809128630696,-40.34117647058824,-22.41176470588235,-10.99038461538461,33.83823315905825,1513.0619147731181,47.350508026179774,2257.943898524305,55.84248308940514,1191.644512667873,1
-69.16800060980258,26.960446034083756,-55.737613019891505,79.22556118754528,-107.55213586043007,61.719150641025635,-10.522641882539006,8.979797979797976,24.660194174757255,127.00000000000001,-14.716738197424881,-21.605809128630696,-40.34117647058824,-22.41176470588235,-10.99038461538461,33.83823315905825,1513.0619147731181,50.622019887925944,2710.003756046086,53.97454008050685,685.2418851433413,1
-69.16800060980258,26.960446034083756,-55.737613019891505,79.22556118754528,-107.55213586043007,61.719150641025635,-10.522641882539006,20.52525252525252,48.08737864077667,127.00000000000001,111.73819742489272,-1.5809128630705307,10.458823529411767,-8.466666666666665,28.086538461538467,44.49297126395117,2354.790738095537,50.622019887925944,2710.003756046086,53.97454008050685,685.2418851433413,1
-69.16800060980258,26.960446034083756,-55.737613019891505,79.22556118754528,-107.55213586043007,61.719150641025635,-10.522641882539006,5.131313131313126,23.42718446601939,-19.581497797356814,-33.2489270386266,1.5809128630705482,-15.439215686274508,-75.20392156862745,-1.2211538461538414,21.854265799680284,591.6011121462659,50.622019887925944,2710.003756046086,53.97454008050685,685.2418851433413,1
-72.14963030718805,34.92299600252474,-57.34520795660036,68.00615496017383,-102.48774126238916,63.347355769230774,-17.20288708720591,5.131313131313126,23.42718446601939,-19.581497797356814,-33.2489270386266,1.5809128630705482,-15.439215686274508,-75.20392156862745,-1.2211538461538414,21.854265799680284,591.6011121462659,54.805944755437714,3366.1899479727813,53.424786306432985,285.1511310905952,1
-72.14963030718805,34.92299600252474,-57.34520795660036,68.00615496017383,-102.48774126238916,63.347355769230774,-17.20288708720591,12.828282828282823,29.59223300970871,-33.00881057268721,48.51072961373392,3.6887966804979344,27.3921568627451,12.450980392156865,17.096153846153854,23.0710179757458,205.1722088580989,54.805944755437714,3366.1899479727813,53.424786306432985,285.1511310905952,1
-72.14963030718805,34.92299600252474,-57.34520795660036,68.00615496017383,-102.48774126238916,63.347355769230774,-17.20288708720591,7.696969696969692,16.029126213592207,-56.50660792951541,-69.22317596566523,11.066390041493785,9.462745098039218,22.411764705882355,17.096153846153854,26.18661668716397,545.9548741287518,54.805944755437714,3366.1899479727813,53.424786306432985,285.1511310905952,1
-82.95319765226009,40.828108563012854,-63.61482820976492,54.0278783490225,-96.12780386019824,66.349358974359,-24.88768044295034,7.696969696969692,16.029126213592207,-56.50660792951541,-69.22317596566523,11.066390041493785,9.462745098039218,22.411764705882355,17.096153846153854,26.18661668716397,545.9548741287518,62.46537814167929,4434.018557129341,52.82360504060009,130.89635371595315,1
-82.95319765226009,40.828108563012854,-63.61482820976492,54.0278783490225,-96.12780386019824,66.349358974359,-24.88768044295034,2.5656565656565604,-8.631067961165073,-103.5022026431718,-58.32188841201716,-3.6887966804979166,-7.470588235294116,-3.48627450980392,12.211538461538467,24.984751683643125,1347.4309578907676,62.46537814167929,4434.018557129341,52.82360504060009,130.89635371595315,1
-82.95319765226009,40.828108563012854,-63.61482820976492,54.0278783490225,-96.12780386019824,66.349358974359,-24.88768044295034,16.67676767676767,33.2912621359223,0.5594713656387817,31.068669527897008,2.634854771784241,7.4705882352941195,15.439215686274512,20.759615384615394,15.987555598024255,148.46651962358055,62.46537814167929,4434.018557129341,52.82360504060009,130.89635371595315,1
-87.30947480753106,45.34378287397435,-71.07866184448463,38.34829833454023,-88.8109314322147,68.8425480769231,-31.869290092940446,16.67676767676767,33.2912621359223,0.5594713656387817,31.068669527897008,2.634854771784241,7.4705882352941195,15.439215686274512,20.759615384615394,15.987555598024255,148.46651962358055,67.91063984199668,5235.751949529984,51.590247684333065,297.0829158435623,1
-87.30947480753106,45.34378287397435,-71.07866184448463,38.34829833454023,-88.8109314322147,68.8425480769231,-31.869290092940446,21.808080808080803,49.32038834951453,56.50660792951543,-1.6351931330471983,8.958506224066399,6.4745098039215705,-11.454901960784312,15.875000000000007,21.504148526116282,415.6772822848275,67.91063984199668,5235.751949529984,51.590247684333065,297.0829158435623,1
-87.30947480753106,45.34378287397435,-71.07866184448463,38.34829833454023,-88.8109314322147,68.8425480769231,-31.869290092940446,14.111111111111107,35.75728155339803,44.198237885462575,-1.6351931330471983,-16.336099585062232,-13.44705882352941,2.4901960784313744,12.211538461538467,17.52333957894755,225.76279691596113,67.91063984199668,5235.751949529984,51.590247684333065,297.0829158435623,1
-92.28531138044059,50.90153587208081,-73.6737793851718,22.254887762491023,-80.56656813307832,71.74278846153848,-39.00158196559221,14.111111111111107,35.75728155339803,44.198237885462575,-1.6351931330471983,-16.336099585062232,-13.44705882352941,2.4901960784313744,12.211538461538467,17.52333957894755,225.76279691596113,72.28687554589773,6061.3119201286145,48.94340100658121,663.8513230398617,1
-92.28531138044059,50.90153587208081,-73.6737793851718,22.254887762491023,-80.56656813307832,71.74278846153848,-39.00158196559221,6.414141414141409,19.7281553398058,-30.770925110132147,-5.995708154506426,37.41493775933611,1.4941176470588253,1.4941176470588253,14.65384615384616,14.745743653235714,184.67451060372142,72.28687554589773,6061.3119201286145,48.94340100658121,663.8513230398617,1
-92.28531138044059,50.90153587208081,-73.6737793851718,22.254887762491023,-80.56656813307832,71.74278846153848,-39.00158196559221,7.696969696969692,12.330097087378615,-24.057268722466944,52.87124463519315,-14.228215767634847,-9.462745098039214,1.4941176470588253,7.326923076923083,16.183447716458048,262.58076320975266,72.28687554589773,6061.3119201286145,48.94340100658121,663.8513230398617,1
-100.88169830017532,56.993688196928275,-73.12260397830019,6.161477190441758,-71.23277111227034,76.62740384615387,-47.08819458176788,7.696969696969692,12.330097087378615,-24.057268722466944,52.87124463519315,-14.228215767634847,-9.462745098039214,1.4941176470588253,7.326923076923083,16.183447716458048,262.58076320975266,76.99933015846793,7104.242411435002,45.42592312189007,1221.3080167983683,1
-100.88169830017532,56.993688196928275,-73.12260397830019,6.161477190441758,-71.23277111227034,76.62740384615387,-47.08819458176788,2.5656565656565604,4.932038834951431,29.65198237885464,-10.356223175965653,20.55186721991702,13.447058823529414,3.4862745098039234,14.65384615384616,12.4556184578156,86.62164615744673,76.99933015846793,7104.242411435002,45.42592312189007,1221.3080167983683,1
-100.88169830017532,56.993688196928275,-73.12260397830019,6.161477190441758,-71.23277111227034,76.62740384615387,-47.08819458176788,10.262626262626258,29.59223300970871,-22.938325991189416,-44.150214592274665,22.659751037344407,2.4901960784313744,-3.48627450980392,13.432692307692314,18.626539223633884,199.0147169581367,76.99933015846793,7104.242411435002,45.42592312189007,1221.3080167983683,1
-113.71819498437381,63.88743951188725,-70.64231464737794,-9.610065170166479,-60.50037674607316,85.27724358974359,-56.98299386988333,10.262626262626258,29.59223300970871,-22.938325991189416,-44.150214592274665,22.659751037344407,2.4901960784313744,-3.48627450980392,13.432692307692314,18.626539223633884,199.0147169581367,82.749316381213,8582.924604296499,48.046606443143894,1119.4328632959896,1
-113.71819498437381,63.88743951188725,-70.64231464737794,-9.610065170166479,-60.50037674607316,85.27724358974359,-56.98299386988333,12.828282828282823,24.660194174757255,5.035242290748914,-53.96137339055793,-22.65975103734439,-9.462745098039214,-6.474509803921567,10.990384615384622,18.259060404879587,258.34898546980423,82.749316381213,8582.924604296499,48.046606443143894,1119.4328632959896,1
-113.71819498437381,63.88743951188725,-70.64231464737794,-9.610065170166479,-60.50037674607316,85.27724358974359,-56.98299386988333,-2.565656565656571,3.699029126213567,-47.55506607929514,-59.41201716738196,-1.5809128630705307,-3.48627450980392,-3.48627450980392,8.548076923076929,16.291663468037818,541.1526056893406,82.749316381213,8582.924604296499,48.046606443143894,1119.4328632959896,1
-121.2109916914399,69.1779928466232,-72.68625678119349,-25.01375814627079,-48.73743696748393,95.86057692307693,-66.37551908245996,-2.565656565656571,3.699029126213567,-47.55506607929514,-59.41201716738196,-1.5809128630705307,-3.48627450980392,-3.48627450980392,8.548076923076929,16.291663468037818,541.1526056893406,87.69174710641886,9788.013442334666,55.62600259136249,705.9091114331876,1
-121.2109916914399,69.1779928466232,-72.68625678119349,-25.01375814627079,-48.73743696748393,95.86057692307693,-66.37551908245996,15.39393939393939,17.26213592233007,-2.7973568281938164,33.248927038626626,10.012448132780092,6.4745098039215705,2.4901960784313744,19.538461538461547,13.40224684208556,105.91860691308023,87.69174710641886,9788.013442334666,55.62600259136249,705.9091114331876,1
-121.2109916914399,69.1779928466232,-72.68625678119349,-25.01375814627079,-48.73743696748393,95.86057692307693,-66.37551908245996,25.656565656565654,73.98058252427181,28.53303964757711,26.70815450643778,-25.82157676348547,-2.490196078431371,2.4901960784313744,20.759615384615394,25.804990829976997,491.6832881709205,87.69174710641886,9788.013442334666,55.62600259136249,705.9091114331876,1
-127.0,76.25878392594153,-72.80108499095842,-39.03801593048513,-35.885063467223105,107.76682692307693,-75.31599762705162,25.656565656565654,73.98058252427181,28.53303964757711,26.70815450643778,-25.82157676348547,-2.490196078431371,2.4901960784313744,20.759615384615394,25.804990829976997,491.6832881709205,92.01995630563333,11078.416692122217,62.69929494912836,422.88101407981054,1
-127.0,76.25878392594153,-72.80108499095842,-39.03801593048513,-35.885063467223105,107.76682692307693,-75.31599762705162,17.959595959595955,19.7281553398058,6.154185022026447,-35.42918454935621,-12.120331950207461,0.4980392156862763,-3.48627450980392,9.769230769230775,13.143124664464107,125.37956758853375,92.01995630563333,11078.416692122217,62.69929494912836,422.88101407981054,1
-127.0,76.25878392594153,-72.80108499095842,-39.03801593048513,-35.885063467223105,107.76682692307693,-75.31599762705162,10.262626262626258,19.7281553398058,60.982378854625566,41.969957081545076,27.929460580912874,-7.470588235294116,2.4901960784313744,8.548076923076929,22.42267991953975,409.68171334779737,92.01995630563333,11078.416692122217,62.69929494912836,422.88101407981054,1
-122.00480219528927,84.80917315379762,-74.84502712477396,-50.67125271542358,-22.708804265924776,116.72195512820514,-81.7953332015029,10.262626262626258,19.7281553398058,60.982378854625566,41.969957081545076,27.929460580912874,-7.470588235294116,2.4901960784313744,8.548076923076929,22.42267991953975,409.68171334779737,93.88633415795361,11747.588075164093,70.10848433133172,308.1755311897712,1
-122.00480219528927,84.80917315379762,-74.84502712477396,-50.67125271542358,-22.708804265924776,116.72195512820514,-81.7953332015029,16.67676767676767,33.2912621359223,28.53303964757711,-20.167381974248915,-1.5809128630705307,2.4901960784313744,-0.49803921568627274,15.875000000000007,14.889074948963023,156.39542419090813,93.88633415795361,11747.588075164093,70.10848433133172,308.1755311897712,1
-122.00480219528927,84.80917315379762,-74.84502712477396,-50.67125271542358,-22.708804265924776,116.72195512820514,-81.7953332015029,12.828282828282823,33.2912621359223,30.770925110132175,84.48497854077254,10.012448132780092,3.4862745098039234,5.4784313725490215,14.65384615384616,24.37580609801113,708.7352382348884,93.88633415795361,11747.588075164093,70.10848433133172,308.1755311897712,1
-116.83535330436771,93.76036187670947,-79.50705244122966,-60.741129616220064,-9.090882745029859,121.96274038461539,-84.95965987739771,12.828282828282823,33.2912621359223,30.770925110132175,84.48497854077254,10.012448132780092,3.4862745098039234,5.4784313725490215,14.65384615384616,24.37580609801113,708.7352382348884,96.70092254076894,12627.592360397119,78.00284797805305,274.2643980683163,1
-116.83535330436771,93.76036187670947,-79.50705244122966,-60.741129616220064,-9.090882745029859,121.96274038461539,-84.95965987739771,-8.979797979797986,-20.961165048543712,-81.12334801762113,-38.699570815450635,-11.066390041493767,-4.482352941176469,-0.49803921568627274,8.548076923076929,21.79484262285586,716.3449151115625,96.70092254076894,12627.592360397119,78.00284797805305,274.2643980683163,1
-116.83535330436771,93.76036187670947,-79.50705244122966,-60.741129616220064,-9.090882745029859,121.96274038461539,-84.95965987739771,-5.329070518200751e-15,-18.495145631067984,-54.26872246696034,5.995708154506449,3.6887966804979344,-3.48627450980392,2.4901960784313744,14.65384615384616,12.88483620938927,320.2369639656387,96.70092254076894,12627.592360397119,78.00284797805305,274.2643980683163,1
-118.03574967604239,100.22659373027564,-85.27142857142857,-70.25923244026063,5.557584188257106,127.0,-85.11034210005937,-5.329070518200751e-15,-18.495145631067984,-54.26872246696034,5.995708154506449,3.6887966804979344,-3.48627450980392,2.4901960784313744,14.65384615384616,12.88483620938927,320.2369639656387,101.1779239925822,13853.577927417882,85.25241824732161,224.51095671588945,1
-118.03574967604239,100.22659373027564,-85.27142857142857,-70.25923244026063,5.557584188257106,127.0,-85.11034210005937,6.414141414141409,3.699029126213567,2.7973568281938483,-49.6008583690987,-18.443983402489618,-7.470588235294116,-1.4941176470588218,12.211538461538467,12.766451685503569,252.3400492999928,101.1779239925822,13853.577927417882,85.25241824732161,224.51095671588945,1
-118.03574967604239,100.22659373027564,-85.27142857142857,-70.25923244026063,5.557584188257106,127.0,-85.11034210005937,17.959595959595955,25.89320388349512,15.105726872246713,-14.716738197424881,-3.6887966804979166,-4.482352941176469,-35.36078431372549,-18.317307692307686,16.940563317558777,108.7880735686733,101.1779239925822,13853.577927417882,85.25241824732161,224.51095671588945,1
-103.59227075234392,108.21586366505367,-87.33833634719711,-77.66220130340326,19.867443343186682,126.49118589743591,-81.1423769033023,17.959595959595955,25.89320388349512,15.105726872246713,-14.716738197424881,-3.6887966804979166,-4.482352941176469,-35.36078431372549,-18.317307692307686,16.940563317558777,108.7880735686733,99.7154902548649,13894.720221909427,91.0721337718847,243.83750333388588,1
-103.59227075234392,108.21586366505367,-87.33833634719711,-77.66220130340326,19.867443343186682,126.49118589743591,-81.1423769033023,23.090909090909086,59.18446601941744,62.1013215859031,-33.2489270386266,2.634854771784241,-1.4941176470588218,-6.474509803921567,13.432692307692314,25.207724783164146,592.3075185256787,99.7154902548649,13894.720221909427,91.0721337718847,243.83750333388588,1
-103.59227075234392,108.21586366505367,-87.33833634719711,-77.66220130340326,19.867443343186682,126.49118589743591,-81.1423769033023,19.24242424242424,61.65048543689318,64.33920704845816,-58.32188841201716,-18.443983402489618,34.36470588235294,4.482352941176472,25.644230769230777,35.811159766880316,521.6211085532449,99.7154902548649,13894.720221909427,91.0721337718847,243.83750333388588,1
-85.10229438219376,116.7395329265727,-91.70180831826403,-83.63975380159303,33.30869993624297,118.55368589743591,-72.05121613604899,19.24242424242424,61.65048543689318,64.33920704845816,-58.32188841201716,-18.443983402489618,34.36470588235294,4.482352941176472,25.644230769230777,35.811159766880316,521.6211085532449,97.84787854234351,14038.578262580126,97.36036501547659,297.9132924522869,1
-85.10229438219376,116.7395329265727,-91.70180831826403,-83.63975380159303,33.30869993624297,118.55368589743591,-72.05121613604899,19.24242424242424,33.2912621359223,43.07929515418504,21.257510729613745,3.6887966804979344,6.4745098039215705,14.443137254901963,18.3173076923077,19.97428046172181,170.59512743296165,97.84787854234351,14038.578262580126,97.36036501547659,297.9132924522869,1
-85.10229438219376,116.7395329265727,-91.70180831826403,-83.63975380159303,33.30869993624297,118.55368589743591,-72.05121613604899,15.39393939393939,39.45631067961162,47.55506607929517,-31.068669527896986,0.5269709543568553,-9.462745098039214,33.3686274509804,30.52884615384616,25.920146917245724,254.42645964028927,97.84787854234351,14038.578262580126,97.36036501547659,297.9132924522869,1
-77.12546688009758,124.83568272669895,-98.79819168173599,-89.01955104996375,46.6910682200197,106.69831730769232,-58.138224243622744,15.39393939393939,39.45631067961162,47.55506607929517,-31.068669527896986,0.5269709543568553,-9.462745098039214,33.3686274509804,30.52884615384616,25.920146917245724,254.42645964028927,100.25311376284418,15211.687122292342,104.21780848613291,342.7280068011846,1
-77.12546688009758,124.83568272669895,-98.79819168173599,-89.01955104996375,46.6910682200197,106.69831730769232,-58.138224243622744,5.131313131313126,22.194174757281527,-12.867841409691614,-0.545064377682392,10.012448132780092,-24.40392156862745,-10.458823529411763,24.42307692307693,13.754582978733112,81.85085193250517,100.25311376284418,15211.687122292342,104.21780848613291,342.7280068011846,1
-77.12546688009758,124.83568272669895,-98.79819168173599,-89.01955104996375,46.6910682200197,106.69831730769232,-58.138224243622744,6.414141414141409,14.796116504854343,-3.9162995594713497,-24.527896995708144,-5.796680497925303,-24.40392156862745,-8.466666666666665,26.865384615384624,14.398388477847412,91.58555837215361,100.25311376284418,15211.687122292342,104.21780848613291,342.7280068011846,1
-86.67055415809132,127.00000000000001,-102.70235081374322,-92.83598841419257,61.14814814814814,98.2011217948718,-42.115681233933174,6.414141414141409,14.796116504854343,-3.9162995594713497,-24.527896995708144,-5.796680497925303,-24.40392156862745,-8.466666666666665,26.865384615384624,14.398388477847412,91.58555837215361,105.45763499061151,16445.882364599,107.51277974264526,309.1500917688096,1
-86.67055415809132,127.00000000000001,-102.70235081374322,-92.83598841419257,61.14814814814814,98.2011217948718,-42.115681233933174,6.414141414141409,7.398058252427159,-20.700440528634346,-35.42918454935621,-8.958506224066381,-19.423529411764704,-73.21176470588236,2.442307692307697,21.74724159732253,545.6461974214237,105.45763499061151,16445.882364599,107.51277974264526,309.1500917688096,1
-86.67055415809132,127.00000000000001,-102.70235081374322,-92.83598841419257,61.14814814814814,98.2011217948718,-42.115681233933174,11.54545454545454,14.796116504854343,56.50660792951543,-16.896995708154495,-14.228215767634847,16.43529411764706,-0.49803921568627274,13.432692307692314,18.042427012079912,268.5343843450479,105.45763499061151,16445.882364599,107.51277974264526,309.1500917688096,1
-100.63000228675966,125.0227224910583,-106.92802893309222,-94.67523533671249,76.93021503506637,95.96233974358975,-24.28495155230371,11.54545454545454,14.796116504854343,56.50660792951543,-16.896995708154495,-14.228215767634847,16.43529411764706,-0.49803921568627274,13.432692307692314,18.042427012079912,268.5343843450479,110.86025123697006,17459.99473758661,108.87532892028766,233.0864770758946,1
-100.63000228675966,125.0227224910583,-106.92802893309222,-94.67523533671249,76.93021503506637,95.96233974358975,-24.28495155230371,16.67676767676767,36.9902912621359,8.392070484581513,14.716738197424906,-0.5269709543568377,29.3843137254902,-59.266666666666666,4.88461538461539,21.354804294004886,383.6138518926329,110.86025123697006,17459.99473758661,108.87532892028766,233.0864770758946,1
-100.63000228675966,125.0227224910583,-106.92802893309222,-94.67523533671249,76.93021503506637,95.96233974358975,-24.28495155230371,11.54545454545454,14.796116504854343,-13.98678414096915,-24.527896995708144,-8.958506224066381,-1.4941176470588218,5.4784313725490215,14.65384615384616,11.93014419806332,48.29705142086477,110.86025123697006,17459.99473758661,108.87532892028766,233.0864770758946,1
-90.42663312752497,118.39617083946983,-107.31844484629295,-96.10065170166541,91.49034950443401,93.92708333333334,-2.636938896578954,11.54545454545454,14.796116504854343,-13.98678414096915,-24.527896995708144,-8.958506224066381,-1.4941176470588218,5.4784313725490215,14.65384615384616,11.93014419806332,48.29705142086477,105.38041627109591,15806.564082325303,107.2717557958094,124.27417830662706,1
-90.42663312752497,118.39617083946983,-107.31844484629295,-96.10065170166541,91.49034950443401,93.92708333333334,-2.636938896578954,26.939393939393934,60.41747572815531,57.62555066079297,17.987124463519326,61.65560165975105,2.4901960784313744,27.3921568627451,19.538461538461547,34.25574511640633,510.3272137409117,105.38041627109591,15806.564082325303,107.2717557958094,124.27417830662706,1
-90.42663312752497,118.39617083946983,-107.31844484629295,-96.10065170166541,91.49034950443401,93.92708333333334,-2.636938896578954,16.67676767676767,70.28155339805822,21.81938325991191,-3.8154506437768125,31.091286307053952,5.4784313725490215,10.458823529411767,9.769230769230775,21.173865869595016,474.7285521015714,105.38041627109591,15806.564082325303,107.2717557958094,124.27417830662706,1
-69.61330894123029,111.3153797601515,-101.60000000000001,-97.34214337436634,103.59189706138062,87.92307692307693,22.0247182123789,16.67676767676767,70.28155339805822,21.81938325991191,-3.8154506437768125,31.091286307053952,5.4784313725490215,10.458823529411767,9.769230769230775,21.173865869595016,474.7285521015714,94.17622956712727,13181.882956416706,103.41917437817261,51.29488033690733,1
-69.61330894123029,111.3153797601515,-101.60000000000001,-97.34214337436634,103.59189706138062,87.92307692307693,22.0247182123789,5.131313131313126,-4.932038834951481,15.105726872246713,29.9785407725322,24.767634854771792,14.443137254901963,10.458823529411767,9.769230769230775,14.323305752419976,80.45134011385663,94.17622956712727,13181.882956416706,103.41917437817261,51.29488033690733,1
-69.61330894123029,111.3153797601515,-101.60000000000001,-97.34214337436634,103.59189706138062,87.92307692307693,22.0247182123789,3.848484848484844,25.89320388349512,-29.651982378854612,-21.25751072961372,-7.9045643153526886,-8.466666666666665,23.407843137254904,12.211538461538467,16.580224302657626,92.6250477687512,94.17622956712727,13181.882956416706,103.41917437817261,51.29488033690733,1
-47.231724979038034,98.56995581737851,-97.09873417721519,-100.37690079652418,112.67541876775053,78.7644230769231,48.84615384615387,3.848484848484844,25.89320388349512,-29.651982378854612,-21.25751072961372,-7.9045643153526886,-8.466666666666665,23.407843137254904,12.211538461538467,16.580224302657626,92.6250477687512,80.96680499121058,10338.51416227194,98.6818635970393,2.6959866093493887,1
-47.231724979038034,98.56995581737851,-97.09873417721519,-100.37690079652418,112.67541876775053,78.7644230769231,48.84615384615387,19.24242424242424,45.62135922330094,-5.035242290748883,-21.25751072961372,-22.65975103734439,15.439215686274512,1.4941176470588253,18.3173076923077,18.633366068634153,177.25513339870582,80.96680499121058,10338.51416227194,98.6818635970393,2.6959866093493887,1
-47.231724979038034,98.56995581737851,-97.09873417721519,-100.37690079652418,112.67541876775053,78.7644230769231,48.84615384615387,10.262626262626258,25.89320388349512,11.748898678414113,-2.7253218884120054,-17.390041493775925,-53.29019607843137,-23.4078431372549,6.105769230769237,18.852987581647366,257.8897797357634,80.96680499121058,10338.51416227194,98.6818635970393,2.6959866093493887,1
-39.25489747694184,83.01893540921525,-95.83562386980108,-104.60716871832005,120.16895612357271,71.74278846153848,76.22009096302156,10.262626262626258,25.89320388349512,11.748898678414113,-2.7253218884120054,-17.390041493775925,-53.29019607843137,-23.4078431372549,6.105769230769237,18.852987581647366,257.8897797357634,72.70315225198605,8356.870363784441,94.48724266577881,117.87655325560604,1
-39.25489747694184,83.01893540921525,-95.83562386980108,-104.60716871832005,120.16895612357271,71.74278846153848,76.22009096302156,12.828282828282823,39.45631067961162,11.748898678414113,-32.15879828326179,-33.19917012448132,12.450980392156865,31.376470588235296,26.865384615384624,25.010537023728556,121.83116128747204,72.70315225198605,8356.870363784441,94.48724266577881,117.87655325560604,1
-39.25489747694184,83.01893540921525,-95.83562386980108,-104.60716871832005,120.16895612357271,71.74278846153848,76.22009096302156,12.828282828282823,18.495145631067935,-0.5594713656387515,1.6351931330472222,18.443983402489636,-15.439215686274508,-13.44705882352941,8.548076923076929,11.174553474175902,49.01426701362094,72.70315225198605,8356.870363784441,94.48724266577881,117.87655325560604,1
-32.28485402850827,64.74247843467285,-90.09421338155516,-109.84902244750174,124.8358546339767,66.14583333333337,99.67629029068615,12.828282828282823,18.495145631067935,-0.5594713656387515,1.6351931330472222,18.443983402489636,-15.439215686274508,-13.44705882352941,8.548076923076929,11.174553474175902,49.01426701362094,62.3738486149121,6121.77106772066,88.22857142124326,511.2605431383749,1
-32.28485402850827,64.74247843467285,-90.09421338155516,-109.84902244750174,124.8358546339767,66.14583333333337,99.67629029068615,11.54545454545454,24.660194174757255,-34.127753303964745,0.5450643776824151,-28.98340248962655,-29.384313725490195,0.4980392156862763,7.326923076923083,17.133893113698132,187.89547858945093,62.3738486149121,6121.77106772066,88.22857142124326,511.2605431383749,1
-32.28485402850827,64.74247843467285,-90.09421338155516,-109.84902244750174,124.8358546339767,66.14583333333337,99.67629029068615,16.67676767676767,14.796116504854343,-7.27312775330395,-2.7253218884120054,24.767634854771792,29.3843137254902,21.415686274509806,15.875000000000007,16.61424608476372,76.66012854090239,62.3738486149121,6121.77106772066,88.22857142124326,511.2605431383749,1
-22.701044286912115,42.88554597096572,-75.71772151898735,-115.78059377262844,126.91166753608067,61.312099358974365,117.95906664030059,16.67676767676767,14.796116504854343,-7.27312775330395,-2.7253218884120054,24.767634854771792,29.3843137254902,21.415686274509806,15.875000000000007,16.61424608476372,76.66012854090239,47.10143725895506,3529.8506576130267,78.12795375419383,1332.7789130723943,1
-22.701044286912115,42.88554597096572,-75.71772151898735,-115.78059377262844,126.91166753608067,61.312099358974365,117.95906664030059,15.39393939393939,28.359223300970847,-33.00881057268721,-31.068669527896986,-7.9045643153526886,21.415686274509806,13.447058823529414,12.211538461538467,20.351186333803103,90.53646494790057,47.10143725895506,3529.8506576130267,78.12795375419383,1332.7789130723943,1
-22.701044286912115,42.88554597096572,-75.71772151898735,-115.78059377262844,126.91166753608067,61.312099358974365,117.95906664030059,6.414141414141409,-4.932038834951481,-13.98678414096915,-25.61802575107295,-22.65975103734439,33.3686274509804,7.4705882352941195,17.096153846153854,16.44326383886347,104.19285224177217,47.10143725895506,3529.8506576130267,78.12795375419383,1332.7789130723943,1
-23.146352618339815,18.06269724384601,-53.14249547920434,-119.91889934829828,127.0,58.81891025641028,126.64840814712278,6.414141414141409,-4.932038834951481,-13.98678414096915,-25.61802575107295,-22.65975103734439,33.3686274509804,7.4705882352941195,17.096153846153854,16.44326383886347,104.19285224177217,31.450515113796722,1278.022307966709,63.70803069044954,2677.3943775108037,1
-23.146352618339815,18.06269724384601,-53.14249547920434,-119.91889934829828,127.0,58.81891025641028,126.64840814712278,23.090909090909086,82.61165048543685,21.81938325991191,-45.240343347639474,-26.875518672199163,-24.40392156862745,50.30196078431373,21.980769230769237,37.040557054975864,462.27320880498206,31.450515113796722,1278.022307966709,63.70803069044954,2677.3943775108037,1
-23.146352618339815,18.06269724384601,-53.14249547920434,-119.91889934829828,127.0,58.81891025641028,126.64840814712278,8.979797979797976,14.796116504854343,29.65198237885464,7.085836909871256,37.41493775933611,-31.376470588235293,-11.454901960784312,12.211538461538467,19.12144781790905,138.3813957866371,31.450515113796722,1278.022307966709,63.70803069044954,2677.3943775108037,1
-22.85593414132175,-1.148958552493145,-32.65714285714286,-122.53982621288912,125.42473772677215,57.49599358974359,127.0,8.979797979797976,14.796116504854343,29.65198237885464,7.085836909871256,37.41493775933611,-31.376470588235293,-11.454901960784312,12.211538461538467,19.12144781790905,138.3813957866371,18.887345183652585,260.00369328014386,52.115309207508375,3967.900866124816,1
-22.85593414132175,-1.148958552493145,-32.65714285714286,-122.53982621288912,125.42473772677215,57.49599358974359,127.0,15.39393939393939,14.796116504854343,66.57709251101323,50.69098712446353,67.9792531120332,24.403921568627453,9.462745098039218,9.769230769230775,32.384160760275144,638.5463667991195,18.887345183652585,260.00369328014386,52.115309207508375,3967.900866124816,1
-22.85593414132175,-1.148958552493145,-32.65714285714286,-122.53982621288912,125.42473772677215,57.49599358974359,127.0,16.67676767676767,34.52427184466016,2.7973568281938483,-11.446351931330462,14.228215767634865,-16.435294117647057,-7.470588235294116,9.769230769230775,14.16850964634487,89.53133636974133,18.887345183652585,260.00369328014386,52.115309207508375,3967.900866124816,1
-8.412455217623297,-14.081422259625484,-14.376491862567814,-125.80448950036202,121.15533530400509,53.12019230769232,122.73067035791973,16.67676767676767,34.52427184466016,2.7973568281938483,-11.446351931330462,14.228215767634865,-16.435294117647057,-7.470588235294116,9.769230769230775,14.16850964634487,89.53133636974133,12.290123113272196,11.298997749354772,51.42080120751843,4149.721579552833,1
-8.412455217623297,-14.081422259625484,-14.376491862567814,-125.80448950036202,121.15533530400509,53.12019230769232,122.73067035791973,10.262626262626258,12.330097087378615,21.81938325991191,-16.896995708154495,-11.066390041493767,-31.376470588235293,-8.466666666666665,9.769230769230775,15.248482547962222,61.841027294653294,12.290123113272196,11.298997749354772,51.42080120751843,4149.721579552833,1
-8.412455217623297,-14.081422259625484,-14.376491862567814,-125.80448950036202,121.15533530400509,53.12019230769232,122.73067035791973,16.67676767676767,39.45631067961162,-8.392070484581481,-15.806866952789688,-18.443983402489618,-1.4941176470588218,-7.470588235294116,13.432692307692314,15.146674673285666,128.35495938778345,12.290123113272196,11.298997749354772,51.42080120751843,4149.721579552833,1
0.1645704703102311,-23.967809804334088,9.094394213381548,-127.0,115.39900307192951,46.09855769230768,113.63950959066642,16.67676767676767,39.45631067961162,-8.392070484581481,-15.806866952789688,-18.443983402489618,-1.4941176470588218,-7.470588235294116,13.432692307692314,15.146674673285666,128.35495938778345,11.075591496008622,292.53714405190243,53.35406800590521,4123.097097294422,1
0.1645704703102311,-23.967809804334088,9.094394213381548,-127.0,115.39900307192951,46.09855769230768,113.63950959066642,7.696969696969692,16.029126213592207,13.986784140969178,-17.9871244635193,10.012448132780092,15.439215686274512,5.4784313725490215,17.096153846153854,12.965781694100983,21.62303321441056,11.075591496008622,292.53714405190243,53.35406800590521,4123.097097294422,1
0.1645704703102311,-23.967809804334088,9.094394213381548,-127.0,115.39900307192951,46.09855769230768,113.63950959066642,10.262626262626258,19.7281553398058,57.62555066079297,-23.43776824034334,7.904564315352706,1.4941176470588253,-2.490196078431371,14.65384615384616,17.19960308728218,326.2278167505102,11.075591496008622,292.53714405190243,53.35406800590521,4123.097097294422,1
1.868358868816216,-33.9610772143909,29.832368896925857,-125.25271542360599,108.03796441198631,38.00841346153845,98.01878584140798,10.262626262626258,19.7281553398058,57.62555066079297,-23.43776824034334,7.904564315352706,1.4941176470588253,-2.490196078431371,14.65384615384616,17.19960308728218,326.2278167505102,21.88726832671099,1022.5563522750526,63.015387178307584,2909.3753284274408,1
1.868358868816216,-33.9610772143909,29.832368896925857,-125.25271542360599,108.03796441198631,38.00841346153845,98.01878584140798,26.939393939393934,34.52427184466016,16.224669603524244,-12.536480686695267,-24.767634854771778,10.458823529411767,11.454901960784316,24.42307692307693,20.1661566677898,76.45610531698692,21.88726832671099,1022.5563522750526,63.015387178307584,2909.3753284274408,1
1.868358868816216,-33.9610772143909,29.832368896925857,-125.25271542360599,108.03796441198631,38.00841346153845,98.01878584140798,12.828282828282823,18.495145631067935,-0.5594713656387515,-7.085836909871233,-31.091286307053934,17.43137254901961,-2.490196078431371,18.3173076923077,13.53736242020917,100.4745093662832,21.88726832671099,1022.5563522750526,63.015387178307584,2909.3753284274408,1
4.462763930177601,-42.05722701451713,45.724593128390595,-120.88450398262125,99.13110763345504,29.35857371794873,77.97805022740755,12.828282828282823,18.495145631067935,-0.5594713656387515,-7.085836909871233,-31.091286307053934,17.43137254901961,-2.490196078431371,18.3173076923077,13.53736242020917,100.4745093662832,30.74819469102844,1928.7160089797972,69.55544137517633,1979.3668946725475,1
4.462763930177601,-42.05722701451713,45.724593128390595,-120.88450398262125,99.13110763345504,29.35857371794873,77.97805022740755,8.979797979797976,7.398058252427159,22.938325991189444,10.356223175965678,3.6887966804979344,26.39607843137255,-14.44313725490196,10.990384615384622,13.148850297692167,60.77157535243774,30.74819469102844,1928.7160089797972,69.55544137517633,1979.3668946725475,1
4.462763930177601,-42.05722701451713,45.724593128390595,-120.88450398262125,99.13110763345504,29.35857371794873,77.97805022740755,10.262626262626258,23.42718446601939,0.5594713656387817,-19.07725321888411,-34.253112033195016,-25.4,12.450980392156865,17.096153846153854,17.815847698084283,106.41638682897211,30.74819469102844,1928.7160089797972,69.55544137517633,1979.3668946725475,1
5.082323347816143,-50.63433620871027,56.1509945750452,-114.35517740767557,88.97287428273343,22.031650641025635,55.12457979038953,10.262626262626258,23.42718446601939,0.5594713656387817,-19.07725321888411,-34.253112033195016,-25.4,12.450980392156865,17.096153846153854,17.815847698084283,106.41638682897211,37.289218043857204,2852.577033941459,73.713502730477,1246.417670308145,1
5.082323347816143,-50.63433620871027,56.1509945750452,-114.35517740767557,88.97287428273343,22.031650641025635,55.12457979038953,25.656565656565654,28.359223300970847,3.9162995594713816,-7.085836909871233,6.850622406639014,99.10980392156863,44.325490196078434,29.307692307692314,30.576441782357186,963.1536040247017,37.289218043857204,2852.577033941459,73.713502730477,1246.417670308145,1
5.082323347816143,-50.63433620871027,56.1509945750452,-114.35517740767557,88.97287428273343,22.031650641025635,55.12457979038953,8.979797979797976,34.52427184466016,17.343612334801776,2.7253218884120294,13.174273858921172,77.19607843137256,-86.16078431372549,-4.88461538461538,30.623594504538318,1094.0986144649473,37.289218043857204,2852.577033941459,73.713502730477,1246.417670308145,1
6.592499428310084,-61.72312223858614,64.51048824593128,-105.84866039102099,77.22465658146409,16.739983974359006,30.262013051216115,8.979797979797976,34.52427184466016,17.343612334801776,2.7253218884120294,13.174273858921172,77.19607843137256,-86.16078431372549,-4.88461538461538,30.623594504538318,1094.0986144649473,44.275369970942506,3992.740334728244,77.36075695851281,610.6128337996593,1
6.592499428310084,-61.72312223858614,64.51048824593128,-105.84866039102099,77.22465658146409,16.739983974359006,30.262013051216115,71.83838383838383,2.466019417475703,-15.10572687224668,-22.34763948497853,43.73858921161827,-52.294117647058826,-26.396078431372548,36.634615384615394,33.852646285968724,487.5726089007879,44.275369970942506,3992.740334728244,77.36075695851281,610.6128337996593,1
6.592499428310084,-61.72312223858614,64.51048824593128,-105.84866039102099,77.22465658146409,16.739983974359006,30.262013051216115,-2.565656565656571,20.961165048543663,16.224669603524244,10.356223175965678,18.443983402489636,-17.431372549019606,13.447058823529414,18.3173076923077,14.718429607629565,34.823908556186765,44.275369970942506,3992.740334728244,77.36075695851281,610.6128337996593,1
10.213049775135296,-76.4725436566379,73.5130198915009,-94.81317885590147,62.97368573581405,13.280048076923094,3.5410322325489574,-2.565656565656571,20.961165048543663,16.224669603524244,10.356223175965678,18.443983402489636,-17.431372549019606,13.447058823529414,18.3173076923077,14.718429607629565,34.823908556186765,53.399537774424694,5669.491266367373,81.59958080134676,133.13907538960174,1
10.213049775135296,-76.4725436566379,73.5130198915009,-94.81317885590147,62.97368573581405,13.280048076923094,3.5410322325489574,-82.1010101010101,22.194174757281527,6.154185022026447,1.6351931330472222,35.30705394190873,14.443137254901963,58.27058823529412,6.105769230769237,28.276388959529918,823.6008378447152,53.399537774424694,5669.491266367373,81.59958080134676,133.13907538960174,1
10.213049775135296,-76.4725436566379,73.5130198915009,-94.81317885590147,62.97368573581405,13.280048076923094,3.5410322325489574,19.24242424242424,8.631067961165023,-5.035242290748883,22.347639484978554,-1.5809128630705307,-79.18823529411765,51.29803921568627,-14.65384615384615,25.24717593825466,712.8110952067376,53.399537774424694,5669.491266367373,81.59958080134676,133.13907538960174,1
