Gyro 0,Gyro 1,Gyro 2,Orientation 0,Orientation 1,Orientation 2,Orientation 3,Sensor 0,Sensor 1,Sensor 2,Sensor 3,Sensor 4,Sensor 5,Sensor 6,Sensor 7,Sensor Mean,Sensor Variance,Gyro Mean,Gyro Variance,Orientation Mean,Orientation Variance,Label
-21.421984435797665,-13.18378257963913,-22.209388626032098,97.25469283276459,-123.07471611906203,125.23844121532366,-107.9940972222222,4.1639344262295,15.596491228070176,-31.044444444444448,11.94017094017093,10.409836065573762,-8.95850622406639,1.4941176470588253,9.03347280334728,11.580121722370166,80.93941253563695,18.938385213822965,24.991589947716324,44.21595467947861,2130.196199795797,1
-21.421984435797665,-13.18378257963913,-22.209388626032098,97.25469283276459,-123.07471611906203,125.23844121532366,-107.9940972222222,4.1639344262295,0.742690058479532,-33.30222222222223,15.196581196581185,28.10655737704917,-0.5269709543568464,-3.48627450980392,6.907949790794978,11.55414756693967,162.85822309835186,18.938385213822965,24.991589947716324,44.21595467947861,2130.196199795797,1
-21.421984435797665,-13.18378257963913,-22.209388626032098,97.25469283276459,-123.07471611906203,125.23844121532366,-107.9940972222222,8.327868852459009,20.05263157894737,-3.9511111111111155,11.94017094017093,-17.696721311475414,-18.44398340248963,1.4941176470588253,5.845188284518828,10.968974141028891,50.97804669388404,18.938385213822965,24.991589947716324,44.21595467947861,2130.196199795797,1
-21.249027237354085,-13.523279126754302,-21.384636793765655,97.09215017064855,-122.97231740912451,125.23844121532366,-108.12638888888887,8.327868852459009,20.05263157894737,-3.9511111111111155,11.94017094017093,-17.696721311475414,-18.44398340248963,1.4941176470588253,5.845188284518828,10.968974141028891,50.97804669388404,18.71898105262468,20.251086364817407,44.00002203038951,2129.5307889384344,1
-21.249027237354085,-13.523279126754302,-21.384636793765655,97.09215017064855,-122.97231740912451,125.23844121532366,-108.12638888888887,6.245901639344254,24.50877192982456,18.62666666666666,14.1111111111111,-15.614754098360663,-2.6348547717842328,-1.4941176470588218,11.158995815899582,11.799396710006235,64.21140504572689,18.71898105262468,20.251086364817407,44.00002203038951,2129.5307889384344,1
-21.076070038910505,-14.145689463132113,-20.9369143705353,96.98378839590453,-122.9040516024995,125.35028621752534,-108.30277777777775,6.245901639344254,24.50877192982456,18.62666666666666,14.1111111111111,-15.614754098360663,-2.6348547717842328,-1.4941176470588218,11.158995815899582,11.799396710006235,64.21140504572689,18.71955795752597,15.695045828016797,44.022130743190644,2115.2330699281833,1
-21.076070038910505,-14.145689463132113,-20.9369143705353,96.98378839590453,-122.9040516024995,125.35028621752534,-108.30277777777775,3.122950819672123,9.654970760233919,-20.884444444444448,16.28205128205127,-7.105427357601002e-15,-11.066390041493776,1.4941176470588253,9.03347280334728,8.942299724787706,52.97424399236151,18.71955795752597,15.695045828016797,44.022130743190644,2115.2330699281833,1
-21.076070038910505,-14.145689463132113,-20.9369143705353,96.98378839590453,-122.9040516024995,125.35028621752534,-108.30277777777775,4.1639344262295,18.567251461988306,12.982222222222216,7.598290598290588,-23.94262295081968,-12.120331950207468,1.4941176470588253,2.6569037656903767,10.44070937781337,63.67559394541809,18.71955795752597,15.695045828016797,44.022130743190644,2115.2330699281833,1
-20.606614785992218,-14.25885497883717,-20.583449299563966,97.20051194539258,-122.93818450581199,125.54601497137827,-108.47916666666663,4.1639344262295,18.567251461988306,12.982222222222216,7.598290598290588,-23.94262295081968,-12.120331950207468,1.4941176470588253,2.6569037656903767,10.44070937781337,63.67559394541809,18.48297302146445,13.382514088477361,44.014272074597905,2131.582207025724,1
-20.606614785992218,-14.25885497883717,-20.583449299563966,97.20051194539258,-122.93818450581199,125.54601497137827,-108.47916666666663,7.286885245901631,8.169590643274855,-3.9511111111111155,21.709401709401696,-13.532786885245908,-3.6887966804979255,0.4980392156862763,9.03347280334728,8.483760536808337,44.22171178165753,18.48297302146445,13.382514088477361,44.014272074597905,2131.582207025724,1
-20.606614785992218,-14.25885497883717,-20.583449299563966,97.20051194539258,-122.93818450581199,125.54601497137827,-108.47916666666663,7.286885245901631,28.964912280701757,-40.07555555555556,-8.881784197001252e-15,-5.2049180327868925,-18.44398340248963,-1.4941176470588218,12.221757322175732,14.211516185833755,200.17898425216285,18.48297302146445,13.382514088477361,44.014272074597905,2131.582207025724,1
-19.544163424124513,-14.032523947427057,-20.489191947304946,97.6881399317407,-123.0405832157495,125.57397622192869,-108.69965277777777,7.286885245901631,28.964912280701757,-40.07555555555556,-8.881784197001252e-15,-5.2049180327868925,-18.44398340248963,-1.4941176470588218,12.221757322175732,14.211516185833755,200.17898425216285,18.021959772952172,12.159968381893586,44.06995194215756,2166.604702879869,1
-19.544163424124513,-14.032523947427057,-20.489191947304946,97.6881399317407,-123.0405832157495,125.57397622192869,-108.69965277777777,5.2049180327868765,40.84795321637427,-3.9511111111111155,-3.256410256410266,-10.409836065573778,-11.066390041493776,0.4980392156862763,9.03347280334728,10.533516342847955,163.84336535956297,18.021959772952172,12.159968381893586,44.06995194215756,2166.604702879869,1
-19.544163424124513,-14.032523947427057,-20.489191947304946,97.6881399317407,-123.0405832157495,125.57397622192869,-108.69965277777777,5.2049180327868765,15.596491228070176,9.595555555555551,5.427350427350417,-11.450819672131153,-2.6348547717842328,-1.4941176470588218,10.09623430962343,7.6875427055450825,23.045156035686905,18.021959772952172,12.159968381893586,44.06995194215756,2166.604702879869,1
-20.384241245136188,-13.438404989975508,-20.017905186009834,97.95904436860076,-123.05764966740577,125.62989872302953,-109.05243055555553,5.2049180327868765,15.596491228070176,9.595555555555551,5.427350427350417,-11.450819672131153,-2.6348547717842328,-1.4941176470588218,10.09623430962343,7.6875427055450825,23.045156035686905,17.946850473707176,15.278111036889417,43.805118181528705,2210.308246813541,1
-20.384241245136188,-13.438404989975508,-20.017905186009834,97.95904436860076,-123.05764966740577,125.62989872302953,-109.05243055555553,5.2049180327868765,6.684210526315791,-32.17333333333333,13.025641025641015,-24.983606557377055,-4.742738589211619,2.4901960784313744,7.970711297071129,12.159419430021025,115.73659686044309,17.946850473707176,15.278111036889417,43.805118181528705,2210.308246813541,1
-20.384241245136188,-13.438404989975508,-20.017905186009834,97.95904436860076,-123.05764966740577,125.62989872302953,-109.05243055555553,12.491803278688515,42.333333333333336,22.01333333333333,8.683760683760674,5.204918032786878,-4.742738589211619,-4.482352941176469,10.09623430962343,13.756059312739282,166.5610911392493,17.946850473707176,15.278111036889417,43.805118181528705,2210.308246813541,1
-21.990272373540858,-13.862775673869471,-20.20641989052788,97.85068259385673,-122.92111805415576,125.93747247908412,-109.40520833333335,12.491803278688515,42.333333333333336,22.01333333333333,8.683760683760674,5.204918032786878,-4.742738589211619,-4.482352941176469,10.09623430962343,13.756059312739282,166.5610911392493,18.68648931264607,18.24669237197742,43.973292719418026,2187.1403102485883,1
-21.990272373540858,-13.862775673869471,-20.20641989052788,97.85068259385673,-122.92111805415576,125.93747247908412,-109.40520833333335,5.2049180327868765,27.47953216374269,-23.142222222222227,4.341880341880332,29.147540983606547,-32.14522821576764,4.482352941176472,10.09623430962343,17.00498865135078,146.88477132149575,18.68648931264607,18.24669237197742,43.973292719418026,2187.1403102485883,1
-21.990272373540858,-13.862775673869471,-20.20641989052788,97.85068259385673,-122.92111805415576,125.93747247908412,-109.40520833333335,7.286885245901631,20.05263157894737,-9.59555555555556,8.683760683760674,5.204918032786878,-10.012448132780083,-0.49803921568627274,6.907949790794978,8.530273529526681,30.838955237759365,18.68648931264607,18.24669237197742,43.973292719418026,2187.1403102485883,1
-20.53249027237354,-13.551570505680566,-20.583449299563966,98.1215870307168,-122.9040516024995,126.16116248348746,-109.89027777777778,7.286885245901631,20.05263157894737,-9.59555555555556,8.683760683760674,5.204918032786878,-10.012448132780083,-0.49803921568627274,6.907949790794978,8.530273529526681,30.838955237759365,18.222503359206026,16.36385949722066,44.085535611987105,2202.282969538666,1
-20.53249027237354,-13.551570505680566,-20.583449299563966,98.1215870307168,-122.9040516024995,126.16116248348746,-109.89027777777778,8.327868852459009,24.50877192982456,1.693333333333329,19.538461538461526,4.163934426229501,-7.904564315352697,-2.490196078431371,7.970711297071129,9.57473022139539,67.25746995877034,18.222503359206026,16.36385949722066,44.085535611987105,2202.282969538666,1
-20.53249027237354,-13.551570505680566,-20.583449299563966,98.1215870307168,-122.9040516024995,126.16116248348746,-109.89027777777778,4.1639344262295,6.684210526315791,9.595555555555551,36.905982905982896,8.327868852459009,8.95850622406639,1.4941176470588253,7.970711297071129,10.512610929342387,121.0566045776537,18.222503359206026,16.36385949722066,44.085535611987105,2202.282969538666,1
-18.852334630350196,-14.032523947427057,-21.10186473698859,98.82593856655296,-123.07471611906203,126.18912373403788,-110.11076388888887,4.1639344262295,6.684210526315791,9.595555555555551,36.905982905982896,8.327868852459009,8.95850622406639,1.4941176470588253,7.970711297071129,10.512610929342387,121.0566045776537,17.99557443825528,13.044423319808502,44.65344241698953,2213.4883991055876,1
-18.852334630350196,-14.032523947427057,-21.10186473698859,98.82593856655296,-123.07471611906203,126.18912373403788,-110.11076388888887,1.0409836065573685,31.935672514619885,7.337777777777774,23.880341880341867,-28.106557377049185,-0.5269709543568464,2.4901960784313744,7.970711297071129,12.911151435775679,167.35592382205076,17.99557443825528,13.044423319808502,44.65344241698953,2213.4883991055876,1
-18.852334630350196,-14.032523947427057,-21.10186473698859,98.82593856655296,-123.07471611906203,126.18912373403788,-110.11076388888887,3.122950819672123,28.964912280701757,29.91555555555555,2.1709401709401615,17.6967213114754,5.796680497925312,-1.4941176470588218,4.7824267782426775,11.743038132696476,145.29432819857468,17.99557443825528,13.044423319808502,44.65344241698953,2213.4883991055876,1
-19.247665369649805,-13.38182223212298,-21.19612208924761,99.4219283276451,-123.27951353893704,126.02135623073538,-110.15486111111107,3.122950819672123,28.964912280701757,29.91555555555555,2.1709401709401615,17.6967213114754,5.796680497925312,-1.4941176470588218,4.7824267782426775,11.743038132696476,145.29432819857468,17.9418698970068,16.54464692654573,44.66662421633856,2263.873316805512,1
-19.247665369649805,-13.38182223212298,-21.19612208924761,99.4219283276451,-123.27951353893704,126.02135623073538,-110.15486111111107,4.1639344262295,6.684210526315791,-33.30222222222223,-1.0854700854700958,-37.47540983606558,-20.551867219917014,-4.482352941176469,9.03347280334728,14.597367507592995,199.4355532401696,17.9418698970068,16.54464692654573,44.66662421633856,2263.873316805512,1
-19.247665369649805,-13.38182223212298,-21.19612208924761,99.4219283276451,-123.27951353893704,126.02135623073538,-110.15486111111107,4.1639344262295,20.05263157894737,-18.626666666666672,13.025641025641015,-18.737704918032794,-8.95850622406639,-2.490196078431371,9.03347280334728,11.8860942151703,46.42766565877542,17.9418698970068,16.54464692654573,44.66662421633856,2263.873316805512,1
-21.767898832684825,-13.070617063934074,-21.054736060859078,99.25938566552907,-123.16004837734329,126.0493174812858,-110.41944444444442,4.1639344262295,20.05263157894737,-18.626666666666672,13.025641025641015,-18.737704918032794,-8.95850622406639,-2.490196078431371,9.03347280334728,11.8860942151703,46.42766565877542,18.631083985825992,23.316244576870183,44.46157959677407,2268.036201500926,1
-21.767898832684825,-13.070617063934074,-21.054736060859078,99.25938566552907,-123.16004837734329,126.0493174812858,-110.41944444444442,11.45081967213114,45.30409356725146,-10.724444444444448,-4.341880341880351,-6.24590163934427,7.904564315352697,1.4941176470588253,7.970711297071129,11.929566615566792,192.3127674293683,18.631083985825992,23.316244576870183,44.46157959677407,2268.036201500926,1
-21.767898832684825,-13.070617063934074,-21.054736060859078,99.25938566552907,-123.16004837734329,126.0493174812858,-110.41944444444442,3.122950819672123,5.198830409356727,-44.59111111111111,-2.170940170940181,-6.24590163934427,-3.6887966804979255,2.4901960784313744,6.907949790794978,9.302084587518586,206.3099949241986,18.631083985825992,23.316244576870183,44.46157959677407,2268.036201500926,1
-20.53249027237354,-13.070617063934074,-20.913350032470543,99.36774744027309,-123.09178257071827,126.10523998238662,-110.90451388888886,3.122950819672123,5.198830409356727,-44.59111111111111,-2.170940170940181,-6.24590163934427,-3.6887966804979255,2.4901960784313744,6.907949790794978,9.302084587518586,206.3099949241986,18.172152456259386,19.555511058576116,44.450571512225906,2277.2992740380064,1
-20.53249027237354,-13.070617063934074,-20.913350032470543,99.36774744027309,-123.09178257071827,126.10523998238662,-110.90451388888886,8.327868852459009,9.654970760233919,-19.75555555555556,10.854700854700845,-8.327868852459023,-10.012448132780083,1.4941176470588253,7.970711297071129,9.549780244039798,25.20844109180999,18.172152456259386,19.555511058576116,44.450571512225906,2277.2992740380064,1
-20.53249027237354,-13.070617063934074,-20.913350032470543,99.36774744027309,-123.09178257071827,126.10523998238662,-110.90451388888886,4.1639344262295,0.742690058479532,-55.88,6.512820512820503,-26.024590163934434,-15.282157676348548,0.4980392156862763,11.158995815899582,15.032903483674797,344.3672199129175,18.172152456259386,19.555511058576116,44.450571512225906,2277.2992740380064,1
-17.86400778210117,-13.24036533749166,-21.172557751182854,100.18046075085329,-123.31364644224954,125.85358872743286,-111.125,4.1639344262295,0.742690058479532,-55.88,6.512820512820503,-26.024590163934434,-15.282157676348548,0.4980392156862763,11.158995815899582,15.032903483674797,344.3672199129175,17.425643623591895,15.87404147355419,44.8644612798426,2310.624767229596,1
-17.86400778210117,-13.24036533749166,-21.172557751182854,100.18046075085329,-123.31364644224954,125.85358872743286,-111.125,-7.993605777301127e-15,5.198830409356727,26.528888888888886,19.538461538461526,3.1229508196721234,-5.796680497925312,-2.490196078431371,7.970711297071129,8.830839941225886,85.96843310874462,17.425643623591895,15.87404147355419,44.8644612798426,2310.624767229596,1
-17.86400778210117,-13.24036533749166,-21.172557751182854,100.18046075085329,-123.31364644224954,125.85358872743286,-111.125,5.2049180327868765,9.654970760233919,-29.91555555555556,18.45299145299144,-7.286885245901646,-14.228215767634856,-1.4941176470588218,9.03347280334728,11.908890908188798,80.0809096449933,17.425643623591895,15.87404147355419,44.8644612798426,2310.624767229596,1
-18.629961089494163,-13.410113611049244,-21.502458484089434,100.6680887372014,-123.50137741046831,125.49009247027743,-111.03680555555553,5.2049180327868765,9.654970760233919,-29.91555555555556,18.45299145299144,-7.286885245901646,-14.228215767634856,-1.4941176470588218,9.03347280334728,11.908890908188798,80.0809096449933,17.84751106154428,16.830682420734043,45.19355361078002,2324.439547005474,1
-18.629961089494163,-13.410113611049244,-21.502458484089434,100.6680887372014,-123.50137741046831,125.49009247027743,-111.03680555555553,6.245901639344254,6.684210526315791,-43.46222222222222,16.28205128205127,-5.2049180327868925,15.282157676348547,2.4901960784313744,7.970711297071129,12.952796094321435,175.13276126688586,17.84751106154428,16.830682420734043,45.19355361078002,2324.439547005474,1
-18.629961089494163,-13.410113611049244,-21.502458484089434,100.6680887372014,-123.50137741046831,125.49009247027743,-111.03680555555553,5.2049180327868765,42.333333333333336,38.94666666666666,23.880341880341867,-7.286885245901646,-11.066390041493776,-0.49803921568627274,6.907949790794978,17.015565525875676,259.0873703989374,17.84751106154428,16.830682420734043,45.19355361078002,2324.439547005474,1
-20.754863813229573,-13.296948095344188,-21.384636793765655,100.77645051194543,-123.53551031378083,125.35028621752534,-111.03680555555553,5.2049180327868765,42.333333333333336,38.94666666666666,23.880341880341867,-7.286885245901646,-11.066390041493776,-0.49803921568627274,6.907949790794978,17.015565525875676,259.0873703989374,18.47881623411314,20.237971557444915,45.152678467018426,2336.8556895001457,1
-20.754863813229573,-13.296948095344188,-21.384636793765655,100.77645051194543,-123.53551031378083,125.35028621752534,-111.03680555555553,7.286885245901631,23.023391812865498,-7.337777777777782,3.2564102564102466,-5.2049180327868925,-0.5269709543568464,3.4862745098039234,7.970711297071129,7.261667485871744,46.97473698293732,18.47881623411314,20.237971557444915,45.152678467018426,2336.8556895001457,1
-20.754863813229573,-13.296948095344188,-21.384636793765655,100.77645051194543,-123.53551031378083,125.35028621752534,-111.03680555555553,4.1639344262295,9.654970760233919,-54.751111111111115,11.94017094017093,8.327868852459009,-10.012448132780083,-3.48627450980392,7.970711297071129,13.788436253732451,282.16139020814796,18.47881623411314,20.237971557444915,45.152678467018426,2336.8556895001457,1
-21.150194552529182,-13.212073958565394,-21.078300398923833,100.6680887372014,-123.46724450715581,125.35028621752534,-111.30138888888888,4.1639344262295,9.654970760233919,-54.751111111111115,11.94017094017093,8.327868852459009,-10.012448132780083,-3.48627450980392,7.970711297071129,13.788436253732451,282.16139020814796,18.480189636672804,20.81607429077147,44.98615436489688,2340.8277411839695,1
-21.150194552529182,-13.212073958565394,-21.078300398923833,100.6680887372014,-123.46724450715581,125.35028621752534,-111.30138888888888,3.122950819672123,11.140350877192983,-49.10666666666667,-11.940170940170947,-18.737704918032794,-10.012448132780083,-3.48627450980392,7.970711297071129,14.439659770173831,220.9856414570735,18.480189636672804,20.81607429077147,44.98615436489688,2340.8277411839695,1
-21.150194552529182,-13.212073958565394,-21.078300398923833,100.6680887372014,-123.46724450715581,125.35028621752534,-111.30138888888888,3.122950819672123,23.023391812865498,-16.368888888888893,7.598290598290588,13.532786885245894,-3.6887966804979255,-3.48627450980392,9.03347280334728,9.981856624826516,51.27221787328423,18.480189636672804,20.81607429077147,44.98615436489688,2340.8277411839695,1
-21.00194552529183,-13.862775673869471,-21.031171722794323,100.61390784982939,-123.41604515218705,125.37824746807576,-111.38958333333335,3.122950819672123,23.023391812865498,-16.368888888888893,7.598290598290588,13.532786885245894,-3.6887966804979255,-3.48627450980392,9.03347280334728,9.981856624826516,51.27221787328423,18.63196430731854,17.05908370871997,45.169285082164386,2318.426120865067,1
-21.00194552529183,-13.862775673869471,-21.031171722794323,100.61390784982939,-123.41604515218705,125.37824746807576,-111.38958333333335,2.081967213114746,-2.228070175438596,-22.013333333333335,16.28205128205127,-3.1229508196721385,-5.796680497925312,-0.49803921568627274,5.845188284518828,7.233535102717562,59.738182525704914,18.63196430731854,17.05908370871997,45.169285082164386,2318.426120865067,1
-21.00194552529183,-13.862775673869471,-21.031171722794323,100.61390784982939,-123.41604515218705,125.37824746807576,-111.38958333333335,9.368852459016384,49.760233918128655,60.395555555555546,13.025641025641015,-28.106557377049185,-3.6887966804979255,5.4784313725490215,10.09623430962343,22.490037837257645,467.18075166949575,18.63196430731854,17.05908370871997,45.169285082164386,2318.426120865067,1
-21.026653696498055,-13.862775673869471,-20.654142313758232,100.61390784982939,-123.3648457972183,125.49009247027743,-111.61006944444443,9.368852459016384,49.760233918128655,60.395555555555546,13.025641025641015,-28.106557377049185,-3.6887966804979255,5.4784313725490215,10.09623430962343,22.490037837257645,467.18075166949575,18.514523894708585,16.263762315127586,45.04360861248569,2327.5742832052892,1
-21.026653696498055,-13.862775673869471,-20.654142313758232,100.61390784982939,-123.3648457972183,125.49009247027743,-111.61006944444443,6.245901639344254,43.8187134502924,17.497777777777774,5.427350427350417,-28.106557377049185,-16.336099585062243,-5.478431372549018,6.907949790794978,16.227347677527533,188.95492746119862,18.514523894708585,16.263762315127586,45.04360861248569,2327.5742832052892,1
-21.026653696498055,-13.862775673869471,-20.654142313758232,100.61390784982939,-123.3648457972183,125.49009247027743,-111.61006944444443,5.2049180327868765,5.198830409356727,-1.6933333333333378,20.62393162393161,21.86065573770491,3.6887966804979246,2.4901960784313744,6.907949790794978,8.458576460854719,65.05273626576354,18.514523894708585,16.263762315127586,45.04360861248569,2327.5742832052892,1
-20.433657587548637,-13.38182223212298,-20.677706651822987,100.83063139931744,-123.38191224887456,125.49009247027743,-111.87465277777778,5.2049180327868765,5.198830409356727,-1.6933333333333378,20.62393162393161,21.86065573770491,3.6887966804979246,2.4901960784313744,6.907949790794978,8.458576460854719,65.05273626576354,18.1643954904982,17.169645215237633,44.963386761087804,2354.1692499672545,1
-20.433657587548637,-13.38182223212298,-20.677706651822987,100.83063139931744,-123.38191224887456,125.49009247027743,-111.87465277777778,7.286885245901631,21.538011695906434,18.62666666666666,17.367521367521356,23.94262295081966,-13.174273858921163,-3.48627450980392,6.907949790794978,14.041275760791976,56.427617111764526,18.1643954904982,17.169645215237633,44.963386761087804,2354.1692499672545,1
-20.433657587548637,-13.38182223212298,-20.677706651822987,100.83063139931744,-123.38191224887456,125.49009247027743,-111.87465277777778,4.1639344262295,-5.198830409356724,-33.30222222222223,10.854700854700845,-8.327868852459023,-12.120331950207468,-3.48627450980392,7.970711297071129,10.678109315256355,92.99925278170475,18.1643954904982,17.169645215237633,44.963386761087804,2354.1692499672545,1
-20.063035019455253,-13.523279126754302,-21.690973188607476,101.04735494880549,-123.45017805549958,125.35028621752534,-111.87465277777778,4.1639344262295,-5.198830409356724,-33.30222222222223,10.854700854700845,-8.327868852459023,-12.120331950207468,-3.48627450980392,7.970711297071129,10.678109315256355,92.99925278170475,18.42576244493901,18.688302684455188,45.42053575472243,2337.435066810414,1
-20.063035019455253,-13.523279126754302,-21.690973188607476,101.04735494880549,-123.45017805549958,125.35028621752534,-111.87465277777778,4.1639344262295,27.47953216374269,-19.75555555555556,15.196581196581185,-11.450819672131153,-10.012448132780083,1.4941176470588253,9.03347280334728,12.323307699678285,70.56802844811132,18.42576244493901,18.688302684455188,45.42053575472243,2337.435066810414,1
-20.063035019455253,-13.523279126754302,-21.690973188607476,101.04735494880549,-123.45017805549958,125.35028621752534,-111.87465277777778,7.286885245901631,57.18713450292398,70.55555555555554,23.880341880341867,1.0409836065573694,-2.6348547717842328,2.4901960784313744,9.03347280334728,21.76367805560541,739.7705073126562,18.42576244493901,18.688302684455188,45.42053575472243,2337.435066810414,1
-21.125486381322958,-13.834484294943207,-21.855923555060766,100.88481228668945,-123.43311160384332,125.23844121532366,-111.6982638888889,7.286885245901631,57.18713450292398,70.55555555555554,23.880341880341867,1.0409836065573694,-2.6348547717842328,2.4901960784313744,9.03347280334728,21.76367805560541,739.7705073126562,18.938631410442312,19.672622948687877,45.52507337889781,2314.6113909050837,1
-21.125486381322958,-13.834484294943207,-21.855923555060766,100.88481228668945,-123.43311160384332,125.23844121532366,-111.6982638888889,9.368852459016384,27.47953216374269,25.399999999999995,9.76923076923076,-29.147540983606564,-7.904564315352697,1.4941176470588253,12.221757322175732,15.348199457522956,108.94645192116968,18.938631410442312,19.672622948687877,45.52507337889781,2314.6113909050837,1
-21.125486381322958,-13.834484294943207,-21.855923555060766,100.88481228668945,-123.43311160384332,125.23844121532366,-111.6982638888889,6.245901639344254,6.684210526315791,-42.333333333333336,-8.881784197001252e-15,-17.696721311475414,-10.012448132780083,1.4941176470588253,9.03347280334728,11.687525674206874,182.89629984247625,18.938631410442312,19.672622948687877,45.52507337889781,2314.6113909050837,1
-21.150194552529182,-13.693027400311886,-21.596715836348455,100.77645051194543,-123.41604515218705,125.18251871422282,-111.65416666666664,6.245901639344254,6.684210526315791,-42.333333333333336,-8.881784197001252e-15,-17.696721311475414,-10.012448132780083,1.4941176470588253,9.03347280334728,11.687525674206874,182.89629984247625,18.81331259639651,19.712835681158406,45.35539791620192,2319.2368758386106,1
-21.150194552529182,-13.693027400311886,-21.596715836348455,100.77645051194543,-123.41604515218705,125.18251871422282,-111.65416666666664,3.122950819672123,14.111111111111112,7.337777777777774,15.196581196581185,-1.0409836065573845,-10.012448132780083,-0.49803921568627274,7.970711297071129,7.411325394654633,31.335204953039796,18.81331259639651,19.712835681158406,45.35539791620192,2319.2368758386106,1
-21.150194552529182,-13.693027400311886,-21.596715836348455,100.77645051194543,-123.41604515218705,125.18251871422282,-111.65416666666664,8.327868852459009,54.21637426900585,-9.59555555555556,-6.512820512820522,5.204918032786878,-10.012448132780083,0.4980392156862763,6.907949790794978,12.659496795236144,290.92362654229123,18.81331259639651,19.712835681158406,45.35539791620192,2319.2368758386106,1
-22.336186770428014,-13.77790153709068,-21.078300398923833,100.34300341296932,-123.24538063562454,125.32232496697492,-111.78645833333331,8.327868852459009,54.21637426900585,-9.59555555555556,-6.512820512820522,5.204918032786878,-10.012448132780083,0.4980392156862763,6.907949790794978,12.659496795236144,290.92362654229123,19.064129568814177,21.35372463343844,45.06640178299461,2304.950971704656,1
-22.336186770428014,-13.77790153709068,-21.078300398923833,100.34300341296932,-123.24538063562454,125.32232496697492,-111.78645833333331,4.1639344262295,9.654970760233919,-5.0800000000000045,15.196581196581185,-14.573770491803286,-18.44398340248963,-4.482352941176469,4.7824267782426775,9.547252499594585,33.37677884295299,19.064129568814177,21.35372463343844,45.06640178299461,2304.950971704656,1
-22.336186770428014,-13.77790153709068,-21.078300398923833,100.34300341296932,-123.24538063562454,125.32232496697492,-111.78645833333331,3.122950819672123,-2.228070175438596,-17.49777777777778,19.538461538461526,-3.1229508196721385,-16.336099585062243,-4.482352941176469,7.970711297071129,9.2874218692915,53.26226901419202,19.064129568814177,21.35372463343844,45.06640178299461,2304.950971704656,1
-20.507782101167315,-14.145689463132113,-20.913350032470543,100.55972696245738,-123.27951353893704,125.4341699691766,-111.91874999999999,3.122950819672123,-2.228070175438596,-17.49777777777778,19.538461538461526,-3.1229508196721385,-16.336099585062243,-4.482352941176469,7.970711297071129,9.2874218692915,53.26226901419202,18.52227386558999,14.406989610603576,45.20625548602001,2309.4554107650183,1
-20.507782101167315,-14.145689463132113,-20.913350032470543,100.55972696245738,-123.27951353893704,125.4341699691766,-111.91874999999999,5.2049180327868765,17.081871345029242,-11.853333333333337,1.0854700854700763,-2.0819672131147615,3.6887966804979246,2.4901960784313744,9.03347280334728,6.56500319650136,31.644805265360795,18.52227386558999,14.406989610603576,45.20625548602001,2309.4554107650183,1
-20.507782101167315,-14.145689463132113,-20.913350032470543,100.55972696245738,-123.27951353893704,125.4341699691766,-111.91874999999999,4.1639344262295,15.596491228070176,-29.91555555555556,10.854700854700845,-10.409836065573778,-15.282157676348548,-1.4941176470588218,6.907949790794978,11.828092905541528,77.99783101872937,18.52227386558999,14.406989610603576,45.20625548602001,2309.4554107650183,1
-19.593579766536966,-14.25885497883717,-21.478894146024675,100.88481228668945,-123.41604515218705,125.32232496697492,-111.78645833333331,4.1639344262295,15.596491228070176,-29.91555555555556,10.854700854700845,-10.409836065573778,-15.282157676348548,-1.4941176470588218,6.907949790794978,11.828092905541528,77.99783101872937,18.44377629713294,14.023777407620564,45.54085380385044,2310.2475468065873,1
-19.593579766536966,-14.25885497883717,-21.478894146024675,100.88481228668945,-123.41604515218705,125.32232496697492,-111.78645833333331,10.409836065573762,23.023391812865498,-1.6933333333333378,3.2564102564102466,-16.65573770491804,-6.850622406639005,1.4941176470588253,10.09623430962343,9.184960442052768,57.930831010217595,18.44377629713294,14.023777407620564,45.54085380385044,2310.2475468065873,1
-19.593579766536966,-14.25885497883717,-21.478894146024675,100.88481228668945,-123.41604515218705,125.32232496697492,-111.78645833333331,7.286885245901631,14.111111111111112,-5.0800000000000045,10.854700854700845,-4.163934426229515,-12.120331950207468,-0.49803921568627274,10.09623430962343,8.026404639182534,20.98435705018804,18.44377629713294,14.023777407620564,45.54085380385044,2310.2475468065873,1
-20.433657587548637,-14.173980842058377,-21.690973188607476,100.88481228668945,-123.43311160384332,125.2943637164245,-111.74236111111111,7.286885245901631,14.111111111111112,-5.0800000000000045,10.854700854700845,-4.163934426229515,-12.120331950207468,-0.49803921568627274,10.09623430962343,8.026404639182534,20.98435705018804,18.766203872738163,16.21159490279587,45.58325543911843,2307.822935808366,1
-20.433657587548637,-14.173980842058377,-21.690973188607476,100.88481228668945,-123.43311160384332,125.2943637164245,-111.74236111111111,6.245901639344254,28.964912280701757,-5.0800000000000045,17.367521367521356,-2.0819672131147615,-7.904564315352697,0.4980392156862763,6.907949790794978,9.38135697781451,88.01718529592107,18.766203872738163,16.21159490279587,45.58325543911843,2307.822935808366,1
-20.433657587548637,-14.173980842058377,-21.690973188607476,100.88481228668945,-123.43311160384332,125.2943637164245,-111.74236111111111,4.1639344262295,17.081871345029242,-17.49777777777778,18.45299145299144,-12.491803278688531,-4.742738589211619,2.4901960784313744,6.907949790794978,10.478657842394309,44.26502902217078,18.766203872738163,16.21159490279587,45.58325543911843,2307.822935808366,1
-21.57023346303502,-13.97594118957453,-21.337508117636144,100.77645051194543,-123.38191224887456,125.40620871862617,-111.78645833333331,4.1639344262295,17.081871345029242,-17.49777777777778,18.45299145299144,-12.491803278688531,-4.742738589211619,2.4901960784313744,6.907949790794978,10.478657842394309,44.26502902217078,18.9612275900819,18.653350642910542,45.3632999397187,2316.511109164286,1
-21.57023346303502,-13.97594118957453,-21.337508117636144,100.77645051194543,-123.38191224887456,125.40620871862617,-111.78645833333331,6.245901639344254,14.111111111111112,19.75555555555555,6.512820512820503,19.778688524590155,-12.120331950207468,-1.4941176470588218,5.845188284518828,10.732964403150838,46.251275906517584,18.9612275900819,18.653350642910542,45.3632999397187,2316.511109164286,1
-21.57023346303502,-13.97594118957453,-21.337508117636144,100.77645051194543,-123.38191224887456,125.40620871862617,-111.78645833333331,4.1639344262295,6.684210526315791,8.466666666666661,11.94017094017093,-14.573770491803286,-6.850622406639005,0.4980392156862763,7.970711297071129,7.643515746322823,18.85551120349094,18.9612275900819,18.653350642910542,45.3632999397187,2316.511109164286,1
-20.977237354085602,-13.891067052795735,-21.26681510344188,100.72226962457341,-123.38191224887456,125.37824746807576,-111.78645833333331,4.1639344262295,6.684210526315791,8.466666666666661,11.94017094017093,-14.573770491803286,-6.850622406639005,0.4980392156862763,7.970711297071129,7.643515746322823,18.85551120349094,18.71170650344107,17.44988735306919,45.293383926937004,2317.871442087884,1
-20.977237354085602,-13.891067052795735,-21.26681510344188,100.72226962457341,-123.38191224887456,125.37824746807576,-111.78645833333331,5.2049180327868765,18.567251461988306,-19.75555555555556,17.367521367521356,-1.0409836065573845,7.904564315352697,0.4980392156862763,10.09623430962343,10.054383483133986,60.10993267331387,18.71170650344107,17.44988735306919,45.293383926937004,2317.871442087884,1
-20.977237354085602,-13.891067052795735,-21.26681510344188,100.72226962457341,-123.38191224887456,125.37824746807576,-111.78645833333331,7.286885245901631,36.39181286549707,-6.208888888888893,14.1111111111111,-10.409836065573778,-12.120331950207468,-0.49803921568627274,11.158995815899582,12.273237644845725,112.8737091612984,18.71170650344107,17.44988735306919,45.293383926937004,2317.871442087884,1
-19.05,-14.683225662731134,-21.40820113183041,101.20989761092153,-123.51844386212457,125.4341699691766,-111.83055555555552,7.286885245901631,36.39181286549707,-6.208888888888893,14.1111111111111,-10.409836065573778,-12.120331950207468,-0.49803921568627274,11.158995815899582,12.273237644845725,112.8737091612984,18.380475598187182,11.642520958463866,45.76710813516102,2316.7335024051217,1
-19.05,-14.683225662731134,-21.40820113183041,101.20989761092153,-123.51844386212457,125.4341699691766,-111.83055555555552,4.1639344262295,18.567251461988306,-19.75555555555556,18.45299145299144,7.286885245901631,-8.95850622406639,-1.4941176470588218,6.907949790794978,10.69839897557333,51.50511553086399,18.380475598187182,11.642520958463866,45.76710813516102,2316.7335024051217,1
-19.05,-14.683225662731134,-21.40820113183041,101.20989761092153,-123.51844386212457,125.4341699691766,-111.83055555555552,5.2049180327868765,15.596491228070176,-9.59555555555556,9.76923076923076,-39.55737704918033,-27.929460580912863,-3.48627450980392,6.907949790794978,14.755907189541933,160.09637404688186,18.380475598187182,11.642520958463866,45.76710813516102,2316.7335024051217,1
-18.48171206225681,-15.13588772555136,-21.738101864736986,101.80588737201367,-123.7915070886246,125.32232496697492,-111.47777777777776,5.2049180327868765,15.596491228070176,-9.59555555555556,9.76923076923076,-39.55737704918033,-27.929460580912863,-3.48627450980392,6.907949790794978,14.755907189541933,160.09637404688186,18.45190055084839,10.897974429574992,46.22662565410067,2327.688057716118,1
-18.48171206225681,-15.13588772555136,-21.738101864736986,101.80588737201367,-123.7915070886246,125.32232496697492,-111.47777777777776,5.2049180327868765,12.625730994152049,1.693333333333329,8.683760683760674,-10.409836065573778,-15.282157676348548,-1.4941176470588218,10.09623430962343,8.186261092829687,24.961675964354203,18.45190055084839,10.897974429574992,46.22662565410067,2327.688057716118,1
-18.48171206225681,-15.13588772555136,-21.738101864736986,101.80588737201367,-123.7915070886246,125.32232496697492,-111.47777777777776,6.245901639344254,14.111111111111112,-8.46666666666667,14.1111111111111,7.286885245901631,6.850622406639005,2.4901960784313744,6.907949790794978,8.308805506250016,15.800460650570342,18.45190055084839,10.897974429574992,46.22662565410067,2327.688057716118,1
-20.53249027237354,-14.65493428380487,-22.04443825957881,101.96843003412971,-123.94510515353087,125.23844121532366,-111.03680555555553,6.245901639344254,14.111111111111112,-8.46666666666667,14.1111111111111,7.286885245901631,6.850622406639005,2.4901960784313744,6.907949790794978,8.308805506250016,15.800460650570342,19.07728760525241,15.239403353792067,46.22260085917113,2344.349295054742,1
-20.53249027237354,-14.65493428380487,-22.04443825957881,101.96843003412971,-123.94510515353087,125.23844121532366,-111.03680555555553,5.2049180327868765,15.596491228070176,-17.49777777777778,-1.0854700854700958,-7.286885245901646,-8.95850622406639,-0.49803921568627274,9.03347280334728,8.145195076638316,37.44910920472167,19.07728760525241,15.239403353792067,46.22260085917113,2344.349295054742,1
-20.53249027237354,-14.65493428380487,-22.04443825957881,101.96843003412971,-123.94510515353087,125.23844121532366,-111.03680555555553,6.245901639344254,30.45029239766082,-6.208888888888893,6.512820512820503,-7.105427357601002e-15,-7.904564315352697,-1.4941176470588218,6.907949790794978,8.215566898990122,88.52410082212485,19.07728760525241,15.239403353792067,46.22260085917113,2344.349295054742,1
-23.00330739299611,-14.372020494542227,-21.1489934131181,101.4808020477816,-123.77444063696836,125.51805372082785,-111.03680555555553,6.245901639344254,30.45029239766082,-6.208888888888893,6.512820512820503,-7.105427357601002e-15,-7.904564315352697,-1.4941176470588218,6.907949790794978,8.215566898990122,88.52410082212485,19.508107100218812,20.644159299750577,45.6672719851473,2347.8444440242138,1
-23.00330739299611,-14.372020494542227,-21.1489934131181,101.4808020477816,-123.77444063696836,125.51805372082785,-111.03680555555553,7.286885245901631,15.596491228070176,-44.59111111111111,20.62393162393161,6.245901639344254,-3.6887966804979255,1.4941176470588253,11.158995815899582,13.835778873976889,194.00097828150325,19.508107100218812,20.644159299750577,45.6672719851473,2347.8444440242138,1
-23.00330739299611,-14.372020494542227,-21.1489934131181,101.4808020477816,-123.77444063696836,125.51805372082785,-111.03680555555553,-1.0409836065573845,-0.742690058479532,-53.62222222222223,-8.881784197001252e-15,-15.614754098360663,-15.282157676348548,-3.48627450980392,6.907949790794978,12.087128995320906,320.7753173874504,19.508107100218812,20.644159299750577,45.6672719851473,2347.8444440242138,1
-20.70544747081712,-14.65493428380487,-20.677706651822987,101.58916382252562,-123.77444063696836,125.74174372523119,-111.1690972222222,-1.0409836065573845,-0.742690058479532,-53.62222222222223,-8.881784197001252e-15,-15.614754098360663,-15.282157676348548,-3.48627450980392,6.907949790794978,12.087128995320906,320.7753173874504,18.679362802148326,12.147211062701693,45.64060158605116,2356.7496589957327,1
-20.70544747081712,-14.65493428380487,-20.677706651822987,101.58916382252562,-123.77444063696836,125.74174372523119,-111.1690972222222,-7.993605777301127e-15,2.228070175438596,-26.528888888888893,-9.769230769230777,-34.352459016393446,-21.605809128630707,-4.482352941176469,4.7824267782426775,12.968654712250196,164.08022774256605,18.679362802148326,12.147211062701693,45.64060158605116,2356.7496589957327,1
-20.70544747081712,-14.65493428380487,-20.677706651822987,101.58916382252562,-123.77444063696836,125.74174372523119,-111.1690972222222,6.245901639344254,21.538011695906434,-2.8222222222222264,5.427350427350417,-8.327868852459023,14.228215767634854,-1.4941176470588218,5.845188284518828,8.241109567061857,43.59790686322036,18.679362802148326,12.147211062701693,45.64060158605116,2356.7496589957327,1
-19.27237354085603,-14.343729115615963,-21.10186473698859,102.07679180887374,-123.91097225021838,125.74174372523119,-111.21319444444441,6.245901639344254,21.538011695906434,-2.8222222222222264,5.427350427350417,-8.327868852459023,14.228215767634854,-1.4941176470588218,5.845188284518828,8.241109567061857,43.59790686322036,18.23932246448686,12.218495164007017,45.84079522049276,2383.2835834855136,1
-19.27237354085603,-14.343729115615963,-21.10186473698859,102.07679180887374,-123.91097225021838,125.74174372523119,-111.21319444444441,9.368852459016384,36.39181286549707,44.591111111111104,13.025641025641015,-13.532786885245908,-7.904564315352697,0.4980392156862763,9.03347280334728,16.793285085112217,234.50409921941167,18.23932246448686,12.218495164007017,45.84079522049276,2383.2835834855136,1
-19.27237354085603,-14.343729115615963,-21.10186473698859,102.07679180887374,-123.91097225021838,125.74174372523119,-111.21319444444441,6.245901639344254,9.654970760233919,-7.337777777777782,7.598290598290588,-2.0819672131147615,3.6887966804979246,3.4862745098039234,9.03347280334728,6.140931497801304,7.68828319843019,18.23932246448686,12.218495164007017,45.84079522049276,2383.2835834855136,1
-19.173540856031128,-14.541768768099812,-21.643844512477965,102.51023890784984,-124.08163676678089,125.74174372523119,-111.1690972222222,6.245901639344254,9.654970760233919,-7.337777777777782,7.598290598290588,-2.0819672131147615,3.6887966804979246,3.4862745098039234,9.03347280334728,6.140931497801304,7.68828319843019,18.453051378869635,12.999198784746454,46.23195072947587,2388.044160185801,1
-19.173540856031128,-14.541768768099812,-21.643844512477965,102.51023890784984,-124.08163676678089,125.74174372523119,-111.1690972222222,8.327868852459009,31.935672514619885,26.528888888888886,10.854700854700845,-16.65573770491804,-17.390041493775932,-0.49803921568627274,6.907949790794978,14.887362414480481,109.36764752156492,18.453051378869635,12.999198784746454,46.23195072947587,2388.044160185801,1
-19.173540856031128,-14.541768768099812,-21.643844512477965,102.51023890784984,-124.08163676678089,125.74174372523119,-111.1690972222222,4.1639344262295,8.169590643274855,7.337777777777774,29.307692307692296,1.0409836065573694,-5.796680497925312,0.4980392156862763,9.03347280334728,8.168521409811332,82.800465962285,18.453051378869635,12.999198784746454,46.23195072947587,2388.044160185801,1
-19.988910505836575,-14.25885497883717,-21.596715836348455,102.7811433447099,-124.1840354767184,125.68582122413035,-111.08090277777774,4.1639344262295,8.169590643274855,7.337777777777774,29.307692307692296,1.0409836065573694,-5.796680497925312,0.4980392156862763,9.03347280334728,8.168521409811332,82.800465962285,18.6148271070074,14.877129381252512,46.21223805329851,2413.491834892553,1
-19.988910505836575,-14.25885497883717,-21.596715836348455,102.7811433447099,-124.1840354767184,125.68582122413035,-111.08090277777774,4.1639344262295,20.05263157894737,20.88444444444444,21.709401709401696,-3.1229508196721385,-5.796680497925312,-0.49803921568627274,10.09623430962343,10.79053962524127,77.27926845161103,18.6148271070074,14.877129381252512,46.21223805329851,2413.491834892553,1
-19.988910505836575,-14.25885497883717,-21.596715836348455,102.7811433447099,-124.1840354767184,125.68582122413035,-111.08090277777774,6.245901639344254,25.994152046783626,17.497777777777774,7.598290598290588,-7.105427357601002e-15,-0.5269709543568464,2.4901960784313744,10.09623430962343,8.806190425575988,80.94775410496743,18.6148271070074,14.877129381252512,46.21223805329851,2413.491834892553,1
-22.583268482490272,-14.004232568500793,-21.478894146024675,102.3476962457338,-124.04750386346839,125.82562747688245,-111.03680555555553,6.245901639344254,25.994152046783626,17.497777777777774,7.598290598290588,-7.105427357601002e-15,-0.5269709543568464,2.4901960784313744,10.09623430962343,8.806190425575988,80.94775410496743,19.35546506567191,21.78167759784616,45.943607653419754,2400.0335488718365,1
-22.583268482490272,-14.004232568500793,-21.478894146024675,102.3476962457338,-124.04750386346839,125.82562747688245,-111.03680555555553,12.491803278688515,55.70175438596492,47.977777777777774,24.965811965811955,-11.450819672131153,-11.066390041493776,-1.4941176470588218,10.09623430962343,21.90558863481879,386.1148007747016,19.35546506567191,21.78167759784616,45.943607653419754,2400.0335488718365,1
-22.583268482490272,-14.004232568500793,-21.478894146024675,102.3476962457338,-124.04750386346839,125.82562747688245,-111.03680555555553,6.245901639344254,9.654970760233919,-20.884444444444448,17.367521367521356,-11.450819672131153,-7.904564315352697,-0.49803921568627274,12.221757322175732,10.77850234211123,40.54778103489788,19.35546506567191,21.78167759784616,45.943607653419754,2400.0335488718365,1
-20.804280155642022,-13.438404989975508,-21.031171722794323,102.45605802047783,-123.99630450849963,125.9095112285337,-111.34548611111109,6.245901639344254,9.654970760233919,-20.884444444444448,17.367521367521356,-11.450819672131153,-7.904564315352697,-0.49803921568627274,12.221757322175732,10.77850234211123,40.54778103489788,18.424618956137284,18.65961723307127,45.641878244415885,2435.3007943847642,1
-20.804280155642022,-13.438404989975508,-21.031171722794323,102.45605802047783,-123.99630450849963,125.9095112285337,-111.34548611111109,2.081967213114746,-3.71345029239766,-59.266666666666666,22.79487179487178,2.081967213114746,0.5269709543568464,1.4941176470588253,5.845188284518828,12.225650008262512,413.6495732806753,18.424618956137284,18.65961723307127,45.641878244415885,2435.3007943847642,1
-20.804280155642022,-13.438404989975508,-21.031171722794323,102.45605802047783,-123.99630450849963,125.9095112285337,-111.34548611111109,3.122950819672123,18.567251461988306,3.951111111111107,9.76923076923076,-1.0409836065573845,-8.95850622406639,-3.48627450980392,9.03347280334728,7.241222663222159,31.594081960715943,18.424618956137284,18.65961723307127,45.641878244415885,2435.3007943847642,1
-18.60525291828794,-13.410113611049244,-21.007607384729567,103.160409556314,-124.16696902506214,125.85358872743286,-111.65416666666664,3.122950819672123,18.567251461988306,3.951111111111107,9.76923076923076,-1.0409836065573845,-8.95850622406639,-3.48627450980392,9.03347280334728,7.241222663222159,31.594081960715943,17.674324638022252,15.080448507526643,45.8593768506976,2476.9867397578673,1
-18.60525291828794,-13.410113611049244,-21.007607384729567,103.160409556314,-124.16696902506214,125.85358872743286,-111.65416666666664,-1.0409836065573845,0.742690058479532,-29.91555555555556,8.683760683760674,-13.532786885245908,0.5269709543568464,1.4941176470588253,9.03347280334728,8.121292274295252,101.65576160950134,17.674324638022252,15.080448507526643,45.8593768506976,2476.9867397578673,1
-18.60525291828794,-13.410113611049244,-21.007607384729567,103.160409556314,-124.16696902506214,125.85358872743286,-111.65416666666664,11.45081967213114,20.05263157894737,-0.5644444444444492,6.512820512820503,-3.1229508196721385,-2.6348547717842328,-0.49803921568627274,7.970711297071129,6.600909039069654,43.98061356618207,17.674324638022252,15.080448507526643,45.8593768506976,2476.9867397578673,1
-18.802918287937743,-13.834484294943207,-21.52602282215419,103.70221843003412,-124.35469999328092,125.62989872302953,-111.61006944444443,11.45081967213114,20.05263157894737,-0.5644444444444492,6.512820512820503,-3.1229508196721385,-2.6348547717842328,-0.49803921568627274,7.970711297071129,6.600909039069654,43.98061356618207,18.054475135011714,15.210066593764113,46.35424184904384,2481.3827546792504,1
-18.802918287937743,-13.834484294943207,-21.52602282215419,103.70221843003412,-124.35469999328092,125.62989872302953,-111.61006944444443,5.2049180327868765,27.47953216374269,-11.853333333333337,14.1111111111111,4.163934426229501,1.5809128630705391,2.4901960784313744,4.7824267782426775,8.958295598368512,75.53466644718469,18.054475135011714,15.210066593764113,46.35424184904384,2481.3827546792504,1
-18.802918287937743,-13.834484294943207,-21.52602282215419,103.70221843003412,-124.35469999328092,125.62989872302953,-111.61006944444443,2.081967213114746,11.140350877192983,-29.91555555555556,5.427350427350417,-24.983606557377055,-15.282157676348548,-4.482352941176469,6.907949790794978,12.527661379863844,103.26234326771497,18.054475135011714,15.210066593764113,46.35424184904384,2481.3827546792504,1
-20.952529182879378,-13.862775673869471,-21.83235921699601,103.70221843003412,-124.37176644493718,125.62989872302953,-111.56597222222223,2.081967213114746,11.140350877192983,-29.91555555555556,5.427350427350417,-24.983606557377055,-15.282157676348548,-4.482352941176469,6.907949790794978,12.527661379863844,103.26234326771497,18.882554691248288,19.09216125972089,46.46578444029986,2472.8855973586233,1
-20.952529182879378,-13.862775673869471,-21.83235921699601,103.70221843003412,-124.37176644493718,125.62989872302953,-111.56597222222223,8.327868852459009,14.111111111111112,-31.044444444444448,9.76923076923076,9.368852459016384,3.6887966804979246,1.4941176470588253,13.284518828451883,11.386117599033794,81.51661580913739,18.882554691248288,19.09216125972089,46.46578444029986,2472.8855973586233,1
-20.952529182879378,-13.862775673869471,-21.83235921699601,103.70221843003412,-124.37176644493718,125.62989872302953,-111.56597222222223,2.081967213114746,5.198830409356727,-9.59555555555556,18.45299145299144,2.081967213114746,-10.012448132780083,1.4941176470588253,9.03347280334728,7.2439188034149256,33.2249787945832,18.882554691248288,19.09216125972089,46.46578444029986,2472.8855973586233,1
-22.31147859922179,-14.117398084205849,-21.31394377957139,103.26877133105802,-124.23523483168717,125.74174372523119,-111.56597222222223,2.081967213114746,5.198830409356727,-9.59555555555556,18.45299145299144,2.081967213114746,-10.012448132780083,1.4941176470588253,9.03347280334728,7.2439188034149256,33.2249787945832,19.247606820999675,19.988050191410522,46.23337106494508,2452.725230123157,1
-22.31147859922179,-14.117398084205849,-21.31394377957139,103.26877133105802,-124.23523483168717,125.74174372523119,-111.56597222222223,6.245901639344254,21.538011695906434,16.368888888888883,6.512820512820503,5.204918032786878,-3.6887966804979255,1.4941176470588253,11.158995815899582,9.02655636415041,46.98268558135661,19.247606820999675,19.988050191410522,46.23337106494508,2452.725230123157,1
-22.31147859922179,-14.117398084205849,-21.31394377957139,103.26877133105802,-124.23523483168717,125.74174372523119,-111.56597222222223,8.327868852459009,25.994152046783626,12.982222222222216,2.1709401709401615,-9.3688524590164,-6.850622406639005,-2.490196078431371,7.970711297071129,9.519445691695363,56.825911991197025,19.247606820999675,19.988050191410522,46.23337106494508,2452.725230123157,1
-19.56887159533074,-14.287146357763435,-20.819092680211522,103.70221843003412,-124.35469999328092,125.79766622633203,-111.6982638888889,8.327868852459009,25.994152046783626,12.982222222222216,2.1709401709401615,-9.3688524590164,-6.850622406639005,-2.490196078431371,7.970711297071129,9.519445691695363,56.825911991197025,18.225036877768563,12.02099950092983,46.26948582266969,2484.5556617516017,1
-19.56887159533074,-14.287146357763435,-20.819092680211522,103.70221843003412,-124.35469999328092,125.79766622633203,-111.6982638888889,3.122950819672123,15.596491228070176,-18.626666666666672,9.76923076923076,-6.24590163934427,-4.742738589211619,1.4941176470588253,3.7196652719665266,7.914720328902622,38.83210174252694,18.225036877768563,12.02099950092983,46.26948582266969,2484.5556617516017,1
-19.56887159533074,-14.287146357763435,-20.819092680211522,103.70221843003412,-124.35469999328092,125.79766622633203,-111.6982638888889,3.122950819672123,14.111111111111112,-27.65777777777778,10.854700854700845,-4.163934426229515,-13.174273858921163,0.4980392156862763,6.907949790794978,10.061342231861724,74.38232511390581,18.225036877768563,12.02099950092983,46.26948582266969,2484.5556617516017,1
-19.420622568093385,-14.45689463132102,-20.677706651822987,104.35238907849839,-124.54243096149969,125.82562747688245,-111.65416666666664,3.122950819672123,14.111111111111112,-27.65777777777778,10.854700854700845,-4.163934426229515,-13.174273858921163,0.4980392156862763,6.907949790794978,10.061342231861724,74.38232511390581,18.18507461707913,10.819559603047082,46.4956634538808,2520.225150550317,1
-19.420622568093385,-14.45689463132102,-20.677706651822987,104.35238907849839,-124.54243096149969,125.82562747688245,-111.65416666666664,8.327868852459009,18.567251461988306,-2.8222222222222264,7.598290598290588,-27.06557377049181,-14.228215767634856,-3.48627450980392,9.03347280334728,11.39114624827975,67.21066146705547,18.18507461707913,10.819559603047082,46.4956634538808,2520.225150550317,1
-19.420622568093385,-14.45689463132102,-20.677706651822987,104.35238907849839,-124.54243096149969,125.82562747688245,-111.65416666666664,-7.993605777301127e-15,-2.228070175438596,2.8222222222222175,2.1709401709401615,-20.81967213114755,-14.228215767634856,-5.478431372549018,3.7196652719665266,6.433402138987367,52.326129023818,18.18507461707913,10.819559603047082,46.4956634538808,2520.225150550317,1
-21.520817120622567,-14.372020494542227,-20.60701363762872,104.4065699658704,-124.55949741315595,125.99339498018496,-111.65416666666664,-7.993605777301127e-15,-2.228070175438596,2.8222222222222175,2.1709401709401615,-20.81967213114755,-14.228215767634856,-5.478431372549018,3.7196652719665266,6.433402138987367,52.326129023818,18.833283750931173,15.135911583487491,46.46186803268045,2527.9101464682544,1
-21.520817120622567,-14.372020494542227,-20.60701363762872,104.4065699658704,-124.55949741315595,125.99339498018496,-111.65416666666664,4.1639344262295,11.140350877192983,-32.17333333333333,6.512820512820503,4.163934426229501,-4.742738589211619,-0.49803921568627274,6.907949790794978,8.787887646437337,98.42427924224305,18.833283750931173,15.135911583487491,46.46186803268045,2527.9101464682544,1
-21.520817120622567,-14.372020494542227,-20.60701363762872,104.4065699658704,-124.55949741315595,125.99339498018496,-111.65416666666664,8.327868852459009,30.45029239766082,11.853333333333328,18.45299145299144,-9.3688524590164,-0.5269709543568464,5.4784313725490215,12.221757322175732,12.085062268067825,82.3765611927013,18.833283750931173,15.135911583487491,46.46186803268045,2527.9101464682544,1
-23.052723735408563,-13.77790153709068,-20.489191947304946,103.91894197952217,-124.37176644493718,126.2170849845883,-111.78645833333331,8.327868852459009,30.45029239766082,11.853333333333328,18.45299145299144,-9.3688524590164,-0.5269709543568464,5.4784313725490215,12.221757322175732,12.085062268067825,82.3765611927013,19.10660573993473,22.939240168210315,46.06201182130593,2521.8286302420925,1
-23.052723735408563,-13.77790153709068,-20.489191947304946,103.91894197952217,-124.37176644493718,126.2170849845883,-111.78645833333331,8.327868852459009,18.567251461988306,-34.431111111111115,17.367521367521356,-28.106557377049185,-15.282157676348548,-4.482352941176469,9.03347280334728,16.949786698875158,104.01204482667958,19.10660573993473,22.939240168210315,46.06201182130593,2521.8286302420925,1
-23.052723735408563,-13.77790153709068,-20.489191947304946,103.91894197952217,-124.37176644493718,126.2170849845883,-111.78645833333331,3.122950819672123,9.654970760233919,8.466666666666661,17.367521367521356,24.98360655737704,3.6887966804979246,-1.4941176470588218,5.845188284518828,9.327977347943335,64.91195215106579,19.10660573993473,22.939240168210315,46.06201182130593,2521.8286302420925,1
-21.767898832684825,-14.315437736689699,-20.39493459504592,103.91894197952217,-124.30350063831216,126.58058124174374,-112.05104166666666,3.122950819672123,9.654970760233919,8.466666666666661,17.367521367521356,24.98360655737704,3.6887966804979246,-1.4941176470588218,5.845188284518828,9.327977347943335,64.91195215106579,18.82609038814015,15.730748205986572,46.20977143708593,2507.001344034684,1
-21.767898832684825,-14.315437736689699,-20.39493459504592,103.91894197952217,-124.30350063831216,126.58058124174374,-112.05104166666666,10.409836065573762,43.8187134502924,35.559999999999995,6.512820512820503,-10.409836065573778,-14.228215767634856,-0.49803921568627274,6.907949790794978,16.04317635854707,233.58304703237462,18.82609038814015,15.730748205986572,46.20977143708593,2507.001344034684,1
-21.767898832684825,-14.315437736689699,-20.39493459504592,103.91894197952217,-124.30350063831216,126.58058124174374,-112.05104166666666,8.327868852459009,30.45029239766082,-7.337777777777782,14.1111111111111,-10.409836065573778,-11.066390041493776,-2.490196078431371,9.03347280334728,11.653368140981865,68.8238024084863,18.82609038814015,15.730748205986572,46.20977143708593,2507.001344034684,1
-18.679377431906616,-14.089106705279585,-20.536320623434456,104.67747440273047,-124.49123160653093,126.63650374284458,-112.31562500000001,8.327868852459009,30.45029239766082,-7.337777777777782,14.1111111111111,-10.409836065573778,-11.066390041493776,-2.490196078431371,9.03347280334728,11.653368140981865,68.8238024084863,17.768268253540217,11.014231777790089,46.43430057714817,2554.5921147843587,1
-18.679377431906616,-14.089106705279585,-20.536320623434456,104.67747440273047,-124.49123160653093,126.63650374284458,-112.31562500000001,2.081967213114746,3.7134502923976633,28.78666666666666,17.367521367521356,-10.409836065573778,-4.742738589211619,0.4980392156862763,6.907949790794978,9.313521150120884,90.47427666855891,17.768268253540217,11.014231777790089,46.43430057714817,2554.5921147843587,1
-18.679377431906616,-14.089106705279585,-20.536320623434456,104.67747440273047,-124.49123160653093,126.63650374284458,-112.31562500000001,2.081967213114746,17.081871345029242,-7.337777777777782,11.94017094017093,-9.3688524590164,-27.929460580912863,-0.49803921568627274,7.970711297071129,10.52610635359742,76.8221010806311,17.768268253540217,11.014231777790089,46.43430057714817,2554.5921147843587,1
-19.74182879377432,-13.834484294943207,-20.795528342146767,105.16510238907858,-124.61069676812471,126.58058124174374,-112.40381944444442,2.081967213114746,17.081871345029242,-7.337777777777782,11.94017094017093,-9.3688524590164,-27.929460580912863,-0.49803921568627274,7.970711297071129,10.52610635359742,76.8221010806311,18.123947143621432,14.077189332203105,46.59837167538952,2584.660493424104,1
-19.74182879377432,-13.834484294943207,-20.795528342146767,105.16510238907858,-124.61069676812471,126.58058124174374,-112.40381944444442,6.245901639344254,15.596491228070176,-8.46666666666667,6.512820512820503,-8.327868852459023,-5.796680497925312,0.4980392156862763,11.158995815899582,7.8254330536089745,19.170002382653824,18.123947143621432,14.077189332203105,46.59837167538952,2584.660493424104,1
-19.74182879377432,-13.834484294943207,-20.795528342146767,105.16510238907858,-124.61069676812471,126.58058124174374,-112.40381944444442,12.491803278688515,46.78947368421053,-16.368888888888893,-5.4273504273504365,-8.327868852459023,-4.742738589211619,3.4862745098039234,11.158995815899582,13.599174255814063,198.81722798904184,18.123947143621432,14.077189332203105,46.59837167538952,2584.660493424104,1
-21.594941634241245,-13.57986188460683,-21.10186473698859,105.05674061433456,-124.57656386481221,126.60854249229416,-112.44791666666663,12.491803278688515,46.78947368421053,-16.368888888888893,-5.4273504273504365,-8.327868852459023,-4.742738589211619,3.4862745098039234,11.158995815899582,13.599174255814063,198.81722798904184,18.75888941861222,20.17752585514055,46.57948907864333,2578.836842104187,1
-21.594941634241245,-13.57986188460683,-21.10186473698859,105.05674061433456,-124.57656386481221,126.60854249229416,-112.44791666666663,13.532786885245892,69.0701754385965,62.65333333333332,-1.0854700854700958,-26.024590163934434,-12.120331950207468,-1.4941176470588218,10.09623430962343,24.509629976683748,714.7166086992308,18.75888941861222,20.17752585514055,46.57948907864333,2578.836842104187,1
-21.594941634241245,-13.57986188460683,-21.10186473698859,105.05674061433456,-124.57656386481221,126.60854249229416,-112.44791666666663,5.2049180327868765,23.023391812865498,-6.208888888888893,17.367521367521356,-1.0409836065573845,-6.850622406639005,1.4941176470588253,7.970711297071129,8.64514438242362,59.03142445585728,18.75888941861222,20.17752585514055,46.57948907864333,2578.836842104187,1
-22.583268482490272,-13.834484294943207,-21.078300398923833,104.67747440273047,-124.40589934824968,126.86019374724792,-112.62430555555557,5.2049180327868765,23.023391812865498,-6.208888888888893,17.367521367521356,-1.0409836065573845,-6.850622406639005,1.4941176470588253,7.970711297071129,8.64514438242362,59.03142445585728,19.16535105878577,21.879837573519374,46.530086365532505,2548.957269598427,1
-22.583268482490272,-13.834484294943207,-21.078300398923833,104.67747440273047,-124.40589934824968,126.86019374724792,-112.62430555555557,6.245901639344254,27.47953216374269,-0.5644444444444492,8.683760683760674,-20.81967213114755,-18.44398340248963,-2.490196078431371,7.970711297071129,11.587275230053969,91.30218297201904,19.16535105878577,21.879837573519374,46.530086365532505,2548.957269598427,1
-22.583268482490272,-13.834484294943207,-21.078300398923833,104.67747440273047,-124.40589934824968,126.86019374724792,-112.62430555555557,7.286885245901631,23.023391812865498,-6.208888888888893,13.025641025641015,-12.491803278688531,-26.87551867219917,-0.49803921568627274,6.907949790794978,12.039764741333247,79.72169696165237,19.16535105878577,21.879837573519374,46.530086365532505,2548.957269598427,1
-19.371206225680936,-13.721318779238151,-21.031171722794323,105.16510238907858,-124.5082980581872,126.83223249669751,-112.84479166666665,7.286885245901631,23.023391812865498,-6.208888888888893,13.025641025641015,-12.491803278688531,-26.87551867219917,-0.49803921568627274,6.907949790794978,12.039764741333247,79.72169696165237,18.041232242571137,14.685110610915913,46.63919763037035,2582.3196333831443,1
-19.371206225680936,-13.721318779238151,-21.031171722794323,105.16510238907858,-124.5082980581872,126.83223249669751,-112.84479166666665,6.245901639344254,12.625730994152049,24.271111111111104,20.62393162393161,28.10655737704917,-16.336099585062243,1.4941176470588253,7.970711297071129,14.709270159347549,86.36629643187459,18.041232242571137,14.685110610915913,46.63919763037035,2582.3196333831443,1
-19.371206225680936,-13.721318779238151,-21.031171722794323,105.16510238907858,-124.5082980581872,126.83223249669751,-112.84479166666665,2.081967213114746,-0.742690058479532,-12.982222222222227,15.196581196581185,-7.286885245901646,-1.58091286307054,-0.49803921568627274,6.907949790794978,5.909655975731391,32.64769647413992,18.041232242571137,14.685110610915913,46.63919763037035,2582.3196333831443,1
-17.78988326848249,-14.25885497883717,-20.866221356341033,106.03199658703079,-124.79842773634348,126.664464993395,-112.88888888888886,2.081967213114746,-0.742690058479532,-12.982222222222227,15.196581196581185,-7.286885245901646,-1.58091286307054,-0.49803921568627274,6.907949790794978,5.909655975731391,32.64769647413992,17.638319867886896,10.931551209942201,47.05235764073634,2619.8626802880826,1
-17.78988326848249,-14.25885497883717,-20.866221356341033,106.03199658703079,-124.79842773634348,126.664464993395,-112.88888888888886,2.081967213114746,3.7134502923976633,-51.364444444444445,11.94017094017093,8.327868852459009,5.796680497925312,-0.49803921568627274,5.845188284518828,11.19597621758965,276.2240345084961,17.638319867886896,10.931551209942201,47.05235764073634,2619.8626802880826,1
-17.78988326848249,-14.25885497883717,-20.866221356341033,106.03199658703079,-124.79842773634348,126.664464993395,-112.88888888888886,2.081967213114746,24.50877192982456,31.044444444444437,10.854700854700845,-24.983606557377055,-18.44398340248963,-7.470588235294116,4.7824267782426775,15.521311176936008,114.6214514456209,17.638319867886896,10.931551209942201,47.05235764073634,2619.8626802880826,1
-19.519455252918288,-14.739808420583662,-20.819092680211522,106.46544368600689,-124.95202580124976,126.69242624394542,-112.75659722222218,2.081967213114746,24.50877192982456,31.044444444444437,10.854700854700845,-24.983606557377055,-18.44398340248963,-7.470588235294116,4.7824267782426775,15.521311176936008,114.6214514456209,18.359452117904492,10.248629732271144,47.341448262267356,2630.97455042712,1
-19.519455252918288,-14.739808420583662,-20.819092680211522,106.46544368600689,-124.95202580124976,126.69242624394542,-112.75659722222218,6.245901639344254,23.023391812865498,36.68888888888888,2.1709401709401615,-15.614754098360663,-8.95850622406639,6.4745098039215705,10.09623430962343,13.659140868501357,127.8895680877729,18.359452117904492,10.248629732271144,47.341448262267356,2630.97455042712,1
-19.519455252918288,-14.739808420583662,-20.819092680211522,106.46544368600689,-124.95202580124976,126.69242624394542,-112.75659722222218,-7.993605777301127e-15,-14.111111111111107,-43.46222222222222,-6.512820512820522,-2.0819672131147615,18.44398340248963,5.4784313725490215,11.158995815899582,12.656191456275858,192.58901429195402,18.359452117904492,10.248629732271144,47.341448262267356,2630.97455042712,1
-20.730155642023348,-14.287146357763435,-20.55988496149921,106.5196245733789,-124.88375999462474,126.91611624834876,-113.109375,-7.993605777301127e-15,-14.111111111111107,-43.46222222222222,-6.512820512820522,-2.0819672131147615,18.44398340248963,5.4784313725490215,11.158995815899582,12.656191456275858,192.58901429195402,18.52572898709533,13.481435055417109,47.12221863088052,2655.875686921156,1
-20.730155642023348,-14.287146357763435,-20.55988496149921,106.5196245733789,-124.88375999462474,126.91611624834876,-113.109375,5.2049180327868765,20.05263157894737,-52.49333333333333,4.341880341880332,-30.18852459016394,6.850622406639005,-5.478431372549018,4.7824267782426775,16.17409605431782,303.1361384863634,18.52572898709533,13.481435055417109,47.12221863088052,2655.875686921156,1
-20.730155642023348,-14.287146357763435,-20.55988496149921,106.5196245733789,-124.88375999462474,126.91611624834876,-113.109375,14.57377049180327,85.4093567251462,55.879999999999995,28.22222222222221,-10.409836065573778,-14.228215767634856,0.4980392156862763,11.158995815899582,27.547554537995772,827.2653118632617,18.52572898709533,13.481435055417109,47.12221863088052,2655.875686921156,1
-17.83929961089494,-13.636444642459358,-19.92364783375081,107.38651877133111,-125.03735805953102,127.00000000000001,-113.77083333333331,14.57377049180327,85.4093567251462,55.879999999999995,28.22222222222221,-10.409836065573778,-14.228215767634856,0.4980392156862763,11.158995815899582,27.547554537995772,827.2653118632617,17.133130695701706,10.25623689473525,46.98220374918043,2746.3931859635604,1
-17.83929961089494,-13.636444642459358,-19.92364783375081,107.38651877133111,-125.03735805953102,127.00000000000001,-113.77083333333331,6.245901639344254,27.47953216374269,18.62666666666666,-23.880341880341888,12.491803278688515,34.25311203319502,-5.478431372549018,6.907949790794978,16.920467353165378,118.28507211304391,17.133130695701706,10.25623689473525,46.98220374918043,2746.3931859635604,1
-12.798832684824903,-14.711517041657398,-20.60701363762872,109.22866894197955,-125.51521870590608,126.664464993395,-114.25590277777775,6.245901639344254,27.47953216374269,18.62666666666666,-23.880341880341888,12.491803278688515,34.25311203319502,-5.478431372549018,6.907949790794978,16.920467353165378,118.28507211304391,16.039121121370343,16.56382189228492,48.18239987375522,2803.674445390809,1
-12.798832684824903,-14.711517041657398,-20.60701363762872,109.22866894197955,-125.51521870590608,126.664464993395,-114.25590277777775,-6.24590163934427,-25.994152046783626,-80.71555555555555,-10.854700854700862,8.327868852459009,17.390041493775932,12.450980392156865,16.472803347280333,22.306500522757055,595.0057211793786,16.039121121370343,16.56382189228492,48.18239987375522,2803.674445390809,1
-12.798832684824903,-14.711517041657398,-20.60701363762872,109.22866894197955,-125.51521870590608,126.664464993395,-114.25590277777775,1.0409836065573685,25.994152046783626,-10.724444444444448,-35.820512820512825,-13.532786885245908,-33.19917012448133,20.419607843137257,12.221757322175732,19.11917688666731,143.17314151756327,16.039121121370343,16.56382189228492,48.18239987375522,2803.674445390809,1
-8.969066147859923,-16.578748050790836,-22.869190091845255,111.45008532423208,-126.21494322381241,126.13320123293704,-114.34409722222222,1.0409836065573685,25.994152046783626,-10.724444444444448,-35.820512820512825,-13.532786885245908,-33.19917012448133,20.419607843137257,12.221757322175732,19.11917688666731,143.17314151756327,16.139001430165337,48.44839423230224,50.29934115562272,2814.4525495489997,1
-8.969066147859923,-16.578748050790836,-22.869190091845255,111.45008532423208,-126.21494322381241,126.13320123293704,-114.34409722222222,13.532786885245892,46.78947368421053,-2.8222222222222264,-24.965811965811973,-15.614754098360663,-16.336099585062243,-9.462745098039214,7.970711297071129,17.186825604502985,186.33093680158112,16.139001430165337,48.44839423230224,50.29934115562272,2814.4525495489997,1
-8.969066147859923,-16.578748050790836,-22.869190091845255,111.45008532423208,-126.21494322381241,126.13320123293704,-114.34409722222222,3.122950819672123,5.198830409356727,24.271111111111104,34.735042735042725,19.778688524590155,-49.00829875518672,-38.34901960784313,6.907949790794978,22.671486469199706,290.2567485515595,16.139001430165337,48.44839423230224,50.29934115562272,2814.4525495489997,1
-8.845525291828794,-14.45689463132102,-25.932554040263476,113.23805460750862,-127.0,124.56737120211362,-113.63854166666664,3.122950819672123,5.198830409356727,24.271111111111104,34.735042735042725,19.778688524590155,-49.00829875518672,-38.34901960784313,6.907949790794978,22.671486469199706,290.2567485515595,16.41165798780443,75.85746269734604,51.2091677596977,2918.6097924014093,1
-8.845525291828794,-14.45689463132102,-25.932554040263476,113.23805460750862,-127.0,124.56737120211362,-113.63854166666664,14.57377049180327,40.84795321637427,54.7511111111111,116.14529914529913,13.532786885245894,-10.012448132780083,21.415686274509806,13.284518828451883,35.57044676069693,1309.2581121896185,16.41165798780443,75.85746269734604,51.2091677596977,2918.6097924014093,1
-8.845525291828794,-14.45689463132102,-25.932554040263476,113.23805460750862,-127.0,124.56737120211362,-113.63854166666664,9.368852459016384,23.023391812865498,-46.848888888888894,22.79487179487178,-6.24590163934427,3.6887966804979246,19.423529411764708,7.970711297071129,17.420617998040072,199.69676105655682,16.41165798780443,75.85746269734604,51.2091677596977,2918.6097924014093,1
-18.53112840466926,-11.316551570505695,-26.71017719640041,111.66680887372013,-126.72693677349997,122.8617349185381,-112.88888888888886,9.368852459016384,23.023391812865498,-46.848888888888894,22.79487179487178,-6.24590163934427,3.6887966804979246,19.423529411764708,7.970711297071129,17.420617998040072,199.69676105655682,18.852619057191788,59.31844465729513,49.89784588020874,2920.794519447885,1
-18.53112840466926,-11.316551570505695,-26.71017719640041,111.66680887372013,-126.72693677349997,122.8617349185381,-112.88888888888886,3.122950819672123,30.45029239766082,-38.94666666666667,62.95726495726494,-13.532786885245908,-7.904564315352697,18.42745098039216,-18.598326359832637,24.242537922760995,378.13073938506125,18.852619057191788,59.31844465729513,49.89784588020874,2920.794519447885,1
-18.53112840466926,-11.316551570505695,-26.71017719640041,111.66680887372013,-126.72693677349997,122.8617349185381,-112.88888888888886,4.1639344262295,-8.169590643274852,-37.81777777777778,-8.881784197001252e-15,-2.0819672131147615,55.33195020746888,18.42745098039216,9.03347280334728,16.878268006450654,388.91304454503876,18.852619057191788,59.31844465729513,49.89784588020874,2920.794519447885,1
-27.599027237354086,-6.337268879483195,-27.794136747379163,106.898890784983,-125.24215547940602,121.12813738441217,-113.02118055555553,4.1639344262295,-8.169590643274852,-37.81777777777778,-8.881784197001252e-15,-2.0819672131147615,55.33195020746888,18.42745098039216,9.03347280334728,16.878268006450654,388.91304454503876,20.576810954738814,152.08293581495693,47.010098803948445,2805.099848385807,1
-27.599027237354086,-6.337268879483195,-27.794136747379163,106.898890784983,-125.24215547940602,121.12813738441217,-113.02118055555553,9.368852459016384,12.625730994152049,-27.65777777777778,-65.12820512820514,-26.024590163934434,-27.929460580912863,-24.40392156862745,12.221757322175732,25.670036999350227,312.0672370699043,20.576810954738814,152.08293581495693,47.010098803948445,2805.099848385807,1
-27.599027237354086,-6.337268879483195,-27.794136747379163,106.898890784983,-125.24215547940602,121.12813738441217,-113.02118055555553,7.286885245901631,36.39181286549707,-58.13777777777778,-78.15384615384616,11.45081967213114,-17.390041493775932,-10.458823529411763,9.03347280334728,28.537934942711093,710.6718860390631,20.576810954738814,152.08293581495693,47.010098803948445,2805.099848385807,1
-32.41712062256809,-2.0935620405435653,-24.68364412283143,100.83063139931744,-122.85285224753073,119.9537648612946,-115.22604166666667,7.286885245901631,36.39181286549707,-58.13777777777778,-78.15384615384616,11.45081967213114,-17.390041493775932,-10.458823529411763,9.03347280334728,28.537934942711093,710.6718860390631,19.73144226198103,248.27277872232594,42.53594585423081,2676.2807242215245,1
-32.41712062256809,-2.0935620405435653,-24.68364412283143,100.83063139931744,-122.85285224753073,119.9537648612946,-115.22604166666667,5.2049180327868765,14.111111111111112,6.208888888888884,19.538461538461526,10.409836065573762,28.983402489626556,20.419607843137257,18.598326359832633,15.434319041177327,64.5758870808627,19.73144226198103,248.27277872232594,42.53594585423081,2676.2807242215245,1
-32.41712062256809,-2.0935620405435653,-24.68364412283143,100.83063139931744,-122.85285224753073,119.9537648612946,-115.22604166666667,10.409836065573762,48.27485380116959,77.32888888888888,96.60683760683759,-10.409836065573778,3.6887966804979246,-16.435294117647057,12.221757322175732,34.42201256854554,1259.1324120150664,19.73144226198103,248.27277872232594,42.53594585423081,2676.2807242215245,1
-34.22081712062257,-1.8672310091334516,-27.747008071249653,93.29948805460754,-119.98568836928038,118.41589608102159,-117.03402777777774,10.409836065573762,48.27485380116959,77.32888888888888,96.60683760683759,-10.409836065573778,3.6887966804979246,-16.435294117647057,12.221757322175732,34.42201256854554,1259.1324120150664,21.27835206700189,293.07126644435334,40.97124237833021,2221.1246868638364,1
-34.22081712062257,-1.8672310091334516,-27.747008071249653,93.29948805460754,-119.98568836928038,118.41589608102159,-117.03402777777774,-7.993605777301127e-15,0.742690058479532,-44.59111111111111,-53.188034188034194,43.72131147540983,21.605809128630707,-15.439215686274508,6.907949790794978,23.274515179841856,449.8163601617824,21.27835206700189,293.07126644435334,40.97124237833021,2221.1246868638364,1
-34.22081712062257,-1.8672310091334516,-27.747008071249653,93.29948805460754,-119.98568836928038,118.41589608102159,-117.03402777777774,3.122950819672123,-3.71345029239766,-54.751111111111115,13.025641025641015,-12.491803278688531,-27.929460580912863,1.4941176470588253,10.09623430962343,15.828096133138194,318.1330373713816,21.27835206700189,293.07126644435334,40.97124237833021,2221.1246868638364,1
-47.365564202334625,-4.583203386054814,-32.24779664161796,82.08404436860076,-116.31640126318618,117.1856010568032,-116.41666666666663,3.122950819672123,-3.71345029239766,-54.751111111111115,13.025641025641015,-12.491803278688531,-27.929460580912863,1.4941176470588253,10.09623430962343,15.828096133138194,318.1330373713816,28.065521410002464,470.7011688383268,39.63834813209118,1542.5602767504702,1
-47.365564202334625,-4.583203386054814,-32.24779664161796,82.08404436860076,-116.31640126318618,117.1856010568032,-116.41666666666663,7.286885245901631,2.228070175438596,-24.271111111111114,-8.683760683760692,9.368852459016384,0.5269709543568464,-10.458823529411763,4.7824267782426775,8.450862617154963,53.07608371090175,28.065521410002464,470.7011688383268,39.63834813209118,1542.5602767504702,1
-47.365564202334625,-4.583203386054814,-32.24779664161796,82.08404436860076,-116.31640126318618,117.1856010568032,-116.41666666666663,5.2049180327868765,21.538011695906434,47.977777777777774,55.35897435897434,-7.105427357601002e-15,-19.49792531120332,0.4980392156862763,6.907949790794978,19.62294952289125,457.87372044324326,28.065521410002464,470.7011688383268,39.63834813209118,1542.5602767504702,1
-59.52198443579766,-2.1784361773223573,-40.00046386492254,67.45520477815705,-111.65725996102935,115.61977102597976,-114.07951388888887,5.2049180327868765,21.538011695906434,47.977777777777774,55.35897435897434,-7.105427357601002e-15,-19.49792531120332,0.4980392156862763,6.907949790794978,19.62294952289125,457.87372044324326,33.90029482601418,849.9796784454636,36.54470160680065,1074.2208493302242,1
-59.52198443579766,-2.1784361773223573,-40.00046386492254,67.45520477815705,-111.65725996102935,115.61977102597976,-114.07951388888887,12.491803278688515,20.05263157894737,10.72444444444444,-41.24786324786326,-48.92622950819673,-15.282157676348548,-10.458823529411763,13.284518828451883,21.558559011544062,224.22386965334584,33.90029482601418,849.9796784454636,36.54470160680065,1074.2208493302242,1
-59.52198443579766,-2.1784361773223573,-40.00046386492254,67.45520477815705,-111.65725996102935,115.61977102597976,-114.07951388888887,3.122950819672123,6.684210526315791,-70.55555555555556,64.04273504273503,18.73770491803278,-27.929460580912863,-0.49803921568627274,2.6569037656903767,24.2784450530751,793.8443149634703,33.90029482601418,849.9796784454636,36.54470160680065,1074.2208493302242,1
-69.1828793774319,5.856315437736676,-42.286204657203825,52.28455631399322,-106.40079285090371,113.94209599295466,-112.22743055555554,3.122950819672123,6.684210526315791,-70.55555555555556,64.04273504273503,18.73770491803278,-27.929460580912863,-0.49803921568627274,2.6569037656903767,24.2784450530751,793.8443149634703,39.108466490790796,1445.3356851010549,33.47569213631124,597.1142358765285,1
-69.1828793774319,5.856315437736676,-42.286204657203825,52.28455631399322,-106.40079285090371,113.94209599295466,-112.22743055555554,4.1639344262295,24.50877192982456,23.142222222222216,-8.683760683760692,28.10655737704917,5.796680497925312,-5.478431372549018,6.907949790794978,13.348538537544432,100.69051495763246,39.108466490790796,1445.3356851010549,33.47569213631124,597.1142358765285,1
-69.1828793774319,5.856315437736676,-42.286204657203825,52.28455631399322,-106.40079285090371,113.94209599295466,-112.22743055555554,12.491803278688515,67.58479532163743,-20.884444444444448,-6.512820512820522,-29.147540983606564,-35.30705394190872,-11.454901960784312,13.284518828451883,24.5834849090428,395.91501990054985,39.108466490790796,1445.3356851010549,33.47569213631124,597.1142358765285,1
-61.84455252918288,15.220761862330125,-43.60580758883013,39.01023890784984,-101.36618961230934,110.30713342140028,-111.30138888888888,12.491803278688515,67.58479532163743,-20.884444444444448,-6.512820512820522,-29.147540983606564,-35.30705394190872,-11.454901960784312,13.284518828451883,24.5834849090428,395.91501990054985,40.223707326781046,1622.0466287756944,32.612269453003364,232.12821508273547,1
-61.84455252918288,15.220761862330125,-43.60580758883013,39.01023890784984,-101.36618961230934,110.30713342140028,-111.30138888888888,1.0409836065573685,17.081871345029242,-88.61777777777777,34.735042735042725,11.45081967213114,-20.551867219917014,1.4941176470588253,4.7824267782426775,22.469363347719597,841.7334149143734,40.223707326781046,1622.0466287756944,32.612269453003364,232.12821508273547,1
-61.84455252918288,15.220761862330125,-43.60580758883013,39.01023890784984,-101.36618961230934,110.30713342140028,-111.30138888888888,-2.081967213114762,18.567251461988306,-0.5644444444444492,-24.965811965811973,-58.29508196721312,-36.36099585062241,-14.44313725490196,1.5941422594142258,19.609104052188897,404.0194556080044,40.223707326781046,1622.0466287756944,32.612269453003364,232.12821508273547,1
-61.64688715953307,22.32189797282244,-49.21412004824195,25.627559726962545,-96.1438554054962,105.05041831792164,-109.84618055555552,-2.081967213114762,18.567251461988306,-0.5644444444444492,-24.965811965811973,-58.29508196721312,-36.36099585062241,-14.44313725490196,1.5941422594142258,19.609104052188897,404.0194556080044,44.39430172686582,2053.78874149289,32.38785924934231,215.0741392626362,1
-61.64688715953307,22.32189797282244,-49.21412004824195,25.627559726962545,-96.1438554054962,105.05041831792164,-109.84618055555552,9.368852459016384,48.27485380116959,37.81777777777777,68.38461538461537,-51.00819672131148,-38.468879668049794,-2.490196078431371,10.09623430962343,33.2387007749994,553.744695573352,44.39430172686582,2053.78874149289,32.38785924934231,215.0741392626362,1
-61.64688715953307,22.32189797282244,-49.21412004824195,25.627559726962545,-96.1438554054962,105.05041831792164,-109.84618055555552,1.0409836065573685,-5.198830409356724,-58.13777777777778,43.41880341880341,23.94262295081966,19.49792531120332,7.4705882352941195,7.970711297071129,20.83478037586044,413.3372579485111,44.39430172686582,2053.78874149289,32.38785924934231,215.0741392626362,1
-75.87879377431906,24.783247939407424,-57.697281751553945,8.7773037542662,-89.43673990458913,99.6538969616909,-106.49479166666663,1.0409836065573685,-5.198830409356724,-58.13777777777778,43.41880341880341,23.94262295081966,19.49792531120332,7.4705882352941195,7.970711297071129,20.83478037586044,413.3372579485111,52.786441155093485,2877.741966585254,30.419277815075855,622.1146863833496,1
-75.87879377431906,24.783247939407424,-57.697281751553945,8.7773037542662,-89.43673990458913,99.6538969616909,-106.49479166666663,4.1639344262295,9.654970760233919,22.01333333333333,99.86324786324785,-5.2049180327868925,-3.6887966804979255,-0.49803921568627274,12.221757322175732,19.66362470427393,1094.9806606034538,52.786441155093485,2877.741966585254,30.419277815075855,622.1146863833496,1
-75.87879377431906,24.783247939407424,-57.697281751553945,8.7773037542662,-89.43673990458913,99.6538969616909,-106.49479166666663,9.368852459016384,8.169590643274855,-8.46666666666667,2.1709401709401615,-24.983606557377055,-1.58091286307054,8.466666666666669,12.221757322175732,9.428624168648508,52.49415460282881,52.786441155093485,2877.741966585254,30.419277815075855,622.1146863833496,1
-91.96381322957198,29.98886166184004,-63.98896001484368,-11.215443686006779,-80.85231472149431,94.11756935270807,-101.99687499999999,9.368852459016384,8.169590643274855,-8.46666666666667,2.1709401709401615,-24.983606557377055,-1.58091286307054,8.466666666666669,12.221757322175732,9.428624168648508,52.49415460282881,61.9805449687519,4081.146382108432,35.0644217875635,715.5819893698791,1
-91.96381322957198,29.98886166184004,-63.98896001484368,-11.215443686006779,-80.85231472149431,94.11756935270807,-101.99687499999999,1.0409836065573685,-14.111111111111107,-70.55555555555556,-11.940170940170947,-8.327868852459023,-6.850622406639005,-7.470588235294116,5.845188284518828,15.767761124038245,505.44903145998165,61.9805449687519,4081.146382108432,35.0644217875635,715.5819893698791,1
-91.96381322957198,29.98886166184004,-63.98896001484368,-11.215443686006779,-80.85231472149431,94.11756935270807,-101.99687499999999,14.57377049180327,58.672514619883046,-0.5644444444444492,2.1709401709401615,28.10655737704917,-10.012448132780083,4.482352941176472,13.284518828451883,16.483443375816066,367.5795294755242,61.9805449687519,4081.146382108432,35.0644217875635,715.5819893698791,1
-102.73657587548638,35.958342615281786,-65.92123573615362,-32.020904436860064,-70.80017469596183,88.44143549097316,-97.54305555555555,14.57377049180327,58.672514619883046,-0.5644444444444492,2.1709401709401615,28.10655737704917,-10.012448132780083,4.482352941176472,13.284518828451883,16.483443375816066,367.5795294755242,68.20538474230726,5161.849694966976,44.63349426276516,343.75180763059063,1
-102.73657587548638,35.958342615281786,-65.92123573615362,-32.020904436860064,-70.80017469596183,88.44143549097316,-97.54305555555555,8.327868852459009,52.73099415204678,-6.208888888888893,58.6153846153846,-5.2049180327868925,-11.066390041493776,2.4901960784313744,5.845188284518828,18.81122861825127,526.1785206535817,68.20538474230726,5161.849694966976,44.63349426276516,343.75180763059063,1
-102.73657587548638,35.958342615281786,-65.92123573615362,-32.020904436860064,-70.80017469596183,88.44143549097316,-97.54305555555555,-7.993605777301127e-15,5.198830409356727,-25.400000000000002,-45.5897435897436,-47.88524590163935,-11.066390041493776,-0.49803921568627274,5.845188284518828,17.68542968030482,385.470458162935,68.20538474230726,5161.849694966976,44.63349426276516,343.75180763059063,1
-114.3988326848249,43.20093562040542,-64.86084052323963,-52.826365187713236,-59.160854666397896,82.65345662703656,-93.75069444444443,-7.993605777301127e-15,5.198830409356727,-25.400000000000002,-45.5897435897436,-47.88524590163935,-11.066390041493776,-0.49803921568627274,5.845188284518828,17.68542968030482,385.470458162935,74.15353627615666,6494.841183430467,53.62938044378609,117.77149522606973,1
-114.3988326848249,43.20093562040542,-64.86084052323963,-52.826365187713236,-59.160854666397896,82.65345662703656,-93.75069444444443,2.081967213114746,-6.684210526315788,-10.724444444444448,15.196581196581185,-14.573770491803286,-11.066390041493776,3.4862745098039234,10.09623430962343,9.238734091647572,23.01103110060595,74.15353627615666,6494.841183430467,53.62938044378609,117.77149522606973,1
-114.3988326848249,43.20093562040542,-64.86084052323963,-52.826365187713236,-59.160854666397896,82.65345662703656,-93.75069444444443,2.081967213114746,-21.538011695906434,40.075555555555546,17.367521367521356,14.57377049180327,1.5809128630705391,-0.49803921568627274,6.907949790794978,13.077966024181643,181.49968705584362,74.15353627615666,6494.841183430467,53.62938044378609,117.77149522606973,1
-122.25603112840467,51.094230340833136,-61.3261898135263,-72.11476109215016,-46.30981656924007,76.50198150594453,-91.23715277777777,2.081967213114746,-21.538011695906434,40.075555555555546,17.367521367521356,14.57377049180327,1.5809128630705391,-0.49803921568627274,6.907949790794978,13.077966024181643,181.49968705584362,78.22548376092136,7733.518263632013,61.51172708216986,110.49149632530796,1
-122.25603112840467,51.094230340833136,-61.3261898135263,-72.11476109215016,-46.30981656924007,76.50198150594453,-91.23715277777777,-3.1229508196721394,-18.567251461988306,-29.91555555555556,32.564102564102555,-35.39344262295083,-16.336099585062243,-6.474509803921567,-4.782426778242678,18.394542398936984,169.61974022784412,78.22548376092136,7733.518263632013,61.51172708216986,110.49149632530796,1
-122.25603112840467,51.094230340833136,-61.3261898135263,-72.11476109215016,-46.30981656924007,76.50198150594453,-91.23715277777777,2.081967213114746,-14.111111111111107,-127.0,-42.33333333333334,-64.54098360655738,6.850622406639005,-0.49803921568627274,7.970711297071129,33.17334602293913,1942.4359912026264,78.22548376092136,7733.518263632013,61.51172708216986,110.49149632530796,1
-124.4056420233463,55.56426821118288,-57.9329251322015,-88.74829351535834,-32.99798427736343,70.15477763099958,-89.56145833333332,2.081967213114746,-14.111111111111107,-127.0,-42.33333333333334,-64.54098360655738,6.850622406639005,-0.49803921568627274,7.970711297071129,33.17334602293913,1942.4359912026264,79.30094512224356,8281.567262923392,67.41516228624756,342.72949993121824,1
-124.4056420233463,55.56426821118288,-57.9329251322015,-88.74829351535834,-32.99798427736343,70.15477763099958,-89.56145833333332,15.614754098360647,61.643274853801174,15.239999999999995,3.2564102564102466,-7.105427357601002e-15,-12.120331950207468,1.4941176470588253,7.970711297071129,14.667450012863688,396.8814345257843,79.30094512224356,8281.567262923392,67.41516228624756,342.72949993121824,1
-124.4056420233463,55.56426821118288,-57.9329251322015,-88.74829351535834,-32.99798427736343,70.15477763099958,-89.56145833333332,4.1639344262295,-0.742690058479532,-28.78666666666667,41.247863247863236,8.327868852459009,0.5269709543568464,-4.482352941176469,7.970711297071129,12.031132305537799,220.45971525361279,79.30094512224356,8281.567262923392,67.41516228624756,342.72949993121824,1
-127.0,61.0810871018044,-56.0242137489563,-102.88950511945393,-19.07175972586171,63.500000000000014,-88.41493055555554,4.1639344262295,-0.742690058479532,-28.78666666666667,41.247863247863236,8.327868852459009,0.5269709543568464,-4.482352941176469,7.970711297071129,12.031132305537799,220.45971525361279,81.36843361692023,9020.951507782924,73.33160199007155,661.6452200811511,1
-127.0,61.0810871018044,-56.0242137489563,-102.88950511945393,-19.07175972586171,63.500000000000014,-88.41493055555554,2.081967213114746,8.169590643274855,7.337777777777774,-4.341880341880351,-7.286885245901646,-10.012448132780083,-1.4941176470588218,12.221757322175732,6.618303040495501,14.043968438818343,81.36843361692023,9020.951507782924,73.33160199007155,661.6452200811511,1
-127.0,61.0810871018044,-56.0242137489563,-102.88950511945393,-19.07175972586171,63.500000000000014,-88.41493055555554,6.245901639344254,36.39181286549707,18.62666666666666,44.50427350427349,-9.3688524590164,-13.174273858921163,3.4862745098039234,10.09623430962343,17.7367862266433,221.3763803262945,81.36843361692023,9020.951507782924,73.33160199007155,661.6452200811511,1
-123.98560311284047,67.27689908665626,-56.82540124315799,-114.32167235494876,-4.906604851172467,55.92250110083665,-86.82743055555554,6.245901639344254,36.39181286549707,18.62666666666666,44.50427350427349,-9.3688524590164,-13.174273858921163,3.4862745098039234,10.09623430962343,17.7367862266433,221.3763803262945,82.69596781421824,9415.536401656735,79.47465756158768,938.0442817997073,1
-123.98560311284047,67.27689908665626,-56.82540124315799,-114.32167235494876,-4.906604851172467,55.92250110083665,-86.82743055555554,7.286885245901631,6.684210526315791,-18.626666666666672,26.05128205128204,-7.105427357601002e-15,-4.742738589211619,2.4901960784313744,6.907949790794978,9.098741118575514,76.78815302536182,82.69596781421824,9415.536401656735,79.47465756158768,938.0442817997073,1
-123.98560311284047,67.27689908665626,-56.82540124315799,-114.32167235494876,-4.906604851172467,55.92250110083665,-86.82743055555554,6.245901639344254,15.596491228070176,-20.884444444444448,27.136752136752126,10.409836065573762,-6.850622406639005,0.4980392156862763,6.907949790794978,11.81625461591313,77.29967209407211,82.69596781421824,9415.536401656735,79.47465756158768,938.0442817997073,1
-111.236186770428,80.1211851191802,-55.034511550236566,-121.5819112627986,8.456426795672925,45.63276089828271,-85.41631944444444,6.245901639344254,15.596491228070176,-20.884444444444448,27.136752136752126,10.409836065573762,-6.850622406639005,0.4980392156862763,6.907949790794978,11.81625461591313,77.29967209407211,82.13062781328159,9673.889069374849,85.5792026440718,1129.481568602393,1
-111.236186770428,80.1211851191802,-55.034511550236566,-121.5819112627986,8.456426795672925,45.63276089828271,-85.41631944444444,6.245901639344254,15.596491228070176,-20.884444444444448,27.136752136752126,10.409836065573762,-6.850622406639005,0.4980392156862763,6.907949790794978,11.81625461591313,77.29967209407211,82.13062781328159,9673.889069374849,85.5792026440718,1129.481568602393,1
-111.236186770428,80.1211851191802,-55.034511550236566,-121.5819112627986,8.456426795672925,45.63276089828271,-85.41631944444444,-1.0409836065573845,-9.654970760233915,24.271111111111104,-4.341880341880351,-8.327868852459023,-7.904564315352697,2.4901960784313744,10.09623430962343,8.51597617195616,51.71951797339385,82.13062781328159,9673.889069374849,85.5792026440718,1129.481568602393,1
-111.236186770428,80.1211851191802,-55.034511550236566,-121.5819112627986,8.456426795672925,45.63276089828271,-85.41631944444444,10.409836065573762,25.994152046783626,37.81777777777777,24.965811965811955,8.327868852459009,-13.174273858921163,-2.490196078431371,7.970711297071129,16.393828492853725,142.8748594148813,82.13062781328159,9673.889069374849,85.5792026440718,1129.481568602393,1
-106.31926070038911,92.54110046781018,-57.0846089618703,-125.86220136518773,21.990122959080843,33.21796565389698,-83.16736111111109,10.409836065573762,25.994152046783626,37.81777777777777,24.965811965811955,8.327868852459009,-13.174273858921163,-2.490196078431371,7.970711297071129,16.393828492853725,142.8748594148813,85.31499004335653,10726.224516349179,91.8293035982894,1182.9692952868115,1
-106.31926070038911,92.54110046781018,-57.0846089618703,-125.86220136518773,21.990122959080843,33.21796565389698,-83.16736111111109,5.2049180327868765,33.421052631578945,-28.78666666666667,-10.854700854700862,-12.491803278688531,-3.6887966804979255,2.4901960784313744,2.6569037656903767,12.449379748630195,147.6529677687819,85.31499004335653,10726.224516349179,91.8293035982894,1182.9692952868115,1
-106.31926070038911,92.54110046781018,-57.0846089618703,-125.86220136518773,21.990122959080843,33.21796565389698,-83.16736111111109,15.614754098360647,57.18713450292398,-46.848888888888894,18.45299145299144,5.204918032786878,-2.6348547717842328,6.4745098039215705,12.221757322175732,20.57997610922917,412.36587275479,85.31499004335653,10726.224516349179,91.8293035982894,1182.9692952868115,1
-101.6,106.26241924704831,-60.548566657389365,-127.0,35.81394880064504,18.314619110524006,-79.19861111111109,15.614754098360647,57.18713450292398,-46.848888888888894,18.45299145299144,5.204918032786878,-2.6348547717842328,6.4745098039215705,12.221757322175732,20.57997610922917,412.36587275479,89.47032863481256,12119.651755521498,97.93699530147923,1155.9327612269476,1
-101.6,106.26241924704831,-60.548566657389365,-127.0,35.81394880064504,18.314619110524006,-79.19861111111109,7.286885245901631,14.111111111111112,-38.94666666666667,-10.854700854700862,-12.491803278688531,-15.282157676348548,-3.48627450980392,10.09623430962343,14.069479206605589,115.28073098520757,89.47032863481256,12119.651755521498,97.93699530147923,1155.9327612269476,1
-101.6,106.26241924704831,-60.548566657389365,-127.0,35.81394880064504,18.314619110524006,-79.19861111111109,-10.409836065573778,-55.70175438596492,-76.2,36.905982905982896,-7.105427357601002e-15,-4.742738589211619,1.4941176470588253,4.7824267782426775,23.77960704650434,843.3402250445737,89.47032863481256,12119.651755521498,97.93699530147923,1155.9327612269476,1
-86.52801556420233,116.50389841835596,-65.07291956582243,-124.72440273037535,48.59672109117787,1.034566270365488,-72.36354166666666,-10.409836065573778,-55.70175438596492,-76.2,36.905982905982896,-7.105427357601002e-15,-4.742738589211619,1.4941176470588253,4.7824267782426775,23.77960704650434,843.3402250445737,89.36827784946024,12442.070011496684,102.10040690485124,1045.1702867674367,1
-86.52801556420233,116.50389841835596,-65.07291956582243,-124.72440273037535,48.59672109117787,1.034566270365488,-72.36354166666666,8.327868852459009,27.47953216374269,-7.337777777777782,29.307692307692296,4.163934426229501,-43.73858921161826,3.4862745098039234,12.221757322175732,17.007928321437397,216.43327007308795,89.36827784946024,12442.070011496684,102.10040690485124,1045.1702867674367,1
-86.52801556420233,116.50389841835596,-65.07291956582243,-124.72440273037535,48.59672109117787,1.034566270365488,-72.36354166666666,3.122950819672123,12.625730994152049,5.079999999999995,26.05128205128204,5.204918032786878,-13.174273858921163,-2.490196078431371,4.7824267782426775,9.066472326686036,63.679369100841946,89.36827784946024,12442.070011496684,102.10040690485124,1045.1702867674367,1
-70.98657587548638,125.47226553798171,-71.9301419426663,-119.36049488054607,60.06537660417928,-18.370541611624816,-61.559722222222206,3.122950819672123,12.625730994152049,5.079999999999995,26.05128205128204,5.204918032786878,-13.174273858921163,-2.490196078431371,4.7824267782426775,9.066472326686036,63.679369100841946,89.46299445204481,12927.44619426686,105.58763412039802,858.9585199128272,1
-70.98657587548638,125.47226553798171,-71.9301419426663,-119.36049488054607,60.06537660417928,-18.370541611624816,-61.559722222222206,14.57377049180327,63.12865497076024,53.62222222222221,-9.769230769230777,-8.327868852459023,0.5269709543568464,-0.49803921568627274,14.347280334728033,20.599254726405835,578.4988117777453,89.46299445204481,12927.44619426686,105.58763412039802,858.9585199128272,1
-70.98657587548638,125.47226553798171,-71.9301419426663,-119.36049488054607,60.06537660417928,-18.370541611624816,-61.559722222222206,10.409836065573762,57.18713450292398,50.23555555555555,26.05128205128204,-16.65573770491804,-5.796680497925312,-0.49803921568627274,11.158995815899582,22.249157676220566,436.65708194535455,89.46299445204481,12927.44619426686,105.58763412039802,858.9585199128272,1
-74.24805447470817,126.99999999999997,-79.4471657853233,-111.45008532423208,72.25082308674328,-37.55195948921178,-47.97777777777776,10.409836065573762,57.18713450292398,50.23555555555555,26.05128205128204,-16.65573770491804,-5.796680497925312,-0.49803921568627274,11.158995815899582,22.249157676220566,436.65708194535455,93.56507342001048,13858.040408178002,105.96575036985178,587.876457881009,1
-74.24805447470817,126.99999999999997,-79.4471657853233,-111.45008532423208,72.25082308674328,-37.55195948921178,-47.97777777777776,16.655737704918025,80.953216374269,-6.208888888888893,13.025641025641015,10.409836065573762,3.6887966804979246,3.4862745098039234,5.845188284518828,17.534197441763922,678.2517242407067,93.56507342001048,13858.040408178002,105.96575036985178,587.876457881009,1
-74.24805447470817,126.99999999999997,-79.4471657853233,-111.45008532423208,72.25082308674328,-37.55195948921178,-47.97777777777776,6.245901639344254,31.935672514619885,87.48888888888888,15.196581196581185,8.327868852459009,20.551867219917014,10.458823529411767,7.970711297071129,23.52203939228664,740.357343142465,93.56507342001048,13858.040408178002,105.96575036985178,587.876457881009,1
-73.72918287937743,117.83359322789039,-85.05547824473513,-101.86006825938557,84.47040247261978,-54.74812857771906,-31.794097222222206,6.245901639344254,31.935672514619885,87.48888888888888,15.196581196581185,8.327868852459009,20.551867219917014,10.458823529411767,7.970711297071129,23.52203939228664,740.357343142465,92.20608478400099,12998.092913275115,101.58304657733703,268.65876122148063,1
-73.72918287937743,117.83359322789039,-85.05547824473513,-101.86006825938557,84.47040247261978,-54.74812857771906,-31.794097222222206,-3.1229508196721394,-18.567251461988306,46.84888888888888,27.136752136752126,-16.65573770491804,-24.767634854771785,-10.458823529411763,9.03347280334728,19.573939024968787,186.06351414381888,92.20608478400099,12998.092913275115,101.58304657733703,268.65876122148063,1
-73.72918287937743,117.83359322789039,-85.05547824473513,-101.86006825938557,84.47040247261978,-54.74812857771906,-31.794097222222206,-4.163934426229517,-17.081871345029242,11.853333333333328,11.94017094017093,-4.163934426229515,-5.796680497925312,17.43137254901961,0.531380753138075,9.120334783884442,40.26125547615873,92.20608478400099,12998.092913275115,101.58304657733703,268.65876122148063,1
-61.05389105058366,113.75963466250833,-89.1556730680026,-90.42790102389074,95.52946314587115,-71.44099515631879,-12.17083333333332,-4.163934426229517,-17.081871345029242,11.853333333333328,11.94017094017093,-4.163934426229515,-5.796680497925312,17.43137254901961,0.531380753138075,9.120334783884442,40.26125547615873,87.98973292703153,12087.350172694058,97.78106958480056,191.8905474498427,1
-61.05389105058366,113.75963466250833,-89.1556730680026,-90.42790102389074,95.52946314587115,-71.44099515631879,-12.17083333333332,-1.0409836065573845,-2.228070175438596,0.5644444444444403,17.367521367521356,-7.105427357601002e-15,-1.58091286307054,0.4980392156862763,11.158995815899582,4.304870936077272,41.00179221542292,87.98973292703153,12087.350172694058,97.78106958480056,191.8905474498427,1
-61.05389105058366,113.75963466250833,-89.1556730680026,-90.42790102389074,95.52946314587115,-71.44099515631879,-12.17083333333332,-1.0409836065573845,-15.596491228070178,-77.32888888888888,33.64957264957263,-6.24590163934427,-5.796680497925312,-6.474509803921567,-1.5941422594142267,18.465896321711806,677.9348178427744,87.98973292703153,12087.350172694058,97.78106958480056,191.8905474498427,1
-42.10272373540856,110.42125194920916,-88.82577233509602,-77.58703071672346,104.55761607202851,-87.7983267283135,10.495138888888903,-1.0409836065573845,-15.596491228070178,-77.32888888888888,33.64957264957263,-6.24590163934427,-5.796680497925312,-6.474509803921567,-1.5941422594142267,18.465896321711806,677.9348178427744,80.44991600657124,10857.663852540187,92.27801833367623,278.4600228119885,1
-42.10272373540856,110.42125194920916,-88.82577233509602,-77.58703071672346,104.55761607202851,-87.7983267283135,10.495138888888903,6.245901639344254,9.654970760233919,-62.653333333333336,18.45299145299144,-4.163934426229515,6.850622406639005,-10.458823529411763,9.03347280334728,15.939256293941314,374.42338387888316,80.44991600657124,10857.663852540187,92.27801833367623,278.4600228119885,1
-42.10272373540856,110.42125194920916,-88.82577233509602,-77.58703071672346,104.55761607202851,-87.7983267283135,10.495138888888903,8.327868852459009,66.09941520467837,49.10666666666666,-15.196581196581207,8.327868852459009,19.49792531120332,2.4901960784313744,17.535564853556487,23.322760877004427,498.9281548713617,80.44991600657124,10857.663852540187,92.27801833367623,278.4600228119885,1
-22.212645914396887,105.21563822677655,-91.34715650802485,-63.987627986348116,111.57192770274813,-103.68031704095111,37.17395833333336,8.327868852459009,66.09941520467837,49.10666666666666,-15.196581196581207,8.327868852459009,19.49792531120332,2.4901960784313744,17.535564853556487,23.322760877004427,498.9281548713617,72.92514688306609,9942.41340468996,86.85014090704983,440.1045690827774,1
-22.212645914396887,105.21563822677655,-91.34715650802485,-63.987627986348116,111.57192770274813,-103.68031704095111,37.17395833333336,6.245901639344254,11.140350877192983,-36.68888888888889,5.427350427350417,-9.3688524590164,-15.282157676348548,-8.466666666666665,11.158995815899582,12.972395556338467,101.41605792346546,72.92514688306609,9942.41340468996,86.85014090704983,440.1045690827774,1
-22.212645914396887,105.21563822677655,-91.34715650802485,-63.987627986348116,111.57192770274813,-103.68031704095111,37.17395833333336,2.081967213114746,5.198830409356727,-14.111111111111114,13.025641025641015,-22.9016393442623,-55.33195020746888,-22.41176470588235,2.6569037656903767,17.214975972815935,303.5380224760192,72.92514688306609,9942.41340468996,86.85014090704983,440.1045690827774,1
-7.437159533073931,82.78057473824903,-98.3222005751925,-52.609641638225185,117.03319223274879,-116.0112285336856,67.29236111111113,2.081967213114746,5.198830409356727,-14.111111111111114,13.025641025641015,-22.9016393442623,-55.33195020746888,-22.41176470588235,2.6569037656903767,17.214975972815935,303.5380224760192,62.84664494883848,8199.590914751583,77.9041389838889,540.2442303912289,1
-7.437159533073931,82.78057473824903,-98.3222005751925,-52.609641638225185,117.03319223274879,-116.0112285336856,67.29236111111113,4.1639344262295,23.023391812865498,-17.49777777777778,-2.170940170940181,-28.106557377049185,-12.120331950207468,14.443137254901963,12.221757322175732,14.218478511518413,76.54795133993443,62.84664494883848,8199.590914751583,77.9041389838889,540.2442303912289,1
-7.437159533073931,82.78057473824903,-98.3222005751925,-52.609641638225185,117.03319223274879,-116.0112285336856,67.29236111111113,10.409836065573762,33.421052631578945,85.2311111111111,26.05128205128204,-5.2049180327868925,-123.83817427385893,-1.4941176470588218,18.598326359832633,38.03110227163539,1901.219976262995,62.84664494883848,8199.590914751583,77.9041389838889,540.2442303912289,1
-13.04591439688716,53.61216306527065,-95.5651730216161,-44.91595563139924,121.64113417993686,-122.69396741523556,93.35381944444447,10.409836065573762,33.421052631578945,85.2311111111111,26.05128205128204,-5.2049180327868925,-123.83817427385893,-1.4941176470588218,18.598326359832633,38.03110227163539,1901.219976262995,54.07441682792464,5584.434156150983,64.69776390609533,733.5037150619312,1
-13.04591439688716,53.61216306527065,-95.5651730216161,-44.91595563139924,121.64113417993686,-122.69396741523556,93.35381944444447,8.327868852459009,15.596491228070176,-23.142222222222227,19.538461538461526,-8.327868852459023,26.87551867219917,-8.466666666666665,-5.845188284518828,14.515035789632078,63.1321898826695,54.07441682792464,5584.434156150983,64.69776390609533,733.5037150619312,1
-13.04591439688716,53.61216306527065,-95.5651730216161,-44.91595563139924,121.64113417993686,-122.69396741523556,93.35381944444447,21.86065573770491,69.0701754385965,26.528888888888886,30.39316239316238,33.311475409836056,19.49792531120332,11.454901960784316,12.221757322175732,28.04236780779401,336.5025926558568,54.07441682792464,5584.434156150983,64.69776390609533,733.5037150619312,1
-19.44533073929961,27.697259968812638,-78.83449299563966,-39.44368600682594,125.53228515756234,-125.96543372963453,112.13923611111113,21.86065573770491,69.0701754385965,26.528888888888886,30.39316239316238,33.311475409836056,19.49792531120332,11.454901960784316,12.221757322175732,28.04236780779401,336.5025926558568,41.992361234583974,2849.7518069769285,48.65847965709275,717.4384669227503,1
-19.44533073929961,27.697259968812638,-78.83449299563966,-39.44368600682594,125.53228515756234,-125.96543372963453,112.13923611111113,2.081967213114746,5.198830409356727,-47.97777777777778,-21.709401709401718,-15.614754098360663,-46.90041493775934,-11.454901960784312,13.284518828451883,20.527820866875892,312.0798511651883,41.992361234583974,2849.7518069769285,48.65847965709275,717.4384669227503,1
-19.44533073929961,27.697259968812638,-78.83449299563966,-39.44368600682594,125.53228515756234,-125.96543372963453,112.13923611111113,4.1639344262295,27.47953216374269,-86.36,22.79487179487178,-8.327868852459023,-0.5269709543568464,1.4941176470588253,5.845188284518828,19.624060515404686,825.0455029608357,41.992361234583974,2849.7518069769285,48.65847965709275,717.4384669227503,1
-13.663618677042802,4.073958565382032,-53.50282957602746,-37.60153583617739,127.00000000000001,-127.0,123.29583333333336,4.1639344262295,27.47953216374269,-86.36,22.79487179487178,-8.327868852459023,-0.5269709543568464,1.4941176470588253,5.845188284518828,19.624060515404686,825.0455029608357,23.746802272817433,869.4784840275863,31.726107992528956,636.6938116061954,1
-13.663618677042802,4.073958565382032,-53.50282957602746,-37.60153583617739,127.00000000000001,-127.0,123.29583333333336,4.1639344262295,17.081871345029242,6.208888888888884,51.017094017094,73.90983606557376,60.601659751037346,7.4705882352941195,10.09623430962343,28.81876337984629,799.8889353465303,23.746802272817433,869.4784840275863,31.726107992528956,636.6938116061954,1
-13.663618677042802,4.073958565382032,-53.50282957602746,-37.60153583617739,127.00000000000001,-127.0,123.29583333333336,-2.081967213114762,-17.081871345029242,-47.97777777777778,-28.22222222222223,5.204918032786878,20.551867219917014,-21.415686274509802,5.845188284518828,18.547687296234567,226.3743620157945,23.746802272817433,869.4784840275863,31.726107992528956,636.6938116061954,1
-8.079571984435798,-19.57763421697484,-29.090175340940718,-39.877133105802045,126.19787677215616,-125.90951122853369,127.00000000000003,-2.081967213114762,-17.081871345029242,-47.97777777777778,-28.22222222222223,5.204918032786878,20.551867219917014,-21.415686274509802,5.845188284518828,18.547687296234567,226.3743620157945,18.915793847450452,110.68988785714308,29.514980887905867,103.1527585989235,1
-8.079571984435798,-19.57763421697484,-29.090175340940718,-39.877133105802045,126.19787677215616,-125.90951122853369,127.00000000000003,12.491803278688515,36.39181286549707,-40.07555555555556,29.307692307692296,14.57377049180327,31.09128630705394,9.462745098039218,7.970711297071129,22.670672150175125,166.55197461435253,18.915793847450452,110.68988785714308,29.514980887905867,103.1527585989235,1
-8.079571984435798,-19.57763421697484,-29.090175340940718,-39.877133105802045,126.19787677215616,-125.90951122853369,127.00000000000003,3.122950819672123,5.198830409356727,-0.5644444444444492,54.27350427350426,4.163934426229501,12.120331950207468,3.4862745098039234,6.907949790794978,11.229777578001677,313.9948520360272,18.915793847450452,110.68988785714308,29.514980887905867,103.1527585989235,1
-4.669844357976656,-38.47627533971932,0.7422766490397983,-45.24104095563132,123.00645031243702,-123.58872743284894,121.70833333333336,3.122950819672123,5.198830409356727,-0.5644444444444492,54.27350427350426,4.163934426229501,12.120331950207468,3.4862745098039234,6.907949790794978,11.229777578001677,313.9948520360272,14.629465448911924,451.7101082688202,28.153197648130146,574.9594559733355,1
-4.669844357976656,-38.47627533971932,0.7422766490397983,-45.24104095563132,123.00645031243702,-123.58872743284894,121.70833333333336,5.2049180327868765,9.654970760233919,-2.8222222222222264,-2.170940170940181,-35.39344262295083,-15.282157676348548,5.4784313725490215,11.158995815899582,10.895759834241396,117.71763065064981,14.629465448911924,451.7101082688202,28.153197648130146,574.9594559733355,1
-4.669844357976656,-38.47627533971932,0.7422766490397983,-45.24104095563132,123.00645031243702,-123.58872743284894,121.70833333333336,12.491803278688515,39.36257309941521,6.208888888888884,55.35897435897434,-5.2049180327868925,14.228215767634854,10.458823529411767,14.347280334728033,19.707684661316062,320.892244867783,14.629465448911924,451.7101082688202,28.153197648130146,574.9594559733355,1
5.92996108949416,-56.04522165292939,33.284627516467204,-53.5307167235494,116.52119868306123,-120.23337736679875,107.90590277777781,12.491803278688515,39.36257309941521,6.208888888888884,55.35897435897434,-5.2049180327868925,14.228215767634854,10.458823529411767,14.347280334728033,19.707684661316062,320.892244867783,31.75327008629692,2094.8371673191514,47.620188630982,155.7119181109606,1
5.92996108949416,-56.04522165292939,33.284627516467204,-53.5307167235494,116.52119868306123,-120.23337736679875,107.90590277777781,-21.860655737704924,-110.66081871345028,-47.97777777777778,43.41880341880341,10.409836065573762,-94.32780082987553,-6.474509803921567,0.531380753138075,41.957697887530664,1696.4968230394843,31.75327008629692,2094.8371673191514,47.620188630982,155.7119181109606,1
5.92996108949416,-56.04522165292939,33.284627516467204,-53.5307167235494,116.52119868306123,-120.23337736679875,107.90590277777781,20.81967213114753,27.47953216374269,-7.337777777777782,5.427350427350417,-2.0819672131147615,42.684647302904565,13.447058823529414,20.723849372384937,17.50023190149401,179.77609211114472,31.75327008629692,2094.8371673191514,47.620188630982,155.7119181109606,1
18.679377431906616,-78.42370238360438,57.62658873735968,-64.80034129692831,106.9127864005913,-114.44539850286216,88.01805555555558,20.81967213114753,27.47953216374269,-7.337777777777782,5.427350427350417,-2.0819672131147615,42.684647302904565,13.447058823529414,20.723849372384937,17.50023190149401,179.77609211114472,51.57655618429023,4909.262515371364,66.95021080596412,111.59643818311577,1
18.679377431906616,-78.42370238360438,57.62658873735968,-64.80034129692831,106.9127864005913,-114.44539850286216,88.01805555555558,1.0409836065573685,-12.625730994152043,-19.75555555555556,-3.256410256410266,-14.573770491803286,-35.30705394190872,-0.49803921568627274,13.284518828451883,12.542757861315675,134.0745775571717,51.57655618429023,4909.262515371364,66.95021080596412,111.59643818311577,1
18.679377431906616,-78.42370238360438,57.62658873735968,-64.80034129692831,106.9127864005913,-114.44539850286216,88.01805555555558,4.1639344262295,24.50877192982456,-22.013333333333335,-21.709401709401718,-83.27868852459017,-40.57676348547718,4.482352941176472,1.5941422594142258,25.290923576180894,723.0433100733595,51.57655618429023,4909.262515371364,66.95021080596412,111.59643818311577,1
30.68754863813229,-95.20049008687904,71.85944892847202,-76.99104095563132,94.88093798293357,-106.2527520915896,65.2197916666667,4.1639344262295,24.50877192982456,-22.013333333333335,-21.709401709401718,-83.27868852459017,-40.57676348547718,4.482352941176472,1.5941422594142258,25.290923576180894,723.0433100733595,65.91582921782778,7575.324481893408,81.35032665699413,150.45357945919233,1
30.68754863813229,-95.20049008687904,71.85944892847202,-76.99104095563132,94.88093798293357,-106.2527520915896,65.2197916666667,11.45081967213114,64.6140350877193,33.30222222222221,7.598290598290588,-10.409836065573778,25.821576763485474,-1.4941176470588218,12.221757322175732,20.864081922332133,416.72996625583426,65.91582921782778,7575.324481893408,81.35032665699413,150.45357945919233,1
30.68754863813229,-95.20049008687904,71.85944892847202,-76.99104095563132,94.88093798293357,-106.2527520915896,65.2197916666667,12.491803278688515,45.30409356725146,5.079999999999995,-33.649572649572654,-45.80327868852459,-7.904564315352697,-1.4941176470588218,11.158995815899582,20.36080324529354,333.89796615012347,65.91582921782778,7575.324481893408,81.35032665699413,150.45357945919233,1
34.36906614785992,-106.0643795945645,81.78003525373411,-86.74360068259386,82.23469730565076,-96.9416556583003,40.878125000000026,12.491803278688515,45.30409356725146,5.079999999999995,-33.649572649572654,-45.80327868852459,-7.904564315352697,-1.4941176470588218,11.158995815899582,20.36080324529354,333.89796615012347,74.07116033205284,9542.479477391389,91.5293385102975,164.6098099326403,1
34.36906614785992,-106.0643795945645,81.78003525373411,-86.74360068259386,82.23469730565076,-96.9416556583003,40.878125000000026,26.024590163934416,61.643274853801174,24.271111111111104,-3.256410256410266,-32.270491803278695,-15.282157676348548,-24.40392156862745,7.970711297071129,24.39033359132285,321.68132851987474,74.07116033205284,9542.479477391389,91.5293385102975,164.6098099326403,1
34.36906614785992,-106.0643795945645,81.78003525373411,-86.74360068259386,82.23469730565076,-96.9416556583003,40.878125000000026,2.081967213114746,-46.78947368421052,-71.68444444444445,9.76923076923076,36.43442622950819,-35.30705394190872,-72.2156862745098,-26.037656903765694,37.539992432586615,660.1141456301042,74.07116033205284,9542.479477391389,91.5293385102975,164.6098099326403,1
45.685408560311274,-118.42771218534196,79.70637350403562,-96.27943686006824,67.79647920446148,-84.5827829150154,18.432638888888903,2.081967213114746,-46.78947368421052,-71.68444444444445,9.76923076923076,36.43442622950819,-35.30705394190872,-72.2156862745098,-26.037656903765694,37.539992432586615,660.1141456301042,81.2731647498963,11224.60972809085,98.13784084981528,377.42576635993834,1
45.685408560311274,-118.42771218534196,79.70637350403562,-96.27943686006824,67.79647920446148,-84.5827829150154,18.432638888888903,13.532786885245892,40.84795321637427,32.173333333333325,41.247863247863236,12.491803278688515,-27.929460580912863,112.05882352941177,-2.6569037656903767,35.367365979690035,1154.5336540457586,81.2731647498963,11224.60972809085,98.13784084981528,377.42576635993834,1
45.685408560311274,-118.42771218534196,79.70637350403562,-96.27943686006824,67.79647920446148,-84.5827829150154,18.432638888888903,-26.024590163934434,0.742690058479532,-35.56,17.367521367521356,-28.106557377049185,-42.684647302904565,-33.36862745098039,-14.347280334728033,24.77523925694969,180.67755317007615,81.2731647498963,11224.60972809085,98.13784084981528,377.42576635993834,1
71.70311284046691,-127.0,70.37489563039243,-104.4607508532423,50.14976819189681,-70.43439013650374,2.0284722222222342,-26.024590163934434,0.742690058479532,-35.56,17.367521367521356,-28.106557377049185,-42.684647302904565,-33.36862745098039,-14.347280334728033,24.77523925694969,180.67755317007615,89.69266949028645,13073.59010642613,100.61188216121157,812.7109538736083,1
71.70311284046691,-127.0,70.37489563039243,-104.4607508532423,50.14976819189681,-70.43439013650374,2.0284722222222342,-28.106557377049185,40.84795321637427,11.853333333333328,13.025641025641015,15.614754098360649,17.390041493775932,84.1686274509804,22.84937238493724,29.232035047556504,583.6133506712631,89.69266949028645,13073.59010642613,100.61188216121157,812.7109538736083,1
71.70311284046691,-127.0,70.37489563039243,-104.4607508532423,50.14976819189681,-70.43439013650374,2.0284722222222342,88.48360655737703,28.964912280701757,-10.724444444444448,8.683760683760674,26.024590163934416,72.19502074688796,41.33725490196079,113.18410041841004,48.699711274684645,1470.6072427688316,89.69266949028645,13073.59010642613,100.61188216121157,812.7109538736083,1
94.45933852140077,-123.23724660280686,75.74756470915669,-106.79052901023886,30.1990862057381,-56.817261118450006,-11.950347222222206,88.48360655737703,28.964912280701757,-10.724444444444448,8.683760683760674,26.024590163934416,72.19502074688796,41.33725490196079,113.18410041841004,48.699711274684645,1470.6072427688316,97.81471661112143,14556.148131133285,101.92511344073414,581.5716730880055,1
94.45933852140077,-123.23724660280686,75.74756470915669,-106.79052901023886,30.1990862057381,-56.817261118450006,-11.950347222222206,3.122950819672123,24.50877192982456,-10.724444444444448,-3.256410256410266,48.92622950819671,22.6597510373444,-100.10588235294118,-26.037656903765694,29.917762156574923,1025.9797442476386,97.81471661112143,14556.148131133285,101.92511344073414,581.5716730880055,1
94.45933852140077,-123.23724660280686,75.74756470915669,-106.79052901023886,30.1990862057381,-56.817261118450006,-11.950347222222206,-127.0,25.994152046783626,-2.8222222222222264,29.307692307692296,-21.860655737704924,-4.742738589211619,-92.13725490196079,-127.0,53.85808947569693,2797.815267286401,97.81471661112143,14556.148131133285,101.92511344073414,581.5716730880055,1
95.49708171206225,-121.37001559367343,102.32813804620093,-100.77645051194531,9.156151313579258,-41.91391457507706,-32.676041666666634,-127.0,25.994152046783626,-2.8222222222222264,29.307692307692296,-21.860655737704924,-4.742738589211619,-92.13725490196079,-127.0,53.85808947569693,2797.815267286401,106.39841178397887,16186.477527724075,108.1582013839399,131.51595958537882,1
95.49708171206225,-121.37001559367343,102.32813804620093,-100.77645051194531,9.156151313579258,-41.91391457507706,-32.676041666666634,-127.0,25.994152046783626,-2.8222222222222264,29.307692307692296,-21.860655737704924,-4.742738589211619,-92.13725490196079,-127.0,53.85808947569693,2797.815267286401,106.39841178397887,16186.477527724075,108.1582013839399,131.51595958537882,1
95.49708171206225,-121.37001559367343,102.32813804620093,-100.77645051194531,9.156151313579258,-41.91391457507706,-32.676041666666634,111.38524590163932,49.760233918128655,0.5644444444444403,-37.991452991452995,-127.0,-42.684647302904565,79.18823529411765,127.0,71.94678248158596,2180.923232976706,106.39841178397887,16186.477527724075,108.1582013839399,131.51595958537882,1
95.49708171206225,-121.37001559367343,102.32813804620093,-100.77645051194531,9.156151313579258,-41.91391457507706,-32.676041666666634,-11.450819672131153,37.877192982456144,34.43111111111111,90.09401709401708,114.50819672131146,96.4356846473029,-52.294117647058826,-24.97489539748954,57.75825440910978,1421.49960844823,106.39841178397887,16186.477527724075,108.1582013839399,131.51595958537882,1
84.00778210116731,-88.58030741813322,123.818814361258,-83.76365187713304,-10.231337767923122,-29.694848084544248,-61.20694444444442,-11.450819672131153,37.877192982456144,34.43111111111111,90.09401709401708,114.50819672131146,96.4356846473029,-52.294117647058826,-24.97489539748954,57.75825440910978,1421.49960844823,98.8023012935195,12747.492311032125,98.72092455217474,478.2280973018256,1
84.00778210116731,-88.58030741813322,123.818814361258,-83.76365187713304,-10.231337767923122,-29.694848084544248,-61.20694444444442,-96.81147540983606,-34.90643274853801,-38.94666666666667,-41.24786324786326,-84.31967213114754,-105.92116182572614,-23.4078431372549,-75.98744769874477,62.693570358222175,1002.3426757213191,98.8023012935195,12747.492311032125,98.72092455217474,478.2280973018256,1
