Gyro 0,Gyro 1,Gyro 2,Orientation 0,Orientation 1,Orientation 2,Orientation 3,Sensor 0,Sensor 1,Sensor 2,Sensor 3,Sensor 4,Sensor 5,Sensor 6,Sensor 7,Sensor Mean,Sensor Variance,Gyro Mean,Gyro Variance,Orientation Mean,Orientation Variance,Label
0.9578971068332729,-67.32476224022543,-18.912654346565024,64.68576947842882,-81.6382677324699,116.89562043795618,-103.37895008383852,-4.253588516746419,10.181434599156123,59.266666666666666,-10.95939086294415,19.150793650793645,-6.474509803921567,-0.49803921568627274,-4.590361445783127,14.421848095212246,360.06780967141185,29.06510456454124,1233.515428879338,50.30772868840643,740.979090396515,1
0.9578971068332729,-67.32476224022543,-18.912654346565024,64.68576947842882,-81.6382677324699,116.89562043795618,-103.37895008383852,-9.114832535885174,-10.181434599156113,-86.16078431372549,-13.538071065989836,5.039682539682536,-0.49803921568627274,1.4941176470588253,1.5301204819277165,15.944635299888995,827.1529778600168,29.06510456454124,1233.515428879338,50.30772868840643,740.979090396515,1
0.9578971068332729,-67.32476224022543,-18.912654346565024,64.68576947842882,-81.6382677324699,116.89562043795618,-103.37895008383852,-7.899521531100485,-23.042194092827,-8.466666666666665,-21.274111675126893,1.0079365079365044,-11.454901960784312,-8.466666666666665,-7.650602409638549,11.157825188843384,54.869684870538045,29.06510456454124,1233.515428879338,50.30772868840643,740.979090396515,1
0.9578971068332729,-67.32476224022543,-18.912654346565024,64.68576947842882,-81.6382677324699,116.89562043795618,-103.37895008383852,12.760765550239228,59.481012658227854,94.12941176470588,-27.720812182741106,8.06349206349206,4.482352941176472,0.4980392156862763,-3.5702811244979866,26.33827093759586,1125.4411151678169,29.06510456454124,1233.515428879338,50.30772868840643,740.979090396515,1
2.7021276595744643,-66.7879535047552,-16.93403497140964,66.81197681905985,-81.4326621471213,118.16253041362529,-103.54275764220301,12.760765550239228,59.481012658227854,94.12941176470588,-27.720812182741106,8.06349206349206,4.482352941176472,0.4980392156862763,-3.5702811244979866,26.33827093759586,1125.4411151678169,28.8080387119131,1283.3105760375056,50.17798843174156,828.8704755344436,1
2.7021276595744643,-66.7879535047552,-16.93403497140964,66.81197681905985,-81.4326621471213,118.16253041362529,-103.54275764220301,4.2535885167464045,14.468354430379751,28.38823529411765,-0.6446700507614089,17.134920634920633,12.450980392156865,6.4745098039215705,7.6506024096385605,11.433232691580354,76.72381883788502,28.8080387119131,1283.3105760375056,50.17798843174156,828.8704755344436,1
2.7021276595744643,-66.7879535047552,-16.93403497140964,66.81197681905985,-81.4326621471213,118.16253041362529,-103.54275764220301,-1.822966507177041,10.181434599156123,48.30980392156863,-1.9340101522842517,-6.047619047619051,-6.474509803921567,0.4980392156862763,-6.630522088353408,10.237363166970793,246.97691003769026,28.8080387119131,1283.3105760375056,50.17798843174156,828.8704755344436,1
3.674321738151521,-66.92215568862275,-14.408137896743197,69.75595621377977,-81.45836284528988,119.6302919708029,-104.09970334064234,-1.822966507177041,10.181434599156123,48.30980392156863,-1.9340101522842517,-6.047619047619051,-6.474509803921567,0.4980392156862763,-6.630522088353408,10.237363166970793,246.97691003769026,28.334871774505825,1344.7600060270813,50.36208326638191,971.5222470863185,1
3.674321738151521,-66.92215568862275,-14.408137896743197,69.75595621377977,-81.45836284528988,119.6302919708029,-104.09970334064234,-10.330143540669862,-38.0464135021097,22.411764705882355,4.512690355329962,-1.0079365079365115,4.482352941176472,-1.4941176470588218,-12.751004016064252,11.879552902028493,161.97581643668232,28.334871774505825,1344.7600060270813,50.36208326638191,971.5222470863185,1
3.674321738151521,-66.92215568862275,-14.408137896743197,69.75595621377977,-81.45836284528988,119.6302919708029,-104.09970334064234,-4.253588516746419,-36.974683544303794,-22.41176470588235,-8.380710659898465,10.079365079365076,-3.48627450980392,-10.458823529411763,-10.71084337349397,13.34450673986322,124.42767593966667,28.334871774505825,1344.7600060270813,50.36208326638191,971.5222470863185,1
-2.9022852639873955,-67.1010919337795,-12.134830529543395,71.0643915003219,-80.22472933319841,121.29890510948903,-104.82045659744615,-4.253588516746419,-36.974683544303794,-22.41176470588235,-8.380710659898465,10.079365079365076,-3.48627450980392,-10.458823529411763,-10.71084337349397,13.34450673986322,124.42767593966667,27.379402575770097,1204.669427110783,50.10010465454827,1084.9484654036123,1
-2.9022852639873955,-67.1010919337795,-12.134830529543395,71.0643915003219,-80.22472933319841,121.29890510948903,-104.82045659744615,6.6842105263157805,21.970464135021103,14.443137254901963,-30.29949238578679,-19.150793650793652,-30.380392156862744,-26.396078431372548,2.5502008032128574,18.984346168033433,109.1111182283954,27.379402575770097,1204.669427110783,50.10010465454827,1084.9484654036123,1
-2.9022852639873955,-67.1010919337795,-12.134830529543395,71.0643915003219,-80.22472933319841,121.29890510948903,-104.82045659744615,-7.899521531100485,-20.898734177215182,-6.474509803921567,32.8781725888325,21.166666666666664,33.3686274509804,-11.454901960784312,-0.5100401606425646,16.831396792517957,149.80767033594762,27.379402575770097,1204.669427110783,50.10010465454827,1084.9484654036123,1
-2.1016548463357014,-64.28284607256076,-12.576862517610023,72.26379051298557,-78.88829302843266,123.02931873479316,-106.26196311105379,-7.899521531100485,-20.898734177215182,-6.474509803921567,32.8781725888325,21.166666666666664,33.3686274509804,-11.454901960784312,-0.5100401606425646,16.831396792517957,149.80767033594762,26.320454478835497,1108.2898755755878,49.70783303438544,1049.9555971785212,1
-2.1016548463357014,-64.28284607256076,-12.576862517610023,72.26379051298557,-78.88829302843266,123.02931873479316,-106.26196311105379,-18.837320574162685,-27.329113924050628,-63.25098039215686,-29.01015228426395,-8.063492063492067,6.4745098039215705,-0.49803921568627274,-9.69076305220883,20.394296413742858,402.5257248247661,26.320454478835497,1108.2898755755878,49.70783303438544,1049.9555971785212,1
-2.1016548463357014,-64.28284607256076,-12.576862517610023,72.26379051298557,-78.88829302843266,123.02931873479316,-106.26196311105379,5.4688995215310925,-12.324894514767927,18.42745098039216,-16.11675126903552,15.119047619047615,-2.490196078431371,3.4862745098039234,-0.5100401606425646,9.242944331706521,49.268182409501286,26.320454478835497,1108.2898755755878,49.70783303438544,1049.9555971785212,1
2.6449397725993427,-62.26981331454737,-15.271152730587565,74.88066108606995,-78.65698674491551,124.54343065693429,-107.60518508964273,5.4688995215310925,-12.324894514767927,18.42745098039216,-16.11675126903552,15.119047619047615,-2.490196078431371,3.4862745098039234,-0.5100401606425646,9.242944331706521,49.268182409501286,26.72863527257809,1123.964272605705,50.807209043734964,986.8668440975162,1
2.6449397725993427,-62.26981331454737,-15.271152730587565,74.88066108606995,-78.65698674491551,124.54343065693429,-107.60518508964273,-11.545454545454552,-28.400843881856535,-17.431372549019606,-1.9340101522842517,-4.031746031746035,12.450980392156865,69.22745098039216,-6.630522088353408,18.956547577657926,482.91124439423504,26.72863527257809,1123.964272605705,50.807209043734964,986.8668440975162,1
2.6449397725993427,-62.26981331454737,-15.271152730587565,74.88066108606995,-78.65698674491551,124.54343065693429,-107.60518508964273,-22.483253588516753,-48.76371308016877,-41.33725490196078,0.6446700507614338,-8.063492063492067,-4.482352941176469,-11.454901960784312,-5.610441767068267,17.855010044241105,327.1389722935878,26.72863527257809,1123.964272605705,50.807209043734964,986.8668440975162,1
-3.8458853990768924,-57.25959845015851,-18.260130935609524,76.02554196179437,-77.96306789436406,125.65583941605837,-108.32593834644655,-22.483253588516753,-48.76371308016877,-41.33725490196078,0.6446700507614338,-8.063492063492067,-4.482352941176469,-11.454901960784312,-5.610441767068267,17.855010044241105,327.1389722935878,26.455204928281642,763.6256137848499,50.51509044918746,868.3269688873913,1
-3.8458853990768924,-57.25959845015851,-18.260130935609524,76.02554196179437,-77.96306789436406,125.65583941605837,-108.32593834644655,-16.406698564593306,-54.122362869198305,-53.29019607843137,-18.695431472081207,7.055555555555552,-1.4941176470588218,-24.40392156862745,1.5301204819277165,22.12480052968422,445.9465138386783,26.455204928281642,763.6256137848499,50.51509044918746,868.3269688873913,1
-3.8458853990768924,-57.25959845015851,-18.260130935609524,76.02554196179437,-77.96306789436406,125.65583941605837,-108.32593834644655,-11.545454545454552,-30.54430379746835,0.4980392156862763,-26.431472081218264,6.047619047619044,-9.462745098039214,3.4862745098039234,-2.550200803212846,11.320763637312808,126.37430499265041,26.455204928281642,763.6256137848499,50.51509044918746,868.3269688873913,1
-1.0150849938084021,-55.02289538569919,-20.407143449076003,77.49753165915433,-77.8345644035212,126.45924574209243,-108.85012253321295,-11.545454545454552,-30.54430379746835,0.4980392156862763,-26.431472081218264,6.047619047619044,-9.462745098039214,3.4862745098039234,-2.550200803212846,11.320763637312808,126.37430499265041,25.481707942861195,748.5242994327956,50.97585683130984,827.111997289898,1
-1.0150849938084021,-55.02289538569919,-20.407143449076003,77.49753165915433,-77.8345644035212,126.45924574209243,-108.85012253321295,-0.607655502392352,-2.679324894514762,-19.423529411764704,-23.852791878172578,-17.13492063492064,15.439215686274512,6.4745098039215705,-7.650602409638549,11.657818777699958,71.28073909532661,25.481707942861195,748.5242994327956,50.97585683130984,827.111997289898,1
-1.0150849938084021,-55.02289538569919,-20.407143449076003,77.49753165915433,-77.8345644035212,126.45924574209243,-108.85012253321295,-1.822966507177041,5.894514767932495,12.450980392156865,-26.431472081218264,19.150793650793645,-6.474509803921567,-7.470588235294116,-1.5301204819277052,10.153243240052712,76.26206941931916,25.481707942861195,748.5242994327956,50.97585683130984,827.111997289898,1
0.8435213328830309,-51.08629799225079,-22.469959393386937,79.35114831508906,-78.34857836689264,126.95364963503648,-109.27602218496067,-1.822966507177041,5.894514767932495,12.450980392156865,-26.431472081218264,19.150793650793645,-6.474509803921567,-7.470588235294116,-1.5301204819277052,10.153243240052712,76.26206941931916,24.79992623950692,676.5198922533382,50.9691352335756,808.8777086206076,1
0.8435213328830309,-51.08629799225079,-22.469959393386937,79.35114831508906,-78.34857836689264,126.95364963503648,-109.27602218496067,-7.899521531100485,-10.181434599156113,-2.490196078431371,-13.538071065989836,-9.071428571428575,-18.427450980392155,10.458823529411767,4.590361445783138,9.582160975211679,24.76031396552546,24.79992623950692,676.5198922533382,50.9691352335756,808.8777086206076,1
0.8435213328830309,-51.08629799225079,-22.469959393386937,79.35114831508906,-78.34857836689264,126.95364963503648,-109.27602218496067,1.8229665071770258,2.6793248945147727,-14.44313725490196,-12.248730964466993,-27.214285714285715,-4.482352941176469,14.443137254901963,-5.610441767068267,10.368047162311646,72.8509289306838,24.79992623950692,676.5198922533382,50.9691352335756,808.8777086206076,1
0.18586063266913921,-45.13666784078901,-24.385431341675655,80.05988409529937,-78.7597895375898,126.99999999999999,-109.80020637172709,1.8229665071770258,2.6793248945147727,-14.44313725490196,-12.248730964466993,-27.214285714285715,-4.482352941176469,14.443137254901963,-5.610441767068267,10.368047162311646,72.8509289306838,23.2359866050446,514.7489654596767,49.86066109258801,791.6482565361516,1
0.18586063266913921,-45.13666784078901,-24.385431341675655,80.05988409529937,-78.7597895375898,126.99999999999999,-109.80020637172709,-1.822966507177041,-12.324894514767927,-79.18823529411765,-16.11675126903552,5.039682539682536,4.482352941176472,-18.427450980392155,-5.610441767068267,17.876596976677195,649.3869501235806,23.2359866050446,514.7489654596767,49.86066109258801,791.6482565361516,1
0.18586063266913921,-45.13666784078901,-24.385431341675655,80.05988409529937,-78.7597895375898,126.99999999999999,-109.80020637172709,-12.760765550239242,-17.68354430379746,3.4862745098039234,-3.2233502538070944,-6.047619047619051,5.4784313725490215,-17.431372549019606,-1.5301204819277052,8.455184758595388,42.70695757912574,23.2359866050446,514.7489654596767,49.86066109258801,791.6482565361516,1
2.787909490037146,-39.679112363508274,-26.111461009364394,80.55054732775272,-79.58221187898411,126.64464720194646,-110.5864826518767,-12.760765550239242,-17.68354430379746,3.4862745098039234,-3.2233502538070944,-6.047619047619051,5.4784313725490215,-17.431372549019606,-1.5301204819277052,8.455184758595388,42.70695757912574,22.859494287636604,470.4504539397978,48.780373566875134,803.0282464141669,1
2.787909490037146,-39.679112363508274,-26.111461009364394,80.55054732775272,-79.58221187898411,126.64464720194646,-110.5864826518767,-3.03827751196173,-5.894514767932484,-9.462745098039214,8.38071065989849,8.06349206349206,8.466666666666669,3.4862745098039234,-2.550200803212846,6.167860260125927,7.825467404828925,22.859494287636604,470.4504539397978,48.780373566875134,803.0282464141669,1
2.787909490037146,-39.679112363508274,-26.111461009364394,80.55054732775272,-79.58221187898411,126.64464720194646,-110.5864826518767,-10.330143540669862,-21.970464135021093,-8.466666666666665,-21.274111675126893,1.0079365079365044,-0.49803921568627274,17.43137254901961,-0.5100401606425646,10.186096806346182,84.14425081083346,22.859494287636604,470.4504539397978,48.780373566875134,803.0282464141669,1
0.15726668918157882,-36.14512152166255,-26.70083699345323,79.73277527366383,-80.04482444601842,125.9802919708029,-111.17618986198892,-10.330143540669862,-21.970464135021093,-8.466666666666665,-21.274111675126893,1.0079365079365044,-0.49803921568627274,17.43137254901961,-0.5100401606425646,10.186096806346182,84.14425081083346,21.00107506809912,354.7359389146284,47.52624459625988,800.2440912683653,1
0.15726668918157882,-36.14512152166255,-26.70083699345323,79.73277527366383,-80.04482444601842,125.9802919708029,-111.17618986198892,-1.822966507177041,-1.6075949367088551,14.443137254901963,-16.11675126903552,7.055555555555552,-0.49803921568627274,-2.490196078431371,-3.5702811244979866,5.95056524274932,37.137790143979984,21.00107506809912,354.7359389146284,47.52624459625988,800.2440912683653,1
0.15726668918157882,-36.14512152166255,-26.70083699345323,79.73277527366383,-80.04482444601842,125.9802919708029,-111.17618986198892,-10.330143540669862,3.7510548523206815,-8.466666666666665,-19.98477157360405,-10.079365079365083,-0.49803921568627274,4.482352941176472,-2.550200803212846,7.5178243340877415,38.307573016198695,21.00107506809912,354.7359389146284,47.52624459625988,800.2440912683653,1
-0.8435213328830391,-31.716449454033107,-28.384768376564196,78.47885812406093,-80.48173631488413,125.14598540145984,-112.02798916548433,-10.330143540669862,3.7510548523206815,-8.466666666666665,-19.98477157360405,-10.079365079365083,-0.49803921568627274,4.482352941176472,-2.550200803212846,7.5178243340877415,38.307573016198695,20.31491305449345,287.12634638278985,46.19335865155275,784.5401318424861,1
-0.8435213328830391,-31.716449454033107,-28.384768376564196,78.47885812406093,-80.48173631488413,125.14598540145984,-112.02798916548433,3.0382775119617147,-1.6075949367088551,5.4784313725490215,12.248730964467018,-18.142857142857146,-8.466666666666665,-13.44705882352941,-5.610441767068267,8.505007398226013,32.332437584072046,20.31491305449345,287.12634638278985,46.19335865155275,784.5401318424861,1
-0.8435213328830391,-31.716449454033107,-28.384768376564196,78.47885812406093,-80.48173631488413,125.14598540145984,-112.02798916548433,-11.545454545454552,-11.25316455696202,-17.431372549019606,-7.091370558375623,-5.039682539682543,-14.44313725490196,4.482352941176472,-2.550200803212846,9.229591968598204,27.598028740333355,20.31491305449345,287.12634638278985,46.19335865155275,784.5401318424861,1
2.8450973770122667,-27.06410707995773,-29.39512720643077,77.77012234385052,-81.58686633613274,124.07992700729925,-113.30568812072747,-11.545454545454552,-11.25316455696202,-17.431372549019606,-7.091370558375623,-5.039682539682543,-14.44313725490196,4.482352941176472,-2.550200803212846,9.229591968598204,27.598028740333355,19.768110554466922,323.2377078782835,44.74311887674634,819.445632219589,1
2.8450973770122667,-27.06410707995773,-29.39512720643077,77.77012234385052,-81.58686633613274,124.07992700729925,-113.30568812072747,-1.822966507177041,1.6075949367088658,50.30196078431373,0.6446700507614338,28.222222222222218,18.42745098039216,6.4745098039215705,9.69076305220884,14.649017292213234,298.8222440139557,19.768110554466922,323.2377078782835,44.74311887674634,819.445632219589,1
2.8450973770122667,-27.06410707995773,-29.39512720643077,77.77012234385052,-81.58686633613274,124.07992700729925,-113.30568812072747,-9.114832535885174,-21.970464135021093,-26.396078431372548,-13.538071065989836,10.079365079365076,7.4705882352941195,-39.345098039215685,4.590361445783138,16.563107370990835,139.66186169250562,19.768110554466922,323.2377078782835,44.74311887674634,819.445632219589,1
4.360576381852973,-32.16379006692497,-30.447584320875126,77.11590470057945,-82.66629565921278,122.98296836982966,-113.99367986585838,-9.114832535885174,-21.970464135021093,-26.396078431372548,-13.538071065989836,10.079365079365076,7.4705882352941195,-39.345098039215685,4.590361445783138,16.563107370990835,139.66186169250562,22.323983589884353,424.76379302572246,46.57575969612652,700.2616832104522,1
4.360576381852973,-32.16379006692497,-30.447584320875126,77.11590470057945,-82.66629565921278,122.98296836982966,-113.99367986585838,-1.822966507177041,10.181434599156123,61.25882352941177,9.670050761421333,24.190476190476186,2.4901960784313744,-9.462745098039214,-5.610441767068267,15.585891816397664,388.8826837232582,22.323983589884353,424.76379302572246,46.57575969612652,700.2616832104522,1
4.360576381852973,-32.16379006692497,-30.447584320875126,77.11590470057945,-82.66629565921278,122.98296836982966,-113.99367986585838,-10.330143540669862,-32.68776371308016,-58.27058823529411,-12.248730964466993,-3.552713678800501e-15,-3.48627450980392,-4.482352941176469,-6.630522088353408,16.017046999105617,392.0768128712502,22.323983589884353,424.76379302572246,46.57575969612652,700.2616832104522,1
6.019025104131483,-36.90560056357872,-31.310599154719494,76.8978321528225,-83.79712637862997,122.02506082725058,-114.38681800593318,-10.330143540669862,-32.68776371308016,-58.27058823529411,-12.248730964466993,-3.552713678800501e-15,-3.48627450980392,-4.482352941176469,-6.630522088353408,16.017046999105617,392.0768128712502,24.7450749408099,544.5547294641964,48.37134395704024,618.1464067793628,1
6.019025104131483,-36.90560056357872,-31.310599154719494,76.8978321528225,-83.79712637862997,122.02506082725058,-114.38681800593318,-6.6842105263157965,-33.75949367088607,-3.48627450980392,-0.6446700507614089,3.02380952380952,-0.49803921568627274,-21.415686274509802,-11.730923694779111,10.155388433318988,139.64773361309318,24.7450749408099,544.5547294641964,48.37134395704024,618.1464067793628,1
6.019025104131483,-36.90560056357872,-31.310599154719494,76.8978321528225,-83.79712637862997,122.02506082725058,-114.38681800593318,4.2535885167464045,-3.75105485232067,30.380392156862747,-22.563451776649735,-8.063492063492067,-4.482352941176469,4.482352941176472,-10.71084337349397,11.085941077739818,100.14019151885635,24.7450749408099,544.5547294641964,48.37134395704024,618.1464067793628,1
7.019813126196102,-39.142303628038036,-30.76332145520843,77.06138656364021,-85.03075989072144,121.09805352798051,-114.6161485876435,4.2535885167464045,-3.75105485232067,30.380392156862747,-22.563451776649735,-8.063492063492067,-4.482352941176469,4.482352941176472,-10.71084337349397,11.085941077739818,100.14019151885635,25.641812736480855,604.7856040467778,48.989003882295556,608.5958376190436,1
7.019813126196102,-39.142303628038036,-30.76332145520843,77.06138656364021,-85.03075989072144,121.09805352798051,-114.6161485876435,-10.330143540669862,-0.5358649789029482,-3.48627450980392,-34.16751269035532,-13.103174603174606,5.4784313725490215,28.38823529411765,-5.610441767068267,12.6375098445802,149.71345208510388,25.641812736480855,604.7856040467778,48.989003882295556,608.5958376190436,1
7.019813126196102,-39.142303628038036,-30.76332145520843,77.06138656364021,-85.03075989072144,121.09805352798051,-114.6161485876435,-5.468899521531108,-14.46835443037974,7.4705882352941195,-23.852791878172578,-36.28571428571429,-3.48627450980392,26.39607843137255,0.5100401606425757,14.742342681613861,164.44777680431298,25.641812736480855,604.7856040467778,48.989003882295556,608.5958376190436,1
2.9308792074749483,-41.021134202183866,-29.75296262534185,76.78879587894392,-85.87888293028433,120.29464720194645,-114.35405649426029,-5.468899521531108,-14.46835443037974,7.4705882352941195,-23.852791878172578,-36.28571428571429,-3.48627450980392,26.39607843137255,0.5100401606425757,14.742342681613861,164.44777680431298,24.568325345000222,521.1641150667606,49.18763090215655,603.1111537281629,1
2.9308792074749483,-41.021134202183866,-29.75296262534185,76.78879587894392,-85.87888293028433,120.29464720194645,-114.35405649426029,3.0382775119617147,13.396624472573844,44.325490196078434,-5.80203045685278,13.1031746031746,-3.48627450980392,-2.490196078431371,2.5502008032128574,11.024033579011189,201.63295435987857,24.568325345000222,521.1641150667606,49.18763090215655,603.1111537281629,1
2.9308792074749483,-41.021134202183866,-29.75296262534185,76.78879587894392,-85.87888293028433,120.29464720194645,-114.35405649426029,5.4688995215310925,17.683544303797476,53.29019607843138,-3.2233502538070944,28.222222222222218,5.4784313725490215,-0.49803921568627274,-8.670682730923689,15.316920712368532,316.84613210434327,24.568325345000222,521.1641150667606,49.18763090215655,603.1111537281629,1
-2.55915794213667,-42.72102853117295,-28.595259799453064,75.86198755097655,-86.0073864211272,119.69209245742091,-113.86263381916677,5.4688995215310925,17.683544303797476,53.29019607843138,-3.2233502538070944,28.222222222222218,5.4784313725490215,-0.49803921568627274,-8.670682730923689,15.316920712368532,316.84613210434327,24.625148757587564,415.0652985661811,49.05942529386752,588.6673432251629,1
-2.55915794213667,-42.72102853117295,-28.595259799453064,75.86198755097655,-86.0073864211272,119.69209245742091,-113.86263381916677,-15.191387559808618,-40.189873417721515,-71.21960784313725,-12.248730964466993,-22.174603174603178,-16.435294117647057,-10.458823529411763,-7.650602409638549,24.44611537705437,459.58832888619065,24.625148757587564,415.0652985661811,49.05942529386752,588.6673432251629,1
-2.55915794213667,-42.72102853117295,-28.595259799453064,75.86198755097655,-86.0073864211272,119.69209245742091,-113.86263381916677,6.6842105263157805,9.109704641350216,9.462745098039218,0.6446700507614338,-17.13492063492064,-8.466666666666665,11.454901960784316,-4.590361445783127,8.443522628077673,23.550869293467237,24.625148757587564,415.0652985661811,49.05942529386752,588.6673432251629,1
-5.876055386693689,-45.89714688270517,-27.14286898151986,74.38999785361659,-85.41627036325002,119.44489051094888,-113.50225719076487,6.6842105263157805,9.109704641350216,9.462745098039218,0.6446700507614338,-17.13492063492064,-8.466666666666665,11.454901960784316,-4.590361445783127,8.443522628077673,23.550869293467237,26.305357083639574,400.948010767349,49.14333790594721,565.976113783662,1
-5.876055386693689,-45.89714688270517,-27.14286898151986,74.38999785361659,-85.41627036325002,119.44489051094888,-113.50225719076487,-9.114832535885174,3.7510548523206815,10.458823529411767,-7.091370558375623,-39.30952380952381,9.462745098039218,36.35686274509804,-5.610441767068267,15.144456861965324,201.43846484800594,26.305357083639574,400.948010767349,49.14333790594721,565.976113783662,1
-5.876055386693689,-45.89714688270517,-27.14286898151986,74.38999785361659,-85.41627036325002,119.44489051094888,-113.50225719076487,-16.406698564593306,-27.329113924050628,-8.466666666666665,8.38071065989849,13.1031746031746,2.4901960784313744,84.1686274509804,-14.791164658634532,21.892044075803746,686.4169844097369,26.305357083639574,400.948010767349,49.14333790594721,565.976113783662,1
-2.4447821681864275,-48.44698837618879,-25.606281594431106,74.1174071689203,-85.05646058889002,119.6148418491484,-113.82987230749387,-16.406698564593306,-27.329113924050628,-8.466666666666665,8.38071065989849,13.1031746031746,2.4901960784313744,84.1686274509804,-14.791164658634532,21.892044075803746,686.4169844097369,25.499350712935442,529.0593196609559,49.39022571318006,588.9995986313855,1
-2.4447821681864275,-48.44698837618879,-25.606281594431106,74.1174071689203,-85.05646058889002,119.6148418491484,-113.82987230749387,-0.607655502392352,-15.54008438818565,-18.427450980392155,-16.11675126903552,23.182539682539677,5.4784313725490215,-13.44705882352941,-3.5702811244979866,12.046281642890222,63.04207607046063,25.499350712935442,529.0593196609559,49.39022571318006,588.9995986313855,1
-2.4447821681864275,-48.44698837618879,-25.606281594431106,74.1174071689203,-85.05646058889002,119.6148418491484,-113.82987230749387,-7.899521531100485,-26.25738396624472,-5.478431372549018,-30.29949238578679,-15.11904761904762,-29.384313725490195,-30.380392156862744,0.5100401606425757,18.16607786471552,153.58941214446375,25.499350712935442,529.0593196609559,49.39022571318006,588.9995986313855,1
-1.6727456940222938,-49.87847833744276,-24.680119333720075,74.22644344279888,-84.7994536072043,119.90839416058392,-114.22301044756868,-7.899521531100485,-26.25738396624472,-5.478431372549018,-30.29949238578679,-15.11904761904762,-29.384313725490195,-30.380392156862744,0.5100401606425757,18.16607786471552,153.58941214446375,25.410447788395043,581.3481996610143,49.5950137046539,613.7698223290025,1
-1.6727456940222938,-49.87847833744276,-24.680119333720075,74.22644344279888,-84.7994536072043,119.90839416058392,-114.22301044756868,-4.253588516746419,-13.396624472573833,0.4980392156862763,-22.563451776649735,-2.0158730158730194,-7.470588235294116,-10.458823529411763,-8.670682730923689,8.665958936644856,50.08148122439387,25.410447788395043,581.3481996610143,49.5950137046539,613.7698223290025,1
-1.6727456940222938,-49.87847833744276,-24.680119333720075,74.22644344279888,-84.7994536072043,119.90839416058392,-114.22301044756868,-6.6842105263157965,-3.75105485232067,16.43529411764706,38.03553299492387,70.55555555555554,18.42745098039216,-12.450980392156861,-0.5100401606425646,20.856264947494317,538.3776954864683,25.410447788395043,581.3481996610143,49.5950137046539,613.7698223290025,1
1.186648654733757,-51.44417048256428,-24.469627910831203,75.20776990770548,-84.90225639987858,120.35644768856446,-114.84547916935381,-6.6842105263157965,-3.75105485232067,16.43529411764706,38.03553299492387,70.55555555555554,18.42745098039216,-12.450980392156861,-0.5100401606425646,20.856264947494317,538.3776954864683,25.70014901604308,692.6455995376625,50.37385610036699,644.4489429812982,1
1.186648654733757,-51.44417048256428,-24.469627910831203,75.20776990770548,-84.90225639987858,120.35644768856446,-114.84547916935381,-11.545454545454552,-18.75527426160337,-2.490196078431371,-19.98477157360405,-10.079365079365083,-12.450980392156861,-11.454901960784312,-6.630522088353408,11.673933247469126,33.17191144866967,25.70014901604308,692.6455995376625,50.37385610036699,644.4489429812982,1
1.186648654733757,-51.44417048256428,-24.469627910831203,75.20776990770548,-84.90225639987858,120.35644768856446,-114.84547916935381,22.48325358851674,55.194092827004226,91.14117647058823,-1.9340101522842517,-17.13492063492064,17.43137254901961,1.4941176470588253,5.610441767068279,26.552923204557597,979.0064102070211,25.70014901604308,692.6455995376625,50.37385610036699,644.4489429812982,1
6.705279747832936,-51.80204297287777,-24.174939918786784,77.66108606997204,-85.8017808357786,120.8508515815085,-115.79556300786793,22.48325358851674,55.194092827004226,91.14117647058823,-1.9340101522842517,-17.13492063492064,17.43137254901961,1.4941176470588253,5.610441767068279,26.552923204557597,979.0064102070211,27.560754213165826,856.6586002942404,51.21268965387886,715.4524605274487,1
6.705279747832936,-51.80204297287777,-24.174939918786784,77.66108606997204,-85.8017808357786,120.8508515815085,-115.79556300786793,-12.760765550239242,-18.75527426160337,-23.4078431372549,-0.6446700507614089,27.214285714285708,9.462745098039218,2.4901960784313744,0.5100401606425757,11.905727506407224,109.37021420256936,27.560754213165826,856.6586002942404,51.21268965387886,715.4524605274487,1
6.705279747832936,-51.80204297287777,-24.174939918786784,77.66108606997204,-85.8017808357786,120.8508515815085,-115.79556300786793,-7.899521531100485,-17.68354430379746,5.4784313725490215,-26.431472081218264,5.039682539682536,7.4705882352941195,-9.462745098039214,-0.5100401606425646,9.997003165290458,67.89104319886394,27.560754213165826,856.6586002942404,51.21268965387886,715.4524605274487,1
6.3621524259822095,-51.08629799225079,-23.417170796386852,79.9508478214209,-86.67560457351007,121.29890510948903,-116.77840835805495,-7.899521531100485,-17.68354430379746,5.4784313725490215,-26.431472081218264,5.039682539682536,7.4705882352941195,-9.462745098039214,-0.5100401606425646,9.997003165290458,67.89104319886394,26.95520707153995,825.4521911365671,51.48477220335284,799.1332457654005,1
6.3621524259822095,-51.08629799225079,-23.417170796386852,79.9508478214209,-86.67560457351007,121.29890510948903,-116.77840835805495,-12.760765550239242,-17.68354430379746,0.4980392156862763,-22.563451776649735,-15.11904761904762,-8.466666666666665,-6.474509803921567,-8.670682730923689,11.529588458366533,48.40300816122835,26.95520707153995,825.4521911365671,51.48477220335284,799.1332457654005,1
6.3621524259822095,-51.08629799225079,-23.417170796386852,79.9508478214209,-86.67560457351007,121.29890510948903,-116.77840835805495,-9.114832535885174,-9.109704641350206,-18.427450980392155,-32.87817258883248,-2.0158730158730194,-5.478431372549018,14.443137254901963,-0.5100401606425646,11.497205318803323,110.29536301902625,26.95520707153995,825.4521911365671,51.48477220335284,799.1332457654005,1
3.3026004728132348,-51.80204297287777,-21.85953426700921,81.74994634041639,-87.0097136497015,121.94781021897808,-117.85953824326067,-9.114832535885174,-9.109704641350206,-18.427450980392155,-32.87817258883248,-2.0158730158730194,-5.478431372549018,14.443137254901963,-0.5100401606425646,11.497205318803323,110.29536301902625,25.654725904233402,761.0347635904552,51.80384119343446,896.7153670058269,1
3.3026004728132348,-51.80204297287777,-21.85953426700921,81.74994634041639,-87.0097136497015,121.94781021897808,-117.85953824326067,3.0382775119617147,2.6793248945147727,-2.490196078431371,-8.380710659898465,12.095238095238091,2.4901960784313744,1.4941176470588253,-2.550200803212846,4.4022827210934325,14.148332474574433,25.654725904233402,761.0347635904552,51.80384119343446,896.7153670058269,1
3.3026004728132348,-51.80204297287777,-21.85953426700921,81.74994634041639,-87.0097136497015,121.94781021897808,-117.85953824326067,-10.330143540669862,-34.83122362869198,-11.454901960784312,-23.852791878172578,-1.0079365079365115,1.4941176470588253,-32.372549019607845,-0.5100401606425646,14.481713042945561,199.11810823304265,25.654725904233402,761.0347635904552,51.80384119343446,896.7153670058269,1
5.761679612743438,-50.86262768580486,-20.491340018231554,83.98518995492589,-87.54942831124151,122.64306569343064,-119.43209080355992,-10.330143540669862,-34.83122362869198,-11.454901960784312,-23.852791878172578,-1.0079365079365115,1.4941176470588253,-32.372549019607845,-0.5100401606425646,14.481713042945561,199.11810823304265,25.705215772259947,802.9913885618798,51.77971921965409,1008.4980376069582,1
5.761679612743438,-50.86262768580486,-20.491340018231554,83.98518995492589,-87.54942831124151,122.64306569343064,-119.43209080355992,3.0382775119617147,1.6075949367088658,23.407843137254904,9.670050761421333,4.031746031746028,-0.49803921568627274,1.4941176470588253,-0.5100401606425646,5.5322136753100635,61.05784803232882,25.705215772259947,802.9913885618798,51.77971921965409,1008.4980376069582,1
5.761679612743438,-50.86262768580486,-20.491340018231554,83.98518995492589,-87.54942831124151,122.64306569343064,-119.43209080355992,-6.6842105263157965,-12.324894514767927,-10.458823529411763,-25.14213197969542,-27.214285714285715,0.4980392156862763,11.454901960784316,-9.69076305220883,12.933506311644503,80.84026551737927,25.705215772259947,802.9913885618798,51.77971921965409,1008.4980376069582,1
4.903861308116623,-48.715392743923914,-18.702162923676156,85.89332474779997,-87.85783668926439,123.3692214111922,-121.36501999226107,-6.6842105263157965,-12.324894514767927,-10.458823529411763,-25.14213197969542,-27.214285714285715,0.4980392156862763,11.454901960784316,-9.69076305220883,12.933506311644503,80.84026551737927,24.10713899190556,722.1771248953771,51.10362680513335,1132.9408032672388,1
4.903861308116623,-48.715392743923914,-18.702162923676156,85.89332474779997,-87.85783668926439,123.3692214111922,-121.36501999226107,-5.468899521531108,-16.611814345991554,-0.49803921568627274,-22.563451776649735,13.1031746031746,0.4980392156862763,-4.482352941176469,-2.550200803212846,8.221996552888607,67.56357974596833,24.10713899190556,722.1771248953771,51.10362680513335,1132.9408032672388,1
4.903861308116623,-48.715392743923914,-18.702162923676156,85.89332474779997,-87.85783668926439,123.3692214111922,-121.36501999226107,-0.607655502392352,-2.679324894514762,26.39607843137255,-21.274111675126893,-9.071428571428575,-8.466666666666665,-6.474509803921567,-5.610441767068267,10.072527164061453,81.80199689265204,24.10713899190556,722.1771248953771,51.10362680513335,1132.9408032672388,1
5.9046493301812415,-44.73406128918633,-17.94439380127622,87.63790512985611,-88.42325204897298,123.81727493917273,-123.42899522765381,-0.607655502392352,-2.679324894514762,26.39607843137255,-21.274111675126893,-9.071428571428575,-8.466666666666665,-6.474509803921567,-5.610441767068267,10.072527164061453,81.80199689265204,22.861034806881264,641.7903592651594,50.10545340677289,1235.9352702873766,1
5.9046493301812415,-44.73406128918633,-17.94439380127622,87.63790512985611,-88.42325204897298,123.81727493917273,-123.42899522765381,9.11483253588516,29.472573839662452,14.443137254901963,-17.406091370558364,-2.0158730158730194,7.4705882352941195,3.4862745098039234,4.590361445783138,10.999966525970269,84.05626623344274,22.861034806881264,641.7903592651594,50.10545340677289,1235.9352702873766,1
5.9046493301812415,-44.73406128918633,-17.94439380127622,87.63790512985611,-88.42325204897298,123.81727493917273,-123.42899522765381,-15.191387559808618,-29.47257383966244,-19.423529411764704,-9.670050761421308,28.222222222222218,-4.482352941176469,-6.474509803921567,-5.610441767068267,14.818383538380699,100.49999497327245,22.861034806881264,641.7903592651594,50.10545340677289,1235.9352702873766,1
4.16041877744005,-43.30257132793237,-20.533438302809326,88.56471345782347,-88.962966710513,123.90997566909974,-124.80497871791565,-15.191387559808618,-29.47257383966244,-19.423529411764704,-9.670050761421308,28.222222222222218,-4.482352941176469,-6.474509803921567,-5.610441767068267,14.818383538380699,100.49999497327245,22.66547613606058,563.4925709930351,50.800241029521715,1199.2248880199095,1
4.16041877744005,-43.30257132793237,-20.533438302809326,88.56471345782347,-88.962966710513,123.90997566909974,-124.80497871791565,-1.822966507177041,-3.75105485232067,18.42745098039216,-4.512690355329937,-8.063492063492067,4.482352941176472,-1.4941176470588218,-2.550200803212846,5.638040768770002,30.982316773426202,22.66547613606058,563.4925709930351,50.800241029521715,1199.2248880199095,1
4.16041877744005,-43.30257132793237,-20.533438302809326,88.56471345782347,-88.962966710513,123.90997566909974,-124.80497871791565,-3.03827751196173,-9.109704641350206,23.407843137254904,12.248730964467018,-5.039682539682543,0.4980392156862763,-4.482352941176469,-4.590361445783127,7.8018740496702845,52.86168846122195,22.66547613606058,563.4925709930351,50.800241029521715,1199.2248880199095,1
6.1334008780817255,-44.15251849242691,-24.49067705312009,89.4370036488516,-89.65688556106446,123.78637469586373,-125.95163162646718,-3.03827751196173,-9.109704641350206,23.407843137254904,12.248730964467018,-5.039682539682543,0.4980392156862763,-4.482352941176469,-4.590361445783127,7.8018740496702845,52.86168846122195,24.925532141209573,642.1826408096767,52.6933997314662,1109.2163238243857,1
6.1334008780817255,-44.15251849242691,-24.49067705312009,89.4370036488516,-89.65688556106446,123.78637469586373,-125.95163162646718,-9.114832535885174,-16.611814345991554,4.482352941176472,-9.670050761421308,-14.111111111111114,-2.490196078431371,-26.396078431372548,4.590361445783138,10.933349706396585,62.78253418271764,24.925532141209573,642.1826408096767,52.6933997314662,1109.2163238243857,1
6.1334008780817255,-44.15251849242691,-24.49067705312009,89.4370036488516,-89.65688556106446,123.78637469586373,-125.95163162646718,-7.899521531100485,-5.894514767932484,-6.474509803921567,3.2233502538071193,4.031746031746028,2.4901960784313744,-12.450980392156861,-3.5702811244979866,5.754387497949239,10.683296803487048,24.925532141209573,642.1826408096767,52.6933997314662,1109.2163238243857,1
8.420916357086567,-46.21028531172948,-24.8064141874534,91.18158403090786,-90.78771628048165,123.69367396593672,-126.83619244163549,-7.899521531100485,-5.894514767932484,-6.474509803921567,3.2233502538071193,4.031746031746028,2.4901960784313744,-12.450980392156861,-3.5702811244979866,5.754387497949239,10.683296803487048,26.47920528542315,757.7915649999312,54.06609451003025,1147.7010965569366,1
8.420916357086567,-46.21028531172948,-24.8064141874534,91.18158403090786,-90.78771628048165,123.69367396593672,-126.83619244163549,-3.03827751196173,-9.109704641350206,3.4862745098039234,-18.695431472081207,7.055555555555552,-8.466666666666665,-1.4941176470588218,-6.630522088353408,7.2470687616039395,28.77037014905256,26.47920528542315,757.7915649999312,54.06609451003025,1147.7010965569366,1
8.420916357086567,-46.21028531172948,-24.8064141874534,91.18158403090786,-90.78771628048165,123.69367396593672,-126.83619244163549,-3.03827751196173,-5.894514767932484,-17.431372549019606,-10.95939086294415,-14.111111111111114,19.423529411764708,-0.49803921568627274,-4.590361445783127,9.493324609525398,49.238306763872245,26.47920528542315,757.7915649999312,54.06609451003025,1147.7010965569366,1
2.1016548463356934,-46.61289186333215,-24.57487362227564,91.67224726336121,-91.27602954568451,123.53917274939171,-127.0,-3.03827751196173,-5.894514767932484,-17.431372549019606,-10.95939086294415,-14.111111111111114,19.423529411764708,-0.49803921568627274,-4.590361445783127,9.493324609525398,49.238306763872245,24.429806777314496,595.0697467096969,54.286670916323004,1169.679551098452,1
2.1016548463356934,-46.61289186333215,-24.57487362227564,91.67224726336121,-91.27602954568451,123.53917274939171,-127.0,-3.03827751196173,-27.329113924050628,-15.439215686274508,0.6446700507614338,10.079365079365076,0.4980392156862763,9.462745098039218,-6.630522088353408,9.140243581811534,80.27045259062876,24.429806777314496,595.0697467096969,54.286670916323004,1169.679551098452,1
2.1016548463356934,-46.61289186333215,-24.57487362227564,91.67224726336121,-91.27602954568451,123.53917274939171,-127.0,-0.607655502392352,-6.966244725738392,-9.462745098039214,-10.95939086294415,10.079365079365076,-2.490196078431371,8.466666666666669,-2.550200803212846,6.447808102098758,15.991202083871778,24.429806777314496,595.0697467096969,54.286670916323004,1169.679551098452,1
-5.046831025554434,-46.07608312786192,-24.09074334963124,90.85447520927232,-90.99332186583021,123.3846715328467,-126.672384883271,-0.607655502392352,-6.966244725738392,-9.462745098039214,-10.95939086294415,10.079365079365076,-2.490196078431371,8.466666666666669,-2.550200803212846,6.447808102098758,15.991202083871778,25.07121916768253,421.5708816410134,53.673767228921825,1157.6425757311372,1
-5.046831025554434,-46.07608312786192,-24.09074334963124,90.85447520927232,-90.99332186583021,123.3846715328467,-126.672384883271,-17.622009569377997,-20.898734177215182,55.28235294117647,-4.512690355329937,4.031746031746028,-4.482352941176469,2.4901960784313744,-7.650602409638549,14.6213355630115,316.3724087075342,25.07121916768253,421.5708816410134,53.673767228921825,1157.6425757311372,1
-5.046831025554434,-46.07608312786192,-24.09074334963124,90.85447520927232,-90.99332186583021,123.3846715328467,-126.672384883271,-1.822966507177041,0.5358649789029588,9.462745098039218,3.2233502538071193,-4.031746031746035,3.4862745098039234,0.4980392156862763,4.590361445783138,3.4564185051182137,8.242543719485818,25.07121916768253,421.5708816410134,53.673767228921825,1157.6425757311372,1
-9.564674096588995,-49.20746741810496,-24.8064141874534,89.32796737497313,-90.1708995244359,123.3228710462287,-125.65677802141107,-1.822966507177041,0.5358649789029588,9.462745098039218,3.2233502538071193,-4.031746031746035,3.4862745098039234,0.4980392156862763,4.590361445783138,3.4564185051182137,8.242543719485818,27.85951856738245,399.87885034916417,54.4472829935105,1061.3494568806811,1
-9.564674096588995,-49.20746741810496,-24.8064141874534,89.32796737497313,-90.1708995244359,123.3228710462287,-125.65677802141107,-9.114832535885174,-21.970464135021093,-32.372549019607845,-10.95939086294415,-8.063492063492067,-11.454901960784312,-2.490196078431371,-4.590361445783127,12.62702351274364,97.40643430703946,27.85951856738245,399.87885034916417,54.4472829935105,1061.3494568806811,1
-9.564674096588995,-49.20746741810496,-24.8064141874534,89.32796737497313,-90.1708995244359,123.3228710462287,-125.65677802141107,-7.899521531100485,-21.970464135021093,-24.40392156862745,-30.29949238578679,-7.055555555555559,-0.49803921568627274,-0.49803921568627274,0.5100401606425757,11.641884221013314,146.42624386464746,27.85951856738245,399.87885034916417,54.4472829935105,1061.3494568806811,1
-4.617921873241027,-52.0257132793237,-25.58523245214222,89.32796737497313,-89.93959324091875,123.49282238442821,-125.00154778795306,-7.899521531100485,-21.970464135021093,-24.40392156862745,-30.29949238578679,-7.055555555555559,-0.49803921568627274,-0.49803921568627274,0.5100401606425757,11.641884221013314,146.42624386464746,27.409622534902315,564.3709708812166,55.64630436881301,1025.6155737385388,1
-4.617921873241027,-52.0257132793237,-25.58523245214222,89.32796737497313,-89.93959324091875,123.49282238442821,-125.00154778795306,6.6842105263157805,1.6075949367088658,-1.4941176470588218,-26.431472081218264,14.111111111111107,-6.474509803921567,3.4862745098039234,-6.630522088353408,8.364976588061467,69.35659090380499,27.409622534902315,564.3709708812166,55.64630436881301,1025.6155737385388,1
-4.617921873241027,-52.0257132793237,-25.58523245214222,89.32796737497313,-89.93959324091875,123.49282238442821,-125.00154778795306,-13.97607655502393,-21.970464135021093,-29.384313725490195,-5.80203045685278,-5.039682539682543,-7.470588235294116,-0.49803921568627274,-8.670682730923689,11.601484699246829,93.57353623833515,27.409622534902315,564.3709708812166,55.64630436881301,1025.6155737385388,1
-2.187436676798383,-53.36773511799929,-26.742935278031005,90.30929383987973,-90.19660022260447,123.67822384428221,-124.24803301947634,-13.97607655502393,-21.970464135021093,-29.384313725490195,-5.80203045685278,-5.039682539682543,-7.470588235294116,-0.49803921568627274,-8.670682730923689,11.601484699246829,93.57353623833515,27.43270235760956,655.2125711006506,56.80665474530335,1019.0401113556723,1
-2.187436676798383,-53.36773511799929,-26.742935278031005,90.30929383987973,-90.19660022260447,123.67822384428221,-124.24803301947634,-15.191387559808618,-26.25738396624472,-17.431372549019606,-10.95939086294415,-8.063492063492067,7.4705882352941195,2.4901960784313744,-0.5100401606425646,11.046731434484652,70.74829614305405,27.43270235760956,655.2125711006506,56.80665474530335,1019.0401113556723,1
-2.187436676798383,-53.36773511799929,-26.742935278031005,90.30929383987973,-90.19660022260447,123.67822384428221,-124.24803301947634,-0.607655502392352,-3.75105485232067,-13.44705882352941,-23.852791878172578,21.166666666666664,7.4705882352941195,-1.4941176470588218,-3.5702811244979866,9.420026841241576,81.87717782773998,27.43270235760956,655.2125711006506,56.80665474530335,1019.0401113556723,1
-6.676685804345383,-53.77034166960197,-27.963785530786453,90.30929383987973,-89.99099463725588,123.77092457420923,-122.87204952921451,-0.607655502392352,-3.75105485232067,-13.44705882352941,-23.852791878172578,21.166666666666664,7.4705882352941195,-1.4941176470588218,-3.5702811244979866,9.420026841241576,81.87717782773998,29.47027100157793,556.1552295440835,57.34780701342272,981.3392952944836,1
-6.676685804345383,-53.77034166960197,-27.963785530786453,90.30929383987973,-89.99099463725588,123.77092457420923,-122.87204952921451,1.8229665071770258,13.396624472573844,37.352941176470594,-3.2233502538070944,18.14285714285714,13.447058823529414,3.4862745098039234,0.5100401606425757,11.4227641308577,152.42707709373278,29.47027100157793,556.1552295440835,57.34780701342272,981.3392952944836,1
-6.676685804345383,-53.77034166960197,-27.963785530786453,90.30929383987973,-89.99099463725588,123.77092457420923,-122.87204952921451,-6.6842105263157965,-10.181434599156113,-11.454901960784312,-25.14213197969542,-24.190476190476193,-27.392156862745097,-5.478431372549018,-7.650602409638549,14.77179323767006,84.29845429573331,29.47027100157793,556.1552295440835,57.34780701342272,981.3392952944836,1
-5.761679612743447,-51.39943642127509,-28.384768376564196,89.87314874436572,-89.75968835373874,123.70912408759122,-121.79091964400877,-6.6842105263157965,-10.181434599156113,-11.454901960784312,-25.14213197969542,-24.190476190476193,-27.392156862745097,-5.478431372549018,-7.650602409638549,14.77179323767006,84.29845429573331,28.51529480352758,520.7139894897709,56.552451180735,965.1204008972688,1
-5.761679612743447,-51.39943642127509,-28.384768376564196,89.87314874436572,-89.75968835373874,123.70912408759122,-121.79091964400877,-3.03827751196173,-14.46835443037974,-21.415686274509802,-7.091370558375623,-2.0158730158730194,-0.49803921568627274,3.4862745098039234,-0.5100401606425646,6.565489459654085,57.052055486891106,28.51529480352758,520.7139894897709,56.552451180735,965.1204008972688,1
-5.761679612743447,-51.39943642127509,-28.384768376564196,89.87314874436572,-89.75968835373874,123.70912408759122,-121.79091964400877,-1.822966507177041,-10.181434599156113,-10.458823529411763,-8.380710659898465,-21.16666666666667,5.4784313725490215,5.4784313725490215,1.5301204819277165,8.062198148666976,39.57303904785614,28.51529480352758,520.7139894897709,56.552451180735,965.1204008972688,1
-2.0444669593605806,-49.431137724550894,-27.837490677053133,89.87314874436572,-89.83679044824447,123.60097323600971,-121.26673545724236,-1.822966507177041,-10.181434599156113,-10.458823529411763,-8.380710659898465,-21.16666666666667,5.4784313725490215,5.4784313725490215,1.5301204819277165,8.062198148666976,39.57303904785614,26.43769845365487,562.8437052536502,55.71392571532325,991.7107866638764,1
-2.0444669593605806,-49.431137724550894,-27.837490677053133,89.87314874436572,-89.83679044824447,123.60097323600971,-121.26673545724236,-11.545454545454552,-20.898734177215182,-43.32941176470588,-16.11675126903552,-39.30952380952381,-7.470588235294116,-3.48627450980392,-2.550200803212846,18.088367389280727,244.20513036356334,26.43769845365487,562.8437052536502,55.71392571532325,991.7107866638764,1
-2.0444669593605806,-49.431137724550894,-27.837490677053133,89.87314874436572,-89.83679044824447,123.60097323600971,-121.26673545724236,-10.330143540669862,-26.25738396624472,-24.40392156862745,-12.248730964466993,21.166666666666664,7.4705882352941195,-0.49803921568627274,-8.670682730923689,13.88076961107247,82.80071499480991,26.43769845365487,562.8437052536502,55.71392571532325,991.7107866638764,1
-0.6433637284701155,-48.894328989080655,-26.63768956658657,90.09122129212278,-89.96529393908733,123.60097323600971,-121.23397394556946,-10.330143540669862,-26.25738396624472,-24.40392156862745,-12.248730964466993,21.166666666666664,7.4705882352941195,-0.49803921568627274,-8.670682730923689,13.88076961107247,82.80071499480991,25.39179409471245,583.2031037902885,55.207746615930006,1036.4821037091667,1
-0.6433637284701155,-48.894328989080655,-26.63768956658657,90.09122129212278,-89.96529393908733,123.60097323600971,-121.23397394556946,-12.760765550239242,-13.396624472573833,8.466666666666669,1.9340101522842765,4.031746031746028,-4.482352941176469,0.4980392156862763,-5.610441767068267,6.397580849680132,22.624394630166694,25.39179409471245,583.2031037902885,55.207746615930006,1036.4821037091667,1
-0.6433637284701155,-48.894328989080655,-26.63768956658657,90.09122129212278,-89.96529393908733,123.60097323600971,-121.23397394556946,-5.468899521531108,-12.324894514767927,8.466666666666669,-9.670050761421308,5.039682539682536,-4.482352941176469,-1.4941176470588218,-1.5301204819277052,6.059598134279067,14.759988682931963,25.39179409471245,583.2031037902885,55.207746615930006,1036.4821037091667,1
-2.9594731509625167,-47.999647763296934,-25.753625590453314,89.76411247048713,-89.65688556106446,123.70912408759122,-121.39778150393397,-5.468899521531108,-12.324894514767927,8.466666666666669,-9.670050761421308,5.039682539682536,-4.482352941176469,-1.4941176470588218,-1.5301204819277052,6.059598134279067,14.759988682931963,25.570915501570923,507.17936950982806,54.50579527474579,1056.0830742352946,1
-2.9594731509625167,-47.999647763296934,-25.753625590453314,89.76411247048713,-89.65688556106446,123.70912408759122,-121.39778150393397,-5.468899521531108,-13.396624472573833,6.4745098039215705,-14.827411167512679,-8.063492063492067,-3.48627450980392,0.4980392156862763,-9.69076305220883,7.738251725841286,23.348347999651974,25.570915501570923,507.17936950982806,54.50579527474579,1056.0830742352946,1
-2.9594731509625167,-47.999647763296934,-25.753625590453314,89.76411247048713,-89.65688556106446,123.70912408759122,-121.39778150393397,5.4688995215310925,19.82700421940929,27.3921568627451,-5.80203045685278,35.27777777777777,-1.4941176470588218,-0.49803921568627274,-0.5100401606425646,12.033758232712962,185.11203602697358,25.570915501570923,507.17936950982806,54.50579527474579,1056.0830742352946,1
-4.560733986265905,-47.954913702007744,-25.311593602386687,89.27344923803389,-89.21997369219872,123.84817518248174,-121.52882755062556,5.4688995215310925,19.82700421940929,27.3921568627451,-5.80203045685278,35.27777777777777,-1.4941176470588218,-0.49803921568627274,-0.5100401606425646,12.033758232712962,185.11203602697358,25.942413763553446,471.062158857326,54.17998551414277,1051.8433833885222,1
-4.560733986265905,-47.954913702007744,-25.311593602386687,89.27344923803389,-89.21997369219872,123.84817518248174,-121.52882755062556,-1.822966507177041,-16.611814345991554,-5.478431372549018,-13.538071065989836,-4.031746031746035,-0.49803921568627274,1.4941176470588253,-3.5702811244979866,5.880683413837072,35.341567987047654,25.942413763553446,471.062158857326,54.17998551414277,1051.8433833885222,1
-4.560733986265905,-47.954913702007744,-25.311593602386687,89.27344923803389,-89.21997369219872,123.84817518248174,-121.52882755062556,-5.468899521531108,4.822784810126588,56.27843137254902,-8.380710659898465,-3.552713678800501e-15,4.482352941176472,3.4862745098039234,-1.5301204819277052,10.55619678712666,347.6838294126982,25.942413763553446,471.062158857326,54.17998551414277,1051.8433833885222,1
-5.704491725768326,-47.01549841493483,-25.62733073671999,88.455677183945,-88.6802590306587,123.90997566909974,-121.49606603895266,-5.468899521531108,4.822784810126588,56.27843137254902,-8.380710659898465,-3.552713678800501e-15,4.482352941176472,3.4862745098039234,-1.5301204819277052,10.55619678712666,347.6838294126982,26.11577362580772,426.82875076001517,53.6995021118666,1020.3572083885811,1
-5.704491725768326,-47.01549841493483,-25.62733073671999,88.455677183945,-88.6802590306587,123.90997566909974,-121.49606603895266,1.8229665071770258,8.03797468354431,9.462745098039218,-12.248730964466993,18.14285714285714,-7.470588235294116,-1.4941176470588218,-3.5702811244979866,7.781282675366951,31.86750958240796,26.11577362580772,426.82875076001517,53.6995021118666,1020.3572083885811,1
-5.704491725768326,-47.01549841493483,-25.62733073671999,88.455677183945,-88.6802590306587,123.90997566909974,-121.49606603895266,-7.899521531100485,2.6793248945147727,13.447058823529414,-8.380710659898465,9.071428571428568,-1.4941176470588218,-2.490196078431371,-6.630522088353408,6.511610036789413,16.588643693187194,26.11577362580772,426.82875076001517,53.6995021118666,1020.3572083885811,1
-3.8458853990768924,-48.178584008453676,-25.98516615563107,88.01953208843099,-88.37185065263583,123.95632603406324,-121.43054301560687,-7.899521531100485,2.6793248945147727,13.447058823529414,-8.380710659898465,9.071428571428568,-1.4941176470588218,-2.490196078431371,-6.630522088353408,6.511610036789413,16.588643693187194,26.003211854387214,491.34728573289226,54.06109408417191,988.0185827643269,1
-3.8458853990768924,-48.178584008453676,-25.98516615563107,88.01953208843099,-88.37185065263583,123.95632603406324,-121.43054301560687,-9.114832535885174,-12.324894514767927,-3.48627450980392,-8.380710659898465,12.095238095238091,5.4784313725490215,-14.44313725490196,-4.590361445783127,8.739235048603462,16.051915864745137,26.003211854387214,491.34728573289226,54.06109408417191,988.0185827643269,1
-3.8458853990768924,-48.178584008453676,-25.98516615563107,88.01953208843099,-88.37185065263583,123.95632603406324,-121.43054301560687,-13.97607655502393,-38.0464135021097,-20.419607843137253,-7.091370558375623,4.031746031746028,0.4980392156862763,20.419607843137257,-5.610441767068267,13.761662914535542,151.42596401953273,26.003211854387214,491.34728573289226,54.06109408417191,988.0185827643269,1
-1.4439941461218098,-46.65762592462134,-25.522085025275558,88.01953208843099,-88.44895274714156,123.90997566909974,-121.56158906229847,-13.97607655502393,-38.0464135021097,-20.419607843137253,-7.091370558375623,4.031746031746028,0.4980392156862763,20.419607843137257,-5.610441767068267,13.761662914535542,151.42596401953273,24.541235032006238,511.789674682408,53.39974767944263,1010.5748766706049,1
-1.4439941461218098,-46.65762592462134,-25.522085025275558,88.01953208843099,-88.44895274714156,123.90997566909974,-121.56158906229847,10.330143540669848,26.25738396624473,56.27843137254902,-9.670050761421308,10.079365079365076,13.447058823529414,2.4901960784313744,5.610441767068279,16.77038392365988,303.8661009952156,24.541235032006238,511.789674682408,53.39974767944263,1010.5748766706049,1
-1.4439941461218098,-46.65762592462134,-25.522085025275558,88.01953208843099,-88.44895274714156,123.90997566909974,-121.56158906229847,0.6076555023923369,-13.396624472573833,-48.30980392156863,-9.670050761421308,19.150793650793645,7.4705882352941195,-8.466666666666665,-3.5702811244979866,13.830308041901066,226.2800575222318,24.541235032006238,511.789674682408,53.39974767944263,1010.5748766706049,1
-4.046043003489816,-45.8076787601268,-24.659070191431187,87.52886885597763,-88.29474855813012,123.78637469586373,-121.39778150393397,0.6076555023923369,-13.396624472573833,-48.30980392156863,-9.670050761421308,19.150793650793645,7.4705882352941195,-8.466666666666665,-3.5702811244979866,13.830308041901066,226.2800575222318,24.837597318349268,436.03245921878937,52.665205935845215,1023.422155254439,1
-4.046043003489816,-45.8076787601268,-24.659070191431187,87.52886885597763,-88.29474855813012,123.78637469586373,-121.39778150393397,-11.545454545454552,-20.898734177215182,-58.27058823529411,3.2233502538071193,31.24603174603174,4.482352941176472,3.4862745098039234,-4.590361445783127,17.217893481820777,376.2701027614714,24.837597318349268,436.03245921878937,52.665205935845215,1023.422155254439,1
-4.046043003489816,-45.8076787601268,-24.659070191431187,87.52886885597763,-88.29474855813012,123.78637469586373,-121.39778150393397,-4.253588516746419,-25.185654008438814,-14.44313725490196,-13.538071065989836,-5.039682539682543,-7.470588235294116,2.4901960784313744,-5.610441767068267,9.753919933319168,57.43833636318607,24.837597318349268,436.03245921878937,52.665205935845215,1023.422155254439,1
-8.277946639648771,-45.762944698837615,-24.44857876854232,86.05687915861768,-87.52372761307296,123.70912408759122,-121.07016638720495,-4.253588516746419,-25.185654008438814,-14.44313725490196,-13.538071065989836,-5.039682539682543,-7.470588235294116,2.4901960784313744,-5.610441767068267,9.753919933319168,57.43833636318607,26.163156702342903,353.48610299265476,52.0894675419992,978.914337702224,1
-8.277946639648771,-45.762944698837615,-24.44857876854232,86.05687915861768,-87.52372761307296,123.70912408759122,-121.07016638720495,1.8229665071770258,-0.5358649789029482,2.4901960784313744,-9.670050761421308,-12.095238095238098,-20.419607843137253,-11.454901960784312,-5.610441767068267,8.012408499020074,45.09697165127237,26.163156702342903,353.48610299265476,52.0894675419992,978.914337702224,1
-8.277946639648771,-45.762944698837615,-24.44857876854232,86.05687915861768,-87.52372761307296,123.70912408759122,-121.07016638720495,-1.822966507177041,-1.6075949367088551,23.407843137254904,-1.9340101522842517,5.039682539682536,2.4901960784313744,-5.478431372549018,-6.630522088353408,6.051405851555174,52.885070258584214,26.163156702342903,353.48610299265476,52.0894675419992,978.914337702224,1
-7.019813126196109,-46.65762592462134,-24.8064141874534,84.91199828289325,-86.82980876252151,123.70912408759122,-120.90635882884045,-1.822966507177041,-1.6075949367088551,23.407843137254904,-1.9340101522842517,5.039682539682536,2.4901960784313744,-5.478431372549018,-6.630522088353408,6.051405851555174,52.885070258584214,26.161284412756952,394.1658058563114,52.12534613165601,925.5922830603092,1
-7.019813126196109,-46.65762592462134,-24.8064141874534,84.91199828289325,-86.82980876252151,123.70912408759122,-120.90635882884045,-18.837320574162685,-29.47257383966244,-8.466666666666665,-18.695431472081207,-8.063492063492067,8.466666666666669,5.4784313725490215,-1.5301204819277052,12.376337892151057,84.04996689281315,26.161284412756952,394.1658058563114,52.12534613165601,925.5922830603092,1
-4.303388494877861,-47.14970059880239,-25.14320046407559,84.36681691350066,-86.46999898816148,123.74002433090023,-120.90635882884045,-18.837320574162685,-29.47257383966244,-8.466666666666665,-18.695431472081207,-8.063492063492067,8.466666666666669,5.4784313725490215,-1.5301204819277052,12.376337892151057,84.04996689281315,25.532096519251947,459.0650453330262,52.21990599212621,896.1394233850203,1
-4.303388494877861,-47.14970059880239,-25.14320046407559,84.36681691350066,-86.46999898816148,123.74002433090023,-120.90635882884045,-3.03827751196173,-3.75105485232067,57.274509803921575,-7.091370558375623,-19.150793650793652,-3.48627450980392,-4.482352941176469,-1.5301204819277052,12.475594288785167,358.5963847921483,25.532096519251947,459.0650453330262,52.21990599212621,896.1394233850203,1
-4.303388494877861,-47.14970059880239,-25.14320046407559,84.36681691350066,-86.46999898816148,123.74002433090023,-120.90635882884045,1.8229665071770258,-4.822784810126577,-0.49803921568627274,-1.9340101522842517,12.095238095238091,0.4980392156862763,6.4745098039215705,-2.550200803212846,3.836973575416614,15.393942538808302,25.532096519251947,459.0650453330262,52.21990599212621,896.1394233850203,1
-3.5599459642012876,-46.120817189151104,-25.14320046407559,83.93067181798665,-86.29009410098149,123.69367396593672,-120.93912034051336,1.8229665071770258,-4.822784810126577,-0.49803921568627274,-1.9340101522842517,12.095238095238091,0.4980392156862763,6.4745098039215705,-2.550200803212846,3.836973575416614,15.393942538808302,24.941321205809327,452.8875062828789,51.731563157071115,887.6020497841263,1
-3.5599459642012876,-46.120817189151104,-25.14320046407559,83.93067181798665,-86.29009410098149,123.69367396593672,-120.93912034051336,-12.760765550239242,-23.042194092827,-23.4078431372549,-14.827411167512679,4.031746031746028,-13.44705882352941,-2.490196078431371,-2.550200803212846,12.069676960594185,72.27503436534472,24.941321205809327,452.8875062828789,51.731563157071115,887.6020497841263,1
-3.5599459642012876,-46.120817189151104,-25.14320046407559,83.93067181798665,-86.29009410098149,123.69367396593672,-120.93912034051336,-13.97607655502393,-20.898734177215182,67.23529411764706,0.6446700507614338,14.111111111111107,-2.490196078431371,-0.49803921568627274,-2.550200803212846,15.300540263636151,498.90171746652356,24.941321205809327,452.8875062828789,51.731563157071115,887.6020497841263,1
-4.932455251604192,-46.702359985910526,-25.458937598408895,83.38549044859406,-86.05878781746432,123.61642335766422,-120.64426673545725,-13.97607655502393,-20.898734177215182,67.23529411764706,0.6446700507614338,14.111111111111107,-2.490196078431371,-0.49803921568627274,-2.550200803212846,15.300540263636151,498.90171746652356,25.697917611974535,436.22406896341954,51.84892934430449,858.7367633968934,1
-4.932455251604192,-46.702359985910526,-25.458937598408895,83.38549044859406,-86.05878781746432,123.61642335766422,-120.64426673545725,-16.406698564593306,-28.400843881856535,-42.33333333333333,-4.512690355329937,28.222222222222218,-4.482352941176469,-4.482352941176469,-3.5702811244979866,16.55134692052328,220.87288678915388,25.697917611974535,436.22406896341954,51.84892934430449,858.7367633968934,1
-4.932455251604192,-46.702359985910526,-25.458937598408895,83.38549044859406,-86.05878781746432,123.61642335766422,-120.64426673545725,-10.330143540669862,-25.185654008438814,-22.41176470588235,-10.95939086294415,10.079365079365076,2.4901960784313744,-6.474509803921567,-15.811244979919673,12.967783632446608,59.68951456384577,25.697917611974535,436.22406896341954,51.84892934430449,858.7367633968934,1
-6.276370595519536,-47.50757308911588,-25.58523245214222,82.62223653144451,-85.62187594859861,123.60097323600971,-120.28389010705533,-10.330143540669862,-25.185654008438814,-22.41176470588235,-10.95939086294415,10.079365079365076,2.4901960784313744,-6.474509803921567,-15.811244979919673,12.967783632446608,59.68951456384577,26.456392045592548,425.57220404493177,51.9050140242342,827.8080736689774,1
-6.276370595519536,-47.50757308911588,-25.58523245214222,82.62223653144451,-85.62187594859861,123.60097323600971,-120.28389010705533,3.0382775119617147,-5.894514767932484,13.447058823529414,-19.98477157360405,-34.26984126984127,4.482352941176472,-5.478431372549018,-0.5100401606425646,10.888161052654624,128.65162448455513,26.456392045592548,425.57220404493177,51.9050140242342,827.8080736689774,1
-6.276370595519536,-47.50757308911588,-25.58523245214222,82.62223653144451,-85.62187594859861,123.60097323600971,-120.28389010705533,1.8229665071770258,-11.25316455696202,-6.474509803921567,-16.11675126903552,3.02380952380952,4.482352941176472,-6.474509803921567,-1.5301204819277052,6.397273110991424,25.388642837760642,26.456392045592548,425.57220404493177,51.9050140242342,827.8080736689774,1
-5.990431160643931,-47.418104966537506,-26.21670672080883,81.9135007512341,-85.23636547607,123.53917274939171,-119.79246743196182,1.8229665071770258,-11.25316455696202,-6.474509803921567,-16.11675126903552,3.02380952380952,4.482352941176472,-6.474509803921567,-1.5301204819277052,6.397273110991424,25.388642837760642,26.541747615996755,429.14227792953864,51.849437479526806,790.2607471974111,1
-5.990431160643931,-47.418104966537506,-26.21670672080883,81.9135007512341,-85.23636547607,123.53917274939171,-119.79246743196182,-9.114832535885174,-20.898734177215182,-35.36078431372549,-3.2233502538070944,-42.333333333333336,10.458823529411767,6.4745098039215705,-0.5100401606425646,16.046801013492775,237.7558933245197,26.541747615996755,429.14227792953864,51.849437479526806,790.2607471974111,1
-5.990431160643931,-47.418104966537506,-26.21670672080883,81.9135007512341,-85.23636547607,123.53917274939171,-119.79246743196182,6.6842105263157805,9.109704641350216,0.4980392156862763,-19.98477157360405,-8.063492063492067,-12.450980392156861,7.4705882352941195,4.590361445783138,8.606518511710314,33.0935947930093,26.541747615996755,429.14227792953864,51.849437479526806,790.2607471974111,1
-4.046043003489816,-47.28390278266995,-25.64837987900888,81.47735565572009,-85.05646058889002,123.4619221411192,-119.53037533857862,6.6842105263157805,9.109704641350216,0.4980392156862763,-19.98477157360405,-8.063492063492067,-12.450980392156861,7.4705882352941195,4.590361445783138,8.606518511710314,33.0935947930093,25.659441888389548,467.37822134704936,51.46987943913297,792.3604344954917,1
-4.046043003489816,-47.28390278266995,-25.64837987900888,81.47735565572009,-85.05646058889002,123.4619221411192,-119.53037533857862,-4.253588516746419,10.181434599156123,-19.423529411764704,-31.588832487309634,16.126984126984123,-2.490196078431371,-0.49803921568627274,-5.610441767068267,11.271630775393364,111.21299560234104,25.659441888389548,467.37822134704936,51.46987943913297,792.3604344954917,1
-4.046043003489816,-47.28390278266995,-25.64837987900888,81.47735565572009,-85.05646058889002,123.4619221411192,-119.53037533857862,-4.253588516746419,-14.46835443037974,14.443137254901963,-8.380710659898465,-3.0238095238095273,4.482352941176472,2.4901960784313744,-8.670682730923689,7.526604017033456,23.38362904898477,25.659441888389548,467.37822134704936,51.46987943913297,792.3604344954917,1
-6.1334008780817335,-47.91017964071856,-24.680119333720075,80.55054732775272,-84.46534453101285,123.5082725060827,-119.33380626854121,-4.253588516746419,-14.46835443037974,14.443137254901963,-8.380710659898465,-3.0238095238095273,4.482352941176472,2.4901960784313744,-8.670682730923689,7.526604017033456,23.38362904898477,26.241233284173457,438.15261852030096,51.04694876739712,787.7556714746596,1
-6.1334008780817335,-47.91017964071856,-24.680119333720075,80.55054732775272,-84.46534453101285,123.5082725060827,-119.33380626854121,-7.899521531100485,-16.611814345991554,4.482352941176472,-5.80203045685278,13.1031746031746,10.458823529411767,-2.490196078431371,-0.5100401606425646,7.6697442058476994,29.86449198680244,26.241233284173457,438.15261852030096,51.04694876739712,787.7556714746596,1
-6.1334008780817335,-47.91017964071856,-24.680119333720075,80.55054732775272,-84.46534453101285,123.5082725060827,-119.33380626854121,-5.468899521531108,-6.966244725738392,-7.470588235294116,-29.01015228426395,-16.12698412698413,-1.4941176470588218,2.4901960784313744,-1.5301204819277052,8.819662887653699,89.19982483594761,26.241233284173457,438.15261852030096,51.04694876739712,787.7556714746596,1
-5.161206799504676,-47.820711518140186,-24.006546780475688,79.9508478214209,-84.00273196397856,123.60097323600971,-119.2682832451954,-5.468899521531108,-6.966244725738392,-7.470588235294116,-29.01015228426395,-16.12698412698413,-1.4941176470588218,2.4901960784313744,-1.5301204819277052,8.819662887653699,89.19982483594761,25.662821699373513,457.0157706650489,50.592702040012256,788.2041533299871,1
-5.161206799504676,-47.820711518140186,-24.006546780475688,79.9508478214209,-84.00273196397856,123.60097323600971,-119.2682832451954,3.0382775119617147,3.7510548523206815,6.4745098039215705,-16.11675126903552,5.039682539682536,1.4941176470588253,-13.44705882352941,-1.5301204819277052,6.361446616179746,30.288844906645142,25.662821699373513,457.0157706650489,50.592702040012256,788.2041533299871,1
-5.161206799504676,-47.820711518140186,-24.006546780475688,79.9508478214209,-84.00273196397856,123.60097323600971,-119.2682832451954,-7.899521531100485,-6.966244725738392,10.458823529411767,4.512690355329962,25.198412698412696,22.411764705882355,25.400000000000002,-10.71084337349397,14.194787614921204,75.1251102746829,25.662821699373513,457.0157706650489,50.592702040012256,788.2041533299871,1
-5.761679612743447,-48.581190560056356,-24.469627910831203,79.46018458896754,-83.51441869877567,123.70912408759122,-119.07171417515801,-7.899521531100485,-6.966244725738392,10.458823529411767,4.512690355329962,25.198412698412696,22.411764705882355,25.400000000000002,-10.71084337349397,14.194787614921204,75.1251102746829,26.27083269454367,460.8108834464141,50.83700101995171,759.806841566061,1
-5.761679612743447,-48.581190560056356,-24.469627910831203,79.46018458896754,-83.51441869877567,123.70912408759122,-119.07171417515801,-0.607655502392352,-8.037974683544299,9.462745098039218,-9.670050761421308,13.1031746031746,4.482352941176472,7.4705882352941195,-2.550200803212846,6.923092828531901,16.956554218661942,26.27083269454367,460.8108834464141,50.83700101995171,759.806841566061,1
-5.761679612743447,-48.581190560056356,-24.469627910831203,79.46018458896754,-83.51441869877567,123.70912408759122,-119.07171417515801,-3.03827751196173,-1.6075949367088551,-24.40392156862745,-22.563451776649735,-30.23809523809524,4.482352941176472,-8.466666666666665,1.5301204819277165,12.041310140226733,137.855805890168,26.27083269454367,460.8108834464141,50.83700101995171,759.806841566061,1
-7.07700101317123,-47.597041211694254,-24.974807325764495,78.47885812406093,-82.87190124456137,123.75547445255472,-118.80962208177479,-3.03827751196173,-1.6075949367088551,-24.40392156862745,-22.563451776649735,-30.23809523809524,4.482352941176472,-8.466666666666665,1.5301204819277165,12.041310140226733,137.855805890168,26.549616516876664,412.32843241378896,50.350235553839894,721.3559222708886,1
-7.07700101317123,-47.597041211694254,-24.974807325764495,78.47885812406093,-82.87190124456137,123.75547445255472,-118.80962208177479,-4.253588516746419,-10.181434599156113,-21.415686274509802,-8.380710659898465,10.079365079365076,-8.466666666666665,2.4901960784313744,-6.630522088353408,8.987271245390916,32.55673493639379,26.549616516876664,412.32843241378896,50.350235553839894,721.3559222708886,1
-7.07700101317123,-47.597041211694254,-24.974807325764495,78.47885812406093,-82.87190124456137,123.75547445255472,-118.80962208177479,-15.191387559808618,-35.90295358649789,-1.4941176470588218,-10.95939086294415,7.055555555555552,-0.49803921568627274,-2.490196078431371,-0.5100401606425646,9.262710083328155,144.60695826952124,26.549616516876664,412.32843241378896,50.350235553839894,721.3559222708886,1
-3.8744793425644533,-49.16273335681578,-25.059003894920043,78.36982185018235,-82.66629565921278,123.86362530413624,-118.58029150006449,-15.191387559808618,-35.90295358649789,-1.4941176470588218,-10.95939086294415,7.055555555555552,-0.49803921568627274,-2.490196078431371,-0.5100401606425646,9.262710083328155,144.60695826952124,26.032072198100092,513.4666343568281,50.863853033972724,712.6811838817873,1
-3.8744793425644533,-49.16273335681578,-25.059003894920043,78.36982185018235,-82.66629565921278,123.86362530413624,-118.58029150006449,-4.253588516746419,-8.037974683544299,9.462745098039218,-7.091370558375623,-3.552713678800501e-15,-7.470588235294116,-1.4941176470588218,-1.5301204819277052,4.917563152623275,12.77957991474781,26.032072198100092,513.4666343568281,50.863853033972724,712.6811838817873,1
-3.8744793425644533,-49.16273335681578,-25.059003894920043,78.36982185018235,-82.66629565921278,123.86362530413624,-118.58029150006449,-4.253588516746419,-12.324894514767927,-6.474509803921567,-14.827411167512679,-22.174603174603178,-5.478431372549018,-0.49803921568627274,-4.590361445783127,8.827729901446274,50.197516430934975,26.032072198100092,513.4666343568281,50.863853033972724,712.6811838817873,1
-3.531352020713727,-48.22331806974287,-24.238087345653447,78.36982185018235,-82.51209147020134,123.97177615571775,-118.54752998839159,-4.253588516746419,-12.324894514767927,-6.474509803921567,-14.827411167512679,-22.174603174603178,-5.478431372549018,-0.49803921568627274,-4.590361445783127,8.827729901446274,50.197516430934975,25.330919145370014,500.2386683387472,50.27707575519289,735.7246105901099,1
-3.531352020713727,-48.22331806974287,-24.238087345653447,78.36982185018235,-82.51209147020134,123.97177615571775,-118.54752998839159,-6.6842105263157965,-14.46835443037974,37.352941176470594,-18.695431472081207,10.079365079365076,13.447058823529414,2.4901960784313744,-2.550200803212846,13.220969798723255,127.93465363509488,25.330919145370014,500.2386683387472,50.27707575519289,735.7246105901099,1
-3.531352020713727,-48.22331806974287,-24.238087345653447,78.36982185018235,-82.51209147020134,123.97177615571775,-118.54752998839159,0.6076555023923369,-0.5358649789029482,-25.4,-21.274111675126893,-6.047619047619051,-3.48627450980392,-2.490196078431371,0.5100401606425757,7.543970244114886,99.75733589651179,25.330919145370014,500.2386683387472,50.27707575519289,735.7246105901099,1
-3.5027580772261664,-47.86544557942937,-24.91165989889783,78.36982185018235,-82.43498937569564,124.00267639902674,-118.38372243002709,0.6076555023923369,-0.5358649789029482,-25.4,-21.274111675126893,-6.047619047619051,-3.48627450980392,-2.490196078431371,0.5100401606425757,7.543970244114886,99.75733589651179,25.426621185184455,492.2108994493146,50.38230910950318,719.1947213242026,1
-3.5027580772261664,-47.86544557942937,-24.91165989889783,78.36982185018235,-82.43498937569564,124.00267639902674,-118.38372243002709,-0.607655502392352,-15.54008438818565,12.450980392156865,3.2233502538071193,-5.039682539682543,-4.482352941176469,-15.439215686274508,1.5301204819277165,7.289180273200403,38.34624469013928,25.426621185184455,492.2108994493146,50.38230910950318,719.1947213242026,1
-3.5027580772261664,-47.86544557942937,-24.91165989889783,78.36982185018235,-82.43498937569564,124.00267639902674,-118.38372243002709,-1.822966507177041,-1.6075949367088551,1.4941176470588253,-10.95939086294415,8.06349206349206,0.4980392156862763,-6.474509803921567,-1.5301204819277052,4.05627893986456,15.16421521451421,25.426621185184455,492.2108994493146,50.38230910950318,719.1947213242026,1
-5.389958347405161,-48.13384994716449,-25.374741029253347,77.8791586177291,-82.07517960133563,124.04902676399026,-118.12163033664388,-1.822966507177041,-1.6075949367088551,1.4941176470588253,-10.95939086294415,8.06349206349206,0.4980392156862763,-6.474509803921567,-1.5301204819277052,4.05627893986456,15.16421521451421,26.299516441274335,457.401474445003,50.46258319804898,693.2457154915919,1
-5.389958347405161,-48.13384994716449,-25.374741029253347,77.8791586177291,-82.07517960133563,124.04902676399026,-118.12163033664388,-12.760765550239242,-10.181434599156113,-9.462745098039214,-8.380710659898465,2.0158730158730123,-7.470588235294116,-6.474509803921567,-2.550200803212846,7.412103470704322,13.580087847467723,26.299516441274335,457.401474445003,50.46258319804898,693.2457154915919,1
-5.389958347405161,-48.13384994716449,-25.374741029253347,77.8791586177291,-82.07517960133563,124.04902676399026,-118.12163033664388,10.330143540669848,26.25738396624473,43.32941176470588,-8.380710659898465,20.158730158730155,5.4784313725490215,1.4941176470588253,-2.550200803212846,14.747391239133723,207.01077858251125,26.299516441274335,457.401474445003,50.46258319804898,693.2457154915919,1
-2.4447821681864275,-47.50757308911588,-25.669429021297766,77.8791586177291,-82.02377820499848,124.09537712895376,-118.18715335998968,10.330143540669848,26.25738396624473,43.32941176470588,-8.380710659898465,20.158730158730155,5.4784313725490215,1.4941176470588253,-2.550200803212846,14.747391239133723,207.01077858251125,25.207261426200024,507.8239805603192,50.35205357604758,687.5322680635211,1
-2.4447821681864275,-47.50757308911588,-25.669429021297766,77.8791586177291,-82.02377820499848,124.09537712895376,-118.18715335998968,-11.545454545454552,-17.68354430379746,0.4980392156862763,0.6446700507614338,22.17460317460317,-9.462745098039214,9.462745098039218,-8.670682730923689,10.017810527163128,55.685362118214535,25.207261426200024,507.8239805603192,50.35205357604758,687.5322680635211,1
-2.4447821681864275,-47.50757308911588,-25.669429021297766,77.8791586177291,-82.02377820499848,124.09537712895376,-118.18715335998968,-9.114832535885174,-21.970464135021093,-28.388235294117646,-3.2233502538070944,30.238095238095234,2.4901960784313744,5.4784313725490215,-1.5301204819277052,12.804215673729292,146.19682905906882,25.207261426200024,507.8239805603192,50.35205357604758,687.5322680635211,1
-0.7577395024203575,-47.68650933427263,-25.71152730587554,78.26078557630387,-82.25508448851562,124.11082725060825,-118.21991487166258,-9.114832535885174,-21.970464135021093,-28.388235294117646,-3.2233502538070944,30.238095238095234,2.4901960784313744,5.4784313725490215,-1.5301204819277052,12.804215673729292,146.19682905906882,24.718592047522844,551.3167998032019,50.55294073881735,696.5184579407653,1
-0.7577395024203575,-47.68650933427263,-25.71152730587554,78.26078557630387,-82.25508448851562,124.11082725060825,-118.21991487166258,-0.607655502392352,-23.042194092827,-26.396078431372548,-0.6446700507614089,4.031746031746028,1.4941176470588253,3.4862745098039234,-4.590361445783127,8.036637213968152,109.07044284964427,24.718592047522844,551.3167998032019,50.55294073881735,696.5184579407653,1
-0.7577395024203575,-47.68650933427263,-25.71152730587554,78.26078557630387,-82.25508448851562,124.11082725060825,-118.21991487166258,-13.97607655502393,-13.396624472573833,-16.435294117647057,-21.274111675126893,2.0158730158730123,-3.48627450980392,-6.474509803921567,-6.630522088353408,10.461160779790452,46.30297984063322,24.718592047522844,551.3167998032019,50.55294073881735,696.5184579407653,1
-0.2716424631318288,-47.73124339556181,-25.479986740697782,78.80596694569647,-82.53779216836992,124.12627737226275,-118.31819940668129,-13.97607655502393,-13.396624472573833,-16.435294117647057,-21.274111675126893,2.0158730158730123,-3.48627450980392,-6.474509803921567,-6.630522088353408,10.461160779790452,46.30297984063322,24.494290866463803,563.8321274337387,50.67239902731868,717.4028385436393,1
-0.2716424631318288,-47.73124339556181,-25.479986740697782,78.80596694569647,-82.53779216836992,124.12627737226275,-118.31819940668129,-4.253588516746419,-4.822784810126577,20.419607843137257,-22.563451776649735,-9.071428571428575,-1.4941176470588218,3.4862745098039234,-4.590361445783127,8.837701890091804,65.76156336923734,24.494290866463803,563.8321274337387,50.67239902731868,717.4028385436393,1
-0.2716424631318288,-47.73124339556181,-25.479986740697782,78.80596694569647,-82.53779216836992,124.12627737226275,-118.31819940668129,0.6076555023923369,11.25316455696203,15.439215686274512,-7.091370558375623,-14.111111111111114,-8.466666666666665,-1.4941176470588218,-4.590361445783127,7.881707896828029,30.400146738933987,24.494290866463803,563.8321274337387,50.67239902731868,717.4028385436393,1
-1.7013396375098544,-47.91017964071856,-25.437888456120007,78.8604850826357,-82.5634928665385,124.12627737226275,-118.28543789500839,0.6076555023923369,11.25316455696203,15.439215686274512,-7.091370558375623,-14.111111111111114,-8.466666666666665,-1.4941176470588218,-4.590361445783127,7.881707896828029,30.400146738933987,25.016469244782808,533.9474192242984,50.73618439315809,719.4831847254598,1
-1.7013396375098544,-47.91017964071856,-25.437888456120007,78.8604850826357,-82.5634928665385,124.12627737226275,-118.28543789500839,-3.03827751196173,9.109704641350216,-12.450980392156861,-19.98477157360405,-16.12698412698413,1.4941176470588253,5.4784313725490215,0.5100401606425757,8.524163428288427,51.13290215634662,25.016469244782808,533.9474192242984,50.73618439315809,719.4831847254598,1
-1.7013396375098544,-47.91017964071856,-25.437888456120007,78.8604850826357,-82.5634928665385,124.12627737226275,-118.28543789500839,-10.330143540669862,-30.54430379746835,14.443137254901963,-8.380710659898465,-11.08730158730159,-19.423529411764704,-2.490196078431371,-0.5100401606425646,12.151170311384858,91.99461917906875,25.016469244782808,533.9474192242984,50.73618439315809,719.4831847254598,1
-3.3026004728132428,-48.178584008453676,-25.311593602386687,78.58789439793941,-82.38358797935848,124.12627737226275,-118.12163033664388,-10.330143540669862,-30.54430379746835,14.443137254901963,-8.380710659898465,-11.08730158730159,-19.423529411764704,-2.490196078431371,-0.5100401606425646,12.151170311384858,91.99461917906875,25.597592694551206,503.52482118330704,50.692690669593254,714.3316058422427,1
-3.3026004728132428,-48.178584008453676,-25.311593602386687,78.58789439793941,-82.38358797935848,124.12627737226275,-118.12163033664388,-5.468899521531108,-2.679324894514762,-27.392156862745097,-8.380710659898465,22.17460317460317,5.4784313725490215,-1.4941176470588218,-18.871485943775095,11.492466259584443,97.30451033254974,25.597592694551206,503.52482118330704,50.692690669593254,714.3316058422427,1
-3.3026004728132428,-48.178584008453676,-25.311593602386687,78.58789439793941,-82.38358797935848,124.12627737226275,-118.12163033664388,-7.899521531100485,-12.324894514767927,-8.466666666666665,-7.091370558375623,-1.0079365079365115,8.466666666666669,8.466666666666669,-1.5301204819277052,6.906730449263532,14.482876521854337,25.597592694551206,503.52482118330704,50.692690669593254,714.3316058422427,1
-2.4447821681864275,-47.86544557942937,-24.701168476008963,78.47885812406093,-82.25508448851562,124.17262773722626,-118.18715335998968,-7.899521531100485,-12.324894514767927,-8.466666666666665,-7.091370558375623,-1.0079365079365115,8.466666666666669,8.466666666666669,-1.5301204819277052,6.906730449263532,14.482876521854337,25.003798741208254,515.8278549874167,50.34849072649976,727.6341108723414,1
-2.4447821681864275,-47.86544557942937,-24.701168476008963,78.47885812406093,-82.25508448851562,124.17262773722626,-118.18715335998968,-10.330143540669862,-14.46835443037974,57.274509803921575,-3.2233502538070944,5.039682539682536,-3.48627450980392,-9.462745098039214,-2.550200803212846,13.229407622439599,334.32376804178824,25.003798741208254,515.8278549874167,50.34849072649976,727.6341108723414,1
-2.4447821681864275,-47.86544557942937,-24.701168476008963,78.47885812406093,-82.25508448851562,124.17262773722626,-118.18715335998968,-11.545454545454552,-28.400843881856535,-35.36078431372549,-17.406091370558364,-11.08730158730159,7.4705882352941195,-4.482352941176469,0.5100401606425757,14.532932129501212,143.24331166044485,25.003798741208254,515.8278549874167,50.34849072649976,727.6341108723414,1
-1.5011820330969308,-47.01549841493483,-24.385431341675655,78.53337626100017,-82.2807851866842,124.21897810218977,-118.4164839417,-11.545454545454552,-28.400843881856535,-35.36078431372549,-17.406091370558364,-11.08730158730159,7.4705882352941195,-4.482352941176469,0.5100401606425757,14.532932129501212,143.24331166044485,24.300703929902472,517.8936329772389,49.97810200587022,739.5827497743178,1
-1.5011820330969308,-47.01549841493483,-24.385431341675655,78.53337626100017,-82.2807851866842,124.21897810218977,-118.4164839417,-1.822966507177041,-15.54008438818565,7.4705882352941195,-7.091370558375623,2.0158730158730123,-1.4941176470588218,7.4705882352941195,1.5301204819277165,5.554463633648263,24.07788763221011,24.300703929902472,517.8936329772389,49.97810200587022,739.5827497743178,1
-1.5011820330969308,-47.01549841493483,-24.385431341675655,78.53337626100017,-82.2807851866842,124.21897810218977,-118.4164839417,7.89952153110047,28.400843881856545,73.21176470588236,-9.670050761421308,8.06349206349206,-6.474509803921567,-2.490196078431371,-1.5301204819277052,17.217562413504176,580.9155185219839,24.300703929902472,517.8936329772389,49.97810200587022,739.5827497743178,1
-1.9872790723854594,-47.50757308911588,-25.185298748653363,78.58789439793941,-82.30648588485278,124.21897810218977,-118.4164839417,7.89952153110047,28.400843881856545,73.21176470588236,-9.670050761421308,8.06349206349206,-6.474509803921567,-2.490196078431371,-1.5301204819277052,17.217562413504176,580.9155185219839,24.893383636718237,518.0882026668279,50.426922078569554,719.3512544119543,1
-1.9872790723854594,-47.50757308911588,-25.185298748653363,78.58789439793941,-82.30648588485278,124.21897810218977,-118.4164839417,-10.330143540669862,-12.324894514767927,-13.44705882352941,-17.406091370558364,13.1031746031746,-0.49803921568627274,-3.48627450980392,2.5502008032128574,9.143234672675401,37.74560539626206,24.893383636718237,518.0882026668279,50.426922078569554,719.3512544119543,1
-1.9872790723854594,-47.50757308911588,-25.185298748653363,78.58789439793941,-82.30648588485278,124.21897810218977,-118.4164839417,-12.760765550239242,-34.83122362869198,-33.36862745098039,-14.827411167512679,-3.552713678800501e-15,4.482352941176472,1.4941176470588253,-6.630522088353408,13.549377559251624,186.71019106348305,24.893383636718237,518.0882026668279,50.426922078569554,719.3512544119543,1
-4.24620060790274,-47.418104966537506,-25.311593602386687,78.1517493024254,-81.9980775068299,124.24987834549876,-118.35096091835419,-12.760765550239242,-34.83122362869198,-33.36862745098039,-14.827411167512679,-3.552713678800501e-15,4.482352941176472,1.4941176470588253,-6.630522088353408,13.549377559251624,186.71019106348305,25.658633058942314,466.0436587760817,50.29381595711653,704.2227988770862,1
-4.24620060790274,-47.418104966537506,-25.311593602386687,78.1517493024254,-81.9980775068299,124.24987834549876,-118.35096091835419,-1.822966507177041,-8.037974683544299,17.43137254901961,-4.512690355329937,-1.0079365079365115,1.4941176470588253,-1.4941176470588218,-3.5702811244979866,4.921432127702879,30.9447188547407,25.658633058942314,466.0436587760817,50.29381595711653,704.2227988770862,1
-4.24620060790274,-47.418104966537506,-25.311593602386687,78.1517493024254,-81.9980775068299,124.24987834549876,-118.35096091835419,-16.406698564593306,-24.113924050632907,-31.376470588235293,-10.95939086294415,4.031746031746028,0.4980392156862763,5.4784313725490215,-3.5702811244979866,12.05437272636062,121.72173824266017,25.658633058942314,466.0436587760817,50.29381595711653,704.2227988770862,1
-2.759315546549593,-47.999647763296934,-25.50103588298667,78.04271302854681,-81.89527471415562,124.26532846715327,-118.28543789500839,-16.406698564593306,-24.113924050632907,-31.376470588235293,-10.95939086294415,4.031746031746028,0.4980392156862763,5.4784313725490215,-3.5702811244979866,12.05437272636062,121.72173824266017,25.419999730944397,511.67683991387025,50.51446555827681,694.9001907235298,1
-2.759315546549593,-47.999647763296934,-25.50103588298667,78.04271302854681,-81.89527471415562,124.26532846715327,-118.28543789500839,-11.545454545454552,-17.68354430379746,-1.4941176470588218,-7.091370558375623,-28.222222222222225,-15.439215686274508,37.352941176470594,0.5100401606425757,14.917363287537047,164.09556111317846,25.419999730944397,511.67683991387025,50.51446555827681,694.9001907235298,1
-2.759315546549593,-47.999647763296934,-25.50103588298667,78.04271302854681,-81.89527471415562,124.26532846715327,-118.28543789500839,3.0382775119617147,-13.396624472573833,-33.36862745098039,-12.248730964466993,7.055555555555552,-4.482352941176469,-1.4941176470588218,-6.630522088353408,10.214351079015898,104.80031496744634,25.419999730944397,511.67683991387025,50.51446555827681,694.9001907235298,1
-2.3304063942361855,-47.91017964071856,-25.016905610342267,77.93367675466834,-81.81817261964991,124.28077858880776,-118.25267638333548,3.0382775119617147,-13.396624472573833,-33.36862745098039,-12.248730964466993,7.055555555555552,-4.482352941176469,-1.4941176470588218,-6.630522088353408,10.214351079015898,104.80031496744634,25.085830548432337,519.3824952855057,50.286920668576386,704.2828405203722,1
-2.3304063942361855,-47.91017964071856,-25.016905610342267,77.93367675466834,-81.81817261964991,124.28077858880776,-118.25267638333548,-6.6842105263157965,-13.396624472573833,-7.470588235294116,-9.670050761421308,21.166666666666664,11.454901960784316,-6.474509803921567,0.5100401606425757,9.603449073452524,36.725698564769814,25.085830548432337,519.3824952855057,50.286920668576386,704.2828405203722,1
-2.3304063942361855,-47.91017964071856,-25.016905610342267,77.93367675466834,-81.81817261964991,124.28077858880776,-118.25267638333548,-9.114832535885174,0.5358649789029588,9.462745098039218,-0.6446700507614089,3.02380952380952,1.4941176470588253,-2.490196078431371,-5.610441767068267,4.047084709994593,13.049893629845181,25.085830548432337,519.3824952855057,50.286920668576386,704.2828405203722,1
-2.4733761116739883,-46.7918281084889,-24.974807325764495,77.82464048078987,-81.79247192148134,124.24987834549876,-118.25267638333548,-9.114832535885174,0.5358649789029588,9.462745098039218,-0.6446700507614089,3.02380952380952,1.4941176470588253,-2.490196078431371,-5.610441767068267,4.047084709994593,13.049893629845181,24.74667051530913,491.0703316517105,49.863758638347754,705.353784013714,1
-2.4733761116739883,-46.7918281084889,-24.974807325764495,77.82464048078987,-81.79247192148134,124.24987834549876,-118.25267638333548,5.4688995215310925,24.113924050632917,49.30588235294118,-18.695431472081207,-5.039682539682543,2.4901960784313744,-2.490196078431371,-4.590361445783127,14.02432169243935,268.1997953547486,24.74667051530913,491.0703316517105,49.863758638347754,705.353784013714,1
-2.4733761116739883,-46.7918281084889,-24.974807325764495,77.82464048078987,-81.79247192148134,124.24987834549876,-118.25267638333548,-4.253588516746419,-11.25316455696202,-4.482352941176469,-4.512690355329937,3.02380952380952,11.454901960784316,-5.478431372549018,-3.5702811244979866,6.003652543981961,11.421451368067613,24.74667051530913,491.0703316517105,49.863758638347754,705.353784013714,1
-2.55915794213667,-47.999647763296934,-25.26949531780891,77.8791586177291,-81.79247192148134,124.28077858880776,-118.15439184831678,-4.253588516746419,-11.25316455696202,-4.482352941176469,-4.512690355329937,3.02380952380952,11.454901960784316,-5.478431372549018,-3.5702811244979866,6.003652543981961,11.421451368067613,25.276100341080838,516.2095615164918,50.382767232944985,696.2036119377042,1
-2.55915794213667,-47.999647763296934,-25.26949531780891,77.8791586177291,-81.79247192148134,124.28077858880776,-118.15439184831678,-12.760765550239242,-25.185654008438814,-10.458823529411763,-13.538071065989836,-3.0238095238095273,-14.44313725490196,-5.478431372549018,-8.670682730923689,11.69492187953298,45.513238292197556,25.276100341080838,516.2095615164918,50.382767232944985,696.2036119377042,1
-2.55915794213667,-47.999647763296934,-25.26949531780891,77.8791586177291,-81.79247192148134,124.28077858880776,-118.15439184831678,0.6076555023923369,-8.037974683544299,8.466666666666669,-1.9340101522842517,10.079365079365076,-4.482352941176469,-2.490196078431371,-0.5100401606425646,4.576032658062879,14.432689800300908,25.276100341080838,516.2095615164918,50.382767232944985,696.2036119377042,1
-2.55915794213667,-48.22331806974287,-25.56418330985333,77.82464048078987,-81.68966912880705,124.32712895377126,-118.15439184831678,0.6076555023923369,-8.037974683544299,8.466666666666669,-1.9340101522842517,10.079365079365076,-4.482352941176469,-2.490196078431371,-0.5100401606425646,4.576032658062879,14.432689800300908,25.448886440577624,521.3138500659634,50.53738062012869,686.8050100441467,1
-2.55915794213667,-48.22331806974287,-25.56418330985333,77.82464048078987,-81.68966912880705,124.32712895377126,-118.15439184831678,-10.330143540669862,-17.68354430379746,3.4862745098039234,-4.512690355329937,-11.08730158730159,5.4784313725490215,-6.474509803921567,-5.610441767068267,8.082917155055204,22.229641692338856,25.448886440577624,521.3138500659634,50.53738062012869,686.8050100441467,1
-2.55915794213667,-48.22331806974287,-25.56418330985333,77.82464048078987,-81.68966912880705,124.32712895377126,-118.15439184831678,-11.545454545454552,-30.54430379746835,-18.427450980392155,-16.11675126903552,-13.103174603174606,11.454901960784316,-2.490196078431371,-4.590361445783127,13.5340743350655,75.76910710052981,25.448886440577624,521.3138500659634,50.53738062012869,686.8050100441467,1
-1.2438365417088861,-47.418104966537506,-25.374741029253347,77.98819489160758,-81.76677122331276,124.35802919708027,-118.28543789500839,-11.545454545454552,-30.54430379746835,-18.427450980392155,-16.11675126903552,-13.103174603174606,11.454901960784316,-2.490196078431371,-4.590361445783127,13.5340743350655,75.76910710052981,24.67889417916658,533.378918271113,50.260346962466144,698.1026365040846,1
-1.2438365417088861,-47.418104966537506,-25.374741029253347,77.98819489160758,-81.76677122331276,124.35802919708027,-118.28543789500839,5.4688995215310925,6.966244725738402,-48.30980392156863,-10.95939086294415,8.06349206349206,5.4784313725490215,-3.48627450980392,-3.5702811244979866,11.537852262765657,226.76295481582912,24.67889417916658,533.378918271113,50.260346962466144,698.1026365040846,1
-1.2438365417088861,-47.418104966537506,-25.374741029253347,77.98819489160758,-81.76677122331276,124.35802919708027,-118.28543789500839,-5.468899521531108,10.181434599156123,85.16470588235295,0.6446700507614338,11.087301587301583,0.4980392156862763,-4.482352941176469,1.5301204819277165,14.882190534986707,822.9693564492819,24.67889417916658,533.378918271113,50.260346962466144,698.1026365040846,1
-1.9872790723854594,-47.999647763296934,-25.26949531780891,77.98819489160758,-81.79247192148134,124.34257907542577,-118.28543789500839,-5.468899521531108,10.181434599156123,85.16470588235295,0.6446700507614338,11.087301587301583,0.4980392156862763,-4.482352941176469,1.5301204819277165,14.882190534986707,822.9693564492819,25.08547405116377,529.3099160070259,50.41911265757114,699.2056789690789,1
-1.9872790723854594,-47.999647763296934,-25.26949531780891,77.98819489160758,-81.79247192148134,124.34257907542577,-118.28543789500839,-5.468899521531108,-19.827004219409275,-14.44313725490196,-19.98477157360405,-9.071428571428575,-10.458823529411763,-7.470588235294116,-10.71084337349397,12.179437034884351,29.502062187312553,25.08547405116377,529.3099160070259,50.41911265757114,699.2056789690789,1
-1.9872790723854594,-47.999647763296934,-25.26949531780891,77.98819489160758,-81.79247192148134,124.34257907542577,-118.28543789500839,-1.822966507177041,-4.822784810126577,36.35686274509804,-16.11675126903552,-6.047619047619051,-11.454901960784312,2.4901960784313744,-6.630522088353408,10.717825563328166,129.5903852352814,25.08547405116377,529.3099160070259,50.41911265757114,699.2056789690789,1
-2.8165034335247143,-48.13384994716449,-25.248446175520026,77.93367675466834,-81.7153698269756,124.35802919708027,-118.15439184831678,-1.822966507177041,-4.822784810126577,36.35686274509804,-16.11675126903552,-6.047619047619051,-11.454901960784312,2.4901960784313744,-6.630522088353408,10.717825563328166,129.5903852352814,25.399599852069745,513.4326093347756,50.43865762578429,697.9174841210747,1
-2.8165034335247143,-48.13384994716449,-25.248446175520026,77.93367675466834,-81.7153698269756,124.35802919708027,-118.15439184831678,-7.899521531100485,-19.827004219409275,-22.41176470588235,7.0913705583756474,14.111111111111107,0.4980392156862763,19.423529411764708,-1.5301204819277052,11.599057654407193,72.96691799315931,25.399599852069745,513.4326093347756,50.43865762578429,697.9174841210747,1
-2.8165034335247143,-48.13384994716449,-25.248446175520026,77.93367675466834,-81.7153698269756,124.35802919708027,-118.15439184831678,-6.6842105263157965,-17.68354430379746,-6.474509803921567,-16.11675126903552,1.0079365079365044,0.4980392156862763,7.4705882352941195,-3.5702811244979866,7.438232623310654,40.8939280941863,25.399599852069745,513.4326093347756,50.43865762578429,697.9174841210747,1
-2.359000337723746,-47.999647763296934,-25.437888456120007,77.93367675466834,-81.68966912880705,124.37347931873478,-118.05610731329809,-6.6842105263157965,-17.68354430379746,-6.474509803921567,-16.11675126903552,1.0079365079365044,0.4980392156862763,7.4705882352941195,-3.5702811244979866,7.438232623310654,40.8939280941863,25.26551218571356,520.7894595403196,50.45707099136175,693.4811439628754,1
-2.359000337723746,-47.999647763296934,-25.437888456120007,77.93367675466834,-81.68966912880705,124.37347931873478,-118.05610731329809,-10.330143540669862,-24.113924050632907,-25.4,-25.14213197969542,-8.063492063492067,-5.478431372549018,-8.466666666666665,-3.5702811244979866,13.820633849775492,88.12358648751395,25.26551218571356,520.7894595403196,50.45707099136175,693.4811439628754,1
-2.359000337723746,-47.999647763296934,-25.437888456120007,77.93367675466834,-81.68966912880705,124.37347931873478,-118.05610731329809,-0.607655502392352,-4.822784810126577,-47.31372549019608,-9.670050761421308,-1.0079365079365115,0.4980392156862763,0.4980392156862763,6.63052208835342,8.88109419897485,252.88745313497841,25.26551218571356,520.7894595403196,50.45707099136175,693.4811439628754,1
-1.958685128897899,-48.536456498767166,-25.374741029253347,77.93367675466834,-81.68966912880705,124.37347931873478,-118.05610731329809,-0.607655502392352,-4.822784810126577,-47.31372549019608,-9.670050761421308,-1.0079365079365115,0.4980392156862763,0.4980392156862763,6.63052208835342,8.88109419897485,252.88745313497841,25.28996088563947,542.3775872005167,50.61495809422962,693.8505578088311,1
-1.958685128897899,-48.536456498767166,-25.374741029253347,77.93367675466834,-81.68966912880705,124.37347931873478,-118.05610731329809,-7.899521531100485,-5.894514767932484,5.4784313725490215,-29.01015228426395,-15.11904761904762,2.4901960784313744,-6.474509803921567,-3.5702811244979866,9.49208182271806,76.77225913161416,25.28996088563947,542.3775872005167,50.61495809422962,693.8505578088311,1
-1.958685128897899,-48.536456498767166,-25.374741029253347,77.93367675466834,-81.68966912880705,124.37347931873478,-118.05610731329809,-11.545454545454552,-31.616033755274255,-33.36862745098039,-9.670050761421308,12.095238095238091,7.4705882352941195,-1.4941176470588218,-7.650602409638549,14.363839112545012,136.02226804191372,25.28996088563947,542.3775872005167,50.61495809422962,693.8505578088311,1
-1.2438365417088861,-48.26805213103205,-25.101102179497815,78.20626743936464,-81.76677122331276,124.43527980535278,-118.12163033664388,-11.545454545454552,-31.616033755274255,-33.36862745098039,-9.670050761421308,12.095238095238091,7.4705882352941195,-1.4941176470588218,-7.650602409638549,14.363839112545012,136.02226804191372,24.87099695074625,552.85892426001,50.52514058329817,708.8604805304562,1
-1.2438365417088861,-48.26805213103205,-25.101102179497815,78.20626743936464,-81.76677122331276,124.43527980535278,-118.12163033664388,11.545454545454536,18.755274261603383,-8.466666666666665,-17.406091370558364,-2.0158730158730194,0.4980392156862763,6.4745098039215705,10.710843373493981,9.484094031657225,43.01188682462047,24.87099695074625,552.85892426001,50.52514058329817,708.8604805304562,1
-1.2438365417088861,-48.26805213103205,-25.101102179497815,78.20626743936464,-81.76677122331276,124.43527980535278,-118.12163033664388,-1.822966507177041,-14.46835443037974,-10.458823529411763,-4.512690355329937,-4.031746031746035,12.450980392156865,6.4745098039215705,0.5100401606425757,6.841263901345691,25.9208604979882,24.87099695074625,552.85892426001,50.52514058329817,708.8604805304562,1
-1.7013396375098544,-48.04438182458612,-24.890610756608947,78.36982185018235,-81.79247192148134,124.49708029197079,-118.21991487166258,-1.822966507177041,-14.46835443037974,-10.458823529411763,-4.512690355329937,-4.031746031746035,12.450980392156865,6.4745098039215705,0.5100401606425757,6.841263901345691,25.9208604979882,24.878777406234974,536.9194948094183,50.434938143792465,719.2925744342192,1
-1.7013396375098544,-48.04438182458612,-24.890610756608947,78.36982185018235,-81.79247192148134,124.49708029197079,-118.21991487166258,-7.899521531100485,-9.109704641350206,16.43529411764706,-12.248730964466993,14.111111111111107,-8.466666666666665,-7.470588235294116,-8.670682730923689,10.55153749982004,10.951177428823822,24.878777406234974,536.9194948094183,50.434938143792465,719.2925744342192,1
-1.7013396375098544,-48.04438182458612,-24.890610756608947,78.36982185018235,-81.79247192148134,124.49708029197079,-118.21991487166258,-5.468899521531108,-8.037974683544299,37.352941176470594,-22.563451776649735,22.17460317460317,-1.4941176470588218,-2.490196078431371,-12.751004016064252,14.041648509294168,154.8944171646518,24.878777406234974,536.9194948094183,50.434938143792465,719.2925744342192,1
0.21445457615669983,-46.56815780204297,-25.2905444600978,78.696930671818,-82.04947890316706,124.46618004866178,-118.5147684767187,-5.468899521531108,-8.037974683544299,37.352941176470594,-22.563451776649735,22.17460317460317,-1.4941176470588218,-2.490196078431371,-12.751004016064252,14.041648509294168,154.8944171646518,24.024385612765823,548.6424377162579,50.18521097798626,722.8728273070553,1
0.21445457615669983,-46.56815780204297,-25.2905444600978,78.696930671818,-82.04947890316706,124.46618004866178,-118.5147684767187,-12.760765550239242,-10.181434599156113,19.423529411764708,-9.670050761421308,1.0079365079365044,4.482352941176472,32.372549019607845,-1.5301204819277052,11.428592409153737,109.11585020516,24.024385612765823,548.6424377162579,50.18521097798626,722.8728273070553,1
0.21445457615669983,-46.56815780204297,-25.2905444600978,78.696930671818,-82.04947890316706,124.46618004866178,-118.5147684767187,0.6076555023923369,3.7510548523206815,-24.40392156862745,-19.98477157360405,-11.08730158730159,1.4941176470588253,7.4705882352941195,0.5100401606425757,8.663681390905204,84.30537316063399,24.024385612765823,548.6424377162579,50.18521097798626,722.8728273070553,1
-0.042890915231344806,-46.478689679464594,-25.522085025275558,78.96952135651418,-82.2807851866842,124.41982968369828,-118.744099058429,0.6076555023923369,3.7510548523206815,-24.40392156862745,-19.98477157360405,-11.08730158730159,1.4941176470588253,7.4705882352941195,0.5100401606425757,8.663681390905204,84.30537316063399,24.014555206657167,540.7753363336093,50.3234320204181,725.243645346692,1
-0.042890915231344806,-46.478689679464594,-25.522085025275558,78.96952135651418,-82.2807851866842,124.41982968369828,-118.744099058429,-9.114832535885174,-28.400843881856535,-15.439215686274508,-7.091370558375623,-7.055555555555559,12.450980392156865,-12.450980392156861,-3.5702811244979866,11.946757515844888,58.44664265433946,24.014555206657167,540.7753363336093,50.3234320204181,725.243645346692,1
-0.042890915231344806,-46.478689679464594,-25.522085025275558,78.96952135651418,-82.2807851866842,124.41982968369828,-118.744099058429,-10.330143540669862,-12.324894514767927,35.36078431372549,-16.11675126903552,-9.071428571428575,-28.388235294117646,-5.478431372549018,-3.5702811244979866,15.080118750099002,125.77323057663794,24.014555206657167,540.7753363336093,50.3234320204181,725.243645346692,1
1.0150849938083941,-47.10496653751321,-25.458937598408895,79.51470272590677,-82.61489426287565,124.41982968369828,-119.0389526634851,-10.330143540669862,-12.324894514767927,35.36078431372549,-16.11675126903552,-9.071428571428575,-28.388235294117646,-5.478431372549018,-3.5702811244979866,15.080118750099002,125.77323057663794,24.52632970991017,580.8273000704698,50.692868953942956,740.1612186921707,1
1.0150849938083941,-47.10496653751321,-25.458937598408895,79.51470272590677,-82.61489426287565,124.41982968369828,-119.0389526634851,-7.899521531100485,-12.324894514767927,-12.450980392156861,-8.380710659898465,-14.111111111111114,-1.4941176470588218,-7.470588235294116,-5.610441767068267,8.717795732307007,17.173082772257143,24.52632970991017,580.8273000704698,50.692868953942956,740.1612186921707,1
1.0150849938083941,-47.10496653751321,-25.458937598408895,79.51470272590677,-82.61489426287565,124.41982968369828,-119.0389526634851,15.191387559808604,48.763713080168785,12.450980392156865,-25.14213197969542,-4.031746031746035,4.482352941176472,-0.49803921568627274,-3.5702811244979866,14.266329040617055,259.56399178978324,24.52632970991017,580.8273000704698,50.692868953942956,740.1612186921707,1
0.9007092198581521,-48.04438182458612,-25.22739703323114,80.00536595836013,-82.89760194272995,124.46618004866178,-119.33380626854121,15.191387559808604,48.763713080168785,12.450980392156865,-25.14213197969542,-4.031746031746035,4.482352941176472,-0.49803921568627274,-3.5702811244979866,14.266329040617055,259.56399178978324,24.72416269255847,599.8191114484313,51.09238160539246,757.124196888446,1
0.9007092198581521,-48.04438182458612,-25.22739703323114,80.00536595836013,-82.89760194272995,124.46618004866178,-119.33380626854121,-6.6842105263157965,-18.75527426160337,14.443137254901963,1.9340101522842765,44.34920634920634,7.4705882352941195,-4.482352941176469,-5.610441767068267,12.966152685981324,191.1492864726341,24.72416269255847,599.8191114484313,51.09238160539246,757.124196888446,1
0.9007092198581521,-48.04438182458612,-25.22739703323114,80.00536595836013,-82.89760194272995,124.46618004866178,-119.33380626854121,-11.545454545454552,-26.25738396624472,22.411764705882355,-13.538071065989836,-16.12698412698413,-16.435294117647057,10.458823529411767,-2.550200803212846,14.915497107603407,53.51812723111848,24.72416269255847,599.8191114484313,51.09238160539246,757.124196888446,1
1.0150849938083941,-47.55230715040507,-25.059003894920043,80.49602919081349,-83.15460892441567,124.51253041362529,-119.72694440861602,-11.545454545454552,-26.25738396624472,22.411764705882355,-13.538071065989836,-16.12698412698413,-16.435294117647057,10.458823529411767,-2.550200803212846,14.915497107603407,53.51812723111848,24.542132013044505,590.7663970683888,51.03578007871286,777.4168811460725,1
1.0150849938083941,-47.55230715040507,-25.059003894920043,80.49602919081349,-83.15460892441567,124.51253041362529,-119.72694440861602,0.6076555023923369,6.966244725738402,1.4941176470588253,-17.406091370558364,-25.198412698412703,9.462745098039218,4.482352941176472,5.610441767068279,8.903507718805574,70.85638708031865,24.542132013044505,590.7663970683888,51.03578007871286,777.4168811460725,1
1.0150849938083941,-47.55230715040507,-25.059003894920043,80.49602919081349,-83.15460892441567,124.51253041362529,-119.72694440861602,-4.253588516746419,-15.54008438818565,-8.466666666666665,9.670050761421333,-4.031746031746035,2.4901960784313744,3.4862745098039234,-1.5301204819277052,6.1835909293661375,22.26266017159754,24.542132013044505,590.7663970683888,51.03578007871286,777.4168811460725,1
-0.10007880220646581,-48.13384994716449,-24.8064141874534,80.60506546469196,-83.25741171708995,124.49708029197079,-119.85799045530763,-4.253588516746419,-15.54008438818565,-8.466666666666665,9.670050761421333,-4.031746031746035,2.4901960784313744,3.4862745098039234,-1.5301204819277052,6.1835909293661375,22.26266017159754,24.346780978941453,576.9692396163258,51.18177653310329,785.3397634446735,1
-0.10007880220646581,-48.13384994716449,-24.8064141874534,80.60506546469196,-83.25741171708995,124.49708029197079,-119.85799045530763,-11.545454545454552,-25.185654008438814,-18.427450980392155,-27.720812182741106,-35.27777777777778,-31.376470588235293,-38.34901960784313,-12.751004016064252,25.079205463368385,100.87665894597532,24.346780978941453,576.9692396163258,51.18177653310329,785.3397634446735,1
-0.10007880220646581,-48.13384994716449,-24.8064141874534,80.60506546469196,-83.25741171708995,124.49708029197079,-119.85799045530763,-5.468899521531108,-24.113924050632907,4.482352941176472,-12.248730964466993,45.357142857142854,11.454901960784316,-4.482352941176469,0.5100401606425757,13.514793174694212,218.4504046766512,24.346780978941453,576.9692396163258,51.18177653310329,785.3397634446735,1
-2.8165034335247143,-48.49172243747798,-25.248446175520026,79.78729341060307,-82.89760194272995,124.37347931873478,-119.59589836192441,-5.468899521531108,-24.113924050632907,4.482352941176472,-12.248730964466993,45.357142857142854,11.454901960784316,-4.482352941176469,0.5100401606425757,13.514793174694212,218.4504046766512,25.51889068217424,521.611262938158,51.175820674533696,749.0247519425554,1
-2.8165034335247143,-48.49172243747798,-25.248446175520026,79.78729341060307,-82.89760194272995,124.37347931873478,-119.59589836192441,-1.822966507177041,-15.54008438818565,-6.474509803921567,-9.670050761421308,-14.111111111111114,5.4784313725490215,6.4745098039215705,0.5100401606425757,7.51021298861623,28.619468684731448,25.51889068217424,521.611262938158,51.175820674533696,749.0247519425554,1
-2.8165034335247143,-48.49172243747798,-25.248446175520026,79.78729341060307,-82.89760194272995,124.37347931873478,-119.59589836192441,-9.114832535885174,-21.970464135021093,-36.35686274509804,-0.6446700507614089,12.095238095238091,4.482352941176472,5.4784313725490215,-0.5100401606425646,11.331611504546483,151.06211486070484,25.51889068217424,521.611262938158,51.175820674533696,749.0247519425554,1
-0.07148485871890542,-48.312786192321234,-24.595922764564527,79.35114831508906,-82.82049984822422,124.23442822384426,-119.62865987359731,-9.114832535885174,-21.970464135021093,-36.35686274509804,-0.6446700507614089,12.095238095238091,4.482352941176472,5.4784313725490215,-0.5100401606425646,11.331611504546483,151.06211486070484,24.326731271868223,581.8601366346605,50.75328575732494,754.0007098672911,1
-0.07148485871890542,-48.312786192321234,-24.595922764564527,79.35114831508906,-82.82049984822422,124.23442822384426,-119.62865987359731,-3.03827751196173,1.6075949367088658,-53.29019607843137,8.38071065989849,54.42857142857142,-5.478431372549018,1.4941176470588253,-16.831325301204814,18.06865311704807,512.5850706065996,24.326731271868223,581.8601366346605,50.75328575732494,754.0007098672911,1
-0.07148485871890542,-48.312786192321234,-24.595922764564527,79.35114831508906,-82.82049984822422,124.23442822384426,-119.62865987359731,7.89952153110047,-5.894514767932484,-41.33725490196078,-5.80203045685278,-7.055555555555559,2.4901960784313744,-0.49803921568627274,8.670682730923701,9.955974404805428,168.28846528796592,24.326731271868223,581.8601366346605,50.75328575732494,754.0007098672911,1
-0.7863334459079181,-50.191616766467064,-23.480318223253512,78.09723116548616,-82.30648588485278,124.06447688564475,-119.49761382690572,7.89952153110047,-5.894514767932484,-41.33725490196078,-5.80203045685278,-7.055555555555559,2.4901960784313744,-0.49803921568627274,8.670682730923701,9.955974404805428,168.28846528796592,24.819422811876166,611.5654058206326,50.58972205173558,745.8706606984742,1
-0.7863334459079181,-50.191616766467064,-23.480318223253512,78.09723116548616,-82.30648588485278,124.06447688564475,-119.49761382690572,-18.837320574162685,-53.0506329113924,56.27843137254902,18.695431472081232,37.29365079365079,45.321568627450986,8.466666666666669,9.69076305220884,30.954308183770326,375.8711483797791,24.819422811876166,611.5654058206326,50.58972205173558,745.8706606984742,1
-0.7863334459079181,-50.191616766467064,-23.480318223253512,78.09723116548616,-82.30648588485278,124.06447688564475,-119.49761382690572,-15.191387559808618,-44.47679324894514,-93.13333333333333,-99.9238578680203,-40.317460317460316,-27.392156862745097,-29.384313725490195,-4.590361445783127,44.301208045198265,1203.8742062800698,24.819422811876166,611.5654058206326,50.58972205173558,745.8706606984742,1
-1.5011820330969308,-48.7601268052131,-23.22772851578687,76.40716892036914,-81.48406354345846,123.89452554744524,-119.66142138527022,-15.191387559808618,-44.47679324894514,-93.13333333333333,-99.9238578680203,-40.317460317460316,-27.392156862745097,-29.384313725490195,-4.590361445783127,44.301208045198265,1203.8742062800698,24.496345784698963,559.559007574718,49.46500808045638,707.385863645271,1
-1.5011820330969308,-48.7601268052131,-23.22772851578687,76.40716892036914,-81.48406354345846,123.89452554744524,-119.66142138527022,20.05263157894736,72.34177215189874,80.1843137254902,72.84771573604063,-29.230158730158735,24.403921568627453,-11.454901960784312,-11.730923694779111,40.28079239334082,872.8855596005093,24.496345784698963,559.559007574718,49.46500808045638,707.385863645271,1
-1.5011820330969308,-48.7601268052131,-23.22772851578687,76.40716892036914,-81.48406354345846,123.89452554744524,-119.66142138527022,-3.03827751196173,26.25738396624473,89.14901960784314,40.61421319796956,21.166666666666664,27.3921568627451,-5.478431372549018,0.5100401606425757,26.700773668327816,831.5606034946128,24.496345784698963,559.559007574718,49.46500808045638,707.385863645271,1
-1.9872790723854594,-38.381824586121866,-23.038286235186884,73.51770766258846,-80.68734190023272,123.21472019464719,-120.44769766541984,-3.03827751196173,26.25738396624473,89.14901960784314,40.61421319796956,21.166666666666664,27.3921568627451,-5.478431372549018,0.5100401606425757,26.700773668327816,831.5606034946128,21.135796631231404,333.8553358077267,44.97927282796574,669.6877393891591,1
-1.9872790723854594,-38.381824586121866,-23.038286235186884,73.51770766258846,-80.68734190023272,123.21472019464719,-120.44769766541984,-1.822966507177041,31.616033755274266,52.294117647058826,-38.03553299492385,-33.261904761904766,-10.458823529411763,61.25882352941177,17.851405622489967,30.824951043456533,409.9871277510066,21.135796631231404,333.8553358077267,44.97927282796574,669.6877393891591,1
-1.9872790723854594,-38.381824586121866,-23.038286235186884,73.51770766258846,-80.68734190023272,123.21472019464719,-120.44769766541984,-27.34449760765551,-47.69198312236286,-23.4078431372549,19.984771573604075,14.111111111111107,57.274509803921575,45.321568627450986,1.5301204819277165,29.58330068316109,357.7243379821895,21.135796631231404,333.8553358077267,44.97927282796574,669.6877393891591,1
-13.2532928064843,-27.73511799929552,-26.427198143697698,67.35715818845244,-79.01679651927552,121.56155717761555,-120.02179801367213,-27.34449760765551,-47.69198312236286,-23.4078431372549,19.984771573604075,14.111111111111107,57.274509803921575,45.321568627450986,1.5301204819277165,29.58330068316109,357.7243379821895,22.471869649825837,64.16428284961142,40.50649144381522,541.1463920608422,1
-13.2532928064843,-27.73511799929552,-26.427198143697698,67.35715818845244,-79.01679651927552,121.56155717761555,-120.02179801367213,-32.205741626794264,-93.77637130801688,-65.24313725490197,-32.87817258883248,-33.261904761904766,-39.345098039215685,46.31764705882353,-54.57429718875502,49.70029622840558,455.138947194515,22.471869649825837,64.16428284961142,40.50649144381522,541.1463920608422,1
-13.2532928064843,-27.73511799929552,-26.427198143697698,67.35715818845244,-79.01679651927552,121.56155717761555,-120.02179801367213,0.6076555023923369,-3.75105485232067,-39.345098039215685,-94.76649746192892,-26.20634920634921,-13.44705882352941,-78.1921568627451,-12.751004016064252,33.633359345568195,1233.9628828116324,22.471869649825837,64.16428284961142,40.50649144381522,541.1463920608422,1
-23.404142744568283,-22.098626276858045,-32.82613739951936,58.688774415110515,-76.72943438227259,119.01228710462286,-117.63020766155037,0.6076555023923369,-3.75105485232067,-39.345098039215685,-94.76649746192892,-26.20634920634921,-13.44705882352941,-78.1921568627451,-12.751004016064252,33.633359345568195,1233.9628828116324,26.109635473648563,34.259641902035256,37.871179363829306,353.79907151105147,1
-23.404142744568283,-22.098626276858045,-32.82613739951936,58.688774415110515,-76.72943438227259,119.01228710462286,-117.63020766155037,-6.6842105263157965,-46.62025316455696,-53.29019607843137,21.274111675126917,68.53968253968253,36.35686274509804,-82.17647058823529,17.851405622489967,41.59914911749211,679.6857707257568,26.109635473648563,34.259641902035256,37.871179363829306,353.79907151105147,1
-23.404142744568283,-22.098626276858045,-32.82613739951936,58.688774415110515,-76.72943438227259,119.01228710462286,-117.63020766155037,-4.253588516746419,17.683544303797476,52.294117647058826,-67.69035532994923,33.26190476190476,-7.470588235294116,-57.27450980392157,-14.791164658634532,31.839971657163364,599.785908681619,26.109635473648563,34.259641902035256,37.871179363829306,353.79907151105147,1
-28.29370708094113,-15.567453328636837,-36.59393386923014,48.54840094440863,-74.21076596175251,115.61326034063258,-114.1574874242229,-4.253588516746419,17.683544303797476,52.294117647058826,-67.69035532994923,33.26190476190476,-7.470588235294116,-57.27450980392157,-14.791164658634532,31.839971657163364,599.785908681619,26.8183647596027,112.16069720483642,33.56992938075854,278.794178768293,1
-28.29370708094113,-15.567453328636837,-36.59393386923014,48.54840094440863,-74.21076596175251,115.61326034063258,-114.1574874242229,5.4688995215310925,15.540084388185658,-0.49803921568627274,-56.086294416243646,-15.11904761904762,-9.462745098039214,-0.49803921568627274,2.5502008032128574,13.15291878470408,336.8871545161216,26.8183647596027,112.16069720483642,33.56992938075854,278.794178768293,1
-28.29370708094113,-15.567453328636837,-36.59393386923014,48.54840094440863,-74.21076596175251,115.61326034063258,-114.1574874242229,4.2535885167464045,12.324894514767937,51.29803921568627,-4.512690355329937,-26.20634920634921,-42.33333333333333,-54.28627450980392,13.771084337349404,26.1232817486708,425.42409442000564,26.8183647596027,112.16069720483642,33.56992938075854,278.794178768293,1
-35.385005065856134,-6.665375132088762,-36.3413441617635,36.227301996136475,-70.5098654254781,111.75072992700728,-110.9796207919515,4.2535885167464045,12.324894514767937,51.29803921568627,-4.512690355329937,-26.20634920634921,-42.33333333333333,-54.28627450980392,13.771084337349404,26.1232817486708,425.42409442000564,26.13057478656947,284.39914430818703,26.411340429996244,292.4306105635102,1
-35.385005065856134,-6.665375132088762,-36.3413441617635,36.227301996136475,-70.5098654254781,111.75072992700728,-110.9796207919515,1.8229665071770258,20.898734177215196,37.352941176470594,127.00000000000001,29.230158730158728,-17.431372549019606,-76.2,-4.590361445783127,39.31581682322804,1797.7458911920032,26.13057478656947,284.39914430818703,26.411340429996244,292.4306105635102,1
-35.385005065856134,-6.665375132088762,-36.3413441617635,36.227301996136475,-70.5098654254781,111.75072992700728,-110.9796207919515,0.6076555023923369,-18.75527426160337,-32.372549019607845,-75.42639593908629,13.1031746031746,13.447058823529414,72.2156862745098,33.152610441767074,32.38505060820884,766.5197382772884,26.13057478656947,284.39914430818703,26.411340429996244,292.4306105635102,1
-47.165709782731064,3.7129270870024698,-37.4779978453634,21.452886885597763,-65.26692299908933,107.39379562043794,-107.80175415968013,0.6076555023923369,-18.75527426160337,-32.372549019607845,-75.42639593908629,13.1031746031746,13.447058823529414,72.2156862745098,33.152610441767074,32.38505060820884,766.5197382772884,29.452211571698978,729.8632915145707,20.881270605987876,285.2650597076163,1
-47.165709782731064,3.7129270870024698,-37.4779978453634,21.452886885597763,-65.26692299908933,107.39379562043794,-107.80175415968013,-26.129186602870817,-63.767932489451475,-69.22745098039215,-30.29949238578679,-19.150793650793652,-36.35686274509804,-6.474509803921567,-36.21285140562249,35.95238500799212,451.550737532944,29.452211571698978,729.8632915145707,20.881270605987876,285.2650597076163,1
-47.165709782731064,3.7129270870024698,-37.4779978453634,21.452886885597763,-65.26692299908933,107.39379562043794,-107.80175415968013,-5.468899521531108,-4.822784810126577,-28.388235294117646,67.69035532994926,-4.031746031746035,26.39607843137255,26.39607843137255,-18.871485943775095,22.758207974248855,437.63569320257113,29.452211571698978,729.8632915145707,20.881270605987876,285.2650597076163,1
