Gyro 0,Gyro 1,Gyro 2,Orientation 0,Orientation 1,Orientation 2,Orientation 3,Sensor 0,Sensor 1,Sensor 2,Sensor 3,Sensor 4,Sensor 5,Sensor 6,Sensor 7,Sensor Mean,Sensor Variance,Gyro Mean,Gyro Variance,Orientation Mean,Orientation Variance,Label
-23.223546687397423,-26.546509175279475,-36.88164138829441,115.65508684863516,-121.86949033116733,126.0166392092257,-94.88505747126436,-15.943722943722943,-2.6348547717842203,4.482352941176472,-3.6887966804979158,-5.655870445344135,4.482352941176472,1.4941176470588253,-6.20888888888889,5.573869657456234,19.880333329862598,28.883899083657102,50.73343140250678,59.69441247073635,2375.4015470870404,1
-23.223546687397423,-26.546509175279475,-36.88164138829441,115.65508684863516,-121.86949033116733,126.0166392092257,-94.88505747126436,-20.34199134199134,-10.01244813278007,-39.345098039215685,-4.7427385892116085,-9.769230769230775,1.4941176470588253,-2.490196078431371,-2.822222222222223,11.377255352517738,165.83954224365465,28.883899083657102,50.73343140250678,59.69441247073635,2375.4015470870404,1
-23.223546687397423,-26.546509175279475,-36.88164138829441,115.65508684863516,-121.86949033116733,126.0166392092257,-94.88505747126436,-6.047619047619046,16.336099585062254,-4.482352941176469,2.6348547717842425,34.4493927125506,-0.49803921568627274,1.4941176470588253,1.6933333333333325,8.45447615678388,135.82270333082462,28.883899083657102,50.73343140250678,59.69441247073635,2375.4015470870404,1
-21.68774293858512,-26.867960345918583,-36.62166185912348,116.22806226032026,-122.08823299146638,125.99571663920923,-94.99318859088973,-6.047619047619046,16.336099585062254,-4.482352941176469,2.6348547717842425,34.4493927125506,-0.49803921568627274,1.4941176470588253,1.6933333333333325,8.45447615678388,135.82270333082462,28.39245504787573,57.49854665352494,59.905894821787435,2402.923582032769,1
-21.68774293858512,-26.867960345918583,-36.62166185912348,116.22806226032026,-122.08823299146638,125.99571663920923,-94.99318859088973,-18.142857142857142,-8.958506224066378,-21.415686274509802,-11.066390041493767,-7.712550607287455,17.43137254901961,2.4901960784313744,-5.08,11.53719486470819,45.857635111883646,28.39245504787573,57.49854665352494,59.905894821787435,2402.923582032769,1
-22.455644812991274,-26.546509175279475,-36.64529636177538,116.62914504849982,-122.26720425898381,125.91202635914333,-94.95714488434794,-18.142857142857142,-8.958506224066378,-21.415686274509802,-11.066390041493767,-7.712550607287455,17.43137254901961,2.4901960784313744,-5.08,11.53719486470819,45.857635111883646,28.549150116682043,53.344480824114115,59.94031686185156,2435.713806541028,1
-22.455644812991274,-26.546509175279475,-36.64529636177538,116.62914504849982,-122.26720425898381,125.91202635914333,-94.95714488434794,-13.744588744588743,1.5809128630705516,8.466666666666669,-1.5809128630705298,20.05263157894736,0.4980392156862763,1.4941176470588253,-2.822222222222223,6.280011475163898,51.805969179179684,28.549150116682043,53.344480824114115,59.94031686185156,2435.713806541028,1
-22.455644812991274,-26.546509175279475,-36.64529636177538,116.62914504849982,-122.26720425898381,125.91202635914333,-94.95714488434794,-22.54112554112554,-14.228215767634843,5.4784313725490215,-7.904564315352688,-26.22267206477733,-12.450980392156861,-2.490196078431371,-7.337777777777778,12.331745413725677,69.88053635524132,28.549150116682043,53.344480824114115,59.94031686185156,2435.713806541028,1
-24.605770061328492,-26.27863319974689,-36.99981390155392,116.17076471915175,-122.08823299146638,125.91202635914333,-94.99318859088973,-22.54112554112554,-14.228215767634843,5.4784313725490215,-7.904564315352688,-26.22267206477733,-12.450980392156861,-2.490196078431371,-7.337777777777778,12.331745413725677,69.88053635524132,29.294739054209767,45.22575157235141,59.81640394015085,2410.5964130175457,1
-24.605770061328492,-26.27863319974689,-36.99981390155392,116.17076471915175,-122.08823299146638,125.91202635914333,-94.99318859088973,-10.445887445887443,5.7966804979253235,0.4980392156862763,-2.634854771784223,0.5141700404858236,13.447058823529414,1.4941176470588253,-1.693333333333334,4.565517721961333,24.19206895065886,29.294739054209767,45.22575157235141,59.81640394015085,2410.5964130175457,1
-24.605770061328492,-26.27863319974689,-36.99981390155392,116.17076471915175,-122.08823299146638,125.91202635914333,-94.99318859088973,-14.844155844155843,2.6348547717842443,10.458823529411767,-7.904564315352688,-26.22267206477733,-0.49803921568627274,-2.490196078431371,-7.337777777777778,9.048885449672163,70.28893692584218,29.294739054209767,45.22575157235141,59.81640394015085,2410.5964130175457,1
-22.828625723417115,-26.626871967939252,-36.8107378803387,116.39995488382579,-122.14789008063886,125.9329489291598,-95.10131971051511,-14.844155844155843,2.6348547717842443,10.458823529411767,-7.904564315352688,-26.22267206477733,-0.49803921568627274,-2.490196078431371,-7.337777777777778,9.048885449672163,70.28893692584218,28.75541185723169,52.272876637415386,59.94585491070125,2416.226834062088,1
-22.828625723417115,-26.626871967939252,-36.8107378803387,116.39995488382579,-122.14789008063886,125.9329489291598,-95.10131971051511,-18.142857142857142,-6.850622406638992,39.345098039215685,7.904564315352706,5.655870445344123,15.439215686274512,9.462745098039218,-6.20888888888889,13.626232752826409,128.52450209268142,28.75541185723169,52.272876637415386,59.94585491070125,2416.226834062088,1
-22.828625723417115,-26.626871967939252,-36.8107378803387,116.39995488382579,-122.14789008063886,125.9329489291598,-95.10131971051511,-7.147186147186145,15.282157676348561,-2.490196078431371,-5.796680497925301,-15.939271255060735,-20.419607843137253,-2.490196078431371,-0.5644444444444452,8.766217502620648,55.31386665645251,28.75541185723169,52.272876637415386,59.94585491070125,2416.226834062088,1
-21.38058218882266,-26.49293398017296,-37.18888992276914,117.1448229190164,-122.46606122289205,125.82833607907743,-95.1734071235987,-7.147186147186145,15.282157676348561,-2.490196078431371,-5.796680497925301,-15.939271255060735,-20.419607843137253,-2.490196078431371,-0.5644444444444452,8.766217502620648,55.31386665645251,28.354135363921586,65.07370129593889,60.27554894065283,2454.1866105011245,1
-21.38058218882266,-26.49293398017296,-37.18888992276914,117.1448229190164,-122.46606122289205,125.82833607907743,-95.1734071235987,-17.043290043290042,-18.443983402489614,-4.482352941176469,0.5269709543568561,-15.939271255060735,-5.478431372549018,7.4705882352941195,-7.337777777777778,9.590333247749328,44.13625154963436,28.354135363921586,65.07370129593889,60.27554894065283,2454.1866105011245,1
-21.38058218882266,-26.49293398017296,-37.18888992276914,117.1448229190164,-122.46606122289205,125.82833607907743,-95.1734071235987,-12.645021645021643,-3.688796680497913,5.4784313725490215,-0.5269709543568366,15.93927125506072,-6.474509803921567,13.447058823529414,-9.595555555555556,8.474452011311584,28.305961382013514,28.354135363921586,65.07370129593889,60.27554894065283,2454.1866105011245,1
-21.22700181394143,-26.358995992406665,-37.40160044663627,117.94698849537554,-122.76434666875443,125.72372322899506,-95.28153824322406,-12.645021645021643,-3.688796680497913,5.4784313725490215,-0.5269709543568366,15.93927125506072,-6.474509803921567,13.447058823529414,-9.595555555555556,8.474452011311584,28.305961382013514,28.329199417661457,68.31568638485774,60.5691949781395,2499.643169963074,1
-21.22700181394143,-26.358995992406665,-37.40160044663627,117.94698849537554,-122.76434666875443,125.72372322899506,-95.28153824322406,-17.043290043290042,-11.066390041493765,-2.490196078431371,-10.012448132780074,-6.684210526315796,-5.478431372549018,-9.462745098039214,-6.20888888888889,8.555825022723521,19.508215757715114,28.329199417661457,68.31568638485774,60.5691949781395,2499.643169963074,1
-21.22700181394143,-26.358995992406665,-37.40160044663627,117.94698849537554,-122.76434666875443,125.72372322899506,-95.28153824322406,-13.744588744588743,13.174273858921174,-5.478431372549018,6.850622406639014,6.684210526315782,7.4705882352941195,-4.482352941176469,-2.822222222222223,7.588411288463317,15.327478167012426,28.329199417661457,68.31568638485774,60.5691949781395,2499.643169963074,1
-19.581497797356825,-25.421430078042608,-37.425234949288175,119.20753440108274,-123.28137477491586,125.43080724876441,-95.53384418901659,-13.744588744588743,13.174273858921174,-5.478431372549018,6.850622406639014,6.684210526315782,7.4705882352941195,-4.482352941176469,-2.822222222222223,7.588411288463317,15.327478167012426,27.47605427489587,82.76584932952497,60.68473314280451,2604.711533183684,1
-19.581497797356825,-25.421430078042608,-37.425234949288175,119.20753440108274,-123.28137477491586,125.43080724876441,-95.53384418901659,-9.346320346320343,21.605809128630717,-3.48627450980392,-7.904564315352688,-10.797570850202435,-6.474509803921567,0.4980392156862763,-1.693333333333334,7.725802687906411,44.702708002397344,27.47605427489587,82.76584932952497,60.68473314280451,2604.711533183684,1
-19.581497797356825,-25.421430078042608,-37.425234949288175,119.20753440108274,-123.28137477491586,125.43080724876441,-95.53384418901659,-8.246753246753244,4.742738589211631,3.4862745098039234,-4.7427385892116085,5.655870445344123,17.43137254901961,-30.380392156862744,3.9511111111111106,9.82965639966475,89.51345061318872,27.47605427489587,82.76584932952497,60.68473314280451,2604.711533183684,1
-20.56880020730759,-25.475005273149126,-38.37061505536429,120.00969997744187,-123.67908870273234,125.05420098846787,-95.53384418901659,-8.246753246753244,4.742738589211631,3.4862745098039234,-4.7427385892116085,5.655870445344123,17.43137254901961,-30.380392156862744,3.9511111111111106,9.82965639966475,89.51345061318872,28.138140178607,84.5453686146241,61.28510676865176,2628.007573567199,1
-20.56880020730759,-25.475005273149126,-38.37061505536429,120.00969997744187,-123.67908870273234,125.05420098846787,-95.53384418901659,-9.346320346320343,25.82157676348549,28.38823529411765,-5.796680497925301,10.797570850202423,-1.4941176470588218,-3.48627450980392,0.5644444444444439,10.7119025441698,115.27638869263785,28.138140178607,84.5453686146241,61.28510676865176,2628.007573567199,1
-20.56880020730759,-25.475005273149126,-38.37061505536429,120.00969997744187,-123.67908870273234,125.05420098846787,-95.53384418901659,-12.645021645021643,4.742738589211631,16.43529411764706,2.6348547717842425,4.627530364372463,11.454901960784316,0.4980392156862763,-3.9511111111111115,7.123686471952343,31.709194400326187,28.138140178607,84.5453686146241,61.28510676865176,2628.007573567199,1
-21.731623045694043,-25.39464248048935,-37.945194007630036,120.2388901421159,-123.81828857746811,124.76128500823722,-95.67801901518376,-12.645021645021643,4.742738589211631,16.43529411764706,2.6348547717842425,4.627530364372463,11.454901960784316,0.4980392156862763,-3.9511111111111115,7.123686471952343,31.709194400326187,28.357153177937807,72.30232305880594,61.19290887674509,2654.200013601743,1
-21.731623045694043,-25.39464248048935,-37.945194007630036,120.2388901421159,-123.81828857746811,124.76128500823722,-95.67801901518376,-13.744588744588743,-4.742738589211607,4.482352941176472,-16.336099585062232,-2.570850202429156,-8.466666666666665,-3.48627450980392,-2.822222222222223,7.0814741826451275,27.943068181021204,28.357153177937807,72.30232305880594,61.19290887674509,2654.200013601743,1
-21.731623045694043,-25.39464248048935,-37.945194007630036,120.2388901421159,-123.81828857746811,124.76128500823722,-95.67801901518376,-19.242424242424242,-3.688796680497913,9.462745098039218,-16.336099585062232,-52.95951417004049,-4.482352941176469,1.4941176470588253,-8.466666666666667,14.516589628870758,279.0224673569157,28.357153177937807,72.30232305880594,61.19290887674509,2654.200013601743,1
-21.007601278396816,-25.876819236448007,-37.56704196519959,120.811865553801,-124.07680263054883,124.531136738056,-95.82219384135092,-19.242424242424242,-3.688796680497913,9.462745098039218,-16.336099585062232,-52.95951417004049,-4.482352941176469,1.4941176470588253,-8.466666666666667,14.516589628870758,279.0224673569157,28.150487493348137,72.43094447176126,61.41857558514953,2679.837496837191,1
-21.007601278396816,-25.876819236448007,-37.56704196519959,120.811865553801,-124.07680263054883,124.531136738056,-95.82219384135092,-19.242424242424242,-6.850622406638992,-23.4078431372549,-4.7427385892116085,-4.6275303643724754,-9.462745098039214,3.4862745098039234,0.5644444444444439,9.048077849023723,65.15874217199793,28.150487493348137,72.43094447176126,61.41857558514953,2679.837496837191,1
-21.007601278396816,-25.876819236448007,-37.56704196519959,120.811865553801,-124.07680263054883,124.531136738056,-95.82219384135092,-8.246753246753244,1.5809128630705516,0.4980392156862763,0.5269709543568561,-16.967611336032395,-4.482352941176469,5.4784313725490215,-3.9511111111111115,5.21652288009199,29.564698575481682,28.150487493348137,72.43094447176126,61.41857558514953,2679.837496837191,1
-21.02954133195128,-26.4661463826197,-36.7871033776868,121.4421385066546,-124.31543098723873,124.38467874794068,-95.96636866751808,-8.246753246753244,1.5809128630705516,0.4980392156862763,0.5269709543568561,-16.967611336032395,-4.482352941176469,5.4784313725490215,-3.9511111111111115,5.21652288009199,29.564698575481682,28.09426369741926,64.06326489936373,61.565129422320375,2715.5727009875895,1
-21.02954133195128,-26.4661463826197,-36.7871033776868,121.4421385066546,-124.31543098723873,124.38467874794068,-95.96636866751808,-13.744588744588743,-12.120331950207458,-18.427450980392155,-0.5269709543568366,2.5708502024291437,7.4705882352941195,-5.478431372549018,-6.20888888888889,8.318512666088296,36.15229449122253,28.09426369741926,64.06326489936373,61.565129422320375,2715.5727009875895,1
-21.02954133195128,-26.4661463826197,-36.7871033776868,121.4421385066546,-124.31543098723873,124.38467874794068,-95.96636866751808,-9.346320346320343,1.5809128630705516,-3.48627450980392,-4.7427385892116085,-8.740890688259114,10.458823529411767,5.4784313725490215,-1.693333333333334,5.690965653994958,12.01067084362089,28.09426369741926,64.06326489936373,61.565129422320375,2715.5727009875895,1
-22.30206443811004,-26.94832313857836,-37.14162091746534,121.72862621249715,-124.43474516558368,124.36375617792422,-95.96636866751808,-9.346320346320343,1.5809128630705516,-3.48627450980392,-4.7427385892116085,-8.740890688259114,10.458823529411767,5.4784313725490215,-1.693333333333334,5.690965653994958,12.01067084362089,28.797336164717915,57.617246004119266,61.939523422846946,2707.0284391957834,1
-22.30206443811004,-26.94832313857836,-37.14162091746534,121.72862621249715,-124.43474516558368,124.36375617792422,-95.96636866751808,-13.744588744588743,-1.5809128630705276,-13.44705882352941,-6.850622406638995,-27.25101214574899,-7.470588235294116,-6.474509803921567,-5.08,10.237411627849042,63.840525378043104,28.797336164717915,57.617246004119266,61.939523422846946,2707.0284391957834,1
-22.30206443811004,-26.94832313857836,-37.14162091746534,121.72862621249715,-124.43474516558368,124.36375617792422,-95.96636866751808,-19.242424242424242,-3.688796680497913,13.447058823529414,-2.634854771784223,12.854251012145742,-5.478431372549018,2.4901960784313744,-6.20888888888889,8.255612733781351,38.05702665664893,28.797336164717915,57.617246004119266,61.939523422846946,2707.0284391957834,1
-23.64040770493219,-27.08226112634465,-36.64529636177538,121.72862621249715,-124.43474516558368,124.34283360790775,-95.96636866751808,-19.242424242424242,-3.688796680497913,13.447058823529414,-2.634854771784223,12.854251012145742,-5.478431372549018,2.4901960784313744,-6.20888888888889,8.255612733781351,38.05702665664893,29.122655064350738,45.404187810911154,61.81872790020574,2714.759847570346,1
-23.64040770493219,-27.08226112634465,-36.64529636177538,121.72862621249715,-124.43474516558368,124.34283360790775,-95.96636866751808,-10.445887445887443,2.6348547717842443,-24.40392156862745,-10.012448132780074,-7.712550607287455,6.4745098039215705,3.4862745098039234,-5.08,8.78130585501152,47.76172765922182,29.122655064350738,45.404187810911154,61.81872790020574,2714.759847570346,1
-23.64040770493219,-27.08226112634465,-36.64529636177538,121.72862621249715,-124.43474516558368,124.34283360790775,-95.96636866751808,-15.943722943722943,-13.17427385892115,5.4784313725490215,-2.634854771784223,0.5141700404858236,0.4980392156862763,-0.49803921568627274,-6.20888888888889,5.618802538465575,35.92324077769434,29.122655064350738,45.404187810911154,61.81872790020574,2714.759847570346,1
-24.759350436209722,-26.68044716304577,-35.888992276914486,121.38484096548609,-124.25577389806625,124.51021416803954,-96.14658720022705,-15.943722943722943,-13.17427385892115,5.4784313725490215,-2.634854771784223,0.5141700404858236,0.4980392156862763,-0.49803921568627274,-6.20888888888889,5.618802538465575,35.92324077769434,29.109596625389994,35.39280720839695,61.31809346848211,2727.209941930164,1
-24.759350436209722,-26.68044716304577,-35.888992276914486,121.38484096548609,-124.25577389806625,124.51021416803954,-96.14658720022705,-13.744588744588743,-1.5809128630705276,-1.4941176470588218,-8.95850622406638,-6.684210526315796,-10.458823529411763,-0.49803921568627274,-1.693333333333334,5.639066510441454,25.241248356079193,29.109596625389994,35.39280720839695,61.31809346848211,2727.209941930164,1
-24.759350436209722,-26.68044716304577,-35.888992276914486,121.38484096548609,-124.25577389806625,124.51021416803954,-96.14658720022705,-20.34199134199134,-14.228215767634843,-26.396078431372548,-8.95850622406638,-3.599190283400816,-8.466666666666665,1.4941176470588253,-1.693333333333334,10.647262461940594,82.29590328626254,29.109596625389994,35.39280720839695,61.31809346848211,2727.209941930164,1
-23.618467651377728,-27.189411516557687,-35.558109239787846,121.49943604782311,-124.19611680889378,124.74036243822076,-96.36284943947778,-20.34199134199134,-14.228215767634843,-26.396078431372548,-8.95850622406638,-3.599190283400816,-8.466666666666665,1.4941176470588253,-1.693333333333334,10.647262461940594,82.29590328626254,28.788662802574418,37.556963821792756,61.41565226805622,2725.0545803660343,1
-23.618467651377728,-27.189411516557687,-35.558109239787846,121.49943604782311,-124.19611680889378,124.74036243822076,-96.36284943947778,-4.948051948051946,11.066390041493788,-23.4078431372549,-2.634854771784223,0.5141700404858236,4.482352941176472,1.4941176470588253,-0.5644444444444452,6.139028121468803,60.46047146032344,28.788662802574418,37.556963821792756,61.41565226805622,2725.0545803660343,1
-23.618467651377728,-27.189411516557687,-35.558109239787846,121.49943604782311,-124.19611680889378,124.74036243822076,-96.36284943947778,-15.943722943722943,1.5809128630705516,-9.462745098039214,-10.012448132780074,-8.740890688259114,-10.458823529411763,-0.49803921568627274,-6.20888888888889,7.863308919982353,25.204247965529248,28.788662802574418,37.556963821792756,61.41565226805622,2725.0545803660343,1
-22.916385937634963,-27.08226112634465,-35.77081976365498,121.84322129483417,-124.29554529084788,124.84497528830313,-96.47098055910315,-15.943722943722943,1.5809128630705516,-9.462745098039214,-10.012448132780074,-8.740890688259114,-10.458823529411763,-0.49803921568627274,-6.20888888888889,7.863308919982353,25.204247965529248,28.589822275878202,43.01367271156906,61.56543406161126,2743.931488098762,1
-22.916385937634963,-27.08226112634465,-35.77081976365498,121.84322129483417,-124.29554529084788,124.84497528830313,-96.47098055910315,-10.445887445887443,13.174273858921174,-20.419607843137253,-6.850622406638995,-15.939271255060735,-25.4,-2.490196078431371,-2.822222222222223,12.1927601387874,67.23552179641162,28.589822275878202,43.01367271156906,61.56543406161126,2743.931488098762,1
-22.916385937634963,-27.08226112634465,-35.77081976365498,121.84322129483417,-124.29554529084788,124.84497528830313,-96.47098055910315,-6.047619047619046,3.6887966804979375,-6.474509803921567,-8.95850622406638,14.910931174089061,15.439215686274512,3.4862745098039234,-0.5644444444444452,7.4462871963396084,28.850777279174146,28.589822275878202,43.01367271156906,61.56543406161126,2743.931488098762,1
-24.7154703291008,-26.51972157772622,-36.361682329952544,121.55673358899162,-124.17623111250296,124.88682042833608,-96.43493685256136,-6.047619047619046,3.6887966804979375,-6.474509803921567,-8.95850622406638,14.910931174089061,15.439215686274512,3.4862745098039234,-0.5644444444444452,7.4462871963396084,28.850777279174146,29.198958078926523,39.292294664218815,61.47937916555679,2731.182433751344,1
-24.7154703291008,-26.51972157772622,-36.361682329952544,121.55673358899162,-124.17623111250296,124.88682042833608,-96.43493685256136,-19.242424242424242,-7.904564315352685,27.3921568627451,6.850622406639014,8.740890688259103,10.458823529411767,3.4862745098039234,-5.08,11.14446956932948,65.73876663429363,29.198958078926523,39.292294664218815,61.47937916555679,2731.182433751344,1
-24.7154703291008,-26.51972157772622,-36.361682329952544,121.55673358899162,-124.17623111250296,124.88682042833608,-96.43493685256136,-14.844155844155843,-7.904564315352685,-23.4078431372549,-0.5269709543568366,0.5141700404858236,-5.478431372549018,-1.4941176470588218,-5.08,7.406281663901741,64.36117463761975,29.198958078926523,39.292294664218815,61.47937916555679,2731.182433751344,1
-25.066511185972182,-26.49293398017296,-36.196240811389224,121.21294834198056,-123.97737414859469,125.0332784184514,-96.57911167872854,-14.844155844155843,-7.904564315352685,-23.4078431372549,-0.5269709543568366,0.5141700404858236,-5.478431372549018,-1.4941176470588218,-5.08,7.406281663901741,64.36117463761975,29.25189532584479,36.676621163904926,61.30070771118091,2715.6459739173124,1
-25.066511185972182,-26.49293398017296,-36.196240811389224,121.21294834198056,-123.97737414859469,125.0332784184514,-96.57911167872854,-13.744588744588743,1.5809128630705516,7.4705882352941195,-3.6887966804979158,-5.655870445344135,1.4941176470588253,-1.4941176470588218,-5.08,5.026124032864139,17.284939714430212,29.25189532584479,36.676621163904926,61.30070771118091,2715.6459739173124,1
-25.066511185972182,-26.49293398017296,-36.196240811389224,121.21294834198056,-123.97737414859469,125.0332784184514,-96.57911167872854,-7.147186147186145,17.390041493775946,-14.44313725490196,-11.066390041493767,22.109311740890682,7.4705882352941195,-2.490196078431371,-1.693333333333334,10.476273040663415,51.46377846227908,29.25189532584479,36.676621163904926,61.30070771118091,2715.6459739173124,1
-23.267426794506346,-26.573296772832734,-36.007164790174,121.4421385066546,-123.99725984498554,125.15881383855024,-96.86746133106286,-7.147186147186145,17.390041493775946,-14.44313725490196,-11.066390041493767,22.109311740890682,7.4705882352941195,-2.490196078431371,-1.693333333333334,10.476273040663415,51.46377846227908,28.615962785837695,43.704594380078724,61.340866689887115,2731.371621936881,1
-23.267426794506346,-26.573296772832734,-36.007164790174,121.4421385066546,-123.99725984498554,125.15881383855024,-96.86746133106286,-14.844155844155843,7.90456431535271,4.482352941176472,-12.12033195020746,-1.542510121457496,-4.482352941176469,-0.49803921568627274,-1.693333333333334,5.945955082818257,27.510889377242837,28.615962785837695,43.704594380078724,61.340866689887115,2731.371621936881,1
-23.267426794506346,-26.573296772832734,-36.007164790174,121.4421385066546,-123.99725984498554,125.15881383855024,-96.86746133106286,-13.744588744588743,1.5809128630705516,7.4705882352941195,-5.796680497925301,-7.712550607287455,-3.48627450980392,-2.490196078431371,-5.08,5.920223942050183,14.86811567990856,28.615962785837695,43.704594380078724,61.340866689887115,2731.371621936881,1
-21.84132331346635,-27.028685931238137,-35.912626779566395,122.18700654184522,-124.21600250528459,125.26342668863262,-97.04767986377182,-13.744588744588743,1.5809128630705516,7.4705882352941195,-5.796680497925301,-7.712550607287455,-3.48627450980392,-2.490196078431371,-5.08,5.920223942050183,14.86811567990856,28.260878674756963,50.639119526655115,61.709439750883256,2762.8831649655986,1
-21.84132331346635,-27.028685931238137,-35.912626779566395,122.18700654184522,-124.21600250528459,125.26342668863262,-97.04767986377182,-15.943722943722943,7.90456431535271,57.274509803921575,-12.12033195020746,-20.052631578947373,4.482352941176472,-1.4941176470588218,-2.822222222222223,15.261806675326197,330.42446588133583,28.260878674756963,50.639119526655115,61.709439750883256,2762.8831649655986,1
-21.84132331346635,-27.028685931238137,-35.912626779566395,122.18700654184522,-124.21600250528459,125.26342668863262,-97.04767986377182,-13.744588744588743,-0.5269709543568344,10.458823529411767,-3.6887966804979158,-6.684210526315796,2.4901960784313744,4.482352941176472,-0.5644444444444452,5.330047987402918,22.314309802740176,28.260878674756963,50.639119526655115,61.709439750883256,2762.8831649655986,1
-23.267426794506346,-26.68044716304577,-36.054433795477806,122.47349424768777,-124.25577389806625,125.34711696869851,-97.19185468993898,-13.744588744588743,-0.5269709543568344,10.458823529411767,-3.6887966804979158,-6.684210526315796,2.4901960784313744,4.482352941176472,-0.5644444444444452,5.330047987402918,22.314309802740176,28.66743591767664,43.83798024399544,61.7361250687371,2788.738917431362,1
-23.267426794506346,-26.68044716304577,-36.054433795477806,122.47349424768777,-124.25577389806625,125.34711696869851,-97.19185468993898,-14.844155844155843,-2.6348547717842203,-15.439215686274508,5.796680497925321,9.769230769230763,6.4745098039215705,-0.49803921568627274,-7.337777777777778,7.849308045844534,28.259626658258163,28.66743591767664,43.83798024399544,61.7361250687371,2788.738917431362,1
-23.267426794506346,-26.68044716304577,-36.054433795477806,122.47349424768777,-124.25577389806625,125.34711696869851,-97.19185468993898,-6.047619047619046,27.929460580912878,24.403921568627453,-3.6887966804979158,-14.910931174089074,-5.478431372549018,-1.4941176470588218,-2.822222222222223,10.846937536697054,106.7264352229445,28.66743591767664,43.83798024399544,61.7361250687371,2788.738917431362,1
-24.40830957933834,-26.546509175279475,-36.10170280078162,122.30160162418224,-124.17623111250296,125.47265238879737,-97.33602951610614,-6.047619047619046,27.929460580912878,24.403921568627453,-3.6887966804979158,-14.910931174089074,-5.478431372549018,-1.4941176470588218,-2.822222222222223,10.846937536697054,106.7264352229445,29.018840518466476,38.76817796070253,61.649937866747784,2781.7936687138763,1
-24.40830957933834,-26.546509175279475,-36.10170280078162,122.30160162418224,-124.17623111250296,125.47265238879737,-97.33602951610614,-11.545454545454543,19.497925311203332,40.34117647058824,-11.066390041493767,2.5708502024291437,1.4941176470588253,1.4941176470588253,-1.693333333333334,11.2129206498275,181.63526104528916,29.018840518466476,38.76817796070253,61.649937866747784,2781.7936687138763,1
-24.40830957933834,-26.546509175279475,-36.10170280078162,122.30160162418224,-124.17623111250296,125.47265238879737,-97.33602951610614,-13.744588744588743,-8.958506224066378,0.4980392156862763,4.742738589211628,-10.797570850202435,2.4901960784313744,0.4980392156862763,-2.822222222222223,5.5689876425119165,24.971824731001327,29.018840518466476,38.76817796070253,61.649937866747784,2781.7936687138763,1
-23.157726526734038,-26.22505800464037,-36.17260630873732,122.47349424768777,-124.17623111250296,125.49357495881384,-97.55229175535689,-13.744588744588743,-8.958506224066378,0.4980392156862763,4.742738589211628,-10.797570850202435,2.4901960784313744,0.4980392156862763,-2.822222222222223,5.5689876425119165,24.971824731001327,28.518463613370574,46.291555899615844,61.62371952035516,2801.7597425909307,1
-23.157726526734038,-26.22505800464037,-36.17260630873732,122.47349424768777,-124.17623111250296,125.49357495881384,-97.55229175535689,-13.744588744588743,-10.01244813278007,-55.28235294117647,-8.95850622406638,-21.080971659919033,-1.4941176470588218,0.4980392156862763,-1.693333333333334,14.095544737326142,326.5480486887036,28.518463613370574,46.291555899615844,61.62371952035516,2801.7597425909307,1
-23.157726526734038,-26.22505800464037,-36.17260630873732,122.47349424768777,-124.17623111250296,125.49357495881384,-97.55229175535689,-9.346320346320343,19.497925311203332,19.423529411764708,-7.904564315352688,-19.024291497975714,1.4941176470588253,-0.49803921568627274,-2.822222222222223,10.001376245948013,68.48960695051507,28.518463613370574,46.291555899615844,61.62371952035516,2801.7597425909307,1
-22.170424116783273,-26.439358785066442,-35.9835302875221,123.04646965937286,-124.33531668362954,125.55634266886327,-97.876685114233,-9.346320346320343,19.497925311203332,19.423529411764708,-7.904564315352688,-19.024291497975714,1.4941176470588253,-0.49803921568627274,-2.822222222222223,10.001376245948013,68.48960695051507,28.197771063123938,50.019485825743274,61.82311957732046,2833.9967488692305,1
-22.170424116783273,-26.439358785066442,-35.9835302875221,123.04646965937286,-124.33531668362954,125.55634266886327,-97.876685114233,-13.744588744588743,-13.17427385892115,-3.48627450980392,2.6348547717842425,4.627530364372463,0.4980392156862763,-1.4941176470588218,-3.9511111111111115,5.451348777915841,26.19141428501486,28.197771063123938,50.019485825743274,61.82311957732046,2833.9967488692305,1
-21.863263367020814,-26.51972157772622,-36.078068298129715,123.61944507105795,-124.47451655836531,125.59818780889621,-98.16503476656733,-13.744588744588743,-13.17427385892115,-3.48627450980392,2.6348547717842425,4.627530364372463,0.4980392156862763,-1.4941176470588218,-3.9511111111111115,5.451348777915841,26.19141428501486,28.153684414292247,52.517545720828664,62.0724116489713,2863.868490301451,1
-21.863263367020814,-26.51972157772622,-36.078068298129715,123.61944507105795,-124.47451655836531,125.59818780889621,-98.16503476656733,-13.744588744588743,-11.066390041493765,-28.388235294117646,-0.5269709543568366,-6.684210526315796,0.4980392156862763,-3.48627450980392,-5.08,8.684338660795373,85.29908991205285,28.153684414292247,52.517545720828664,62.0724116489713,2863.868490301451,1
-21.863263367020814,-26.51972157772622,-36.078068298129715,123.61944507105795,-124.47451655836531,125.59818780889621,-98.16503476656733,-9.346320346320343,8.958506224066403,16.43529411764706,-1.5809128630705298,-16.967611336032395,6.4745098039215705,1.4941176470588253,-1.693333333333334,7.868825708931308,39.97117838133137,28.153684414292247,52.517545720828664,62.0724116489713,2863.868490301451,1
-22.960266044743886,-26.22505800464037,-36.007164790174,123.79133769456348,-124.51428795114697,125.6191103789127,-98.41734071235986,-9.346320346320343,8.958506224066403,16.43529411764706,-1.5809128630705298,-16.967611336032395,6.4745098039215705,1.4941176470588253,-1.693333333333334,7.868825708931308,39.97117838133137,28.39749627985275,46.0950077630823,62.00785349645929,2886.821593033939,1
-22.960266044743886,-26.22505800464037,-36.007164790174,123.79133769456348,-124.51428795114697,125.6191103789127,-98.41734071235986,-19.242424242424242,-10.01244813278007,-3.48627450980392,-0.5269709543568366,30.33603238866396,-2.490196078431371,-0.49803921568627274,-7.337777777777778,9.241270412490557,111.47287847983128,28.39749627985275,46.0950077630823,62.00785349645929,2886.821593033939,1
-22.960266044743886,-26.22505800464037,-36.007164790174,123.79133769456348,-124.51428795114697,125.6191103789127,-98.41734071235986,-28.038961038961038,-34.25311203319501,-27.392156862745097,-5.796680497925301,-36.50607287449393,-4.482352941176469,-0.49803921568627274,-3.9511111111111115,17.614810821911778,232.82606669102344,28.39749627985275,46.0950077630823,62.00785349645929,2886.821593033939,1
-23.399067115833112,-26.305420797300147,-36.078068298129715,123.79133769456348,-124.47451655836531,125.6191103789127,-98.59755924506882,-28.038961038961038,-34.25311203319501,-27.392156862745097,-5.796680497925301,-36.50607287449393,-4.482352941176469,-0.49803921568627274,-3.9511111111111115,17.614810821911778,232.82606669102344,28.594185403754324,44.118100312987664,62.05827559666445,2882.104376781161,1
-23.399067115833112,-26.305420797300147,-36.078068298129715,123.79133769456348,-124.47451655836531,125.6191103789127,-98.59755924506882,-9.346320346320343,13.174273858921174,10.458823529411767,-10.012448132780074,-8.740890688259114,1.4941176470588253,1.4941176470588253,-2.822222222222223,7.192901759004043,20.783071517374456,28.594185403754324,44.118100312987664,62.05827559666445,2882.104376781161,1
-23.399067115833112,-26.305420797300147,-36.078068298129715,123.79133769456348,-124.47451655836531,125.6191103789127,-98.59755924506882,-18.142857142857142,-10.01244813278007,10.458823529411767,-3.6887966804979158,0.5141700404858236,2.4901960784313744,0.4980392156862763,-7.337777777777778,6.6428885747410185,37.134188238820585,28.594185403754324,44.118100312987664,62.05827559666445,2882.104376781161,1
-23.64040770493219,-26.600084370385993,-36.007164790174,123.84863523573199,-124.4546308619745,125.68187808896211,-98.74173407123598,-18.142857142857142,-10.01244813278007,10.458823529411767,-3.6887966804979158,0.5141700404858236,2.4901960784313744,0.4980392156862763,-7.337777777777778,6.6428885747410185,37.134188238820585,28.749218955164064,41.69825479896154,62.15196146543067,2876.982956245331,1
-23.64040770493219,-26.600084370385993,-36.007164790174,123.84863523573199,-124.4546308619745,125.68187808896211,-98.74173407123598,-14.844155844155843,4.742738589211631,-23.4078431372549,-8.95850622406638,-5.655870445344135,-2.490196078431371,2.4901960784313744,-0.5644444444444452,7.8942438551675105,59.59734554868602,28.749218955164064,41.69825479896154,62.15196146543067,2876.982956245331,1
-23.64040770493219,-26.600084370385993,-36.007164790174,123.84863523573199,-124.4546308619745,125.68187808896211,-98.74173407123598,-4.948051948051946,8.958506224066403,-27.392156862745097,-6.850622406638995,-12.854251012145754,2.4901960784313744,-0.49803921568627274,-3.9511111111111115,8.492866857359619,73.18017211558961,28.749218955164064,41.69825479896154,62.15196146543067,2876.982956245331,1
-24.188909043793725,-26.70723476059903,-36.007164790174,123.50484998872093,-124.29554529084788,125.76556836902802,-98.84986519086135,-4.948051948051946,8.958506224066403,-27.392156862745097,-6.850622406638995,-12.854251012145754,2.4901960784313744,-0.49803921568627274,-3.9511111111111115,8.492866857359619,73.18017211558961,28.96776953152225,38.750305309627294,62.073083179831315,2852.018654585091,1
-24.188909043793725,-26.70723476059903,-36.007164790174,123.50484998872093,-124.29554529084788,125.76556836902802,-98.84986519086135,-12.645021645021643,-4.742738589211607,21.415686274509806,-2.634854771784223,-45.76113360323887,-20.419607843137253,-7.470588235294116,-10.724444444444444,15.726759425830245,193.02595057800585,28.96776953152225,38.750305309627294,62.073083179831315,2852.018654585091,1
-24.188909043793725,-26.70723476059903,-36.007164790174,123.50484998872093,-124.29554529084788,125.76556836902802,-98.84986519086135,-15.943722943722943,2.6348547717842443,-21.415686274509802,-7.904564315352688,-12.854251012145754,3.4862745098039234,-0.49803921568627274,-3.9511111111111115,8.586063019264593,55.10569890653829,28.96776953152225,38.750305309627294,62.073083179831315,2852.018654585091,1
-24.166968990239262,-26.27863319974689,-35.9598957848702,123.39025490638392,-124.21600250528459,125.80741350906095,-98.95799631048672,-15.943722943722943,2.6348547717842443,-21.415686274509802,-7.904564315352688,-12.854251012145754,3.4862745098039234,-0.49803921568627274,-3.9511111111111115,8.586063019264593,55.10569890653829,28.80183265828545,39.54318222655804,61.876261297000326,2861.41026864199,1
-24.166968990239262,-26.27863319974689,-35.9598957848702,123.39025490638392,-124.21600250528459,125.80741350906095,-98.95799631048672,-18.142857142857142,-6.850622406638992,-20.419607843137253,-15.282157676348538,-7.712550607287455,-2.490196078431371,4.482352941176472,0.5644444444444439,9.493098642540208,55.96317778284432,28.80183265828545,39.54318222655804,61.876261297000326,2861.41026864199,1
-24.166968990239262,-26.27863319974689,-35.9598957848702,123.39025490638392,-124.21600250528459,125.80741350906095,-98.95799631048672,1.6493506493506516,35.30705394190873,-14.44313725490196,3.6887966804979353,11.825910931174082,8.466666666666669,4.482352941176472,-0.5644444444444452,10.053464188765117,127.8413445705341,28.80183265828545,39.54318222655804,61.876261297000326,2861.41026864199,1
-24.188909043793725,-26.19827040708711,-35.9362612822183,123.21836228287839,-124.11657402333049,125.84925864909391,-99.13821484319568,1.6493506493506516,35.30705394190873,-14.44313725490196,3.6887966804979353,11.825910931174082,8.466666666666669,4.482352941176472,-0.5644444444444452,10.053464188765117,127.8413445705341,28.774480244366377,39.47771399767555,61.78429799072793,2854.3153081600913,1
-24.188909043793725,-26.19827040708711,-35.9362612822183,123.21836228287839,-124.11657402333049,125.84925864909391,-99.13821484319568,-10.445887445887443,-6.850622406638992,7.4705882352941195,-4.7427385892116085,7.712550607287442,12.450980392156865,-0.49803921568627274,-5.08,6.906425861520343,13.332271001170692,28.774480244366377,39.47771399767555,61.78429799072793,2854.3153081600913,1
-24.188909043793725,-26.19827040708711,-35.9362612822183,123.21836228287839,-124.11657402333049,125.84925864909391,-99.13821484319568,-18.142857142857142,-12.120331950207458,1.4941176470588253,-10.012448132780074,7.712550607287442,-5.478431372549018,-4.482352941176469,-6.20888888888889,8.206497335350665,26.8446950315437,28.774480244366377,39.47771399767555,61.78429799072793,2854.3153081600913,1
-23.991448561803573,-26.385783589959924,-35.865357774262584,123.10376720054137,-123.97737414859469,125.97479406919275,-99.42656449553,-18.142857142857142,-12.120331950207458,1.4941176470588253,-10.012448132780074,7.712550607287442,-5.478431372549018,-4.482352941176469,-6.20888888888889,8.206497335350665,26.8446950315437,28.74752997534203,39.430814488078816,61.78496952158795,2842.461793273241,1
-23.991448561803573,-26.385783589959924,-35.865357774262584,123.10376720054137,-123.97737414859469,125.97479406919275,-99.42656449553,-13.744588744588743,-3.688796680497913,2.4901960784313744,5.796680497925321,17.99595141700404,5.4784313725490215,1.4941176470588253,-3.9511111111111115,6.829984193645794,34.406456227268144,28.74752997534203,39.430814488078816,61.78496952158795,2842.461793273241,1
-23.991448561803573,-26.385783589959924,-35.865357774262584,123.10376720054137,-123.97737414859469,125.97479406919275,-99.42656449553,-10.445887445887443,10.012448132780095,25.400000000000002,-5.796680497925301,-21.080971659919033,-9.462745098039214,-2.490196078431371,-1.693333333333334,10.797782780789476,71.20137832763803,28.74752997534203,39.430814488078816,61.78496952158795,2842.461793273241,1
-22.411764705882348,-26.25184560219363,-36.030799292825904,123.44755244755243,-124.09668832693964,125.95387149917627,-99.64282673478075,-10.445887445887443,10.012448132780095,25.400000000000002,-5.796680497925301,-21.080971659919033,-9.462745098039214,-2.490196078431371,-1.693333333333334,10.797782780789476,71.20137832763803,28.23146986696729,49.30870994235171,61.910065780857316,2864.053682761141,1
-22.411764705882348,-26.25184560219363,-36.030799292825904,123.44755244755243,-124.09668832693964,125.95387149917627,-99.64282673478075,-20.34199134199134,-8.958506224066378,5.4784313725490215,-4.7427385892116085,-6.684210526315796,-1.4941176470588218,-1.4941176470588218,-6.20888888888889,6.925375279642584,35.79505567481715,28.23146986696729,49.30870994235171,61.910065780857316,2864.053682761141,1
-22.411764705882348,-26.25184560219363,-36.030799292825904,123.44755244755243,-124.09668832693964,125.95387149917627,-99.64282673478075,-12.645021645021643,-4.742738589211607,17.43137254901961,6.850622406639014,4.627530364372463,-0.49803921568627274,-0.49803921568627274,-8.466666666666667,6.970003831537944,34.01726551069273,28.23146986696729,49.30870994235171,61.910065780857316,2864.053682761141,1
-23.991448561803573,-26.19827040708711,-36.574392853819674,123.21836228287839,-124.01714554137635,125.91202635914333,-99.71491414786433,-12.645021645021643,-4.742738589211607,17.43137254901961,6.850622406639014,4.627530364372463,-0.49803921568627274,-0.49803921568627274,-8.466666666666667,6.970003831537944,34.01726551069273,28.921370607570122,45.1440777903981,61.99700851459505,2837.9565971733714,1
-23.991448561803573,-26.19827040708711,-36.574392853819674,123.21836228287839,-124.01714554137635,125.91202635914333,-99.71491414786433,-3.848484848484846,23.713692946058103,-16.435294117647057,-16.336099585062232,-11.825910931174095,4.482352941176472,-0.49803921568627274,0.5644444444444439,9.713039878716689,74.27175135768768,28.921370607570122,45.1440777903981,61.99700851459505,2837.9565971733714,1
-23.991448561803573,-26.19827040708711,-36.574392853819674,123.21836228287839,-124.01714554137635,125.91202635914333,-99.71491414786433,-15.943722943722943,5.7966804979253235,34.36470588235294,-2.634854771784223,-6.684210526315796,-2.490196078431371,-0.49803921568627274,-2.822222222222223,8.904329017305137,128.63934319485375,28.921370607570122,45.1440777903981,61.99700851459505,2837.9565971733714,1
-23.925628401140187,-26.010757224214302,-36.8580068856425,123.04646965937286,-123.91771705942224,125.91202635914333,-99.8590889740315,-15.943722943722943,5.7966804979253235,34.36470588235294,-2.634854771784223,-6.684210526315796,-2.490196078431371,-0.49803921568627274,-2.822222222222223,8.904329017305137,128.63934319485375,28.931464170332333,48.20950011543118,61.971744589743224,2827.007238052474,1
-23.925628401140187,-26.010757224214302,-36.8580068856425,123.04646965937286,-123.91771705942224,125.91202635914333,-99.8590889740315,-13.744588744588743,1.5809128630705516,-11.454901960784312,-4.7427385892116085,-5.655870445344135,1.4941176470588253,1.4941176470588253,-2.822222222222223,5.373683764917403,22.646874243601015,28.931464170332333,48.20950011543118,61.971744589743224,2827.007238052474,1
-23.925628401140187,-26.010757224214302,-36.8580068856425,123.04646965937286,-123.91771705942224,125.91202635914333,-99.8590889740315,-14.844155844155843,-6.850622406638992,0.4980392156862763,-5.796680497925301,2.5708502024291437,-0.49803921568627274,0.4980392156862763,-5.08,4.579553324776013,23.7518322268051,28.931464170332333,48.20950011543118,61.971744589743224,2827.007238052474,1
-23.069966312516193,-26.19827040708711,-36.928910393598215,123.16106474170988,-123.95748845220388,125.84925864909391,-99.96722009365686,-14.844155844155843,-6.850622406638992,0.4980392156862763,-5.796680497925301,2.5708502024291437,-0.49803921568627274,0.4980392156862763,-5.08,4.579553324776013,23.7518322268051,28.732382371067175,52.83387534512977,62.096081847465065,2825.4857605358366,1
-23.069966312516193,-26.19827040708711,-36.928910393598215,123.16106474170988,-123.95748845220388,125.84925864909391,-99.96722009365686,-18.142857142857142,-3.688796680497913,19.423529411764708,-0.5269709543568366,-53.98785425101215,-22.41176470588235,-3.48627450980392,-3.9511111111111115,15.702394845910767,313.2201487297055,28.732382371067175,52.83387534512977,62.096081847465065,2825.4857605358366,1
-23.069966312516193,-26.19827040708711,-36.928910393598215,123.16106474170988,-123.95748845220388,125.84925864909391,-99.96722009365686,-15.943722943722943,-6.850622406638992,3.4862745098039234,-1.5809128630705298,9.769230769230763,7.4705882352941195,0.4980392156862763,-2.822222222222223,6.052701645708721,26.02366944898827,28.732382371067175,52.83387534512977,62.096081847465065,2825.4857605358366,1
-23.33324695516973,-26.305420797300147,-36.99981390155392,123.16106474170988,-123.97737414859469,125.76556836902802,-99.96722009365686,-15.943722943722943,-6.850622406638992,3.4862745098039234,-1.5809128630705298,9.769230769230763,7.4705882352941195,0.4980392156862763,-2.822222222222223,6.052701645708721,26.02366944898827,28.8794938846746,51.663152219359304,62.15543314685465,2819.8578256824767,1
-23.33324695516973,-26.305420797300147,-36.99981390155392,123.16106474170988,-123.97737414859469,125.76556836902802,-99.96722009365686,-6.047619047619046,36.36099585062242,72.2156862745098,-8.95850622406638,-10.797570850202435,-4.482352941176469,0.4980392156862763,-1.693333333333334,17.63176296715202,615.2596879447218,28.8794938846746,51.663152219359304,62.15543314685465,2819.8578256824767,1
-23.33324695516973,-26.305420797300147,-36.99981390155392,123.16106474170988,-123.97737414859469,125.76556836902802,-99.96722009365686,-10.445887445887443,-0.5269709543568344,-5.478431372549018,-1.5809128630705298,-4.6275303643724754,-0.49803921568627274,0.4980392156862763,-1.693333333333334,3.168643095617773,12.337409619382314,28.8794938846746,51.663152219359304,62.15543314685465,2819.8578256824767,1
-24.10114882957588,-26.546509175279475,-36.763468875034896,122.93187457703584,-123.87794566664058,125.80741350906095,-100.03930750674046,-10.445887445887443,-0.5269709543568344,-5.478431372549018,-1.5809128630705298,-4.6275303643724754,-0.49803921568627274,0.4980392156862763,-1.693333333333334,3.168643095617773,12.337409619382314,29.137042293296748,45.11673361006653,62.08061754245008,2803.2531783935246,1
-24.10114882957588,-26.546509175279475,-36.763468875034896,122.93187457703584,-123.87794566664058,125.80741350906095,-100.03930750674046,-12.645021645021643,0.5269709543568586,-3.48627450980392,-2.634854771784223,5.655870445344123,18.42745098039216,1.4941176470588253,0.5644444444444439,5.679375674775774,42.1913115967737,29.137042293296748,45.11673361006653,62.08061754245008,2803.2531783935246,1
-24.10114882957588,-26.546509175279475,-36.763468875034896,122.93187457703584,-123.87794566664058,125.80741350906095,-100.03930750674046,-13.744588744588743,8.958506224066403,3.4862745098039234,-11.066390041493767,11.825910931174082,-10.458823529411763,-5.478431372549018,-9.595555555555556,9.326810113580407,11.314230367047019,29.137042293296748,45.11673361006653,62.08061754245008,2803.2531783935246,1
-23.81592813336788,-26.9215355410251,-36.69256536707918,122.81727949469882,-123.81828857746811,125.87018121911038,-100.03930750674046,-13.744588744588743,8.958506224066403,3.4862745098039234,-11.066390041493767,11.825910931174082,-10.458823529411763,-5.478431372549018,-9.595555555555556,9.326810113580407,11.314230367047019,29.143343013824055,45.15426794678903,62.14379346760103,2784.8221859757323,1
-23.81592813336788,-26.9215355410251,-36.69256536707918,122.81727949469882,-123.81828857746811,125.87018121911038,-100.03930750674046,-11.545454545454543,0.5269709543568586,8.466666666666669,-7.904564315352688,-10.797570850202435,2.4901960784313744,0.4980392156862763,-0.5644444444444452,5.349238383824411,23.16889193963473,29.143343013824055,45.15426794678903,62.14379346760103,2784.8221859757323,1
-23.81592813336788,-26.9215355410251,-36.69256536707918,122.81727949469882,-123.81828857746811,125.87018121911038,-100.03930750674046,-14.844155844155843,-3.688796680497913,1.4941176470588253,-1.5809128630705298,-19.024291497975714,-0.49803921568627274,1.4941176470588253,-3.9511111111111115,5.82194281332688,49.64901262031939,29.143343013824055,45.15426794678903,62.14379346760103,2784.8221859757323,1
-22.960266044743886,-27.08226112634465,-36.8343723829906,123.04646965937286,-123.91771705942224,125.84925864909391,-99.96722009365686,-14.844155844155843,-3.688796680497913,1.4941176470588253,-1.5809128630705298,-19.024291497975714,-0.49803921568627274,1.4941176470588253,-3.9511111111111115,5.82194281332688,49.64901262031939,28.958966518026376,50.76422401661988,62.32103438956938,2789.45978502082,1
-22.960266044743886,-27.08226112634465,-36.8343723829906,123.04646965937286,-123.91771705942224,125.84925864909391,-99.96722009365686,-12.645021645021643,-0.5269709543568344,5.4784313725490215,8.9585062240664,25.19433198380566,2.4901960784313744,-0.49803921568627274,-5.08,7.608937184239651,67.75497113573401,28.958966518026376,50.76422401661988,62.32103438956938,2789.45978502082,1
-22.960266044743886,-27.08226112634465,-36.8343723829906,123.04646965937286,-123.91771705942224,125.84925864909391,-99.96722009365686,-11.545454545454543,2.6348547717842443,-1.4941176470588218,-21.605809128630696,-15.939271255060735,-9.462745098039214,-0.49803921568627274,-1.693333333333334,8.109203124380983,61.4184696066961,28.958966518026376,50.76422401661988,62.32103438956938,2789.45978502082,1
-23.157726526734038,-26.358995992406665,-36.45622034056016,123.16106474170988,-123.97737414859469,125.80741350906095,-100.00326380019867,-11.545454545454543,2.6348547717842443,-1.4941176470588218,-21.605809128630696,-15.939271255060735,-9.462745098039214,-0.49803921568627274,-1.693333333333334,8.109203124380983,61.4184696066961,28.657647619900285,48.175333907527204,61.9920936915589,2831.7207493848923,1
-23.157726526734038,-26.358995992406665,-36.45622034056016,123.16106474170988,-123.97737414859469,125.80741350906095,-100.00326380019867,-11.545454545454543,6.850622406639016,-32.372549019607845,-12.12033195020746,1.5425101214574832,-2.490196078431371,3.4862745098039234,-6.20888888888889,9.577103440061316,100.09006677038144,28.657647619900285,48.175333907527204,61.9920936915589,2831.7207493848923,1
-23.157726526734038,-26.358995992406665,-36.45622034056016,123.16106474170988,-123.97737414859469,125.80741350906095,-100.00326380019867,-12.645021645021643,-2.6348547717842203,-1.4941176470588218,12.120331950207479,3.5991902834008034,16.43529411764706,2.4901960784313744,-1.693333333333334,6.639042478360592,36.50004338266079,28.657647619900285,48.175333907527204,61.9920936915589,2831.7207493848923,1
-23.35518700872419,-25.983969626661043,-36.52712384851586,123.10376720054137,-123.95748845220388,125.72372322899506,-100.11139491982404,-12.645021645021643,-2.6348547717842203,-1.4941176470588218,12.120331950207479,3.5991902834008034,16.43529411764706,2.4901960784313744,-1.693333333333334,6.639042478360592,36.50004338266079,28.622093494633702,48.594753184940515,61.87162022523942,2839.821392640188,1
-23.35518700872419,-25.983969626661043,-36.52712384851586,123.10376720054137,-123.95748845220388,125.72372322899506,-100.11139491982404,-19.242424242424242,-19.497925311203307,-37.35294117647059,-1.5809128630705298,5.655870445344123,-7.470588235294116,-3.48627450980392,-8.466666666666667,12.844200431284687,142.86153112943825,28.622093494633702,48.594753184940515,61.87162022523942,2839.821392640188,1
-23.35518700872419,-25.983969626661043,-36.52712384851586,123.10376720054137,-123.95748845220388,125.72372322899506,-100.11139491982404,-15.943722943722943,4.742738589211631,26.39607843137255,-1.5809128630705298,13.882591093117401,-0.49803921568627274,0.4980392156862763,-3.9511111111111115,8.436654182872338,87.90924897833428,28.622093494633702,48.594753184940515,61.87162022523942,2839.821392640188,1
-23.267426794506346,-26.037544821767558,-36.55075835116777,123.10376720054137,-123.95748845220388,125.66095551894563,-100.2555697459912,-15.943722943722943,4.742738589211631,26.39607843137255,-1.5809128630705298,13.882591093117401,-0.49803921568627274,0.4980392156862763,-3.9511111111111115,8.436654182872338,87.90924897833428,28.618576655813893,49.10801830731976,61.897356791158906,2837.3004210800127,1
-23.267426794506346,-26.037544821767558,-36.55075835116777,123.10376720054137,-123.95748845220388,125.66095551894563,-100.2555697459912,-11.545454545454543,-4.742738589211607,5.4784313725490215,-7.904564315352688,-9.769230769230775,0.4980392156862763,2.4901960784313744,-3.9511111111111115,5.797470749628425,13.842766995411486,28.618576655813893,49.10801830731976,61.897356791158906,2837.3004210800127,1
-23.267426794506346,-26.037544821767558,-36.55075835116777,123.10376720054137,-123.95748845220388,125.66095551894563,-100.2555697459912,-12.645021645021643,-11.066390041493765,-61.258823529411764,-0.5269709543568366,3.5991902834008034,-1.4941176470588218,-2.490196078431371,-5.08,12.270088772396875,411.14801806232884,28.618576655813893,49.10801830731976,61.897356791158906,2837.3004210800127,1
-23.245486740951883,-26.117907614427335,-36.66893086442728,123.10376720054137,-123.93760275581306,125.6191103789127,-100.43578827870014,-12.645021645021643,-11.066390041493765,-61.258823529411764,-0.5269709543568366,3.5991902834008034,-1.4941176470588218,-2.490196078431371,-5.08,12.270088772396875,411.14801806232884,28.6774417399355,49.96062423874719,61.96353522646533,2831.4269972883826,1
-23.245486740951883,-26.117907614427335,-36.66893086442728,123.10376720054137,-123.93760275581306,125.6191103789127,-100.43578827870014,-17.043290043290042,-18.443983402489614,-20.419607843137253,-0.5269709543568366,21.080971659919022,6.4745098039215705,-2.490196078431371,-2.822222222222223,11.162719000970991,78.79066232231214,28.6774417399355,49.96062423874719,61.96353522646533,2831.4269972883826,1
-23.245486740951883,-26.117907614427335,-36.66893086442728,123.10376720054137,-123.93760275581306,125.6191103789127,-100.43578827870014,-11.545454545454543,-0.5269709543568344,-17.431372549019606,-11.066390041493767,21.080971659919022,-0.49803921568627274,3.4862745098039234,-2.822222222222223,8.557211962244523,62.69434306040245,28.6774417399355,49.96062423874719,61.96353522646533,2831.4269972883826,1
-23.267426794506346,-25.957182029107784,-36.47985484321206,123.10376720054137,-123.8978313630314,125.57726523887973,-100.6520505179509,-11.545454545454543,-0.5269709543568344,-17.431372549019606,-11.066390041493767,21.080971659919022,-0.49803921568627274,3.4862745098039234,-2.822222222222223,8.557211962244523,62.69434306040245,28.568154555608732,48.75494688616342,61.84693469095374,2841.9813076189266,1
-23.267426794506346,-25.957182029107784,-36.47985484321206,123.10376720054137,-123.8978313630314,125.57726523887973,-100.6520505179509,-18.142857142857142,-6.850622406638992,-37.35294117647059,-4.7427385892116085,-0.514170040485836,5.4784313725490215,-0.49803921568627274,-7.337777777777778,10.114697215209656,151.3916979129499,28.568154555608732,48.75494688616342,61.84693469095374,2841.9813076189266,1
-23.267426794506346,-25.957182029107784,-36.47985484321206,123.10376720054137,-123.8978313630314,125.57726523887973,-100.6520505179509,-11.545454545454543,13.174273858921174,42.333333333333336,-2.634854771784223,6.684210526315782,8.466666666666669,-0.49803921568627274,0.5644444444444439,10.737659670325804,185.7805224257667,28.568154555608732,48.75494688616342,61.84693469095374,2841.9813076189266,1
-23.618467651377728,-25.957182029107784,-36.432585837908256,122.98917211820435,-123.83817427385893,125.53542009884679,-100.83226905065985,-11.545454545454543,13.174273858921174,42.333333333333336,-2.634854771784223,6.684210526315782,8.466666666666669,-0.49803921568627274,0.5644444444444439,10.737659670325804,185.7805224257667,28.66941183946459,46.56754913273419,61.792979995073466,2836.163969017718,1
-23.618467651377728,-25.957182029107784,-36.432585837908256,122.98917211820435,-123.83817427385893,125.53542009884679,-100.83226905065985,-10.445887445887443,5.7966804979253235,-13.44705882352941,-17.390041493775925,-7.712550607287455,-4.482352941176469,-2.490196078431371,-3.9511111111111115,8.214484874890562,26.78859852686609,28.66941183946459,46.56754913273419,61.792979995073466,2836.163969017718,1
-23.618467651377728,-25.957182029107784,-36.432585837908256,122.98917211820435,-123.83817427385893,125.53542009884679,-100.83226905065985,-17.043290043290042,-5.7966804979252995,-0.49803921568627274,1.580912863070549,-14.910931174089074,-6.474509803921567,-1.4941176470588218,-6.20888888888889,6.750921266741315,38.18012852787392,28.66941183946459,46.56754913273419,61.792979995073466,2836.163969017718,1
-23.881748294031265,-25.983969626661043,-36.574392853819674,122.81727949469882,-123.75863148829563,125.5144975288303,-101.01248758336881,-17.043290043290042,-5.7966804979252995,-0.49803921568627274,1.580912863070549,-14.910931174089074,-6.474509803921567,-1.4941176470588218,-6.20888888888889,6.750921266741315,38.18012852787392,28.81337025817066,46.27993743047185,61.791880658393175,2821.113743380216,1
-23.881748294031265,-25.983969626661043,-36.574392853819674,122.81727949469882,-123.75863148829563,125.5144975288303,-101.01248758336881,-10.445887445887443,18.44398340248964,56.27843137254902,-1.5809128630705298,-14.910931174089074,0.4980392156862763,0.4980392156862763,-0.5644444444444452,12.902583641737838,358.62792094178224,28.81337025817066,46.27993743047185,61.791880658393175,2821.113743380216,1
-23.881748294031265,-25.983969626661043,-36.574392853819674,122.81727949469882,-123.75863148829563,125.5144975288303,-101.01248758336881,-12.645021645021643,10.012448132780095,12.450980392156865,-12.12033195020746,-1.542510121457496,3.4862745098039234,-1.4941176470588218,-7.337777777777778,7.63618277203301,23.74193834177591,28.81337025817066,46.27993743047185,61.791880658393175,2821.113743380216,1
-24.364429472229418,-26.25184560219363,-36.52712384851586,122.47349424768777,-123.59954591716905,125.53542009884679,-101.12061870299418,-12.645021645021643,10.012448132780095,12.450980392156865,-12.12033195020746,-1.542510121457496,3.4862745098039234,-1.4941176470588218,-7.337777777777778,7.63618277203301,23.74193834177591,29.047799640979633,42.845802862990325,61.75082123279909,2791.827599314653,1
-24.364429472229418,-26.25184560219363,-36.52712384851586,122.47349424768777,-123.59954591716905,125.53542009884679,-101.12061870299418,-13.744588744588743,-5.7966804979252995,-15.439215686274508,-0.5269709543568366,40.619433198380555,13.447058823529414,1.4941176470588253,-3.9511111111111115,11.877397082903162,168.74103187772147,29.047799640979633,42.845802862990325,61.75082123279909,2791.827599314653,1
-24.364429472229418,-26.25184560219363,-36.52712384851586,122.47349424768777,-123.59954591716905,125.53542009884679,-101.12061870299418,-11.545454545454543,1.5809128630705516,11.454901960784316,-10.012448132780074,-23.137651821862352,-7.470588235294116,-4.482352941176469,-8.466666666666667,9.768872145886137,40.96433591542476,29.047799640979633,42.845802862990325,61.75082123279909,2791.827599314653,1
-24.342489418674955,-26.439358785066442,-36.10170280078162,122.12970900067671,-123.46034604243326,125.53542009884679,-101.15666240953597,-11.545454545454543,1.5809128630705516,11.454901960784316,-10.012448132780074,-23.137651821862352,-7.470588235294116,-4.482352941176469,-8.466666666666667,9.768872145886137,40.96433591542476,28.96118366817434,39.33947539727571,61.556923528841594,2775.136977832227,1
-24.342489418674955,-26.439358785066442,-36.10170280078162,122.12970900067671,-123.46034604243326,125.53542009884679,-101.15666240953597,-7.147186147186145,19.497925311203332,20.419607843137257,-10.012448132780074,-19.024291497975714,-0.49803921568627274,1.4941176470588253,-2.822222222222223,10.11447975215623,71.77261342340857,28.96118366817434,39.33947539727571,61.556923528841594,2775.136977832227,1
-24.342489418674955,-26.439358785066442,-36.10170280078162,122.12970900067671,-123.46034604243326,125.53542009884679,-101.15666240953597,-18.142857142857142,-11.066390041493765,-11.454901960784312,-3.6887966804979158,10.797570850202423,16.43529411764706,1.4941176470588253,-2.822222222222223,9.487768832845457,39.03027844961155,28.96118366817434,39.33947539727571,61.556923528841594,2775.136977832227,1
-24.649650168437415,-25.983969626661043,-36.17260630873732,121.67132867132864,-123.28137477491586,125.53542009884679,-101.30083723570313,-18.142857142857142,-11.066390041493765,-11.454901960784312,-3.6887966804979158,10.797570850202423,16.43529411764706,1.4941176470588253,-2.822222222222223,9.487768832845457,39.03027844961155,28.93540870127859,39.72787401120331,61.27596820224233,2761.6517540029918,1
-24.649650168437415,-25.983969626661043,-36.17260630873732,121.67132867132864,-123.28137477491586,125.53542009884679,-101.30083723570313,-13.744588744588743,-8.958506224066378,6.4745098039215705,-0.5269709543568366,0.5141700404858236,2.4901960784313744,-0.49803921568627274,-3.9511111111111115,4.644761521581014,23.01426025510322,28.93540870127859,39.72787401120331,61.27596820224233,2761.6517540029918,1
-24.649650168437415,-25.983969626661043,-36.17260630873732,121.67132867132864,-123.28137477491586,125.53542009884679,-101.30083723570313,-13.744588744588743,-0.5269709543568344,-24.40392156862745,-7.904564315352688,-25.19433198380567,-26.396078431372548,-2.490196078431371,-0.5644444444444452,12.653137065122468,129.2052738689934,28.93540870127859,39.72787401120331,61.27596820224233,2761.6517540029918,1
-24.4302496328928,-26.27863319974689,-36.33804782730064,121.38484096548609,-123.12228920378925,125.59818780889621,-101.4450120618703,-13.744588744588743,-0.5269709543568344,-24.40392156862745,-7.904564315352688,-25.19433198380567,-26.396078431372548,-2.490196078431371,-0.5644444444444452,12.653137065122468,129.2052738689934,29.015643553313442,41.06733371633355,61.33384066417787,2729.8899335530505,1
-24.4302496328928,-26.27863319974689,-36.33804782730064,121.38484096548609,-123.12228920378925,125.59818780889621,-101.4450120618703,-18.142857142857142,-6.850622406638992,11.454901960784316,5.796680497925321,16.96761133603238,-6.474509803921567,-0.49803921568627274,-5.08,8.90815279548075,37.420377325959336,29.015643553313442,41.06733371633355,61.33384066417787,2729.8899335530505,1
-24.4302496328928,-26.27863319974689,-36.33804782730064,121.38484096548609,-123.12228920378925,125.59818780889621,-101.4450120618703,-6.047619047619046,8.958506224066403,-42.33333333333333,-12.12033195020746,-10.797570850202435,8.466666666666669,1.4941176470588253,0.5644444444444439,11.347823770449825,173.78288839832933,29.015643553313442,41.06733371633355,61.33384066417787,2729.8899335530505,1
-24.145028936684803,-26.171482809533853,-36.52712384851586,121.27024588314907,-123.06263211461678,125.6191103789127,-101.55314318149567,-6.047619047619046,8.958506224066403,-42.33333333333333,-12.12033195020746,-10.797570850202435,8.466666666666669,1.4941176470588253,0.5644444444444439,11.347823770449825,173.78288839832933,28.94787853157817,44.11034850543766,61.32295084706626,2722.0684619394315,1
-24.145028936684803,-26.171482809533853,-36.52712384851586,121.27024588314907,-123.06263211461678,125.6191103789127,-101.55314318149567,-10.445887445887443,16.336099585062254,-20.419607843137253,-15.282157676348538,-28.279352226720654,-4.482352941176469,-2.490196078431371,-1.693333333333334,12.428623391262164,88.51510160312792,28.94787853157817,44.11034850543766,61.32295084706626,2722.0684619394315,1
-24.145028936684803,-26.171482809533853,-36.52712384851586,121.27024588314907,-123.06263211461678,125.6191103789127,-101.55314318149567,-14.844155844155843,1.5809128630705516,20.419607843137257,10.012448132780094,-2.570850202429156,-2.490196078431371,1.4941176470588253,-2.822222222222223,7.029313854160665,52.53934247002774,28.94787853157817,44.11034850543766,61.32295084706626,2722.0684619394315,1
-24.166968990239262,-26.25184560219363,-36.47985484321206,121.04105571847504,-122.96320363266267,125.64003294892916,-101.62523059457925,-14.844155844155843,1.5809128630705516,20.419607843137257,10.012448132780094,-2.570850202429156,-2.490196078431371,1.4941176470588253,-2.822222222222223,7.029313854160665,52.53934247002774,28.966223145214986,43.4276735916284,61.25758538796024,2706.7005368282466,1
-24.166968990239262,-26.25184560219363,-36.47985484321206,121.04105571847504,-122.96320363266267,125.64003294892916,-101.62523059457925,-17.043290043290042,-4.742738589211607,-10.458823529411763,-12.12033195020746,-13.882591093117414,-5.478431372549018,-2.490196078431371,-7.337777777777778,9.194272554249556,25.1090233715438,28.966223145214986,43.4276735916284,61.25758538796024,2706.7005368282466,1
-24.166968990239262,-26.25184560219363,-36.47985484321206,121.04105571847504,-122.96320363266267,125.64003294892916,-101.62523059457925,-12.645021645021643,1.5809128630705516,-1.4941176470588218,3.6887966804979353,-6.684210526315796,-1.4941176470588218,-1.4941176470588218,-1.693333333333334,3.846828498676966,15.980224802217224,28.966223145214986,43.4276735916284,61.25758538796024,2706.7005368282466,1
-23.706227865595572,-26.22505800464037,-36.361682329952544,120.92646063613802,-122.92343223988101,125.6191103789127,-101.73336171420462,-12.645021645021643,1.5809128630705516,-1.4941176470588218,3.6887966804979353,-6.684210526315796,-1.4941176470588218,-1.4941176470588218,-1.693333333333334,3.846828498676966,15.980224802217224,28.76432273339616,44.87603094688062,61.171066990243645,2703.7180905099726,1
-23.706227865595572,-26.22505800464037,-36.361682329952544,120.92646063613802,-122.92343223988101,125.6191103789127,-101.73336171420462,-15.943722943722943,-2.6348547717842203,15.439215686274512,-3.6887966804979158,-32.39271255060729,-1.4941176470588218,1.4941176470588253,-2.822222222222223,9.488720018653344,122.07892027674119,28.76432273339616,44.87603094688062,61.171066990243645,2703.7180905099726,1
-23.706227865595572,-26.22505800464037,-36.361682329952544,120.92646063613802,-122.92343223988101,125.6191103789127,-101.73336171420462,-14.844155844155843,4.742738589211631,-12.450980392156861,-7.904564315352688,-0.514170040485836,-5.478431372549018,-3.48627450980392,-9.595555555555556,7.377108827408919,22.783440298978906,28.76432273339616,44.87603094688062,61.171066990243645,2703.7180905099726,1
-23.48682733005096,-26.305420797300147,-36.47985484321206,120.92646063613802,-122.94331793627182,125.53542009884679,-101.73336171420462,-14.844155844155843,4.742738589211631,-12.450980392156861,-7.904564315352688,-0.514170040485836,-5.478431372549018,-3.48627450980392,-9.595555555555556,7.377108827408919,22.783440298978906,28.757367656854388,46.71372354099876,61.23724542555007,2697.981586380565,1
-23.48682733005096,-26.305420797300147,-36.47985484321206,120.92646063613802,-122.94331793627182,125.53542009884679,-101.73336171420462,-19.242424242424242,-6.850622406638992,-5.478431372549018,-2.634854771784223,-14.910931174089074,-9.462745098039214,-2.490196078431371,-3.9511111111111115,8.127664531883404,37.053987271926715,28.757367656854388,46.71372354099876,61.23724542555007,2697.981586380565,1
-23.48682733005096,-26.305420797300147,-36.47985484321206,120.92646063613802,-122.94331793627182,125.53542009884679,-101.73336171420462,-8.246753246753244,25.82157676348549,31.376470588235296,-1.5809128630705298,-2.570850202429156,8.466666666666669,2.4901960784313744,0.5644444444444439,10.139733856689524,140.57781792744748,28.757367656854388,46.71372354099876,61.23724542555007,2697.981586380565,1
-24.386369525783877,-26.117907614427335,-36.408951335256354,120.58267538912696,-122.80411806153606,125.5144975288303,-101.8054491272882,-8.246753246753244,25.82157676348549,31.376470588235296,-1.5809128630705298,-2.570850202429156,8.466666666666669,2.4901960784313744,0.5644444444444439,10.139733856689524,140.57781792744748,28.971076158489193,42.241046396982654,61.03651144627022,2685.785625448183,1
-24.386369525783877,-26.117907614427335,-36.408951335256354,120.58267538912696,-122.80411806153606,125.5144975288303,-101.8054491272882,-11.545454545454543,3.6887966804979375,8.466666666666669,-0.5269709543568366,0.5141700404858236,-0.49803921568627274,1.4941176470588253,-2.822222222222223,3.6945547465536412,17.19696370655509,28.971076158489193,42.241046396982654,61.03651144627022,2685.785625448183,1
-24.386369525783877,-26.117907614427335,-36.408951335256354,120.58267538912696,-122.80411806153606,125.5144975288303,-101.8054491272882,-11.545454545454543,15.282157676348561,55.28235294117647,2.6348547717842425,0.5141700404858236,4.482352941176472,3.4862745098039234,0.5644444444444439,11.72400773383431,337.59036825020837,28.971076158489193,42.241046396982654,61.03651144627022,2685.785625448183,1
-23.377127062278653,-26.70723476059903,-36.50348934586396,120.63997293029547,-122.78423236514524,125.55634266886327,-101.91358024691357,-11.545454545454543,15.282157676348561,55.28235294117647,2.6348547717842425,0.5141700404858236,4.482352941176472,3.4862745098039234,0.5644444444444439,11.72400773383431,337.59036825020837,28.862617056247217,46.55960133027796,61.28356567891948,2666.3789623182306,1
-23.377127062278653,-26.70723476059903,-36.50348934586396,120.63997293029547,-122.78423236514524,125.55634266886327,-101.91358024691357,-17.043290043290042,-12.120331950207458,3.4862745098039234,1.580912863070549,-32.39271255060729,-1.4941176470588218,-3.48627450980392,-0.5644444444444452,9.021044814785807,123.56978607662361,28.862617056247217,46.55960133027796,61.28356567891948,2666.3789623182306,1
-23.377127062278653,-26.70723476059903,-36.50348934586396,120.63997293029547,-122.78423236514524,125.55634266886327,-101.91358024691357,-15.943722943722943,-13.17427385892115,-32.372549019607845,-10.012448132780074,-6.684210526315796,11.454901960784316,1.4941176470588253,-7.337777777777778,12.30925023337109,85.11750424902827,28.862617056247217,46.55960133027796,61.28356567891948,2666.3789623182306,1
-22.850565776971578,-26.9215355410251,-36.12533730343352,120.92646063613802,-122.86377515070853,125.6191103789127,-101.98566765999716,-15.943722943722943,-13.17427385892115,-32.372549019607845,-10.012448132780074,-6.684210526315796,11.454901960784316,1.4941176470588253,-7.337777777777778,12.30925023337109,85.11750424902827,28.632479540476734,46.25038679688582,61.32444449353221,2685.4777379180105,1
-22.850565776971578,-26.9215355410251,-36.12533730343352,120.92646063613802,-122.86377515070853,125.6191103789127,-101.98566765999716,-11.545454545454543,-5.7966804979252995,-23.4078431372549,-3.6887966804979158,19.0242914979757,-16.435294117647057,-4.482352941176469,-7.337777777777778,11.464811399463708,54.69645624017452,28.632479540476734,46.25038679688582,61.32444449353221,2685.4777379180105,1
-22.850565776971578,-26.9215355410251,-36.12533730343352,120.92646063613802,-122.86377515070853,125.6191103789127,-101.98566765999716,-18.142857142857142,-21.605809128630693,-18.427450980392155,-16.336099585062232,-15.939271255060735,-8.466666666666665,-1.4941176470588218,-1.693333333333334,12.763200717382723,61.43765574100852,28.632479540476734,46.25038679688582,61.32444449353221,2685.4777379180105,1
-23.925628401140187,-26.760809955705547,-36.267144319344936,120.98375817730653,-122.86377515070853,125.70280065897859,-102.02171136653895,-18.142857142857142,-21.605809128630693,-18.427450980392155,-16.336099585062232,-15.939271255060735,-8.466666666666665,-1.4941176470588218,-1.693333333333334,12.763200717382723,61.43765574100852,28.984527558730225,41.78694377332666,61.33723748411901,2690.873171360463,1
-23.925628401140187,-26.760809955705547,-36.267144319344936,120.98375817730653,-122.86377515070853,125.70280065897859,-102.02171136653895,-11.545454545454543,3.6887966804979375,-42.33333333333333,-0.5269709543568366,1.5425101214574832,9.462745098039218,0.4980392156862763,-3.9511111111111115,9.193620132492091,195.8420780460737,28.984527558730225,41.78694377332666,61.33723748411901,2690.873171360463,1
-23.925628401140187,-26.760809955705547,-36.267144319344936,120.98375817730653,-122.86377515070853,125.70280065897859,-102.02171136653895,-23.64069264069264,-13.17427385892115,2.4901960784313744,-6.850622406638995,-1.542510121457496,-1.4941176470588218,-1.4941176470588218,-6.20888888888889,7.111927411143524,60.904895127686636,28.984527558730225,41.78694377332666,61.33723748411901,2690.873171360463,1
-24.057268722466958,-27.189411516557687,-36.29077882199684,120.811865553801,-122.76434666875443,125.84925864909391,-102.09379877962253,-23.64069264069264,-13.17427385892115,2.4901960784313744,-6.850622406638995,-1.542510121457496,-1.4941176470588218,-1.4941176470588218,-6.20888888888889,7.111927411143524,60.904895127686636,29.179153020340493,40.3839957777318,61.430685297451845,2665.3021481849028,1
-24.057268722466958,-27.189411516557687,-36.29077882199684,120.811865553801,-122.76434666875443,125.84925864909391,-102.09379877962253,-3.848484848484846,20.551867219917025,13.447058823529414,-0.5269709543568366,-2.570850202429156,-0.49803921568627274,2.4901960784313744,-0.5644444444444452,5.562238973409921,54.880019989905996,29.179153020340493,40.3839957777318,61.430685297451845,2665.3021481849028,1
-24.057268722466958,-27.189411516557687,-36.29077882199684,120.811865553801,-122.76434666875443,125.84925864909391,-102.09379877962253,-19.242424242424242,-30.037344398340238,-72.2156862745098,-6.850622406638995,-19.024291497975714,2.4901960784313744,-1.4941176470588218,-5.08,19.5543353181724,553.1052305506785,29.179153020340493,40.3839957777318,61.430685297451845,2665.3021481849028,1
-22.08266390256543,-27.40371229698376,-36.408951335256354,121.4421385066546,-122.96320363266267,125.91202635914333,-102.09379877962253,-19.242424242424242,-30.037344398340238,-72.2156862745098,-6.850622406638995,-19.024291497975714,2.4901960784313744,-1.4941176470588218,-5.08,19.5543353181724,553.1052305506785,28.63177584493518,52.44173295937476,61.75160071296491,2692.4938091090307,1
-22.08266390256543,-27.40371229698376,-36.408951335256354,121.4421385066546,-122.96320363266267,125.91202635914333,-102.09379877962253,-17.043290043290042,-14.228215767634843,-10.458823529411763,-3.6887966804979158,-2.570850202429156,-8.466666666666665,-1.4941176470588218,-3.9511111111111115,7.737733956012541,33.29531965294983,28.63177584493518,52.44173295937476,61.75160071296491,2692.4938091090307,1
-22.08266390256543,-27.40371229698376,-36.408951335256354,121.4421385066546,-122.96320363266267,125.91202635914333,-102.09379877962253,-12.645021645021643,-4.742738589211607,-7.470588235294116,-4.7427385892116085,-0.514170040485836,-6.474509803921567,0.4980392156862763,-1.693333333333334,4.8476424315207485,16.856481622040036,28.63177584493518,52.44173295937476,61.75160071296491,2692.4938091090307,1
-23.267426794506346,-27.85910145538916,-36.007164790174,121.78592375366566,-123.08251781100762,126.05848434925865,-101.94962395345537,-12.645021645021643,-4.742738589211607,-7.470588235294116,-4.7427385892116085,-0.514170040485836,-6.474509803921567,0.4980392156862763,-1.693333333333334,4.8476424315207485,16.856481622040036,29.044564346689835,41.62922274955277,61.88406333307628,2707.772395412746,1
-23.267426794506346,-27.85910145538916,-36.007164790174,121.78592375366566,-123.08251781100762,126.05848434925865,-101.94962395345537,-14.844155844155843,-3.688796680497913,3.4862745098039234,-4.7427385892116085,-9.769230769230775,5.4784313725490215,0.4980392156862763,-2.822222222222223,5.666236150419698,20.774009645505817,29.044564346689835,41.62922274955277,61.88406333307628,2707.772395412746,1
-23.267426794506346,-27.85910145538916,-36.007164790174,121.78592375366566,-123.08251781100762,126.05848434925865,-101.94962395345537,-17.043290043290042,-7.904564315352685,-12.450980392156861,6.850622406639014,-9.769230769230775,-4.482352941176469,-5.478431372549018,-8.466666666666667,9.055767363382692,16.58363496310733,29.044564346689835,41.62922274955277,61.88406333307628,2707.772395412746,1
-24.145028936684803,-27.912676650495676,-36.408951335256354,121.84322129483417,-123.06263211461678,126.2677100494234,-101.8054491272882,-17.043290043290042,-7.904564315352685,-12.450980392156861,6.850622406639014,-9.769230769230775,-4.482352941176469,-5.478431372549018,-8.466666666666667,9.055767363382692,16.58363496310733,29.48888564081228,39.46427423541241,62.0549497601954,2699.024730704499,1
-24.145028936684803,-27.912676650495676,-36.408951335256354,121.84322129483417,-123.06263211461678,126.2677100494234,-101.8054491272882,-8.246753246753244,17.390041493775946,7.4705882352941195,-8.95850622406638,-15.939271255060735,-0.49803921568627274,1.4941176470588253,-3.9511111111111115,7.9935535536008295,38.20912786573212,29.48888564081228,39.46427423541241,62.0549497601954,2699.024730704499,1
-24.145028936684803,-27.912676650495676,-36.408951335256354,121.84322129483417,-123.06263211461678,126.2677100494234,-101.8054491272882,-12.645021645021643,4.742738589211631,-32.372549019607845,-12.12033195020746,-5.655870445344135,-1.4941176470588218,3.4862745098039234,-6.20888888888889,9.840724086893044,98.21162616199808,29.48888564081228,39.46427423541241,62.0549497601954,2699.024730704499,1
-23.289366848060805,-27.671588272516345,-36.574392853819674,122.0724114595082,-123.12228920378925,126.39324546952224,-101.73336171420462,-12.645021645021643,4.742738589211631,-32.372549019607845,-12.12033195020746,-5.655870445344135,-1.4941176470588218,3.4862745098039234,-6.20888888888889,9.840724086893044,98.21162616199808,29.178449324798944,45.82595166658702,62.10613086194807,2716.781088882206,1
-23.289366848060805,-27.671588272516345,-36.574392853819674,122.0724114595082,-123.12228920378925,126.39324546952224,-101.73336171420462,-22.54112554112554,-10.01244813278007,-1.4941176470588218,1.580912863070549,3.5991902834008034,7.4705882352941195,1.4941176470588253,-2.822222222222223,6.376840321501369,52.39022521445164,29.178449324798944,45.82595166658702,62.10613086194807,2716.781088882206,1
-23.289366848060805,-27.671588272516345,-36.574392853819674,122.0724114595082,-123.12228920378925,126.39324546952224,-101.73336171420462,-6.047619047619046,6.850622406639016,16.43529411764706,-6.850622406638995,0.5141700404858236,2.4901960784313744,-0.49803921568627274,-0.5644444444444452,5.031375969699004,29.295539762636373,29.178449324798944,45.82595166658702,62.10613086194807,2716.781088882206,1
-23.421007169387575,-27.698375870069604,-36.55075835116777,122.12970900067671,-123.16206059657091,126.49785831960462,-101.55314318149567,-6.047619047619046,6.850622406639016,16.43529411764706,-6.850622406638995,0.5141700404858236,2.4901960784313744,-0.49803921568627274,-0.5644444444444452,5.031375969699004,29.295539762636373,29.22338046354165,44.84182078144775,62.12628107397137,2719.8996911144063,1
-23.421007169387575,-27.698375870069604,-36.55075835116777,122.12970900067671,-123.16206059657091,126.49785831960462,-101.55314318149567,-14.844155844155843,-8.958506224066378,24.403921568627453,-4.7427385892116085,-33.42105263157895,-19.423529411764704,0.4980392156862763,-5.08,13.921492935636401,126.92567516608078,29.22338046354165,44.84182078144775,62.12628107397137,2719.8996911144063,1
-23.421007169387575,-27.698375870069604,-36.55075835116777,122.12970900067671,-123.16206059657091,126.49785831960462,-101.55314318149567,-12.645021645021643,2.6348547717842443,11.454901960784316,8.9585062240664,-16.967611336032395,1.4941176470588253,0.4980392156862763,-2.822222222222223,7.18440937783204,37.67542046127187,29.22338046354165,44.84182078144775,62.12628107397137,2719.8996911144063,1
-23.223546687397423,-27.189411516557687,-36.196240811389224,122.30160162418224,-123.18194629296173,126.58154859967051,-101.58918688803746,-12.645021645021643,2.6348547717842443,11.454901960784316,8.9585062240664,-16.967611336032395,1.4941176470588253,0.4980392156862763,-2.822222222222223,7.18440937783204,37.67542046127187,28.869733005114778,44.19030843734289,61.89575131737639,2756.930806952737,1
-23.223546687397423,-27.189411516557687,-36.196240811389224,122.30160162418224,-123.18194629296173,126.58154859967051,-101.58918688803746,-13.744588744588743,0.5269709543568586,13.447058823529414,2.6348547717842425,32.39271255060728,6.4745098039215705,0.4980392156862763,-3.9511111111111115,9.208730746948188,115.08827410260122,28.869733005114778,44.19030843734289,61.89575131737639,2756.930806952737,1
-23.223546687397423,-27.189411516557687,-36.196240811389224,122.30160162418224,-123.18194629296173,126.58154859967051,-101.58918688803746,-18.142857142857142,-11.066390041493765,23.407843137254904,1.580912863070549,8.740890688259103,2.4901960784313744,-0.49803921568627274,-7.337777777777778,9.15811336810386,66.82594404010679,28.869733005114778,44.19030843734289,61.89575131737639,2756.930806952737,1
-22.916385937634963,-27.510862687196795,-36.243509816693035,122.6453868711933,-123.28137477491586,126.70708401976935,-101.58918688803746,-18.142857142857142,-11.066390041493765,23.407843137254904,1.580912863070549,8.740890688259103,2.4901960784313744,-0.49803921568627274,-7.337777777777778,9.15811336810386,66.82594404010679,28.8902528138416,45.83009556305383,62.133253125027714,2765.3535293574487,1
-22.916385937634963,-27.510862687196795,-36.243509816693035,122.6453868711933,-123.28137477491586,126.70708401976935,-101.58918688803746,-10.445887445887443,2.6348547717842443,-14.44313725490196,-4.7427385892116085,-2.570850202429156,11.454901960784316,1.4941176470588253,-2.822222222222223,6.3260887617849715,25.003284374798273,28.8902528138416,45.83009556305383,62.133253125027714,2765.3535293574487,1
-22.916385937634963,-27.510862687196795,-36.243509816693035,122.6453868711933,-123.28137477491586,126.70708401976935,-101.58918688803746,-11.545454545454543,15.282157676348561,17.43137254901961,-2.634854771784223,28.27935222672064,0.4980392156862763,-0.49803921568627274,1.6933333333333325,9.732825441754184,103.27131002017357,28.8902528138416,45.83009556305383,62.133253125027714,2765.3535293574487,1
-22.982206098298345,-27.644800674963086,-36.432585837908256,122.98917211820435,-123.38080325686997,126.85354200988468,-101.55314318149567,-11.545454545454543,15.282157676348561,17.43137254901961,-2.634854771784223,28.27935222672064,0.4980392156862763,-0.49803921568627274,1.6933333333333325,9.732825441754184,103.27131002017357,29.019864203723227,46.64627856602192,62.35551954369189,2776.6361604125304,1
-22.982206098298345,-27.644800674963086,-36.432585837908256,122.98917211820435,-123.38080325686997,126.85354200988468,-101.55314318149567,-11.545454545454543,1.5809128630705516,6.4745098039215705,-10.012448132780074,-14.910931174089074,-0.49803921568627274,-0.49803921568627274,-5.08,6.325041868836045,29.507759773339867,29.019864203723227,46.64627856602192,62.35551954369189,2776.6361604125304,1
-22.982206098298345,-27.644800674963086,-36.432585837908256,122.98917211820435,-123.38080325686997,126.85354200988468,-101.55314318149567,-7.147186147186145,14.228215767634868,49.30588235294118,-6.850622406638995,-12.854251012145754,5.4784313725490215,0.4980392156862763,-6.20888888888889,12.821439645458893,235.7791803911532,29.019864203723227,46.64627856602192,62.35551954369189,2776.6361604125304,1
-22.631165241426963,-27.430499894537018,-36.739834372382994,123.21836228287839,-123.46034604243326,126.9163097199341,-101.55314318149567,-7.147186147186145,14.228215767634868,49.30588235294118,-6.850622406638995,-12.854251012145754,5.4784313725490215,0.4980392156862763,-6.20888888888889,12.821439645458893,235.7791803911532,28.93383316944899,51.45864436329107,62.4628988499328,2790.0856798190944,1
-22.631165241426963,-27.430499894537018,-36.739834372382994,123.21836228287839,-123.46034604243326,126.9163097199341,-101.55314318149567,-15.943722943722943,-0.5269709543568344,-13.44705882352941,-13.174273858921152,-40.61943319838057,7.4705882352941195,-0.49803921568627274,-3.9511111111111115,11.953899792625304,169.6152120572789,28.93383316944899,51.45864436329107,62.4628988499328,2790.0856798190944,1
-22.631165241426963,-27.430499894537018,-36.739834372382994,123.21836228287839,-123.46034604243326,126.9163097199341,-101.55314318149567,-12.645021645021643,15.282157676348561,16.43529411764706,-11.066390041493767,-5.655870445344135,-20.419607843137253,-1.4941176470588218,-1.693333333333334,10.586474093673072,49.06947818955042,28.93383316944899,51.45864436329107,62.4628988499328,2790.0856798190944,1
-22.345944545218966,-27.430499894537018,-36.71619986973109,123.56214752988944,-123.53988882799658,127.0,-101.58918688803746,-12.645021645021643,15.282157676348561,16.43529411764706,-11.066390041493767,-5.655870445344135,-20.419607843137253,-1.4941176470588218,-1.693333333333334,10.586474093673072,49.06947818955042,28.83088143649569,53.09686087021119,62.56961576471918,2811.6227543513073,1
-22.345944545218966,-27.430499894537018,-36.71619986973109,123.56214752988944,-123.53988882799658,127.0,-101.58918688803746,-12.645021645021643,-1.5809128630705276,7.4705882352941195,-4.7427385892116085,-4.6275303643724754,-6.474509803921567,-2.490196078431371,-0.5644444444444452,5.074492752970969,14.935470100732191,28.83088143649569,53.09686087021119,62.56961576471918,2811.6227543513073,1
-22.345944545218966,-27.430499894537018,-36.71619986973109,123.56214752988944,-123.53988882799658,127.0,-101.58918688803746,-19.242424242424242,-10.01244813278007,-13.44705882352941,-0.5269709543568366,-13.882591093117414,-15.439215686274508,-3.48627450980392,-6.20888888888889,10.280734041396911,41.12475513514704,28.83088143649569,53.09686087021119,62.56961576471918,2811.6227543513073,1
-21.599982724367276,-26.600084370385993,-36.97617939890202,124.13512294157454,-123.75863148829563,126.93723228995057,-101.73336171420462,-19.242424242424242,-10.01244813278007,-13.44705882352941,-0.5269709543568366,-13.882591093117414,-15.439215686274508,-3.48627450980392,-6.20888888888889,10.280734041396911,41.12475513514704,28.392082164551763,61.51529811421456,62.57046223695418,2869.571422766468,1
-21.599982724367276,-26.600084370385993,-36.97617939890202,124.13512294157454,-123.75863148829563,126.93723228995057,-101.73336171420462,-12.645021645021643,3.6887966804979375,39.345098039215685,-1.5809128630705298,28.27935222672064,18.42745098039216,-3.48627450980392,-7.337777777777778,14.348835590312536,183.17385154830285,28.392082164551763,61.51529811421456,62.57046223695418,2869.571422766468,1
-21.599982724367276,-26.600084370385993,-36.97617939890202,124.13512294157454,-123.75863148829563,126.93723228995057,-101.73336171420462,-17.043290043290042,-12.120331950207458,-36.35686274509804,-17.390041493775925,-2.570850202429156,15.439215686274512,-0.49803921568627274,-2.822222222222223,13.030106694872954,136.64762616692758,28.392082164551763,61.51529811421456,62.57046223695418,2869.571422766468,1
-21.84132331346635,-25.742881248681712,-36.219875314041126,124.59350327092261,-123.91771705942224,126.81169686985173,-102.02171136653895,-17.043290043290042,-12.120331950207458,-36.35686274509804,-17.390041493775925,-2.570850202429156,15.439215686274512,-0.49803921568627274,-2.822222222222223,13.030106694872954,136.64762616692758,27.93469329206306,55.28871943344186,62.18541994454849,2948.518499515136,1
-21.84132331346635,-25.742881248681712,-36.219875314041126,124.59350327092261,-123.91771705942224,126.81169686985173,-102.02171136653895,-10.445887445887443,6.850622406639016,-5.478431372549018,-4.7427385892116085,-39.59109311740891,-20.419607843137253,-1.4941176470588218,-2.822222222222223,11.480590080514286,164.10502103701552,27.93469329206306,55.28871943344186,62.18541994454849,2948.518499515136,1
-21.84132331346635,-25.742881248681712,-36.219875314041126,124.59350327092261,-123.91771705942224,126.81169686985173,-102.02171136653895,-6.047619047619046,16.336099585062254,62.254901960784316,4.742738589211628,-10.797570850202435,21.415686274509806,5.4784313725490215,0.5644444444444439,15.95468651554787,395.8204316433403,27.93469329206306,55.28871943344186,62.18541994454849,2948.518499515136,1
-22.850565776971578,-25.475005273149126,-35.9835302875221,124.5362057297541,-123.83817427385893,126.7489291598023,-102.49027955158223,-6.047619047619046,16.336099585062254,62.254901960784316,4.742738589211628,-10.797570850202435,21.415686274509806,5.4784313725490215,0.5644444444444439,15.95468651554787,395.8204316433403,28.103033779214268,48.298589580363114,61.99824709680845,2960.8544769764426,1
-22.850565776971578,-25.475005273149126,-35.9835302875221,124.5362057297541,-123.83817427385893,126.7489291598023,-102.49027955158223,-22.54112554112554,-11.066390041493765,1.4941176470588253,-19.49792531120331,20.05263157894736,10.458823529411767,-2.490196078431371,-5.08,11.585151215958991,68.9636397131557,28.103033779214268,48.298589580363114,61.99824709680845,2960.8544769764426,1
-22.850565776971578,-25.475005273149126,-35.9835302875221,124.5362057297541,-123.83817427385893,126.7489291598023,-102.49027955158223,-11.545454545454543,-2.6348547717842203,4.482352941176472,-7.904564315352688,-26.22267206477733,1.4941176470588253,0.4980392156862763,1.6933333333333325,7.059423604327961,73.87232154712491,28.103033779214268,48.298589580363114,61.99824709680845,2960.8544769764426,1
-22.762805562753734,-26.814385150812065,-36.52712384851586,124.24971802391156,-123.65920300634153,126.79077429983526,-102.81467291045834,-11.545454545454543,-2.6348547717842203,4.482352941176472,-7.904564315352688,-26.22267206477733,1.4941176470588253,0.4980392156862763,1.6933333333333325,7.059423604327961,73.87232154712491,28.701438187360555,50.03484134000159,62.53040900774649,2880.5391523271237,1
-22.762805562753734,-26.814385150812065,-36.52712384851586,124.24971802391156,-123.65920300634153,126.79077429983526,-102.81467291045834,-2.748917748917746,35.30705394190873,33.3686274509804,-33.19917012448132,31.36437246963562,29.3843137254902,7.4705882352941195,2.822222222222221,21.958158239866293,217.63506797895246,28.701438187360555,50.03484134000159,62.53040900774649,2880.5391523271237,1
-22.762805562753734,-26.814385150812065,-36.52712384851586,124.24971802391156,-123.65920300634153,126.79077429983526,-102.81467291045834,-11.545454545454543,-0.5269709543568344,-5.478431372549018,-34.25311203319501,-13.882591093117414,-4.482352941176469,-0.49803921568627274,0.5644444444444439,8.9039245749975,130.85851350735393,28.701438187360555,50.03484134000159,62.53040900774649,2880.5391523271237,1
-19.537617690247902,-26.358995992406665,-37.47250395459198,124.47890818858559,-123.7984028810773,126.45601317957167,-103.10302256279267,-11.545454545454543,-0.5269709543568344,-5.478431372549018,-34.25311203319501,-13.882591093117414,-4.482352941176469,-0.49803921568627274,0.5644444444444439,8.9039245749975,130.85851350735393,27.78970587908218,81.95023441361276,62.770136045194754,2886.8569343900867,1
-19.537617690247902,-26.358995992406665,-37.47250395459198,124.47890818858559,-123.7984028810773,126.45601317957167,-103.10302256279267,-24.740259740259738,-15.282157676348536,-32.372549019607845,-19.49792531120331,15.93927125506072,-4.482352941176469,-6.474509803921567,-11.853333333333333,16.330294885113943,85.2743161134441,27.78970587908218,81.95023441361276,62.770136045194754,2886.8569343900867,1
-19.537617690247902,-26.358995992406665,-37.47250395459198,124.47890818858559,-123.7984028810773,126.45601317957167,-103.10302256279267,-18.142857142857142,4.742738589211631,-7.470588235294116,0.5269709543568561,36.50607287449392,-2.490196078431371,-1.4941176470588218,-10.724444444444444,10.262248245768538,145.91069122137972,27.78970587908218,81.95023441361276,62.770136045194754,2886.8569343900867,1
-18.967176297831905,-24.403501371018773,-39.03238112961757,124.30701556508006,-123.8978313630314,125.68187808896211,-103.4274159216688,-18.142857142857142,4.742738589211631,-7.470588235294116,0.5269709543568561,36.50607287449392,-2.490196078431371,-1.4941176470588218,-10.724444444444444,10.262248245768538,145.91069122137972,27.46768626615608,107.69503303906941,62.58096602190546,2911.079924902719,1
-18.967176297831905,-24.403501371018773,-39.03238112961757,124.30701556508006,-123.8978313630314,125.68187808896211,-103.4274159216688,-11.545454545454543,6.850622406639016,-9.462745098039214,13.174273858921172,8.740890688259103,5.4784313725490215,-5.478431372549018,-2.822222222222223,7.944133945579163,11.836285751507623,27.46768626615608,107.69503303906941,62.58096602190546,2911.079924902719,1
-18.967176297831905,-24.403501371018773,-39.03238112961757,124.30701556508006,-123.8978313630314,125.68187808896211,-103.4274159216688,-19.242424242424242,-31.091286307053927,-10.458823529411763,98.5435684647303,6.684210526315782,-31.376470588235293,-5.478431372549018,-10.724444444444444,26.699957434395596,946.8925043181308,27.46768626615608,107.69503303906941,62.58096602190546,2911.079924902719,1
-21.731623045694043,-23.97489981016663,-39.22145715083279,122.75998195353031,-123.57966022077821,124.65667215815486,-103.31928480204341,-19.242424242424242,-31.091286307053927,-10.458823529411763,98.5435684647303,6.684210526315782,-31.376470588235293,-5.478431372549018,-10.724444444444444,26.699957434395596,946.8925043181308,28.30932666889782,90.56401640158639,61.985446304843244,2828.2725151707073,1
-21.731623045694043,-23.97489981016663,-39.22145715083279,122.75998195353031,-123.57966022077821,124.65667215815486,-103.31928480204341,-23.64069264069264,-34.25311203319501,-75.20392156862745,-91.16597510373444,-66.32793522267207,1.4941176470588253,7.4705882352941195,-2.822222222222223,37.7973205841871,1247.9036181362785,28.30932666889782,90.56401640158639,61.985446304843244,2828.2725151707073,1
-21.731623045694043,-23.97489981016663,-39.22145715083279,122.75998195353031,-123.57966022077821,124.65667215815486,-103.31928480204341,-8.246753246753244,5.7966804979253235,-40.34117647058824,-73.24896265560166,-11.825910931174095,46.31764705882353,1.4941176470588253,-15.24,25.313906063490613,641.1067653559966,28.30932666889782,90.56401640158639,61.985446304843244,2828.2725151707073,1
-27.30439664852725,-23.037333895802572,-39.835954219782266,118.29077374238659,-122.36663274093792,123.35947281713345,-102.74258549737476,-8.246753246753244,5.7966804979253235,-40.34117647058824,-73.24896265560166,-11.825910931174095,46.31764705882353,1.4941176470588253,-15.24,25.313906063490613,641.1067653559966,30.059228254704028,76.24023408109882,60.38802061932381,2585.0950256200736,1
-27.30439664852725,-23.037333895802572,-39.835954219782266,118.29077374238659,-122.36663274093792,123.35947281713345,-102.74258549737476,0.5497835497835517,17.390041493775946,-74.2078431372549,17.390041493775943,-32.39271255060729,-0.49803921568627274,44.325490196078434,19.755555555555553,25.813688399064734,597.9611695873407,30.059228254704028,76.24023408109882,60.38802061932381,2585.0950256200736,1
-27.30439664852725,-23.037333895802572,-39.835954219782266,118.29077374238659,-122.36663274093792,123.35947281713345,-102.74258549737476,-14.844155844155843,16.336099585062254,10.458823529411767,42.68464730290457,-39.59109311740891,-38.34901960784313,31.376470588235296,-50.23555555555556,30.484483141322166,218.62134655524764,30.059228254704028,76.24023408109882,60.38802061932381,2585.0950256200736,1
-35.81713742765828,-21.93904239611896,-42.69572904066251,110.72749830814337,-120.05989195960231,121.9158154859967,-101.4089683553285,-14.844155844155843,16.336099585062254,10.458823529411767,42.68464730290457,-39.59109311740891,-38.34901960784313,31.376470588235296,-50.23555555555556,30.484483141322166,218.62134655524764,33.48396962147992,111.79276412378354,58.45408991497495,2157.0919288941714,1
-35.81713742765828,-21.93904239611896,-42.69572904066251,110.72749830814337,-120.05989195960231,121.9158154859967,-101.4089683553285,-14.844155844155843,-20.551867219917,3.4862745098039234,10.012448132780094,31.36437246963562,30.380392156862747,-23.4078431372549,-15.24,18.660919183801266,93.73842951460627,33.48396962147992,111.79276412378354,58.45408991497495,2157.0919288941714,1
-35.81713742765828,-21.93904239611896,-42.69572904066251,110.72749830814337,-120.05989195960231,121.9158154859967,-101.4089683553285,-13.744588744588743,-1.5809128630705276,-29.384313725490195,40.57676348547719,6.684210526315782,-20.419607843137253,34.36470588235294,28.786666666666665,21.94272121713741,188.67210871354408,33.48396962147992,111.79276412378354,58.45408991497495,2157.0919288941714,1
-44.32987820678932,-16.420797300147647,-44.279240718340006,99.95556056846374,-116.50035230564472,120.03278418451401,-100.29161345253299,-13.744588744588743,-1.5809128630705276,-29.384313725490195,40.57676348547719,6.684210526315782,-20.419607843137253,34.36470588235294,28.786666666666665,21.94272121713741,188.67210871354408,35.00997207509232,259.1687051488887,53.55186619565046,1809.000356005253,1
-44.32987820678932,-16.420797300147647,-44.279240718340006,99.95556056846374,-116.50035230564472,120.03278418451401,-100.29161345253299,-15.943722943722943,-2.6348547717842203,36.35686274509804,34.25311203319503,-23.137651821862352,1.4941176470588253,-36.35686274509804,-14.11111111111111,20.536036977366322,205.84852007743555,35.00997207509232,259.1687051488887,53.55186619565046,1809.000356005253,1
-44.32987820678932,-16.420797300147647,-44.279240718340006,99.95556056846374,-116.50035230564472,120.03278418451401,-100.29161345253299,-18.142857142857142,-18.443983402489614,81.18039215686275,65.87136929460583,11.825910931174082,-4.482352941176469,7.4705882352941195,6.208888888888888,26.70329287416861,878.344856716289,35.00997207509232,259.1687051488887,53.55186619565046,1809.000356005253,1
-47.46730586507731,-12.32229487449905,-47.989857634688754,88.20956462891945,-112.5629844202615,117.54299835255354,-98.95799631048672,-18.142857142857142,-18.443983402489614,81.18039215686275,65.87136929460583,11.825910931174082,-4.482352941176469,7.4705882352941195,6.208888888888888,26.70329287416861,878.344856716289,35.92648612475504,417.93664852197696,49.50723904603575,1441.4462624556681,1
-47.46730586507731,-12.32229487449905,-47.989857634688754,88.20956462891945,-112.5629844202615,117.54299835255354,-98.95799631048672,-3.848484848484846,27.929460580912878,91.14117647058823,127.0,-34.44939271255061,-16.435294117647057,84.1686274509804,12.982222222222221,49.74433230042328,2020.6237680142003,35.92648612475504,417.93664852197696,49.50723904603575,1441.4462624556681,1
-47.46730586507731,-12.32229487449905,-47.989857634688754,88.20956462891945,-112.5629844202615,117.54299835255354,-98.95799631048672,-10.445887445887443,15.282157676348561,43.32941176470588,-26.87551867219916,-22.109311740890693,14.443137254901963,-20.419607843137253,-0.5644444444444452,19.183684605314426,158.99816524012365,35.92648612475504,417.93664852197696,49.50723904603575,1441.4462624556681,1
-50.648613630474216,-10.098924277578568,-54.985670419651996,75.37491540717338,-108.38698817818837,114.2163097199341,-96.2907620263942,-10.445887445887443,15.282157676348561,43.32941176470588,-26.87551867219916,-22.109311740890693,14.443137254901963,-20.419607843137253,-0.5644444444444452,19.183684605314426,158.99816524012365,38.57773610923493,612.9845579053059,46.81983670146798,1115.2493847225085,1
-50.648613630474216,-10.098924277578568,-54.985670419651996,75.37491540717338,-108.38698817818837,114.2163097199341,-96.2907620263942,-20.34199134199134,-24.767634854771774,-51.29803921568627,30.03734439834026,-53.98785425101215,-11.454901960784312,-23.4078431372549,-11.853333333333333,28.393617811646795,263.67354163911017,38.57773610923493,612.9845579053059,46.81983670146798,1115.2493847225085,1
-50.648613630474216,-10.098924277578568,-54.985670419651996,75.37491540717338,-108.38698817818837,114.2163097199341,-96.2907620263942,-3.848484848484846,31.091286307053956,46.31764705882353,18.443983402489636,-29.307692307692314,-43.32941176470588,-10.458823529411763,1.6933333333333325,23.061332818999407,294.43091731985095,38.57773610923493,612.9845579053059,46.81983670146798,1115.2493847225085,1
-59.05165414183294,-6.5093862054418885,-60.8470270773239,61.680803067899774,-103.7735066155171,110.68039538714991,-92.65034766567334,-3.848484848484846,31.091286307053956,46.31764705882353,18.443983402489636,-29.307692307692314,-43.32941176470588,-10.458823529411763,1.6933333333333325,23.061332818999407,294.43091731985095,42.136022474866245,952.7487498997705,43.012405450221856,999.5266060891975,1
-59.05165414183294,-6.5093862054418885,-60.8470270773239,61.680803067899774,-103.7735066155171,110.68039538714991,-92.65034766567334,-13.744588744588743,-2.6348547717842203,-37.35294117647059,-85.89626556016597,92.03643724696354,-0.49803921568627274,-16.435294117647057,-7.337777777777778,31.99202482638552,1368.0379015470555,42.136022474866245,952.7487498997705,43.012405450221856,999.5266060891975,1
-59.05165414183294,-6.5093862054418885,-60.8470270773239,61.680803067899774,-103.7735066155171,110.68039538714991,-92.65034766567334,-23.64069264069264,-20.551867219917,27.3921568627451,-42.68464730290456,102.31983805668015,40.34117647058824,-2.490196078431371,2.822222222222221,32.78034960677266,1009.7265998203569,42.136022474866245,952.7487498997705,43.012405450221856,999.5266060891975,1
-68.1128962598255,0.7232651339379892,-61.6269656648367,45.408301376043255,-97.72825491270649,106.47495881383855,-89.40641407691216,-23.64069264069264,-20.551867219917,27.3921568627451,-42.68464730290456,102.31983805668015,40.34117647058824,-2.490196078431371,2.822222222222221,32.78034960677266,1009.7265998203569,43.487709019533405,1444.67261529529,35.919510724939315,994.8430456047065,1
-68.1128962598255,0.7232651339379892,-61.6269656648367,45.408301376043255,-97.72825491270649,106.47495881383855,-89.40641407691216,-10.445887445887443,6.850622406639016,-65.24313725490197,-36.360995850622395,126.99999999999997,-8.466666666666665,13.447058823529414,5.079999999999999,34.11179605603086,1833.3191091576296,43.487709019533405,1444.67261529529,35.919510724939315,994.8430456047065,1
-68.1128962598255,0.7232651339379892,-61.6269656648367,45.408301376043255,-97.72825491270649,106.47495881383855,-89.40641407691216,3.8484848484848513,47.95435684647304,-57.27450980392157,-39.52282157676348,107.46153846153845,-2.490196078431371,-16.435294117647057,-7.337777777777778,35.2906224388797,1295.9392883352807,43.487709019533405,1444.67261529529,35.919510724939315,994.8430456047065,1
-74.25611125507471,7.286226534486396,-62.123290220526656,27.98984886081655,-90.68871839035467,101.66276771004942,-86.59500496665247,3.8484848484848513,47.95435684647304,-57.27450980392157,-39.52282157676348,107.46153846153845,-2.490196078431371,-16.435294117647057,-7.337777777777778,35.2906224388797,1295.9392883352807,47.88854267002926,1935.6732024346156,32.46645520527653,766.8058916991533,1
-74.25611125507471,7.286226534486396,-62.123290220526656,27.98984886081655,-90.68871839035467,101.66276771004942,-86.59500496665247,-8.246753246753244,41.63070539419088,17.43137254901961,19.49792531120333,63.242914979757074,-3.48627450980392,-4.482352941176469,-5.08,20.387287366488067,459.67611639833996,47.88854267002926,1935.6732024346156,32.46645520527653,766.8058916991533,1
-74.25611125507471,7.286226534486396,-62.123290220526656,27.98984886081655,-90.68871839035467,101.66276771004942,-86.59500496665247,4.948051948051951,73.24896265560167,67.23529411764706,41.63070539419088,2.5708502024291437,-5.478431372549018,-2.490196078431371,7.337777777777777,25.61753369333486,927.1709192808196,47.88854267002926,1935.6732024346156,32.46645520527653,766.8058916991533,1
-82.24229074889868,11.250790972368698,-65.81027263422351,9.253552898714133,-82.43615438816255,96.43212520593082,-83.27898396480771,4.948051948051951,73.24896265560167,67.23529411764706,41.63070539419088,2.5708502024291437,-5.478431372549018,-2.490196078431371,7.337777777777777,25.61753369333486,927.1709192808196,53.10111811849696,2491.562512206641,28.77153883510211,1029.8980910623472,1
-82.24229074889868,11.250790972368698,-65.81027263422351,9.253552898714133,-82.43615438816255,96.43212520593082,-83.27898396480771,-19.242424242424242,-8.958506224066378,-16.435294117647057,-97.48962655601659,-78.66801619433198,-5.478431372549018,-22.41176470588235,-7.337777777777778,32.002730148836925,1258.039167089471,53.10111811849696,2491.562512206641,28.77153883510211,1029.8980910623472,1
-82.24229074889868,11.250790972368698,-65.81027263422351,9.253552898714133,-82.43615438816255,96.43212520593082,-83.27898396480771,-31.337662337662337,-45.84647302904563,-57.27450980392157,-18.443983402489618,-14.910931174089074,39.345098039215685,-2.490196078431371,-7.337777777777778,27.123328955329132,378.5021493557433,53.10111811849696,2491.562512206641,28.77153883510211,1029.8980910623472,1
-84.74345685410728,16.179708922168317,-72.02614683167396,-9.138957816377228,-73.8455335473264,90.25996705107084,-79.06187029941819,-31.337662337662337,-45.84647302904563,-57.27450980392157,-18.443983402489618,-14.910931174089074,39.345098039215685,-2.490196078431371,-7.337777777777778,27.123328955329132,378.5021493557433,57.64977086931651,3021.2480589633196,32.448271190073164,1187.1992242599374,1
-84.74345685410728,16.179708922168317,-72.02614683167396,-9.138957816377228,-73.8455335473264,90.25996705107084,-79.06187029941819,-22.54112554112554,-17.39004149377592,31.376470588235296,44.79253112033196,11.825910931174082,-6.474509803921567,-7.470588235294116,-12.982222222222223,19.35667499201009,172.86313279249666,57.64977086931651,3021.2480589633196,32.448271190073164,1187.1992242599374,1
-84.74345685410728,16.179708922168317,-72.02614683167396,-9.138957816377228,-73.8455335473264,90.25996705107084,-79.06187029941819,-12.645021645021643,-7.904564315352685,3.4862745098039234,-35.307053941908705,-31.364372469635633,47.31372549019608,23.407843137254904,5.079999999999999,20.813606938646696,258.78814393933095,57.64977086931651,3021.2480589633196,32.448271190073164,1187.1992242599374,1
-94.6823011142783,23.78738662729382,-76.5167023355355,-28.734716896007285,-63.72371408439679,83.04168039538715,-74.23201362281822,-12.645021645021643,-7.904564315352685,3.4862745098039234,-35.307053941908705,-31.364372469635633,47.31372549019608,23.407843137254904,5.079999999999999,20.813606938646696,258.78814393933095,64.99546335903587,4070.9943592065074,43.01293528627887,847.9958240650728,1
-94.6823011142783,23.78738662729382,-76.5167023355355,-28.734716896007285,-63.72371408439679,83.04168039538715,-74.23201362281822,-12.645021645021643,-10.01244813278007,12.450980392156865,-14.228215767634845,-8.740890688259114,-8.466666666666665,0.4980392156862763,-3.9511111111111115,8.874171702414573,21.650610854383757,64.99546335903587,4070.9943592065074,43.01293528627887,847.9958240650728,1
-94.6823011142783,23.78738662729382,-76.5167023355355,-28.734716896007285,-63.72371408439679,83.04168039538715,-74.23201362281822,-9.346320346320343,26.875518672199185,46.31764705882353,-10.012448132780074,-112.60323886639677,-8.466666666666665,-20.419607843137253,0.5644444444444439,29.325736503846034,1334.8118588992413,64.99546335903587,4070.9943592065074,43.01293528627887,847.9958240650728,1
-110.23779908439147,33.59164733178655,-77.3439099283521,-49.99210466952411,-51.01675409065999,75.02833607907743,-69.97885625088689,-9.346320346320343,26.875518672199185,46.31764705882353,-10.012448132780074,-112.60323886639677,-8.466666666666665,-20.419607843137253,0.5644444444444439,29.325736503846034,1334.8118588992413,73.72445211484337,5679.269244135254,53.64255397655425,488.559455687105,1
-110.23779908439147,33.59164733178655,-77.3439099283521,-49.99210466952411,-51.01675409065999,75.02833607907743,-69.97885625088689,-22.54112554112554,-19.497925311203307,-10.458823529411763,37.41493775933611,22.109311740890682,-17.431372549019606,-3.48627450980392,-6.20888888888889,17.393582478709977,117.23158907111437,73.72445211484337,5679.269244135254,53.64255397655425,488.559455687105,1
-110.23779908439147,33.59164733178655,-77.3439099283521,-49.99210466952411,-51.01675409065999,75.02833607907743,-69.97885625088689,-18.142857142857142,-26.87551867219916,4.482352941176472,-15.282157676348538,105.40485829959513,-12.450980392156861,-7.470588235294116,-7.337777777777778,24.68088639217565,1115.2553018132883,73.72445211484337,5679.269244135254,53.64255397655425,488.559455687105,1
-120.63738446920618,40.315334317654504,-76.4694333302317,-70.84840965486137,-36.30133876144994,66.6174629324547,-66.4105293032496,-18.142857142857142,-26.87551867219916,4.482352941176472,-15.282157676348538,105.40485829959513,-12.450980392156861,-7.470588235294116,-7.337777777777778,24.68088639217565,1115.2553018132883,79.14071737236412,6915.877924544643,62.5443924342492,378.4972453529765,1
-120.63738446920618,40.315334317654504,-76.4694333302317,-70.84840965486137,-36.30133876144994,66.6174629324547,-66.4105293032496,-7.147186147186145,40.576763485477194,13.447058823529414,4.742738589211628,25.19433198380566,3.4862745098039234,-9.462745098039214,0.5644444444444439,13.077692885187204,181.34788170042643,79.14071737236412,6915.877924544643,62.5443924342492,378.4972453529765,1
-120.63738446920618,40.315334317654504,-76.4694333302317,-70.84840965486137,-36.30133876144994,66.6174629324547,-66.4105293032496,-14.844155844155843,-13.17427385892115,-3.48627450980392,-19.49792531120331,-10.797570850202435,-5.478431372549018,-0.49803921568627274,-10.724444444444444,9.812639425870799,39.68471629834083,79.14071737236412,6915.877924544643,62.5443924342492,378.4972453529765,1
-126.82447957156431,49.2891794979962,-73.82236903321856,-89.6420031581323,-20.213810381273007,57.557990115321246,-64.13977579111678,-14.844155844155843,-13.17427385892115,-3.48627450980392,-19.49792531120331,-10.797570850202435,-5.478431372549018,-0.49803921568627274,-10.724444444444444,9.812639425870799,39.68471629834083,83.31200936759303,8163.616335690345,70.91785056311569,413.4147649938864,1
-126.82447957156431,49.2891794979962,-73.82236903321856,-89.6420031581323,-20.213810381273007,57.557990115321246,-64.13977579111678,0.5497835497835517,24.767634854771796,87.15686274509804,24.767634854771796,3.5991902834008034,-5.478431372549018,-1.4941176470588218,12.982222222222221,20.099484691207007,829.3308630959764,83.31200936759303,8163.616335690345,70.91785056311569,413.4147649938864,1
-126.82447957156431,49.2891794979962,-73.82236903321856,-89.6420031581323,-20.213810381273007,57.557990115321246,-64.13977579111678,-6.047619047619046,19.497925311203332,-34.364705882352936,1.580912863070549,-0.514170040485836,-49.305882352941175,-11.454901960784312,-5.08,15.980764682307147,306.4931355944597,83.31200936759303,8163.616335690345,70.91785056311569,413.4147649938864,1
-127.0,59.95064332419321,-73.68056201730715,-104.99774419129267,-3.788225162452065,47.26408566721581,-62.55385270327798,-6.047619047619046,19.497925311203332,-34.364705882352936,1.580912863070549,-0.514170040485836,-49.305882352941175,-11.454901960784312,-5.08,15.980764682307147,306.4931355944597,86.87706844716679,9275.13409119036,79.54298317759768,533.0863105281248,1
-127.0,59.95064332419321,-73.68056201730715,-104.99774419129267,-3.788225162452065,47.26408566721581,-62.55385270327798,-8.246753246753244,3.6887966804979375,21.415686274509806,2.6348547717842425,-11.825910931174095,34.36470588235294,7.4705882352941195,15.239999999999998,13.110912002795798,111.55351404186729,86.87706844716679,9275.13409119036,79.54298317759768,533.0863105281248,1
-127.0,59.95064332419321,-73.68056201730715,-104.99774419129267,-3.788225162452065,47.26408566721581,-62.55385270327798,-18.142857142857142,-2.6348547717842203,-37.35294117647059,-12.12033195020746,5.655870445344123,-6.474509803921567,-5.478431372549018,-15.24,12.887474582891766,126.53333358464013,86.87706844716679,9275.13409119036,79.54298317759768,533.0863105281248,1
-126.73671935734646,69.969204809112,-78.52563506094725,-116.74374013083695,12.955531198622083,35.48467874794069,-60.102880658436206,-18.142857142857142,-2.6348547717842203,-37.35294117647059,-12.12033195020746,5.655870445344123,-6.474509803921567,-5.478431372549018,-15.24,12.887474582891766,126.53333358464013,91.7438530758019,10511.374453208258,88.41286000029874,620.2822013918243,1
-126.73671935734646,69.969204809112,-78.52563506094725,-116.74374013083695,12.955531198622083,35.48467874794069,-60.102880658436206,-10.445887445887443,-6.850622406638992,9.462745098039218,-30.03734439834024,-14.910931174089074,-10.458823529411763,0.4980392156862763,8.466666666666665,11.391382491844958,73.33996859770994,91.7438530758019,10511.374453208258,88.41286000029874,620.2822013918243,1
-126.73671935734646,69.969204809112,-78.52563506094725,-116.74374013083695,12.955531198622083,35.48467874794069,-60.102880658436206,-18.142857142857142,-15.282157676348536,22.411764705882355,-8.95850622406638,5.655870445344123,16.43529411764706,-0.49803921568627274,-7.337777777777778,11.840283413201206,54.27284830206317,91.7438530758019,10511.374453208258,88.41286000029874,620.2822013918243,1
-124.58659410900924,82.69331364690994,-87.57764957662604,-124.59350327092272,30.116887183903536,21.696705107084014,-55.669504753795934,-18.142857142857142,-15.282157676348536,22.411764705882355,-8.95850622406638,5.655870445344123,16.43529411764706,-0.49803921568627274,-7.337777777777778,11.840283413201206,54.27284830206317,98.28585244418173,12221.137175295687,98.2881554981529,524.9426754533536,1
-124.58659410900924,82.69331364690994,-87.57764957662604,-124.59350327092272,30.116887183903536,21.696705107084014,-55.669504753795934,-17.043290043290042,-12.120331950207458,-65.24313725490197,-10.012448132780074,-14.910931174089074,5.4784313725490215,-8.466666666666665,-12.982222222222223,18.282182352088316,373.27976331002816,98.28585244418173,12221.137175295687,98.2881554981529,524.9426754533536,1
-124.58659410900924,82.69331364690994,-87.57764957662604,-124.59350327092272,30.116887183903536,21.696705107084014,-55.669504753795934,-14.844155844155843,-1.5809128630705276,-4.482352941176469,-13.174273858921152,-16.967611336032395,-2.490196078431371,2.4901960784313744,-2.822222222222223,7.3564901528051685,41.689224942729865,98.28585244418173,12221.137175295687,98.2881554981529,524.9426754533536,1
-109.97451844173793,93.9708922168319,-93.06085419186749,-127.0,45.9061301182181,5.983855024711694,-49.433943522066116,-14.844155844155843,-1.5809128630705276,-4.482352941176469,-13.174273858921152,-16.967611336032395,-2.490196078431371,2.4901960784313744,-2.822222222222223,7.3564901528051685,41.689224942729865,99.00208828347911,12810.112788623012,104.6772488028998,373.93595805744917,1
-109.97451844173793,93.9708922168319,-93.06085419186749,-127.0,45.9061301182181,5.983855024711694,-49.433943522066116,-25.839826839826838,-38.46887966804978,-35.36078431372549,-25.821576763485467,-9.769230769230775,-3.48627450980392,8.466666666666669,-12.982222222222223,20.024432719126395,172.09736001867967,99.00208828347911,12810.112788623012,104.6772488028998,373.93595805744917,1
-109.97451844173793,93.9708922168319,-93.06085419186749,-127.0,45.9061301182181,5.983855024711694,-49.433943522066116,-3.848484848484846,12.12033195020748,-19.423529411764704,-22.65975103734439,-0.514170040485836,11.454901960784316,9.462745098039218,12.982222222222221,11.558267071166627,53.323368709768246,99.00208828347911,12810.112788623012,104.6772488028998,373.93595805744917,1
-92.88321672281248,102.30183505589538,-97.10235414534289,-123.7913376945636,59.36874657480622,-11.088962108731465,-41.36015325670497,-3.848484848484846,12.12033195020748,-19.423529411764704,-22.65975103734439,-0.514170040485836,11.454901960784316,9.462745098039218,12.982222222222221,11.558267071166627,53.323368709768246,97.42913530801691,12979.506038241716,107.73184229860061,200.18919471451693,1
-92.88321672281248,102.30183505589538,-97.10235414534289,-123.7913376945636,59.36874657480622,-11.088962108731465,-41.36015325670497,-18.142857142857142,7.90456431535271,15.439215686274512,6.850622406639014,48.84615384615384,14.443137254901963,2.4901960784313744,-11.853333333333333,15.746260007992987,204.9488176741397,97.42913530801691,12979.506038241716,107.73184229860061,200.18919471451693,1
-92.88321672281248,102.30183505589538,-97.10235414534289,-123.7913376945636,59.36874657480622,-11.088962108731465,-41.36015325670497,-17.043290043290042,-20.551867219917,-32.372549019607845,-2.634854771784223,-20.052631578947373,6.4745098039215705,-3.48627450980392,-1.693333333333334,13.038663785075663,123.8245918851038,97.42913530801691,12979.506038241716,107.73184229860061,200.18919471451693,1
-87.59566381618727,107.12360261548197,-107.07611426444589,-116.17076471915186,72.45353479996866,-28.747611202635923,-30.330779054916974,-17.043290043290042,-20.551867219917,-32.372549019607845,-2.634854771784223,-20.052631578947373,6.4745098039215705,-3.48627450980392,-1.693333333333334,13.038663785075663,123.8245918851038,100.59846023203836,14029.433230132618,110.12349386635991,27.427677361141374,1
-87.59566381618727,107.12360261548197,-107.07611426444589,-116.17076471915186,72.45353479996866,-28.747611202635923,-30.330779054916974,-11.545454545454543,15.282157676348561,-11.454901960784312,-15.282157676348538,-21.080971659919033,-17.431372549019606,-6.474509803921567,-26.52888888888889,15.63505184508563,38.56050777755469,100.59846023203836,14029.433230132618,110.12349386635991,27.427677361141374,1
-87.59566381618727,107.12360261548197,-107.07611426444589,-116.17076471915186,72.45353479996866,-28.747611202635923,-30.330779054916974,-13.744588744588743,-17.39004149377592,-95.12549019607843,-22.65975103734439,-7.712550607287455,-7.470588235294116,-13.44705882352941,-12.982222222222223,23.816536420015083,854.3551169923475,100.59846023203836,14029.433230132618,110.12349386635991,27.427677361141374,1
-88.07834499438542,117.75827884412571,-115.72634223504234,-103.10692533273186,86.4928364518907,-47.53607907742999,-16.92252022137078,-13.744588744588743,-17.39004149377592,-95.12549019607843,-22.65975103734439,-7.712550607287455,-7.470588235294116,-13.44705882352941,-12.982222222222223,23.816536420015083,854.3551169923475,107.18765535785116,16274.699290856464,112.19718213729998,63.006768175580916,1
-88.07834499438542,117.75827884412571,-115.72634223504234,-103.10692533273186,86.4928364518907,-47.53607907742999,-16.92252022137078,-9.346320346320343,16.336099585062254,39.345098039215685,19.49792531120333,-9.769230769230775,-12.450980392156861,-2.490196078431371,2.822222222222221,14.007259092980355,139.63314625311762,107.18765535785116,16274.699290856464,112.19718213729998,63.006768175580916,1
-88.07834499438542,117.75827884412571,-115.72634223504234,-103.10692533273186,86.4928364518907,-47.53607907742999,-16.92252022137078,-21.441558441558442,-12.120331950207458,18.42745098039216,-12.12033195020746,1.5425101214574832,-39.345098039215685,-0.49803921568627274,-8.466666666666667,14.245248420673953,156.00685933790714,107.18765535785116,16274.699290856464,112.19718213729998,63.006768175580916,1
-81.47438887449252,127.00000000000001,-113.64650600167488,-83.56846379427031,100.05488139043293,-67.14052718286658,-3.00964949623952,-21.441558441558442,-12.120331950207458,18.42745098039216,-12.12033195020746,1.5425101214574832,-39.345098039215685,-0.49803921568627274,-8.466666666666667,14.245248420673953,156.00685933790714,107.37363162538914,17067.8927979754,108.0716565986484,494.88379369722094,1
-81.47438887449252,127.00000000000001,-113.64650600167488,-83.56846379427031,100.05488139043293,-67.14052718286658,-3.00964949623952,-33.53679653679654,-47.95435684647302,-78.1921568627451,-13.174273858921152,-35.47773279352227,-0.49803921568627274,-1.4941176470588218,-7.337777777777778,27.20815644237262,729.233524373514,107.37363162538914,17067.8927979754,108.0716565986484,494.88379369722094,1
-81.47438887449252,127.00000000000001,-113.64650600167488,-83.56846379427031,100.05488139043293,-67.14052718286658,-3.00964949623952,-9.346320346320343,4.742738589211631,-19.423529411764704,10.012448132780094,-33.42105263157895,-21.415686274509802,-3.48627450980392,9.595555555555555,13.930450681440625,102.10534432100026,107.37363162538914,17067.8927979754,108.0716565986484,494.88379369722094,1
-53.28142005700958,126.83927441468045,-118.42067553735926,-58.815926009474424,110.09715806779926,-86.49390444810544,15.697034198949924,-9.346320346320343,4.742738589211631,-19.423529411764704,10.012448132780094,-33.42105263157895,-21.415686274509802,-3.48627450980392,9.595555555555555,13.930450681440625,102.10534432100026,99.51379000301642,16139.838371995862,101.35862532050471,1375.129150265861,1
-53.28142005700958,126.83927441468045,-118.42067553735926,-58.815926009474424,110.09715806779926,-86.49390444810544,15.697034198949924,-14.844155844155843,14.228215767634868,47.31372549019608,-14.228215767634845,-22.109311740890693,-40.34117647058824,5.4784313725490215,-10.724444444444444,21.15845961226175,220.51966123871458,99.51379000301642,16139.838371995862,101.35862532050471,1375.129150265861,1
