Gyro 0,Gyro 1,Gyro 2,Orientation 0,Orientation 1,Orientation 2,Orientation 3,Sensor 0,Sensor 1,Sensor 2,Sensor 3,Sensor 4,Sensor 5,Sensor 6,Sensor 7,Sensor Mean,Sensor Variance,Gyro Mean,Gyro Variance,Orientation Mean,Orientation Variance,Label
-40.69995460735361,-17.546257668711647,-23.87135713053974,120.63373582144163,-126.44211317264896,126.5134099616858,-39.212721145745604,11.407185628742518,6.684210526315777,65.24313725490197,17.162162162162172,-12.64940239043825,-10.458823529411763,-0.49803921568627274,23.037209302325582,18.392521251248038,402.86943505775173,27.372523135535,143.21704302752042,54.01711687356433,3338.3321608355172,1
-40.69995460735361,-17.546257668711647,-23.87135713053974,120.63373582144163,-126.44211317264896,126.5134099616858,-39.212721145745604,2.2814371257485053,-1.8229665071770462,-14.44313725490196,24.02702702702704,8.601593625498003,-2.490196078431371,-3.48627450980392,23.037209302325582,10.023730178864179,87.66924028302648,27.372523135535,143.21704302752042,54.01711687356433,3338.3321608355172,1
-40.69995460735361,-17.546257668711647,-23.87135713053974,120.63373582144163,-126.44211317264896,126.5134099616858,-39.212721145745604,-0.7604790419161651,-23.698564593301448,-25.4,14.873873873873883,-22.76892430278885,3.4862745098039234,3.4862745098039234,24.218604651162792,14.836624435331373,113.83742345175382,27.372523135535,143.21704302752042,54.01711687356433,3338.3321608355172,1
-39.470116507792405,-18.54355828220858,-23.56475254354198,120.540797658251,-126.42743194035026,126.6461163357715,-39.212721145745604,-0.7604790419161651,-23.698564593301448,-25.4,14.873873873873883,-22.76892430278885,3.4862745098039234,3.4862745098039234,24.218604651162792,14.836624435331373,113.83742345175382,27.19280911118099,119.35230563567892,54.216369494667184,3305.5004263723035,1
-39.470116507792405,-18.54355828220858,-23.56475254354198,120.540797658251,-126.42743194035026,126.6461163357715,-39.212721145745604,-2.2814371257485004,-28.5598086124402,-31.376470588235293,18.30630630630632,13.6613545816733,-0.49803921568627274,-2.490196078431371,23.037209302325582,15.026352726355855,151.13370163607493,27.19280911118099,119.35230563567892,54.216369494667184,3305.5004263723035,1
-38.93206233923438,-18.699386503067476,-23.586652871184675,120.63373582144163,-126.47147563724639,126.6461163357715,-39.05223251895535,-2.2814371257485004,-28.5598086124402,-31.376470588235293,18.30630630630632,13.6613545816733,-0.49803921568627274,-2.490196078431371,23.037209302325582,15.026352726355855,151.13370163607493,27.072700571162176,111.45468929774182,54.306591731897925,3305.4388754445517,1
-38.93206233923438,-18.699386503067476,-23.586652871184675,120.63373582144163,-126.47147563724639,126.6461163357715,-39.05223251895535,-0.7604790419161651,-29.77511961722489,-21.415686274509802,12.585585585585596,-4.553784860557774,3.4862745098039234,0.4980392156862763,23.037209302325582,12.014022300951252,130.47470385214447,27.072700571162176,111.45468929774182,54.306591731897925,3305.4388754445517,1
-38.93206233923438,-18.699386503067476,-23.586652871184675,120.63373582144163,-126.47147563724639,126.6461163357715,-39.05223251895535,-0.7604790419161651,-23.698564593301448,-12.450980392156861,11.441441441441452,1.5179282868525847,1.4941176470588253,-0.49803921568627274,24.218604651162792,9.510019408697051,102.27648314949883,27.072700571162176,111.45468929774182,54.306591731897925,3305.4388754445517,1
-39.71992737176578,-18.387730061349686,-23.63045352647007,120.58726673984631,-126.48615686954511,126.77882270985717,-39.05223251895535,-0.7604790419161651,-23.698564593301448,-12.450980392156861,11.441441441441452,1.5179282868525847,1.4941176470588253,-0.49803921568627274,24.218604651162792,9.510019408697051,102.27648314949883,27.24603698652851,123.569993340117,54.20181677588869,3312.142512520772,1
-39.71992737176578,-18.387730061349686,-23.63045352647007,120.58726673984631,-126.48615686954511,126.77882270985717,-39.05223251895535,-2.2814371257485004,-27.344497607655512,-21.415686274509802,8.009009009009018,2.5298804780876445,-1.4941176470588218,-0.49803921568627274,20.674418604651166,10.530885745300843,117.83117464588031,27.24603698652851,123.569993340117,54.20181677588869,3312.142512520772,1
-39.71992737176578,-18.387730061349686,-23.63045352647007,120.58726673984631,-126.48615686954511,126.77882270985717,-39.05223251895535,8.365269461077848,-6.684210526315802,-30.380392156862744,26.315315315315324,-10.625498007968133,-0.49803921568627274,1.4941176470588253,21.855813953488372,13.277332035471666,130.41118935927685,27.24603698652851,123.569993340117,54.20181677588869,3312.142512520772,1
-40.10425177787865,-18.10723926380367,-23.696154509398163,120.44785949506036,-126.45679440494769,126.99999999999997,-39.15922493681552,8.365269461077848,-6.684210526315802,-30.380392156862744,26.315315315315324,-10.625498007968133,-0.49803921568627274,1.4941176470588253,21.855813953488372,13.277332035471666,130.41118935927685,27.302548517026832,130.7216981897878,54.08375108942073,3310.9551567622257,1
-40.10425177787865,-18.10723926380367,-23.696154509398163,120.44785949506036,-126.45679440494769,126.99999999999997,-39.15922493681552,-0.7604790419161651,-16.406698564593313,-22.41176470588235,18.30630630630632,-14.673306772908372,1.4941176470588253,0.4980392156862763,23.037209302325582,12.198490194584652,95.03431492148464,27.302548517026832,130.7216981897878,54.08375108942073,3310.9551567622257,1
-40.10425177787865,-18.10723926380367,-23.696154509398163,120.44785949506036,-126.45679440494769,126.99999999999997,-39.15922493681552,5.323353293413176,12.76076555023922,56.27843137254902,24.02702702702704,9.613545816733062,1.4941176470588253,-1.4941176470588218,28.94418604651163,17.49194305007385,346.09163772037965,27.302548517026832,130.7216981897878,54.08375108942073,3310.9551567622257,1
-39.16265698290211,-18.325398773006125,-23.674254181755465,120.44785949506036,-126.45679440494769,126.99999999999997,-39.105728727885435,5.323353293413176,12.76076555023922,56.27843137254902,24.02702702702704,9.613545816733062,1.4941176470588253,-1.4941176470588218,28.94418604651163,17.49194305007385,346.09163772037965,27.05410331255457,117.11536753669195,54.14917081660732,3303.7896539077547,1
-39.16265698290211,-18.325398773006125,-23.674254181755465,120.44785949506036,-126.45679440494769,126.99999999999997,-39.105728727885435,-6.844311377245506,-27.344497607655512,-6.474509803921567,18.30630630630632,-17.70916334661355,0.4980392156862763,0.4980392156862763,21.855813953488372,12.441335103325422,103.58555404664556,27.05410331255457,117.11536753669195,54.14917081660732,3303.7896539077547,1
-39.16265698290211,-18.325398773006125,-23.674254181755465,120.44785949506036,-126.45679440494769,126.99999999999997,-39.105728727885435,8.365269461077848,-6.684210526315802,14.443137254901963,25.17117117117118,-22.76892430278885,15.439215686274512,2.4901960784313744,26.581395348837212,15.242939978724841,81.09081028035389,27.05410331255457,117.11536753669195,54.14917081660732,3303.7896539077547,1
-38.874413678317445,-18.979877300613488,-23.674254181755465,120.49432857665568,-126.53020056644124,126.99999999999997,-38.89174389216515,8.365269461077848,-6.684210526315802,14.443137254901963,25.17117117117118,-22.76892430278885,15.439215686274512,2.4901960784313744,26.581395348837212,15.242939978724841,81.09081028035389,27.1761817202288,108.14576678448495,54.382820019674874,3283.5579663353583,1
-38.874413678317445,-18.979877300613488,-23.674254181755465,120.49432857665568,-126.53020056644124,126.99999999999997,-38.89174389216515,2.2814371257485053,-7.89952153110049,-7.470588235294116,20.594594594594604,-4.553784860557774,-10.458823529411763,-3.48627450980392,21.855813953488372,9.825104792499943,56.46394244429558,27.1761817202288,108.14576678448495,54.382820019674874,3283.5579663353583,1
-38.874413678317445,-18.979877300613488,-23.674254181755465,120.49432857665568,-126.53020056644124,126.99999999999997,-38.89174389216515,-11.407185628742512,-29.77511961722489,-2.490196078431371,9.153153153153163,6.5776892430278835,-5.478431372549018,-2.490196078431371,21.855813953488372,11.153473140631073,95.51715753037554,27.1761817202288,108.14576678448495,54.382820019674874,3283.5579663353583,1
-39.08579210167953,-18.418895705521464,-24.1560613898948,120.540797658251,-126.53020056644124,126.95576454197143,-38.83824768323507,-11.407185628742512,-29.77511961722489,-2.490196078431371,9.153153153153163,6.5776892430278835,-5.478431372549018,-2.490196078431371,21.855813953488372,11.153473140631073,95.51715753037554,27.220249732365264,113.82208931098174,54.37191825122242,3291.9692190089063,1
-39.08579210167953,-18.418895705521464,-24.1560613898948,120.540797658251,-126.53020056644124,126.95576454197143,-38.83824768323507,-3.802395209580836,-16.406698564593313,1.4941176470588253,18.30630630630632,6.5776892430278835,5.4784313725490215,0.4980392156862763,21.855813953488372,9.302436439036356,68.558924047968,27.220249732365264,113.82208931098174,54.37191825122242,3291.9692190089063,1
-39.08579210167953,-18.418895705521464,-24.1560613898948,120.540797658251,-126.53020056644124,126.95576454197143,-38.83824768323507,0.7604790419161702,-21.26794258373207,-24.40392156862745,20.594594594594604,3.5418326693227042,5.4784313725490215,1.4941176470588253,21.855813953488372,12.42464167891115,108.58363397725921,27.220249732365264,113.82208931098174,54.37191825122242,3291.9692190089063,1
-39.50854894840369,-18.013742331288334,-24.37506466632177,120.3084522502744,-126.48615686954511,126.91152908394287,-38.83824768323507,0.7604790419161702,-21.26794258373207,-24.40392156862745,20.594594594594604,3.5418326693227042,5.4784313725490215,1.4941176470588253,21.855813953488372,12.42464167891115,108.58363397725921,27.299118648671264,121.91924664556701,54.23241974929484,3284.6481587654293,1
-39.50854894840369,-18.013742331288334,-24.37506466632177,120.3084522502744,-126.48615686954511,126.91152908394287,-38.83824768323507,-0.7604790419161651,-17.622009569378,-23.4078431372549,25.17117117117118,16.697211155378483,13.447058823529414,-4.482352941176469,23.037209302325582,15.578166892766275,80.23128712733225,27.299118648671264,121.91924664556701,54.23241974929484,3284.6481587654293,1
-39.50854894840369,-18.013742331288334,-24.37506466632177,120.3084522502744,-126.48615686954511,126.91152908394287,-38.83824768323507,2.2814371257485053,-27.344497607655512,22.411764705882355,9.153153153153163,-22.76892430278885,-4.482352941176469,-2.490196078431371,19.493023255813956,13.803168646331272,105.63837588205321,27.299118648671264,121.91924664556701,54.23241974929484,3284.6481587654293,1
-39.008927220456954,-17.328098159509192,-24.112260734609407,120.26198316867908,-126.39806947575283,126.69035179380006,-39.05223251895535,2.2814371257485053,-27.344497607655512,22.411764705882355,9.153153153153163,-22.76892430278885,-4.482352941176469,-2.490196078431371,19.493023255813956,13.803168646331272,105.63837588205321,26.81642870485852,122.99898050100016,53.90078068759922,3314.3631115125063,1
-39.008927220456954,-17.328098159509192,-24.112260734609407,120.26198316867908,-126.39806947575283,126.69035179380006,-39.05223251895535,-3.802395209580836,-10.33014354066987,27.3921568627451,17.162162162162172,1.5179282868525847,1.4941176470588253,2.4901960784313744,25.400000000000002,11.198637473437595,116.9516946883914,26.81642870485852,122.99898050100016,53.90078068759922,3314.3631115125063,1
-39.008927220456954,-17.328098159509192,-24.112260734609407,120.26198316867908,-126.39806947575283,126.69035179380006,-39.05223251895535,-14.449101796407183,-38.28229665071771,-33.36862745098039,13.72972972972974,-2.5298804780876543,0.4980392156862763,-3.48627450980392,19.493023255813956,15.729621635903355,199.3848550605697,26.81642870485852,122.99898050100016,53.90078068759922,3314.3631115125063,1
-38.47087305189893,-18.013742331288334,-24.024659424038617,120.35492133186972,-126.41275070805153,126.42493904562869,-39.05223251895535,-14.449101796407183,-38.28229665071771,-33.36862745098039,13.72972972972974,-2.5298804780876543,0.4980392156862763,-3.48627450980392,19.493023255813956,15.729621635903355,199.3848550605697,26.83642493574196,110.5530682996407,54.131107695732226,3298.227900459382,1
-38.47087305189893,-18.013742331288334,-24.024659424038617,120.35492133186972,-126.41275070805153,126.42493904562869,-39.05223251895535,12.928143712574853,15.191387559808597,50.30196078431373,19.45045045045046,-14.673306772908372,-0.49803921568627274,1.4941176470588253,26.581395348837212,17.639850186454794,248.7949802084979,26.83642493574196,110.5530682996407,54.131107695732226,3298.227900459382,1
-38.47087305189893,-18.013742331288334,-24.024659424038617,120.35492133186972,-126.41275070805153,126.42493904562869,-39.05223251895535,-3.802395209580836,-24.913875598086136,-22.41176470588235,11.441441441441452,5.565737051792824,-3.48627450980392,-0.49803921568627274,21.855813953488372,11.74691771072027,97.92696657633155,26.83642493574196,110.5530682996407,54.131107695732226,3298.227900459382,1
-39.16265698290211,-18.138404907975453,-23.980858768753222,120.35492133186972,-126.41275070805153,126.38070358760012,-38.99873631002532,-3.802395209580836,-24.913875598086136,-22.41176470588235,11.441441441441452,5.565737051792824,-3.48627450980392,-0.49803921568627274,21.855813953488372,11.74691771072027,97.92696657633155,27.09397355321026,117.77340657341819,54.1580616695328,3295.0517386451756,1
-39.16265698290211,-18.138404907975453,-23.980858768753222,120.35492133186972,-126.41275070805153,126.38070358760012,-38.99873631002532,-0.7604790419161651,-24.913875598086136,-4.482352941176469,13.72972972972974,-18.72111553784861,-14.44313725490196,-0.49803921568627274,24.218604651162792,12.72091674631352,97.31084916468356,27.09397355321026,117.77340657341819,54.1580616695328,3295.0517386451756,1
-39.16265698290211,-18.138404907975453,-23.980858768753222,120.35492133186972,-126.41275070805153,126.38070358760012,-38.99873631002532,-0.7604790419161651,-18.83732057416269,3.4862745098039234,28.603603603603617,0.505976095617525,7.4705882352941195,0.4980392156862763,23.037209302325582,10.399936322301237,129.6429393833665,27.09397355321026,117.77340657341819,54.1580616695328,3295.0517386451756,1
-40.04660311696172,-17.608588957055204,-24.309363683393677,120.02963776070249,-126.30998208196056,126.42493904562869,-39.15922493681552,-0.7604790419161651,-18.83732057416269,3.4862745098039234,28.603603603603617,0.505976095617525,7.4705882352941195,0.4980392156862763,23.037209302325582,10.399936322301237,129.6429393833665,27.321518585803535,132.67092772712513,53.98253013371712,3282.890414901225,1
-40.04660311696172,-17.608588957055204,-24.309363683393677,120.02963776070249,-126.30998208196056,126.42493904562869,-39.15922493681552,5.323353293413176,-11.545454545454557,17.43137254901961,25.17117117117118,-0.5059760956175348,-1.4941176470588218,-0.49803921568627274,21.855813953488372,10.478162308863691,100.16488300486826,27.321518585803535,132.67092772712513,53.98253013371712,3282.890414901225,1
-40.04660311696172,-17.608588957055204,-24.309363683393677,120.02963776070249,-126.30998208196056,126.42493904562869,-39.15922493681552,-2.2814371257485004,-18.83732057416269,-5.478431372549018,16.01801801801803,8.601593625498003,0.4980392156862763,-3.48627450980392,24.218604651162792,9.927464886578655,75.8762311247687,27.321518585803535,132.67092772712513,53.98253013371712,3282.890414901225,1
-40.83446814949312,-17.608588957055204,-24.287463355750983,119.51847786315403,-126.16316975897345,126.6461163357715,-39.42670598146589,-2.2814371257485004,-18.83732057416269,-5.478431372549018,16.01801801801803,8.601593625498003,0.4980392156862763,-3.48627450980392,24.218604651162792,9.927464886578655,75.8762311247687,27.57684015409977,142.9753658565666,53.804843391986736,3249.863157366028,1
-40.83446814949312,-17.608588957055204,-24.287463355750983,119.51847786315403,-126.16316975897345,126.6461163357715,-39.42670598146589,14.449101796407188,44.35885167464113,54.286274509803924,21.73873873873875,-6.577689243027893,4.482352941176472,-0.49803921568627274,26.581395348837212,21.621555433539857,375.1856367448924,27.57684015409977,142.9753658565666,53.804843391986736,3249.863157366028,1
-40.83446814949312,-17.608588957055204,-24.287463355750983,119.51847786315403,-126.16316975897345,126.6461163357715,-39.42670598146589,-8.365269461077842,-38.28229665071771,-52.294117647058826,21.73873873873875,5.565737051792824,10.458823529411767,1.4941176470588253,24.218604651162792,20.302213172127416,310.63688747074076,27.57684015409977,142.9753658565666,53.804843391986736,3249.863157366028,1
-40.23876532001816,-17.296932515337414,-23.78375581996895,119.28613245517744,-126.06040113288248,126.77882270985717,-39.69418702611625,-8.365269461077842,-38.28229665071771,-52.294117647058826,21.73873873873875,5.565737051792824,10.458823529411767,1.4941176470588253,24.218604651162792,20.302213172127416,310.63688747074076,27.10648455177484,139.8623177783577,53.45560693016126,3260.7632873212324,1
-40.23876532001816,-17.296932515337414,-23.78375581996895,119.28613245517744,-126.06040113288248,126.77882270985717,-39.69418702611625,-0.7604790419161651,-38.28229665071771,-22.41176470588235,12.585585585585596,-34.91235059760957,-2.490196078431371,2.4901960784313744,24.218604651162792,17.268934173717117,222.69760221986917,27.10648455177484,139.8623177783577,53.45560693016126,3260.7632873212324,1
-40.23876532001816,-17.296932515337414,-23.78375581996895,119.28613245517744,-126.06040113288248,126.77882270985717,-39.69418702611625,5.323353293413176,-1.8229665071770462,-4.482352941176469,13.72972972972974,-6.577689243027893,3.4862745098039234,0.4980392156862763,26.581395348837212,7.812725098606467,73.4553718956309,27.10648455177484,139.8623177783577,53.45560693016126,3260.7632873212324,1
-38.52852171281586,-18.356564417177903,-23.674254181755465,119.56494694474935,-126.14848852667475,126.6461163357715,-39.533698399326056,5.323353293413176,-1.8229665071770462,-4.482352941176469,13.72972972972974,-6.577689243027893,3.4862745098039234,0.4980392156862763,26.581395348837212,7.812725098606467,73.4553718956309,26.853113437249743,109.30582490894156,53.865255181227575,3244.4065794744015,1
-38.52852171281586,-18.356564417177903,-23.674254181755465,119.56494694474935,-126.14848852667475,126.6461163357715,-39.533698399326056,-6.844311377245506,-45.57416267942585,-18.427450980392155,24.02702702702704,23.7808764940239,-2.490196078431371,-1.4941176470588218,18.311627906976746,17.618721273822672,209.5203474906243,26.853113437249743,109.30582490894156,53.865255181227575,3244.4065794744015,1
-38.52852171281586,-18.356564417177903,-23.674254181755465,119.56494694474935,-126.14848852667475,126.6461163357715,-39.533698399326056,5.323353293413176,-11.545454545454557,13.447058823529414,20.594594594594604,5.565737051792824,-3.48627450980392,-0.49803921568627274,21.855813953488372,10.289540748470392,62.950760495517294,26.853113437249743,109.30582490894156,53.865255181227575,3244.4065794744015,1
-38.70146769556665,-18.60588957055214,-24.44076564924986,119.70435418953531,-126.236575920467,126.42493904562869,-39.15922493681552,5.323353293413176,-11.545454545454557,13.447058823529414,20.594594594594604,5.565737051792824,-3.48627450980392,-0.49803921568627274,21.855813953488372,10.289540748470392,62.950760495517294,27.24937430512288,106.87427698102407,54.25033646977911,3221.6827714570586,1
-38.70146769556665,-18.60588957055214,-24.44076564924986,119.70435418953531,-126.236575920467,126.42493904562869,-39.15922493681552,-6.844311377245506,-12.760765550239245,6.4745098039215705,13.72972972972974,-9.613545816733073,4.482352941176472,0.4980392156862763,26.581395348837212,10.123081222946137,62.80323950709918,27.24937430512288,106.87427698102407,54.25033646977911,3221.6827714570586,1
-38.70146769556665,-18.60588957055214,-24.44076564924986,119.70435418953531,-126.236575920467,126.42493904562869,-39.15922493681552,-0.7604790419161651,-20.05263157894738,-2.490196078431371,19.45045045045046,5.565737051792824,-2.490196078431371,-2.490196078431371,25.400000000000002,9.837485794800118,100.21971838475308,27.24937430512288,106.87427698102407,54.25033646977911,3221.6827714570586,1
-40.123467998184296,-17.79558282208588,-23.893257458182436,119.37907061836808,-126.16316975897345,126.38070358760012,-39.15922493681552,-0.7604790419161651,-20.05263157894738,-2.490196078431371,19.45045045045046,5.565737051792824,-2.490196078431371,-2.490196078431371,25.400000000000002,9.837485794800118,100.21971838475308,27.270769426150867,133.18930442958634,53.6893036328788,3245.6545239478323,1
-40.123467998184296,-17.79558282208588,-23.893257458182436,119.37907061836808,-126.16316975897345,126.38070358760012,-39.15922493681552,-0.7604790419161651,-24.913875598086136,-13.44705882352941,16.01801801801803,-6.577689243027893,3.4862745098039234,2.4901960784313744,23.037209302325582,11.341350076892315,88.85774858140833,27.270769426150867,133.18930442958634,53.6893036328788,3245.6545239478323,1
-40.123467998184296,-17.79558282208588,-23.893257458182436,119.37907061836808,-126.16316975897345,126.38070358760012,-39.15922493681552,0.7604790419161702,-3.0382775119617342,22.411764705882355,17.162162162162172,-4.553784860557774,2.4901960784313744,0.4980392156862763,19.493023255813956,8.800965854051476,84.8777854269966,27.270769426150867,133.18930442958634,53.6893036328788,3245.6545239478323,1
-40.45014374338024,-17.577423312883425,-24.24366270046559,118.91437980241489,-126.03103866828505,126.5134099616858,-39.3732097725358,0.7604790419161702,-3.0382775119617342,22.411764705882355,17.162162162162172,-4.553784860557774,2.4901960784313744,0.4980392156862763,19.493023255813956,8.800965854051476,84.8777854269966,27.423743252243085,138.3750192097617,53.57848860525463,3212.6936957885105,1
-40.45014374338024,-17.577423312883425,-24.24366270046559,118.91437980241489,-126.03103866828505,126.5134099616858,-39.3732097725358,-0.7604790419161651,-33.42105263157896,1.4941176470588253,12.585585585585596,-10.625498007968133,-4.482352941176469,-1.4941176470588218,23.037209302325582,10.987551600583569,139.75745911949167,27.423743252243085,138.3750192097617,53.57848860525463,3212.6936957885105,1
-40.45014374338024,-17.577423312883425,-24.24366270046559,118.91437980241489,-126.03103866828505,126.5134099616858,-39.3732097725358,-2.2814371257485004,-20.05263157894738,-5.478431372549018,20.594594594594604,-0.5059760956175348,-6.474509803921567,1.4941176470588253,26.581395348837212,10.43288669590933,105.95439745522438,27.423743252243085,138.3750192097617,53.57848860525463,3212.6936957885105,1
-39.374035406264184,-17.670920245398765,-23.674254181755465,118.9608488840102,-126.00167620368762,126.55764541971436,-39.58719460825614,-2.2814371257485004,-20.05263157894738,-5.478431372549018,20.594594594594604,-0.5059760956175348,-6.474509803921567,1.4941176470588253,26.581395348837212,10.43288669590933,105.95439745522438,26.906403277806135,125.59139275577249,53.43534110372148,3229.204131986362,1
-39.374035406264184,-17.670920245398765,-23.674254181755465,118.9608488840102,-126.00167620368762,126.55764541971436,-39.58719460825614,-5.323353293413171,-26.129186602870824,-2.490196078431371,28.603603603603617,13.6613545816733,-0.49803921568627274,-1.4941176470588218,20.674418604651166,12.359283703423568,132.85273905596185,26.906403277806135,125.59139275577249,53.43534110372148,3229.204131986362,1
-39.374035406264184,-17.670920245398765,-23.674254181755465,118.9608488840102,-126.00167620368762,126.55764541971436,-39.58719460825614,-3.802395209580836,-22.483253588516757,42.333333333333336,18.30630630630632,-6.577689243027893,-1.4941176470588218,-1.4941176470588218,23.037209302325582,14.941052784651045,205.67859710578472,26.906403277806135,125.59139275577249,53.43534110372148,3229.204131986362,1
-37.9328188833409,-17.951411042944777,-23.893257458182436,119.4255396999634,-126.0897635974799,126.24799721351442,-39.533698399326056,-3.802395209580836,-22.483253588516757,42.333333333333336,18.30630630630632,-6.577689243027893,-1.4941176470588218,-1.4941176470588218,23.037209302325582,14.941052784651045,205.67859710578472,26.592495794822707,105.2785805195523,53.756736067030204,3243.120212641123,1
-37.9328188833409,-17.951411042944777,-23.893257458182436,119.4255396999634,-126.0897635974799,126.24799721351442,-39.533698399326056,5.323353293413176,-26.129186602870824,11.454901960784316,22.882882882882893,-36.93625498007969,-7.470588235294116,-0.49803921568627274,27.76279069767442,17.307249733585714,165.8148078527779,26.592495794822707,105.2785805195523,53.756736067030204,3243.120212641123,1
-37.9328188833409,-17.951411042944777,-23.893257458182436,119.4255396999634,-126.0897635974799,126.24799721351442,-39.533698399326056,0.7604790419161702,-18.83732057416269,-0.49803921568627274,18.30630630630632,15.685258964143422,-6.474509803921567,0.4980392156862763,25.400000000000002,10.807494140227838,98.53301439040648,26.592495794822707,105.2785805195523,53.756736067030204,3243.120212641123,1
-37.18338629142079,-18.356564417177903,-23.696154509398163,119.93669959751185,-126.236575920467,125.62870080111458,-39.05223251895535,0.7604790419161702,-18.83732057416269,-0.49803921568627274,18.30630630630632,15.685258964143422,-6.474509803921567,0.4980392156862763,25.400000000000002,10.807494140227838,98.53301439040648,26.412035072665617,94.14431089656804,53.99647284136264,3268.212934077516,1
-37.18338629142079,-18.356564417177903,-23.696154509398163,119.93669959751185,-126.236575920467,125.62870080111458,-39.05223251895535,-9.886227544910177,-29.77511961722489,-20.419607843137253,21.73873873873875,7.589641434262944,3.4862745098039234,-2.490196078431371,19.493023255813956,14.35985362779041,97.16014560500712,26.412035072665617,94.14431089656804,53.99647284136264,3268.212934077516,1
-37.18338629142079,-18.356564417177903,-23.696154509398163,119.93669959751185,-126.236575920467,125.62870080111458,-39.05223251895535,6.8443113772455115,13.976076555023909,19.423529411764708,18.30630630630632,6.5776892430278835,-0.49803921568627274,-0.49803921568627274,25.400000000000002,11.44049891559261,85.20165969824895,26.412035072665617,94.14431089656804,53.99647284136264,3268.212934077516,1
-39.52776516870934,-18.450061349693243,-23.739955164683558,119.65788510793999,-126.17785099127218,125.62870080111458,-39.105728727885435,6.8443113772455115,13.976076555023909,19.423529411764708,18.30630630630632,6.5776892430278835,-0.49803921568627274,-0.49803921568627274,25.400000000000002,11.44049891559261,85.20165969824895,27.239260561028715,120.25125326320914,53.94930054077226,3245.2093085089423,1
-39.52776516870934,-18.450061349693243,-23.739955164683558,119.65788510793999,-126.17785099127218,125.62870080111458,-39.105728727885435,3.802395209580841,-13.976076555023935,-16.435294117647057,10.297297297297307,1.5179282868525847,0.4980392156862763,3.4862745098039234,24.218604651162792,9.27898873038184,71.19888074960274,27.239260561028715,120.25125326320914,53.94930054077226,3245.2093085089423,1
-39.52776516870934,-18.450061349693243,-23.739955164683558,119.65788510793999,-126.17785099127218,125.62870080111458,-39.105728727885435,-3.802395209580836,-18.83732057416269,49.30588235294118,24.02702702702704,-9.613545816733073,-31.376470588235293,-2.490196078431371,19.493023255813956,19.86823261286568,240.3971118196035,27.239260561028715,120.25125326320914,53.94930054077226,3245.2093085089423,1
-39.50854894840369,-18.356564417177903,-23.148646318330737,119.65788510793999,-126.14848852667475,125.93834900731451,-39.319713563605774,-3.802395209580836,-18.83732057416269,49.30588235294118,24.02702702702704,-9.613545816733073,-31.376470588235293,-2.490196078431371,19.493023255813956,19.86823261286568,240.3971118196035,27.00458656130411,123.00281877033993,53.721031947816215,3266.492465731633,1
-39.50854894840369,-18.356564417177903,-23.148646318330737,119.65788510793999,-126.14848852667475,125.93834900731451,-39.319713563605774,-5.323353293413171,-10.33014354066987,-0.49803921568627274,20.594594594594604,-12.64940239043825,-2.490196078431371,0.4980392156862763,23.037209302325582,9.427622203905674,77.93776498865404,27.00458656130411,123.00281877033993,53.721031947816215,3266.492465731633,1
-39.50854894840369,-18.356564417177903,-23.148646318330737,119.65788510793999,-126.14848852667475,125.93834900731451,-39.319713563605774,-11.407185628742512,-51.650717703349294,-20.419607843137253,25.17117117117118,-9.613545816733073,3.4862745098039234,-1.4941176470588218,21.855813953488372,18.137304284185554,257.3225252141972,27.00458656130411,123.00281877033993,53.721031947816215,3266.492465731633,1
-38.643819034649724,-18.761717791411034,-23.49905156061389,119.89023051591658,-126.19253222357088,126.02681992337162,-39.3732097725358,-11.407185628742512,-51.650717703349294,-20.419607843137253,25.17117117117118,-9.613545816733073,3.4862745098039234,-1.4941176470588218,21.855813953488372,18.137304284185554,257.3225252141972,26.96819612889155,107.85071048830615,54.05033328931383,3256.779632917416,1
-38.643819034649724,-18.761717791411034,-23.49905156061389,119.89023051591658,-126.19253222357088,126.02681992337162,-39.3732097725358,0.7604790419161702,-24.913875598086136,10.458823529411767,18.30630630630632,10.625498007968122,-1.4941176470588218,-1.4941176470588218,23.037209302325582,11.386303385016468,96.66901758966995,26.96819612889155,107.85071048830615,54.05033328931383,3256.779632917416,1
-38.643819034649724,-18.761717791411034,-23.49905156061389,119.89023051591658,-126.19253222357088,126.02681992337162,-39.3732097725358,-3.802395209580836,-28.5598086124402,21.415686274509806,17.162162162162172,5.565737051792824,-21.415686274509802,-5.478431372549018,18.311627906976746,15.213941858065176,83.78829507973717,26.96819612889155,107.85071048830615,54.05033328931383,3256.779632917416,1
-38.47087305189893,-18.91754601226993,-23.76185549232625,120.12257592389312,-126.26593838506443,126.07105538140019,-39.319713563605774,-3.802395209580836,-28.5598086124402,21.415686274509806,17.162162162162172,5.565737051792824,-21.415686274509802,-5.478431372549018,18.311627906976746,15.213941858065176,83.78829507973717,27.050091518831703,103.69252170417789,54.267325809496434,3258.552309306949,1
-38.47087305189893,-18.91754601226993,-23.76185549232625,120.12257592389312,-126.26593838506443,126.07105538140019,-39.319713563605774,5.323353293413176,-0.6076555023923582,-0.49803921568627274,20.594594594594604,1.5179282868525847,-8.466666666666665,-4.482352941176469,23.037209302325582,8.065974975388464,79.62944824290074,27.050091518831703,103.69252170417789,54.267325809496434,3258.552309306949,1
-38.47087305189893,-18.91754601226993,-23.76185549232625,120.12257592389312,-126.26593838506443,126.07105538140019,-39.319713563605774,2.2814371257485053,-15.191387559808625,-28.388235294117646,13.72972972972974,-17.70916334661355,13.447058823529414,-0.49803921568627274,26.581395348837212,14.728305805508871,99.46473384343142,27.050091518831703,103.69252170417789,54.267325809496434,3258.552309306949,1
-38.2402784082312,-17.982576687116556,-23.76185549232625,120.44785949506036,-126.32466331425928,125.84987809125738,-39.26621735467569,2.2814371257485053,-15.191387559808625,-28.388235294117646,13.72972972972974,-17.70916334661355,13.447058823529414,-0.49803921568627274,26.581395348837212,14.728305805508871,99.46473384343142,26.661570195891333,108.89987877696645,54.06409722483439,3313.452935739494,1
-38.2402784082312,-17.982576687116556,-23.76185549232625,120.44785949506036,-126.32466331425928,125.84987809125738,-39.26621735467569,-2.2814371257485004,-20.05263157894738,-3.48627450980392,13.72972972972974,19.73306772908366,8.466666666666669,1.4941176470588253,24.218604651162792,11.682816204775186,80.84551806429103,26.661570195891333,108.89987877696645,54.06409722483439,3313.452935739494,1
-38.2402784082312,-17.982576687116556,-23.76185549232625,120.44785949506036,-126.32466331425928,125.84987809125738,-39.26621735467569,12.928143712574853,10.330143540669845,-17.431372549019606,33.18018018018019,4.553784860557764,1.4941176470588253,4.482352941176472,25.400000000000002,13.725011928904694,122.8341547937043,26.661570195891333,108.89987877696645,54.06409722483439,3313.452935739494,1
-38.912846118928734,-17.515092024539868,-23.805656147611646,120.44785949506036,-126.26593838506443,125.62870080111458,-39.3732097725358,12.928143712574853,10.330143540669845,-17.431372549019606,33.18018018018019,4.553784860557764,1.4941176470588253,4.482352941176472,25.400000000000002,13.725011928904694,122.8341547937043,26.744531430360084,120.94371101664613,53.92286922240395,3329.0735473293903,1
-38.912846118928734,-17.515092024539868,-23.805656147611646,120.44785949506036,-126.26593838506443,125.62870080111458,-39.3732097725358,-0.7604790419161651,-28.5598086124402,-38.34901960784313,8.009009009009018,-22.76892430278885,-0.49803921568627274,-0.49803921568627274,23.037209302325582,15.310066038461937,217.92579459871644,26.744531430360084,120.94371101664613,53.92286922240395,3329.0735473293903,1
-38.912846118928734,-17.515092024539868,-23.805656147611646,120.44785949506036,-126.26593838506443,125.62870080111458,-39.3732097725358,5.323353293413176,15.191387559808597,-44.325490196078434,11.441441441441452,-5.5657370517928335,9.462745098039218,0.4980392156862763,23.037209302325582,14.355675394823198,193.93867293525787,26.744531430360084,120.94371101664613,53.92286922240395,3329.0735473293903,1
-38.89362989862309,-18.07607361963189,-23.805656147611646,120.40139041346504,-126.26593838506443,125.54022988505744,-39.319713563605774,5.323353293413176,15.191387559808597,-44.325490196078434,11.441441441441452,-5.5657370517928335,9.462745098039218,0.4980392156862763,23.037209302325582,14.355675394823198,193.93867293525787,26.92511988862221,115.64095288085119,54.094373393569526,3305.6724085437677,1
-38.89362989862309,-18.07607361963189,-23.805656147611646,120.40139041346504,-126.26593838506443,125.54022988505744,-39.319713563605774,-6.844311377245506,-34.63636363636365,-11.454901960784312,13.72972972972974,0.505976095617525,-8.466666666666665,-1.4941176470588218,23.037209302325582,12.521159551973973,130.98470079856972,26.92511988862221,115.64095288085119,54.094373393569526,3305.6724085437677,1
-38.89362989862309,-18.07607361963189,-23.805656147611646,120.40139041346504,-126.26593838506443,125.54022988505744,-39.319713563605774,-12.928143712574848,-43.14354066985647,-34.364705882352936,16.01801801801803,-10.625498007968133,1.4941176470588253,-1.4941176470588218,21.855813953488372,17.740494442297056,220.46476501523946,26.92511988862221,115.64095288085119,54.094373393569526,3305.6724085437677,1
-38.93206233923438,-18.16957055214723,-23.301948611829616,120.540797658251,-126.26593838506443,125.62870080111458,-39.48020219039597,-12.928143712574848,-43.14354066985647,-34.364705882352936,16.01801801801803,-10.625498007968133,1.4941176470588253,-1.4941176470588218,21.855813953488372,17.740494442297056,220.46476501523946,26.801193834403744,116.95380414799618,54.00410560740928,3326.933867938284,1
-38.93206233923438,-18.16957055214723,-23.301948611829616,120.540797658251,-126.26593838506443,125.62870080111458,-39.48020219039597,0.7604790419161702,-18.83732057416269,19.423529411764708,19.45045045045046,8.601593625498003,14.443137254901963,2.4901960784313744,23.037209302325582,13.380489467431369,71.17460297544082,26.801193834403744,116.95380414799618,54.00410560740928,3326.933867938284,1
-38.93206233923438,-18.16957055214723,-23.301948611829616,120.540797658251,-126.26593838506443,125.62870080111458,-39.48020219039597,0.7604790419161702,-24.913875598086136,-30.380392156862744,14.873873873873883,-16.69721115537849,-8.466666666666665,0.4980392156862763,26.581395348837212,15.396491632163448,132.33773817711926,26.801193834403744,116.95380414799618,54.00410560740928,3326.933867938284,1
-38.778332576789225,-18.356564417177903,-23.455250905328494,120.68020490303695,-126.28061961736316,125.62870080111458,-39.533698399326056,0.7604790419161702,-24.913875598086136,-30.380392156862744,14.873873873873883,-16.69721115537849,-8.466666666666665,0.4980392156862763,26.581395348837212,15.396491632163448,132.33773817711926,26.863382633098542,112.97367509660333,54.16400674184778,3324.802614340052,1
-38.778332576789225,-18.356564417177903,-23.455250905328494,120.68020490303695,-126.28061961736316,125.62870080111458,-39.533698399326056,0.7604790419161702,-34.63636363636365,-9.462745098039214,16.01801801801803,2.5298804780876445,-1.4941176470588218,-0.49803921568627274,21.855813953488372,10.906932136082272,154.46349153961566,26.863382633098542,112.97367509660333,54.16400674184778,3324.802614340052,1
-38.778332576789225,-18.356564417177903,-23.455250905328494,120.68020490303695,-126.28061961736316,125.62870080111458,-39.533698399326056,0.7604790419161702,-23.698564593301448,26.39607843137255,17.162162162162172,16.697211155378483,9.462745098039218,0.4980392156862763,24.218604651162792,14.86173554362739,105.95040732990026,26.863382633098542,112.97367509660333,54.16400674184778,3324.802614340052,1
-39.12422454229082,-18.294233128834346,-23.56475254354198,120.68020490303695,-126.28061961736316,125.67293625914314,-39.640690817186226,0.7604790419161702,-23.698564593301448,26.39607843137255,17.162162162162172,16.697211155378483,9.462745098039218,0.4980392156862763,24.218604651162792,14.86173554362739,105.95040732990026,26.994403404889052,117.2940143442216,54.179730191804424,3323.67944633966,1
-39.12422454229082,-18.294233128834346,-23.56475254354198,120.68020490303695,-126.28061961736316,125.67293625914314,-39.640690817186226,-14.449101796407183,-32.205741626794264,-20.419607843137253,22.882882882882893,1.5179282868525847,-5.478431372549018,-4.482352941176469,20.674418604651166,15.263808169306355,114.64896006233178,26.994403404889052,117.2940143442216,54.179730191804424,3323.67944633966,1
-39.12422454229082,-18.294233128834346,-23.56475254354198,120.68020490303695,-126.28061961736316,125.67293625914314,-39.640690817186226,3.802395209580841,-5.468899521531114,43.32941176470588,33.18018018018019,7.589641434262944,10.458823529411767,3.4862745098039234,21.855813953488372,16.146430012870628,227.69887070487567,26.994403404889052,117.2940143442216,54.179730191804424,3323.67944633966,1
-38.509305492510215,-17.79558282208588,-23.87135713053974,120.86608122941823,-126.30998208196056,125.31905259491464,-39.48020219039597,3.802395209580841,-5.468899521531114,43.32941176470588,33.18018018018019,7.589641434262944,10.458823529411767,3.4862745098039234,21.855813953488372,16.146430012870628,227.69887070487567,26.725415148378612,113.37381209370552,54.17767372734795,3344.7365297334545,1
-38.509305492510215,-17.79558282208588,-23.87135713053974,120.86608122941823,-126.30998208196056,125.31905259491464,-39.48020219039597,-3.802395209580836,-27.344497607655512,46.31764705882353,21.73873873873875,-19.733067729083672,-21.415686274509802,-4.482352941176469,23.037209302325582,20.98394935773677,179.47114078779654,26.725415148378612,113.37381209370552,54.17767372734795,3344.7365297334545,1
-38.509305492510215,-17.79558282208588,-23.87135713053974,120.86608122941823,-126.30998208196056,125.31905259491464,-39.48020219039597,0.7604790419161702,-21.26794258373207,0.4980392156862763,13.72972972972974,-3.541832669322714,4.482352941176472,0.4980392156862763,24.218604651162792,8.624627506051564,95.14407936303064,26.725415148378612,113.37381209370552,54.17767372734795,3344.7365297334545,1
-38.874413678317445,-18.387730061349686,-24.046559751681315,120.86608122941823,-126.30998208196056,125.27481713688607,-39.42670598146589,0.7604790419161702,-21.26794258373207,0.4980392156862763,13.72972972972974,-3.541832669322714,4.482352941176472,0.4980392156862763,24.218604651162792,8.624627506051564,95.14407936303064,27.102901163782814,111.93196852592875,54.433457014149745,3317.975758461352,1
-38.874413678317445,-18.387730061349686,-24.046559751681315,120.86608122941823,-126.30998208196056,125.27481713688607,-39.42670598146589,6.8443113772455115,5.468899521531085,-59.266666666666666,10.297297297297307,15.685258964143422,11.454901960784316,4.482352941176472,25.400000000000002,17.362461091105597,332.3112491547783,27.102901163782814,111.93196852592875,54.433457014149745,3317.975758461352,1
-38.874413678317445,-18.387730061349686,-24.046559751681315,120.86608122941823,-126.30998208196056,125.27481713688607,-39.42670598146589,-2.2814371257485004,-23.698564593301448,24.403921568627453,20.594594594594604,2.5298804780876445,-1.4941176470588218,0.4980392156862763,20.674418604651166,12.021871728469488,123.80353503088963,27.102901163782814,111.93196852592875,54.433457014149745,3317.975758461352,1
-39.12422454229082,-18.418895705521464,-24.177961717537496,120.86608122941823,-126.30998208196056,125.27481713688607,-39.42670598146589,-2.2814371257485004,-23.698564593301448,24.403921568627453,20.594594594594604,2.5298804780876445,-1.4941176470588218,0.4980392156862763,20.674418604651166,12.021871728469488,123.80353503088963,27.240360655116593,114.21137599935233,54.4876462174924,3312.8641863070357,1
-39.12422454229082,-18.418895705521464,-24.177961717537496,120.86608122941823,-126.30998208196056,125.27481713688607,-39.42670598146589,2.2814371257485053,-11.545454545454557,15.439215686274512,17.162162162162172,-10.625498007968133,-2.490196078431371,-2.490196078431371,23.037209302325582,10.633921123349527,60.39797326016628,27.240360655116593,114.21137599935233,54.4876462174924,3312.8641863070357,1
-39.12422454229082,-18.418895705521464,-24.177961717537496,120.86608122941823,-126.30998208196056,125.27481713688607,-39.42670598146589,-3.802395209580836,-15.191387559808625,-8.466666666666665,21.73873873873875,-6.577689243027893,5.4784313725490215,-2.490196078431371,26.581395348837212,11.290862527205046,79.38227430479792,27.240360655116593,114.21137599935233,54.4876462174924,3312.8641863070357,1
-39.22030564381904,-18.356564417177903,-24.309363683393677,120.86608122941823,-126.32466331425928,125.23058167885753,-39.3732097725358,-3.802395209580836,-15.191387559808625,-8.466666666666665,21.73873873873875,-6.577689243027893,5.4784313725490215,-2.490196078431371,26.581395348837212,11.290862527205046,79.38227430479792,27.295411248130204,115.51128453721296,54.51066977666327,3311.1394265742683,1
-39.22030564381904,-18.356564417177903,-24.309363683393677,120.86608122941823,-126.32466331425928,125.23058167885753,-39.3732097725358,-3.802395209580836,-38.28229665071771,-8.466666666666665,29.74774774774776,7.589641434262944,3.4862745098039234,1.4941176470588253,23.037209302325582,14.48829364602053,194.2889045065313,27.295411248130204,115.51128453721296,54.51066977666327,3311.1394265742683,1
-39.22030564381904,-18.356564417177903,-24.309363683393677,120.86608122941823,-126.32466331425928,125.23058167885753,-39.3732097725358,3.802395209580841,-12.760765550239245,32.372549019607845,27.45945945945947,2.5298804780876445,-15.439215686274508,-1.4941176470588218,25.400000000000002,15.157297881288548,147.6445459825256,27.295411248130204,115.51128453721296,54.51066977666327,3311.1394265742683,1
-39.7775760326827,-17.82674846625766,-24.1560613898948,120.58726673984631,-126.25125715276573,125.18634622082897,-39.42670598146589,3.802395209580841,-12.760765550239245,32.372549019607845,27.45945945945947,2.5298804780876445,-15.439215686274508,-1.4941176470588218,25.400000000000002,15.157297881288548,147.6445459825256,27.253461962945053,127.65512544518045,54.190025531999595,3316.460280531064,1
-39.7775760326827,-17.82674846625766,-24.1560613898948,120.58726673984631,-126.25125715276573,125.18634622082897,-39.42670598146589,-9.886227544910177,-55.29665071770336,15.439215686274512,35.46846846846848,13.6613545816733,22.411764705882355,3.4862745098039234,19.493023255813956,21.892872433816258,271.2153823988728,27.253461962945053,127.65512544518045,54.190025531999595,3316.460280531064,1
-39.7775760326827,-17.82674846625766,-24.1560613898948,120.58726673984631,-126.25125715276573,125.18634622082897,-39.42670598146589,-6.844311377245506,-34.63636363636365,-11.454901960784312,12.585585585585596,-20.74501992031873,-2.490196078431371,1.4941176470588253,23.037209302325582,14.160963188514195,128.76761831665974,27.253461962945053,127.65512544518045,54.190025531999595,3316.460280531064,1
-39.04735966106824,-18.450061349693243,-23.71805483704086,120.58726673984631,-126.25125715276573,125.18634622082897,-39.42670598146589,-6.844311377245506,-34.63636363636365,-11.454901960784312,12.585585585585596,-20.74501992031873,-2.490196078431371,1.4941176470588253,23.037209302325582,14.160963188514195,128.76761831665974,27.07182528260078,114.49800658307625,54.251794308860134,3307.23411582728,1
-39.04735966106824,-18.450061349693243,-23.71805483704086,120.58726673984631,-126.25125715276573,125.18634622082897,-39.42670598146589,-5.323353293413171,-13.976076555023935,-0.49803921568627274,18.30630630630632,-6.577689243027893,-0.49803921568627274,-1.4941176470588218,20.674418604651166,8.418505010106731,66.46369971133178,27.07182528260078,114.49800658307625,54.251794308860134,3307.23411582728,1
-39.04735966106824,-18.450061349693243,-23.71805483704086,120.58726673984631,-126.25125715276573,125.18634622082897,-39.42670598146589,-6.844311377245506,-33.42105263157896,-22.41176470588235,19.45045045045046,6.5776892430278835,3.4862745098039234,-2.490196078431371,19.493023255813956,14.2718452815293,122.36188188081942,27.07182528260078,114.49800658307625,54.251794308860134,3307.23411582728,1
-38.89362989862309,-18.91754601226993,-23.739955164683558,120.58726673984631,-126.25125715276573,125.1421107628004,-39.3732097725358,-6.844311377245506,-33.42105263157896,-22.41176470588235,19.45045045045046,6.5776892430278835,3.4862745098039234,-2.490196078431371,19.493023255813956,14.2718452815293,122.36188188081942,27.183710358525527,108.65556923498974,54.41492263893326,3289.898250365552,1
-38.89362989862309,-18.91754601226993,-23.739955164683558,120.58726673984631,-126.25125715276573,125.1421107628004,-39.3732097725358,8.365269461077848,-0.6076555023923582,-4.482352941176469,18.30630630630632,14.673306772908361,-3.48627450980392,-0.49803921568627274,26.581395348837212,9.625075007273594,88.38591843308625,27.183710358525527,108.65556923498974,54.41492263893326,3289.898250365552,1
-38.89362989862309,-18.91754601226993,-23.739955164683558,120.58726673984631,-126.25125715276573,125.1421107628004,-39.3732097725358,-0.7604790419161651,-5.468899521531114,-17.431372549019606,28.603603603603617,9.613545816733062,-3.48627450980392,-0.49803921568627274,20.674418604651166,10.817079107868114,106.95521083234631,27.183710358525527,108.65556923498974,54.41492263893326,3289.898250365552,1
-39.066575881373886,-19.011042944785267,-23.805656147611646,120.68020490303695,-126.33934454655798,125.23058167885753,-39.15922493681552,-0.7604790419161651,-5.468899521531114,-17.431372549019606,28.603603603603617,9.613545816733062,-3.48627450980392,-0.49803921568627274,20.674418604651166,10.817079107868114,106.95521083234631,27.294424991256932,109.68473137594029,54.49896799847795,3290.7141676042,1
-39.066575881373886,-19.011042944785267,-23.805656147611646,120.68020490303695,-126.33934454655798,125.23058167885753,-39.15922493681552,3.802395209580841,-10.33014354066987,-6.474509803921567,13.72972972972974,-20.74501992031873,-3.48627450980392,-1.4941176470588218,20.674418604651166,10.092076120716833,58.424108682596156,27.294424991256932,109.68473137594029,54.49896799847795,3290.7141676042,1
-39.066575881373886,-19.011042944785267,-23.805656147611646,120.68020490303695,-126.33934454655798,125.23058167885753,-39.15922493681552,-2.2814371257485004,-33.42105263157896,-17.431372549019606,12.585585585585596,-9.613545816733073,2.4901960784313744,0.4980392156862763,25.400000000000002,12.965153625347925,140.5270203350246,27.294424991256932,109.68473137594029,54.49896799847795,3290.7141676042,1
-39.73914359207142,-18.54355828220858,-23.63045352647007,120.72667398463227,-126.33934454655798,125.58446534308601,-39.26621735467569,-2.2814371257485004,-33.42105263157896,-17.431372549019606,12.585585585585596,-9.613545816733073,2.4901960784313744,0.4980392156862763,25.400000000000002,12.965153625347925,140.5270203350246,27.304385133583356,122.43653924722791,54.30022859777031,3315.8236108568385,1
-39.73914359207142,-18.54355828220858,-23.63045352647007,120.72667398463227,-126.33934454655798,125.58446534308601,-39.26621735467569,2.2814371257485053,9.114832535885153,28.38823529411765,17.162162162162172,-12.64940239043825,-8.466666666666665,0.4980392156862763,23.037209302325582,12.699748086628784,94.44298711129257,27.304385133583356,122.43653924722791,54.30022859777031,3315.8236108568385,1
-39.73914359207142,-18.54355828220858,-23.63045352647007,120.72667398463227,-126.33934454655798,125.58446534308601,-39.26621735467569,6.8443113772455115,-9.11483253588518,-0.49803921568627274,12.585585585585596,-18.72111553784861,-17.431372549019606,-3.48627450980392,23.037209302325582,11.464842576675036,62.032699119416485,27.304385133583356,122.43653924722791,54.30022859777031,3315.8236108568385,1
-39.25873808443032,-18.792883435582812,-23.4114502500431,120.86608122941823,-126.39806947575283,125.89411354928595,-39.319713563605774,6.8443113772455115,-9.11483253588518,-0.49803921568627274,12.585585585585596,-18.72111553784861,-17.431372549019606,-3.48627450980392,23.037209302325582,11.464842576675036,62.032699119416485,27.15435725668541,115.21981627221736,54.35680497168138,3322.945661100877,1
-39.25873808443032,-18.792883435582812,-23.4114502500431,120.86608122941823,-126.39806947575283,125.89411354928595,-39.319713563605774,9.886227544910183,4.253588516746397,35.36078431372549,25.17117117117118,-7.589641434262953,2.4901960784313744,3.4862745098039234,27.76279069767442,14.50008428334074,166.35918183545317,27.15435725668541,115.21981627221736,54.35680497168138,3322.945661100877,1
-39.25873808443032,-18.792883435582812,-23.4114502500431,120.86608122941823,-126.39806947575283,125.89411354928595,-39.319713563605774,-5.323353293413171,-13.976076555023935,9.462745098039218,11.441441441441452,-27.82868525896415,-17.431372549019606,-3.48627450980392,23.037209302325582,13.998394751003879,71.09058327848366,27.15435725668541,115.21981627221736,54.35680497168138,3322.945661100877,1
-38.39400817067635,-18.82404907975459,-23.389549922400406,121.1913648005854,-126.50083810184381,125.80564263322881,-39.15922493681552,-5.323353293413171,-13.976076555023935,9.462745098039218,11.441441441441452,-27.82868525896415,-17.431372549019606,-3.48627450980392,23.037209302325582,13.998394751003879,71.09058327848366,26.869202390943784,104.82681068146782,54.46832126758013,3344.1843532165367,1
-38.39400817067635,-18.82404907975459,-23.389549922400406,121.1913648005854,-126.50083810184381,125.80564263322881,-39.15922493681552,-0.7604790419161651,-26.129186602870824,2.4901960784313744,14.873873873873883,4.553784860557764,-2.490196078431371,-0.49803921568627274,20.674418604651166,9.058771794552353,101.26754439793581,26.869202390943784,104.82681068146782,54.46832126758013,3344.1843532165367,1
-38.39400817067635,-18.82404907975459,-23.389549922400406,121.1913648005854,-126.50083810184381,125.80564263322881,-39.15922493681552,-6.844311377245506,-35.851674641148335,9.462745098039218,17.162162162162172,2.5298804780876445,11.454901960784316,0.4980392156862763,21.855813953488372,13.207441110830231,133.75974898576104,26.869202390943784,104.82681068146782,54.46832126758013,3344.1843532165367,1
-39.25873808443032,-18.699386503067476,-23.542852215899284,121.1913648005854,-126.51551933414251,125.89411354928595,-39.105728727885435,-6.844311377245506,-35.851674641148335,9.462745098039218,17.162162162162172,2.5298804780876445,11.454901960784316,0.4980392156862763,21.855813953488372,13.207441110830231,133.75974898576104,27.166992267799028,115.52252769835961,54.47786783985072,3343.882797575311,1
-39.25873808443032,-18.699386503067476,-23.542852215899284,121.1913648005854,-126.51551933414251,125.89411354928595,-39.105728727885435,2.2814371257485053,-11.545454545454557,-18.427450980392155,30.891891891891902,17.70916334661354,3.4862745098039234,-1.4941176470588218,30.12558139534884,14.49517143028903,141.0077243304349,27.166992267799028,115.52252769835961,54.47786783985072,3343.882797575311,1
-39.25873808443032,-18.699386503067476,-23.542852215899284,121.1913648005854,-126.51551933414251,125.89411354928595,-39.105728727885435,-2.2814371257485004,-18.83732057416269,67.23529411764706,16.01801801801803,-3.541832669322714,0.4980392156862763,-3.48627450980392,24.218604651162792,17.014602610193997,490.3893150209834,27.166992267799028,115.52252769835961,54.47786783985072,3343.882797575311,1
-39.23952186412468,-18.63705521472392,-23.696154509398163,121.1913648005854,-126.53020056644124,125.89411354928595,-39.05223251895535,-2.2814371257485004,-18.83732057416269,67.23529411764706,16.01801801801803,-3.541832669322714,0.4980392156862763,-3.48627450980392,24.218604651162792,17.014602610193997,490.3893150209834,27.19091052941559,115.2753977395037,54.508191508235825,3341.3828216714865,1
-39.23952186412468,-18.63705521472392,-23.696154509398163,121.1913648005854,-126.53020056644124,125.89411354928595,-39.05223251895535,-0.7604790419161651,-13.976076555023935,8.466666666666669,16.01801801801803,-1.5179282868525945,7.4705882352941195,3.4862745098039234,24.218604651162792,9.48932949559228,65.80001596858743,27.19091052941559,115.2753977395037,54.508191508235825,3341.3828216714865,1
-39.23952186412468,-18.63705521472392,-23.696154509398163,121.1913648005854,-126.53020056644124,125.89411354928595,-39.05223251895535,5.323353293413176,-12.760765550239245,-55.28235294117647,6.864864864864874,-5.5657370517928335,-2.490196078431371,-0.49803921568627274,27.76279069767442,14.568512461659832,343.5295424425707,27.19091052941559,115.2753977395037,54.508191508235825,3341.3828216714865,1
-39.277954304735964,-17.857914110429437,-23.4114502500431,121.37724112696668,-126.53020056644124,126.02681992337162,-39.26621735467569,5.323353293413176,-12.760765550239245,-55.28235294117647,6.864864864864874,-5.5657370517928335,-2.490196078431371,-0.49803921568627274,27.76279069767442,14.568512461659832,343.5295424425707,26.849106221736168,123.56763941621453,54.21553516247974,3390.7315019586495,1
-39.277954304735964,-17.857914110429437,-23.4114502500431,121.37724112696668,-126.53020056644124,126.02681992337162,-39.26621735467569,8.365269461077848,-0.6076555023923582,12.450980392156865,19.45045045045046,-7.589641434262953,1.4941176470588253,-0.49803921568627274,26.581395348837212,9.629693681490348,89.78565385973299,26.849106221736168,123.56763941621453,54.21553516247974,3390.7315019586495,1
-39.277954304735964,-17.857914110429437,-23.4114502500431,121.37724112696668,-126.53020056644124,126.02681992337162,-39.26621735467569,2.2814371257485053,-11.545454545454557,-14.44313725490196,12.585585585585596,2.5298804780876445,8.466666666666669,1.4941176470588253,20.674418604651166,9.252587238519364,46.90991447515696,26.849106221736168,123.56763941621453,54.21553516247974,3390.7315019586495,1
-38.49008927220457,-18.16957055214723,-23.433350577685797,121.84193194291987,-126.61828796023349,126.11529083942875,-39.3732097725358,2.2814371257485053,-11.545454545454557,-14.44313725490196,12.585585585585596,2.5298804780876445,8.466666666666669,1.4941176470588253,20.674418604651166,9.252587238519364,46.90991447515696,26.697670134012537,111.22270688741308,54.48161769091763,3409.985797135687,1
-38.49008927220457,-18.16957055214723,-23.433350577685797,121.84193194291987,-126.61828796023349,126.11529083942875,-39.3732097725358,0.7604790419161702,-13.976076555023935,-0.49803921568627274,16.01801801801803,-24.792828685258968,-4.482352941176469,1.4941176470588253,24.218604651162792,10.780064594412682,106.65781259310941,26.697670134012537,111.22270688741308,54.48161769091763,3409.985797135687,1
-38.49008927220457,-18.16957055214723,-23.433350577685797,121.84193194291987,-126.61828796023349,126.11529083942875,-39.3732097725358,9.886227544910183,7.899521531100465,34.36470588235294,33.18018018018019,2.5298804780876445,-1.4941176470588218,2.4901960784313744,24.218604651162792,14.50792924916055,194.2188263436772,26.697670134012537,111.22270688741308,54.48161769091763,3409.985797135687,1
-38.1057648660917,-18.138404907975453,-23.696154509398163,122.21368459568237,-126.67701288942834,125.89411354928595,-39.319713563605774,9.886227544910183,7.899521531100465,34.36470588235294,33.18018018018019,2.5298804780876445,-1.4941176470588218,2.4901960784313744,24.218604651162792,14.50792924916055,194.2188263436772,26.646774761155104,106.20348582680464,54.68274800435199,3428.042692834741,1
-38.1057648660917,-18.138404907975453,-23.696154509398163,122.21368459568237,-126.67701288942834,125.89411354928595,-39.319713563605774,-8.365269461077842,-24.913875598086136,-12.450980392156861,21.73873873873875,-1.5179282868525945,-6.474509803921567,-2.490196078431371,19.493023255813956,12.180565201884885,80.25023881389424,26.646774761155104,106.20348582680464,54.68274800435199,3428.042692834741,1
-38.1057648660917,-18.138404907975453,-23.696154509398163,122.21368459568237,-126.67701288942834,125.89411354928595,-39.319713563605774,0.7604790419161702,-12.760765550239245,54.286274509803924,29.74774774774776,27.82868525896414,10.458823529411767,0.4980392156862763,26.581395348837212,20.36527627532581,324.00415349562996,26.646774761155104,106.20348582680464,54.68274800435199,3428.042692834741,1
-38.643819034649724,-18.356564417177903,-23.739955164683558,122.26015367727769,-126.69169412172707,125.71717171717171,-39.26621735467569,0.7604790419161702,-12.760765550239245,54.286274509803924,29.74774774774776,27.82868525896414,10.458823529411767,0.4980392156862763,26.581395348837212,20.36527627532581,324.00415349562996,26.913446205503732,110.44645901815734,54.78555775304638,3421.861045338801,1
-38.643819034649724,-18.356564417177903,-23.739955164683558,122.26015367727769,-126.69169412172707,125.71717171717171,-39.26621735467569,2.2814371257485053,-24.913875598086136,-42.33333333333333,1.1441441441441533,-6.577689243027893,12.450980392156865,3.4862745098039234,26.581395348837212,14.971141211892252,220.4661961815156,26.913446205503732,110.44645901815734,54.78555775304638,3421.861045338801,1
-38.643819034649724,-18.356564417177903,-23.739955164683558,122.26015367727769,-126.69169412172707,125.71717171717171,-39.26621735467569,3.802395209580841,-9.11483253588518,5.4784313725490215,24.02702702702704,-2.5298804780876543,-3.48627450980392,-0.49803921568627274,25.400000000000002,9.292110043577491,96.86651361487732,26.913446205503732,110.44645901815734,54.78555775304638,3421.861045338801,1
-39.29717052504161,-18.761717791411034,-23.47715123297119,122.16721551408705,-126.70637535402577,125.80564263322881,-39.15922493681552,3.802395209580841,-9.11483253588518,5.4784313725490215,24.02702702702704,-2.5298804780876543,-3.48627450980392,-0.49803921568627274,25.400000000000002,9.292110043577491,96.86651361487732,27.178679849807946,115.7021903197399,54.80202817948975,3409.1101766044862,1
-39.29717052504161,-18.761717791411034,-23.47715123297119,122.16721551408705,-126.70637535402577,125.80564263322881,-39.15922493681552,-2.2814371257485004,-23.698564593301448,0.4980392156862763,20.594594594594604,-10.625498007968133,-0.49803921568627274,-1.4941176470588218,20.674418604651166,10.045588625586902,103.8163864575455,27.178679849807946,115.7021903197399,54.80202817948975,3409.1101766044862,1
-39.29717052504161,-18.761717791411034,-23.47715123297119,122.16721551408705,-126.70637535402577,125.80564263322881,-39.15922493681552,-2.2814371257485004,-15.191387559808625,-15.439215686274508,26.315315315315324,-17.70916334661355,-0.49803921568627274,-1.4941176470588218,20.674418604651166,12.450386812644595,95.75397712971876,27.178679849807946,115.7021903197399,54.80202817948975,3409.1101766044862,1
-39.662278710848845,-18.418895705521464,-23.214347301258826,122.07427735089641,-126.66233165712964,126.07105538140019,-39.3732097725358,-2.2814371257485004,-15.191387559808625,-15.439215686274508,26.315315315315324,-17.70916334661355,-0.49803921568627274,-1.4941176470588218,20.674418604651166,12.450386812644595,95.75397712971876,27.09850723920971,124.13535419544502,54.56917345255889,3423.453378245772,1
-39.662278710848845,-18.418895705521464,-23.214347301258826,122.07427735089641,-126.66233165712964,126.07105538140019,-39.3732097725358,-0.7604790419161651,-21.26794258373207,0.4980392156862763,10.297297297297307,-8.601593625498012,-1.4941176470588218,-2.490196078431371,21.855813953488372,8.408184930388549,79.10042496264191,27.09850723920971,124.13535419544502,54.56917345255889,3423.453378245772,1
-39.662278710848845,-18.418895705521464,-23.214347301258826,122.07427735089641,-126.66233165712964,126.07105538140019,-39.3732097725358,-5.323353293413171,-30.99043062200958,-17.431372549019606,18.30630630630632,5.565737051792824,0.4980392156862763,-0.49803921568627274,21.855813953488372,12.558636525925303,125.01625534922638,27.09850723920971,124.13535419544502,54.56917345255889,3423.453378245772,1
-38.874413678317445,-18.574723926380358,-23.25814795654422,122.35309184046832,-126.73573781862319,126.15952629745732,-39.319713563605774,-5.323353293413171,-30.99043062200958,-17.431372549019606,18.30630630630632,5.565737051792824,0.4980392156862763,-0.49803921568627274,21.855813953488372,12.558636525925303,125.01625534922638,26.90242852041401,112.97993662737423,54.728654574464294,3435.282001819365,1
-38.874413678317445,-18.574723926380358,-23.25814795654422,122.35309184046832,-126.73573781862319,126.15952629745732,-39.319713563605774,-5.323353293413171,-26.129186602870824,-13.44705882352941,19.45045045045046,2.5298804780876445,-4.482352941176469,-1.4941176470588218,23.037209302325582,11.986701192364048,97.17214797827764,26.90242852041401,112.97993662737423,54.728654574464294,3435.282001819365,1
-38.874413678317445,-18.574723926380358,-23.25814795654422,122.35309184046832,-126.73573781862319,126.15952629745732,-39.319713563605774,6.8443113772455115,-0.6076555023923582,27.3921568627451,20.594594594594604,-4.553784860557774,8.466666666666669,2.4901960784313744,26.581395348837212,12.191345161433826,119.69190128377149,26.90242852041401,112.97993662737423,54.728654574464294,3435.282001819365,1
-39.39325162656983,-18.263067484662567,-23.520951888256587,122.306622758873,-126.73573781862319,126.20376175548589,-39.319713563605774,6.8443113772455115,-0.6076555023923582,27.3921568627451,20.594594594594604,-4.553784860557774,8.466666666666669,2.4901960784313744,26.581395348837212,12.191345161433826,119.69190128377149,27.059090333162995,121.00998820922081,54.696880710597384,3435.219251976165,1
-39.39325162656983,-18.263067484662567,-23.520951888256587,122.306622758873,-126.73573781862319,126.20376175548589,-39.319713563605774,2.2814371257485053,-20.05263157894738,24.403921568627453,18.30630630630632,-1.5179282868525945,1.4941176470588253,-0.49803921568627274,24.218604651162792,11.596623297548767,121.9224571432472,27.059090333162995,121.00998820922081,54.696880710597384,3435.219251976165,1
-39.39325162656983,-18.263067484662567,-23.520951888256587,122.306622758873,-126.73573781862319,126.20376175548589,-39.319713563605774,-0.7604790419161651,-12.760765550239245,-36.35686274509804,12.585585585585596,-2.5298804780876543,-6.474509803921567,-2.490196078431371,21.855813953488372,11.976761654596002,146.8983705234818,27.059090333162995,121.00998820922081,54.696880710597384,3435.219251976165,1
-39.60463004993191,-18.20073619631901,-23.520951888256587,122.306622758873,-126.73573781862319,126.33646812957156,-39.3732097725358,-0.7604790419161651,-12.760765550239245,-36.35686274509804,12.585585585585596,-2.5298804780876543,-6.474509803921567,-2.490196078431371,21.855813953488372,11.976761654596002,146.8983705234818,27.108772711502507,124.18601171896982,54.67610361448286,3437.491513556976,1
-39.60463004993191,-18.20073619631901,-23.520951888256587,122.306622758873,-126.73573781862319,126.33646812957156,-39.3732097725358,5.323353293413176,16.406698564593285,47.31372549019608,21.73873873873875,2.5298804780876445,-6.474509803921567,-0.49803921568627274,23.037209302325582,15.415269360870294,240.98794599674324,27.108772711502507,124.18601171896982,54.67610361448286,3437.491513556976,1
-39.60463004993191,-18.20073619631901,-23.520951888256587,122.306622758873,-126.73573781862319,126.33646812957156,-39.3732097725358,-12.928143712574848,-38.28229665071771,-26.396078431372548,14.873873873873883,-7.589641434262953,0.4980392156862763,-4.482352941176469,19.493023255813956,15.56793118943483,152.8132155468311,27.108772711502507,124.18601171896982,54.67610361448286,3437.491513556976,1
-38.73990013617794,-18.356564417177903,-23.389549922400406,122.58543724844492,-126.79446274781805,126.42493904562869,-39.3732097725358,-12.928143712574848,-38.28229665071771,-26.396078431372548,14.873873873873883,-7.589641434262953,0.4980392156862763,-4.482352941176469,19.493023255813956,15.56793118943483,152.8132155468311,26.82867149191875,112.74076163581039,54.777183862674406,3454.802156195588,1
-38.73990013617794,-18.356564417177903,-23.389549922400406,122.58543724844492,-126.79446274781805,126.42493904562869,-39.3732097725358,-0.7604790419161651,-13.976076555023935,4.482352941176472,27.45945945945947,-17.70916334661355,-23.4078431372549,-3.48627450980392,21.855813953488372,14.142182868092098,103.0548651494531,26.82867149191875,112.74076163581039,54.777183862674406,3454.802156195588,1
-38.73990013617794,-18.356564417177903,-23.389549922400406,122.58543724844492,-126.79446274781805,126.42493904562869,-39.3732097725358,2.2814371257485053,-21.26794258373207,6.4745098039215705,8.009009009009018,-32.888446215139446,0.4980392156862763,-1.4941176470588218,23.037209302325582,11.993838862827662,146.80283025146016,26.82867149191875,112.74076163581039,54.777183862674406,3454.802156195588,1
-37.490845816311094,-18.450061349693243,-23.78375581996895,123.09659714599337,-126.91191260620772,126.07105538140019,-39.212721145745604,2.2814371257485053,-21.26794258373207,6.4745098039215705,8.009009009009018,-32.888446215139446,0.4980392156862763,-1.4941176470588218,23.037209302325582,11.993838862827662,146.80283025146016,26.574887661991095,96.48068099571135,55.11013810521852,3473.73103385278,1
-37.490845816311094,-18.450061349693243,-23.78375581996895,123.09659714599337,-126.91191260620772,126.07105538140019,-39.212721145745604,-0.7604790419161651,-22.483253588516757,-11.454901960784312,19.45045045045046,-3.541832669322714,4.482352941176472,-0.49803921568627274,21.855813953488372,10.56589047766769,90.43802892048818,26.574887661991095,96.48068099571135,55.11013810521852,3473.73103385278,1
-37.490845816311094,-18.450061349693243,-23.78375581996895,123.09659714599337,-126.91191260620772,126.07105538140019,-39.212721145745604,-0.7604790419161651,-32.205741626794264,-27.392156862745097,17.162162162162172,-0.5059760956175348,-0.49803921568627274,1.4941176470588253,25.400000000000002,13.177334081497543,191.63108060405486,26.574887661991095,96.48068099571135,55.11013810521852,3473.73103385278,1
-37.952035103646544,-18.574723926380358,-23.76185549232625,123.37541163556529,-127.0,125.71717171717171,-38.89174389216515,-0.7604790419161651,-32.205741626794264,-27.392156862745097,17.162162162162172,-0.5059760956175348,-0.49803921568627274,1.4941176470588253,25.400000000000002,13.177334081497543,191.63108060405486,26.762871507451052,100.62461995742792,55.237330351423964,3488.825174283795,1
-37.952035103646544,-18.574723926380358,-23.76185549232625,123.37541163556529,-127.0,125.71717171717171,-38.89174389216515,-0.7604790419161651,-22.483253588516757,7.4705882352941195,16.01801801801803,-3.541832669322714,3.4862745098039234,-1.4941176470588218,24.218604651162792,9.934146045136664,91.77649090636312,26.762871507451052,100.62461995742792,55.237330351423964,3488.825174283795,1
-37.952035103646544,-18.574723926380358,-23.76185549232625,123.37541163556529,-127.0,125.71717171717171,-38.89174389216515,0.7604790419161702,-20.05263157894738,-30.380392156862744,4.576576576576587,9.613545816733062,3.4862745098039234,-1.4941176470588218,26.581395348837212,12.118176584591987,140.73933597999593,26.762871507451052,100.62461995742792,55.237330351423964,3488.825174283795,1
-40.29641398093509,-18.294233128834346,-23.301948611829616,123.00365898280279,-126.91191260620772,125.98258446534308,-39.05223251895535,0.7604790419161702,-20.05263157894738,-30.380392156862744,4.576576576576587,9.613545816733062,3.4862745098039234,-1.4941176470588218,26.581395348837212,12.118176584591987,140.73933597999593,27.297531907199684,132.99750496481744,54.866613574488916,3488.2620213206274,1
-40.29641398093509,-18.294233128834346,-23.301948611829616,123.00365898280279,-126.91191260620772,125.98258446534308,-39.05223251895535,15.970059880239523,4.253588516746397,46.31764705882353,28.603603603603617,6.5776892430278835,-8.466666666666665,4.482352941176472,28.94418604651163,17.951974244599466,233.03531368608623,27.297531907199684,132.99750496481744,54.866613574488916,3488.2620213206274,1
-40.29641398093509,-18.294233128834346,-23.301948611829616,123.00365898280279,-126.91191260620772,125.98258446534308,-39.05223251895535,-3.802395209580836,-23.698564593301448,7.4705882352941195,16.01801801801803,4.553784860557764,-5.478431372549018,-2.490196078431371,23.037209302325582,10.81864845875727,77.11225470491237,27.297531907199684,132.99750496481744,54.866613574488916,3488.2620213206274,1
-39.931305795127855,-18.730552147239255,-23.25814795654422,122.91072081961215,-126.8825501416103,126.46917450365726,-39.319713563605774,-3.802395209580836,-23.698564593301448,7.4705882352941195,16.01801801801803,4.553784860557764,-5.478431372549018,-2.490196078431371,23.037209302325582,10.81864845875727,77.11225470491237,27.306668632970442,124.66087856020343,54.96647364113187,3467.440324440928,1
-39.931305795127855,-18.730552147239255,-23.25814795654422,122.91072081961215,-126.8825501416103,126.46917450365726,-39.319713563605774,-8.365269461077842,-20.05263157894738,-11.454901960784312,30.891891891891902,2.5298804780876445,6.4745098039215705,1.4941176470588253,21.855813953488372,12.889877096907231,108.0923772784575,27.306668632970442,124.66087856020343,54.96647364113187,3467.440324440928,1
-39.931305795127855,-18.730552147239255,-23.25814795654422,122.91072081961215,-126.8825501416103,126.46917450365726,-39.319713563605774,-6.844311377245506,-23.698564593301448,-1.4941176470588218,19.45045045045046,-19.733067729083672,-9.462745098039214,-1.4941176470588218,20.674418604651166,12.856474143361138,82.18700458051624,27.306668632970442,124.66087856020343,54.96647364113187,3467.440324440928,1
-38.08654864578605,-18.48122699386502,-23.433350577685797,123.32894255396997,-126.97063753540257,126.33646812957156,-39.26621735467569,-6.844311377245506,-23.698564593301448,-1.4941176470588218,19.45045045045046,-19.733067729083672,-9.462745098039214,-1.4941176470588218,20.674418604651166,12.856474143361138,82.18700458051624,26.667042072445625,103.93472978128243,55.08117337517359,3499.4493804090594,1
-38.08654864578605,-18.48122699386502,-23.433350577685797,123.32894255396997,-126.97063753540257,126.33646812957156,-39.26621735467569,2.2814371257485053,-10.33014354066987,-5.478431372549018,12.585585585585596,12.649402390438242,2.4901960784313744,-1.4941176470588218,24.218604651162792,8.940989798955528,59.39689474600546,26.667042072445625,103.93472978128243,55.08117337517359,3499.4493804090594,1
-38.08654864578605,-18.48122699386502,-23.433350577685797,123.32894255396997,-126.97063753540257,126.33646812957156,-39.26621735467569,-2.2814371257485004,-23.698564593301448,15.439215686274512,22.882882882882893,-1.5179282868525945,0.4980392156862763,-0.49803921568627274,19.493023255813956,10.788641282780807,111.49179020127713,26.667042072445625,103.93472978128243,55.08117337517359,3499.4493804090594,1
-38.79754879709487,-18.044907975460113,-24.1341610622521,123.37541163556529,-126.98531876770127,126.33646812957156,-39.212721145745604,-2.2814371257485004,-23.698564593301448,15.439215686274512,22.882882882882893,-1.5179282868525945,0.4980392156862763,-0.49803921568627274,19.493023255813956,10.788641282780807,111.49179020127713,26.992205944935694,113.79434068152074,55.184826891092506,3496.7366366335946,1
-38.79754879709487,-18.044907975460113,-24.1341610622521,123.37541163556529,-126.98531876770127,126.33646812957156,-39.212721145745604,-3.802395209580836,-24.913875598086136,-12.450980392156861,8.009009009009018,-16.69721115537849,0.4980392156862763,0.4980392156862763,23.037209302325582,11.238344887238686,93.41904816714305,26.992205944935694,113.79434068152074,55.184826891092506,3496.7366366335946,1
-38.79754879709487,-18.044907975460113,-24.1341610622521,123.37541163556529,-126.98531876770127,126.33646812957156,-39.212721145745604,15.970059880239523,16.406698564593285,27.3921568627451,25.17117117117118,8.601593625498003,21.415686274509806,4.482352941176472,26.581395348837212,18.252639333596324,71.73586329108694,26.992205944935694,113.79434068152074,55.184826891092506,3496.7366366335946,1
-39.62384627023756,-17.48392638036809,-23.937058113467828,123.23600439077933,-126.91191260620772,126.29223267154299,-39.42670598146589,15.970059880239523,16.406698564593285,27.3921568627451,25.17117117117118,8.601593625498003,21.415686274509806,4.482352941176472,26.581395348837212,18.252639333596324,71.73586329108694,27.014943588024494,129.6490474283246,54.88566296153841,3514.23760741154,1
-39.62384627023756,-17.48392638036809,-23.937058113467828,123.23600439077933,-126.91191260620772,126.29223267154299,-39.42670598146589,-9.886227544910177,-17.622009569378,14.443137254901963,24.02702702702704,-1.5179282868525945,-5.478431372549018,-4.482352941176469,23.037209302325582,12.561790412390106,73.55830683601054,27.014943588024494,129.6490474283246,54.88566296153841,3514.23760741154,1
-39.62384627023756,-17.48392638036809,-23.937058113467828,123.23600439077933,-126.91191260620772,126.29223267154299,-39.42670598146589,-2.2814371257485004,-16.406698564593313,18.42745098039216,17.162162162162172,12.649402390438242,8.466666666666669,2.4901960784313744,24.218604651162792,12.7628273274494,61.40158496842755,27.014943588024494,129.6490474283246,54.88566296153841,3514.23760741154,1
-39.201089423513395,-17.515092024539868,-23.87135713053974,123.18953530918401,-126.82382521241544,126.29223267154299,-39.74768323504634,-2.2814371257485004,-16.406698564593313,18.42745098039216,17.162162162162172,12.649402390438242,8.466666666666669,2.4901960784313744,24.218604651162792,12.7628273274494,61.40158496842755,26.862512859530998,124.28088024337958,54.85866148808787,3511.9317643903582,1
-39.201089423513395,-17.515092024539868,-23.87135713053974,123.18953530918401,-126.82382521241544,126.29223267154299,-39.74768323504634,-8.365269461077842,-33.42105263157896,-14.44313725490196,11.441441441441452,-8.601593625498012,7.4705882352941195,0.4980392156862763,21.855813953488372,13.262116977370875,103.87243750267349,26.862512859530998,124.28088024337958,54.85866148808787,3511.9317643903582,1
-39.201089423513395,-17.515092024539868,-23.87135713053974,123.18953530918401,-126.82382521241544,126.29223267154299,-39.74768323504634,-0.7604790419161651,-21.26794258373207,1.4941176470588253,29.74774774774776,-6.577689243027893,-14.44313725490196,-3.48627450980392,23.037209302325582,12.601824666314272,123.47914947134777,26.862512859530998,124.28088024337958,54.85866148808787,3511.9317643903582,1
-38.35557573006506,-17.546257668711647,-23.586652871184675,123.51481888035124,-126.83850644471417,126.20376175548589,-40.01516427969676,-0.7604790419161651,-21.26794258373207,1.4941176470588253,29.74774774774776,-6.577689243027893,-14.44313725490196,-3.48627450980392,23.037209302325582,12.601824666314272,123.47914947134777,26.496162089987127,114.60586246536471,54.882576473415845,3541.91011690377,1
-38.35557573006506,-17.546257668711647,-23.586652871184675,123.51481888035124,-126.83850644471417,126.20376175548589,-40.01516427969676,-5.323353293413171,-32.205741626794264,-10.458823529411763,16.01801801801803,24.79282868525896,-0.49803921568627274,-2.490196078431371,19.493023255813956,13.910002962853474,126.3882492697442,26.496162089987127,114.60586246536471,54.882576473415845,3541.91011690377,1
-38.35557573006506,-17.546257668711647,-23.586652871184675,123.51481888035124,-126.83850644471417,126.20376175548589,-40.01516427969676,5.323353293413176,-12.760765550239245,-16.435294117647057,22.882882882882893,28.840637450199196,2.4901960784313744,1.4941176470588253,25.400000000000002,14.453405877483972,114.15553577025415,26.496162089987127,114.60586246536471,54.882576473415845,3541.91011690377,1
-38.317143289453774,-17.45276073619631,-23.87135713053974,123.79363336992316,-126.85318767701287,125.80564263322881,-39.96166807076668,5.323353293413176,-12.760765550239245,-16.435294117647057,22.882882882882893,28.840637450199196,2.4901960784313744,1.4941176470588253,25.400000000000002,14.453405877483972,114.15553577025415,26.547087052063276,114.20026279187087,55.03925041221973,3555.6734768392735,1
-38.317143289453774,-17.45276073619631,-23.87135713053974,123.79363336992316,-126.85318767701287,125.80564263322881,-39.96166807076668,2.2814371257485053,-6.684210526315802,-23.4078431372549,21.73873873873875,-1.5179282868525945,-19.423529411764704,-2.490196078431371,24.218604651162792,12.720310994533676,106.89321463988095,26.547087052063276,114.20026279187087,55.03925041221973,3555.6734768392735,1
-38.317143289453774,-17.45276073619631,-23.87135713053974,123.79363336992316,-126.85318767701287,125.80564263322881,-39.96166807076668,5.323353293413176,12.76076555023922,34.36470588235294,30.891891891891902,-7.589641434262953,-1.4941176470588218,0.4980392156862763,27.76279069767442,15.085663201572464,190.95071199036803,26.547087052063276,114.20026279187087,55.03925041221973,3555.6734768392735,1
-39.14344076259646,-17.515092024539868,-23.958958441110525,123.70069520673252,-126.77978151551932,125.62870080111458,-40.122156697556875,5.323353293413176,12.76076555023922,34.36470588235294,30.891891891891902,-7.589641434262953,-1.4941176470588218,0.4980392156862763,27.76279069767442,15.085663201572464,190.95071199036803,26.872497076082283,123.31289781685341,55.05824855746096,3544.2199650972207,1
-39.14344076259646,-17.515092024539868,-23.958958441110525,123.70069520673252,-126.77978151551932,125.62870080111458,-40.122156697556875,5.323353293413176,4.253588516746397,22.411764705882355,14.873873873873883,-1.5179282868525945,9.462745098039218,-0.49803921568627274,25.400000000000002,10.467661623811736,90.090085996274,26.872497076082283,123.31289781685341,55.05824855746096,3544.2199650972207,1
-39.14344076259646,-17.515092024539868,-23.958958441110525,123.70069520673252,-126.77978151551932,125.62870080111458,-40.122156697556875,-5.323353293413171,-21.26794258373207,-0.49803921568627274,9.153153153153163,-31.876494023904385,-19.423529411764704,0.4980392156862763,21.855813953488372,13.73704560635355,132.33562350058793,26.872497076082283,123.31289781685341,55.05824855746096,3544.2199650972207,1
-39.566197609320625,-18.044907975460113,-23.696154509398163,123.6542261251372,-126.75041905092189,125.76140717520025,-40.28264532434713,-5.323353293413171,-21.26794258373207,-0.49803921568627274,9.153153153153163,-31.876494023904385,-19.423529411764704,0.4980392156862763,21.855813953488372,13.73704560635355,132.33562350058793,27.102420031392967,124.49346048087588,55.13176286999849,3529.480124760713,1
-39.566197609320625,-18.044907975460113,-23.696154509398163,123.6542261251372,-126.75041905092189,125.76140717520025,-40.28264532434713,-5.323353293413171,-24.913875598086136,-40.34117647058824,4.576576576576587,-1.5179282868525945,2.4901960784313744,2.4901960784313744,24.218604651162792,13.233988379192782,213.93347756890867,27.102420031392967,124.49346048087588,55.13176286999849,3529.480124760713,1
-39.566197609320625,-18.044907975460113,-23.696154509398163,123.6542261251372,-126.75041905092189,125.76140717520025,-40.28264532434713,-6.844311377245506,-50.435406698564606,-95.12549019607843,20.594594594594604,6.5776892430278835,11.454901960784316,-3.48627450980392,23.037209302325582,27.194484735303107,980.6569936564354,27.102420031392967,124.49346048087588,55.13176286999849,3529.480124760713,1
-38.58617037373279,-17.88907975460122,-23.47715123297119,123.8865715331138,-126.75041905092189,125.76140717520025,-40.49663016006741,-6.844311377245506,-50.435406698564606,-95.12549019607843,20.594594594594604,6.5776892430278835,11.454901960784316,-3.48627450980392,23.037209302325582,27.194484735303107,980.6569936564354,26.6508004537684,114.64642705663609,55.0842675068954,3558.1244151989836,1
-38.58617037373279,-17.88907975460122,-23.47715123297119,123.8865715331138,-126.75041905092189,125.76140717520025,-40.49663016006741,0.7604790419161702,-27.344497607655512,-13.44705882352941,20.594594594594604,-2.5298804780876543,0.4980392156862763,-1.4941176470588218,25.400000000000002,11.508583426066057,135.38876876381167,26.6508004537684,114.64642705663609,55.0842675068954,3558.1244151989836,1
-38.58617037373279,-17.88907975460122,-23.47715123297119,123.8865715331138,-126.75041905092189,125.76140717520025,-40.49663016006741,2.2814371257485053,-16.406698564593313,-20.419607843137253,13.72972972972974,-11.637450199203192,16.43529411764706,3.4862745098039234,25.400000000000002,13.724561511232874,62.257873784628266,26.6508004537684,114.64642705663609,55.0842675068954,3558.1244151989836,1
-38.16341352700863,-17.82674846625766,-23.12674599068804,124.39773143066225,-126.79446274781805,125.76140717520025,-40.76411120471778,2.2814371257485053,-16.406698564593313,-20.419607843137253,13.72972972972974,-11.637450199203192,16.43529411764706,3.4862745098039234,25.400000000000002,13.724561511232874,62.257873784628266,26.372302661318106,111.29521502499583,55.11707529586932,3606.879479290309,1
-38.16341352700863,-17.82674846625766,-23.12674599068804,124.39773143066225,-126.79446274781805,125.76140717520025,-40.76411120471778,-0.7604790419161651,-23.698564593301448,25.400000000000002,24.02702702702704,-13.661354581673312,-8.466666666666665,-2.490196078431371,20.674418604651166,14.897338324208395,100.16607447802413,26.372302661318106,111.29521502499583,55.11707529586932,3606.879479290309,1
-38.16341352700863,-17.82674846625766,-23.12674599068804,124.39773143066225,-126.79446274781805,125.76140717520025,-40.76411120471778,0.7604790419161702,-15.191387559808625,11.454901960784316,17.162162162162172,-9.613545816733073,-9.462745098039214,-2.490196078431371,21.855813953488372,10.998903958920415,50.73507929085931,26.372302661318106,111.29521502499583,55.11707529586932,3606.879479290309,1
-37.913602663035256,-17.88907975460122,-23.367649594757708,124.90889132821076,-126.8678689093116,125.4959944270289,-40.76411120471778,0.7604790419161702,-15.191387559808625,11.454901960784316,17.162162162162172,-9.613545816733073,-9.462745098039214,-2.490196078431371,21.855813953488372,10.998903958920415,50.73507929085931,26.390110670798062,107.09683264473415,55.38854022585656,3632.3130949193182,1
-37.913602663035256,-17.88907975460122,-23.367649594757708,124.90889132821076,-126.8678689093116,125.4959944270289,-40.76411120471778,2.2814371257485053,-21.26794258373207,-13.44705882352941,21.73873873873875,-6.577689243027893,8.466666666666669,1.4941176470588253,25.400000000000002,12.584206353562767,86.62447449020212,26.390110670798062,107.09683264473415,55.38854022585656,3632.3130949193182,1
-37.913602663035256,-17.88907975460122,-23.367649594757708,124.90889132821076,-126.8678689093116,125.4959944270289,-40.76411120471778,-3.802395209580836,-9.11483253588518,15.439215686274512,13.72972972972974,11.637450199203183,6.4745098039215705,-1.4941176470588218,24.218604651162792,10.73885693285208,52.56451118346714,26.390110670798062,107.09683264473415,55.38854022585656,3632.3130949193182,1
-38.2402784082312,-17.982576687116556,-23.56475254354198,125.23417489937793,-126.94127507080515,125.27481713688607,-40.710614995787694,-3.802395209580836,-9.11483253588518,15.439215686274512,13.72972972972974,11.637450199203183,6.4745098039215705,-1.4941176470588218,24.218604651162792,10.73885693285208,52.56451118346714,26.595869212963247,109.48437095314539,55.59383471001215,3645.1229080909607,1
-38.2402784082312,-17.982576687116556,-23.56475254354198,125.23417489937793,-126.94127507080515,125.27481713688607,-40.710614995787694,0.7604790419161702,-13.976076555023935,3.4862745098039234,17.162162162162172,-5.5657370517928335,-0.49803921568627274,-0.49803921568627274,21.855813953488372,7.975327713194995,71.84375226288766,26.595869212963247,109.48437095314539,55.59383471001215,3645.1229080909607,1
-38.2402784082312,-17.982576687116556,-23.56475254354198,125.23417489937793,-126.94127507080515,125.27481713688607,-40.710614995787694,-0.7604790419161651,-11.545454545454557,29.3843137254902,19.45045045045046,-16.69721115537849,-23.4078431372549,-2.490196078431371,24.218604651162792,15.994319098192367,106.9362408604841,26.595869212963247,109.48437095314539,55.59383471001215,3645.1229080909607,1
-37.99046754425783,-17.7644171779141,-23.104845663045342,125.69886571533112,-127.0,125.09787530477183,-40.81760741364786,-0.7604790419161651,-11.545454545454557,29.3843137254902,19.45045045045046,-16.69721115537849,-23.4078431372549,-2.490196078431371,24.218604651162792,15.994319098192367,106.9362408604841,26.286576795072424,109.8658381028511,55.52270951876353,3700.64971799499,1
-37.99046754425783,-17.7644171779141,-23.104845663045342,125.69886571533112,-127.0,125.09787530477183,-40.81760741364786,0.7604790419161702,1.8229665071770214,16.43529411764706,32.03603603603605,1.5179282868525847,-21.415686274509802,-0.49803921568627274,23.037209302325582,12.19045484776882,157.6238997318711,26.286576795072424,109.8658381028511,55.52270951876353,3700.64971799499,1
-37.99046754425783,-17.7644171779141,-23.104845663045342,125.69886571533112,-127.0,125.09787530477183,-40.81760741364786,-8.365269461077842,-37.06698564593302,-9.462745098039214,19.45045045045046,3.5418326693227042,-2.490196078431371,-0.49803921568627274,19.493023255813956,12.546067734344355,150.2205506669528,26.286576795072424,109.8658381028511,55.52270951876353,3700.64971799499,1
-37.9328188833409,-17.515092024539868,-23.03914468011725,126.117087449689,-126.98531876770127,124.9209334726576,-41.138584667228315,-8.365269461077842,-37.06698564593302,-9.462745098039214,19.45045045045046,3.5418326693227042,-2.490196078431371,-0.49803921568627274,19.493023255813956,12.546067734344355,150.2205506669528,26.162351862666004,111.53670984899436,55.5571080514487,3741.661808945469,1
-37.9328188833409,-17.515092024539868,-23.03914468011725,126.117087449689,-126.98531876770127,124.9209334726576,-41.138584667228315,2.2814371257485053,-20.05263157894738,16.43529411764706,14.873873873873883,-5.5657370517928335,8.466666666666669,0.4980392156862763,23.037209302325582,11.401361116586024,70.33695024806823,26.162351862666004,111.53670984899436,55.5571080514487,3741.661808945469,1
-37.9328188833409,-17.515092024539868,-23.03914468011725,126.117087449689,-126.98531876770127,124.9209334726576,-41.138584667228315,3.802395209580841,-1.8229665071770462,-15.439215686274508,14.873873873873883,6.5776892430278835,-1.4941176470588218,4.482352941176472,25.400000000000002,9.236576388521183,72.23114934311718,26.162351862666004,111.53670984899436,55.5571080514487,3741.661808945469,1
-38.12498108639734,-17.88907975460122,-23.520951888256587,126.21002561287958,-126.92659383850642,124.74399164054336,-41.45956192080877,3.802395209580841,-1.8229665071770462,-15.439215686274508,14.873873873873883,6.5776892430278835,-1.4941176470588218,4.482352941176472,25.400000000000002,9.236576388521183,72.23114934311718,26.511670909751714,109.08122587669659,55.873352418579124,3718.365192963829,1
-38.12498108639734,-17.88907975460122,-23.520951888256587,126.21002561287958,-126.92659383850642,124.74399164054336,-41.45956192080877,-5.323353293413171,-24.913875598086136,-35.36078431372549,12.585585585585596,-0.5059760956175348,12.450980392156865,0.4980392156862763,24.218604651162792,14.482149893179233,160.2902534334465,26.511670909751714,109.08122587669659,55.873352418579124,3718.365192963829,1
-38.12498108639734,-17.88907975460122,-23.520951888256587,126.21002561287958,-126.92659383850642,124.74399164054336,-41.45956192080877,2.2814371257485053,-21.26794258373207,16.43529411764706,21.73873873873875,-3.541832669322714,13.447058823529414,-1.4941176470588218,25.400000000000002,13.200802713222167,92.4132586864653,26.511670909751714,109.08122587669659,55.873352418579124,3718.365192963829,1
-36.68376456347405,-18.387730061349686,-23.4114502500431,126.58177826564213,-126.89723137390902,124.34587251828628,-41.727042965459134,2.2814371257485053,-21.26794258373207,16.43529411764706,21.73873873873875,-3.541832669322714,13.447058823529414,-1.4941176470588218,25.400000000000002,13.200802713222167,92.4132586864653,26.16098162495561,89.3561617119525,56.126986192344965,3729.217735702224,1
-36.68376456347405,-18.387730061349686,-23.4114502500431,126.58177826564213,-126.89723137390902,124.34587251828628,-41.727042965459134,2.2814371257485053,-13.976076555023935,13.447058823529414,26.315315315315324,8.601593625498003,-2.490196078431371,-4.482352941176469,20.674418604651166,11.533556133671773,76.76901537242328,26.16098162495561,89.3561617119525,56.126986192344965,3729.217735702224,1
-36.68376456347405,-18.387730061349686,-23.4114502500431,126.58177826564213,-126.89723137390902,124.34587251828628,-41.727042965459134,0.7604790419161702,-27.344497607655512,-1.4941176470588218,20.594594594594604,13.6613545816733,4.482352941176472,5.4784313725490215,25.400000000000002,12.401978473327988,118.01347694618744,26.16098162495561,89.3561617119525,56.126986192344965,3729.217735702224,1
-36.16492661522167,-19.22920245398772,-22.99534402483186,127.0,-126.89723137390902,124.03622431208638,-41.99452401010956,0.7604790419161702,-27.344497607655512,-1.4941176470588218,20.594594594594604,13.6613545816733,4.482352941176472,5.4784313725490215,25.400000000000002,12.401978473327988,118.01347694618744,26.129824364680417,79.07341346702364,56.408182159606525,3740.949515091381,1
-36.16492661522167,-19.22920245398772,-22.99534402483186,127.0,-126.89723137390902,124.03622431208638,-41.99452401010956,-9.886227544910177,-27.344497607655512,15.439215686274512,22.882882882882893,-20.74501992031873,-2.490196078431371,0.4980392156862763,21.855813953488372,15.14273661120598,98.21665036375842,26.129824364680417,79.07341346702364,56.408182159606525,3740.949515091381,1
-36.16492661522167,-19.22920245398772,-22.99534402483186,127.0,-126.89723137390902,124.03622431208638,-41.99452401010956,-0.7604790419161651,-1.8229665071770462,77.19607843137256,22.882882882882893,-2.5298804780876543,6.4745098039215705,-0.49803921568627274,23.037209302325582,16.900255707921218,683.0134104946935,26.129824364680417,79.07341346702364,56.408182159606525,3740.949515091381,1
-37.087305189892575,-20.569325153374223,-24.199862045180193,126.67471642883277,-126.8678689093116,123.59386973180074,-41.62005054759902,-0.7604790419161651,-1.8229665071770462,77.19607843137256,22.882882882882893,-2.5298804780876543,6.4745098039215705,-0.49803921568627274,23.037209302325582,16.900255707921218,683.0134104946935,27.285497462815666,75.35177556962952,57.14796787579573,3628.7717727986196,1
-37.087305189892575,-20.569325153374223,-24.199862045180193,126.67471642883277,-126.8678689093116,123.59386973180074,-41.62005054759902,6.8443113772455115,-20.05263157894738,-20.419607843137253,20.594594594594604,-2.5298804780876543,17.43137254901961,4.482352941176472,26.581395348837212,14.867018338880712,79.81993984293798,27.285497462815666,75.35177556962952,57.14796787579573,3628.7717727986196,1
-37.087305189892575,-20.569325153374223,-24.199862045180193,126.67471642883277,-126.8678689093116,123.59386973180074,-41.62005054759902,3.802395209580841,-4.253588516746424,-11.454901960784312,9.153153153153163,30.864541832669318,2.4901960784313744,3.4862745098039234,24.218604651162792,11.215456989041519,114.11005037831976,27.285497462815666,75.35177556962952,57.14796787579573,3628.7717727986196,1
-41.16114389468906,-21.41079754601226,-24.8787722021038,124.90889132821076,-126.60360672793479,123.90351793800068,-41.29907329401857,3.802395209580841,-4.253588516746424,-11.454901960784312,9.153153153153163,30.864541832669318,2.4901960784313744,3.4862745098039234,24.218604651162792,11.215456989041519,114.11005037831976,29.15023788093504,111.20310950724767,57.066153692108934,3454.984499524532,1
-41.16114389468906,-21.41079754601226,-24.8787722021038,124.90889132821076,-126.60360672793479,123.90351793800068,-41.29907329401857,-6.844311377245506,-18.83732057416269,-29.384313725490195,18.30630630630632,6.5776892430278835,0.4980392156862763,-2.490196078431371,21.855813953488372,13.099248809229826,107.84530747552472,29.15023788093504,111.20310950724767,57.066153692108934,3454.984499524532,1
-41.16114389468906,-21.41079754601226,-24.8787722021038,124.90889132821076,-126.60360672793479,123.90351793800068,-41.29907329401857,-2.2814371257485004,-34.63636363636365,-50.30196078431372,20.594594594594604,18.7211155378486,11.454901960784316,-1.4941176470588218,23.037209302325582,20.315212573629722,267.46923959606545,29.15023788093504,111.20310950724767,57.066153692108934,3454.984499524532,1
-44.83144197306703,-20.257668711656432,-26.06138989480944,121.98133918770583,-125.97231373909023,125.1421107628004,-41.94102780117947,-2.2814371257485004,-34.63636363636365,-50.30196078431372,20.594594594594604,18.7211155378486,11.454901960784316,-1.4941176470588218,23.037209302325582,20.315212573629722,267.46923959606545,30.383500193177635,164.9780611492499,56.100132598057236,3263.6708311739135,1
-44.83144197306703,-20.257668711656432,-26.06138989480944,121.98133918770583,-125.97231373909023,125.1421107628004,-41.94102780117947,0.7604790419161702,-24.913875598086136,-46.317647058823525,-50.342342342342334,-22.76892430278885,-7.470588235294116,-4.482352941176469,25.400000000000002,22.80702619005345,339.87956122512685,30.383500193177635,164.9780611492499,56.100132598057236,3263.6708311739135,1
-44.83144197306703,-20.257668711656432,-26.06138989480944,121.98133918770583,-125.97231373909023,125.1421107628004,-41.94102780117947,0.7604790419161702,-10.33014354066987,88.15294117647059,16.01801801801803,10.625498007968122,-8.466666666666665,9.462745098039218,25.400000000000002,21.152061443718583,782.1171005476209,30.383500193177635,164.9780611492499,56.100132598057236,3263.6708311739135,1
-42.25646845211076,-18.294233128834346,-28.098120365580264,119.33260153677276,-125.35570198254436,124.7882270985719,-42.04802021903964,0.7604790419161702,-10.33014354066987,88.15294117647059,16.01801801801803,10.625498007968122,-8.466666666666665,9.462745098039218,25.400000000000002,21.152061443718583,782.1171005476209,29.549607315508457,145.12729119637783,55.24165167706246,3104.7664416776315,1
-42.25646845211076,-18.294233128834346,-28.098120365580264,119.33260153677276,-125.35570198254436,124.7882270985719,-42.04802021903964,-0.7604790419161651,-13.976076555023935,18.42745098039216,33.18018018018019,2.5298804780876445,4.482352941176472,-9.462745098039214,27.76279069767442,13.822744496561274,142.09515750962373,29.549607315508457,145.12729119637783,55.24165167706246,3104.7664416776315,1
-42.25646845211076,-18.294233128834346,-28.098120365580264,119.33260153677276,-125.35570198254436,124.7882270985719,-42.04802021903964,-2.2814371257485004,-29.77511961722489,-103.09411764705882,-33.18018018018017,-62.235059760956176,-34.364705882352936,-36.35686274509804,20.674418604651166,40.24523769540883,923.8628033786601,29.549607315508457,145.12729119637783,55.24165167706246,3104.7664416776315,1
-39.12422454229082,-15.863312883435574,-29.039834454216233,116.91620929381628,-124.70972776140107,122.48798328108671,-41.56655433866894,-2.2814371257485004,-29.77511961722489,-103.09411764705882,-33.18018018018017,-62.235059760956176,-34.364705882352936,-36.35686274509804,20.674418604651166,40.24523769540883,923.8628033786601,28.009123959980872,136.06427589246212,53.9397855438227,3017.927641430379,1
-39.12422454229082,-15.863312883435574,-29.039834454216233,116.91620929381628,-124.70972776140107,122.48798328108671,-41.56655433866894,12.928143712574853,-3.0382775119617342,2.4901960784313744,91.53153153153154,-67.29482071713147,-28.388235294117646,30.380392156862747,31.30697674418605,33.41982171834968,980.442045792869,28.009123959980872,136.06427589246212,53.9397855438227,3017.927641430379,1
-39.12422454229082,-15.863312883435574,-29.039834454216233,116.91620929381628,-124.70972776140107,122.48798328108671,-41.56655433866894,-6.844311377245506,-27.344497607655512,23.407843137254904,107.54954954954957,73.36653386454182,30.380392156862747,-9.462745098039214,15.948837209302328,36.788088750056446,1247.430936751129,28.009123959980872,136.06427589246212,53.9397855438227,3017.927641430379,1
-39.16265698290211,-12.34159509202453,-30.52905673391963,114.31394072447858,-123.8288538234784,119.47997213514452,-41.62005054759902,-6.844311377245506,-27.344497607655512,23.407843137254904,107.54954954954957,73.36653386454182,30.380392156862747,-9.462745098039214,15.948837209302328,36.788088750056446,1247.430936751129,27.344436269615425,187.44869586482022,52.39486418347425,2958.1749700119167,1
-39.16265698290211,-12.34159509202453,-30.52905673391963,114.31394072447858,-123.8288538234784,119.47997213514452,-41.62005054759902,12.928143712574853,40.712918660287066,-17.431372549019606,-50.342342342342334,-11.637450199203192,13.447058823529414,28.38823529411765,28.94418604651163,25.478963453448216,204.19623500041547,27.344436269615425,187.44869586482022,52.39486418347425,2958.1749700119167,1
-39.16265698290211,-12.34159509202453,-30.52905673391963,114.31394072447858,-123.8288538234784,119.47997213514452,-41.62005054759902,0.7604790419161702,-23.698564593301448,-14.44313725490196,1.1441441441441533,3.5418326693227042,36.35686274509804,2.4901960784313744,19.493023255813956,12.741029972866226,170.5696990101293,27.344436269615425,187.44869586482022,52.39486418347425,2958.1749700119167,1
-44.10122560145257,-9.692515337423304,-32.981893429901696,109.94584705451882,-122.25796196751631,117.62208289794495,-43.385425442291535,0.7604790419161702,-23.698564593301448,-14.44313725490196,1.1441441441441533,3.5418326693227042,36.35686274509804,2.4901960784313744,19.493023255813956,12.741029972866226,170.5696990101293,28.925211456259188,308.33233698493524,50.87341860728127,2752.7626349741026,1
-44.10122560145257,-9.692515337423304,-32.981893429901696,109.94584705451882,-122.25796196751631,117.62208289794495,-43.385425442291535,-6.844311377245506,-30.99043062200958,-18.427450980392155,1.0658141036401503e-14,10.625498007968122,-35.36078431372549,-3.48627450980392,13.586046511627908,14.915099540346585,161.02311836949087,28.925211456259188,308.33233698493524,50.87341860728127,2752.7626349741026,1
-44.10122560145257,-9.692515337423304,-32.981893429901696,109.94584705451882,-122.25796196751631,117.62208289794495,-43.385425442291535,-9.886227544910177,-17.622009569378,50.30196078431373,35.46846846846848,-15.685258964143431,17.43137254901961,32.372549019607845,19.493023255813956,24.782608769456903,180.14151923032065,28.925211456259188,308.33233698493524,50.87341860728127,2752.7626349741026,1
-47.44484793463459,-5.42282208588956,-34.624418003103976,103.76545920234173,-119.92364603202125,115.498780912574,-46.327716933445686,-9.886227544910177,-17.622009569378,50.30196078431373,35.46846846846848,-15.685258964143431,17.43137254901961,32.372549019607845,19.493023255813956,24.782608769456903,180.14151923032065,29.164029341209375,463.82454736235917,47.93756643044509,2550.7485095408606,1
-47.44484793463459,-5.42282208588956,-34.624418003103976,103.76545920234173,-119.92364603202125,115.498780912574,-46.327716933445686,-8.365269461077842,-57.727272727272734,37.352941176470594,5.720720720720731,-19.733067729083672,12.450980392156865,85.16470588235295,21.855813953488372,31.046346505327968,770.6434522107513,29.164029341209375,463.82454736235917,47.93756643044509,2550.7485095408606,1
-47.44484793463459,-5.42282208588956,-34.624418003103976,103.76545920234173,-119.92364603202125,115.498780912574,-46.327716933445686,-19.011976047904188,-62.58851674641149,1.4941176470588253,-94.96396396396396,-38.9601593625498,-35.36078431372549,-34.364705882352936,25.400000000000002,39.01802799549584,816.3263610019361,29.164029341209375,463.82454736235917,47.93756643044509,2550.7485095408606,1
-56.07293085186866,-2.4932515337423222,-40.23090187963441,94.00695206732524,-116.63504999710997,113.81783350748867,-49.69797809604046,-19.011976047904188,-62.58851674641149,1.4941176470588253,-94.96396396396396,-38.9601593625498,-35.36078431372549,-34.364705882352936,25.400000000000002,39.01802799549584,816.3263610019361,32.93236142174846,757.6470285698623,45.577035160234,2115.1252021280247,1
-56.07293085186866,-2.4932515337423222,-40.23090187963441,94.00695206732524,-116.63504999710997,113.81783350748867,-49.69797809604046,-22.053892215568858,-107.55502392344498,-98.11372549019607,-27.459459459459453,-11.637450199203192,7.4705882352941195,23.407843137254904,17.130232558139536,39.35352690232014,1582.541951820206,32.93236142174846,757.6470285698623,45.577035160234,2115.1252021280247,1
-56.07293085186866,-2.4932515337423222,-40.23090187963441,94.00695206732524,-116.63504999710997,113.81783350748867,-49.69797809604046,11.407185628742518,22.48325358851673,-4.482352941176469,-10.297297297297288,32.88844621513944,33.3686274509804,26.39607843137255,28.94418604651163,21.283428449967126,123.92940537029578,32.93236142174846,757.6470285698623,45.577035160234,2115.1252021280247,1
-60.87698592827962,3.8333742331288434,-44.08535954474908,82.34321258690085,-112.45089879197732,111.56182514803203,-53.76368997472622,11.407185628742518,22.48325358851673,-4.482352941176469,-10.297297297297288,32.88844621513944,33.3686274509804,26.39607843137255,28.94418604651163,21.283428449967126,123.92940537029578,36.265239902052514,1127.5990792830696,43.42064878825959,1541.2800598761971,1
-60.87698592827962,3.8333742331288434,-44.08535954474908,82.34321258690085,-112.45089879197732,111.56182514803203,-53.76368997472622,15.970059880239523,16.406698564593285,79.18823529411765,25.17117117117118,14.673306772908361,2.4901960784313744,-89.14901960784314,23.037209302325582,33.26073708395376,1039.7345291698996,36.265239902052514,1127.5990792830696,43.42064878825959,1541.2800598761971,1
-60.87698592827962,3.8333742331288434,-44.08535954474908,82.34321258690085,-112.45089879197732,111.56182514803203,-53.76368997472622,9.886227544910183,-1.8229665071770462,-84.1686274509804,-37.75675675675675,-4.553784860557774,-23.4078431372549,-15.439215686274508,30.12558139534884,25.895125417407552,708.7307398529135,36.265239902052514,1127.5990792830696,43.42064878825959,1541.2800598761971,1
-64.6433651081858,11.063803680981604,-45.66218313502327,69.37833882180752,-107.56204843650656,107.49216300940438,-57.40143218197136,9.886227544910183,-1.8229665071770462,-84.1686274509804,-37.75675675675675,-4.553784860557774,-23.4078431372549,-15.439215686274508,30.12558139534884,25.895125417407552,708.7307398529135,40.45645064139689,1551.6163759032254,42.03477521260413,860.0148183493769,1
-64.6433651081858,11.063803680981604,-45.66218313502327,69.37833882180752,-107.56204843650656,107.49216300940438,-57.40143218197136,-23.574850299401195,-74.74162679425838,-48.30980392156863,57.20720720720722,32.88844621513944,13.447058823529414,-37.35294117647059,28.94418604651163,39.55826506051081,389.31668328237356,40.45645064139689,1551.6163759032254,42.03477521260413,860.0148183493769,1
-64.6433651081858,11.063803680981604,-45.66218313502327,69.37833882180752,-107.56204843650656,107.49216300940438,-57.40143218197136,19.011976047904195,7.899521531100465,-0.49803921568627274,26.315315315315324,-26.81673306772909,-12.450980392156861,14.443137254901963,54.93488372093023,20.29632331821555,274.5264804740976,40.45645064139689,1551.6163759032254,42.03477521260413,860.0148183493769,1
-74.289907701619,20.506993865030687,-47.80841524400758,57.017563117453335,-102.3208485058667,105.2803901079763,-62.751053074978984,19.011976047904195,7.899521531100465,-0.49803921568627274,26.315315315315324,-26.81673306772909,-12.450980392156861,14.443137254901963,54.93488372093023,20.29632331821555,274.5264804740976,47.53510560355242,2392.4528518591446,41.777657408830535,360.5329468338995,1
-74.289907701619,20.506993865030687,-47.80841524400758,57.017563117453335,-102.3208485058667,105.2803901079763,-62.751053074978984,-3.802395209580836,12.76076555023922,93.13333333333334,92.67567567567569,1.5179282868525847,-12.450980392156861,-20.419607843137253,-4.134883720930233,30.111946251488252,1539.6354567031015,47.53510560355242,2392.4528518591446,41.777657408830535,360.5329468338995,1
-74.289907701619,20.506993865030687,-47.80841524400758,57.017563117453335,-102.3208485058667,105.2803901079763,-62.751053074978984,-2.2814371257485004,-30.99043062200958,-53.29019607843137,-22.882882882882875,-25.80478087649403,-37.35294117647059,7.4705882352941195,27.76279069767442,25.979505961875685,259.61662842022724,47.53510560355242,2392.4528518591446,41.777657408830535,360.5329468338995,1
-82.2646391284612,27.3634355828221,-49.97654768063458,43.402122210025595,-96.14004970810936,103.86485545106234,-69.11710193765794,-2.2814371257485004,-30.99043062200958,-53.29019607843137,-22.882882882882875,-25.80478087649403,-37.35294117647059,7.4705882352941195,27.76279069767442,25.979505961875685,259.61662842022724,53.20154079730596,3173.718104239614,40.247368491160756,135.30256295707696,1
-82.2646391284612,27.3634355828221,-49.97654768063458,43.402122210025595,-96.14004970810936,103.86485545106234,-69.11710193765794,6.8443113772455115,4.253588516746397,0.4980392156862763,44.621621621621635,20.745019920318718,8.466666666666669,-2.490196078431371,26.581395348837212,14.312604843194222,233.18306638024174,53.20154079730596,3173.718104239614,40.247368491160756,135.30256295707696,1
-82.2646391284612,27.3634355828221,-49.97654768063458,43.402122210025595,-96.14004970810936,103.86485545106234,-69.11710193765794,2.2814371257485053,-6.684210526315802,30.380392156862747,21.73873873873875,-0.5059760956175348,0.4980392156862763,1.4941176470588253,19.493023255813956,10.3844918452303,137.91966375288288,53.20154079730596,3173.718104239614,40.247368491160756,135.30256295707696,1
-89.75896504766229,30.698159509202462,-52.99879289532677,28.25320160995244,-89.04901450783191,103.59944270289097,-75.69713563605728,2.2814371257485053,-6.684210526315802,30.380392156862747,21.73873873873875,-0.5059760956175348,0.4980392156862763,1.4941176470588253,19.493023255813956,10.3844918452303,137.91966375288288,57.81863915073051,3811.0681591639004,37.31671800482723,185.94005943570357,1
-89.75896504766229,30.698159509202462,-52.99879289532677,28.25320160995244,-89.04901450783191,103.59944270289097,-75.69713563605728,3.802395209580841,-3.0382775119617342,18.42745098039216,46.90990990990992,21.75697211155378,2.4901960784313744,-18.427450980392155,20.674418604651166,16.94088392335914,216.34585690991383,57.81863915073051,3811.0681591639004,37.31671800482723,185.94005943570357,1
-89.75896504766229,30.698159509202462,-52.99879289532677,28.25320160995244,-89.04901450783191,103.59944270289097,-75.69713563605728,0.7604790419161702,-46.789473684210535,-28.388235294117646,75.51351351351353,-17.70916334661355,24.403921568627453,9.462745098039218,20.674418604651166,27.96274376896116,552.6909247679093,57.81863915073051,3811.0681591639004,37.31671800482723,185.94005943570357,1
-91.85353306097745,36.868957055214736,-55.188825659596475,13.197219173069868,-81.26796138951505,103.02438174851966,-82.3841617523168,0.7604790419161702,-46.789473684210535,-28.388235294117646,75.51351351351353,-17.70916334661355,24.403921568627453,9.462745098039218,20.674418604651166,27.96274376896116,552.6909247679093,61.3037719252629,4398.069264818245,35.085000629293695,443.2106292270146,1
-91.85353306097745,36.868957055214736,-55.188825659596475,13.197219173069868,-81.26796138951505,103.02438174851966,-82.3841617523168,3.802395209580841,21.267942583732044,9.462745098039218,27.45945945945947,0.505976095617525,32.372549019607845,1.4941176470588253,26.581395348837212,15.368322557741623,168.27246454732798,61.3037719252629,4398.069264818245,35.085000629293695,443.2106292270146,1
-91.85353306097745,36.868957055214736,-55.188825659596475,13.197219173069868,-81.26796138951505,103.02438174851966,-82.3841617523168,-6.844311377245506,-12.760765550239245,0.4980392156862763,33.18018018018019,-9.613545816733073,-3.48627450980392,-7.470588235294116,18.311627906976746,11.520666599019883,106.39254896189836,61.3037719252629,4398.069264818245,35.085000629293695,443.2106292270146,1
-95.52383113935542,41.35680981595093,-59.91929643041903,-2.6952067325283906,-72.66475926247037,102.09543712991987,-88.00126368997473,-6.844311377245506,-12.760765550239245,0.4980392156862763,33.18018018018019,-9.613545816733073,-3.48627450980392,-7.470588235294116,18.311627906976746,11.520666599019883,106.39254896189836,65.59997912857513,5043.473742766894,34.657104326299454,852.3136506741081,1
-95.52383113935542,41.35680981595093,-59.91929643041903,-2.6952067325283906,-72.66475926247037,102.09543712991987,-88.00126368997473,9.886227544910183,-0.6076555023923582,-17.431372549019606,3.4324324324324422,-6.577689243027893,9.462745098039218,2.4901960784313744,26.581395348837212,9.558714224636287,75.48144805252487,65.59997912857513,5043.473742766894,34.657104326299454,852.3136506741081,1
-95.52383113935542,41.35680981595093,-59.91929643041903,-2.6952067325283906,-72.66475926247037,102.09543712991987,-88.00126368997473,0.7604790419161702,6.684210526315777,27.3921568627451,98.39639639639641,-7.589641434262953,-6.474509803921567,-2.490196078431371,15.948837209302328,20.71705341916146,1057.7080114691162,65.59997912857513,5043.473742766894,34.657104326299454,852.3136506741081,1
-108.62929338780451,47.15361963190185,-62.656837385756155,-20.167581412367383,-62.520027744061025,103.3340299547196,-93.88584667228304,0.7604790419161702,6.684210526315777,27.3921568627451,98.39639639639641,-7.589641434262953,-6.474509803921567,-2.490196078431371,15.948837209302328,20.71705341916146,1057.7080114691162,72.81325013515418,6406.686528365431,43.32601281000846,462.32214878029197,1
-108.62929338780451,47.15361963190185,-62.656837385756155,-20.167581412367383,-62.520027744061025,103.3340299547196,-93.88584667228304,-0.7604790419161651,-15.191387559808625,-3.48627450980392,-6.864864864864856,12.649402390438242,16.43529411764706,10.458823529411767,28.94418604651163,11.848839007550282,77.82233520064993,72.81325013515418,6406.686528365431,43.32601281000846,462.32214878029197,1
-108.62929338780451,47.15361963190185,-62.656837385756155,-20.167581412367383,-62.520027744061025,103.3340299547196,-93.88584667228304,-5.323353293413171,-33.42105263157896,-1.4941176470588218,-2.2882882882882782,-5.5657370517928335,-0.49803921568627274,-1.4941176470588218,14.767441860465118,8.106518454417785,125.51193816340512,72.81325013515418,6406.686528365431,43.32601281000846,462.32214878029197,1
-120.98532304433348,57.15779141104295,-63.46714950853595,-37.87230150018297,-50.686954511299916,106.51898293277603,-100.73336141533275,-5.323353293413171,-33.42105263157896,-1.4941176470588218,-2.2882882882882782,-5.5657370517928335,-0.49803921568627274,-1.4941176470588218,14.767441860465118,8.106518454417785,125.51193816340512,80.53675465463746,8265.61431443456,52.83241413992062,177.8057275458288,1
-120.98532304433348,57.15779141104295,-63.46714950853595,-37.87230150018297,-50.686954511299916,106.51898293277603,-100.73336141533275,17.491017964071858,22.48325358851673,10.458823529411767,-41.189189189189186,-11.637450199203192,-7.470588235294116,0.4980392156862763,28.94418604651163,17.521568495985594,170.0828116038288,80.53675465463746,8265.61431443456,52.83241413992062,177.8057275458288,1
-120.98532304433348,57.15779141104295,-63.46714950853595,-37.87230150018297,-50.686954511299916,106.51898293277603,-100.73336141533275,6.8443113772455115,-5.468899521531114,32.372549019607845,29.74774774774776,-8.601593625498012,8.466666666666669,-3.48627450980392,21.855813953488372,14.605482052698651,134.0865156045828,80.53675465463746,8265.61431443456,52.83241413992062,177.8057275458288,1
-124.77091844454532,68.34625766871167,-62.744438696326945,-53.53238199780458,-37.79683255303161,109.52699407871819,-107.63437236731261,6.8443113772455115,-5.468899521531114,32.372549019607845,29.74774774774776,-8.601593625498012,8.466666666666669,-3.48627450980392,21.855813953488372,14.605482052698651,134.0865156045828,85.28720493652797,9721.049762230936,61.54102612094773,55.94887946820891,1
-124.77091844454532,68.34625766871167,-62.744438696326945,-53.53238199780458,-37.79683255303161,109.52699407871819,-107.63437236731261,0.7604790419161702,-30.99043062200958,-11.454901960784312,34.32432432432434,-20.74501992031873,-8.466666666666665,4.482352941176472,25.400000000000002,17.078021934649534,157.76860799836294,85.28720493652797,9721.049762230936,61.54102612094773,55.94887946820891,1
-124.77091844454532,68.34625766871167,-62.744438696326945,-53.53238199780458,-37.79683255303161,109.52699407871819,-107.63437236731261,-3.802395209580836,-16.406698564593313,19.423529411764708,33.18018018018019,-5.5657370517928335,8.466666666666669,4.482352941176472,23.037209302325582,14.295596166010075,111.48423349823149,85.28720493652797,9721.049762230936,61.54102612094773,55.94887946820891,1
-127.0,74.98453987730062,-63.59855147439213,-67.42663739480429,-24.157967747529035,112.40229885057468,-113.09098567818035,-3.802395209580836,-16.406698564593313,19.423529411764708,33.18018018018019,-5.5657370517928335,8.466666666666669,4.482352941176472,23.037209302325582,14.295596166010075,111.48423349823149,88.52769711723091,10670.461872196962,68.66990958216569,33.56947727669143,1
-127.0,74.98453987730062,-63.59855147439213,-67.42663739480429,-24.157967747529035,112.40229885057468,-113.09098567818035,-5.323353293413171,-29.77511961722489,-30.380392156862744,4.576576576576587,-20.74501992031873,-23.4078431372549,-4.482352941176469,24.218604651162792,17.86365778674879,127.26317629533797,88.52769711723091,10670.461872196962,68.66990958216569,33.56947727669143,1
-127.0,74.98453987730062,-63.59855147439213,-67.42663739480429,-24.157967747529035,112.40229885057468,-113.09098567818035,-6.844311377245506,-34.63636363636365,7.4705882352941195,29.74774774774776,-2.5298804780876543,-8.466666666666665,-4.482352941176469,15.948837209302328,13.765843536485518,146.25921693600074,88.52769711723091,10670.461872196962,68.66990958216569,33.56947727669143,1
-126.78862157663792,80.999509202454,-64.5621658906708,-79.136845956824,-10.078665973065135,114.30442354580285,-116.5147430497052,-6.844311377245506,-34.63636363636365,7.4705882352941195,29.74774774774776,-2.5298804780876543,-8.466666666666665,-4.482352941176469,15.948837209302328,13.765843536485518,146.25921693600074,90.78343222325425,11372.706722637176,74.89950701664961,81.0128447577948,1
-126.78862157663792,80.999509202454,-64.5621658906708,-79.136845956824,-10.078665973065135,114.30442354580285,-116.5147430497052,-6.844311377245506,-50.435406698564606,-46.317647058823525,48.05405405405406,15.685258964143422,20.419607843137257,8.466666666666669,41.93953488372093,29.770310943294497,349.7881202625034,90.78343222325425,11372.706722637176,74.89950701664961,81.0128447577948,1
-126.78862157663792,80.999509202454,-64.5621658906708,-79.136845956824,-10.078665973065135,114.30442354580285,-116.5147430497052,-0.7604790419161651,-6.684210526315802,34.36470588235294,6.864864864864874,1.5179282868525847,-20.419607843137253,9.462745098039218,-20.67441860465116,12.59362001851625,134.394553934707,90.78343222325425,11372.706722637176,74.89950701664961,81.0128447577948,1
-121.69632319564231,87.35730061349695,-69.90584583548886,-89.40651298938894,4.176810588983301,113.86206896551721,-116.0332771693345,-0.7604790419161651,-6.684210526315802,34.36470588235294,6.864864864864874,1.5179282868525847,-20.419607843137253,9.462745098039218,-20.67441860465116,12.59362001851625,134.394553934707,92.98648988154271,11852.894733993473,82.22321981279158,114.83809411292793,1
-121.69632319564231,87.35730061349695,-69.90584583548886,-89.40651298938894,4.176810588983301,113.86206896551721,-116.0332771693345,-11.407185628742512,-28.5598086124402,-26.396078431372548,17.162162162162172,11.637450199203183,11.454901960784316,-9.462745098039214,12.4046511627907,16.060622906941855,54.7991992346494,92.98648988154271,11852.894733993473,82.22321981279158,114.83809411292793,1
-121.69632319564231,87.35730061349695,-69.90584583548886,-89.40651298938894,4.176810588983301,113.86206896551721,-116.0332771693345,-0.7604790419161651,-1.8229665071770462,52.294117647058826,34.32432432432434,-15.685258964143431,-25.4,15.439215686274512,41.93953488372093,23.458237131826905,343.27224534907515,92.98648988154271,11852.894733993473,82.22321981279158,114.83809411292793,1
-115.39340293539114,95.959018404908,-74.8991205380238,-98.04976216611783,18.6525056355124,110.63288052943224,-111.5930918281382,-0.7604790419161651,-1.8229665071770462,52.294117647058826,34.32432432432434,-15.685258964143431,-25.4,15.439215686274512,41.93953488372093,23.458237131826905,343.27224534907515,95.41718062610765,12583.689426054541,89.63596703634987,163.97378590517866,1
-115.39340293539114,95.959018404908,-74.8991205380238,-98.04976216611783,18.6525056355124,110.63288052943224,-111.5930918281382,-2.2814371257485004,-27.344497607655512,49.30588235294118,20.594594594594604,-4.553784860557774,-19.423529411764704,3.4862745098039234,21.855813953488372,18.60572680206932,246.65578173125962,95.41718062610765,12583.689426054541,89.63596703634987,163.97378590517866,1
-115.39340293539114,95.959018404908,-74.8991205380238,-98.04976216611783,18.6525056355124,110.63288052943224,-111.5930918281382,-3.802395209580836,-17.622009569378,-34.364705882352936,26.315315315315324,6.5776892430278835,-8.466666666666665,-11.454901960784312,28.94418604651163,17.1934837367022,131.06090316182699,95.41718062610765,12583.689426054541,89.63596703634987,163.97378590517866,1
-102.36480556816463,110.29521472392639,-78.95068115192274,-104.4160263446762,32.90798219756084,102.0512016718913,-102.65922493681546,-3.802395209580836,-17.622009569378,-34.364705882352936,26.315315315315324,6.5776892430278835,-8.466666666666665,-11.454901960784312,28.94418604651163,17.1934837367022,131.06090316182699,97.2035671480046,13597.752426444093,97.88730740684177,277.5880744385444,1
-102.36480556816463,110.29521472392639,-78.95068115192274,-104.4160263446762,32.90798219756084,102.0512016718913,-102.65922493681546,-6.844311377245506,-35.851674641148335,-2.490196078431371,-13.72972972972972,-13.661354581673312,-17.431372549019606,-13.44705882352941,21.855813953488372,15.663938966783205,101.85817266355909,97.2035671480046,13597.752426444093,97.88730740684177,277.5880744385444,1
-102.36480556816463,110.29521472392639,-78.95068115192274,-104.4160263446762,32.90798219756084,102.0512016718913,-102.65922493681546,2.2814371257485053,-3.0382775119617342,-5.478431372549018,12.585585585585596,6.5776892430278835,23.407843137254904,49.30588235294118,26.581395348837212,16.157067709738257,263.32475628959577,97.2035671480046,13597.752426444093,97.88730740684177,277.5880744385444,1
-86.95339688303828,123.2912883435583,-81.42541817554749,-108.18002195389681,46.253222357089186,87.32079414838034,-89.23167649536651,2.2814371257485053,-3.0382775119617342,-5.478431372549018,12.585585585585596,6.5776892430278835,23.407843137254904,49.30588235294118,26.581395348837212,16.157067709738257,263.32475628959577,97.22336780071468,14357.05269044181,104.29890949100087,449.4850466934191,1
