Gyro 0,Gyro 1,Gyro 2,Orientation 0,Orientation 1,Orientation 2,Orientation 3,Sensor 0,Sensor 1,Sensor 2,Sensor 3,Sensor 4,Sensor 5,Sensor 6,Sensor 7,Sensor Mean,Sensor Variance,Gyro Mean,Gyro Variance,Orientation Mean,Orientation Variance,Label
-26.536102236421723,-93.03201811125486,-63.37579658022588,-108.99577304503332,123.66713951344067,20.384389593062053,-8.019668737060101,-9.109704641350206,-3.48627450980392,-4.23333333333334,-5.219178082191775,-14.44313725490196,-9.769230769230775,-0.49803921568627274,-0.505976095617533,5.908109237764473,23.65740855833501,60.98130564263416,1109.726897145878,88.46786257883802,535.9191999554646,1
-26.536102236421723,-93.03201811125486,-63.37579658022588,-108.99577304503332,123.66713951344067,20.384389593062053,-8.019668737060101,-9.109704641350206,-0.49803921568627274,12.699999999999994,0.5799086757990937,4.482352941176472,0.5141700404858236,5.4784313725490215,0.5059760956175268,4.233572872833051,21.7287174944907,60.98130564263416,1109.726897145878,88.46786257883802,535.9191999554646,1
-26.536102236421723,-93.03201811125486,-63.37579658022588,-108.99577304503332,123.66713951344067,20.384389593062053,-8.019668737060101,-11.25316455696202,1.4941176470588253,14.816666666666661,-2.899543378995427,4.482352941176472,-3.599190283400816,-0.49803921568627274,-2.5298804780876525,5.196619396004268,25.78031924440778,60.98130564263416,1109.726897145878,88.46786257883802,535.9191999554646,1
-26.26560170394036,-93.15523932729624,-63.37579658022588,-108.91318484799218,123.79324774806724,20.282721814543038,-8.677018633540456,-11.25316455696202,1.4941176470588253,14.816666666666661,-2.899543378995427,4.482352941176472,-3.599190283400816,-0.49803921568627274,-2.5298804780876525,5.196619396004268,25.78031924440778,60.93221253715416,1123.0342325776328,88.48140691850477,534.7969646014271,1
-26.46396876109336,-93.03201811125486,-63.3437440848003,-108.76865550317021,123.9013405206043,20.147164776517684,-9.071428571428669,-11.25316455696202,1.4941176470588253,14.816666666666661,-2.899543378995427,4.482352941176472,-3.599190283400816,-0.49803921568627274,-2.5298804780876525,5.196619396004268,25.78031924440778,60.94657698571617,1112.1361061470825,88.38147256640845,532.0763247402062,1
-26.46396876109336,-93.03201811125486,-63.3437440848003,-108.76865550317021,123.9013405206043,20.147164776517684,-9.071428571428669,-2.679324894514762,1.4941176470588253,9.524999999999995,-2.899543378995427,3.4862745098039234,-0.514170040485836,4.482352941176472,4.553784860557766,3.704321034074126,7.430730983740505,60.94657698571617,1112.1361061470825,88.38147256640845,532.0763247402062,1
-26.46396876109336,-93.03201811125486,-63.3437440848003,-108.76865550317021,123.9013405206043,20.147164776517684,-9.071428571428669,-18.75527426160337,-11.454901960784312,-8.466666666666672,1.7397260273972672,0.4980392156862763,-5.655870445344135,-0.49803921568627274,-5.565737051792832,6.579281855620143,39.26471004477005,60.94657698571617,1112.1361061470825,88.38147256640845,532.0763247402062,1
-25.941001064962723,-93.11416558861579,-63.31169158937472,-108.74800845390992,124.04546421732039,20.079386257505007,-10.123188405797237,-18.75527426160337,-11.454901960784312,-8.466666666666672,1.7397260273972672,0.4980392156862763,-5.655870445344135,-0.49803921568627274,-5.565737051792832,6.579281855620143,39.26471004477005,60.78895274765108,1132.8316664780966,88.39128854396681,532.8438982377656,1
-25.941001064962723,-93.11416558861579,-63.31169158937472,-108.74800845390992,124.04546421732039,20.079386257505007,-10.123188405797237,-10.181434599156113,-10.458823529411763,2.116666666666661,-5.219178082191775,-1.4941176470588218,-8.740890688259114,-1.4941176470588218,-1.5179282868525927,5.152894643331957,16.503166214296133,60.78895274765108,1132.8316664780966,88.39128854396681,532.8438982377656,1
-25.941001064962723,-93.11416558861579,-63.31169158937472,-108.74800845390992,124.04546421732039,20.079386257505007,-10.123188405797237,3.7510548523206815,25.400000000000002,29.63333333333333,-1.7397260273972535,10.458823529411767,5.655870445344123,9.462745098039218,4.553784860557766,11.331917268300517,109.24986760795875,60.78895274765108,1132.8316664780966,88.39128854396681,532.8438982377656,1
-25.778700745473905,-92.99094437257439,-63.29566534166193,-108.74800845390992,124.20760337612597,20.079386257505007,-11.306418219461875,3.7510548523206815,25.400000000000002,29.63333333333333,-1.7397260273972535,10.458823529411767,5.655870445344123,9.462745098039218,4.553784860557766,11.331917268300517,109.24986760795875,60.68843681990341,1134.4696537706807,88.34487272271542,532.6683599300968,1
-25.778700745473905,-92.99094437257439,-63.29566534166193,-108.74800845390992,124.20760337612597,20.079386257505007,-11.306418219461875,-13.396624472573833,1.4941176470588253,7.408333333333328,-13.337899543378988,-37.35294117647059,-11.825910931174095,0.4980392156862763,-3.5418326693227122,11.10696237362483,139.35071457989997,60.68843681990341,1134.4696537706807,88.34487272271542,532.6683599300968,1
-25.778700745473905,-92.99094437257439,-63.29566534166193,-108.74800845390992,124.20760337612597,20.079386257505007,-11.306418219461875,-15.54008438818565,2.4901960784313744,28.574999999999996,2.899543378995441,9.462745098039218,-2.570850202429156,-8.466666666666665,-2.5298804780876525,9.066870786354393,84.1722377839596,60.68843681990341,1134.4696537706807,88.34487272271542,532.6683599300968,1
-25.886900958466452,-91.96410090556274,-63.35977033251309,-108.80994960169078,124.35172707284207,20.113275517011346,-12.489648033126286,-15.54008438818565,2.4901960784313744,28.574999999999996,2.899543378995441,9.462745098039218,-2.570850202429156,-8.466666666666665,-2.5298804780876525,9.066870786354393,84.1722377839596,60.40359073218076,1098.103336584201,88.04460694658887,527.9515235709218,1
-25.886900958466452,-91.96410090556274,-63.35977033251309,-108.80994960169078,124.35172707284207,20.113275517011346,-12.489648033126286,-8.037974683544299,-1.4941176470588218,10.583333333333329,0.5799086757990937,12.450980392156865,-0.514170040485836,2.4901960784313744,1.5179282868525865,4.708576142207775,23.65937358956959,60.40359073218076,1098.103336584201,88.04460694658887,527.9515235709218,1
-25.886900958466452,-91.96410090556274,-63.35977033251309,-108.80994960169078,124.35172707284207,20.113275517011346,-12.489648033126286,-8.037974683544299,3.4862745098039234,3.1749999999999945,0.5799086757990937,1.4941176470588253,-7.712550607287455,-7.470588235294116,1.5179282868525865,4.184292830705036,9.563319053874702,60.40359073218076,1098.103336584201,88.04460694658887,527.9515235709218,1
-25.814767483138088,-90.28007761966364,-63.55208530506656,-108.99577304503332,124.4418043832896,20.181054036024022,-13.278467908902712,-8.037974683544299,3.4862745098039234,3.1749999999999945,0.5799086757990937,1.4941176470588253,-7.712550607287455,-7.470588235294116,1.5179282868525865,4.184292830705036,9.563319053874702,59.8823101359561,1049.0444900934708,87.60931198992118,521.6319306386615,1
-25.814767483138088,-90.28007761966364,-63.55208530506656,-108.99577304503332,124.4418043832896,20.181054036024022,-13.278467908902712,-11.25316455696202,-1.4941176470588218,6.349999999999994,0.5799086757990937,6.4745098039215705,-1.542510121457496,0.4980392156862763,-2.5298804780876525,3.8402663123716154,14.641526333105892,59.8823101359561,1049.0444900934708,87.60931198992118,521.6319306386615,1
-25.814767483138088,-90.28007761966364,-63.55208530506656,-108.99577304503332,124.4418043832896,20.181054036024022,-13.278467908902712,4.822784810126588,38.34901960784314,37.04166666666666,-2.899543378995427,0.4980392156862763,-5.655870445344135,2.4901960784313744,5.5657370517928255,12.165357156860802,251.40672577434057,59.8823101359561,1049.0444900934708,87.60931198992118,521.6319306386615,1
-25.345899893503724,-89.25323415265201,-63.84055776389677,-109.28483173467728,124.47783530746864,20.384389593062053,-14.067287784679138,4.822784810126588,38.34901960784314,37.04166666666666,-2.899543378995427,0.4980392156862763,-5.655870445344135,2.4901960784313744,5.5657370517928255,12.165357156860802,251.40672577434057,59.47989727001751,1035.2983629847868,87.45954121707535,518.7085099431931,1
-25.345899893503724,-89.25323415265201,-63.84055776389677,-109.28483173467728,124.47783530746864,20.384389593062053,-14.067287784679138,-5.894514767932484,8.466666666666669,11.641666666666662,0.5799086757990937,-7.470588235294116,-2.570850202429156,-8.466666666666665,1.5179282868525865,5.8260987710384295,15.307791513973708,59.47989727001751,1035.2983629847868,87.45954121707535,518.7085099431931,1
-25.345899893503724,-89.25323415265201,-63.84055776389677,-109.28483173467728,124.47783530746864,20.384389593062053,-14.067287784679138,-18.75527426160337,-28.388235294117646,-13.75833333333334,-5.219178082191775,-7.470588235294116,-8.740890688259114,-1.4941176470588218,-3.5418326693227122,10.92105627639761,81.00254785358365,59.47989727001751,1035.2983629847868,87.45954121707535,518.7085099431931,1
-24.696698615548453,-88.55498059508409,-64.03287273645024,-109.69777271988293,124.49585076955813,20.757171447631777,-15.250517598343777,-18.75527426160337,-28.388235294117646,-13.75833333333334,-5.219178082191775,-7.470588235294116,-8.740890688259114,-1.4941176470588218,-3.5418326693227122,10.92105627639761,81.00254785358365,59.09485064902759,1037.7580909463768,87.4285420171391,522.2724205266398,1
-24.696698615548453,-88.55498059508409,-64.03287273645024,-109.69777271988293,124.49585076955813,20.757171447631777,-15.250517598343777,-10.181434599156113,6.4745098039215705,5.291666666666661,-0.5799086757990799,3.4862745098039234,1.5425101214574832,10.458823529411767,-4.553784860557772,5.321114095846796,13.151752817331689,59.09485064902759,1037.7580909463768,87.4285420171391,522.2724205266398,1
-24.696698615548453,-88.55498059508409,-64.03287273645024,-109.69777271988293,124.49585076955813,20.757171447631777,-15.250517598343777,-19.827004219409275,-24.40392156862745,-22.225000000000005,-6.378995433789948,-4.482352941176469,-7.712550607287455,-10.458823529411763,8.601593625498005,13.011280240650045,61.70081589421319,59.09485064902759,1037.7580909463768,87.4285420171391,522.2724205266398,1
-24.62456514022009,-88.47283311772316,-64.2572402044293,-110.15200780360917,124.47783530746864,21.09606404269516,-15.907867494824131,-19.827004219409275,-24.40392156862745,-22.225000000000005,-6.378995433789948,-4.482352941176469,-7.712550607287455,-10.458823529411763,8.601593625498005,13.011280240650045,61.70081589421319,59.11821282079084,1038.9575327691,87.62736037525387,527.1185413643766,1
-24.62456514022009,-88.47283311772316,-64.2572402044293,-110.15200780360917,124.47783530746864,21.09606404269516,-15.907867494824131,-4.822784810126577,9.462745098039218,23.283333333333328,1.7397260273972672,13.447058823529414,-0.514170040485836,3.4862745098039234,0.5059760956175268,7.1577585922916365,63.08183927908682,59.11821282079084,1038.9575327691,87.62736037525387,527.1185413643766,1
-24.62456514022009,-88.47283311772316,-64.2572402044293,-110.15200780360917,124.47783530746864,21.09606404269516,-15.907867494824131,-11.25316455696202,8.466666666666669,20.108333333333327,-9.858447488584469,5.4784313725490215,-5.655870445344135,-0.49803921568627274,-5.565737051792832,8.360586266364843,33.41207776711607,59.11821282079084,1038.9575327691,87.62736037525387,527.1185413643766,1
-23.776996805111818,-88.71927554980596,-64.46558142469556,-110.73012518289708,124.47783530746864,21.5705136757839,-17.09109730848877,-11.25316455696202,8.466666666666669,20.108333333333327,-9.858447488584469,5.4784313725490215,-5.655870445344135,-0.49803921568627274,-5.565737051792832,8.360586266364843,33.41207776711607,58.98728459320444,1076.8836942688324,87.97166071913288,535.5211982399178,1
-23.776996805111818,-88.71927554980596,-64.46558142469556,-110.73012518289708,124.47783530746864,21.5705136757839,-17.09109730848877,-16.611814345991554,-13.44705882352941,-14.816666666666674,1.7397260273972672,2.4901960784313744,-9.769230769230775,-5.478431372549018,-2.5298804780876525,8.360375570235465,36.8887770137435,58.98728459320444,1076.8836942688324,87.97166071913288,535.5211982399178,1
-23.776996805111818,-88.71927554980596,-64.46558142469556,-110.73012518289708,124.47783530746864,21.5705136757839,-17.09109730848877,-13.396624472573833,-0.49803921568627274,11.641666666666662,-4.059360730593601,6.4745098039215705,0.5141700404858236,4.482352941176472,0.5059760956175268,5.19658749584022,25.459911079032093,58.98728459320444,1076.8836942688324,87.97166071913288,535.5211982399178,1
-22.514660986865458,-88.96571798188874,-64.80213262666413,-111.37018370996584,124.38775799702108,22.31607738492329,-18.668737060041394,-13.396624472573833,-0.49803921568627274,11.641666666666662,-4.059360730593601,6.4745098039215705,0.5141700404858236,4.482352941176472,0.5059760956175268,5.19658749584022,25.459911079032093,58.76083719847278,1131.3086817769727,88.37934477283959,542.4037205794673,1
-22.514660986865458,-88.96571798188874,-64.80213262666413,-111.37018370996584,124.38775799702108,22.31607738492329,-18.668737060041394,-11.25316455696202,1.4941176470588253,8.466666666666661,-1.7397260273972535,-2.490196078431371,-5.655870445344135,0.4980392156862763,-2.5298804780876525,4.265957639454275,14.689759975506139,58.76083719847278,1131.3086817769727,88.37934477283959,542.4037205794673,1
-22.514660986865458,-88.96571798188874,-64.80213262666413,-111.37018370996584,124.38775799702108,22.31607738492329,-18.668737060041394,-5.894514767932484,-6.474509803921567,-13.75833333333334,-1.7397260273972535,8.466666666666669,2.5708502024291437,10.458823529411767,1.5179282868525865,6.360169077243102,19.33625284202705,58.76083719847278,1131.3086817769727,88.37934477283959,542.4037205794673,1
-21.91955981540646,-89.58182406209573,-65.28292005804782,-111.86571289221264,124.18958791403648,23.298865910607105,-20.246376811594246,-5.894514767932484,-6.474509803921567,-13.75833333333334,-1.7397260273972535,8.466666666666669,2.5708502024291437,10.458823529411767,1.5179282868525865,6.360169077243102,19.33625284202705,58.92810131185001,1174.8332917199718,88.91015233745206,542.8275042369437,1
-21.91955981540646,-89.58182406209573,-65.28292005804782,-111.86571289221264,124.18958791403648,23.298865910607105,-20.246376811594246,-9.109704641350206,12.450980392156865,10.583333333333329,-2.899543378995427,-16.435294117647057,-4.6275303643724754,-2.490196078431371,-3.5418326693227122,7.7673018719511795,26.579812263253164,58.92810131185001,1174.8332917199718,88.91015233745206,542.8275042369437,1
-21.91955981540646,-89.58182406209573,-65.28292005804782,-111.86571289221264,124.18958791403648,23.298865910607105,-20.246376811594246,-9.109704641350206,4.482352941176472,-2.1166666666666725,-1.7397260273972535,-20.419607843137253,-11.825910931174095,-18.427450980392155,-3.5418326693227122,8.957906587577103,53.93721280397813,58.92810131185001,1174.8332917199718,88.91015233745206,542.8275042369437,1
-22.117926872559458,-89.29430789133248,-65.41113003975013,-112.21671272963745,123.91935598269382,24.38332221480988,-21.692546583851026,-9.109704641350206,4.482352941176472,-2.1166666666666725,-1.7397260273972535,-20.419607843137253,-11.825910931174095,-18.427450980392155,-3.5418326693227122,8.957906587577103,53.93721280397813,58.94112160121403,1159.5622985908885,88.97405022024002,547.76756646689,1
-22.117926872559458,-89.29430789133248,-65.41113003975013,-112.21671272963745,123.91935598269382,24.38332221480988,-21.692546583851026,-14.46835443037974,0.4980392156862763,17.99166666666666,1.7397260273972672,17.43137254901961,1.5425101214574832,-2.490196078431371,3.541832669322706,7.4629622197951395,59.38847712994446,58.94112160121403,1159.5622985908885,88.97405022024002,547.76756646689,1
-22.117926872559458,-89.29430789133248,-65.41113003975013,-112.21671272963745,123.91935598269382,24.38332221480988,-21.692546583851026,-11.25316455696202,-17.431372549019606,5.291666666666661,0.5799086757990937,-12.450980392156861,-10.797570850202435,-1.4941176470588218,-1.5179282868525927,7.602088703089762,38.94877332761352,58.94112160121403,1159.5622985908885,88.97405022024002,547.76756646689,1
-23.722896698615546,-89.45860284605433,-65.21881506719666,-112.34059502519915,123.61309312717214,25.162775183455665,-21.955486542443168,-11.25316455696202,-17.431372549019606,5.291666666666661,0.5799086757990937,-12.450980392156861,-10.797570850202435,-1.4941176470588218,-1.5179282868525927,7.602088703089762,38.94877332761352,59.46677153728884,1105.110269253071,89.00600431281673,555.269170676818,1
-23.722896698615546,-89.45860284605433,-65.21881506719666,-112.34059502519915,123.61309312717214,25.162775183455665,-21.955486542443168,-15.54008438818565,-6.474509803921567,4.233333333333327,-1.7397260273972535,5.4784313725490215,-6.684210526315796,0.4980392156862763,-5.565737051792832,5.776758964897716,20.473008185744938,59.46677153728884,1105.110269253071,89.00600431281673,555.269170676818,1
-23.722896698615546,-89.45860284605433,-65.21881506719666,-112.34059502519915,123.61309312717214,25.162775183455665,-21.955486542443168,-6.966244725738392,-3.48627450980392,-9.525000000000006,-4.059360730593601,13.447058823529414,0.5141700404858236,1.4941176470588253,3.541832669322706,5.3792573933165855,18.894308183427217,59.46677153728884,1105.110269253071,89.00600431281673,555.269170676818,1
-25.634433794817177,-90.07470892626132,-64.99444759921761,-112.25800682815802,123.37889212000852,25.46777851901271,-21.298136645962813,-6.966244725738392,-3.48627450980392,-9.525000000000006,-4.059360730593601,13.447058823529414,0.5141700404858236,1.4941176470588253,3.541832669322706,5.3792573933165855,18.894308183427217,60.23453010676537,1055.1298756552692,89.10905445121232,559.1603741707761,1
-25.634433794817177,-90.07470892626132,-64.99444759921761,-112.25800682815802,123.37889212000852,25.46777851901271,-21.298136645962813,-14.46835443037974,-12.450980392156861,-11.641666666666673,-7.538812785388121,-4.482352941176469,-6.684210526315796,0.4980392156862763,0.5059760956175268,7.283799131673433,28.223809776345966,60.23453010676537,1055.1298756552692,89.10905445121232,559.1603741707761,1
-25.634433794817177,-90.07470892626132,-64.99444759921761,-112.25800682815802,123.37889212000852,25.46777851901271,-21.298136645962813,-5.894514767932484,10.458823529411767,4.233333333333327,-2.899543378995427,3.4862745098039234,-4.6275303643724754,2.4901960784313744,-4.553784860557772,4.830500102854819,6.328155319039046,60.23453010676537,1055.1298756552692,89.10905445121232,559.1603741707761,1
-26.482002129925448,-90.85510996119017,-64.43352892926998,-112.1547715818566,123.27079934747147,25.433889259506373,-20.246376811594246,-5.894514767932484,10.458823529411767,4.233333333333327,-2.899543378995427,3.4862745098039234,-4.6275303643724754,2.4901960784313744,-4.553784860557772,4.830500102854819,6.328155319039046,60.59021367346187,1047.0525570805542,89.14780349077223,571.5154216147112,1
-26.482002129925448,-90.85510996119017,-64.43352892926998,-112.1547715818566,123.27079934747147,25.433889259506373,-20.246376811594246,-0.5358649789029482,-3.48627450980392,-20.108333333333338,-9.858447488584469,1.4941176470588253,-7.712550607287455,-8.466666666666665,5.5657370517928255,7.153499035428807,38.42466110732358,60.59021367346187,1047.0525570805542,89.14780349077223,571.5154216147112,1
-26.482002129925448,-90.85510996119017,-64.43352892926998,-112.1547715818566,123.27079934747147,25.433889259506373,-20.246376811594246,-11.25316455696202,6.4745098039215705,19.049999999999994,-2.899543378995427,4.482352941176472,0.5141700404858236,9.462745098039218,-3.5418326693227122,7.209789811112905,35.208324394021794,60.59021367346187,1047.0525570805542,89.14780349077223,571.5154216147112,1
-25.688533901313452,-91.51228978007762,-64.01684648873746,-112.29930092667857,123.28881480956096,25.366110740493696,-20.114906832298175,-11.25316455696202,6.4745098039215705,19.049999999999994,-2.899543378995427,4.482352941176472,0.5141700404858236,9.462745098039218,-3.5418326693227122,7.209789811112905,35.208324394021794,60.40589005670952,1092.9709642622881,89.2761457318312,586.5491067913457,1
-25.688533901313452,-91.51228978007762,-64.01684648873746,-112.29930092667857,123.28881480956096,25.366110740493696,-20.114906832298175,-13.396624472573833,-4.482352941176469,-3.175000000000006,-4.059360730593601,3.4862745098039234,-6.684210526315796,0.4980392156862763,-3.5418326693227122,4.9154618831840775,14.635906789271575,60.40589005670952,1092.9709642622881,89.2761457318312,586.5491067913457,1
-25.688533901313452,-91.51228978007762,-64.01684648873746,-112.29930092667857,123.28881480956096,25.366110740493696,-20.114906832298175,-9.109704641350206,-1.4941176470588218,7.408333333333328,-2.899543378995427,-0.49803921568627274,-5.655870445344135,1.4941176470588253,-1.5179282868525927,3.7597068244599514,10.314300702196666,60.40589005670952,1092.9709642622881,89.2761457318312,586.5491067913457,1
-25.093432729854452,-92.3748382923674,-63.584137800492144,-112.44383027150056,123.36087665791902,25.366110740493696,-20.64078674948246,-9.109704641350206,-1.4941176470588218,7.408333333333328,-2.899543378995427,-0.49803921568627274,-5.655870445344135,1.4941176470588253,-1.5179282868525927,3.7597068244599514,10.314300702196666,60.350802940904664,1139.537724352505,89.46760212145337,603.1564037054823,1
-25.093432729854452,-92.3748382923674,-63.584137800492144,-112.44383027150056,123.36087665791902,25.366110740493696,-20.64078674948246,-8.037974683544299,4.482352941176472,11.641666666666662,0.5799086757990937,5.4784313725490215,-1.542510121457496,-2.490196078431371,2.5298804780876463,4.597865127214008,13.776604492740546,60.350802940904664,1139.537724352505,89.46760212145337,603.1564037054823,1
-25.093432729854452,-92.3748382923674,-63.584137800492144,-112.44383027150056,123.36087665791902,25.366110740493696,-20.64078674948246,0.5358649789029588,4.482352941176472,-31.750000000000007,-9.858447488584469,-23.4078431372549,-9.769230769230775,-4.482352941176469,7.589641434262945,11.484466711323623,113.07792229326186,60.350802940904664,1139.537724352505,89.46760212145337,603.1564037054823,1
-25.70656727014554,-92.90879689521346,-63.103350369108455,-112.56771256706226,123.48698489254559,25.162775183455665,-20.9037267080746,0.5358649789029588,4.482352941176472,-31.750000000000007,-9.858447488584469,-23.4078431372549,-9.769230769230775,-4.482352941176469,7.589641434262945,11.484466711323623,113.07792229326186,60.57290484482248,1133.8372825586232,89.52661994379473,620.2601226106215,1
-25.70656727014554,-92.90879689521346,-63.103350369108455,-112.56771256706226,123.48698489254559,25.162775183455665,-20.9037267080746,-2.679324894514762,9.462745098039218,5.291666666666661,-5.219178082191775,-17.431372549019606,-4.6275303643724754,-0.49803921568627274,1.5179282868525865,5.84097314466792,29.54958285600161,60.57290484482248,1133.8372825586232,89.52661994379473,620.2601226106215,1
-25.70656727014554,-92.90879689521346,-63.103350369108455,-112.56771256706226,123.48698489254559,25.162775183455665,-20.9037267080746,-16.611814345991554,-11.454901960784312,14.816666666666661,-0.5799086757990799,14.443137254901963,-2.570850202429156,0.4980392156862763,-4.553784860557772,8.191137897852098,46.639660518727396,60.57290484482248,1133.8372825586232,89.52661994379473,620.2601226106215,1
-27.11317003904863,-93.48382923673998,-62.654615433150354,-112.56771256706226,123.70317043761969,24.518879252835234,-20.246376811594246,-16.611814345991554,-11.454901960784312,14.816666666666661,-0.5799086757990799,14.443137254901963,-2.570850202429156,0.4980392156862763,-4.553784860557772,8.191137897852098,46.639660518727396,61.08387156964633,1103.1165277975745,89.5687190789842,634.3253820353531,1
-27.11317003904863,-93.48382923673998,-62.654615433150354,-112.56771256706226,123.70317043761969,24.518879252835234,-20.246376811594246,-10.181434599156113,1.4941176470588253,20.108333333333327,-0.5799086757990799,9.462745098039218,-0.514170040485836,3.4862745098039234,0.5059760956175268,5.791619999911731,49.20721445112571,61.08387156964633,1103.1165277975745,89.5687190789842,634.3253820353531,1
-27.11317003904863,-93.48382923673998,-62.654615433150354,-112.56771256706226,123.70317043761969,24.518879252835234,-20.246376811594246,-4.822784810126577,7.4705882352941195,6.349999999999994,-0.5799086757990799,-13.44705882352941,-1.542510121457496,10.458823529411767,0.5059760956175268,5.647206286404496,22.492279307955773,61.08387156964633,1103.1165277975745,89.5687190789842,634.3253820353531,1
-28.050905218317354,-94.0588615782665,-62.334090478894566,-112.52641846854169,123.97340236896235,23.536090727151475,-19.063146997929607,-4.822784810126577,7.4705882352941195,6.349999999999994,-0.5799086757990799,-13.44705882352941,-1.542510121457496,10.458823529411767,0.5059760956175268,5.647206286404496,22.492279307955773,61.48128575849281,1089.8080326225925,89.63979017523424,644.4635913039016,1
-28.050905218317354,-94.0588615782665,-62.334090478894566,-112.52641846854169,123.97340236896235,23.536090727151475,-19.063146997929607,-5.894514767932484,30.380392156862747,50.8,-2.899543378995427,0.4980392156862763,-1.542510121457496,12.450980392156865,-3.5418326693227122,13.500976587801752,322.678400726338,61.48128575849281,1089.8080326225925,89.63979017523424,644.4635913039016,1
-28.050905218317354,-94.0588615782665,-62.334090478894566,-112.52641846854169,123.97340236896235,23.536090727151475,-19.063146997929607,-12.324894514767927,-5.478431372549018,6.349999999999994,-5.219178082191775,-0.49803921568627274,-0.514170040485836,-1.4941176470588218,-0.505976095617533,4.048100871044647,17.3403432719687,61.48128575849281,1089.8080326225925,89.63979017523424,644.4635913039016,1
-28.519772807951718,-94.18208279430789,-62.04561802006435,-112.46447732076084,124.31569614866302,22.417745163442305,-17.748447204969125,-12.324894514767927,-5.478431372549018,6.349999999999994,-5.219178082191775,-0.49803921568627274,-0.514170040485836,-1.4941176470588218,-0.505976095617533,4.048100871044647,17.3403432719687,61.582491207441315,1078.04560301951,89.56405937837769,651.5099484984166,1
-28.519772807951718,-94.18208279430789,-62.04561802006435,-112.46447732076084,124.31569614866302,22.417745163442305,-17.748447204969125,-1.6075949367088551,-0.49803921568627274,4.233333333333327,-4.059360730593601,-0.49803921568627274,-1.542510121457496,-1.4941176470588218,6.577689243027885,2.5638355554440664,4.6816667152105556,61.582491207441315,1078.04560301951,89.56405937837769,651.5099484984166,1
-28.519772807951718,-94.18208279430789,-62.04561802006435,-112.46447732076084,124.31569614866302,22.417745163442305,-17.748447204969125,-6.966244725738392,-10.458823529411763,-35.98333333333334,1.7397260273972672,-0.49803921568627274,-0.514170040485836,1.4941176470588253,-1.5179282868525927,7.396547850745537,146.16000378252343,61.582491207441315,1078.04560301951,89.56405937837769,651.5099484984166,1
-29.078807241746535,-93.97671410090557,-61.93343428607483,-112.36124207445943,124.67600539045324,21.231621080720515,-16.565217391304486,-6.966244725738392,-10.458823529411763,-35.98333333333334,1.7397260273972672,-0.49803921568627274,-0.514170040485836,1.4941176470588253,-1.5179282868525927,7.396547850745537,146.16000378252343,61.662985209575645,1052.9894357022545,89.42379682047994,651.2877414073644,1
-29.078807241746535,-93.97671410090557,-61.93343428607483,-112.36124207445943,124.67600539045324,21.231621080720515,-16.565217391304486,-13.396624472573833,5.4784313725490215,14.816666666666661,-6.378995433789948,-2.490196078431371,-7.712550607287455,2.4901960784313744,1.5179282868525865,6.7851986245727804,25.083754941592833,61.662985209575645,1052.9894357022545,89.42379682047994,651.2877414073644,1
-29.078807241746535,-93.97671410090557,-61.93343428607483,-112.36124207445943,124.67600539045324,21.231621080720515,-16.565217391304486,-19.827004219409275,1.4941176470588253,33.86666666666666,-2.899543378995427,-10.458823529411763,-14.910931174089074,-8.466666666666665,-5.565737051792832,12.186186291761315,113.86579822133771,61.662985209575645,1052.9894357022545,89.42379682047994,651.2877414073644,1
-29.331274405395806,-94.01778783958603,-61.997539276925984,-112.29930092667857,125.10837648060146,20.011607738492387,-15.907867494824131,-19.827004219409275,1.4941176470588253,33.86666666666666,-2.899543378995427,-10.458823529411763,-14.910931174089074,-8.466666666666665,-5.565737051792832,12.186186291761315,113.86579822133771,61.782200507302605,1046.1210331571954,89.4382093477302,648.2962106394314,1
-29.331274405395806,-94.01778783958603,-61.997539276925984,-112.29930092667857,125.10837648060146,20.011607738492387,-15.907867494824131,-8.037974683544299,-5.478431372549018,-9.525000000000006,-1.7397260273972535,10.458823529411767,-0.514170040485836,1.4941176470588253,1.5179282868525865,4.8457714484124494,16.38719511466113,61.782200507302605,1046.1210331571954,89.4382093477302,648.2962106394314,1
-29.331274405395806,-94.01778783958603,-61.997539276925984,-112.29930092667857,125.10837648060146,20.011607738492387,-15.907867494824131,-14.46835443037974,5.4784313725490215,29.63333333333333,-1.7397260273972535,0.4980392156862763,-3.599190283400816,-0.49803921568627274,0.5059760956175268,7.052636246756279,105.185203673624,61.782200507302605,1046.1210331571954,89.4382093477302,648.2962106394314,1
-28.10500532481363,-93.60705045278138,-62.350116726607354,-112.36124207445943,125.54074757074972,19.164376250833925,-16.302277432712344,-14.46835443037974,5.4784313725490215,29.63333333333333,-1.7397260273972535,0.4980392156862763,-3.599190283400816,-0.49803921568627274,0.5059760956175268,7.052636246756279,105.185203673624,61.35405750140078,1073.3735794716704,89.43946975128272,638.3047113172711,1
-28.10500532481363,-93.60705045278138,-62.350116726607354,-112.36124207445943,125.54074757074972,19.164376250833925,-16.302277432712344,-11.25316455696202,-14.44313725490196,-7.4083333333333385,-6.378995433789948,-3.48627450980392,-5.655870445344135,-5.478431372549018,-1.5179282868525927,6.952766899192117,17.220781205151987,61.35405750140078,1073.3735794716704,89.43946975128272,638.3047113172711,1
-28.10500532481363,-93.60705045278138,-62.350116726607354,-112.36124207445943,125.54074757074972,19.164376250833925,-16.302277432712344,-9.109704641350206,7.4705882352941195,23.283333333333328,1.7397260273972672,10.458823529411767,-2.570850202429156,-8.466666666666665,2.5298804780876463,8.20369663924627,48.5160795236833,61.35405750140078,1073.3735794716704,89.43946975128272,638.3047113172711,1
-26.06723464678736,-92.82664941785252,-62.76679916713988,-112.67094781336367,125.9010568125399,18.85937291527688,-17.879917184265196,-9.109704641350206,7.4705882352941195,23.283333333333328,1.7397260273972672,10.458823529411767,-2.570850202429156,-8.466666666666665,2.5298804780876463,8.20369663924627,48.5160795236833,60.55356107725992,1117.87868227565,89.4214654661187,631.3024713349591,1
-26.06723464678736,-92.82664941785252,-62.76679916713988,-112.67094781336367,125.9010568125399,18.85937291527688,-17.879917184265196,-14.46835443037974,-9.462745098039214,-5.329070518200751e-15,0.5799086757990937,-12.450980392156861,-7.712550607287455,-3.48627450980392,-0.505976095617533,6.083348726135478,32.868076622645404,60.55356107725992,1117.87868227565,89.4214654661187,631.3024713349591,1
-26.06723464678736,-92.82664941785252,-62.76679916713988,-112.67094781336367,125.9010568125399,18.85937291527688,-17.879917184265196,-11.25316455696202,-6.474509803921567,4.233333333333327,-5.219178082191775,10.458823529411767,-1.542510121457496,3.4862745098039234,3.541832669322706,5.776203325800573,11.894676790476316,60.55356107725992,1117.87868227565,89.4214654661187,631.3024713349591,1
-24.173730919417817,-91.92302716688228,-63.37579658022588,-113.14582994635018,126.17128874388254,19.096597731821248,-20.509316770186388,-11.25316455696202,-6.474509803921567,4.233333333333327,-5.219178082191775,10.458823529411767,-1.542510121457496,3.4862745098039234,3.541832669322706,5.776203325800573,11.894676790476316,59.82418488884199,1156.9522447114566,89.48155123115278,623.7346588748411,1
-24.173730919417817,-91.92302716688228,-63.37579658022588,-113.14582994635018,126.17128874388254,19.096597731821248,-20.509316770186388,-17.68354430379746,-4.482352941176469,7.408333333333328,-1.7397260273972535,-5.478431372549018,-7.712550607287455,-1.4941176470588218,-3.5418326693227122,6.192611112740314,26.885061526739577,59.82418488884199,1156.9522447114566,89.48155123115278,623.7346588748411,1
-24.173730919417817,-91.92302716688228,-63.37579658022588,-113.14582994635018,126.17128874388254,19.096597731821248,-20.509316770186388,-8.037974683544299,-4.482352941176469,16.93333333333333,-7.538812785388121,-0.49803921568627274,-7.712550607287455,-3.48627450980392,-2.5298804780876525,6.40240231928844,25.518834621527226,59.82418488884199,1156.9522447114566,89.48155123115278,623.7346588748411,1
-23.27206247781327,-91.10155239327297,-63.72837402990724,-113.6000650300764,126.27938151641962,19.638825883922664,-23.007246376811736,-8.037974683544299,-4.482352941176469,16.93333333333333,-7.538812785388121,-0.49803921568627274,-7.712550607287455,-3.48627450980392,-2.5298804780876525,6.40240231928844,25.518834621527226,59.3673296336645,1164.4739567173624,89.4766638177522,623.7765879662315,1
-23.27206247781327,-91.10155239327297,-63.72837402990724,-113.6000650300764,126.27938151641962,19.638825883922664,-23.007246376811736,-4.822784810126577,15.439215686274512,-3.175000000000006,-1.7397260273972535,3.4862745098039234,0.5141700404858236,5.4784313725490215,1.5179282868525865,4.521691341686213,22.272308948950556,59.3673296336645,1164.4739567173624,89.4766638177522,623.7765879662315,1
-23.27206247781327,-91.10155239327297,-63.72837402990724,-113.6000650300764,126.27938151641962,19.638825883922664,-23.007246376811736,-4.822784810126577,2.4901960784313744,6.349999999999994,2.899543378995441,24.403921568627453,-0.514170040485836,1.4941176470588253,0.5059760956175268,5.435088702417879,62.88183230373394,59.3673296336645,1164.4739567173624,89.4766638177522,623.7765879662315,1
-22.98352857649982,-90.73188874514878,-64.09697772730141,-113.9510648675012,126.2613660543301,20.350500333555715,-24.979296066252573,-4.822784810126577,2.4901960784313744,6.349999999999994,2.899543378995441,24.403921568627453,-0.514170040485836,1.4941176470588253,0.5059760956175268,5.435088702417879,62.88183230373394,59.27079834965,1164.9290819241962,89.59331044665048,622.3297715520171,1
-22.98352857649982,-90.73188874514878,-64.09697772730141,-113.9510648675012,126.2613660543301,20.350500333555715,-24.979296066252573,-19.827004219409275,-15.439215686274508,3.1749999999999945,0.5799086757990937,-6.474509803921567,-7.712550607287455,-3.48627450980392,-8.601593625498012,8.162007140999227,42.35624982360415,59.27079834965,1164.9290819241962,89.59331044665048,622.3297715520171,1
-22.98352857649982,-90.73188874514878,-64.09697772730141,-113.9510648675012,126.2613660543301,20.350500333555715,-24.979296066252573,-8.037974683544299,-5.478431372549018,-9.525000000000006,-6.378995433789948,-2.490196078431371,-1.542510121457496,5.4784313725490215,2.5298804780876463,5.182677442551101,8.021744399155642,59.27079834965,1164.9290819241962,89.59331044665048,622.3297715520171,1
-23.00156194533191,-91.10155239327297,-64.35339769070603,-114.17818240936433,126.15327328179305,21.1299533022015,-26.688405797101495,-8.037974683544299,-5.478431372549018,-9.525000000000006,-6.378995433789948,-2.490196078431371,-1.542510121457496,5.4784313725490215,2.5298804780876463,5.182677442551101,8.021744399155642,59.4855040097703,1177.1744664190865,89.87771083111443,621.7506341921112,1
-23.00156194533191,-91.10155239327297,-64.35339769070603,-114.17818240936433,126.15327328179305,21.1299533022015,-26.688405797101495,-5.894514767932484,-0.49803921568627274,-10.58333333333334,-4.059360730593601,7.4705882352941195,-6.684210526315796,-1.4941176470588218,6.577689243027885,5.40773171240529,10.788135067279695,59.4855040097703,1177.1744664190865,89.87771083111443,621.7506341921112,1
-23.00156194533191,-91.10155239327297,-64.35339769070603,-114.17818240936433,126.15327328179305,21.1299533022015,-26.688405797101495,-8.037974683544299,-2.490196078431371,3.1749999999999945,-1.7397260273972535,-8.466666666666665,-6.684210526315796,-0.49803921568627274,0.5059760956175268,3.949723661707397,10.854574116597169,59.4855040097703,1177.1744664190865,89.87771083111443,621.7506341921112,1
-23.83109691160809,-91.34799482535576,-64.36942393841882,-114.24012355714517,126.00914958507695,21.77384923282193,-27.740165631470063,-8.037974683544299,-2.490196078431371,3.1749999999999945,-1.7397260273972535,-8.466666666666665,-6.684210526315796,-0.49803921568627274,0.5059760956175268,3.949723661707397,10.854574116597169,59.84950522512755,1154.9551248549262,89.98584744030659,623.1632542392554,1
-23.83109691160809,-91.34799482535576,-64.36942393841882,-114.24012355714517,126.00914958507695,21.77384923282193,-27.740165631470063,-16.611814345991554,-2.490196078431371,22.224999999999994,-4.059360730593601,0.4980392156862763,-9.769230769230775,-7.470588235294116,-6.5776892430278915,8.712739827281947,54.2927716820824,59.84950522512755,1154.9551248549262,89.98584744030659,623.1632542392554,1
-23.83109691160809,-91.34799482535576,-64.36942393841882,-114.24012355714517,126.00914958507695,21.77384923282193,-27.740165631470063,-3.75105485232067,9.462745098039218,19.049999999999994,-0.5799086757990799,6.4745098039215705,5.655870445344123,12.450980392156865,2.5298804780876463,7.494368718208645,36.12337244957335,59.84950522512755,1154.9551248549262,89.98584744030659,623.1632542392554,1
-25.11146609868654,-92.04624838292368,-64.19313521357815,-114.0749471630629,125.9010568125399,22.180520346897936,-28.397515527950418,-3.75105485232067,9.462745098039218,19.049999999999994,-0.5799086757990799,6.4745098039215705,5.655870445344123,12.450980392156865,2.5298804780876463,7.494368718208645,36.12337244957335,60.45028323172945,1130.572975578078,90.1047769198549,624.8757744223728,1
-25.11146609868654,-92.04624838292368,-64.19313521357815,-114.0749471630629,125.9010568125399,22.180520346897936,-28.397515527950418,-10.181434599156113,-18.427450980392155,5.291666666666661,0.5799086757990937,2.4901960784313744,-2.570850202429156,-1.4941176470588218,-2.5298804780876525,5.445688166002629,36.53849479333217,60.45028323172945,1130.572975578078,90.1047769198549,624.8757744223728,1
-25.11146609868654,-92.04624838292368,-64.19313521357815,-114.0749471630629,125.9010568125399,22.180520346897936,-28.397515527950418,-11.25316455696202,-1.4941176470588218,-10.58333333333334,1.7397260273972672,5.4784313725490215,3.5991902834008034,-0.49803921568627274,-2.5298804780876525,4.6469853643093995,17.251375238421037,60.45028323172945,1130.572975578078,90.1047769198549,624.8757744223728,1
-26.71643592474263,-92.99094437257439,-63.90466275474793,-113.70330027637782,125.86502588836089,22.146631087391654,-28.134575569358276,-11.25316455696202,-1.4941176470588218,-10.58333333333334,1.7397260273972672,5.4784313725490215,3.5991902834008034,-0.49803921568627274,-2.5298804780876525,4.6469853643093995,17.251375238421037,61.20401435068832,1103.547743852193,90.19963580123338,625.8196274080024,1
-26.71643592474263,-92.99094437257439,-63.90466275474793,-113.70330027637782,125.86502588836089,22.146631087391654,-28.134575569358276,-2.679324894514762,8.466666666666669,4.233333333333327,-6.378995433789948,-15.439215686274508,-16.967611336032395,2.4901960784313744,6.577689243027885,7.904129084008858,30.48716504595385,61.20401435068832,1103.547743852193,90.19963580123338,625.8196274080024,1
-26.71643592474263,-92.99094437257439,-63.90466275474793,-113.70330027637782,125.86502588836089,22.146631087391654,-28.134575569358276,-20.898734177215182,-4.482352941176469,5.291666666666661,-4.059360730593601,-13.44705882352941,-16.967611336032395,-6.474509803921567,-10.62549800796813,10.280849060887927,39.900796431688114,61.20401435068832,1103.547743852193,90.19963580123338,625.8196274080024,1
-27.5640042598509,-94.01778783958603,-63.92068900246072,-113.24906519265159,125.9010568125399,21.97718478985996,-28.134575569358276,-20.898734177215182,-4.482352941176469,5.291666666666661,-4.059360730593601,-13.44705882352941,-16.967611336032395,-6.474509803921567,-10.62549800796813,10.280849060887927,39.900796431688114,61.834160367299226,1107.2915393245805,90.39584734489945,618.1610141005352,1
-27.5640042598509,-94.01778783958603,-63.92068900246072,-113.24906519265159,125.9010568125399,21.97718478985996,-28.134575569358276,-5.894514767932484,3.4862745098039234,-6.350000000000005,-2.899543378995427,25.400000000000002,6.684210526315782,2.4901960784313744,2.5298804780876463,6.966827467445831,58.539404075293184,61.834160367299226,1107.2915393245805,90.39584734489945,618.1610141005352,1
-27.5640042598509,-94.01778783958603,-63.92068900246072,-113.24906519265159,125.9010568125399,21.97718478985996,-28.134575569358276,-5.894514767932484,-2.490196078431371,-14.816666666666674,-1.7397260273972535,-3.48627450980392,-4.6275303643724754,-0.49803921568627274,0.5059760956175268,4.257365465738497,21.796793578516752,61.834160367299226,1107.2915393245805,90.39584734489945,618.1610141005352,1
-27.798438054668082,-94.51067270375162,-63.87261025932235,-112.77418305966509,125.99113412298746,21.672181454302915,-28.134575569358276,-5.894514767932484,-2.490196078431371,-14.816666666666674,-1.7397260273972535,-3.48627450980392,-4.6275303643724754,-0.49803921568627274,0.5059760956175268,4.257365465738497,21.796793578516752,62.06057367258069,1115.0931704123636,90.38582200757969,610.6017505360878,1
-27.798438054668082,-94.51067270375162,-63.87261025932235,-112.77418305966509,125.99113412298746,21.672181454302915,-28.134575569358276,-8.037974683544299,2.4901960784313744,7.408333333333328,-4.059360730593601,-6.474509803921567,-1.542510121457496,4.482352941176472,2.5298804780876463,4.628139771318223,5.943557385270698,62.06057367258069,1115.0931704123636,90.38582200757969,610.6017505360878,1
-27.798438054668082,-94.51067270375162,-63.87261025932235,-112.77418305966509,125.99113412298746,21.672181454302915,-28.134575569358276,-10.181434599156113,2.4901960784313744,32.80833333333332,-2.899543378995427,-11.454901960784312,-13.882591093117414,-3.48627450980392,-0.505976095617533,9.713656381154927,110.88100696448976,62.06057367258069,1115.0931704123636,90.38582200757969,610.6017505360878,1
-28.177138800141993,-94.83926261319534,-63.84055776389677,-112.25800682815802,126.13525781970353,21.36717811874587,-28.397515527950418,-10.181434599156113,2.4901960784313744,32.80833333333332,-2.899543378995427,-11.454901960784312,-13.882591093117414,-3.48627450980392,-0.505976095617533,9.713656381154927,110.88100696448976,62.28565305907804,1112.772984297514,90.3126090684167,601.4302877084259,1
-28.177138800141993,-94.83926261319534,-63.84055776389677,-112.25800682815802,126.13525781970353,21.36717811874587,-28.397515527950418,-8.037974683544299,-5.478431372549018,-9.525000000000006,-6.378995433789948,-5.478431372549018,-4.6275303643724754,-0.49803921568627274,-0.505976095617533,5.066297317263571,10.375972778951624,62.28565305907804,1112.772984297514,90.3126090684167,601.4302877084259,1
-28.177138800141993,-94.83926261319534,-63.84055776389677,-112.25800682815802,126.13525781970353,21.36717811874587,-28.397515527950418,-8.037974683544299,-5.478431372549018,3.1749999999999945,-5.219178082191775,6.4745098039215705,0.5141700404858236,5.4784313725490215,-0.505976095617533,4.360458931357379,7.4695350827000135,62.28565305907804,1112.772984297514,90.3126090684167,601.4302877084259,1
-28.609939652112175,-94.79818887451488,-63.808505268471194,-111.76247764591122,126.29739697850911,20.89272848565713,-28.266045548654347,-8.037974683544299,-5.478431372549018,3.1749999999999945,-5.219178082191775,6.4745098039215705,0.5141700404858236,5.4784313725490215,-0.505976095617533,4.360458931357379,7.4695350827000135,62.40554459836608,1096.6973077631194,90.12305726296576,591.2885083830496,1
-28.609939652112175,-94.79818887451488,-63.808505268471194,-111.76247764591122,126.29739697850911,20.89272848565713,-28.266045548654347,-17.68354430379746,-16.435294117647057,10.583333333333329,7.538812785388135,6.4745098039215705,-5.655870445344135,-6.474509803921567,0.5059760956175268,8.918981336121348,33.05212666412381,62.40554459836608,1096.6973077631194,90.12305726296576,591.2885083830496,1
-28.609939652112175,-94.79818887451488,-63.808505268471194,-111.76247764591122,126.29739697850911,20.89272848565713,-28.266045548654347,-8.037974683544299,6.4745098039215705,21.16666666666666,-11.018264840182642,-61.258823529411764,-17.995951417004054,-14.44313725490196,0.5059760956175268,17.61266303640631,354.2384301989527,62.40554459836608,1096.6973077631194,90.12305726296576,591.2885083830496,1
-28.916506922257717,-94.26423027166882,-63.82453151618398,-111.28759551292472,126.4415206752252,20.316611074049376,-27.740165631470063,-8.037974683544299,6.4745098039215705,21.16666666666666,-11.018264840182642,-61.258823529411764,-17.995951417004054,-14.44313725490196,0.5059760956175268,17.61266303640631,354.2384301989527,62.33508957003684,1069.2450647209992,89.79211910025917,578.1854447367621,1
-28.916506922257717,-94.26423027166882,-63.82453151618398,-111.28759551292472,126.4415206752252,20.316611074049376,-27.740165631470063,-10.181434599156113,-14.44313725490196,-22.225000000000005,-12.178082191780815,-7.470588235294116,-4.6275303643724754,0.4980392156862763,-1.5179282868525927,9.142717518505544,52.226248763426675,62.33508957003684,1069.2450647209992,89.79211910025917,578.1854447367621,1
-28.916506922257717,-94.26423027166882,-63.82453151618398,-111.28759551292472,126.4415206752252,20.316611074049376,-27.740165631470063,-5.894514767932484,0.4980392156862763,1.0583333333333274,5.219178082191788,21.415686274509806,2.5708502024291437,4.482352941176472,0.5059760956175268,5.205616364109604,47.45058456224185,62.33508957003684,1069.2450647209992,89.79211910025917,578.1854447367621,1
-28.862406815761446,-93.89456662354463,-63.984793993311875,-110.8127133799382,126.56762890985178,19.808272181454356,-27.34575569358185,-5.894514767932484,0.4980392156862763,1.0583333333333274,5.219178082191788,21.415686274509806,2.5708502024291437,4.482352941176472,0.5059760956175268,5.205616364109604,47.45058456224185,62.24725581087265,1059.5597315178384,89.56402466559824,562.2787037572441,1
-28.862406815761446,-93.89456662354463,-63.984793993311875,-110.8127133799382,126.56762890985178,19.808272181454356,-27.34575569358185,-12.324894514767927,5.4784313725490215,15.874999999999995,-2.899543378995427,2.4901960784313744,-2.570850202429156,4.482352941176472,1.5179282868525865,5.954899596900245,27.69407424041799,62.24725581087265,1059.5597315178384,89.56402466559824,562.2787037572441,1
-28.862406815761446,-93.89456662354463,-63.984793993311875,-110.8127133799382,126.56762890985178,19.808272181454356,-27.34575569358185,-30.54430379746835,-43.32941176470588,12.699999999999994,2.899543378995441,4.482352941176472,-5.655870445344135,-0.49803921568627274,-8.601593625498012,13.58888939610932,232.73460919128135,62.24725581087265,1059.5597315178384,89.56402466559824,562.2787037572441,1
-28.447639332623353,-93.77134540750323,-64.01684648873746,-110.44106649325312,126.69373714447835,19.333822548365617,-26.951345755693637,-30.54430379746835,-43.32941176470588,12.699999999999994,2.899543378995441,4.482352941176472,-5.655870445344135,-0.49803921568627274,-8.601593625498012,13.58888939610932,232.73460919128135,62.07861040962135,1069.614213163115,89.40975279649793,553.0696683352,1
-28.447639332623353,-93.77134540750323,-64.01684648873746,-110.44106649325312,126.69373714447835,19.333822548365617,-26.951345755693637,-0.5358649789029482,25.400000000000002,35.98333333333333,4.059360730593614,1.4941176470588253,0.5141700404858236,0.4980392156862763,0.5059760956175268,8.623857755209793,194.96561016874634,62.07861040962135,1069.614213163115,89.40975279649793,553.0696683352,1
-28.447639332623353,-93.77134540750323,-64.01684648873746,-110.44106649325312,126.69373714447835,19.333822548365617,-26.951345755693637,-9.109704641350206,6.4745098039215705,-4.23333333333334,-1.7397260273972535,-2.490196078431371,-7.712550607287455,-6.474509803921567,1.5179282868525865,4.969057322811919,8.318486437173055,62.07861040962135,1069.614213163115,89.40975279649793,553.0696683352,1
-27.780404685835993,-93.03201811125486,-64.2572402044293,-110.19330190212972,126.7838144549259,19.02881921280857,-26.688405797101495,-9.109704641350206,6.4745098039215705,-4.23333333333334,-1.7397260273972535,-2.490196078431371,-7.712550607287455,-6.474509803921567,1.5179282868525865,4.969057322811919,8.318486437173055,61.68988766717339,1069.3867379429914,89.16085340593797,538.7698782055035,1
-27.780404685835993,-93.03201811125486,-64.2572402044293,-110.19330190212972,126.7838144549259,19.02881921280857,-26.688405797101495,-14.46835443037974,-8.466666666666665,-3.175000000000006,-0.5799086757990799,-5.478431372549018,-1.542510121457496,1.4941176470588253,-0.505976095617533,4.463870626191046,23.84378040456397,61.68988766717339,1069.3867379429914,89.16085340593797,538.7698782055035,1
-27.780404685835993,-93.03201811125486,-64.2572402044293,-110.19330190212972,126.7838144549259,19.02881921280857,-26.688405797101495,-10.181434599156113,-4.482352941176469,-5.291666666666673,-7.538812785388121,11.454901960784316,-6.684210526315796,-0.49803921568627274,-2.5298804780876525,6.0826623966576765,13.59143794882347,61.68988766717339,1069.3867379429914,89.16085340593797,538.7698782055035,1
-27.329570465033722,-92.90879689521346,-64.40147643384441,-109.94553731100633,126.81984537910492,18.85937291527688,-26.425465838509353,-10.181434599156113,-4.482352941176469,-5.291666666666673,-7.538812785388121,11.454901960784316,-6.684210526315796,-0.49803921568627274,-2.5298804780876525,6.0826623966576765,13.59143794882347,61.54661459803052,1081.271411871386,89.08527021335472,529.529887510822,1
-27.329570465033722,-92.90879689521346,-64.40147643384441,-109.94553731100633,126.81984537910492,18.85937291527688,-26.425465838509353,1.6075949367088658,15.439215686274512,-30.69166666666667,-14.497716894977163,-5.478431372549018,-4.6275303643724754,2.4901960784313744,2.5298804780876463,9.670279059758466,101.29002614329417,61.54661459803052,1081.271411871386,89.08527021335472,529.529887510822,1
-27.329570465033722,-92.90879689521346,-64.40147643384441,-109.94553731100633,126.81984537910492,18.85937291527688,-26.425465838509353,1.6075949367088658,19.423529411764708,11.641666666666662,-2.899543378995427,5.4784313725490215,-3.599190283400816,2.4901960784313744,2.5298804780876463,6.208754075825565,38.71047803204716,61.54661459803052,1081.271411871386,89.08527021335472,529.529887510822,1
-27.004969826056083,-92.3748382923674,-64.48160767240834,-109.7390668184035,126.81984537910492,18.757705136757863,-26.16252587991721,1.6075949367088658,19.423529411764708,11.641666666666662,-2.899543378995427,5.4784313725490215,-3.599190283400816,2.4901960784313744,2.5298804780876463,6.208754075825565,38.71047803204716,61.28713859694394,1075.9584003312843,88.86517092772641,521.2977258456747,1
-27.004969826056083,-92.3748382923674,-64.48160767240834,-109.7390668184035,126.81984537910492,18.757705136757863,-26.16252587991721,-13.396624472573833,2.4901960784313744,12.699999999999994,0.5799086757990937,3.4862745098039234,-2.570850202429156,1.4941176470588253,-7.589641434262951,5.5384516275448945,25.78568168002868,61.28713859694394,1075.9584003312843,88.86517092772641,521.2977258456747,1
-27.004969826056083,-92.3748382923674,-64.48160767240834,-109.7390668184035,126.81984537910492,18.757705136757863,-26.16252587991721,-8.037974683544299,2.4901960784313744,-21.16666666666667,-7.538812785388121,-0.49803921568627274,-2.570850202429156,1.4941176470588253,4.553784860557766,6.04380526747031,44.75394150680251,61.28713859694394,1075.9584003312843,88.86517092772641,521.2977258456747,1
-26.680369187078448,-92.29269081500647,-64.35339769070603,-109.59453747358152,126.81984537910492,18.689926617745186,-26.16252587991721,-8.037974683544299,2.4901960784313744,-21.16666666666667,-7.538812785388121,-0.49803921568627274,-2.570850202429156,1.4941176470588253,4.553784860557766,6.04380526747031,44.75394150680251,61.108819230930315,1084.1396543878982,88.74687532643134,521.1197878226843,1
-26.680369187078448,-92.29269081500647,-64.35339769070603,-109.59453747358152,126.81984537910492,18.689926617745186,-26.16252587991721,-2.679324894514762,-6.474509803921567,-15.875000000000007,-5.219178082191775,2.4901960784313744,-5.655870445344135,-2.490196078431371,6.577689243027885,5.9327455782328595,19.204394638167695,61.108819230930315,1084.1396543878982,88.74687532643134,521.1197878226843,1
-26.680369187078448,-92.29269081500647,-64.35339769070603,-109.59453747358152,126.81984537910492,18.689926617745186,-26.16252587991721,-26.25738396624472,-15.439215686274508,6.349999999999994,2.899543378995441,-13.44705882352941,-2.570850202429156,7.4705882352941195,-6.5776892430278915,10.126541191974404,63.240442798385864,61.108819230930315,1084.1396543878982,88.74687532643134,521.1197878226843,1
-26.932836350727722,-91.96410090556274,-64.19313521357815,-109.45000812875953,126.83786084119441,18.554369579719832,-25.89958592132507,-26.25738396624472,-15.439215686274508,6.349999999999994,2.899543378995441,-13.44705882352941,-2.570850202429156,7.4705882352941195,-6.5776892430278915,10.126541191974404,63.240442798385864,61.03002415662288,1064.77029606921,88.53574808263348,520.8613388240851,1
-26.932836350727722,-91.96410090556274,-64.19313521357815,-109.45000812875953,126.83786084119441,18.554369579719832,-25.89958592132507,-18.75527426160337,-6.474509803921567,14.816666666666661,0.5799086757990937,2.4901960784313744,-6.684210526315796,-14.44313725490196,-6.5776892430278915,8.852699063833464,41.33388652928011,61.03002415662288,1064.77029606921,88.53574808263348,520.8613388240851,1
-26.932836350727722,-91.96410090556274,-64.19313521357815,-109.45000812875953,126.83786084119441,18.554369579719832,-25.89958592132507,-10.181434599156113,5.4784313725490215,10.583333333333329,1.7397260273972672,16.43529411764706,-0.514170040485836,-0.49803921568627274,-0.505976095617533,5.742050600234054,36.54665279486847,61.03002415662288,1064.77029606921,88.53574808263348,520.8613388240851,1
-27.004969826056083,-91.63551099611902,-63.984793993311875,-109.32612583319784,126.85587630328394,18.38492328218814,-25.505175983436857,-10.181434599156113,5.4784313725490215,10.583333333333329,1.7397260273972672,16.43529411764706,-0.514170040485836,-0.49803921568627274,-0.505976095617533,5.742050600234054,36.54665279486847,60.87509160516233,1051.5293996909475,88.31547694087624,522.226062849643,1
-27.004969826056083,-91.63551099611902,-63.984793993311875,-109.32612583319784,126.85587630328394,18.38492328218814,-25.505175983436857,-10.181434599156113,-18.427450980392155,4.233333333333327,-8.698630136986296,-5.478431372549018,-6.684210526315796,4.482352941176472,2.5298804780876463,7.5894655459996025,25.314800442578353,60.87509160516233,1051.5293996909475,88.31547694087624,522.226062849643,1
-27.004969826056083,-91.63551099611902,-63.984793993311875,-109.32612583319784,126.85587630328394,18.38492328218814,-25.505175983436857,-5.894514767932484,14.443137254901963,9.524999999999995,-2.899543378995427,10.458823529411767,1.5425101214574832,-1.4941176470588218,-2.5298804780876525,6.098440897230699,23.62195053924244,60.87509160516233,1051.5293996909475,88.31547694087624,522.226062849643,1
-27.275470358537447,-91.51228978007762,-63.82453151618398,-109.20224353763615,126.89190722746295,18.14769846564377,-25.242236024844715,-5.894514767932484,14.443137254901963,9.524999999999995,-2.899543378995427,10.458823529411767,1.5425101214574832,-1.4941176470588218,-2.5298804780876525,6.098440897230699,23.62195053924244,60.87076388493301,1038.1357997634598,88.17968827796592,523.1138616543691,1
-27.275470358537447,-91.51228978007762,-63.82453151618398,-109.20224353763615,126.89190722746295,18.14769846564377,-25.242236024844715,0.5358649789029588,31.376470588235296,34.925,4.059360730593614,-1.4941176470588218,-8.740890688259114,7.4705882352941195,3.541832669322706,11.518015692208328,186.66806190136862,60.87076388493301,1038.1357997634598,88.17968827796592,523.1138616543691,1
-27.275470358537447,-91.51228978007762,-63.82453151618398,-109.20224353763615,126.89190722746295,18.14769846564377,-25.242236024844715,-10.181434599156113,-7.470588235294116,-5.291666666666673,-12.178082191780815,-12.450980392156861,-11.825910931174095,-1.4941176470588218,1.5179282868525865,7.8013386187675104,21.186746143845532,60.87076388493301,1038.1357997634598,88.17968827796592,523.1138616543691,1
-27.239403620873265,-91.26584734799482,-63.82453151618398,-109.07836124207445,126.92793815164197,17.97825216811208,-24.979296066252573,-10.181434599156113,-7.470588235294116,-5.291666666666673,-12.178082191780815,-12.450980392156861,-11.825910931174095,-1.4941176470588218,1.5179282868525865,7.8013386187675104,21.186746143845532,60.776594161684024,1031.813815673283,88.05624670208442,519.7034284446434,1
-27.239403620873265,-91.26584734799482,-63.82453151618398,-109.07836124207445,126.92793815164197,17.97825216811208,-24.979296066252573,-15.54008438818565,-11.454901960784312,4.233333333333327,-0.5799086757990799,5.4784313725490215,-1.542510121457496,-4.482352941176469,1.5179282868525865,5.603681385017243,27.792084048572622,60.776594161684024,1031.813815673283,88.05624670208442,519.7034284446434,1
-27.239403620873265,-91.26584734799482,-63.82453151618398,-109.07836124207445,126.92793815164197,17.97825216811208,-24.979296066252573,-2.679324894514762,13.447058823529414,29.63333333333333,-1.7397260273972535,-3.48627450980392,-1.542510121457496,1.4941176470588253,-1.5179282868525927,6.942534205493449,100.37756509898418,60.776594161684024,1031.813815673283,88.05624670208442,519.7034284446434,1
-27.023003194888176,-91.1836998706339,-63.85658401160956,-109.01642009429361,126.9819845379105,17.774916611074104,-24.71635610766066,-2.679324894514762,13.447058823529414,29.63333333333333,-1.7397260273972535,-3.48627450980392,-1.542510121457496,1.4941176470588253,-1.5179282868525927,6.942534205493449,100.37756509898418,60.68776235904388,1036.679822478589,88.01890132551237,517.3646611271255,1
-27.023003194888176,-91.1836998706339,-63.85658401160956,-109.01642009429361,126.9819845379105,17.774916611074104,-24.71635610766066,-9.109704641350206,-8.466666666666665,-13.75833333333334,-7.538812785388121,-25.4,-14.910931174089074,-12.450980392156861,-6.5776892430278915,12.276639779501519,37.26547145690749,60.68776235904388,1036.679822478589,88.01890132551237,517.3646611271255,1
-27.023003194888176,-91.1836998706339,-63.85658401160956,-109.01642009429361,126.9819845379105,17.774916611074104,-24.71635610766066,-3.75105485232067,24.403921568627453,35.98333333333333,-6.378995433789948,-2.490196078431371,-4.6275303643724754,-4.482352941176469,4.553784860557766,10.833896179076184,153.5101096900942,60.68776235904388,1036.679822478589,88.01890132551237,517.3646611271255,1
-26.427902023429176,-90.89618369987063,-64.01684648873746,-109.01642009429361,127.0,17.808805870580443,-24.979296066252573,-3.75105485232067,24.403921568627453,35.98333333333333,-6.378995433789948,-2.490196078431371,-4.6275303643724754,-4.482352941176469,4.553784860557766,10.833896179076184,153.5101096900942,60.44697740401242,1048.597809539806,87.97648342763391,512.6338934302408,1
-26.427902023429176,-90.89618369987063,-64.01684648873746,-109.01642009429361,127.0,17.808805870580443,-24.979296066252573,-13.396624472573833,-1.4941176470588218,30.691666666666663,0.5799086757990937,6.4745098039215705,3.5991902834008034,5.4784313725490215,4.553784860557766,8.283529222815947,97.24362790395328,60.44697740401242,1048.597809539806,87.97648342763391,512.6338934302408,1
-26.427902023429176,-90.89618369987063,-64.01684648873746,-109.01642009429361,127.0,17.808805870580443,-24.979296066252573,-5.894514767932484,6.4745098039215705,-5.329070518200751e-15,0.5799086757990937,4.482352941176472,-1.542510121457496,-9.462745098039214,4.553784860557766,4.123790783610513,10.529571273938881,60.44697740401242,1048.597809539806,87.97648342763391,512.6338934302408,1
-26.139368122115723,-90.60866752910738,-64.1130039750142,-109.03706714355388,127.0,17.87658438959312,-25.110766045548644,-5.894514767932484,6.4745098039215705,-5.329070518200751e-15,0.5799086757990937,4.482352941176472,-1.542510121457496,-9.462745098039214,4.553784860557766,4.123790783610513,10.529571273938881,60.28701320874577,1050.0512955147624,87.91957954922515,509.96625851539636,1
-26.139368122115723,-90.60866752910738,-64.1130039750142,-109.03706714355388,127.0,17.87658438959312,-25.110766045548644,-13.396624472573833,7.4705882352941195,32.80833333333332,5.219178082191788,11.454901960784316,-3.599190283400816,4.482352941176472,-3.5418326693227122,10.246625247259672,96.53773947386401,60.28701320874577,1050.0512955147624,87.91957954922515,509.96625851539636,1
-26.139368122115723,-90.60866752910738,-64.1130039750142,-109.03706714355388,127.0,17.87658438959312,-25.110766045548644,-5.894514767932484,7.4705882352941195,15.874999999999995,-7.538812785388121,-21.415686274509802,-7.712550607287455,0.4980392156862763,-0.505976095617533,8.363895997714474,51.19791091529174,60.28701320874577,1050.0512955147624,87.91957954922515,509.96625851539636,1
-26.031167909123177,-90.23900388098319,-64.20916146129093,-109.03706714355388,126.92793815164197,18.012141427618417,-25.110766045548644,-5.894514767932484,7.4705882352941195,15.874999999999995,-7.538812785388121,-21.415686274509802,-7.712550607287455,0.4980392156862763,-0.505976095617533,8.363895997714474,51.19791091529174,60.159777750465764,1042.9596813754422,87.82841082860934,506.7435011125806,1
-26.031167909123177,-90.23900388098319,-64.20916146129093,-109.03706714355388,126.92793815164197,18.012141427618417,-25.110766045548644,-18.75527426160337,-5.478431372549018,22.224999999999994,0.5799086757990937,4.482352941176472,-1.542510121457496,-4.482352941176469,-7.589641434262951,8.141933968503107,63.69952891118089,60.159777750465764,1042.9596813754422,87.82841082860934,506.7435011125806,1
-26.031167909123177,-90.23900388098319,-64.20916146129093,-109.03706714355388,126.92793815164197,18.012141427618417,-25.110766045548644,-3.75105485232067,-0.49803921568627274,-33.866666666666674,-2.899543378995427,16.43529411764706,-0.514170040485836,6.4745098039215705,4.553784860557766,8.62413286703516,129.67301059121115,60.159777750465764,1042.9596813754422,87.82841082860934,506.7435011125806,1
-25.86886758963436,-90.07470892626132,-64.19313521357815,-109.05771419281416,126.83786084119441,18.18158772515011,-24.979296066252573,-3.75105485232067,-0.49803921568627274,-33.866666666666674,-2.899543378995427,16.43529411764706,-0.514170040485836,6.4745098039215705,4.553784860557766,8.62413286703516,129.67301059121115,60.04557057649128,1043.4992347501393,87.77518611088455,507.1734656298553,1
-25.86886758963436,-90.07470892626132,-64.19313521357815,-109.05771419281416,126.83786084119441,18.18158772515011,-24.979296066252573,-5.894514767932484,1.4941176470588253,-6.350000000000005,-4.059360730593601,-26.396078431372548,-11.825910931174095,1.4941176470588253,1.5179282868525865,7.379003555255371,71.3318104886364,60.04557057649128,1043.4992347501393,87.77518611088455,507.1734656298553,1
-25.86886758963436,-90.07470892626132,-64.19313521357815,-109.05771419281416,126.83786084119441,18.18158772515011,-24.979296066252573,-18.75527426160337,-13.44705882352941,-2.1166666666666725,0.5799086757990937,15.439215686274512,-8.740890688259114,-2.490196078431371,-5.565737051792832,8.391868491544546,46.56623967379658,60.04557057649128,1043.4992347501393,87.77518611088455,507.1734656298553,1
-25.778700745473905,-89.95148771021992,-64.32134519528046,-109.05771419281416,126.72976806865736,18.38492328218814,-24.71635610766066,-18.75527426160337,-13.44705882352941,-2.1166666666666725,0.5799086757990937,15.439215686274512,-8.740890688259114,-2.490196078431371,-5.565737051792832,8.391868491544546,46.56623967379658,60.01717788365809,1043.431038890498,87.77684903277151,503.8824678039646,1
-25.778700745473905,-89.95148771021992,-64.32134519528046,-109.05771419281416,126.72976806865736,18.38492328218814,-24.71635610766066,-8.037974683544299,4.482352941176472,13.758333333333328,-2.899543378995427,10.458823529411767,-3.599190283400816,1.4941176470588253,-0.505976095617533,5.654538986567308,21.634097611939353,60.01717788365809,1043.431038890498,87.77684903277151,503.8824678039646,1
-25.778700745473905,-89.95148771021992,-64.32134519528046,-109.05771419281416,126.72976806865736,18.38492328218814,-24.71635610766066,-6.966244725738392,-5.478431372549018,-1.058333333333339,-2.899543378995427,11.454901960784316,4.627530364372463,2.4901960784313744,2.5298804780876463,4.688132711536497,11.067239787530436,60.01717788365809,1043.431038890498,87.77684903277151,503.8824678039646,1
-25.778700745473905,-90.23900388098319,-64.35339769070603,-109.01642009429361,126.62167529612032,18.656037358238848,-24.84782608695673,-6.966244725738392,-5.478431372549018,-1.058333333333339,-2.899543378995427,11.454901960784316,4.627530364372463,2.4901960784313744,2.5298804780876463,4.688132711536497,11.067239787530436,60.12370077238771,1052.2004220960607,87.86960722199429,502.90692295156225,1
-25.778700745473905,-90.23900388098319,-64.35339769070603,-109.01642009429361,126.62167529612032,18.656037358238848,-24.84782608695673,-8.037974683544299,2.4901960784313744,-6.350000000000005,-6.378995433789948,-3.48627450980392,-2.570850202429156,1.4941176470588253,-0.505976095617533,3.914298081334383,7.2145915119957795,60.12370077238771,1052.2004220960607,87.86960722199429,502.90692295156225,1
-25.778700745473905,-90.23900388098319,-64.35339769070603,-109.01642009429361,126.62167529612032,18.656037358238848,-24.84782608695673,-11.25316455696202,-6.474509803921567,6.349999999999994,1.7397260273972672,-2.490196078431371,-10.797570850202435,7.4705882352941195,-8.601593625498012,6.897168647213348,11.988623980917554,60.12370077238771,1052.2004220960607,87.86960722199429,502.90692295156225,1
-25.778700745473905,-90.56759379042691,-64.36942393841882,-108.95447894651275,126.54961344776225,18.927151434289556,-25.242236024844715,-11.25316455696202,-6.474509803921567,6.349999999999994,1.7397260273972672,-2.490196078431371,-10.797570850202435,7.4705882352941195,-8.601593625498012,6.897168647213348,11.988623980917554,60.23857282477322,1062.1981136899203,87.9638322251195,502.04146323541954,1
-25.778700745473905,-90.56759379042691,-64.36942393841882,-108.95447894651275,126.54961344776225,18.927151434289556,-25.242236024844715,4.822784810126588,10.458823529411767,-27.516666666666673,-12.178082191780815,-4.482352941176469,-1.542510121457496,5.4784313725490215,9.613545816733065,9.511649681237738,65.60733354684093,60.23857282477322,1062.1981136899203,87.9638322251195,502.04146323541954,1
-25.778700745473905,-90.56759379042691,-64.36942393841882,-108.95447894651275,126.54961344776225,18.927151434289556,-25.242236024844715,-14.46835443037974,-8.466666666666665,9.524999999999995,-4.059360730593601,0.4980392156862763,-5.655870445344135,-2.490196078431371,-9.61354581673307,6.847129172979357,20.573512693034086,60.23857282477322,1062.1981136899203,87.9638322251195,502.04146323541954,1
-25.796734114305995,-90.40329883570504,-64.35339769070603,-108.95447894651275,126.47755159940422,19.164376250833925,-25.505175983436857,-14.46835443037974,-8.466666666666665,9.524999999999995,-4.059360730593601,0.4980392156862763,-5.655870445344135,-2.490196078431371,-9.61354581673307,6.847129172979357,20.573512693034086,60.184476880239025,1056.5369768180396,87.90372515764129,502.0000137258203,1
-25.796734114305995,-90.40329883570504,-64.35339769070603,-108.95447894651275,126.47755159940422,19.164376250833925,-25.505175983436857,-6.966244725738392,3.4862745098039234,11.641666666666662,0.5799086757990937,12.450980392156865,1.5425101214574832,2.4901960784313744,4.553784860557766,5.463945753826445,20.293432863788656,60.184476880239025,1056.5369768180396,87.90372515764129,502.0000137258203,1
-25.796734114305995,-90.40329883570504,-64.35339769070603,-108.95447894651275,126.47755159940422,19.164376250833925,-25.505175983436857,-10.181434599156113,9.462745098039218,20.108333333333327,0.5799086757990937,-18.427450980392155,-7.712550607287455,-2.490196078431371,-0.505976095617533,8.683574433507033,57.16603915558728,60.184476880239025,1056.5369768180396,87.90372515764129,502.0000137258203,1
-25.580333688320906,-90.40329883570504,-64.28929269985488,-108.97512599577303,126.42350521313568,19.435490326884633,-26.03105590062114,-10.181434599156113,9.462745098039218,20.108333333333327,0.5799086757990937,-18.427450980392155,-7.712550607287455,-2.490196078431371,-0.505976095617533,8.683574433507033,57.16603915558728,60.09097507462695,1063.7236057864695,87.889239177111,503.9462963128742,1
-25.580333688320906,-90.40329883570504,-64.28929269985488,-108.97512599577303,126.42350521313568,19.435490326884633,-26.03105590062114,-12.324894514767927,-1.4941176470588218,2.116666666666661,-7.538812785388121,-11.454901960784312,-8.740890688259114,-12.450980392156861,3.541832669322706,7.457887165550565,20.811168697182698,60.09097507462695,1063.7236057864695,87.889239177111,503.9462963128742,1
-25.580333688320906,-90.40329883570504,-64.28929269985488,-108.97512599577303,126.42350521313568,19.435490326884633,-26.03105590062114,-8.037974683544299,-1.4941176470588218,8.466666666666661,-1.7397260273972535,3.4862745098039234,-2.570850202429156,2.4901960784313744,5.5657370517928255,4.2314428583905395,7.750504642939739,60.09097507462695,1063.7236057864695,87.889239177111,503.9462963128742,1
-25.381966631167906,-90.40329883570504,-64.22518770900372,-109.05771419281416,126.36945882686717,19.70660440293534,-26.425465838509353,-8.037974683544299,-1.4941176470588218,8.466666666666661,-1.7397260273972535,3.4862745098039234,-2.570850202429156,2.4901960784313744,5.5657370517928255,4.2314428583905395,7.750504642939739,60.003484391958885,1070.310494586055,87.89540024584097,507.2060242331728,1
-25.381966631167906,-90.40329883570504,-64.22518770900372,-109.05771419281416,126.36945882686717,19.70660440293534,-26.425465838509353,-27.329113924050628,-17.431372549019606,33.86666666666666,5.219178082191788,10.458823529411767,-2.570850202429156,3.4862745098039234,-10.62549800796813,13.873472183942706,132.3128403614126,60.003484391958885,1070.310494586055,87.89540024584097,507.2060242331728,1
-25.381966631167906,-90.40329883570504,-64.22518770900372,-109.05771419281416,126.36945882686717,19.70660440293534,-26.425465838509353,-0.5358649789029482,9.462745098039218,9.524999999999995,-8.698630136986296,-6.474509803921567,-6.684210526315796,-1.4941176470588218,9.613545816733065,6.561078000994714,13.29873275999108,60.003484391958885,1070.310494586055,87.89540024584097,507.2060242331728,1
-25.05736599219027,-90.69081500646831,-64.28929269985488,-109.1403023898553,126.31541244059864,20.045496997998725,-27.21428571428578,-0.5358649789029482,9.462745098039218,9.524999999999995,-8.698630136986296,-6.474509803921567,-6.684210526315796,-1.4941176470588218,9.613545816733065,6.561078000994714,13.29873275999108,60.01249123283782,1090.6556804686684,88.04013669872616,508.1728391714788,1
-25.05736599219027,-90.69081500646831,-64.28929269985488,-109.1403023898553,126.31541244059864,20.045496997998725,-27.21428571428578,-20.898734177215182,-0.49803921568627274,26.45833333333333,-1.7397260273972535,0.4980392156862763,-5.655870445344135,-2.490196078431371,-7.589641434262951,8.228572490919596,99.20579827949844,60.01249123283782,1090.6556804686684,88.04013669872616,508.1728391714788,1
-25.05736599219027,-90.69081500646831,-64.28929269985488,-109.1403023898553,126.31541244059864,20.045496997998725,-27.21428571428578,-10.181434599156113,-2.490196078431371,21.16666666666666,-0.5799086757990799,16.43529411764706,-0.514170040485836,12.450980392156865,5.5657370517928255,8.673048452766976,58.977172623327874,60.01249123283782,1090.6556804686684,88.04013669872616,508.1728391714788,1
-25.165566205182817,-90.85510996119017,-64.20916146129093,-109.22289058689643,126.27938151641962,20.350500333555715,-27.740165631470063,-10.181434599156113,-2.490196078431371,21.16666666666666,-0.5799086757990799,16.43529411764706,-0.514170040485836,12.450980392156865,5.5657370517928255,8.673048452766976,58.977172623327874,60.07661254255464,1091.5875101424126,88.09572066979251,512.2696243944562,1
-25.165566205182817,-90.85510996119017,-64.20916146129093,-109.22289058689643,126.27938151641962,20.350500333555715,-27.740165631470063,-9.109704641350206,-5.478431372549018,-7.4083333333333385,-1.7397260273972535,-6.474509803921567,-6.684210526315796,-1.4941176470588218,2.5298804780876463,5.114864228751705,8.120845727698109,60.07661254255464,1091.5875101424126,88.09572066979251,512.2696243944562,1
-25.165566205182817,-90.85510996119017,-64.20916146129093,-109.22289058689643,126.27938151641962,20.350500333555715,-27.740165631470063,-8.037974683544299,-4.482352941176469,4.233333333333327,1.7397260273972672,11.454901960784316,3.5991902834008034,6.4745098039215705,3.541832669322706,5.445477712860095,9.579323997129162,60.07661254255464,1091.5875101424126,88.09572066979251,512.2696243944562,1
-25.291799787007452,-90.85510996119017,-64.30531894756767,-109.2435376361567,126.18930420597206,20.621614409606423,-28.003105590062205,-8.037974683544299,-4.482352941176469,4.233333333333327,1.7397260273972672,11.454901960784316,3.5991902834008034,6.4745098039215705,3.541832669322706,5.445477712860095,9.579323997129162,60.150742898588426,1087.5822868590865,88.13465551497153,510.41152902132626,1
-25.291799787007452,-90.85510996119017,-64.30531894756767,-109.2435376361567,126.18930420597206,20.621614409606423,-28.003105590062205,-13.396624472573833,-8.466666666666665,-13.75833333333334,-0.5799086757990799,-10.458823529411763,-3.599190283400816,-13.44705882352941,-5.565737051792832,8.659042854563467,25.013116696902493,60.150742898588426,1087.5822868590865,88.13465551497153,510.41152902132626,1
-25.291799787007452,-90.85510996119017,-64.30531894756767,-109.2435376361567,126.18930420597206,20.621614409606423,-28.003105590062205,-13.396624472573833,-5.478431372549018,-2.1166666666666725,9.858447488584481,-3.48627450980392,-6.684210526315796,-4.482352941176469,-0.505976095617533,5.751123009160965,17.675567901467524,60.150742898588426,1087.5822868590865,88.13465551497153,510.41152902132626,1
-25.363933262335816,-90.77296248382923,-64.2572402044293,-109.26418468541699,126.09922689552451,20.858839226150792,-28.266045548654347,-13.396624472573833,-5.478431372549018,-2.1166666666666725,9.858447488584481,-3.48627450980392,-6.684210526315796,-4.482352941176469,-0.505976095617533,5.751123009160965,17.675567901467524,60.131378650198116,1082.352326098057,88.09812912455851,511.7723130035779,1
-25.363933262335816,-90.77296248382923,-64.2572402044293,-109.26418468541699,126.09922689552451,20.858839226150792,-28.266045548654347,-4.822784810126577,-0.49803921568627274,-8.466666666666672,-8.698630136986296,-17.431372549019606,-20.052631578947373,-4.482352941176469,5.5657370517928255,8.752276868800262,45.009828998182215,60.131378650198116,1082.352326098057,88.09812912455851,511.7723130035779,1
-25.237699680511177,-90.44437257438551,-64.48160767240834,-109.34677288245813,126.02716504716648,21.16384256170784,-28.52898550724649,-4.822784810126577,-0.49803921568627274,-8.466666666666672,-8.698630136986296,-17.431372549019606,-20.052631578947373,-4.482352941176469,5.5657370517928255,8.752276868800262,45.009828998182215,60.05455997576835,1077.6766109534256,88.09091770975067,507.37482468117037,1
-25.237699680511177,-90.44437257438551,-64.48160767240834,-109.34677288245813,126.02716504716648,21.16384256170784,-28.52898550724649,-5.894514767932484,-2.490196078431371,-38.10000000000001,-13.337899543378988,-12.450980392156861,-19.024291497975714,-44.325490196078434,-15.68525896414343,18.91357893001216,219.48503016771318,60.05455997576835,1077.6766109534256,88.09091770975067,507.37482468117037,1
-25.237699680511177,-90.44437257438551,-64.48160767240834,-109.34677288245813,126.02716504716648,21.16384256170784,-28.52898550724649,-2.679324894514762,7.4705882352941195,7.408333333333328,1.7397260273972672,22.411764705882355,17.99595141700404,-7.470588235294116,5.5657370517928255,9.092751737564102,53.20028982258297,60.05455997576835,1077.6766109534256,88.09091770975067,507.37482468117037,1
-24.119630812921546,-90.44437257438551,-65.18676257177108,-109.53259632580067,125.88304135045038,21.77384923282193,-29.449275362318986,-2.679324894514762,7.4705882352941195,7.408333333333328,1.7397260273972672,22.411764705882355,17.99595141700404,-7.470588235294116,5.5657370517928255,9.092751737564102,53.20028982258297,59.91692198635938,1120.5712572779598,88.38791049065242,494.8100200613813,1
-24.119630812921546,-90.44437257438551,-65.18676257177108,-109.53259632580067,125.88304135045038,21.77384923282193,-29.449275362318986,-39.11814345991561,-43.32941176470588,17.99166666666666,-6.378995433789948,-31.376470588235293,-14.910931174089074,-0.49803921568627274,-2.5298804780876525,19.516692347647044,276.9022279456679,59.91692198635938,1120.5712572779598,88.38791049065242,494.8100200613813,1
-24.119630812921546,-90.44437257438551,-65.18676257177108,-109.53259632580067,125.88304135045038,21.77384923282193,-29.449275362318986,-4.822784810126577,11.454901960784316,14.816666666666661,9.858447488584481,-16.435294117647057,-6.684210526315796,21.415686274509806,-2.5298804780876525,11.002234040340294,40.37612516574095,59.91692198635938,1120.5712572779598,88.38791049065242,494.8100200613813,1
-21.685126020589276,-91.01940491591203,-66.64515111363492,-109.7390668184035,125.55876303283921,23.129419613075413,-31.421325051759823,-4.822784810126577,11.454901960784316,14.816666666666661,9.858447488584481,-16.435294117647057,-6.684210526315796,21.415686274509806,-2.5298804780876525,11.002234040340294,40.37612516574095,59.783227350045415,1237.1250557865856,89.13454094931683,466.9359268218517,1
-21.685126020589276,-91.01940491591203,-66.64515111363492,-109.7390668184035,125.55876303283921,23.129419613075413,-31.421325051759823,0.5358649789029588,21.415686274509806,23.283333333333328,-26.095890410958898,5.4784313725490215,-16.967611336032395,2.4901960784313744,-2.5298804780876525,12.34961178285068,113.20557204793764,59.783227350045415,1237.1250557865856,89.13454094931683,466.9359268218517,1
-21.685126020589276,-91.01940491591203,-66.64515111363492,-109.7390668184035,125.55876303283921,23.129419613075413,-31.421325051759823,-13.396624472573833,-6.474509803921567,40.21666666666666,7.538812785388135,-4.482352941176469,2.5708502024291437,14.443137254901963,10.625498007968124,12.468556516878238,142.8699668383329,59.783227350045415,1237.1250557865856,89.13454094931683,466.9359268218517,1
-22.676961306354276,-91.26584734799482,-69.03306202284055,-109.32612583319784,124.91020639761686,24.993328885923972,-32.998964803312674,-13.396624472573833,-6.474509803921567,40.21666666666666,7.538812785388135,-4.482352941176469,2.5708502024291437,14.443137254901963,10.625498007968124,12.468556516878238,142.8699668383329,60.99195689239655,1224.6033508974278,89.87501173467774,407.33356558383423,1
-22.676961306354276,-91.26584734799482,-69.03306202284055,-109.32612583319784,124.91020639761686,24.993328885923972,-32.998964803312674,-17.68354430379746,-13.44705882352941,11.641666666666662,4.059360730593614,-27.392156862745097,-12.854251012145754,15.439215686274512,-19.73306772908367,15.281290226854523,45.81723773888661,60.99195689239655,1224.6033508974278,89.87501173467774,407.33356558383423,1
-22.676961306354276,-91.26584734799482,-69.03306202284055,-109.32612583319784,124.91020639761686,24.993328885923972,-32.998964803312674,-6.966244725738392,0.4980392156862763,53.974999999999994,12.17808219178083,45.321568627450986,9.769230769230763,7.4705882352941195,-4.553784860557772,17.591567328217394,408.6722984023083,60.99195689239655,1224.6033508974278,89.87501173467774,407.33356558383423,1
-24.606531771388,-90.73188874514878,-71.9979178497066,-107.94277353275889,123.63110858926166,27.196130753835916,-31.684265010351965,-6.966244725738392,0.4980392156862763,53.974999999999994,12.17808219178083,45.321568627450986,9.769230769230763,7.4705882352941195,-4.553784860557772,17.591567328217394,408.6722984023083,62.44544612208113,1161.5779958071362,90.22419337587142,323.2014784598535,1
-24.606531771388,-90.73188874514878,-71.9979178497066,-107.94277353275889,123.63110858926166,27.196130753835916,-31.684265010351965,9.109704641350216,43.32941176470588,-8.466666666666672,-20.29680365296803,18.42745098039216,9.769230769230763,2.4901960784313744,12.649402390438244,15.56735836802292,158.07791854764668,62.44544612208113,1161.5779958071362,90.22419337587142,323.2014784598535,1
-24.606531771388,-90.73188874514878,-71.9979178497066,-107.94277353275889,123.63110858926166,27.196130753835916,-31.684265010351965,-39.11814345991561,-50.30196078431372,-37.04166666666667,-0.5799086757990799,-0.49803921568627274,-13.882591093117414,-5.478431372549018,-10.62549800796813,19.690779909501988,381.00172274263383,62.44544612208113,1161.5779958071362,90.22419337587142,323.2014784598535,1
-27.636137735179265,-91.14262613195343,-75.53971859423307,-105.63030401560721,121.84757784240017,29.500600400266876,-27.740165631470063,-39.11814345991561,-50.30196078431372,-37.04166666666667,-0.5799086757990799,-0.49803921568627274,-13.882591093117414,-5.478431372549018,-10.62549800796813,19.690779909501988,381.00172274263383,64.77282748712192,1095.212975206695,90.77088291393125,226.46447751536266,1
-27.636137735179265,-91.14262613195343,-75.53971859423307,-105.63030401560721,121.84757784240017,29.500600400266876,-27.740165631470063,12.324894514767937,56.27843137254902,71.96666666666667,-27.255707762557073,89.14901960784314,22.109311740890682,-16.435294117647057,15.685258964143422,38.90057309338312,869.6740696508629,64.77282748712192,1095.212975206695,90.77088291393125,226.46447751536266,1
-27.636137735179265,-91.14262613195343,-75.53971859423307,-105.63030401560721,121.84757784240017,29.500600400266876,-27.740165631470063,-28.400843881856535,-18.427450980392155,-42.33333333333334,-43.4931506849315,-33.36862745098039,-48.84615384615385,-14.44313725490196,-23.780876494023907,31.636696740821705,156.6351213137531,64.77282748712192,1095.212975206695,90.77088291393125,226.46447751536266,1
-29.58374156904508,-93.44275549805951,-79.5943592655688,-102.45065842952364,119.72175331583801,32.279519679786574,-24.059006211180304,-28.400843881856535,-18.427450980392155,-42.33333333333334,-43.4931506849315,-33.36862745098039,-48.84615384615385,-14.44313725490196,-23.780876494023907,31.636696740821705,156.6351213137531,67.54028544422447,1128.4689367643289,91.82925773105065,132.55513415115766,1
-29.58374156904508,-93.44275549805951,-79.5943592655688,-102.45065842952364,119.72175331583801,32.279519679786574,-24.059006211180304,8.03797468354431,-25.4,-127.0,-13.337899543378988,20.419607843137257,8.740890688259103,18.42745098039216,4.553784860557766,28.239701074908698,1641.499189646226,67.54028544422447,1128.4689367643289,91.82925773105065,132.55513415115766,1
-29.58374156904508,-93.44275549805951,-79.5943592655688,-102.45065842952364,119.72175331583801,32.279519679786574,-24.059006211180304,-5.894514767932484,27.3921568627451,56.09166666666666,12.17808219178083,44.325490196078434,-1.542510121457496,0.4980392156862763,9.613545816733065,19.69200072988504,433.8934143026724,67.54028544422447,1128.4689367643289,91.82925773105065,132.55513415115766,1
-31.170678026269076,-95.90717981888746,-84.54646980882075,-98.50707202080962,117.1815731612171,35.46511007338228,-20.246376811594246,-5.894514767932484,27.3921568627451,56.09166666666666,12.17808219178083,44.325490196078434,-1.542510121457496,0.4980392156862763,9.613545816733065,19.69200072988504,433.8934143026724,70.54144255132576,1194.809257448804,92.98690721617261,55.12059758597236,1
-31.170678026269076,-95.90717981888746,-84.54646980882075,-98.50707202080962,117.1815731612171,35.46511007338228,-20.246376811594246,-13.396624472573833,3.4862745098039234,15.874999999999995,21.456621004566216,-29.384313725490195,-7.712550607287455,-0.49803921568627274,-7.589641434262951,12.424883121208856,92.82516181341472,70.54144255132576,1194.809257448804,92.98690721617261,55.12059758597236,1
-31.170678026269076,-95.90717981888746,-84.54646980882075,-98.50707202080962,117.1815731612171,35.46511007338228,-20.246376811594246,-21.970464135021093,-35.36078431372549,-35.98333333333334,-17.977168949771684,-20.419607843137253,-5.655870445344135,-0.49803921568627274,-7.589641434262951,18.18186370878528,173.31769350582903,70.54144255132576,1194.809257448804,92.98690721617261,55.12059758597236,1
-35.55278665246716,-97.09831824062096,-87.6555618651019,-93.24207445943748,114.08291368182142,38.51514342895268,-14.198757763975209,-21.970464135021093,-35.36078431372549,-35.98333333333334,-17.977168949771684,-20.419607843137253,-5.655870445344135,-0.49803921568627274,-7.589641434262951,18.18186370878528,173.31769350582903,73.43555558606334,1098.6195485490312,92.66531818838678,22.54089783899866,1
-35.55278665246716,-97.09831824062096,-87.6555618651019,-93.24207445943748,114.08291368182142,38.51514342895268,-14.198757763975209,-5.894514767932484,9.462745098039218,31.749999999999993,16.817351598173524,-12.450980392156861,-2.570850202429156,4.482352941176472,5.5657370517928255,11.124316506462566,91.12520319099454,73.43555558606334,1098.6195485490312,92.66531818838678,22.54089783899866,1
-35.55278665246716,-97.09831824062096,-87.6555618651019,-93.24207445943748,114.08291368182142,38.51514342895268,-14.198757763975209,5.894514767932495,43.32941176470588,34.925,-20.29680365296803,-7.470588235294116,-2.570850202429156,-1.4941176470588218,4.553784860557766,15.066883891368283,259.02849623261443,73.43555558606334,1098.6195485490312,92.66531818838678,22.54089783899866,1
-39.88079517216897,-96.11254851228978,-89.86718404946683,-87.60543001138026,110.9662387403362,41.361841227485,-9.20289855072474,5.894514767932495,43.32941176470588,34.925,-20.29680365296803,-7.470588235294116,-2.570850202429156,-1.4941176470588218,4.553784860557766,15.066883891368283,259.02849623261443,75.2868425779752,949.9422889950209,91.19505419104563,19.415195631801595,1
-39.88079517216897,-96.11254851228978,-89.86718404946683,-87.60543001138026,110.9662387403362,41.361841227485,-9.20289855072474,-34.83122362869198,-24.40392156862745,8.466666666666661,9.858447488584481,-10.458823529411763,-9.769230769230775,-4.482352941176469,-3.5418326693227122,13.226562407714036,116.5091799595253,75.2868425779752,949.9422889950209,91.19505419104563,19.415195631801595,1
-39.88079517216897,-96.11254851228978,-89.86718404946683,-87.60543001138026,110.9662387403362,41.361841227485,-9.20289855072474,5.894514767932495,10.458823529411767,-5.291666666666673,2.899543378995441,7.4705882352941195,9.769230769230763,3.4862745098039234,3.541832669322706,6.101559315832236,8.379345746939428,75.2868425779752,949.9422889950209,91.19505419104563,19.415195631801595,1
-45.86787362442314,-95.20892626131953,-91.91854375670388,-80.95708014956917,107.3090999361657,43.361307538358915,-0.3944099378882129,5.894514767932495,10.458823529411767,-5.291666666666673,2.899543378995441,7.4705882352941195,9.769230769230763,3.4862745098039234,3.541832669322706,6.101559315832236,8.379345746939428,77.66511454748219,761.0050519959658,89.36151672253088,55.68256983837228,1
-45.86787362442314,-95.20892626131953,-91.91854375670388,-80.95708014956917,107.3090999361657,43.361307538358915,-0.3944099378882129,11.25316455696203,47.31372549019608,31.749999999999993,-1.7397260273972535,-19.423529411764704,-6.684210526315796,6.4745098039215705,9.613545816733065,16.781551454161313,239.9484901185846,77.66511454748219,761.0050519959658,89.36151672253088,55.68256983837228,1
-45.86787362442314,-95.20892626131953,-91.91854375670388,-80.95708014956917,107.3090999361657,43.361307538358915,-0.3944099378882129,-0.5358649789029482,3.4862745098039234,20.108333333333327,11.018264840182656,-12.450980392156861,-2.570850202429156,3.4862745098039234,1.5179282868525865,6.896846381683173,47.678710056689006,77.66511454748219,761.0050519959658,89.36151672253088,55.68256983837228,1
-50.466382676606315,-95.04463130659768,-97.44759921761624,-72.98731913509997,102.7511880275197,45.32688458972649,10.12318840579701,-0.5358649789029482,3.4862745098039234,20.108333333333327,11.018264840182656,-12.450980392156861,-2.570850202429156,3.4862745098039234,1.5179282868525865,6.896846381683173,47.678710056689006,80.98620440027342,700.0382022286627,88.4931832197713,181.76742945457144,1
-50.466382676606315,-95.04463130659768,-97.44759921761624,-72.98731913509997,102.7511880275197,45.32688458972649,10.12318840579701,-18.75527426160337,-29.384313725490195,6.349999999999994,-0.5799086757990799,-11.454901960784312,-7.712550607287455,-6.474509803921567,0.5059760956175268,10.152179391312938,94.8852190689472,80.98620440027342,700.0382022286627,88.4931832197713,181.76742945457144,1
-50.466382676606315,-95.04463130659768,-97.44759921761624,-72.98731913509997,102.7511880275197,45.32688458972649,10.12318840579701,21.970464135021103,3.4862745098039234,-12.700000000000006,-7.538812785388121,8.466666666666669,3.5991902834008034,3.4862745098039234,14.673306772908363,9.490123707874115,43.51116790045892,80.98620440027342,700.0382022286627,88.4931832197713,181.76742945457144,1
-49.74504792332268,-97.01617076326002,-103.24910088964603,-64.23297024874003,97.50868855947232,48.376917945296896,16.56521739130426,21.970464135021103,3.4862745098039234,-12.700000000000006,-7.538812785388121,8.466666666666669,3.5991902834008034,3.4862745098039234,14.673306772908363,9.490123707874115,43.51116790045892,83.33677319207625,856.015359388665,88.16608063388203,439.3076840206463,1
-49.74504792332268,-97.01617076326002,-103.24910088964603,-64.23297024874003,97.50868855947232,48.376917945296896,16.56521739130426,21.970464135021103,3.4862745098039234,-12.700000000000006,-7.538812785388121,8.466666666666669,3.5991902834008034,3.4862745098039234,14.673306772908363,9.490123707874115,43.51116790045892,83.33677319207625,856.015359388665,88.16608063388203,439.3076840206463,1
-49.74504792332268,-97.01617076326002,-103.24910088964603,-64.23297024874003,97.50868855947232,48.376917945296896,16.56521739130426,-2.679324894514762,-3.48627450980392,22.224999999999994,9.858447488584481,9.462745098039218,-4.6275303643724754,2.4901960784313744,-0.505976095617533,6.91693681617047,49.30500782344608,83.33677319207625,856.015359388665,88.16608063388203,439.3076840206463,1
-49.74504792332268,-97.01617076326002,-103.24910088964603,-64.23297024874003,97.50868855947232,48.376917945296896,16.56521739130426,-33.75949367088607,-28.388235294117646,-21.16666666666667,-5.219178082191775,-7.470588235294116,-4.6275303643724754,-3.48627450980392,-12.64940239043825,14.595921151721367,137.98868802421325,83.33677319207625,856.015359388665,88.16608063388203,439.3076840206463,1
-52.900887468938585,-97.55012936610608,-107.88068647864218,-54.59079824418792,91.54557060784452,51.39306204136096,21.82401656314687,-33.75949367088607,-28.388235294117646,-21.16666666666667,-5.219178082191775,-7.470588235294116,-4.6275303643724754,-3.48627450980392,-12.64940239043825,14.595921151721367,137.98868802421325,86.11056777122894,853.8422518990918,86.67387136297873,798.6727881231002,1
-52.900887468938585,-97.55012936610608,-107.88068647864218,-54.59079824418792,91.54557060784452,51.39306204136096,21.82401656314687,-4.822784810126577,-10.458823529411763,11.641666666666662,-0.5799086757990799,4.482352941176472,10.797570850202423,14.443137254901963,14.673306772908363,8.987443937649164,26.12956015790655,86.11056777122894,853.8422518990918,86.67387136297873,798.6727881231002,1
-52.900887468938585,-97.55012936610608,-107.88068647864218,-54.59079824418792,91.54557060784452,51.39306204136096,21.82401656314687,-20.898734177215182,-2.490196078431371,-1.058333333333339,-33.054794520547944,-7.470588235294116,15.93927125506072,-0.49803921568627274,-1.5179282868525927,10.365985637802693,141.3558024402975,86.11056777122894,853.8422518990918,86.67387136297873,798.6727881231002,1
-60.997870074547386,-98.04301423027167,-116.71114896838917,-43.09039180621036,84.15923115114549,53.86697798532356,28.26604554865412,-20.898734177215182,-2.490196078431371,-1.058333333333339,-33.054794520547944,-7.470588235294116,15.93927125506072,-0.49803921568627274,-1.5179282868525927,10.365985637802693,141.3558024402975,91.91734442440274,804.1352342036497,85.94818500162374,1464.7176418357428,1
-60.997870074547386,-98.04301423027167,-116.71114896838917,-43.09039180621036,84.15923115114549,53.86697798532356,28.26604554865412,-10.181434599156113,-2.490196078431371,-9.525000000000006,-6.378995433789948,-12.450980392156861,-2.570850202429156,-7.470588235294116,-4.553784860557772,6.952728725226918,13.248461366320255,91.91734442440274,804.1352342036497,85.94818500162374,1464.7176418357428,1
-60.997870074547386,-98.04301423027167,-116.71114896838917,-43.09039180621036,84.15923115114549,53.86697798532356,28.26604554865412,2.6793248945147727,15.439215686274512,32.80833333333332,-0.5799086757990799,10.458823529411767,-15.939271255060735,4.482352941176472,5.5657370517928255,10.994120920920437,109.97455843874874,91.91734442440274,804.1352342036497,85.94818500162374,1464.7176418357428,1
-71.042456514022,-106.38098318240621,-124.4197741182409,-29.27751585108112,75.49379388609123,54.51087391594399,34.5766045548653,2.6793248945147727,15.439215686274512,32.80833333333332,-0.5799086757990799,10.458823529411767,-15.939271255060735,4.482352941176472,5.5657370517928255,10.994120920920437,109.97455843874874,100.61440460488969,737.2245800234182,86.69275771724274,2553.7319935190662,1
-71.042456514022,-106.38098318240621,-124.4197741182409,-29.27751585108112,75.49379388609123,54.51087391594399,34.5766045548653,-38.0464135021097,-20.419607843137253,-7.4083333333333385,-13.337899543378988,-3.48627450980392,-26.22267206477733,-14.44313725490196,-15.68525896414343,17.38119962694824,119.26261868345865,100.61440460488969,737.2245800234182,86.69275771724274,2553.7319935190662,1
-71.042456514022,-106.38098318240621,-124.4197741182409,-29.27751585108112,75.49379388609123,54.51087391594399,34.5766045548653,3.7510548523206815,8.466666666666669,2.116666666666661,1.7397260273972672,-8.466666666666665,-4.6275303643724754,-5.478431372549018,6.577689243027885,5.153053982458415,6.743963772558246,100.61440460488969,737.2245800234182,86.69275771724274,2553.7319935190662,1
-80.40177493787718,-119.97639068564037,-127.0,-14.060640546252642,66.55812468969431,52.37585056704472,38.78364389233934,3.7510548523206815,8.466666666666669,2.116666666666661,1.7397260273972672,-8.466666666666665,-4.6275303643724754,-5.478431372549018,6.577689243027885,5.153053982458415,6.743963772558246,109.12605520783917,631.1459797206861,87.01234374396434,4003.796021535454,1
-80.40177493787718,-119.97639068564037,-127.0,-14.060640546252642,66.55812468969431,52.37585056704472,38.78364389233934,-15.54008438818565,8.466666666666669,25.399999999999995,11.018264840182656,-1.4941176470588218,-15.939271255060735,-0.49803921568627274,-4.553784860557772,10.36377860917482,71.10790373530412,109.12605520783917,631.1459797206861,87.01234374396434,4003.796021535454,1
-80.40177493787718,-119.97639068564037,-127.0,-14.060640546252642,66.55812468969431,52.37585056704472,38.78364389233934,-26.25738396624472,-1.4941176470588218,-52.91666666666667,-21.456621004566205,5.4784313725490215,-7.712550607287455,-2.490196078431371,-3.5418326693227122,15.168475001515873,317.11771824372596,109.12605520783917,631.1459797206861,87.01234374396434,4003.796021535454,1
-91.92509762158323,-127.0,-125.477506467285,1.878881482685756,57.08199163061211,46.106337558372275,46.80331262939944,-26.25738396624472,-1.4941176470588218,-52.91666666666667,-21.456621004566205,5.4784313725490215,-7.712550607287455,-2.490196078431371,-3.5418326693227122,15.168475001515873,317.11771824372596,114.80086802962273,393.0551504602918,84.78546264999025,5155.705397277426,1
-91.92509762158323,-127.0,-125.477506467285,1.878881482685756,57.08199163061211,46.106337558372275,46.80331262939944,0.5358649789029588,3.4862745098039234,20.108333333333327,4.059360730593614,-7.470588235294116,-7.712550607287455,0.4980392156862763,2.5298804780876463,5.8001115111236645,40.867979376022056,114.80086802962273,393.0551504602918,84.78546264999025,5155.705397277426,1
-91.92509762158323,-127.0,-125.477506467285,1.878881482685756,57.08199163061211,46.106337558372275,46.80331262939944,-15.54008438818565,-9.462745098039214,15.874999999999995,2.899543378995441,-3.48627450980392,-9.769230769230775,2.4901960784313744,-1.5179282868525927,7.63012531369237,34.54391550587658,114.80086802962273,393.0551504602918,84.78546264999025,5155.705397277426,1
-99.87781327653532,-123.71410090556274,-126.27881885292447,17.715168265322717,46.63302361869637,37.49846564376253,55.61180124223597,-15.54008438818565,-9.462745098039214,15.874999999999995,2.899543378995441,-3.48627450980392,-9.769230769230775,2.4901960784313744,-1.5179282868525927,7.63012531369237,34.54391550587658,116.62357767834085,211.95991358796275,89.23602934126997,3838.069621321091,1
-99.87781327653532,-123.71410090556274,-126.27881885292447,17.715168265322717,46.63302361869637,37.49846564376253,55.61180124223597,-9.109704641350206,6.4745098039215705,13.758333333333328,-45.81278538812785,-21.415686274509802,-0.514170040485836,0.4980392156862763,-3.5418326693227122,12.640632670842198,229.48755622668347,116.62357767834085,211.95991358796275,89.23602934126997,3838.069621321091,1
-99.87781327653532,-123.71410090556274,-126.27881885292447,17.715168265322717,46.63302361869637,37.49846564376253,55.61180124223597,-10.181434599156113,6.4745098039215705,27.516666666666662,13.337899543379002,11.454901960784316,11.825910931174082,3.4862745098039234,1.5179282868525865,10.724440787717281,63.72335988894713,116.62357767834085,211.95991358796275,89.23602934126997,3838.069621321091,1
-111.05850195243166,-115.17076326002588,-125.23711275159314,33.05592586571288,34.76083410170935,26.111674449633142,68.3643892339544,-10.181434599156113,6.4745098039215705,27.516666666666662,13.337899543379002,11.454901960784316,11.825910931174082,3.4862745098039234,1.5179282868525865,10.724440787717281,63.72335988894713,117.15545932135024,53.21251489040199,91.15460062577729,2556.9248546784042,1
-111.05850195243166,-115.17076326002588,-125.23711275159314,33.05592586571288,34.76083410170935,26.111674449633142,68.3643892339544,-14.46835443037974,15.439215686274512,29.63333333333333,17.9771689497717,25.400000000000002,0.5141700404858236,-0.49803921568627274,-0.505976095617533,13.054532218943613,133.08252041145857,117.15545932135024,53.21251489040199,91.15460062577729,2556.9248546784042,1
-111.05850195243166,-115.17076326002588,-125.23711275159314,33.05592586571288,34.76083410170935,26.111674449633142,68.3643892339544,-8.037974683544299,1.4941176470588253,-2.1166666666666725,-29.57534246575342,-15.439215686274508,-15.939271255060735,-3.48627450980392,2.5298804780876463,9.827342924031253,97.77048386709967,117.15545932135024,53.21251489040199,91.15460062577729,2556.9248546784042,1
-121.28342208022718,-111.0633893919793,-121.63120701621553,47.52950739717119,21.879778707709775,11.539292861907995,84.53519668737044,-8.037974683544299,1.4941176470588253,-2.1166666666666725,-29.57534246575342,-15.439215686274508,-15.939271255060735,-3.48627450980392,2.5298804780876463,9.827342924031253,97.77048386709967,117.99267282947399,36.041465308278916,93.40803460178866,1606.5491361833995,1
-121.28342208022718,-111.0633893919793,-121.63120701621553,47.52950739717119,21.879778707709775,11.539292861907995,84.53519668737044,-13.396624472573833,-0.49803921568627274,11.641666666666662,-15.657534246575336,-15.439215686274508,-6.684210526315796,-1.4941176470588218,-0.505976095617533,8.164673069596095,44.663675976126505,117.99267282947399,36.041465308278916,93.40803460178866,1606.5491361833995,1
-121.28342208022718,-111.0633893919793,-121.63120701621553,47.52950739717119,21.879778707709775,11.539292861907995,84.53519668737044,-2.679324894514762,7.4705882352941195,25.399999999999995,19.13698630136987,10.458823529411767,6.684210526315782,-2.490196078431371,-0.505976095617533,9.353263207619399,76.43245748861493,117.99267282947399,36.041465308278916,93.40803460178866,1606.5491361833995,1
-127.0,-110.15976714100906,-116.342545270995,60.640383677450814,8.60238314774098,-5.540893929286142,101.49482401656314,-2.679324894514762,7.4705882352941195,25.399999999999995,19.13698630136987,10.458823529411767,6.684210526315782,-2.490196078431371,-0.505976095617533,9.353263207619399,76.43245748861493,117.83410413733469,72.56692157507698,95.71423202981829,932.1878150348113,1
-127.0,-110.15976714100906,-116.342545270995,60.640383677450814,8.60238314774098,-5.540893929286142,101.49482401656314,-9.109704641350206,-10.458823529411763,-17.991666666666674,-30.735159817351594,-38.34901960784313,-35.47773279352227,10.458823529411767,4.553784860557766,19.6418394307644,176.24996459286857,117.83410413733469,72.56692157507698,95.71423202981829,932.1878150348113,1
-127.0,-110.15976714100906,-116.342545270995,60.640383677450814,8.60238314774098,-5.540893929286142,101.49482401656314,-6.966244725738392,3.4862745098039234,8.466666666666661,8.698630136986308,-4.482352941176469,-16.967611336032395,-6.474509803921567,-3.5418326693227122,7.385515348706054,19.160252673117466,117.83410413733469,72.56692157507698,95.71423202981829,932.1878150348113,1
-126.29669861554845,-102.10931435963778,-112.59240330620227,71.89302552430499,-4.909213419391442,-23.095530353569018,115.95652173913027,-6.966244725738392,3.4862745098039234,8.466666666666661,8.698630136986308,-4.482352941176469,-16.967611336032395,-6.474509803921567,-3.5418326693227122,7.385515348706054,19.160252673117466,113.66613876046283,147.122070155071,95.53158106338168,446.55976944590566,1
-126.29669861554845,-102.10931435963778,-112.59240330620227,71.89302552430499,-4.909213419391442,-23.095530353569018,115.95652173913027,-6.966244725738392,-2.490196078431371,6.349999999999994,42.33333333333334,106.08235294117648,36.50607287449392,8.466666666666669,6.577689243027885,26.971569482858506,1252.6497389608849,113.66613876046283,147.122070155071,95.53158106338168,446.55976944590566,1
-126.29669861554845,-102.10931435963778,-112.59240330620227,71.89302552430499,-4.909213419391442,-23.095530353569018,115.95652173913027,-13.396624472573833,-0.49803921568627274,12.699999999999994,53.93150684931508,2.4901960784313744,3.5991902834008034,-8.466666666666665,-7.589641434262951,12.833983125042122,297.1954838966577,113.66613876046283,147.122070155071,95.53158106338168,446.55976944590566,1
-124.65566205182817,-89.86934023285899,-112.0955896271058,81.72102097219963,-19.141428470104266,-40.48072048032017,125.68530020703929,-13.396624472573833,-0.49803921568627274,12.699999999999994,53.93150684931508,2.4901960784313744,3.5991902834008034,-8.466666666666665,-7.589641434262951,12.833983125042122,297.1954838966577,108.87353063726432,310.3082945237366,94.56198361072147,247.16928164674957,1
-124.65566205182817,-89.86934023285899,-112.0955896271058,81.72102097219963,-19.141428470104266,-40.48072048032017,125.68530020703929,-6.966244725738392,-4.482352941176469,-2.1166666666666725,-11.018264840182642,106.08235294117648,31.36437246963562,-1.4941176470588218,3.541832669322706,20.883275612619727,1279.654188712048,108.87353063726432,310.3082945237366,94.56198361072147,247.16928164674957,1
-124.65566205182817,-89.86934023285899,-112.0955896271058,81.72102097219963,-19.141428470104266,-40.48072048032017,125.68530020703929,-13.396624472573833,-5.478431372549018,-4.23333333333334,-4.059360730593601,-52.294117647058826,-35.47773279352227,15.439215686274512,-0.505976095617533,16.360599016440368,333.4997620386758,108.87353063726432,310.3082945237366,94.56198361072147,247.16928164674957,1
-122.6539581114661,-80.54560155239328,-114.94826171998233,90.76442854820354,-34.16632385275551,-57.59479653102065,127.0,-13.396624472573833,-5.478431372549018,-4.23333333333334,-4.059360730593601,-52.294117647058826,-35.47773279352227,15.439215686274512,-0.505976095617533,16.360599016440368,333.4997620386758,106.0492737946139,502.6724125983925,95.4194306068597,312.13753977622446,1
-122.6539581114661,-80.54560155239328,-114.94826171998233,90.76442854820354,-34.16632385275551,-57.59479653102065,127.0,-15.54008438818565,-7.470588235294116,-3.175000000000006,22.61643835616439,-58.27058823529411,-13.882591093117414,-6.474509803921567,-9.61354581673307,17.13041824108879,313.4007594988302,106.0492737946139,502.6724125983925,95.4194306068597,312.13753977622446,1
-122.6539581114661,-80.54560155239328,-114.94826171998233,90.76442854820354,-34.16632385275551,-57.59479653102065,127.0,-2.679324894514762,8.466666666666669,14.816666666666661,-63.210045662100455,85.16470588235295,-11.825910931174095,-12.450980392156861,2.5298804780876463,25.143022696715015,970.1200703956523,106.0492737946139,502.6724125983925,95.4194306068597,312.13753977622446,1
-119.98501952431664,-67.89489003880983,-116.42267650955895,98.71354251341245,-49.87580679480814,-74.16664442961971,120.55797101449275,-2.679324894514762,8.466666666666669,14.816666666666661,-63.210045662100455,85.16470588235295,-11.825910931174095,-12.450980392156861,2.5298804780876463,25.143022696715015,970.1200703956523,101.43419535756182,846.8363228870467,94.34370302059374,603.0581378324039,1
-119.98501952431664,-67.89489003880983,-116.42267650955895,98.71354251341245,-49.87580679480814,-74.16664442961971,120.55797101449275,-20.898734177215182,-15.439215686274508,-13.75833333333334,-22.616438356164377,-89.14901960784314,5.655870445344123,19.423529411764708,12.649402390438244,24.9488179260472,701.884401024157,101.43419535756182,846.8363228870467,94.34370302059374,603.0581378324039,1
-119.98501952431664,-67.89489003880983,-116.42267650955895,98.71354251341245,-49.87580679480814,-74.16664442961971,120.55797101449275,-0.5358649789029482,9.462745098039218,15.874999999999995,40.01369863013699,4.482352941176472,31.36437246963562,67.23529411764706,18.721115537848604,23.461305471673363,487.76569343134776,101.43419535756182,846.8363228870467,94.34370302059374,603.0581378324039,1
-115.29634362797302,-50.89036222509703,-119.17919111615873,105.65095106486748,-66.26987729626215,-89.24736490993993,103.8612836438922,-0.5358649789029482,9.462745098039218,15.874999999999995,40.01369863013699,4.482352941176472,31.36437246963562,67.23529411764706,18.721115537848604,23.461305471673363,487.76569343134776,95.12196565640959,1471.0951827328036,91.90683480204109,1307.5165867127428,1
-115.29634362797302,-50.89036222509703,-119.17919111615873,105.65095106486748,-66.26987729626215,-89.24736490993993,103.8612836438922,-1.6075949367088551,4.482352941176472,12.699999999999994,98.00456621004567,95.12549019607843,-43.70445344129555,-8.466666666666665,-7.589641434262951,33.96009572827932,1664.3973242270824,95.12196565640959,1471.0951827328036,91.90683480204109,1307.5165867127428,1
-115.29634362797302,-50.89036222509703,-119.17919111615873,105.65095106486748,-66.26987729626215,-89.24736490993993,103.8612836438922,-10.181434599156113,1.4941176470588253,9.524999999999995,-26.095890410958898,43.32941176470588,10.797570850202423,-18.427450980392155,1.5179282868525865,15.17110056741586,196.03104228958748,95.12196565640959,1471.0951827328036,91.90683480204109,1307.5165867127428,1
-102.72708555200568,-37.41817593790427,-119.69203104296801,111.45277190700699,-81.97936023831478,-101.04082721814541,75.463768115942,-10.181434599156113,1.4941176470588253,9.524999999999995,-26.095890410958898,43.32941176470588,10.797570850202423,-18.427450980392155,1.5179282868525865,15.17110056741586,196.03104228958748,86.61243084429266,1887.0083807238689,89.52099296262641,2052.9990042111367,1
-102.72708555200568,-37.41817593790427,-119.69203104296801,111.45277190700699,-81.97936023831478,-101.04082721814541,75.463768115942,-5.894514767932484,8.466666666666669,20.108333333333327,-0.5799086757990799,-47.31372549019608,-8.740890688259114,5.4784313725490215,-8.601593625498012,13.148008077529223,221.0203705777146,86.61243084429266,1887.0083807238689,89.52099296262641,2052.9990042111367,1
-102.72708555200568,-37.41817593790427,-119.69203104296801,111.45277190700699,-81.97936023831478,-101.04082721814541,75.463768115942,-27.329113924050628,-13.44705882352941,-22.225000000000005,-58.570776255707756,-109.07058823529411,-19.024291497975714,-67.23529411764706,-13.66135458167331,41.32043467948475,1165.5282867637986,86.61243084429266,1887.0083807238689,89.52099296262641,2052.9990042111367,1
-93.1874334398296,-34.37871927554981,-117.54451384945422,116.20159323687204,-96.57188453081778,-111.03815877251498,40.36128364389219,-27.329113924050628,-13.44705882352941,-22.225000000000005,-58.570776255707756,-109.07058823529411,-19.024291497975714,-67.23529411764706,-13.66135458167331,41.32043467948475,1165.5282867637986,81.70355552161122,1828.0469358076248,89.37494212062536,2268.8892543618317,1
-93.1874334398296,-34.37871927554981,-117.54451384945422,116.20159323687204,-96.57188453081778,-111.03815877251498,40.36128364389219,-14.46835443037974,-3.48627450980392,13.758333333333328,-36.53424657534246,-27.392156862745097,28.27935222672064,-6.474509803921567,-20.74501992031873,18.892280957820685,130.35874416537408,81.70355552161122,1828.0469358076248,89.37494212062536,2268.8892543618317,1
-93.1874334398296,-34.37871927554981,-117.54451384945422,116.20159323687204,-96.57188453081778,-111.03815877251498,40.36128364389219,1.6075949367088658,2.4901960784313744,9.524999999999995,89.88584474885846,76.2,52.95951417004048,65.24313725490197,56.16334661354581,44.25932922531087,1218.5727091759688,81.70355552161122,1828.0469358076248,89.37494212062536,2268.8892543618317,1
-84.38714944976925,-35.56985769728332,-114.51555303173701,120.12453259632579,-109.97538832541315,-119.95103402268177,1.0517598343683403,1.6075949367088658,2.4901960784313744,9.524999999999995,89.88584474885846,76.2,52.95951417004048,65.24313725490197,56.16334661354581,44.25932922531087,1218.5727091759688,78.15752005959654,1587.211914714274,90.0699811084487,2235.562751813187,1
-84.38714944976925,-35.56985769728332,-114.51555303173701,120.12453259632579,-109.97538832541315,-119.95103402268177,1.0517598343683403,-35.90295358649789,-21.415686274509802,-20.108333333333338,-62.05022831050228,-119.03137254901961,-75.582995951417,-52.294117647058826,1.5179282868525865,48.48795199239892,1401.687637856967,78.15752005959654,1587.211914714274,90.0699811084487,2235.562751813187,1
-84.38714944976925,-35.56985769728332,-114.51555303173701,120.12453259632579,-109.97538832541315,-119.95103402268177,1.0517598343683403,-1.6075949367088551,7.4705882352941195,32.80833333333332,77.12785388127855,116.04313725490196,61.186234817813755,-95.12549019607843,3.541832669322706,49.36388316559147,1980.0444914082643,78.15752005959654,1587.211914714274,90.0699811084487,2235.562751813187,1
-71.52935747248846,-38.23965071151358,-108.42557890087701,123.22158998536824,-121.7034541456841,-126.99999999999997,-40.36128364389242,-1.6075949367088551,7.4705882352941195,32.80833333333332,77.12785388127855,116.04313725490196,61.186234817813755,-95.12549019607843,3.541832669322706,49.36388316559147,1980.0444914082643,72.73152902829302,1232.6000412878093,89.96227319925295,2061.152743759998,1
-71.52935747248846,-38.23965071151358,-108.42557890087701,123.22158998536824,-121.7034541456841,-126.99999999999997,-40.36128364389242,0.5358649789029588,1.4941176470588253,4.233333333333327,21.456621004566216,88.15294117647059,72.49797570850201,40.34117647058824,-10.62549800796813,29.91719104092379,1155.3899890674052,72.73152902829302,1232.6000412878093,89.96227319925295,2061.152743759998,1
-71.52935747248846,-38.23965071151358,-108.42557890087701,123.22158998536824,-121.7034541456841,-126.99999999999997,-40.36128364389242,-28.400843881856535,-15.439215686274508,-20.108333333333338,-84.08675799086758,-111.06274509803922,30.33603238866396,110.06666666666666,19.73306772908366,52.40420784684819,1758.510076504653,72.73152902829302,1232.6000412878093,89.96227319925295,2061.152743759998,1
-37.897124600638975,-38.56824062095731,-91.19736260962836,125.05917736953342,-127.0,-125.71220813875914,-73.09730848861295,-28.400843881856535,-15.439215686274508,-20.108333333333338,-84.08675799086758,-111.06274509803922,30.33603238866396,110.06666666666666,19.73306772908366,52.40420784684819,1758.510076504653,55.887575943741545,935.1983749710104,84.94159353337302,1899.5215199631225,1
-37.897124600638975,-38.56824062095731,-91.19736260962836,125.05917736953342,-127.0,-125.71220813875914,-73.09730848861295,-32.68776371308016,-10.458823529411763,-2.1166666666666725,-44.65296803652968,79.18823529411765,19.0242914979757,-114.05098039215686,-101.7011952191235,50.48511554363275,1824.2470143151388,55.887575943741545,935.1983749710104,84.94159353337302,1899.5215199631225,1
-37.897124600638975,-38.56824062095731,-91.19736260962836,125.05917736953342,-127.0,-125.71220813875914,-73.09730848861295,-10.181434599156113,-3.48627450980392,-3.175000000000006,2.899543378995441,-24.40392156862745,-37.53441295546559,31.376470588235296,15.685258964143422,16.092789570553403,185.3392124500226,55.887575943741545,935.1983749710104,84.94159353337302,1899.5215199631225,1
4.030457933972315,-53.64230271668823,-68.11956590321155,126.11217688180784,-124.8201290871693,-116.18932621747828,-92.68633540372684,-10.181434599156113,-3.48627450980392,-3.175000000000006,2.899543378995441,-24.40392156862745,-37.53441295546559,31.376470588235296,15.685258964143422,16.092789570553403,185.3392124500226,41.930775517957365,1456.8940683577405,82.62468183390253,1470.7694564991568,1
4.030457933972315,-53.64230271668823,-68.11956590321155,126.11217688180784,-124.8201290871693,-116.18932621747828,-92.68633540372684,-6.966244725738392,1.4941176470588253,5.291666666666661,-23.77625570776255,-30.380392156862744,-121.8582995951417,4.482352941176472,17.709163346613543,26.494811598377613,1590.6274362566214,41.930775517957365,1456.8940683577405,82.62468183390253,1470.7694564991568,1
4.030457933972315,-53.64230271668823,-68.11956590321155,126.11217688180784,-124.8201290871693,-116.18932621747828,-92.68633540372684,16.61181434599157,8.466666666666669,9.524999999999995,-21.456621004566205,9.462745098039218,-52.95951417004049,-12.450980392156861,-48.06772908366534,22.375133845140795,321.9090416348162,41.930775517957365,1456.8940683577405,82.62468183390253,1470.7694564991568,1
33.983883564075256,-43.20957309184994,-59.914127074263355,127.0,-118.56876374210938,-99.38025350233485,-116.08799171842657,16.61181434599157,8.466666666666669,9.524999999999995,-21.456621004566205,9.462745098039218,-52.95951417004049,-12.450980392156861,-48.06772908366534,22.375133845140795,321.9090416348162,45.70252791006285,2509.1180460131864,76.7079000553711,1966.732018568248,1
33.983883564075256,-43.20957309184994,-59.914127074263355,127.0,-118.56876374210938,-99.38025350233485,-116.08799171842657,-36.974683544303794,-7.470588235294116,-1.058333333333339,41.17351598173517,-26.396078431372548,-37.53441295546559,-79.18823529411765,-52.115537848605584,35.23892320302847,611.0646768809196,45.70252791006285,2509.1180460131864,76.7079000553711,1966.732018568248,1
33.983883564075256,-43.20957309184994,-59.914127074263355,127.0,-118.56876374210938,-99.38025350233485,-116.08799171842657,-5.894514767932484,13.447058823529414,33.86666666666666,38.85388127853882,-127.0,-38.56275303643725,-100.10588235294118,-28.840637450199207,48.32142429703063,1808.7885000093463,45.70252791006285,2509.1180460131864,76.7079000553711,1966.732018568248,1
55.0468583599574,-21.728007761966367,-36.56388415672913,124.6875304828483,-108.84041421377404,-74.91220813875915,-127.0,-5.894514767932484,13.447058823529414,33.86666666666666,38.85388127853882,-127.0,-38.56275303643725,-100.10588235294118,-28.840637450199207,48.32142429703063,1808.7885000093463,37.779583426217634,2417.8352401497723,60.9931408005146,3097.7572648539035,1
55.0468583599574,-21.728007761966367,-36.56388415672913,124.6875304828483,-108.84041421377404,-74.91220813875915,-127.0,17.683544303797476,13.447058823529414,8.466666666666661,8.698630136986308,88.15294117647059,126.99999999999997,127.0,127.0,64.6811051384313,3332.808554783457,37.779583426217634,2417.8352401497723,60.9931408005146,3097.7572648539035,1
55.0468583599574,-21.728007761966367,-36.56388415672913,124.6875304828483,-108.84041421377404,-74.91220813875915,-127.0,13.396624472573844,15.439215686274512,4.233333333333327,0.5799086757990937,-31.376470588235293,-82.78137651821862,20.419607843137257,38.960159362549796,25.898337060015216,691.7712915006924,37.779583426217634,2417.8352401497723,60.9931408005146,3097.7572648539035,1
68.98665246716365,-22.713777490297545,-1.6106378951353406,117.48171029100959,-94.62621462515072,-46.614676450967295,-110.56625258799181,13.396624472573844,15.439215686274512,4.233333333333327,0.5799086757990937,-31.376470588235293,-82.78137651821862,20.419607843137257,38.960159362549796,25.898337060015216,691.7712915006924,31.103689284198847,2306.381460275817,47.268708558814154,3808.7348343771846,1
68.98665246716365,-22.713777490297545,-1.6106378951353406,117.48171029100959,-94.62621462515072,-46.614676450967295,-110.56625258799181,-8.037974683544299,-11.454901960784312,-24.341666666666672,-51.61187214611871,75.20392156862745,80.72469635627529,109.07058823529412,50.091633466135455,51.31715688543079,1280.3132220662026,31.103689284198847,2306.381460275817,47.268708558814154,3808.7348343771846,1
68.98665246716365,-22.713777490297545,-1.6106378951353406,117.48171029100959,-94.62621462515072,-46.614676450967295,-110.56625258799181,5.894514767932495,-5.478431372549018,8.466666666666661,42.33333333333334,127.0,126.99999999999997,-10.458823529411763,115.86852589641434,55.31253694578845,3320.8060580289102,31.103689284198847,2306.381460275817,47.268708558814154,3808.7348343771846,1
96.93837415690452,-2.793014230271666,27.1885292447473,104.8044220451959,-75.13348464430102,-11.437625083388895,-88.3478260869565,5.894514767932495,-5.478431372549018,8.466666666666661,42.33333333333334,127.0,126.99999999999997,-10.458823529411763,115.86852589641434,55.31253694578845,3320.8060580289102,42.30663921064116,2618.3806073413693,44.928655173404955,2837.6158820691703,1
96.93837415690452,-2.793014230271666,27.1885292447473,104.8044220451959,-75.13348464430102,-11.437625083388895,-88.3478260869565,19.82700421940929,15.439215686274512,48.68333333333333,60.89041095890412,-32.372549019607845,-75.582995951417,14.443137254901963,117.89243027888446,48.141384587841564,1290.9208322973002,42.30663921064116,2618.3806073413693,44.928655173404955,2837.6158820691703,1
96.93837415690452,-2.793014230271666,27.1885292447473,104.8044220451959,-75.13348464430102,-11.437625083388895,-88.3478260869565,-8.037974683544299,5.4784313725490215,10.583333333333329,-44.65296803652968,47.31372549019608,-43.70445344129555,-77.19607843137254,-63.24701195219124,37.526747092626465,720.3642405469235,42.30663921064116,2618.3806073413693,44.928655173404955,2837.6158820691703,1
126.99999999999999,41.402328589909445,54.35301911792541,84.23996098195414,-51.226966451521385,30.957838559039374,-73.75465838509331,-8.037974683544299,5.4784313725490215,10.583333333333329,-44.65296803652968,47.31372549019608,-43.70445344129555,-77.19607843137254,-63.24701195219124,37.526747092626465,720.3642405469235,74.25178256927828,2128.7109278771304,59.998436229929666,482.66873801537207,1
