Gyro 0,Gyro 1,Gyro 2,Orientation 0,Orientation 1,Orientation 2,Orientation 3,Sensor 0,Sensor 1,Sensor 2,Sensor 3,Sensor 4,Sensor 5,Sensor 6,Sensor 7,Sensor Mean,Sensor Variance,Gyro Mean,Gyro Variance,Orientation Mean,Orientation Variance,Label
-10.928705050924963,-57.373439273552776,-40.27787694870879,125.26149526149523,-123.19300552195634,-20.807708479327232,-53.87533632287,-3.0094786729857885,-2.0,9.462745098039218,0.4980392156862763,-1.5059288537549445,-2.490196078431371,0.4980392156862763,-11.348936170212765,3.85167041309958,17.382989063191584,36.19334042439551,551.7909132164707,74.3042704945856,2020.5436297596673,1
-10.928705050924963,-57.373439273552776,-40.27787694870879,125.26149526149523,-123.19300552195634,-20.807708479327232,-53.87533632287,4.213270142180089,4.0,-43.32941176470588,-21.415686274509802,1.505928853754937,3.4862745098039234,-3.48627450980392,-13.510638297872338,11.868435544078864,207.4366397867048,36.19334042439551,551.7909132164707,74.3042704945856,2020.5436297596673,1
-10.928705050924963,-57.373439273552776,-40.27787694870879,125.26149526149523,-123.19300552195634,-20.807708479327232,-53.87533632287,1.8056872037914629,5.0,4.482352941176472,6.4745098039215705,14.557312252964422,-1.4941176470588218,-0.49803921568627274,-9.18723404255319,5.437406638394027,21.792740534977863,36.19334042439551,551.7909132164707,74.3042704945856,2020.5436297596673,1
-10.770318021201414,-57.27733636019674,-40.232535999047954,125.23920673920671,-123.19300552195634,-20.807708479327232,-53.87533632287,1.8056872037914629,5.0,4.482352941176472,6.4745098039215705,14.557312252964422,-1.4941176470588218,-0.49803921568627274,-9.18723404255319,5.437406638394027,21.792740534977863,36.093396793482036,553.5750437182016,74.24969303281715,2022.5791858484222,1
-10.770318021201414,-57.27733636019674,-40.232535999047954,125.23920673920671,-123.19300552195634,-20.807708479327232,-53.87533632287,16.251184834123215,13.0,2.4901960784313744,14.443137254901963,22.588932806324106,3.4862745098039234,4.482352941176472,-5.944680851063828,10.33584490947811,53.01621320573489,36.093396793482036,553.5750437182016,74.24969303281715,2022.5791858484222,1
-11.007898565786737,-57.037079076806656,-40.11162679995239,125.23920673920671,-123.19300552195634,-20.843307638402223,-53.87533632287,16.251184834123215,13.0,2.4901960784313744,14.443137254901963,22.588932806324106,3.4862745098039234,4.482352941176472,-5.944680851063828,10.33584490947811,53.01621320573489,36.052201480848595,542.0305650700496,74.12930420532193,2030.78433646142,1
-11.007898565786737,-57.037079076806656,-40.11162679995239,125.23920673920671,-123.19300552195634,-20.843307638402223,-53.87533632287,7.824644549763027,11.0,1.4941176470588253,-6.474509803921567,-5.521739130434787,0.4980392156862763,3.4862745098039234,-7.025531914893616,5.415607096445253,11.999454288536194,36.052201480848595,542.0305650700496,74.12930420532193,2030.78433646142,1
-11.007898565786737,-57.037079076806656,-40.11162679995239,125.23920673920671,-123.19300552195634,-20.843307638402223,-53.87533632287,-11.436018957345977,-7.0,40.34117647058824,5.4784313725490215,4.517786561264819,1.4941176470588253,-0.49803921568627274,-11.348936170212765,10.26431329933824,163.72091672631365,36.052201480848595,542.0305650700496,74.12930420532193,2030.78433646142,1
-10.928705050924963,-57.08513053348467,-40.005831250743775,125.21691821691817,-123.17630817775441,-20.843307638402223,-53.87533632287,-11.436018957345977,-7.0,40.34117647058824,5.4784313725490215,4.517786561264819,1.4941176470588253,-0.49803921568627274,-11.348936170212765,10.26431329933824,163.72091672631365,36.0065556117178,544.5995575594518,74.10262666704887,2032.4287164811385,1
-10.928705050924963,-57.08513053348467,-40.005831250743775,125.21691821691817,-123.17630817775441,-20.843307638402223,-53.87533632287,-3.0094786729857885,-12.0,6.4745098039215705,-1.4941176470588218,-5.521739130434787,-0.49803921568627274,0.4980392156862763,-2.702127659574467,4.024756418168498,15.129499408101742,36.0065556117178,544.5995575594518,74.10262666704887,2032.4287164811385,1
-10.928705050924963,-57.08513053348467,-40.005831250743775,125.21691821691817,-123.17630817775441,-20.843307638402223,-53.87533632287,-0.6018957345971627,10.0,3.4862745098039234,-0.49803921568627274,-15.56126482213439,-8.466666666666665,-0.49803921568627274,-8.106382978723403,5.902320392912261,30.552034099404604,36.0065556117178,544.5995575594518,74.10262666704887,2032.4287164811385,1
-10.532737476616088,-56.84487325009459,-40.020944900630724,125.23920673920671,-123.14291348935049,-20.914505956552148,-53.87533632287,-0.6018957345971627,10.0,3.4862745098039234,-0.49803921568627274,-15.56126482213439,-8.466666666666665,-0.49803921568627274,-8.106382978723403,5.902320392912261,30.552034099404604,35.79951854244713,549.5688103484522,74.03500829664401,2037.163594885979,1
-10.532737476616088,-56.84487325009459,-40.020944900630724,125.23920673920671,-123.14291348935049,-20.914505956552148,-53.87533632287,-12.63981042654029,-11.0,4.482352941176472,-12.450980392156861,-5.521739130434787,-0.49803921568627274,-1.4941176470588218,-14.591489361702127,7.834816139344454,30.098578879460142,35.79951854244713,549.5688103484522,74.03500829664401,2037.163594885979,1
-10.532737476616088,-56.84487325009459,-40.020944900630724,125.23920673920671,-123.14291348935049,-20.914505956552148,-53.87533632287,-1.8056872037914755,-21.0,-47.31372549019608,-1.4941176470588218,-9.537549407114629,6.4745098039215705,-1.4941176470588218,-1.6212765957446793,11.342622974360758,256.22654247317683,35.79951854244713,549.5688103484522,74.03500829664401,2037.163594885979,1
-11.139887757223029,-56.84487325009459,-40.005831250743775,125.17234117234113,-123.1095188009466,-20.914505956552148,-54.2170403587445,-1.8056872037914755,-21.0,-47.31372549019608,-1.4941176470588218,-9.537549407114629,6.4745098039215705,-1.4941176470588218,-1.6212765957446793,11.342622974360758,256.22654247317683,35.99686408602046,534.2902880217722,74.00768189105983,2034.2551033911786,1
-11.139887757223029,-56.84487325009459,-40.005831250743775,125.17234117234113,-123.1095188009466,-20.914505956552148,-54.2170403587445,-6.620853080568727,-14.0,2.4901960784313744,19.423529411764708,-16.56521739130435,1.4941176470588253,9.462745098039218,-9.18723404255319,9.905486593715048,41.27836835351281,35.99686408602046,534.2902880217722,74.00768189105983,2034.2551033911786,1
-11.139887757223029,-56.84487325009459,-40.005831250743775,125.17234117234113,-123.1095188009466,-20.914505956552148,-54.2170403587445,-6.620853080568727,-5.0,-3.48627450980392,4.482352941176472,-5.521739130434787,1.4941176470588253,-3.48627450980392,-14.591489361702127,5.585387647568598,15.613787755823656,35.99686408602046,534.2902880217722,74.00768189105983,2034.2551033911786,1
-11.351070463521097,-57.037079076806656,-39.96049030108294,125.1277641277641,-123.09282145674467,-20.843307638402223,-54.55874439461877,-6.620853080568727,-5.0,-3.48627450980392,4.482352941176472,-5.521739130434787,1.4941176470588253,-3.48627450980392,-14.591489361702127,5.585387647568598,15.613787755823656,36.116213280470234,532.8866951117088,74.0417778352179,2030.2359676654569,1
-11.351070463521097,-57.037079076806656,-39.96049030108294,125.1277641277641,-123.09282145674467,-20.843307638402223,-54.55874439461877,6.620853080568714,27.0,18.42745098039216,12.450980392156865,18.573122529644266,6.4745098039215705,12.450980392156865,1.621276595744682,12.95239672182314,67.12178848388405,36.116213280470234,532.8866951117088,74.0417778352179,2030.2359676654569,1
-11.351070463521097,-57.037079076806656,-39.96049030108294,125.1277641277641,-123.09282145674467,-20.843307638402223,-54.55874439461877,-4.213270142180101,-14.0,-12.450980392156861,15.439215686274512,-4.517786561264826,0.4980392156862763,-0.49803921568627274,-4.863829787234041,7.060145125060361,36.135152465987176,36.116213280470234,532.8866951117088,74.0417778352179,2030.2359676654569,1
-11.113489918935771,-57.13318199016269,-40.005831250743775,125.10547560547556,-123.07612411254271,-20.77210932025224,-54.786547085201846,-4.213270142180101,-14.0,-12.450980392156861,15.439215686274512,-4.517786561264826,0.4980392156862763,-0.49803921568627274,-4.863829787234041,7.060145125060361,36.135152465987176,36.08416771994741,540.9875982192201,74.08149628212733,2025.9213853298684,1
-11.113489918935771,-57.13318199016269,-40.005831250743775,125.10547560547556,-123.07612411254271,-20.77210932025224,-54.786547085201846,-3.0094786729857885,-22.0,-8.466666666666665,3.4862745098039234,-4.517786561264826,-4.482352941176469,-0.49803921568627274,-11.348936170212765,7.226191842224589,46.95728664551245,36.08416771994741,540.9875982192201,74.08149628212733,2025.9213853298684,1
-11.113489918935771,-57.13318199016269,-40.005831250743775,125.10547560547556,-123.07612411254271,-20.77210932025224,-54.786547085201846,16.251184834123215,16.0,-15.439215686274508,-18.427450980392155,-0.501976284584984,-0.49803921568627274,1.4941176470588253,-7.025531914893616,9.454689570376695,62.143229951209484,36.08416771994741,540.9875982192201,74.08149628212733,2025.9213853298684,1
-11.245479110372063,-57.18123344684071,-40.020944900630724,125.03861003861,-123.04272942413883,-20.73651016117725,-55.014349775784694,16.251184834123215,16.0,-15.439215686274508,-18.427450980392155,-0.501976284584984,-0.49803921568627274,1.4941176470588253,-7.025531914893616,9.454689570376695,62.143229951209484,36.1492191526145,538.7660768159883,74.08026279536048,2021.1837410699936,1
-11.245479110372063,-57.18123344684071,-40.020944900630724,125.03861003861,-123.04272942413883,-20.73651016117725,-55.014349775784694,4.213270142180089,33.0,-0.49803921568627274,3.4862745098039234,-19.577075098814234,0.4980392156862763,-1.4941176470588218,-11.348936170212765,9.264468999930298,135.29305196107003,36.1492191526145,538.7660768159883,74.08026279536048,2021.1837410699936,1
-11.245479110372063,-57.18123344684071,-40.020944900630724,125.03861003861,-123.04272942413883,-20.73651016117725,-55.014349775784694,-3.0094786729857885,-7.0,-3.48627450980392,-21.415686274509802,-11.545454545454549,-7.470588235294116,1.4941176470588253,-10.268085106382976,8.211210623936246,40.88914567165613,36.1492191526145,538.7660768159883,74.08026279536048,2021.1837410699936,1
-11.192683433797546,-57.08513053348467,-39.99071760085683,125.01632151632148,-123.02603207993687,-20.70091100210226,-55.24215246636777,-3.0094786729857885,-7.0,-3.48627450980392,-21.415686274509802,-11.545454545454549,-7.470588235294116,1.4941176470588253,-10.268085106382976,8.211210623936246,40.88914567165613,36.08951052271302,537.9437376993149,74.03072321688767,2022.70316384122,1
-11.192683433797546,-57.08513053348467,-39.99071760085683,125.01632151632148,-123.02603207993687,-20.70091100210226,-55.24215246636777,10.232227488151652,8.0,15.439215686274512,-2.490196078431371,20.581027667984184,-2.490196078431371,-6.474509803921567,-7.025531914893616,9.091613089761033,39.009522937420506,36.08951052271302,537.9437376993149,74.03072321688767,2022.70316384122,1
-11.192683433797546,-57.08513053348467,-39.99071760085683,125.01632151632148,-123.02603207993687,-20.70091100210226,-55.24215246636777,-7.82464454976304,0.0,-10.458823529411763,2.4901960784313744,-5.521739130434787,0.4980392156862763,-4.482352941176469,-11.348936170212765,5.328091451889559,18.47602092439041,36.08951052271302,537.9437376993149,74.03072321688767,2022.70316384122,1
-10.743920182914154,-57.229284903518725,-39.945376651196,125.01632151632148,-123.04272942413883,-20.70091100210226,-55.24215246636777,-7.82464454976304,0.0,-10.458823529411763,2.4901960784313744,-5.521739130434787,0.4980392156862763,-4.482352941176469,-11.348936170212765,5.328091451889559,18.47602092439041,35.97286057920963,552.0579462585496,74.06366102367873,2021.8135795775654,1
-10.743920182914154,-57.229284903518725,-39.945376651196,125.01632151632148,-123.04272942413883,-20.70091100210226,-55.24215246636777,9.02843601895734,-1.0,-6.474509803921567,-10.458823529411763,2.5098814229248974,-4.482352941176469,-0.49803921568627274,-11.348936170212765,5.725122387786384,18.148585832876964,35.97286057920963,552.0579462585496,74.06366102367873,2021.8135795775654,1
-10.743920182914154,-57.229284903518725,-39.945376651196,125.01632151632148,-123.04272942413883,-20.70091100210226,-55.24215246636777,29.49289099526066,24.0,-13.44705882352941,-11.454901960784312,13.553359683794461,6.4745098039215705,-3.48627450980392,0.5404255319148952,12.806177663626153,97.70604342953489,35.97286057920963,552.0579462585496,74.06366102367873,2021.8135795775654,1
-10.559135314903346,-57.18123344684071,-39.90003570153516,125.01632151632148,-123.04272942413883,-20.70091100210226,-55.128251121076346,29.49289099526066,24.0,-13.44705882352941,-11.454901960784312,13.553359683794461,6.4745098039215705,-3.48627450980392,0.5404255319148952,12.806177663626153,97.70604342953489,35.88013482109307,555.5247108724337,74.03253022156578,2024.1701799684938,1
-10.559135314903346,-57.18123344684071,-39.90003570153516,125.01632151632148,-123.04272942413883,-20.70091100210226,-55.128251121076346,-1.8056872037914755,-23.0,-27.392156862745097,16.43529411764706,-19.577075098814234,-1.4941176470588218,-1.4941176470588218,-4.863829787234041,12.007784795543694,115.79971082090196,35.88013482109307,555.5247108724337,74.03253022156578,2024.1701799684938,1
-10.559135314903346,-57.18123344684071,-39.90003570153516,125.01632151632148,-123.04272942413883,-20.70091100210226,-55.128251121076346,-0.6018957345971627,6.0,9.462745098039218,-19.423529411764704,-9.537549407114629,5.4784313725490215,4.482352941176472,-9.18723404255319,8.0217172509743,30.552936153950604,35.88013482109307,555.5247108724337,74.03253022156578,2024.1701799684938,1
-10.743920182914154,-57.757850926976914,-39.88492205164822,124.99403299403295,-123.02603207993687,-20.73651016117725,-55.128251121076346,-0.6018957345971627,6.0,9.462745098039218,-19.423529411764704,-9.537549407114629,5.4784313725490215,4.482352941176472,-9.18723404255319,8.0217172509743,30.552936153950604,36.128897720513095,563.1582100839418,74.21226865755268,2013.9510884900033,1
-10.743920182914154,-57.757850926976914,-39.88492205164822,124.99403299403295,-123.02603207993687,-20.73651016117725,-55.128251121076346,-4.213270142180101,2.0,24.403921568627453,-9.462745098039214,5.521739130434779,-9.462745098039214,-3.48627450980392,-1.6212765957446793,7.52149651785867,55.58272780522126,36.128897720513095,563.1582100839418,74.21226865755268,2013.9510884900033,1
-10.743920182914154,-57.757850926976914,-39.88492205164822,124.99403299403295,-123.02603207993687,-20.73651016117725,-55.128251121076346,4.213270142180089,-4.0,15.439215686274512,12.450980392156865,14.557312252964422,7.4705882352941195,10.458823529411767,-3.782978723404254,9.046646120210752,23.40520529747159,36.128897720513095,563.1582100839418,74.21226865755268,2013.9510884900033,1
-10.611930991477863,-57.61369655694286,-40.005831250743775,124.99403299403295,-123.04272942413883,-20.73651016117725,-55.014349775784694,4.213270142180089,-4.0,15.439215686274512,12.450980392156865,14.557312252964422,7.4705882352941195,10.458823529411767,-3.782978723404254,9.046646120210752,23.40520529747159,36.07715293305483,563.8673765606422,74.20452026723986,2012.1901824291201,1
-10.611930991477863,-57.61369655694286,-40.005831250743775,124.99403299403295,-123.04272942413883,-20.73651016117725,-55.014349775784694,-13.843601895734604,-9.0,2.4901960784313744,0.4980392156862763,-43.67193675889328,-7.470588235294116,-2.490196078431371,-21.07659574468085,12.567644250893984,204.14295577551107,36.07715293305483,563.8673765606422,74.20452026723986,2012.1901824291201,1
-10.611930991477863,-57.61369655694286,-40.005831250743775,124.99403299403295,-123.04272942413883,-20.73651016117725,-55.014349775784694,-10.232227488151665,1.0,15.439215686274512,-1.4941176470588218,-5.521739130434787,-1.4941176470588218,-8.466666666666665,-13.510638297872338,7.144840320439702,32.12201207305763,36.07715293305483,563.8673765606422,74.20452026723986,2012.1901824291201,1
-10.770318021201414,-57.46954218690881,-40.005831250743775,124.97174447174443,-123.04272942413883,-20.77210932025224,-55.014349775784694,-10.232227488151665,1.0,15.439215686274512,-1.4941176470588218,-5.521739130434787,-1.4941176470588218,-8.466666666666665,-13.510638297872338,7.144840320439702,32.12201207305763,36.081897152951335,556.7523285226112,74.14903930313234,2013.4558204072353,1
-10.770318021201414,-57.46954218690881,-40.005831250743775,124.97174447174443,-123.04272942413883,-20.77210932025224,-55.014349775784694,-7.82464454976304,-7.0,3.4862745098039234,-4.482352941176469,5.521739130434779,-4.482352941176469,4.482352941176472,-9.18723404255319,5.808368882010543,3.9501879681172456,36.081897152951335,556.7523285226112,74.14903930313234,2013.4558204072353,1
-10.770318021201414,-57.46954218690881,-40.005831250743775,124.97174447174443,-123.04272942413883,-20.77210932025224,-55.014349775784694,3.0094786729857756,-21.0,-61.258823529411764,-4.482352941176469,-22.588932806324113,-6.474509803921567,8.466666666666669,-10.268085106382976,17.193606190858667,369.5897625622064,36.081897152951335,556.7523285226112,74.14903930313234,2013.4558204072353,1
-10.611930991477863,-57.18123344684071,-40.11162679995239,124.97174447174443,-123.04272942413883,-20.77210932025224,-54.90044843049327,3.0094786729857756,-21.0,-61.258823529411764,-4.482352941176469,-22.588932806324113,-6.474509803921567,8.466666666666669,-10.268085106382976,17.193606190858667,369.5897625622064,35.96826374609032,555.050575841848,74.08820157284583,2014.6940712279134,1
-10.611930991477863,-57.18123344684071,-40.11162679995239,124.97174447174443,-123.04272942413883,-20.77210932025224,-54.90044843049327,7.824644549763027,3.0,-9.462745098039214,-0.49803921568627274,14.557312252964422,5.4784313725490215,3.4862745098039234,-4.863829787234041,6.14640959825499,19.36133472510363,35.96826374609032,555.050575841848,74.08820157284583,2014.6940712279134,1
-10.611930991477863,-57.18123344684071,-40.11162679995239,124.97174447174443,-123.04272942413883,-20.77210932025224,-54.90044843049327,-10.232227488151665,-10.0,24.403921568627453,-7.470588235294116,6.525691699604739,2.4901960784313744,-4.482352941176469,-12.429787234042552,9.754345655666047,45.465472822399825,35.96826374609032,555.050575841848,74.08820157284583,2014.6940712279134,1
-10.66472666805238,-57.32538781687476,-40.12674044983934,124.94945594945591,-123.02603207993687,-20.807708479327232,-54.90044843049327,-10.232227488151665,-10.0,24.403921568627453,-7.470588235294116,6.525691699604739,2.4901960784313744,-4.482352941176469,-12.429787234042552,9.754345655666047,45.465472822399825,36.03895164492216,556.8368376965101,74.13386140539,2010.616854464084,1
-10.66472666805238,-57.32538781687476,-40.12674044983934,124.94945594945591,-123.02603207993687,-20.807708479327232,-54.90044843049327,-3.0094786729857885,-6.0,-7.470588235294116,-0.49803921568627274,1.505928853754937,4.482352941176472,-10.458823529411763,-16.7531914893617,6.2723003672088815,28.3994860933381,36.03895164492216,556.8368376965101,74.13386140539,2010.616854464084,1
-10.66472666805238,-57.32538781687476,-40.12674044983934,124.94945594945591,-123.02603207993687,-20.807708479327232,-54.90044843049327,-11.436018957345977,-5.0,12.450980392156865,-2.490196078431371,20.581027667984184,1.4941176470588253,-5.478431372549018,-8.106382978723403,8.379644386781205,39.542963021632154,36.03895164492216,556.8368376965101,74.13386140539,2010.616854464084,1
-10.585533153190605,-57.229284903518725,-40.12674044983934,124.94945594945591,-123.02603207993687,-20.807708479327232,-54.90044843049327,-11.436018957345977,-5.0,12.450980392156865,-2.490196078431371,20.581027667984184,1.4941176470588253,-5.478431372549018,-8.106382978723403,8.379644386781205,39.542963021632154,35.98051950218289,556.8032554466483,74.101827100938,2012.2352763349936,1
-10.585533153190605,-57.229284903518725,-40.12674044983934,124.94945594945591,-123.02603207993687,-20.807708479327232,-54.90044843049327,16.251184834123215,26.0,35.36078431372549,-4.482352941176469,-8.533596837944668,-8.466666666666665,3.4862745098039234,-5.944680851063828,13.565692619313033,132.90764193802698,35.98051950218289,556.8032554466483,74.101827100938,2012.2352763349936,1
-10.585533153190605,-57.229284903518725,-40.12674044983934,124.94945594945591,-123.02603207993687,-20.807708479327232,-54.90044843049327,-0.6018957345971627,-22.0,-31.376470588235293,12.450980392156865,14.557312252964422,2.4901960784313744,-6.474509803921567,-12.429787234042552,12.797644010543655,104.0242663478216,35.98051950218289,556.8032554466483,74.101827100938,2012.2352763349936,1
-10.585533153190605,-57.373439273552776,-40.21742234916101,124.92716742716739,-123.02603207993687,-20.807708479327232,-54.90044843049327,-0.6018957345971627,-22.0,-31.376470588235293,12.450980392156865,14.557312252964422,2.4901960784313744,-6.474509803921567,-12.429787234042552,12.797644010543655,104.0242663478216,36.0587982586348,560.2476555266848,74.17267634996038,2005.5960025572176,1
-10.585533153190605,-57.373439273552776,-40.21742234916101,124.92716742716739,-123.02603207993687,-20.807708479327232,-54.90044843049327,-10.232227488151665,-15.0,-11.454901960784312,-16.435294117647057,11.545454545454541,2.4901960784313744,1.4941176470588253,-8.106382978723403,9.594821852031398,28.85596139535116,36.0587982586348,560.2476555266848,74.17267634996038,2005.5960025572176,1
-10.585533153190605,-57.373439273552776,-40.21742234916101,124.92716742716739,-123.02603207993687,-20.807708479327232,-54.90044843049327,1.8056872037914629,16.0,-9.462745098039214,7.4705882352941195,-14.55731225296443,-4.482352941176469,-4.482352941176469,-9.18723404255319,8.43103408937442,24.63694832595303,36.0587982586348,560.2476555266848,74.17267634996038,2005.5960025572176,1
-10.743920182914154,-57.66174801362088,-40.21742234916101,124.92716742716739,-123.02603207993687,-20.843307638402223,-54.90044843049327,1.8056872037914629,16.0,-9.462745098039214,7.4705882352941195,-14.55731225296443,-4.482352941176469,-4.482352941176469,-9.18723404255319,8.43103408937442,24.63694832595303,36.20769684856535,562.379066030555,74.26877926331643,2000.7803429914798,1
-10.743920182914154,-57.66174801362088,-40.21742234916101,124.92716742716739,-123.02603207993687,-20.843307638402223,-54.90044843049327,24.677725118483405,55.0,44.325490196078434,16.43529411764706,21.584980237154145,2.4901960784313744,9.462745098039218,-1.6212765957446793,21.94971343019729,368.403323496445,36.20769684856535,562.379066030555,74.26877926331643,2000.7803429914798,1
-10.743920182914154,-57.66174801362088,-40.21742234916101,124.92716742716739,-123.02603207993687,-20.843307638402223,-54.90044843049327,4.213270142180089,-1.0,-22.41176470588235,-2.490196078431371,-10.54150197628459,1.4941176470588253,1.4941176470588253,-16.7531914893617,7.5497699607822195,66.78645306110816,36.20769684856535,562.379066030555,74.26877926331643,2000.7803429914798,1
-10.400748285179796,-57.757850926976914,-40.42901344757824,124.86030186030182,-122.97594004733105,-20.98570427470213,-54.786547085201846,4.213270142180089,-1.0,-22.41176470588235,-2.490196078431371,-10.54150197628459,1.4941176470588253,1.4941176470588253,-16.7531914893617,7.5497699607822195,66.78645306110816,36.19587088657832,574.1134146127387,74.349055411619,1988.6116654465332,1
-10.400748285179796,-57.757850926976914,-40.42901344757824,124.86030186030182,-122.97594004733105,-20.98570427470213,-54.786547085201846,-10.232227488151665,-20.0,-8.466666666666665,9.462745098039218,-8.533596837944668,0.4980392156862763,-4.482352941176469,-11.348936170212765,9.128070552234716,31.616178669911005,36.19587088657832,574.1134146127387,74.349055411619,1988.6116654465332,1
-10.400748285179796,-57.757850926976914,-40.42901344757824,124.86030186030182,-122.97594004733105,-20.98570427470213,-54.786547085201846,-5.417061611374414,14.0,30.380392156862747,8.466666666666669,-1.5059288537549445,-4.482352941176469,-7.470588235294116,-11.348936170212765,10.383990829417765,80.62092208084339,36.19587088657832,574.1134146127387,74.349055411619,1988.6116654465332,1
-10.110372064019954,-57.66174801362088,-40.45924074735213,124.81572481572478,-122.9258480147252,-21.199299229152018,-54.33094170403592,-5.417061611374414,14.0,30.380392156862747,8.466666666666669,-1.5059288537549445,-4.482352941176469,-7.470588235294116,-11.348936170212765,10.383990829417765,80.62092208084339,36.07712027499766,579.6855735507424,74.31223785889927,1986.9332101601908,1
-10.110372064019954,-57.66174801362088,-40.45924074735213,124.81572481572478,-122.9258480147252,-21.199299229152018,-54.33094170403592,-11.436018957345977,-24.0,-63.25098039215686,9.462745098039218,-13.55335968379447,2.4901960784313744,-7.470588235294116,-10.268085106382976,17.741496693930625,375.7235501409746,36.07712027499766,579.6855735507424,74.31223785889927,1986.9332101601908,1
-10.110372064019954,-57.66174801362088,-40.45924074735213,124.81572481572478,-122.9258480147252,-21.199299229152018,-54.33094170403592,-0.6018957345971627,10.0,21.415686274509806,-2.490196078431371,-10.54150197628459,-4.482352941176469,4.482352941176472,-4.863829787234041,7.359726966676239,43.833343613451596,36.07712027499766,579.6855735507424,74.31223785889927,1986.9332101601908,1
-10.400748285179796,-57.27733636019674,-40.45924074735213,124.72657072657069,-122.85905863791743,-21.377295024526916,-54.2170403587445,-0.6018957345971627,10.0,21.415686274509806,-2.490196078431371,-10.54150197628459,-4.482352941176469,4.482352941176472,-4.863829787234041,7.359726966676239,43.833343613451596,36.04577513090956,563.962636449346,74.15438261137318,1988.871743079888,1
-10.400748285179796,-57.27733636019674,-40.45924074735213,124.72657072657069,-122.85905863791743,-21.377295024526916,-54.2170403587445,0.6018957345971501,-2.0,14.443137254901963,-15.439215686274508,15.561264822134383,6.4745098039215705,1.4941176470588253,-5.944680851063828,7.744852724994029,41.8739687745314,36.04577513090956,563.962636449346,74.15438261137318,1988.871743079888,1
-10.400748285179796,-57.27733636019674,-40.45924074735213,124.72657072657069,-122.85905863791743,-21.377295024526916,-54.2170403587445,-13.843601895734604,-9.0,29.3843137254902,-12.450980392156861,-7.529644268774707,-5.478431372549018,-9.462745098039214,-21.07659574468085,13.528289062178182,63.924066540839945,36.04577513090956,563.962636449346,74.15438261137318,1988.871743079888,1
-10.400748285179796,-57.18123344684071,-40.489468047126024,124.68199368199365,-122.7755719169077,-21.59088997897686,-54.10313901345285,-13.843601895734604,-9.0,29.3843137254902,-12.450980392156861,-7.529644268774707,-5.478431372549018,-9.462745098039214,-21.07659574468085,13.528289062178182,63.924066540839945,36.02381659304884,562.0599801720704,74.11756505865345,1987.2248395434265,1
-10.400748285179796,-57.18123344684071,-40.489468047126024,124.68199368199365,-122.7755719169077,-21.59088997897686,-54.10313901345285,-1.8056872037914755,-7.0,-20.419607843137253,-1.4941176470588218,-18.573122529644273,6.4745098039215705,16.43529411764706,-7.025531914893616,9.90348388251176,56.16835476033556,36.02381659304884,562.0599801720704,74.11756505865345,1987.2248395434265,1
-10.400748285179796,-57.18123344684071,-40.489468047126024,124.68199368199365,-122.7755719169077,-21.59088997897686,-54.10313901345285,10.232227488151652,-5.0,2.4901960784313744,10.458823529411767,6.525691699604739,-0.49803921568627274,10.458823529411767,-0.5404255319148916,5.775528384076558,18.706352167011566,36.02381659304884,562.0599801720704,74.11756505865345,1987.2248395434265,1
-10.189565578881728,-57.08513053348467,-40.42901344757824,124.61512811512807,-122.69208519589796,-21.80448493342675,-53.98923766816142,10.232227488151652,-5.0,2.4901960784313744,10.458823529411767,6.525691699604739,-0.49803921568627274,10.458823529411767,-0.5404255319148916,5.775528384076558,18.706352167011566,35.901236519981545,565.1740760324038,74.04309069873034,1987.504785429006,1
-10.189565578881728,-57.08513053348467,-40.42901344757824,124.61512811512807,-122.69208519589796,-21.80448493342675,-53.98923766816142,-3.0094786729857885,-25.0,-26.396078431372548,10.458823529411767,-0.501976284584984,2.4901960784313744,-0.49803921568627274,-10.268085106382976,9.827834664856965,111.37727228159959,35.901236519981545,565.1740760324038,74.04309069873034,1987.504785429006,1
-10.189565578881728,-57.08513053348467,-40.42901344757824,124.61512811512807,-122.69208519589796,-21.80448493342675,-53.98923766816142,10.232227488151652,11.0,7.4705882352941195,17.43137254901961,20.581027667984184,7.4705882352941195,4.482352941176472,-9.18723404255319,10.981923894934168,29.203549016267736,35.901236519981545,565.1740760324038,74.04309069873034,1987.504785429006,1
-10.532737476616088,-57.27733636019674,-40.39878614780435,124.54826254826251,-122.62529581909018,-21.982480728801647,-53.761434977578574,10.232227488151652,11.0,7.4705882352941195,17.43137254901961,20.581027667984184,7.4705882352941195,4.482352941176472,-9.18723404255319,10.981923894934168,29.203549016267736,36.0696199948724,560.3206408814813,74.07479501875453,1981.8995576572847,1
-10.532737476616088,-57.27733636019674,-40.39878614780435,124.54826254826251,-122.62529581909018,-21.982480728801647,-53.761434977578574,9.02843601895734,14.0,-21.415686274509802,-13.44705882352941,6.525691699604739,-11.454901960784312,-10.458823529411763,-5.944680851063828,11.534409894732649,24.450346390327848,36.0696199948724,560.3206408814813,74.07479501875453,1981.8995576572847,1
-10.532737476616088,-57.27733636019674,-40.39878614780435,124.54826254826251,-122.62529581909018,-21.982480728801647,-53.761434977578574,-10.232227488151665,-19.0,-12.450980392156861,15.439215686274512,-1.5059288537549445,-2.490196078431371,-4.482352941176469,-9.18723404255319,9.348516935312377,38.986039635345115,36.0696199948724,560.3206408814813,74.07479501875453,1981.8995576572847,1
-10.32155477031802,-57.229284903518725,-40.474354397239075,124.50368550368546,-122.57520378648434,-22.196075683251536,-53.5336322869955,-10.232227488151665,-19.0,-12.450980392156861,15.439215686274512,-1.5059288537549445,-2.490196078431371,-4.482352941176469,-9.18723404255319,9.348516935312377,38.986039635345115,36.00839802369194,565.0423613101161,74.06910826814776,1977.9168597631287,1
-10.32155477031802,-57.229284903518725,-40.474354397239075,124.50368550368546,-122.57520378648434,-22.196075683251536,-53.5336322869955,-7.82464454976304,-5.0,20.419607843137257,-4.482352941176469,6.525691699604739,5.4784313725490215,3.4862745098039234,-18.914893617021274,9.016487066631965,45.06082792399294,36.00839802369194,565.0423613101161,74.06910826814776,1977.9168597631287,1
-10.32155477031802,-57.229284903518725,-40.474354397239075,124.50368550368546,-122.57520378648434,-22.196075683251536,-53.5336322869955,6.620853080568714,-10.0,-23.4078431372549,-9.462745098039214,-22.588932806324113,-3.48627450980392,1.4941176470588253,0.5404255319148952,9.700148976370572,79.07166884544867,36.00839802369194,565.0423613101161,74.06910826814776,1977.9168597631287,1
-10.083974225732696,-57.565645100264845,-40.474354397239075,124.45910845910842,-122.52511175387852,-22.409670637701424,-53.191928251121226,6.620853080568714,-10.0,-23.4078431372549,-9.462745098039214,-22.588932806324113,-3.48627450980392,1.4941176470588253,0.5404255319148952,9.700148976370572,79.07166884544867,36.04132457441221,578.366082316903,74.16636931887078,1970.0477621448272,1
-10.083974225732696,-57.565645100264845,-40.474354397239075,124.45910845910842,-122.52511175387852,-22.409670637701424,-53.191928251121226,-18.658767772511855,-21.0,23.407843137254904,-2.490196078431371,-9.537549407114629,-7.470588235294116,-3.48627450980392,-18.914893617021274,13.120764094679009,68.96343656936554,36.04132457441221,578.366082316903,74.16636931887078,1970.0477621448272,1
-10.083974225732696,-57.565645100264845,-40.474354397239075,124.45910845910842,-122.52511175387852,-22.409670637701424,-53.191928251121226,-0.6018957345971627,-5.0,6.4745098039215705,-13.44705882352941,-26.604743083003957,0.4980392156862763,4.482352941176472,-14.591489361702127,8.962511120452122,78.07936418014104,36.04132457441221,578.366082316903,74.16636931887078,1970.0477621448272,1
-10.34795260860528,-57.565645100264845,-40.39878614780435,124.41453141453138,-122.47501972127267,-22.587666433076322,-52.96412556053815,-0.6018957345971627,-5.0,6.4745098039215705,-13.44705882352941,-26.604743083003957,0.4980392156862763,4.482352941176472,-14.591489361702127,8.962511120452122,78.07936418014104,36.10412795222482,571.2106878218749,74.12632088753352,1970.3533500791618,1
-10.34795260860528,-57.565645100264845,-40.39878614780435,124.41453141453138,-122.47501972127267,-22.587666433076322,-52.96412556053815,5.417061611374401,1.0,-14.44313725490196,20.419607843137257,25.60079051383399,9.462745098039218,8.466666666666669,-1.6212765957446793,10.80391069796227,77.33860939207976,36.10412795222482,571.2106878218749,74.12632088753352,1970.3533500791618,1
-10.34795260860528,-57.565645100264845,-40.39878614780435,124.41453141453138,-122.47501972127267,-22.587666433076322,-52.96412556053815,-6.620853080568727,0.0,14.443137254901963,-12.450980392156861,4.517786561264819,-2.490196078431371,10.458823529411767,-15.672340425531914,8.331764665283426,33.39158835118333,36.10412795222482,571.2106878218749,74.12632088753352,1970.3533500791618,1
-10.136769902307211,-57.757850926976914,-40.32321789836963,124.39224289224285,-122.45832237707071,-22.765662228451276,-52.508520179372226,-6.620853080568727,0.0,14.443137254901963,-12.450980392156861,4.517786561264819,-2.490196078431371,10.458823529411767,-15.672340425531914,8.331764665283426,33.39158835118333,36.072612909217916,580.4925715698903,74.1577705725298,1968.6182641405635,1
-10.136769902307211,-57.757850926976914,-40.32321789836963,124.39224289224285,-122.45832237707071,-22.765662228451276,-52.508520179372226,-5.417061611374414,-16.0,4.482352941176472,11.454901960784316,22.588932806324106,6.4745098039215705,1.4941176470588253,-7.025531914893616,9.367176085691666,48.35265278845612,36.072612909217916,580.4925715698903,74.1577705725298,1968.6182641405635,1
-10.136769902307211,-57.757850926976914,-40.32321789836963,124.39224289224285,-122.45832237707071,-22.765662228451276,-52.508520179372226,7.824644549763027,9.0,-15.439215686274508,-27.392156862745097,-13.55335968379447,-5.478431372549018,0.4980392156862763,-10.268085106382976,11.18174155964942,64.29461861580938,36.072612909217916,580.4925715698903,74.1577705725298,1968.6182641405635,1
-9.793598004572853,-57.7097994702989,-40.247649648934896,124.4368199368199,-122.44162503286879,-22.943658023826174,-52.0529147982063,7.824644549763027,9.0,-15.439215686274508,-27.392156862745097,-13.55335968379447,-5.478431372549018,0.4980392156862763,-10.268085106382976,11.18174155964942,64.29461861580938,35.91701570793555,588.0563834742134,74.13142301868457,1974.2063884142958,1
-9.793598004572853,-57.7097994702989,-40.247649648934896,124.4368199368199,-122.44162503286879,-22.943658023826174,-52.0529147982063,5.417061611374401,13.0,17.43137254901961,-14.44313725490196,-11.545454545454549,-4.482352941176469,-7.470588235294116,-5.944680851063828,9.966830998535617,22.948240790552,35.91701570793555,588.0563834742134,74.13142301868457,1974.2063884142958,1
-9.793598004572853,-57.7097994702989,-40.247649648934896,124.4368199368199,-122.44162503286879,-22.943658023826174,-52.0529147982063,-5.417061611374414,-4.0,12.450980392156865,-3.48627450980392,6.525691699604739,-0.49803921568627274,-16.435294117647057,-14.591489361702127,7.925603863496924,33.69530801732465,35.91701570793555,588.0563834742134,74.13142301868457,1974.2063884142958,1
-9.899189357721887,-57.902005297010966,-40.20230869927406,124.4368199368199,-122.42492768866683,-23.08605466012608,-51.7112107623318,-5.417061611374414,-4.0,12.450980392156865,-3.48627450980392,6.525691699604739,-0.49803921568627274,-16.435294117647057,-14.591489361702127,7.925603863496924,33.69530801732465,36.00116778466897,589.304773263593,74.18037797770164,1972.6022837056516,1
-9.899189357721887,-57.902005297010966,-40.20230869927406,124.4368199368199,-122.42492768866683,-23.08605466012608,-51.7112107623318,13.84360189573459,2.0,-11.454901960784312,2.4901960784313744,-3.5138339920948654,1.4941176470588253,2.4901960784313744,-1.6212765957446793,4.863515531035002,23.891419071292933,36.00116778466897,589.304773263593,74.18037797770164,1972.6022837056516,1
-9.899189357721887,-57.902005297010966,-40.20230869927406,124.4368199368199,-122.42492768866683,-23.08605466012608,-51.7112107623318,-7.82464454976304,-8.0,6.4745098039215705,22.411764705882355,1.505928853754937,-1.4941176470588218,2.4901960784313744,-14.591489361702127,8.099081375064278,52.611918765895425,36.00116778466897,589.304773263593,74.18037797770164,1972.6022837056516,1
-9.978382872583662,-58.04615966704502,-40.21742234916101,124.39224289224285,-122.4082303444649,-23.264050455501035,-51.25560538116588,-7.82464454976304,-8.0,6.4745098039215705,22.411764705882355,1.505928853754937,-1.4941176470588218,2.4901960784313744,-14.591489361702127,8.099081375064278,52.611918765895425,36.0806549629299,590.4624247963784,74.21860830281629,1967.511174522503,1
-9.978382872583662,-58.04615966704502,-40.21742234916101,124.39224289224285,-122.4082303444649,-23.264050455501035,-51.25560538116588,0.6018957345971501,18.0,3.4862745098039234,-6.474509803921567,-14.55731225296443,-2.490196078431371,-5.478431372549018,-11.348936170212765,7.804694490310028,38.293942282305984,36.0806549629299,590.4624247963784,74.21860830281629,1967.511174522503,1
-9.978382872583662,-58.04615966704502,-40.21742234916101,124.39224289224285,-122.4082303444649,-23.264050455501035,-51.25560538116588,-1.8056872037914755,-6.0,-6.474509803921567,-1.4941176470588218,-0.501976284584984,3.4862745098039234,1.4941176470588253,-4.863829787234041,3.2650641104317044,5.20319139298057,36.0806549629299,590.4624247963784,74.21860830281629,1967.511174522503,1
-10.083974225732696,-58.19031403707907,-40.14185409972628,124.36995436995433,-122.4082303444649,-23.406447091800942,-50.799999999999955,-1.8056872037914755,-6.0,-6.474509803921567,-1.4941176470588218,-0.501976284584984,3.4862745098039234,1.4941176470588253,-4.863829787234041,3.2650641104317044,5.20319139298057,36.13871412084601,590.5738297790645,74.23404083558655,1966.6440959717581,1
-10.083974225732696,-58.19031403707907,-40.14185409972628,124.36995436995433,-122.4082303444649,-23.406447091800942,-50.799999999999955,-5.417061611374414,8.0,22.411764705882355,-5.478431372549018,-21.584980237154152,-0.49803921568627274,-4.482352941176469,-10.268085106382976,9.767589398775709,64.86900246746843,36.13871412084601,590.5738297790645,74.23404083558655,1966.6440959717581,1
-10.083974225732696,-58.19031403707907,-40.14185409972628,124.36995436995433,-122.4082303444649,-23.406447091800942,-50.799999999999955,5.417061611374401,6.0,-12.450980392156861,9.462745098039218,4.517786561264819,-7.470588235294116,-0.49803921568627274,1.621276595744682,5.929809713695046,15.387218992491398,36.13871412084601,590.5738297790645,74.23404083558655,1966.6440959717581,1
-9.661608813136562,-58.094211123723035,-40.005831250743775,124.41453141453138,-122.42492768866683,-23.58444288717584,-50.230493273542606,5.417061611374401,6.0,-12.450980392156861,9.462745098039218,4.517786561264819,-7.470588235294116,-0.49803921568627274,1.621276595744682,5.929809713695046,15.387218992491398,35.92055039586779,598.9463813912688,74.17152459633273,1975.0671722074676,1
-9.661608813136562,-58.094211123723035,-40.005831250743775,124.41453141453138,-122.42492768866683,-23.58444288717584,-50.230493273542606,-6.620853080568727,-26.0,-44.325490196078434,8.466666666666669,-23.592885375494074,-9.462745098039214,1.4941176470588253,-13.510638297872338,16.684174545222284,194.3304712755536,35.92055039586779,598.9463813912688,74.17152459633273,1975.0671722074676,1
-9.661608813136562,-58.094211123723035,-40.005831250743775,124.41453141453138,-122.42492768866683,-23.58444288717584,-50.230493273542606,-3.0094786729857885,2.0,9.462745098039218,0.4980392156862763,27.608695652173907,10.458823529411767,1.4941176470588253,-0.5404255319148916,6.884040668408834,85.41141926743867,35.92055039586779,598.9463813912688,74.17152459633273,1975.0671722074676,1
-10.083974225732696,-58.094211123723035,-39.90003570153516,124.39224289224285,-122.42492768866683,-23.691240364400812,-49.77488789237668,-3.0094786729857885,2.0,9.462745098039218,0.4980392156862763,27.608695652173907,10.458823529411767,1.4941176470588253,-0.5404255319148916,6.884040668408834,85.41141926743867,36.02607368366363,587.5013980372217,74.12882990583368,1977.5650186050807,1
-10.083974225732696,-58.094211123723035,-39.90003570153516,124.39224289224285,-122.42492768866683,-23.691240364400812,-49.77488789237668,0.6018957345971501,-11.0,-25.4,-14.44313725490196,-7.529644268774707,-0.49803921568627274,2.4901960784313744,-5.944680851063828,8.488449175431912,71.02574711611867,36.02607368366363,587.5013980372217,74.12882990583368,1977.5650186050807,1
-10.083974225732696,-58.094211123723035,-39.90003570153516,124.39224289224285,-122.42492768866683,-23.691240364400812,-49.77488789237668,34.30805687203791,60.0,9.462745098039218,1.4941176470588253,-2.509881422924905,1.4941176470588253,3.4862745098039234,0.5404255319148952,14.161952341104811,469.32994396979484,36.02607368366363,587.5013980372217,74.12882990583368,1977.5650186050807,1
-10.506339638328829,-57.7097994702989,-39.88492205164822,124.36995436995433,-122.42492768866683,-23.726839523475803,-49.77488789237668,34.30805687203791,60.0,9.462745098039218,1.4941176470588253,-2.509881422924905,1.4941176470588253,3.4862745098039234,0.5404255319148952,14.161952341104811,469.32994396979484,36.03368705342532,568.1656632857556,73.98822529730047,1983.1705320102012,1
-10.506339638328829,-57.7097994702989,-39.88492205164822,124.36995436995433,-122.42492768866683,-23.726839523475803,-49.77488789237668,0.6018957345971501,0.0,41.33725490196079,-11.454901960784312,11.545454545454541,5.4784313725490215,-17.431372549019606,-7.025531914893616,11.85935537240738,175.95897143408502,36.03368705342532,568.1656632857556,73.98822529730047,1983.1705320102012,1
-10.506339638328829,-57.7097994702989,-39.88492205164822,124.36995436995433,-122.42492768866683,-23.726839523475803,-49.77488789237668,-16.25118483412323,-19.0,-4.482352941176469,5.4784313725490215,-0.501976284584984,-5.478431372549018,-6.474509803921567,-18.914893617021274,9.572722528240696,53.15246316038112,36.03368705342532,568.1656632857556,73.98822529730047,1983.1705320102012,1
-9.899189357721887,-57.565645100264845,-39.794240152326545,124.4368199368199,-122.42492768866683,-23.798037841625728,-49.43318385650218,-16.25118483412323,-19.0,-4.482352941176469,5.4784313725490215,-0.501976284584984,-5.478431372549018,-6.474509803921567,-18.914893617021274,9.572722528240696,53.15246316038112,35.75302487010443,580.2713164819007,73.9322350631371,1991.9905284031738,1
-9.899189357721887,-57.565645100264845,-39.794240152326545,124.4368199368199,-122.42492768866683,-23.798037841625728,-49.43318385650218,3.0094786729857756,13.0,8.466666666666669,-1.4941176470588218,8.53359683794466,2.4901960784313744,-3.48627450980392,-3.782978723404254,5.5329136420369345,16.07958805571399,35.75302487010443,580.2713164819007,73.9322350631371,1991.9905284031738,1
-9.899189357721887,-57.565645100264845,-39.794240152326545,124.4368199368199,-122.42492768866683,-23.798037841625728,-49.43318385650218,-10.232227488151665,-22.0,2.4901960784313744,-12.450980392156861,-4.517786561264826,-0.49803921568627274,0.4980392156862763,-8.106382978723403,7.599206491262584,53.508982965860184,35.75302487010443,580.2713164819007,73.9322350631371,1991.9905284031738,1
-10.400748285179796,-57.66174801362088,-39.86980840176127,124.41453141453138,-122.42492768866683,-23.798037841625728,-49.547085201793834,-10.232227488151665,-22.0,2.4901960784313744,-12.450980392156861,-4.517786561264826,-0.49803921568627274,0.4980392156862763,-8.106382978723403,7.599206491262584,53.508982965860184,35.97743490018732,569.7634524397433,73.98202927663785,1986.716232704492,1
-10.400748285179796,-57.66174801362088,-39.86980840176127,124.41453141453138,-122.42492768866683,-23.798037841625728,-49.547085201793834,17.45497630331753,31.0,-2.490196078431371,7.4705882352941195,27.608695652173907,5.4784313725490215,1.4941176470588253,-8.106382978723403,12.637923533443523,130.0213130573552,35.97743490018732,569.7634524397433,73.98202927663785,1986.716232704492,1
-10.400748285179796,-57.66174801362088,-39.86980840176127,124.41453141453138,-122.42492768866683,-23.798037841625728,-49.547085201793834,-1.8056872037914755,-11.0,-28.388235294117646,8.466666666666669,-1.5059288537549445,-7.470588235294116,1.4941176470588253,-10.268085106382976,8.799913625883333,78.29606926308195,35.97743490018732,569.7634524397433,73.98202927663785,1986.716232704492,1
-10.532737476616088,-57.27733636019674,-39.809353802213494,124.41453141453138,-122.4082303444649,-23.798037841625728,-49.547085201793834,-1.8056872037914755,-11.0,-28.388235294117646,8.466666666666669,-1.5059288537549445,-7.470588235294116,1.4941176470588253,-10.268085106382976,8.799913625883333,78.29606926308195,35.87314254634211,557.8847004848488,73.8337405256472,1995.0949088702732,1
-10.532737476616088,-57.27733636019674,-39.809353802213494,124.41453141453138,-122.4082303444649,-23.798037841625728,-49.547085201793834,3.0094786729857756,4.0,-21.415686274509802,3.4862745098039234,-1.5059288537549445,-7.470588235294116,-4.482352941176469,-10.268085106382976,6.9547993242385004,41.78448446582138,35.87314254634211,557.8847004848488,73.8337405256472,1995.0949088702732,1
-10.532737476616088,-57.27733636019674,-39.809353802213494,124.41453141453138,-122.4082303444649,-23.798037841625728,-49.547085201793834,-4.213270142180101,-3.0,5.4784313725490215,-11.454901960784312,2.5098814229248974,6.4745098039215705,-0.49803921568627274,-8.106382978723403,5.216927112096197,12.061325228402707,35.87314254634211,557.8847004848488,73.8337405256472,1995.0949088702732,1
-10.532737476616088,-57.32538781687476,-39.74889920266571,124.4368199368199,-122.4082303444649,-23.83363700070072,-49.547085201793834,-4.213270142180101,-3.0,5.4784313725490215,-11.454901960784312,2.5098814229248974,6.4745098039215705,-0.49803921568627274,-8.106382978723403,5.216927112096197,12.061325228402707,35.869008165385516,558.6781973123028,73.83703565212012,1997.4868652449682,1
-10.532737476616088,-57.32538781687476,-39.74889920266571,124.4368199368199,-122.4082303444649,-23.83363700070072,-49.547085201793834,-18.658767772511855,-40.0,-11.454901960784312,6.4745098039215705,-1.5059288537549445,-3.48627450980392,5.4784313725490215,-15.672340425531914,12.841394337357192,156.01854272692574,35.869008165385516,558.6781973123028,73.83703565212012,1997.4868652449682,1
-10.532737476616088,-57.32538781687476,-39.74889920266571,124.4368199368199,-122.4082303444649,-23.83363700070072,-49.547085201793834,-11.436018957345977,-20.0,8.466666666666669,-15.439215686274508,-4.517786561264826,1.4941176470588253,-4.482352941176469,-16.7531914893617,10.323668743643623,44.51642290593486,35.869008165385516,558.6781973123028,73.83703565212012,1997.4868652449682,1
-10.717522344626897,-57.18123344684071,-39.93026300130905,124.41453141453138,-122.4082303444649,-23.83363700070072,-49.547085201793834,-11.436018957345977,-20.0,8.466666666666669,-15.439215686274508,-4.517786561264826,1.4941176470588253,-4.482352941176469,-16.7531914893617,10.323668743643623,44.51642290593486,35.943006264258884,551.6427745628606,73.84200928756037,1992.5839910403802,1
-10.717522344626897,-57.18123344684071,-39.93026300130905,124.41453141453138,-122.4082303444649,-23.83363700070072,-49.547085201793834,-3.0094786729857885,-17.0,-17.431372549019606,3.4862745098039234,-9.537549407114629,-2.490196078431371,26.39607843137255,2.7021276595744688,10.256634663537792,81.95653706561363,35.943006264258884,551.6427745628606,73.84200928756037,1992.5839910403802,1
-10.717522344626897,-57.18123344684071,-39.93026300130905,124.41453141453138,-122.4082303444649,-23.83363700070072,-49.547085201793834,4.213270142180089,5.0,-12.450980392156861,6.4745098039215705,-15.56126482213439,-8.466666666666665,-4.482352941176469,-5.944680851063828,7.824215702412484,17.0313071391761,35.943006264258884,551.6427745628606,73.84200928756037,1992.5839910403802,1
-10.95510288921222,-57.80590238365493,-39.85469475187433,124.36995436995433,-122.4082303444649,-23.798037841625728,-49.547085201793834,4.213270142180089,5.0,-12.450980392156861,6.4745098039215705,-15.56126482213439,-8.466666666666665,-4.482352941176469,-5.944680851063828,7.824215702412484,17.0313071391761,36.20523334158049,558.7382797560361,74.01018383516119,1982.6413300975885,1
-10.95510288921222,-57.80590238365493,-39.85469475187433,124.36995436995433,-122.4082303444649,-23.798037841625728,-49.547085201793834,-1.8056872037914755,-1.0,22.411764705882355,5.4784313725490215,10.54150197628458,4.482352941176472,-2.490196078431371,-14.591489361702127,7.850177954977175,56.26942178885843,36.20523334158049,558.7382797560361,74.01018383516119,1982.6413300975885,1
-10.95510288921222,-57.80590238365493,-39.85469475187433,124.36995436995433,-122.4082303444649,-23.798037841625728,-49.547085201793834,-21.06635071090048,-10.0,25.400000000000002,7.4705882352941195,1.505928853754937,0.4980392156862763,-0.49803921568627274,-13.510638297872338,9.993698066149303,90.15286680090723,36.20523334158049,558.7382797560361,74.01018383516119,1982.6413300975885,1
-11.588651008106423,-57.757850926976914,-39.794240152326545,124.30308880308877,-122.44162503286879,-23.65564120532582,-49.88878923766811,-21.06635071090048,-10.0,25.400000000000002,7.4705882352941195,1.505928853754937,0.4980392156862763,-0.49803921568627274,-13.510638297872338,9.993698066149303,90.15286680090723,36.38024736246996,541.6402653640522,73.95172662746408,1982.1175827214806,1
-11.588651008106423,-57.757850926976914,-39.794240152326545,124.30308880308877,-122.44162503286879,-23.65564120532582,-49.88878923766811,3.0094786729857756,10.0,14.443137254901963,3.4862745098039234,-21.584980237154152,-3.48627450980392,-1.4941176470588218,-5.944680851063828,7.931117960346548,48.89018979395007,36.38024736246996,541.6402653640522,73.95172662746408,1982.1175827214806,1
-11.588651008106423,-57.757850926976914,-39.794240152326545,124.30308880308877,-122.44162503286879,-23.65564120532582,-49.88878923766811,3.0094786729857756,-5.0,-8.466666666666665,-14.44313725490196,-10.54150197628459,1.4941176470588253,-2.490196078431371,-3.782978723404254,6.153509627466679,20.75540431413791,36.38024736246996,541.6402653640522,73.95172662746408,1982.1175827214806,1
-11.219081272084805,-57.32538781687476,-39.90003570153516,124.25851175851172,-122.44162503286879,-23.58444288717584,-50.11659192825118,3.0094786729857756,-5.0,-8.466666666666665,-14.44313725490196,-10.54150197628459,1.4941176470588253,-2.490196078431371,-3.782978723404254,6.153509627466679,20.75540431413791,36.14816826349824,542.0052577549865,73.82797842564055,1983.3397432642655,1
-11.219081272084805,-57.32538781687476,-39.90003570153516,124.25851175851172,-122.44162503286879,-23.58444288717584,-50.11659192825118,3.0094786729857756,16.0,17.43137254901961,-3.48627450980392,-15.56126482213439,-6.474509803921567,-1.4941176470588218,-9.18723404255319,9.080531505934658,41.732185471854,36.14816826349824,542.0052577549865,73.82797842564055,1983.3397432642655,1
-11.219081272084805,-57.32538781687476,-39.90003570153516,124.25851175851172,-122.44162503286879,-23.58444288717584,-50.11659192825118,-3.0094786729857885,0.0,3.4862745098039234,6.4745098039215705,0.5019762845849765,3.4862745098039234,-0.49803921568627274,-17.834042553191487,4.411324443747243,34.02275560790379,36.14816826349824,542.0052577549865,73.82797842564055,1983.3397432642655,1
-11.060694242361254,-57.95005675368898,-39.91514935142211,124.21393471393468,-122.45832237707071,-23.54884372810085,-50.00269058295976,-3.0094786729857885,0.0,3.4862745098039234,6.4745098039215705,0.5019762845849765,3.4862745098039234,-0.49803921568627274,-17.834042553191487,4.411324443747243,34.02275560790379,36.30863344915745,559.4082968946425,74.02638027301525,1970.4074368222732,1
-11.060694242361254,-57.95005675368898,-39.91514935142211,124.21393471393468,-122.45832237707071,-23.54884372810085,-50.00269058295976,-9.028436018957352,-6.0,1.4941176470588253,-10.458823529411763,-8.533596837944668,-3.48627450980392,-7.470588235294116,-15.672340425531914,7.76802215050032,18.971859573013116,36.30863344915745,559.4082968946425,74.02638027301525,1970.4074368222732,1
-11.060694242361254,-57.95005675368898,-39.91514935142211,124.21393471393468,-122.45832237707071,-23.54884372810085,-50.00269058295976,7.824644549763027,9.0,11.454901960784316,28.38823529411765,16.565217391304344,6.4745098039215705,2.4901960784313744,-0.5404255319148916,10.342266326279645,78.06440042182133,36.30863344915745,559.4082968946425,74.02638027301525,1970.4074368222732,1
-11.113489918935771,-57.565645100264845,-39.90003570153516,124.16935766935762,-122.47501972127267,-23.477645409950924,-50.11659192825118,7.824644549763027,9.0,11.454901960784316,28.38823529411765,16.565217391304344,6.4745098039215705,2.4901960784313744,-0.5404255319148916,10.342266326279645,78.06440042182133,36.19305690691193,549.7569490854091,73.87834615705255,1974.9078180552233,1
-11.113489918935771,-57.565645100264845,-39.90003570153516,124.16935766935762,-122.47501972127267,-23.477645409950924,-50.11659192825118,-18.658767772511855,-26.0,0.4980392156862763,-12.450980392156861,-28.612648221343875,-1.4941176470588218,-23.4078431372549,-18.914893617021274,16.254661250379236,113.18983118875865,36.19305690691193,549.7569490854091,73.87834615705255,1974.9078180552233,1
-11.113489918935771,-57.565645100264845,-39.90003570153516,124.16935766935762,-122.47501972127267,-23.477645409950924,-50.11659192825118,0.6018957345971501,3.0,-17.431372549019606,1.4941176470588253,4.517786561264819,-0.49803921568627274,-4.482352941176469,-10.268085106382976,5.2867062193982655,34.005258839171766,36.19305690691193,549.7569490854091,73.87834615705255,1974.9078180552233,1
-10.98150072749948,-57.902005297010966,-39.73378555277876,124.1470691470691,-122.50841440967656,-23.37084793272595,-50.11659192825118,0.6018957345971501,3.0,-17.431372549019606,1.4941176470588253,4.517786561264819,-0.49803921568627274,-4.482352941176469,-10.268085106382976,5.2867062193982655,34.005258839171766,36.2057638590964,559.718640067707,73.92761999895295,1974.015856723846,1
-10.98150072749948,-57.902005297010966,-39.73378555277876,124.1470691470691,-122.50841440967656,-23.37084793272595,-50.11659192825118,4.213270142180089,32.0,49.30588235294118,-0.49803921568627274,-7.529644268774707,-2.490196078431371,-5.478431372549018,-9.18723404255319,13.837837184139477,302.6427026364433,36.2057638590964,559.718640067707,73.92761999895295,1974.015856723846,1
-10.98150072749948,-57.902005297010966,-39.73378555277876,124.1470691470691,-122.50841440967656,-23.37084793272595,-50.11659192825118,7.824644549763027,-5.0,-2.490196078431371,-5.478431372549018,0.5019762845849765,0.4980392156862763,-1.4941176470588218,-0.5404255319148916,2.9784788349985476,7.7847329040101885,36.2057638590964,559.718640067707,73.92761999895295,1974.015856723846,1
-11.060694242361254,-57.61369655694286,-39.809353802213494,124.1470691470691,-122.52511175387852,-23.264050455501035,-50.34439461883403,7.824644549763027,-5.0,-2.490196078431371,-5.478431372549018,0.5019762845849765,0.4980392156862763,-1.4941176470588218,-0.5404255319148916,2.9784788349985476,7.7847329040101885,36.161248200505874,551.7770119862681,73.85670650207516,1976.0890864557232,1
-11.060694242361254,-57.61369655694286,-39.809353802213494,124.1470691470691,-122.52511175387852,-23.264050455501035,-50.34439461883403,10.232227488151652,10.0,-5.478431372549018,2.4901960784313744,6.525691699604739,3.4862745098039234,9.462745098039218,-4.863829787234041,6.567424504226746,9.114770905422345,36.161248200505874,551.7770119862681,73.85670650207516,1976.0890864557232,1
-11.060694242361254,-57.61369655694286,-39.809353802213494,124.1470691470691,-122.52511175387852,-23.264050455501035,-50.34439461883403,-1.8056872037914755,-8.0,-1.4941176470588218,-9.462745098039214,3.513833992094858,4.482352941176472,0.4980392156862763,-7.025531914893616,4.535288501592592,10.932909033007864,36.161248200505874,551.7770119862681,73.85670650207516,1976.0890864557232,1
-11.007898565786737,-57.61369655694286,-39.76401285255265,124.1470691470691,-122.55850644228241,-23.192852137351053,-50.45829596412568,-1.8056872037914755,-8.0,-1.4941176470588218,-9.462745098039214,3.513833992094858,4.482352941176472,0.4980392156862763,-7.025531914893616,4.535288501592592,10.932909033007864,36.12853599176075,552.9376206021279,73.84159285218821,1977.6335110278114,1
-11.007898565786737,-57.61369655694286,-39.76401285255265,124.1470691470691,-122.55850644228241,-23.192852137351053,-50.45829596412568,5.417061611374401,0.0,-10.458823529411763,-4.482352941176469,-27.608695652173918,-12.450980392156861,-11.454901960784312,-10.268085106382976,10.267612649182588,67.04963098916976,36.12853599176075,552.9376206021279,73.84159285218821,1977.6335110278114,1
-11.007898565786737,-57.61369655694286,-39.76401285255265,124.1470691470691,-122.55850644228241,-23.192852137351053,-50.45829596412568,-17.45497630331754,-5.0,2.4901960784313744,11.454901960784316,-14.55731225296443,-3.48627450980392,-0.49803921568627274,-22.157446808510635,9.637393391187311,62.761026328277396,36.12853599176075,552.9376206021279,73.84159285218821,1977.6335110278114,1
-11.087092080648514,-57.32538781687476,-39.70355825300487,124.1470691470691,-122.57520378648434,-23.08605466012608,-50.68609865470853,-17.45497630331754,-5.0,2.4901960784313744,11.454901960784316,-14.55731225296443,-3.48627450980392,-0.49803921568627274,-22.157446808510635,9.637393391187311,62.761026328277396,36.03867938350938,544.5685009937355,73.72533840564958,1984.3954175146778,1
-11.087092080648514,-57.32538781687476,-39.70355825300487,124.1470691470691,-122.57520378648434,-23.08605466012608,-50.68609865470853,22.27014218009478,41.0,5.4784313725490215,-10.458823529411763,18.573122529644266,4.482352941176472,8.466666666666669,3.7829787234042573,14.314064742868403,161.18108254244908,36.03867938350938,544.5685009937355,73.72533840564958,1984.3954175146778,1
-11.087092080648514,-57.32538781687476,-39.70355825300487,124.1470691470691,-122.57520378648434,-23.08605466012608,-50.68609865470853,-4.213270142180101,-5.0,23.407843137254904,5.4784313725490215,-3.5138339920948654,3.4862745098039234,0.4980392156862763,-11.348936170212765,7.118328567472732,52.69638538781356,36.03867938350938,544.5685009937355,73.72533840564958,1984.3954175146778,1
-11.271876948659322,-57.32538781687476,-39.597762703796256,124.1470691470691,-122.5919011306863,-22.908058864751183,-51.02780269058303,-4.213270142180101,-5.0,23.407843137254904,5.4784313725490215,-3.5138339920948654,3.4862745098039234,0.4980392156862763,-11.348936170212765,7.118328567472732,52.69638538781356,36.065009156443445,539.5917265419597,73.69007322258004,1987.9985013303926,1
-11.271876948659322,-57.32538781687476,-39.597762703796256,124.1470691470691,-122.5919011306863,-22.908058864751183,-51.02780269058303,-5.417061611374414,-21.0,-25.4,10.458823529411767,9.537549407114621,-2.490196078431371,-11.454901960784312,-14.591489361702127,12.543752743602326,58.20256412939864,36.065009156443445,539.5917265419597,73.69007322258004,1987.9985013303926,1
-11.271876948659322,-57.32538781687476,-39.597762703796256,124.1470691470691,-122.5919011306863,-22.908058864751183,-51.02780269058303,9.02843601895734,12.0,-1.4941176470588218,1.4941176470588253,-3.5138339920948654,-3.48627450980392,-1.4941176470588218,-2.702127659574467,4.4016281402008826,15.573972924520726,36.065009156443445,539.5917265419597,73.69007322258004,1987.9985013303926,1
-11.456661816670131,-57.08513053348467,-39.55242175413542,124.19164619164616,-122.62529581909018,-22.694463910301295,-51.483408071748954,9.02843601895734,12.0,-1.4941176470588218,1.4941176470588253,-3.5138339920948654,-3.48627450980392,-1.4941176470588218,-2.702127659574467,4.4016281402008826,15.573972924520726,36.03140470143008,529.7874601744122,73.60973282642209,1995.746439050643,1
-11.456661816670131,-57.08513053348467,-39.55242175413542,124.19164619164616,-122.62529581909018,-22.694463910301295,-51.483408071748954,-1.8056872037914755,-11.0,-18.427450980392155,-7.470588235294116,-0.501976284584984,4.482352941176472,7.4705882352941195,-9.18723404255319,7.543234740385814,32.14234967414596,36.03140470143008,529.7874601744122,73.60973282642209,1995.746439050643,1
-11.456661816670131,-57.08513053348467,-39.55242175413542,124.19164619164616,-122.62529581909018,-22.694463910301295,-51.483408071748954,6.620853080568714,5.0,2.4901960784313744,-6.474509803921567,-5.521739130434787,-2.490196078431371,3.4862745098039234,-8.106382978723403,5.023768957539392,4.229749629107291,36.03140470143008,529.7874601744122,73.60973282642209,1995.746439050643,1
-11.29827478694658,-56.74877033673855,-39.567535404022365,124.2362232362232,-122.64199316329211,-22.516468114926397,-52.0529147982063,6.620853080568714,5.0,2.4901960784313744,-6.474509803921567,-5.521739130434787,-2.490196078431371,3.4862745098039234,-8.106382978723403,5.023768957539392,4.229749629107291,35.87152684256917,526.6822458951666,73.5175096589947,2003.0896386500028,1
-11.29827478694658,-56.74877033673855,-39.567535404022365,124.2362232362232,-122.64199316329211,-22.516468114926397,-52.0529147982063,11.436018957345965,29.0,26.39607843137255,-1.4941176470588218,8.53359683794466,13.447058823529414,4.482352941176472,-8.106382978723403,12.861950827143911,98.11146284790082,35.87152684256917,526.6822458951666,73.5175096589947,2003.0896386500028,1
-11.29827478694658,-56.74877033673855,-39.567535404022365,124.2362232362232,-122.64199316329211,-22.516468114926397,-52.0529147982063,9.02843601895734,-11.0,-39.345098039215685,-22.41176470588235,-29.616600790513836,-17.431372549019606,-18.427450980392155,4.863829787234044,19.015569108901875,129.18931811052394,35.87152684256917,526.6822458951666,73.5175096589947,2003.0896386500028,1
-11.060694242361254,-56.60461596670449,-39.53730810424848,124.32537732537729,-122.67538785169603,-22.374071478626433,-52.166816143497726,9.02843601895734,-11.0,-39.345098039215685,-22.41176470588235,-29.616600790513836,-17.431372549019606,-18.427450980392155,4.863829787234044,19.015569108901875,129.18931811052394,35.73420610443808,529.4098901239975,73.48910046544341,2011.0685331528489,1
-11.060694242361254,-56.60461596670449,-39.53730810424848,124.32537732537729,-122.67538785169603,-22.374071478626433,-52.166816143497726,-12.63981042654029,-20.0,-28.388235294117646,-5.478431372549018,10.54150197628458,-0.49803921568627274,1.4941176470588253,-11.348936170212765,11.298634012806176,88.1141319013225,35.73420610443808,529.4098901239975,73.48910046544341,2011.0685331528489,1
-11.060694242361254,-56.60461596670449,-39.53730810424848,124.32537732537729,-122.67538785169603,-22.374071478626433,-52.166816143497726,3.0094786729857756,4.0,7.4705882352941195,7.4705882352941195,15.561264822134383,4.482352941176472,5.4784313725490215,-13.510638297872338,7.622917822163279,20.942905475954888,35.73420610443808,529.4098901239975,73.48910046544341,2011.0685331528489,1
-10.770318021201414,-56.700718880060535,-39.62799000357015,124.39224289224285,-122.69208519589796,-22.30287316047651,-52.3946188340808,3.0094786729857756,4.0,7.4705882352941195,7.4705882352941195,15.561264822134383,4.482352941176472,5.4784313725490215,-13.510638297872338,7.622917822163279,20.942905475954888,35.699675634944036,538.9741710979375,73.57365059195784,2009.7665103594768,1
-10.770318021201414,-56.700718880060535,-39.62799000357015,124.39224289224285,-122.69208519589796,-22.30287316047651,-52.3946188340808,-15.047393364928917,-24.0,14.443137254901963,6.4745098039215705,10.54150197628458,-1.4941176470588218,-2.490196078431371,-16.7531914893617,11.405505951861116,58.92702327827518,35.699675634944036,538.9741710979375,73.57365059195784,2009.7665103594768,1
-10.770318021201414,-56.700718880060535,-39.62799000357015,124.39224289224285,-122.69208519589796,-22.30287316047651,-52.3946188340808,-7.82464454976304,-12.0,15.439215686274512,12.450980392156865,1.505928853754937,1.4941176470588253,4.482352941176472,-8.106382978723403,7.912952881113506,26.858273116624268,35.699675634944036,538.9741710979375,73.57365059195784,2009.7665103594768,1
-10.902307212637705,-56.60461596670449,-39.68844460311793,124.4368199368199,-122.67538785169603,-22.231674842326527,-52.62242152466365,-7.82464454976304,-12.0,15.439215686274512,12.450980392156865,1.505928853754937,1.4941176470588253,4.482352941176472,-8.106382978723403,7.912952881113506,26.858273116624268,35.731789260820044,533.9165974863133,73.57662683554743,2011.6086451245988,1
-10.902307212637705,-56.60461596670449,-39.68844460311793,124.4368199368199,-122.67538785169603,-22.231674842326527,-52.62242152466365,0.6018957345971501,16.0,26.39607843137255,6.4745098039215705,4.517786561264819,-2.490196078431371,7.4705882352941195,-10.268085106382976,9.27739249390807,70.61845037125977,35.731789260820044,533.9165974863133,73.57662683554743,2011.6086451245988,1
-10.902307212637705,-56.60461596670449,-39.68844460311793,124.4368199368199,-122.67538785169603,-22.231674842326527,-52.62242152466365,3.0094786729857756,7.0,15.439215686274512,-1.4941176470588218,-2.509881422924905,-0.49803921568627274,9.462745098039218,-10.268085106382976,6.21019535616906,27.378740557048253,35.731789260820044,533.9165974863133,73.57662683554743,2011.6086451245988,1
-10.743920182914154,-56.79682179341657,-39.76401285255265,124.48139698139694,-122.67538785169603,-22.231674842326527,-52.7363228699553,3.0094786729857756,7.0,15.439215686274512,-1.4941176470588218,-2.509881422924905,-0.49803921568627274,9.462745098039218,-10.268085106382976,6.21019535616906,27.378740557048253,35.76825160962779,542.1920176194994,73.68074387578872,2008.0589120712502,1
-10.743920182914154,-56.79682179341657,-39.76401285255265,124.48139698139694,-122.67538785169603,-22.231674842326527,-52.7363228699553,13.84360189573459,23.0,-11.454901960784312,-16.435294117647057,-11.545454545454549,-4.482352941176469,-0.49803921568627274,-1.6212765957446793,10.360115159028492,59.94124080805376,35.76825160962779,542.1920176194994,73.68074387578872,2008.0589120712502,1
-10.743920182914154,-56.79682179341657,-39.76401285255265,124.48139698139694,-122.67538785169603,-22.231674842326527,-52.7363228699553,4.213270142180089,4.0,6.4745098039215705,5.4784313725490215,1.505928853754937,2.4901960784313744,2.4901960784313744,-5.944680851063828,4.074651647541525,3.2672927938479797,35.76825160962779,542.1920176194994,73.68074387578872,2008.0589120712502,1
-10.743920182914154,-56.79682179341657,-39.86980840176127,124.525974025974,-122.65869050749407,-22.196075683251536,-52.850224215246726,4.213270142180089,4.0,6.4745098039215705,5.4784313725490215,1.505928853754937,2.4901960784313744,2.4901960784313744,-5.944680851063828,4.074651647541525,3.2672927938479797,35.80351679269733,542.6184822741119,73.73086807371728,2006.7380371160589,1
-10.743920182914154,-56.79682179341657,-39.86980840176127,124.525974025974,-122.65869050749407,-22.196075683251536,-52.850224215246726,-11.436018957345977,-18.0,-16.435294117647057,-2.490196078431371,-6.525691699604747,-2.490196078431371,-2.490196078431371,-13.510638297872338,9.172278913470528,42.225863927957384,35.80351679269733,542.6184822741119,73.73086807371728,2006.7380371160589,1
-10.743920182914154,-56.79682179341657,-39.86980840176127,124.525974025974,-122.65869050749407,-22.196075683251536,-52.850224215246726,12.639810426540278,14.0,-4.482352941176469,-12.450980392156861,6.525691699604739,4.482352941176472,10.458823529411767,-10.268085106382976,9.413512129556196,14.209460678068004,35.80351679269733,542.6184822741119,73.73086807371728,2006.7380371160589,1
-10.743920182914154,-56.79682179341657,-39.86980840176127,124.525974025974,-122.65869050749407,-22.196075683251536,-52.850224215246726,11.436018957345965,7.0,-19.423529411764704,-13.44705882352941,-7.529644268774707,-1.4941176470588218,0.4980392156862763,-2.702127659574467,7.941316997966794,42.83439391641392,35.80351679269733,542.6184822741119,73.73086807371728,2006.7380371160589,1
-11.034296404073997,-56.50851305334846,-39.794240152326545,124.45910845910842,-122.1577701814357,-22.124877365101554,-56.49506726457412,11.436018957345965,7.0,-19.423529411764704,-13.44705882352941,-7.529644268774707,-1.4941176470588218,0.4980392156862763,-2.702127659574467,7.941316997966794,42.83439391641392,35.77901653658299,529.0676104796062,73.58728722159448,2010.7983766686402,1
-11.034296404073997,-56.50851305334846,-39.794240152326545,124.45910845910842,-122.1577701814357,-22.124877365101554,-56.49506726457412,-0.6018957345971627,2.0,45.321568627450986,22.411764705882355,14.557312252964422,-0.49803921568627274,1.4941176470588253,7.0255319148936195,11.738778762316706,246.00807331943983,35.77901653658299,529.0676104796062,73.58728722159448,2010.7983766686402,1
-11.034296404073997,-56.50851305334846,-39.794240152326545,124.45910845910842,-122.1577701814357,-22.124877365101554,-56.49506726457412,-5.417061611374414,-1.0,35.36078431372549,19.423529411764708,16.565217391304344,6.4745098039215705,-0.49803921568627274,-9.18723404255319,11.740796973791248,136.60166096998594,35.77901653658299,529.0676104796062,73.58728722159448,2010.7983766686402,1
-11.64144668468094,-56.556564510026476,-39.71867190289182,124.36995436995433,-122.1243754930318,-22.018079887876638,-56.95067264574004,-5.417061611374414,-1.0,35.36078431372549,19.423529411764708,16.565217391304344,6.4745098039215705,-0.49803921568627274,-9.18723404255319,11.740796973791248,136.60166096998594,35.97222769919975,514.8688354447015,73.54839692762421,2008.0016825103953,1
-11.64144668468094,-56.556564510026476,-39.71867190289182,124.36995436995433,-122.1243754930318,-22.018079887876638,-56.95067264574004,-5.417061611374414,-2.0,21.415686274509806,4.482352941176472,-1.5059288537549445,-1.4941176470588218,-1.4941176470588218,-25.4,7.90115812186666,94.93340892344122,35.97222769919975,514.8688354447015,73.54839692762421,2008.0016825103953,1
-11.64144668468094,-56.556564510026476,-39.71867190289182,124.36995436995433,-122.1243754930318,-22.018079887876638,-56.95067264574004,3.0094786729857756,2.0,1.4941176470588253,5.4784313725490215,-13.55335968379447,-1.4941176470588218,1.4941176470588253,1.621276595744682,3.768112408281303,17.50000890904429,35.97222769919975,514.8688354447015,73.54839692762421,2008.0016825103953,1
-12.222199127000623,-57.27733636019674,-39.612876353683205,124.25851175851172,-122.1243754930318,-21.76888577435176,-57.634080717488814,3.0094786729857756,2.0,1.4941176470588253,5.4784313725490215,-13.55335968379447,-1.4941176470588218,1.4941176470588253,1.621276595744682,3.768112408281303,17.50000890904429,36.37080394696019,515.37462289336,73.71624149079723,1993.8990996914517,1
-12.222199127000623,-57.27733636019674,-39.612876353683205,124.25851175851172,-122.1243754930318,-21.76888577435176,-57.634080717488814,-5.417061611374414,-1.0,25.400000000000002,5.4784313725490215,1.505928853754937,4.482352941176472,1.4941176470588253,-11.348936170212765,7.015853574515805,66.44717215906392,36.37080394696019,515.37462289336,73.71624149079723,1993.8990996914517,1
-12.222199127000623,-57.27733636019674,-39.612876353683205,124.25851175851172,-122.1243754930318,-21.76888577435176,-57.634080717488814,-16.25118483412323,-16.0,16.43529411764706,6.4745098039215705,-7.529644268774707,-6.474509803921567,-9.462745098039214,-23.238297872340425,12.733273224845972,37.60372215832825,36.37080394696019,515.37462289336,73.71624149079723,1993.8990996914517,1
-12.723758054458532,-58.094211123723035,-39.4768535047007,124.08020358020354,-122.19116486983958,-21.412894183601907,-58.20358744394616,-16.25118483412323,-16.0,16.43529411764706,6.4745098039215705,-7.529644268774707,-6.474509803921567,-9.462745098039214,-23.238297872340425,12.733273224845972,37.60372215832825,36.76494089429409,520.135355432445,73.88375606954243,1976.4140081965597,1
-12.723758054458532,-58.094211123723035,-39.4768535047007,124.08020358020354,-122.19116486983958,-21.412894183601907,-58.20358744394616,4.213270142180089,17.0,10.458823529411767,-6.474509803921567,-24.596837944664035,-2.490196078431371,-0.49803921568627274,-12.429787234042552,9.770182993542207,65.76561048886529,36.76494089429409,520.135355432445,73.88375606954243,1976.4140081965597,1
-12.723758054458532,-58.094211123723035,-39.4768535047007,124.08020358020354,-122.19116486983958,-21.412894183601907,-58.20358744394616,-4.213270142180101,-11.0,-36.35686274509804,-2.490196078431371,31.62450592885375,12.450980392156865,8.466666666666669,-11.348936170212765,14.743927265449944,154.76087791498307,36.76494089429409,520.135355432445,73.88375606954243,1976.4140081965597,1
-12.301392641862398,-58.622777147181225,-39.41639890515292,123.94647244647241,-122.3080462792532,-21.163700070077027,-58.317488789237814,-4.213270142180101,-11.0,-36.35686274509804,-2.490196078431371,31.62450592885375,12.450980392156865,8.466666666666669,-11.348936170212765,14.743927265449944,154.76087791498307,36.780189564732176,541.6298653872889,73.99521616626885,1963.5672442718965,1
-12.301392641862398,-58.622777147181225,-39.41639890515292,123.94647244647241,-122.3080462792532,-21.163700070077027,-58.317488789237814,-9.028436018957352,-16.0,-0.49803921568627274,4.482352941176472,-30.620553359683797,-9.462745098039214,-5.478431372549018,-15.672340425531914,11.405362303953005,88.57016731196894,36.780189564732176,541.6298653872889,73.99521616626885,1963.5672442718965,1
-12.301392641862398,-58.622777147181225,-39.41639890515292,123.94647244647241,-122.3080462792532,-21.163700070077027,-58.317488789237814,13.84360189573459,28.0,18.42745098039216,-0.49803921568627274,0.5019762845849765,4.482352941176472,3.4862745098039234,0.5404255319148952,8.722515169911661,105.65653954582922,36.780189564732176,541.6298653872889,73.99521616626885,1963.5672442718965,1
-12.486177509873206,-58.95913734392735,-39.174580506961796,123.81274131274128,-122.45832237707071,-20.807708479327232,-58.317488789237814,13.84360189573459,28.0,18.42745098039216,-0.49803921568627274,0.5019762845849765,4.482352941176472,3.4862745098039234,0.5404255319148952,8.722515169911661,105.65653954582922,36.873298453587445,543.9059232512896,73.98215305454347,1960.172816927311,1
-12.486177509873206,-58.95913734392735,-39.174580506961796,123.81274131274128,-122.45832237707071,-20.807708479327232,-58.317488789237814,4.213270142180089,-14.0,-29.384313725490195,5.4784313725490215,4.517786561264819,2.4901960784313744,3.4862745098039234,-3.782978723404254,8.41915638914046,84.74595773941827,36.873298453587445,543.9059232512896,73.98215305454347,1960.172816927311,1
-12.486177509873206,-58.95913734392735,-39.174580506961796,123.81274131274128,-122.45832237707071,-20.807708479327232,-58.317488789237814,6.620853080568714,16.0,7.4705882352941195,-11.454901960784312,-6.525691699604747,1.4941176470588253,1.4941176470588253,-7.025531914893616,7.260725273157895,23.074662431537913,36.873298453587445,543.9059232512896,73.98215305454347,1960.172816927311,1
-11.799833714404489,-58.814982973893294,-38.79673925978817,123.8350298350298,-122.65869050749407,-20.41611772950239,-58.20358744394616,6.620853080568714,16.0,7.4705882352941195,-11.454901960784312,-6.525691699604747,1.4941176470588253,1.4941176470588253,-7.025531914893616,7.260725273157895,23.074662431537913,36.470518649361985,556.6645417192814,73.81558402290375,1976.641239863488,1
-11.799833714404489,-58.814982973893294,-38.79673925978817,123.8350298350298,-122.65869050749407,-20.41611772950239,-58.20358744394616,-4.213270142180101,-13.0,-11.454901960784312,11.454901960784316,6.525691699604739,-0.49803921568627274,-0.49803921568627274,-11.348936170212765,7.374222545617347,26.57528977279915,36.470518649361985,556.6645417192814,73.81558402290375,1976.641239863488,1
-11.799833714404489,-58.814982973893294,-38.79673925978817,123.8350298350298,-122.65869050749407,-20.41611772950239,-58.20358744394616,-5.417061611374414,-6.0,-3.48627450980392,7.4705882352941195,-22.588932806324113,-14.44313725490196,-4.482352941176469,-11.348936170212765,9.40466044113597,41.925884301900986,36.470518649361985,556.6645417192814,73.81558402290375,1976.641239863488,1
-10.585533153190605,-58.33446840711312,-38.5398072117101,124.03562653562649,-122.87575598211936,-20.166923615977566,-57.634080717488814,-5.417061611374414,-6.0,-3.48627450980392,7.4705882352941195,-22.588932806324113,-14.44313725490196,-4.482352941176469,-11.348936170212765,9.40466044113597,41.925884301900986,35.81993625733794,575.5384779771492,73.63663405148324,2003.0009855227445,1
-10.585533153190605,-58.33446840711312,-38.5398072117101,124.03562653562649,-122.87575598211936,-20.166923615977566,-57.634080717488814,-6.620853080568727,-17.0,-4.482352941176469,-2.490196078431371,-9.537549407114629,-5.478431372549018,-10.458823529411763,-12.429787234042552,8.562249205411817,22.499432509715536,35.81993625733794,575.5384779771492,73.63663405148324,2003.0009855227445,1
-10.585533153190605,-58.33446840711312,-38.5398072117101,124.03562653562649,-122.87575598211936,-20.166923615977566,-57.634080717488814,9.02843601895734,-9.0,-10.458823529411763,-2.490196078431371,3.513833992094858,2.4901960784313744,5.4784313725490215,3.7829787234042573,5.780361974159998,10.524612973827763,35.81993625733794,575.5384779771492,73.63663405148324,2003.0009855227445,1
-10.083974225732696,-57.757850926976914,-38.207306914197304,124.25851175851172,-123.05942676834078,-19.917729502452687,-57.17847533632289,9.02843601895734,-9.0,-10.458823529411763,-2.490196078431371,3.513833992094858,2.4901960784313744,5.4784313725490215,3.7829787234042573,5.780361974159998,10.524612973827763,35.349710688968976,574.3240220711884,73.40788986656197,2034.8952528974364,1
-10.083974225732696,-57.757850926976914,-38.207306914197304,124.25851175851172,-123.05942676834078,-19.917729502452687,-57.17847533632289,-15.047393364928917,-14.0,17.43137254901961,6.4745098039215705,22.588932806324106,3.4862745098039234,-3.48627450980392,-13.510638297872338,12.0031744802093,47.52742069484186,35.349710688968976,574.3240220711884,73.40788986656197,2034.8952528974364,1
-10.083974225732696,-57.757850926976914,-38.207306914197304,124.25851175851172,-123.05942676834078,-19.917729502452687,-57.17847533632289,-0.6018957345971627,13.0,15.439215686274512,-1.4941176470588218,-17.569169960474312,-3.48627450980392,-6.474509803921567,-26.480851063829785,10.56825430074501,82.92066408967337,35.349710688968976,574.3240220711884,73.40788986656197,2034.8952528974364,1
-10.136769902307211,-57.32538781687476,-38.025943115553964,124.50368550368546,-123.22640021036023,-19.632936229852817,-57.064573991031466,-0.6018957345971627,13.0,15.439215686274512,-1.4941176470588218,-17.569169960474312,-3.48627450980392,-6.474509803921567,-26.480851063829785,10.56825430074501,82.92066408967337,35.16270027824532,562.8400348308109,73.28500547870472,2060.632029070855,1
-10.136769902307211,-57.32538781687476,-38.025943115553964,124.50368550368546,-123.22640021036023,-19.632936229852817,-57.064573991031466,-0.6018957345971627,8.0,6.4745098039215705,6.4745098039215705,-10.54150197628459,0.4980392156862763,8.466666666666669,-1.6212765957446793,5.334799974602815,15.172056563718431,35.16270027824532,562.8400348308109,73.28500547870472,2060.632029070855,1
-10.136769902307211,-57.32538781687476,-38.025943115553964,124.50368550368546,-123.22640021036023,-19.632936229852817,-57.064573991031466,-1.8056872037914755,-9.0,-8.466666666666665,-21.415686274509802,-1.5059288537549445,8.466666666666669,5.4784313725490215,-7.025531914893616,7.895574869104024,38.45418919564661,35.16270027824532,562.8400348308109,73.28500547870472,2060.632029070855,1
-10.374350446892537,-57.037079076806656,-38.056170415327855,124.70428220428217,-123.34328161977385,-19.312543798177956,-57.292376681614314,-1.8056872037914755,-9.0,-8.466666666666665,-21.415686274509802,-1.5059288537549445,8.466666666666669,5.4784313725490215,-7.025531914893616,7.895574869104024,38.45418919564661,35.15586664634235,550.6613822615454,73.26584389880556,2074.5034248835927,1
-10.374350446892537,-57.037079076806656,-38.056170415327855,124.70428220428217,-123.34328161977385,-19.312543798177956,-57.292376681614314,-5.417061611374414,3.0,5.4784313725490215,-10.458823529411763,-33.63241106719368,-8.466666666666665,-4.482352941176469,-10.268085106382976,10.150479036844374,97.40507675478996,35.15586664634235,550.6613822615454,73.26584389880556,2074.5034248835927,1
-10.374350446892537,-57.037079076806656,-38.056170415327855,124.70428220428217,-123.34328161977385,-19.312543798177956,-57.292376681614314,-6.620853080568727,-17.0,-3.48627450980392,12.450980392156865,0.5019762845849765,-1.4941176470588218,-1.4941176470588218,-9.18723404255319,6.529444200473165,35.438515755822515,35.15586664634235,550.6613822615454,73.26584389880556,2074.5034248835927,1
-11.113489918935771,-57.565645100264845,-38.13173866476258,124.79343629343626,-123.49355771759136,-18.92095304835317,-57.52017937219739,-6.620853080568727,-17.0,-3.48627450980392,12.450980392156865,0.5019762845849765,-1.4941176470588218,-1.4941176470588218,-9.18723404255319,6.529444200473165,35.438515755822515,35.60362456132106,544.2442009375843,73.4969400194879,2067.9170773233627,1
-11.113489918935771,-57.565645100264845,-38.13173866476258,124.79343629343626,-123.49355771759136,-18.92095304835317,-57.52017937219739,15.047393364928904,19.0,-7.470588235294116,-15.439215686274508,16.565217391304344,5.4784313725490215,5.4784313725490215,-13.510638297872338,12.248739465096532,28.331480548797906,35.60362456132106,544.2442009375843,73.4969400194879,2067.9170773233627,1
-11.113489918935771,-57.565645100264845,-38.13173866476258,124.79343629343626,-123.49355771759136,-18.92095304835317,-57.52017937219739,-15.047393364928917,-22.0,39.345098039215685,5.4784313725490215,-15.56126482213439,-4.482352941176469,-4.482352941176469,-9.18723404255319,14.448015940466767,140.7505554522954,35.60362456132106,544.2442009375843,73.4969400194879,2067.9170773233627,1
-11.483059654957389,-57.757850926976914,-38.237534213971195,124.8380133380133,-123.64383381540887,-18.564961457603317,-57.634080717488814,-15.047393364928917,-22.0,39.345098039215685,5.4784313725490215,-15.56126482213439,-4.482352941176469,-4.482352941176469,-9.18723404255319,14.448015940466767,140.7505554522954,35.82614826530183,539.7001634623238,73.61113282632047,2063.4056563634535,1
-11.483059654957389,-57.757850926976914,-38.237534213971195,124.8380133380133,-123.64383381540887,-18.564961457603317,-57.634080717488814,7.824644549763027,-7.0,-42.33333333333333,-23.4078431372549,-18.573122529644273,-1.4941176470588218,2.4901960784313744,-8.106382978723403,13.903705031776141,188.98099634938353,35.82614826530183,539.7001634623238,73.61113282632047,2063.4056563634535,1
-11.483059654957389,-57.757850926976914,-38.237534213971195,124.8380133380133,-123.64383381540887,-18.564961457603317,-57.634080717488814,5.417061611374401,15.0,13.447058823529414,30.380392156862747,12.549407114624502,0.4980392156862763,-2.490196078431371,-10.268085106382976,11.25628001336146,87.69653820656525,35.82614826530183,539.7001634623238,73.61113282632047,2063.4056563634535,1
-12.27499480357514,-57.42149073023079,-38.34332976317981,124.8380133380133,-123.79410991322638,-18.10217238962855,-58.08968609865474,5.417061611374401,15.0,13.447058823529414,30.380392156862747,12.549407114624502,0.4980392156862763,-2.490196078431371,-10.268085106382976,11.25628001336146,87.69653820656525,36.01327176566192,513.6234013177317,73.53427794380796,2065.0490055201544,1
-12.27499480357514,-57.42149073023079,-38.34332976317981,124.8380133380133,-123.79410991322638,-18.10217238962855,-58.08968609865474,-4.213270142180101,-10.0,0.4980392156862763,11.454901960784316,10.54150197628458,2.4901960784313744,-2.490196078431371,-9.18723404255319,6.359417436793901,19.08680464086736,36.01327176566192,513.6234013177317,73.53427794380796,2065.0490055201544,1
-12.27499480357514,-57.42149073023079,-38.34332976317981,124.8380133380133,-123.79410991322638,-18.10217238962855,-58.08968609865474,-10.232227488151665,-8.0,9.462745098039218,-12.450980392156861,-0.501976284584984,-0.49803921568627274,5.4784313725490215,-10.268085106382976,7.111560619693875,20.660198087325853,36.01327176566192,513.6234013177317,73.53427794380796,2065.0490055201544,1
-13.040532113905632,-56.98902762012864,-38.35844341306676,124.8380133380133,-123.92768866684196,-17.496986685353875,-59.000896860986586,-10.232227488151665,-8.0,9.462745098039218,-12.450980392156861,-0.501976284584984,-0.49803921568627274,5.4784313725490215,-10.268085106382976,7.111560619693875,20.660198087325853,36.129334382367006,486.59425961818636,73.39516145706956,2071.549924207643,1
-13.040532113905632,-56.98902762012864,-38.35844341306676,124.8380133380133,-123.92768866684196,-17.496986685353875,-59.000896860986586,-1.8056872037914755,-3.0,12.450980392156865,-0.49803921568627274,1.505928853754937,-0.49803921568627274,-1.4941176470588218,-4.863829787234041,3.2645777894210855,15.811544204870208,36.129334382367006,486.59425961818636,73.39516145706956,2071.549924207643,1
-13.040532113905632,-56.98902762012864,-38.35844341306676,124.8380133380133,-123.92768866684196,-17.496986685353875,-59.000896860986586,1.8056872037914629,-17.0,-54.28627450980392,0.4980392156862763,7.5296442687747,-2.490196078431371,2.4901960784313744,-10.268085106382976,12.04601530766276,321.883934105258,36.129334382367006,486.59425961818636,73.39516145706956,2071.549924207643,1
-14.598004572853876,-57.037079076806656,-38.22242056408425,124.77114777114772,-124.09466210886143,-16.571408549404282,-60.70941704035886,1.8056872037914629,-17.0,-54.28627450980392,0.4980392156862763,7.5296442687747,-2.490196078431371,2.4901960784313744,-10.268085106382976,12.04601530766276,321.883934105258,36.61916807124826,452.19657510485234,73.34354913734622,2072.0962696671268,1
-14.598004572853876,-57.037079076806656,-38.22242056408425,124.77114777114772,-124.09466210886143,-16.571408549404282,-60.70941704035886,17.45497630331753,21.0,-0.49803921568627274,-24.40392156862745,0.5019762845849765,0.4980392156862763,0.4980392156862763,-8.106382978723403,9.120171847789024,106.07383768293936,36.61916807124826,452.19657510485234,73.34354913734622,2072.0962696671268,1
-14.598004572853876,-57.037079076806656,-38.22242056408425,124.77114777114772,-124.09466210886143,-16.571408549404282,-60.70941704035886,0.6018957345971501,4.0,12.450980392156865,-3.48627450980392,9.537549407114621,-1.4941176470588218,8.466666666666669,-12.429787234042552,6.558408948930074,22.688966998868217,36.61916807124826,452.19657510485234,73.34354913734622,2072.0962696671268,1
-15.17875701517356,-57.757850926976914,-38.041056765440906,124.72657072657069,-124.36181961609256,-15.467834618079848,-62.190134529148054,0.6018957345971501,4.0,12.450980392156865,-3.48627450980392,9.537549407114621,-1.4941176470588218,8.466666666666669,-12.429787234042552,6.558408948930074,22.688966998868217,36.99255490253046,454.06932670493745,73.5084928063295,2064.656622385018,1
-15.17875701517356,-57.757850926976914,-38.041056765440906,124.72657072657069,-124.36181961609256,-15.467834618079848,-62.190134529148054,-9.028436018957352,-20.0,-9.462745098039214,7.4705882352941195,-14.55731225296443,-8.466666666666665,-7.470588235294116,-10.268085106382976,10.84055270169986,18.795467443074447,36.99255490253046,454.06932670493745,73.5084928063295,2064.656622385018,1
-15.17875701517356,-57.757850926976914,-38.041056765440906,124.72657072657069,-124.36181961609256,-15.467834618079848,-62.190134529148054,10.232227488151652,25.0,-5.478431372549018,-4.482352941176469,-11.545454545454549,0.4980392156862763,0.4980392156862763,-2.702127659574467,7.554584054784838,66.3320509009045,36.99255490253046,454.06932670493745,73.5084928063295,2064.656622385018,1
-16.26106838495115,-57.61369655694286,-38.056170415327855,124.68199368199365,-124.64567446752562,-14.18626489138046,-64.12645739910317,10.232227488151652,25.0,-5.478431372549018,-4.482352941176469,-11.545454545454549,0.4980392156862763,0.4980392156862763,-2.702127659574467,7.554584054784838,66.3320509009045,37.31031178574062,427.92719300424795,73.45062021808813,2064.114427443611,1
-16.26106838495115,-57.61369655694286,-38.056170415327855,124.68199368199365,-124.64567446752562,-14.18626489138046,-64.12645739910317,-16.25118483412323,-7.0,30.380392156862747,19.423529411764708,7.5296442687747,0.4980392156862763,6.4745098039215705,-19.99574468085106,13.444130546498036,95.15403287636477,37.31031178574062,427.92719300424795,73.45062021808813,2064.114427443611,1
-16.26106838495115,-57.61369655694286,-38.056170415327855,124.68199368199365,-124.64567446752562,-14.18626489138046,-64.12645739910317,-1.8056872037914755,-6.0,-0.49803921568627274,15.439215686274512,-0.501976284584984,-1.4941176470588218,0.4980392156862763,-9.18723404255319,4.428038661954441,29.736485622577757,37.31031178574062,427.92719300424795,73.45062021808813,2064.114427443611,1
-16.762627312409062,-58.430571320469156,-38.94787575865762,124.45910845910842,-124.86273994215091,-12.94029432375612,-66.29058295964137,-1.8056872037914755,-6.0,-0.49803921568627274,15.439215686274512,-0.501976284584984,-1.4941176470588218,0.4980392156862763,-9.18723404255319,4.428038661954441,29.736485622577757,38.047024797178615,434.663038805806,73.94585184607841,2008.5856768289236,1
-16.762627312409062,-58.430571320469156,-38.94787575865762,124.45910845910842,-124.86273994215091,-12.94029432375612,-66.29058295964137,-16.25118483412323,-34.0,-8.466666666666665,6.4745098039215705,2.5098814229248974,0.4980392156862763,-4.482352941176469,-14.591489361702127,10.909265530775155,117.3083903271616,38.047024797178615,434.663038805806,73.94585184607841,2008.5856768289236,1
-16.762627312409062,-58.430571320469156,-38.94787575865762,124.45910845910842,-124.86273994215091,-12.94029432375612,-66.29058295964137,-3.0094786729857885,2.0,10.458823529411767,-23.4078431372549,2.5098814229248974,-0.49803921568627274,-0.49803921568627274,-10.268085106382976,6.581273787541609,62.299273876856695,38.047024797178615,434.663038805806,73.94585184607841,2008.5856768289236,1
-14.756391602577427,-59.776012107453646,-40.15696774961323,124.10249210249206,-124.94622666316064,-12.263910301331407,-67.65739910313914,-3.0094786729857885,2.0,10.458823529411767,-23.4078431372549,2.5098814229248974,-0.49803921568627274,-0.49803921568627274,-10.268085106382976,6.581273787541609,62.299273876856695,38.229790486548104,509.4770667532242,74.67849065318632,1928.27566482446,1
-14.756391602577427,-59.776012107453646,-40.15696774961323,124.10249210249206,-124.94622666316064,-12.263910301331407,-67.65739910313914,10.232227488151652,7.0,-28.388235294117646,28.38823529411765,-0.501976284584984,-1.4941176470588218,4.482352941176472,1.621276595744682,10.263552693118989,135.4232239921344,38.229790486548104,509.4770667532242,74.67849065318632,1928.27566482446,1
-14.756391602577427,-59.776012107453646,-40.15696774961323,124.10249210249206,-124.94622666316064,-12.263910301331407,-67.65739910313914,15.047393364928904,27.0,-0.49803921568627274,-9.462745098039214,-20.581027667984195,-2.490196078431371,2.4901960784313744,1.621276595744682,9.898859262405752,99.9893868632449,38.229790486548104,509.4770667532242,74.67849065318632,1928.27566482446,1
-12.90854292246934,-59.29549754067347,-41.39628704034273,123.65672165672161,-124.84604259794898,-12.157112824106491,-68.34080717488791,15.047393364928904,27.0,-0.49803921568627274,-9.462745098039214,-20.581027667984195,-2.490196078431371,2.4901960784313744,1.621276595744682,9.898859262405752,99.9893868632449,37.86677583449518,547.280476701985,74.78283541257927,1871.5880015878124,1
-12.90854292246934,-59.29549754067347,-41.39628704034273,123.65672165672161,-124.84604259794898,-12.157112824106491,-68.34080717488791,-6.620853080568727,-7.0,-19.423529411764704,-10.458823529411763,12.549407114624502,5.4784313725490215,-0.49803921568627274,-18.914893617021274,10.117997167703283,43.71818847060568,37.86677583449518,547.280476701985,74.78283541257927,1871.5880015878124,1
-12.90854292246934,-59.29549754067347,-41.39628704034273,123.65672165672161,-124.84604259794898,-12.157112824106491,-68.34080717488791,4.213270142180089,-7.0,1.4941176470588253,7.4705882352941195,21.584980237154145,1.4941176470588253,-1.4941176470588218,-5.944680851063828,6.336984050858582,44.17859483924436,37.86677583449518,547.280476701985,74.78283541257927,1871.5880015878124,1
-11.139887757223029,-58.04615966704502,-42.061287635368316,123.27781677781674,-124.61227977912174,-12.513104414856286,-68.79641255605384,4.213270142180089,-7.0,1.4941176470588253,7.4705882352941195,21.584980237154145,1.4941176470588253,-1.4941176470588218,-5.944680851063828,6.336984050858582,44.17859483924436,37.08244501987879,568.6412414618998,74.46175469341001,1851.1349715387578,1
-11.139887757223029,-58.04615966704502,-42.061287635368316,123.27781677781674,-124.61227977912174,-12.513104414856286,-68.79641255605384,-10.232227488151665,-14.0,-13.44705882352941,-19.423529411764704,-23.592885375494074,-2.490196078431371,-2.490196078431371,-10.268085106382976,11.993022295273196,54.656380013467356,37.08244501987879,568.6412414618998,74.46175469341001,1851.1349715387578,1
-11.139887757223029,-58.04615966704502,-42.061287635368316,123.27781677781674,-124.61227977912174,-12.513104414856286,-68.79641255605384,10.232227488151652,8.0,-27.392156862745097,-10.458823529411763,-3.5138339920948654,1.4941176470588253,0.4980392156862763,-11.348936170212765,9.117266863170155,72.43501403871302,37.08244501987879,568.6412414618998,74.46175469341001,1851.1349715387578,1
-9.50322178341301,-57.46954218690881,-42.16708318457693,123.05493155493151,-124.31172758348671,-13.047091800981036,-69.02421524663691,10.232227488151652,8.0,-27.392156862745097,-10.458823529411763,-3.5138339920948654,1.4941176470588253,0.4980392156862763,-11.348936170212765,9.117266863170155,72.43501403871302,36.37994905163291,600.3101643672186,74.23051897547242,1846.4087606764447,1
-9.50322178341301,-57.46954218690881,-42.16708318457693,123.05493155493151,-124.31172758348671,-13.047091800981036,-69.02421524663691,-1.8056872037914755,1.0,-2.490196078431371,-4.482352941176469,-7.529644268774707,-5.478431372549018,-3.48627450980392,-7.025531914893616,4.1622647861775715,5.739778176733198,36.37994905163291,600.3101643672186,74.23051897547242,1846.4087606764447,1
-9.50322178341301,-57.46954218690881,-42.16708318457693,123.05493155493151,-124.31172758348671,-13.047091800981036,-69.02421524663691,-10.232227488151665,-26.0,-7.470588235294116,-4.482352941176469,-0.501976284584984,4.482352941176472,-3.48627450980392,-14.591489361702127,8.90590772023622,66.783893871272,36.37994905163291,600.3101643672186,74.23051897547242,1846.4087606764447,1
-9.872791519434628,-57.27733636019674,-41.63810543853385,122.87662337662334,-124.04457007625558,-13.367484232655897,-69.82152466367711,-10.232227488151665,-26.0,-7.470588235294116,-4.482352941176469,-0.501976284584984,4.482352941176472,-3.48627450980392,-14.591489361702127,8.90590772023622,66.783893871272,36.262744439388406,583.4685972933069,73.93068839178464,1857.9247996103168,1
-9.872791519434628,-57.27733636019674,-41.63810543853385,122.87662337662334,-124.04457007625558,-13.367484232655897,-69.82152466367711,-4.213270142180101,2.0,1.4941176470588253,-16.435294117647057,-12.54940711462451,-4.482352941176469,-0.49803921568627274,-5.944680851063828,5.9521452536796335,31.977862985689,36.262744439388406,583.4685972933069,73.93068839178464,1857.9247996103168,1
-9.872791519434628,-57.27733636019674,-41.63810543853385,122.87662337662334,-124.04457007625558,-13.367484232655897,-69.82152466367711,-0.6018957345971627,-1.0,-16.435294117647057,16.43529411764706,-1.5059288537549445,0.4980392156862763,4.482352941176472,-5.944680851063828,5.862935728946601,46.36493201879956,36.262744439388406,583.4685972933069,73.93068839178464,1857.9247996103168,1
-12.195801288713364,-58.814982973893294,-40.655718195882415,122.69831519831516,-123.96108335524585,-12.94029432375612,-71.53004484304938,-0.6018957345971627,-1.0,-16.435294117647057,16.43529411764706,-1.5059288537549445,0.4980392156862763,4.482352941176472,-5.944680851063828,5.862935728946601,46.36493201879956,37.22216748616302,552.178978106115,74.05633878936362,1856.971126046225,1
-12.195801288713364,-58.814982973893294,-40.655718195882415,122.69831519831516,-123.96108335524585,-12.94029432375612,-71.53004484304938,5.417061611374401,-3.0,22.411764705882355,7.4705882352941195,23.592885375494067,0.4980392156862763,2.4901960784313744,-7.025531914893616,8.988258392132025,80.36608421750111,37.22216748616302,552.178978106115,74.05633878936362,1856.971126046225,1
-12.195801288713364,-58.814982973893294,-40.655718195882415,122.69831519831516,-123.96108335524585,-12.94029432375612,-71.53004484304938,-4.213270142180101,10.0,26.39607843137255,-8.466666666666665,-9.537549407114629,5.4784313725490215,2.4901960784313744,-10.268085106382976,9.606284650587163,54.365159320512895,37.22216748616302,552.178978106115,74.05633878936362,1856.971126046225,1
-13.858865100810641,-60.640938327657956,-39.49196715458764,122.5422955422955,-124.07796476465947,-11.943517869656603,-73.69417040358758,-4.213270142180101,10.0,26.39607843137255,-8.466666666666665,-9.537549407114629,5.4784313725490215,2.4901960784313744,-10.268085106382976,9.606284650587163,54.365159320512895,37.99725686101875,548.8162129968017,74.22506700818036,1862.7356753332724,1
-13.858865100810641,-60.640938327657956,-39.49196715458764,122.5422955422955,-124.07796476465947,-11.943517869656603,-73.69417040358758,5.417061611374401,13.0,19.423529411764708,2.4901960784313744,-1.5059288537549445,-4.482352941176469,4.482352941176472,-4.863829787234041,6.958156453114051,37.22846224319311,37.99725686101875,548.8162129968017,74.22506700818036,1862.7356753332724,1
-13.858865100810641,-60.640938327657956,-39.49196715458764,122.5422955422955,-124.07796476465947,-11.943517869656603,-73.69417040358758,-1.8056872037914755,15.0,22.411764705882355,4.482352941176472,-33.63241106719368,-6.474509803921567,-6.474509803921567,-7.025531914893616,12.163345930097591,118.77129213704346,37.99725686101875,548.8162129968017,74.22506700818036,1862.7356753332724,1
-15.152359176886302,-62.1305334846765,-39.25014875639652,122.40856440856437,-124.3451222718906,-10.555150665732242,-75.85829596412555,-1.8056872037914755,15.0,22.411764705882355,4.482352941176472,-33.63241106719368,-6.474509803921567,-6.474509803921567,-7.025531914893616,12.163345930097591,118.77129213704346,38.84434713931977,551.8607215375963,74.59641554987913,1845.3791851923343,1
-15.152359176886302,-62.1305334846765,-39.25014875639652,122.40856440856437,-124.3451222718906,-10.555150665732242,-75.85829596412555,11.436018957345965,15.0,-33.36862745098039,1.4941176470588253,12.549407114624502,4.482352941176472,5.4784313725490215,-5.944680851063828,11.219204541849875,101.06390831800397,38.84434713931977,551.8607215375963,74.59641554987913,1845.3791851923343,1
-15.152359176886302,-62.1305334846765,-39.25014875639652,122.40856440856437,-124.3451222718906,-10.555150665732242,-75.85829596412555,-10.232227488151665,-23.0,-15.439215686274508,4.482352941176472,-7.529644268774707,-2.490196078431371,-4.482352941176469,-13.510638297872338,10.14582846273219,47.740303018986616,38.84434713931977,551.8607215375963,74.59641554987913,1845.3791851923343,1
-12.75015589274579,-63.47597427166099,-39.28037605617041,122.45314145314141,-124.72916118853536,-9.558374211632781,-76.31390134529147,-10.232227488151665,-23.0,-15.439215686274508,4.482352941176472,-7.529644268774707,-2.490196078431371,-4.482352941176469,-13.510638297872338,10.14582846273219,47.740303018986616,38.502168740192396,643.7313675226541,75.0698305936576,1830.24035425622,1
-12.75015589274579,-63.47597427166099,-39.28037605617041,122.45314145314141,-124.72916118853536,-9.558374211632781,-76.31390134529147,1.8056872037914629,-1.0,27.3921568627451,27.3921568627451,3.513833992094858,3.4862745098039234,-6.474509803921567,-7.025531914893616,9.761268893749453,122.6343676151047,38.502168740192396,643.7313675226541,75.0698305936576,1830.24035425622,1
-12.75015589274579,-63.47597427166099,-39.28037605617041,122.45314145314141,-124.72916118853536,-9.558374211632781,-76.31390134529147,-1.8056872037914755,-18.0,1.4941176470588253,11.454901960784316,1.505928853754937,-1.4941176470588218,-15.439215686274508,-5.944680851063828,7.14233123122334,47.2590471577767,38.502168740192396,643.7313675226541,75.0698305936576,1830.24035425622,1
-10.215963417168988,-65.1577752553916,-39.03855765797929,122.52000702000699,-125.16329213778596,-9.059985984583022,-74.83318385650227,-1.8056872037914755,-18.0,1.4941176470588253,11.454901960784316,1.505928853754937,-1.4941176470588218,-15.439215686274508,-5.944680851063828,7.14233123122334,47.2590471577767,38.13743211017996,755.259692456337,75.57211331112596,1823.6319247505362,1
-10.215963417168988,-65.1577752553916,-39.03855765797929,122.52000702000699,-125.16329213778596,-9.059985984583022,-74.83318385650227,3.0094786729857756,-9.0,-36.35686274509804,-18.427450980392155,12.549407114624502,8.466666666666669,-2.490196078431371,-5.944680851063828,12.030592888657793,123.46863263798498,38.13743211017996,755.259692456337,75.57211331112596,1823.6319247505362,1
-10.215963417168988,-65.1577752553916,-39.03855765797929,122.52000702000699,-125.16329213778596,-9.059985984583022,-74.83318385650227,-0.6018957345971627,-3.0,4.482352941176472,-14.44313725490196,11.545454545454541,1.4941176470588253,0.4980392156862763,-7.025531914893616,5.386316156721106,27.29925945132251,38.13743211017996,755.259692456337,75.57211331112596,1823.6319247505362,1
-12.354188318436915,-65.30192962542564,-38.66071641080566,122.29712179712176,-125.59742308703653,-8.383601962158309,-73.92197309417043,-0.6018957345971627,-3.0,4.482352941176472,-14.44313725490196,11.545454545454541,1.4941176470588253,0.4980392156862763,-7.025531914893616,5.386316156721106,27.29925945132251,38.77227811822274,700.8751618888715,75.41992261111768,1825.5424130299361,1
-12.354188318436915,-65.30192962542564,-38.66071641080566,122.29712179712176,-125.59742308703653,-8.383601962158309,-73.92197309417043,-10.232227488151665,-15.0,-4.482352941176469,-3.48627450980392,-6.525691699604747,2.4901960784313744,1.4941176470588253,-8.106382978723403,6.477155417868801,20.4353285666808,38.77227811822274,700.8751618888715,75.41992261111768,1825.5424130299361,1
-12.354188318436915,-65.30192962542564,-38.66071641080566,122.29712179712176,-125.59742308703653,-8.383601962158309,-73.92197309417043,-3.0094786729857885,0.0,8.466666666666669,-12.450980392156861,-13.55335968379447,-3.48627450980392,4.482352941176472,-3.782978723404254,6.154011448748554,23.291935478552244,38.77227811822274,700.8751618888715,75.41992261111768,1825.5424130299361,1
-14.809187279151942,-65.10972379871357,-38.94787575865762,121.82906282906279,-126.01485669208517,-7.458023826208773,-73.58026905829593,-3.0094786729857885,0.0,8.466666666666669,-12.450980392156861,-13.55335968379447,-3.48627450980392,4.482352941176472,-3.782978723404254,6.154011448748554,23.291935478552244,39.62226227884104,632.8770914228921,75.29555412881133,1795.1361471850291,1
-14.809187279151942,-65.10972379871357,-38.94787575865762,121.82906282906279,-126.01485669208517,-7.458023826208773,-73.58026905829593,-1.8056872037914755,-8.0,22.411764705882355,19.423529411764708,2.5098814229248974,0.4980392156862763,2.4901960784313744,-4.863829787234041,7.750365978214392,71.81161149643988,39.62226227884104,632.8770914228921,75.29555412881133,1795.1361471850291,1
-14.809187279151942,-65.10972379871357,-38.94787575865762,121.82906282906279,-126.01485669208517,-7.458023826208773,-73.58026905829593,0.6018957345971501,-3.0,2.4901960784313744,13.447058823529414,5.521739130434779,-3.48627450980392,0.4980392156862763,-13.510638297872338,5.319480223794406,27.920127205097508,39.62226227884104,632.8770914228921,75.29555412881133,1795.1361471850291,1
-13.09332779048015,-64.29284903518729,-39.05367130786623,121.539312039312,-126.43229029713382,-6.852838121934099,-72.55515695067265,0.6018957345971501,-3.0,2.4901960784313744,13.447058823529414,5.521739130434779,-3.48627450980392,0.4980392156862763,-13.510638297872338,5.319480223794406,27.920127205097508,38.81328271117789,655.3910839298678,74.96194412745517,1786.342424285177,1
-13.09332779048015,-64.29284903518729,-39.05367130786623,121.539312039312,-126.43229029713382,-6.852838121934099,-72.55515695067265,6.620853080568714,24.0,20.419607843137257,2.4901960784313744,-1.5059288537549445,-5.478431372549018,-2.490196078431371,-10.268085106382976,9.159162301656957,73.68440060336171,38.81328271117789,655.3910839298678,74.96194412745517,1786.342424285177,1
-13.09332779048015,-64.29284903518729,-39.05367130786623,121.539312039312,-126.43229029713382,-6.852838121934099,-72.55515695067265,-5.417061611374414,-13.0,-11.454901960784312,3.4862745098039234,10.54150197628458,-1.4941176470588218,3.4862745098039234,-9.18723404255319,7.258420782207896,18.593014021033785,38.81328271117789,655.3910839298678,74.96194412745517,1786.342424285177,1
-8.368114737060901,-63.37987135830495,-39.7791265024396,121.45015795015792,-126.69944780436495,-7.244428871758885,-69.59372197309426,-5.417061611374414,-13.0,-11.454901960784312,3.4862745098039234,10.54150197628458,-1.4941176470588218,3.4862745098039234,-9.18723404255319,7.258420782207896,18.593014021033785,37.17570419926849,761.6566974052339,74.86971860363415,1766.5517867242977,1
-8.368114737060901,-63.37987135830495,-39.7791265024396,121.45015795015792,-126.69944780436495,-7.244428871758885,-69.59372197309426,17.45497630331753,28.0,25.400000000000002,-5.478431372549018,-36.64426877470356,-1.4941176470588218,2.4901960784313744,-3.782978723404254,15.09312111243307,186.71111354903633,37.17570419926849,761.6566974052339,74.86971860363415,1766.5517867242977,1
-8.368114737060901,-63.37987135830495,-39.7791265024396,121.45015795015792,-126.69944780436495,-7.244428871758885,-69.59372197309426,-7.82464454976304,9.0,30.380392156862747,15.439215686274512,14.557312252964422,1.4941176470588253,-3.48627450980392,-17.834042553191487,12.501999919489869,85.35965233816077,37.17570419926849,761.6566974052339,74.86971860363415,1766.5517867242977,1
-6.467470380378299,-63.37987135830495,-40.12674044983934,121.29413829413826,-126.86642124638442,-8.134407848633487,-65.83497757847545,-7.82464454976304,9.0,30.380392156862747,15.439215686274512,14.557312252964422,1.4941176470588253,-3.48627450980392,-17.834042553191487,12.501999919489869,85.35965233816077,36.6580273961742,818.779323954577,74.93358336742752,1747.1528140959826,1
-6.467470380378299,-63.37987135830495,-40.12674044983934,121.29413829413826,-126.86642124638442,-8.134407848633487,-65.83497757847545,-7.82464454976304,-7.0,3.4862745098039234,-1.4941176470588218,29.61660079051383,10.458823529411767,-3.48627450980392,-8.106382978723403,8.934139814384839,78.6369018581105,36.6580273961742,818.779323954577,74.93358336742752,1747.1528140959826,1
-6.467470380378299,-63.37987135830495,-40.12674044983934,121.29413829413826,-126.86642124638442,-8.134407848633487,-65.83497757847545,1.8056872037914629,-6.0,-31.376470588235293,-10.458823529411763,-22.588932806324113,-1.4941176470588218,8.466666666666669,-0.5404255319148916,10.341390496675377,123.14918861510766,36.6580273961742,818.779323954577,74.93358336742752,1747.1528140959826,1
-7.1010184992725005,-63.66818009837306,-40.64060454599547,120.95981045981043,-126.94990796739415,-9.095585143658013,-62.30403587443948,1.8056872037914629,-6.0,-31.376470588235293,-10.458823529411763,-22.588932806324113,-1.4941176470588218,8.466666666666669,-0.5404255319148916,10.341390496675377,123.14918861510766,37.13660104788034,809.1694732307915,75.08953170139299,1710.6291639863061,1
-7.1010184992725005,-63.66818009837306,-40.64060454599547,120.95981045981043,-126.94990796739415,-9.095585143658013,-62.30403587443948,4.213270142180089,7.0,0.4980392156862763,-24.40392156862745,0.5019762845849765,-4.482352941176469,-6.474509803921567,-19.99574468085106,8.446226829628486,79.1333779487426,37.13660104788034,809.1694732307915,75.08953170139299,1710.6291639863061,1
-7.1010184992725005,-63.66818009837306,-40.64060454599547,120.95981045981043,-126.94990796739415,-9.095585143658013,-62.30403587443948,-19.86255924170617,-11.0,15.439215686274512,-7.470588235294116,4.517786561264819,-6.474509803921567,-10.458823529411763,-35.12765957446808,13.793892829042628,99.02823194275936,37.13660104788034,809.1694732307915,75.08953170139299,1710.6291639863061,1
-7.1010184992725005,-63.524025728339005,-41.0184457931691,120.62548262548259,-127.0,-10.02116327960755,-59.11479820627801,-19.86255924170617,-11.0,15.439215686274512,-7.470588235294116,4.517786561264819,-6.474509803921567,-10.458823529411763,-35.12765957446808,13.793892829042628,99.02823194275936,37.21449667359354,806.7414578710626,75.05598471566357,1684.059636869331,1
-7.1010184992725005,-63.524025728339005,-41.0184457931691,120.62548262548259,-127.0,-10.02116327960755,-59.11479820627801,18.65876777251184,46.0,10.458823529411767,8.466666666666669,20.581027667984184,13.447058823529414,5.4784313725490215,7.0255319148936195,16.264538468443313,173.24467942646828,37.21449667359354,806.7414578710626,75.05598471566357,1684.059636869331,1
-7.1010184992725005,-63.524025728339005,-41.0184457931691,120.62548262548259,-127.0,-10.02116327960755,-59.11479820627801,5.417061611374401,-14.0,-0.49803921568627274,-3.48627450980392,-1.5059288537549445,3.4862745098039234,8.466666666666669,3.7829787234042573,5.080403011311798,18.81143651388319,37.21449667359354,806.7414578710626,75.05598471566357,1684.059636869331,1
-5.833922261484099,-63.81233446840711,-42.031060335594425,120.35802035802033,-126.94990796739415,-11.124737210931983,-56.15336322869962,5.417061611374401,-14.0,-0.49803921568627274,-3.48627450980392,-1.5059288537549445,3.4862745098039234,8.466666666666669,3.7829787234042573,5.080403011311798,18.81143651388319,37.22577235516187,857.6921649401369,75.40047172067395,1634.4918603217075,1
-5.833922261484099,-63.81233446840711,-42.031060335594425,120.35802035802033,-126.94990796739415,-11.124737210931983,-56.15336322869962,-22.270142180094794,-40.0,-16.435294117647057,5.4784313725490215,0.5019762845849765,11.454901960784316,-18.427450980392155,-21.07659574468085,16.95559908009165,144.4876016259163,37.22577235516187,857.6921649401369,75.40047172067395,1634.4918603217075,1
-5.833922261484099,-63.81233446840711,-42.031060335594425,120.35802035802033,-126.94990796739415,-11.124737210931983,-56.15336322869962,35.51184834123222,44.0,-38.34901960784313,-4.482352941176469,19.577075098814227,-33.36862745098039,-13.44705882352941,-9.18723404255319,24.740402038266133,221.8694355721982,37.22577235516187,857.6921649401369,75.40047172067395,1634.4918603217075,1
-4.302847640823113,-63.66818009837306,-42.77162918005474,120.11284661284657,-126.76623718117276,-12.513104414856286,-53.078026905829574,35.51184834123222,44.0,-38.34901960784313,-4.482352941176469,19.577075098814227,-33.36862745098039,-13.44705882352941,-9.18723404255319,24.740402038266133,221.8694355721982,36.91421897308364,906.7926151984053,75.51755196375812,1600.7216886997298,1
-4.302847640823113,-63.66818009837306,-42.77162918005474,120.11284661284657,-126.76623718117276,-12.513104414856286,-53.078026905829574,-12.63981042654029,-1.0,18.42745098039216,-0.49803921568627274,-12.54940711462451,-1.4941176470588218,6.4745098039215705,-15.672340425531914,8.594459451719441,50.989638894668,36.91421897308364,906.7926151984053,75.51755196375812,1600.7216886997298,1
-4.302847640823113,-63.66818009837306,-42.77162918005474,120.11284661284657,-126.76623718117276,-12.513104414856286,-53.078026905829574,-16.25118483412323,-15.0,18.42745098039216,6.4745098039215705,35.640316205533594,26.39607843137255,9.462745098039218,-25.4,19.131535669172788,92.02208849115432,36.91421897308364,906.7926151984053,75.51755196375812,1600.7216886997298,1
-2.032633548118893,-60.304578130911835,-44.04117577055813,120.02369252369249,-126.33210623192215,-14.542256482130313,-50.00269058295976,-16.25118483412323,-15.0,18.42745098039216,6.4745098039215705,35.640316205533594,26.39607843137255,9.462745098039218,-25.4,19.131535669172788,92.02208849115432,35.45946248319628,904.139233574885,74.78981547505414,1600.7022887221874,1
-2.032633548118893,-60.304578130911835,-44.04117577055813,120.02369252369249,-126.33210623192215,-14.542256482130313,-50.00269058295976,13.84360189573459,54.0,14.443137254901963,-32.372549019607845,-46.683794466403164,-16.435294117647057,4.482352941176472,-21.07659574468085,25.417165680018993,301.3975574547235,35.45946248319628,904.139233574885,74.78981547505414,1600.7022887221874,1
-2.032633548118893,-60.304578130911835,-44.04117577055813,120.02369252369249,-126.33210623192215,-14.542256482130313,-50.00269058295976,-9.028436018957352,7.0,34.36470588235294,-7.470588235294116,-37.64822134387352,-3.48627450980392,23.407843137254904,-31.885106382978723,19.286396938814434,197.95204436649462,35.45946248319628,904.139233574885,74.78981547505414,1600.7022887221874,1
0.13198919143629162,-56.46046159667044,-45.537427109365694,119.97911547911544,-125.49723902182487,-17.176594253679013,-47.610762331838714,-9.028436018957352,7.0,34.36470588235294,-7.470588235294116,-37.64822134387352,-3.48627450980392,23.407843137254904,-31.885106382978723,19.286396938814434,197.95204436649462,34.04329263249081,901.2856256451815,73.99233472838385,1615.9161734646045,1
0.13198919143629162,-56.46046159667044,-45.537427109365694,119.97911547911544,-125.49723902182487,-17.176594253679013,-47.610762331838714,-0.6018957345971627,-23.0,-29.384313725490195,35.36078431372549,29.61660079051383,-7.470588235294116,7.4705882352941195,-26.480851063829785,19.923202762343088,165.38729500167423,34.04329263249081,901.2856256451815,73.99233472838385,1615.9161734646045,1
0.13198919143629162,-56.46046159667044,-45.537427109365694,119.97911547911544,-125.49723902182487,-17.176594253679013,-47.610762331838714,27.08530805687203,-5.0,-59.266666666666666,-27.392156862745097,2.5098814229248974,15.439215686274512,4.482352941176472,47.01702127659575,23.52407536415693,438.54080533942397,34.04329263249081,901.2856256451815,73.99233472838385,1615.9161734646045,1
2.1646227395551865,-54.77866061293984,-48.257884089015825,119.66707616707613,-124.1614514856692,-20.558514365802353,-46.01614349775787,27.08530805687203,-5.0,-59.266666666666666,-27.392156862745097,2.5098814229248974,15.439215686274512,4.482352941176472,47.01702127659575,23.52407536415693,438.54080533942397,35.06705581383695,971.2478733857974,74.23454028967727,1558.716618807091,1
2.1646227395551865,-54.77866061293984,-48.257884089015825,119.66707616707613,-124.1614514856692,-20.558514365802353,-46.01614349775787,39.12322274881516,9.0,-86.16078431372549,-42.33333333333333,111.94071146245058,15.439215686274512,13.447058823529414,34.0468085106383,43.93639185984585,1356.181001445124,35.06705581383695,971.2478733857974,74.23454028967727,1558.716618807091,1
2.1646227395551865,-54.77866061293984,-48.257884089015825,119.66707616707613,-124.1614514856692,-20.558514365802353,-46.01614349775787,-25.88151658767773,-28.0,-77.19607843137254,-3.48627450980392,-28.612648221343875,-15.439215686274508,-17.431372549019606,-29.723404255319146,28.221313780101415,471.15537899036383,35.06705581383695,971.2478733857974,74.23454028967727,1558.716618807091,1
0.7127416337559769,-53.481271282633365,-54.242889444246096,117.86170586170581,-121.89061267420456,-25.506797477224893,-44.87713004484317,-25.88151658767773,-28.0,-77.19607843137254,-3.48627450980392,-28.612648221343875,-15.439215686274508,-17.431372549019606,-29.723404255319146,28.221313780101415,471.15537899036383,36.14563412021181,992.9487475645567,75.19528886286176,1365.4623701954613,1
0.7127416337559769,-53.481271282633365,-54.242889444246096,117.86170586170581,-121.89061267420456,-25.506797477224893,-44.87713004484317,-0.6018957345971627,6.0,4.482352941176472,8.466666666666669,11.545454545454541,21.415686274509806,-1.4941176470588218,-15.672340425531914,8.709814279374424,51.576439112269476,36.14563412021181,992.9487475645567,75.19528886286176,1365.4623701954613,1
0.7127416337559769,-53.481271282633365,-54.242889444246096,117.86170586170581,-121.89061267420456,-25.506797477224893,-44.87713004484317,37.919431279620845,35.0,-61.258823529411764,-11.454901960784312,45.679841897233196,33.3686274509804,15.439215686274512,-5.944680851063828,30.758190331921107,350.29045612829344,36.14563412021181,992.9487475645567,75.19528886286176,1365.4623701954613,1
-9.951985034296403,-58.094211123723035,-60.454599547780546,113.44857844857842,-118.63463055482512,-30.277084793272536,-48.74977578475341,37.919431279620845,35.0,-61.258823529411764,-11.454901960784312,45.679841897233196,33.3686274509804,15.439215686274512,-5.944680851063828,30.758190331921107,350.29045612829344,42.833598568599996,812.2932398425792,77.33246304002733,979.6732025309418,1
-9.951985034296403,-58.094211123723035,-60.454599547780546,113.44857844857842,-118.63463055482512,-30.277084793272536,-48.74977578475341,-15.047393364928917,2.0,90.1450980392157,16.43529411764706,-56.723320158102766,21.415686274509806,11.454901960784316,0.5404255319148952,26.720264930887932,960.367811935878,42.833598568599996,812.2932398425792,77.33246304002733,979.6732025309418,1
-9.951985034296403,-58.094211123723035,-60.454599547780546,113.44857844857842,-118.63463055482512,-30.277084793272536,-48.74977578475341,-13.843601895734604,-1.0,84.1686274509804,18.42745098039216,16.565217391304344,-8.466666666666665,-12.450980392156861,-1.6212765957446793,19.567977671622465,722.4392044283929,42.833598568599996,812.2932398425792,77.33246304002733,979.6732025309418,1
-19.613593847432966,-60.2084752175558,-67.16506009758419,108.05475605475601,-115.26176702603206,-35.15416958654515,-51.25560538116588,-13.843601895734604,-1.0,84.1686274509804,18.42745098039216,16.565217391304344,-8.466666666666665,-12.450980392156861,-1.6212765957446793,19.567977671622465,722.4392044283929,48.995709720857654,659.5800681977761,78.47609712329867,668.271316435871,1
-19.613593847432966,-60.2084752175558,-67.16506009758419,108.05475605475601,-115.26176702603206,-35.15416958654515,-51.25560538116588,-41.530805687203795,-39.0,29.3843137254902,49.30588235294118,-14.55731225296443,-4.482352941176469,2.4901960784313744,-10.268085106382976,23.877368518073805,331.84677230653034,48.995709720857654,659.5800681977761,78.47609712329867,668.271316435871,1
-19.613593847432966,-60.2084752175558,-67.16506009758419,108.05475605475601,-115.26176702603206,-35.15416958654515,-51.25560538116588,6.620853080568714,-32.0,-11.454901960784312,5.4784313725490215,9.537549407114621,1.4941176470588253,0.4980392156862763,3.7829787234042573,8.858358925895754,101.29367274112943,48.995709720857654,659.5800681977761,78.47609712329867,668.271316435871,1
-26.8202036998545,-56.46046159667044,-70.6865405212424,101.45735345735342,-111.12082566394952,-39.960056061667785,-56.039461883408194,6.620853080568714,-32.0,-11.454901960784312,5.4784313725490215,9.537549407114621,1.4941176470588253,0.4980392156862763,3.7829787234042573,8.858358925895754,101.29367274112943,51.32240193925579,500.8636193142272,76.20145185842209,528.9907545732143,1
