Gyro 0,Gyro 1,Gyro 2,Orientation 0,Orientation 1,Orientation 2,Orientation 3,Sensor 0,Sensor 1,Sensor 2,Sensor 3,Sensor 4,Sensor 5,Sensor 6,Sensor 7,Sensor Mean,Sensor Variance,Gyro Mean,Gyro Variance,Orientation Mean,Orientation Variance,Label
-17.76775998756412,-70.66955183689171,-54.989690721649495,-110.52012940330698,122.13782542113324,13.092955892034183,-80.80673934588685,-3.0975609756097615,7.470588235294116,21.654377880184338,-5.748971193415656,-9.143999999999997,-4.6275303643724754,-0.49803921568627274,12.585585585585596,8.103331681268527,43.67531855884629,47.80900084870177,738.3216255059863,78.72645732061606,819.5926995245811,1
-17.76775998756412,-70.66955183689171,-54.989690721649495,-110.52012940330698,122.13782542113324,13.092955892034183,-80.80673934588685,2.065040650406498,4.268907563025208,12.290322580645167,-3.658436213991788,5.080000000000004,-0.514170040485836,0.4980392156862763,17.162162162162172,5.692134803300369,35.51136919390673,47.80900084870177,738.3216255059863,78.72645732061606,819.5926995245811,1
-17.76775998756412,-70.66955183689171,-54.989690721649495,-110.52012940330698,122.13782542113324,13.092955892034183,-80.80673934588685,-5.162601626016265,-4.268907563025213,12.290322580645167,-2.613168724279854,6.096000000000004,-1.542510121457496,-2.490196078431371,11.441441441441452,5.7381435169121024,16.57065590354215,47.80900084870177,738.3216255059863,78.72645732061606,819.5926995245811,1
-17.59008238768848,-71.30467397576457,-55.01047291768942,-110.54295470884257,122.20854796046223,13.260171165240251,-81.9395441030722,-5.162601626016265,-4.268907563025213,12.290322580645167,-2.613168724279854,6.096000000000004,-1.542510121457496,-2.490196078431371,11.441441441441452,5.7381435169121024,16.57065590354215,47.96840976038083,758.507327502096,78.95270053409885,814.833366148929,1
-17.59008238768848,-71.30467397576457,-55.01047291768942,-110.54295470884257,122.20854796046223,13.260171165240251,-81.9395441030722,6.195121951219506,3.201680672268905,-4.096774193548381,-9.930041152263392,-21.336,-8.740890688259114,5.4784313725490215,19.45045045045046,9.803673810069848,47.869244122212535,47.96840976038083,758.507327502096,78.95270053409885,814.833366148929,1
-17.412404787812836,-70.47412964031545,-55.13516609392899,-110.63425593098492,122.22622859529446,13.460829493087545,-82.69474727452916,6.195121951219506,3.201680672268905,-4.096774193548381,-9.930041152263392,-21.336,-8.740890688259114,5.4784313725490215,19.45045045045046,9.803673810069848,47.869244122212535,47.67390017401909,745.6395279263802,78.74785055507645,821.3780865169165,1
-17.412404787812836,-70.47412964031545,-55.13516609392899,-110.63425593098492,122.22622859529446,13.460829493087545,-82.69474727452916,-13.422764227642283,-9.605042016806724,31.01843317972351,-1.5679012345679197,-17.272,-16.967611336032395,-7.470588235294116,9.153153153153163,13.309686672902515,77.95122684173786,47.67390017401909,745.6395279263802,78.74785055507645,821.3780865169165,1
-17.412404787812836,-70.47412964031545,-55.13516609392899,-110.63425593098492,122.22622859529446,13.460829493087545,-82.69474727452916,13.42276422764227,13.87394957983193,6.437788018433185,-6.79423868312759,1.0160000000000036,-1.542510121457496,4.482352941176472,25.17117117117118,9.092596842855016,65.13603871815373,47.67390017401909,745.6395279263802,78.74785055507645,821.3780865169165,1
-16.93859785481113,-70.22985189459513,-54.94812632956964,-110.74838245866285,122.24390923012669,13.795260039499624,-83.8275520317145,13.42276422764227,13.87394957983193,6.437788018433185,-6.79423868312759,1.0160000000000036,-1.542510121457496,4.482352941176472,25.17117117117118,9.092596842855016,65.13603871815373,47.3721920263253,753.0355247085043,78.6421202276092,831.4918398980747,1
-16.93859785481113,-70.22985189459513,-54.94812632956964,-110.74838245866285,122.24390923012669,13.795260039499624,-83.8275520317145,9.292682926829261,22.41176470588235,19.313364055299544,-13.065843621399194,10.160000000000004,3.5991902834008034,2.4901960784313744,20.594594594594604,12.61595453322964,57.94045104664843,47.3721920263253,753.0355247085043,78.6421202276092,831.4918398980747,1
-16.93859785481113,-70.22985189459513,-54.94812632956964,-110.74838245866285,122.24390923012669,13.795260039499624,-83.8275520317145,2.065040650406498,17.075630252100837,46.23502304147466,-2.613168724279854,-2.0319999999999965,-3.599190283400816,-3.48627450980392,18.30630630630632,11.926579220971611,238.10848110611298,47.3721920263253,753.0355247085043,78.6421202276092,831.4918398980747,1
-16.9780817658946,-69.05731871513754,-54.698739977090504,-110.86250898634077,122.22622859529446,14.163133640552985,-84.70862239841426,2.065040650406498,17.075630252100837,46.23502304147466,-2.613168724279854,-2.0319999999999965,-3.599190283400816,-3.48627450980392,18.30630630630632,11.926579220971611,238.10848110611298,46.91138015270755,723.5439600796581,78.20618922618961,851.3686110521037,1
-16.9780817658946,-69.05731871513754,-54.698739977090504,-110.86250898634077,122.22622859529446,14.163133640552985,-84.70862239841426,1.0325203252032464,8.537815126050418,13.460829493087562,-4.703703703703722,2.0320000000000036,-3.599190283400816,-0.49803921568627274,14.873873873873883,6.09224650262574,31.274109529305285,46.91138015270755,723.5439600796581,78.20618922618961,851.3686110521037,1
-16.9780817658946,-69.05731871513754,-54.698739977090504,-110.86250898634077,122.22622859529446,14.163133640552985,-84.70862239841426,7.227642276422758,5.3361344537815105,13.460829493087562,-8.884773662551458,-7.1119999999999965,-7.712550607287455,-2.490196078431371,24.02702702702704,9.531394199823644,43.94707992265001,46.91138015270755,723.5439600796581,78.20618922618961,851.3686110521037,1
-17.57034043214674,-67.59165224081555,-54.01292750777288,-111.06793673616104,122.20854796046223,14.263462804476603,-84.83448959365705,7.227642276422758,5.3361344537815105,13.460829493087562,-8.884773662551458,-7.1119999999999965,-7.712550607287455,-2.490196078431371,24.02702702702704,9.531394199823644,43.94707992265001,46.39164006024506,669.0959255334012,77.55750549491648,888.3071928245704,1
-17.57034043214674,-67.59165224081555,-54.01292750777288,-111.06793673616104,122.20854796046223,14.263462804476603,-84.83448959365705,3.0975609756097504,6.403361344537813,11.11981566820277,-4.703703703703722,-1.0159999999999965,-2.570850202429156,1.4941176470588253,16.01801801801803,5.8029284449450085,27.633148109757602,46.39164006024506,669.0959255334012,77.55750549491648,888.3071928245704,1
-17.57034043214674,-67.59165224081555,-54.01292750777288,-111.06793673616104,122.20854796046223,14.263462804476603,-84.83448959365705,12.390243902439018,25.61344537815126,16.97235023041475,-5.748971193415656,12.192000000000004,-1.542510121457496,-6.474509803921567,19.45045045045046,12.548060135031276,63.1872952014947,46.39164006024506,669.0959255334012,77.55750549491648,888.3071928245704,1
-18.261308876107567,-66.07713021734949,-53.1400752740959,-111.43314162473042,122.22622859529446,14.062804476629367,-84.20515361744287,12.390243902439018,25.61344537815126,16.97235023041475,-5.748971193415656,12.192000000000004,-1.542510121457496,-6.474509803921567,19.45045045045046,12.548060135031276,63.1872952014947,45.82617145585098,611.7080844312948,76.88344903872527,937.1027909917852,1
-18.261308876107567,-66.07713021734949,-53.1400752740959,-111.43314162473042,122.22622859529446,14.062804476629367,-84.20515361744287,2.065040650406498,14.941176470588232,26.33640552995392,-6.79423868312759,-3.0479999999999965,-12.854251012145754,-9.462745098039214,19.45045045045046,11.869038486838958,68.95201807388771,45.82617145585098,611.7080844312948,76.88344903872527,937.1027909917852,1
-18.261308876107567,-66.07713021734949,-53.1400752740959,-111.43314162473042,122.22622859529446,14.062804476629367,-84.20515361744287,1.0325203252032464,-1.067226890756304,22.824884792626733,1.5679012345678824,-5.0799999999999965,-5.655870445344135,-10.458823529411763,12.585585585585596,7.534101600436957,56.73092582524204,45.82617145585098,611.7080844312948,76.88344903872527,937.1027909917852,1
-18.952277320068394,-65.97941911906136,-52.682866961217485,-111.84399712437097,122.31463176945567,13.594601711652388,-83.07234886025753,1.0325203252032464,-1.067226890756304,22.824884792626733,1.5679012345678824,-5.0799999999999965,-5.655870445344135,-10.458823529411763,12.585585585585596,7.534101600436957,56.73092582524204,45.87152113344908,587.6838404347415,76.83542773488328,963.3995228454971,1
-18.952277320068394,-65.97941911906136,-52.682866961217485,-111.84399712437097,122.31463176945567,13.594601711652388,-83.07234886025753,21.682926829268286,53.36134453781512,47.40552995391705,-10.975308641975326,-2.0319999999999965,-6.684210526315796,7.4705882352941195,26.315315315315324,21.99090300498763,373.3769657218376,45.87152113344908,587.6838404347415,76.83542773488328,963.3995228454971,1
-18.952277320068394,-65.97941911906136,-52.682866961217485,-111.84399712437097,122.31463176945567,13.594601711652388,-83.07234886025753,6.195121951219506,21.344537815126046,31.01843317972351,-9.930041152263392,1.0160000000000036,-8.740890688259114,1.4941176470588253,19.45045045045046,12.398699110512606,111.8405234244302,45.87152113344908,587.6838404347415,76.83542773488328,963.3995228454971,1
-18.89305145344318,-66.90767455279862,-53.16085747013583,-112.2776779295471,122.42071557844912,13.126398946675408,-82.06541129831521,6.195121951219506,21.344537815126046,31.01843317972351,-9.930041152263392,1.0160000000000036,-8.740890688259114,1.4941176470588253,19.45045045045046,12.398699110512606,111.8405234244302,46.32052782545921,611.4435900791706,77.44873665082717,957.0351079234374,1
-18.89305145344318,-66.90767455279862,-53.16085747013583,-112.2776779295471,122.42071557844912,13.126398946675408,-82.06541129831521,10.325203252032514,11.739495798319325,11.11981566820277,-14.111111111111128,2.0320000000000036,-1.542510121457496,8.466666666666669,20.594594594594604,9.991424651548064,38.70013442484593,46.32052782545921,611.4435900791706,77.44873665082717,957.0351079234374,1
-18.89305145344318,-66.90767455279862,-53.16085747013583,-112.2776779295471,122.42071557844912,13.126398946675408,-82.06541129831521,4.130081300813003,-1.7763568394002505e-15,-9.949308755760363,-6.79423868312759,-7.1119999999999965,-6.684210526315796,0.4980392156862763,18.30630630630632,6.684273098501168,33.62857838715626,46.32052782545921,611.4435900791706,77.44873665082717,957.0351079234374,1
-18.34027669827452,-67.64050778995961,-54.116838487972515,-112.66570812365205,122.4914381177781,12.858854509545722,-81.43607532210103,4.130081300813003,-1.7763568394002505e-15,-9.949308755760363,-6.79423868312759,-7.1119999999999965,-6.684210526315796,0.4980392156862763,18.30630630630632,6.684273098501168,33.62857838715626,46.69920765873555,648.8941317625233,78.1410181338614,939.6880720157407,1
-18.34027669827452,-67.64050778995961,-54.116838487972515,-112.66570812365205,122.4914381177781,12.858854509545722,-81.43607532210103,-2.0650406504065097,-3.2016806722689104,28.677419354838715,1.5679012345678824,15.240000000000002,-0.514170040485836,-1.4941176470588218,17.162162162162172,8.740311470223606,108.21680840451533,46.69920765873555,648.8941317625233,78.1410181338614,939.6880720157407,1
-18.34027669827452,-67.64050778995961,-54.116838487972515,-112.66570812365205,122.4914381177781,12.858854509545722,-81.43607532210103,-5.329070518200751e-15,5.3361344537815105,28.677419354838715,-2.613168724279854,-19.303999999999995,-5.655870445344135,0.4980392156862763,19.45045045045046,10.19188533054762,115.70035744224568,46.69920765873555,648.8941317625233,78.1410181338614,939.6880720157407,1
-17.353178921187624,-68.51990767455281,-55.17673048600884,-113.0765636232926,122.50911875261033,12.892297564186947,-81.43607532210103,-5.329070518200751e-15,5.3361344537815105,28.677419354838715,-2.613168724279854,-19.303999999999995,-5.655870445344135,0.4980392156862763,19.45045045045046,10.19188533054762,115.70035744224568,47.016605693916425,704.449260297003,78.92440059461809,919.287774024092,1
-17.353178921187624,-68.51990767455281,-55.17673048600884,-113.0765636232926,122.50911875261033,12.892297564186947,-81.43607532210103,-2.0650406504065097,-5.336134453781515,15.801843317972356,0.5226337448559484,-12.191999999999997,-6.684210526315796,-10.458823529411763,17.162162162162172,8.777856048113257,37.65062881747518,47.016605693916425,704.449260297003,78.92440059461809,919.287774024092,1
-17.353178921187624,-68.51990767455281,-55.17673048600884,-113.0765636232926,122.50911875261033,12.892297564186947,-81.43607532210103,7.227642276422758,19.21008403361344,7.608294930875582,-3.658436213991788,-1.0159999999999965,-0.514170040485836,4.482352941176472,13.72972972972974,7.180838770786952,41.41635404234172,47.016605693916425,704.449260297003,78.92440059461809,919.287774024092,1
-16.52401678843463,-69.00846316599348,-56.215840288005246,-113.46459381739757,122.43839621328138,13.193285055957858,-81.8136769078294,7.227642276422758,19.21008403361344,7.608294930875582,-3.658436213991788,-1.0159999999999965,-0.514170040485836,4.482352941176472,13.72972972972974,7.180838770786952,41.41635404234172,47.24944008081112,748.9515273963907,79.56296575713209,902.9030888770415,1
-16.52401678843463,-69.00846316599348,-56.215840288005246,-113.46459381739757,122.43839621328138,13.193285055957858,-81.8136769078294,3.0975609756097504,11.739495798319325,2.9262672811059964,-12.02057613168726,-2.0319999999999965,-5.655870445344135,-2.490196078431371,18.30630630630632,7.28353412710052,36.21554326761397,47.24944008081112,748.9515273963907,79.56296575713209,902.9030888770415,1
-16.52401678843463,-69.00846316599348,-56.215840288005246,-113.46459381739757,122.43839621328138,13.193285055957858,-81.8136769078294,10.325203252032514,19.21008403361344,41.552995391705075,-7.839506172839524,11.176000000000004,-3.599190283400816,6.4745098039215705,22.882882882882893,15.382546477549479,153.45247109835776,47.24944008081112,748.9515273963907,79.56296575713209,902.9030888770415,1
-16.366081144100725,-70.22985189459513,-56.61070201276388,-113.71567217828901,122.34999303912016,13.561158657011163,-82.06541129831521,10.325203252032514,19.21008403361344,41.552995391705075,-7.839506172839524,11.176000000000004,-3.599190283400816,6.4745098039215705,22.882882882882893,15.382546477549479,153.45247109835776,47.73554501715324,784.4027586380064,80.18540869521601,889.5792378091703,1
-16.366081144100725,-70.22985189459513,-56.61070201276388,-113.71567217828901,122.34999303912016,13.561158657011163,-82.06541129831521,-8.260162601626021,-8.537815126050422,15.801843317972356,7.839506172839487,-6.0959999999999965,-4.6275303643724754,-5.478431372549018,10.297297297297307,8.367323281588385,12.400955232658472,47.73554501715324,784.4027586380064,80.18540869521601,889.5792378091703,1
-16.366081144100725,-70.22985189459513,-56.61070201276388,-113.71567217828901,122.34999303912016,13.561158657011163,-82.06541129831521,15.487804878048774,24.546218487394956,4.0967741935483915,-23.518518518518533,-7.1119999999999965,-2.570850202429156,1.4941176470588253,20.594594594594604,12.427609815199155,94.3269795916968,47.73554501715324,784.4027586380064,80.18540869521601,889.5792378091703,1
-17.293953054562408,-71.59780727062898,-56.195058091965315,-113.80697340043136,122.27927049979118,13.628044766293613,-81.68780971258661,15.487804878048774,24.546218487394956,4.0967741935483915,-23.518518518518533,-7.1119999999999965,-2.570850202429156,1.4941176470588253,20.594594594594604,12.427609815199155,94.3269795916968,48.3622728057189,783.2415396852814,80.53327958767521,889.6651955239909,1
-17.293953054562408,-71.59780727062898,-56.195058091965315,-113.80697340043136,122.27927049979118,13.628044766293613,-81.68780971258661,-1.032520325203258,9.60504201680672,7.608294930875582,-10.975308641975326,-16.255999999999997,-9.769230769230775,3.4862745098039234,17.162162162162172,9.48685416950722,31.150370214422626,48.3622728057189,783.2415396852814,80.53327958767521,889.6651955239909,1
-17.293953054562408,-71.59780727062898,-56.195058091965315,-113.80697340043136,122.27927049979118,13.628044766293613,-81.68780971258661,-1.032520325203258,3.201680672268905,19.313364055299544,-5.748971193415656,-7.1119999999999965,0.5141700404858236,-4.482352941176469,14.873873873873883,7.034866637715442,44.80389944522543,48.3622728057189,783.2415396852814,80.53327958767521,889.6651955239909,1
-18.81408363127623,-71.93979611463743,-55.280641466208486,-113.80697340043136,122.22622859529446,13.193285055957858,-79.92566897918732,-1.032520325203258,3.201680672268905,19.313364055299544,-5.748971193415656,-7.1119999999999965,0.5141700404858236,-4.482352941176469,14.873873873873883,7.034866637715442,44.80389944522543,48.678173737374046,738.2797667989153,80.34247032709243,909.2865828592011,1
-18.81408363127623,-71.93979611463743,-55.280641466208486,-113.80697340043136,122.22622859529446,13.193285055957858,-79.92566897918732,10.325203252032514,20.277310924369743,4.0967741935483915,-12.02057613168726,-10.159999999999997,-1.542510121457496,5.4784313725490215,21.73873873873875,10.704943091797897,52.92591811293967,48.678173737374046,738.2797667989153,80.34247032709243,909.2865828592011,1
-18.81408363127623,-71.93979611463743,-55.280641466208486,-113.80697340043136,122.22622859529446,13.193285055957858,-79.92566897918732,-1.032520325203258,2.134453781512603,5.267281105990788,-2.613168724279854,29.464000000000006,-6.684210526315796,-10.458823529411763,22.882882882882893,10.067167609449621,110.74732397080912,48.678173737374046,738.2797667989153,80.34247032709243,909.2865828592011,1
-19.781439452821385,-73.3077514906713,-54.67795778105057,-113.71567217828901,122.26158986495895,12.32376563528635,-77.40832507433106,-1.032520325203258,2.134453781512603,5.267281105990788,-2.613168724279854,29.464000000000006,-6.684210526315796,-10.458823529411763,22.882882882882893,10.067167609449621,110.74732397080912,49.25571624151442,738.3170475781225,80.56712715000363,910.8868315349537,1
-19.781439452821385,-73.3077514906713,-54.67795778105057,-113.71567217828901,122.26158986495895,12.32376563528635,-77.40832507433106,19.61788617886178,29.882352941176467,-23.995391705069117,-3.658436213991788,2.0320000000000036,5.655870445344123,17.43137254901961,28.603603603603617,16.359614204633314,126.28863159902244,49.25571624151442,738.3170475781225,80.56712715000363,910.8868315349537,1
-19.781439452821385,-73.3077514906713,-54.67795778105057,-113.71567217828901,122.26158986495895,12.32376563528635,-77.40832507433106,1.0325203252032464,8.537815126050418,41.552995391705075,-5.748971193415656,-11.175999999999997,-16.967611336032395,-1.4941176470588218,16.01801801801803,12.816006129685455,170.1820679206766,49.25571624151442,738.3170475781225,80.56712715000363,910.8868315349537,1
-17.94543758743976,-75.65281784958647,-55.34298805432827,-113.78414809489577,122.40303494361689,11.92244897959182,-77.15659068384525,1.0325203252032464,8.537815126050418,41.552995391705075,-5.748971193415656,-11.175999999999997,-16.967611336032395,-1.4941176470588218,16.01801801801803,12.816006129685455,170.1820679206766,49.64708116378483,856.867950659305,81.59331799960351,880.30945324607,1
-17.94543758743976,-75.65281784958647,-55.34298805432827,-113.78414809489577,122.40303494361689,11.92244897959182,-77.15659068384525,-8.260162601626021,-22.411764705882355,33.3594470046083,0.5226337448559484,1.0160000000000036,-2.570850202429156,-4.482352941176469,13.72972972972974,10.7941176162885,138.2540037302196,49.64708116378483,856.867950659305,81.59331799960351,880.30945324607,1
-17.94543758743976,-75.65281784958647,-55.34298805432827,-113.78414809489577,122.40303494361689,11.92244897959182,-77.15659068384525,5.162601626016254,8.537815126050418,-7.608294930875573,-12.02057613168726,-3.0479999999999965,0.5141700404858236,5.4784313725490215,22.882882882882893,8.156596513818405,47.55440366007976,49.64708116378483,856.867950659305,81.59331799960351,880.30945324607,1
-15.003886211720811,-79.61011733025583,-55.7378497790869,-113.92109992810929,122.70360573576502,12.223436471362731,-80.42913776015848,5.162601626016254,8.537815126050418,-7.608294930875573,-12.02057613168726,-3.0479999999999965,0.5141700404858236,5.4784313725490215,22.882882882882893,8.156596513818405,47.55440366007976,50.11728444035452,1067.1843408806108,83.08968901248402,855.4032137947515,1
-15.003886211720811,-79.61011733025583,-55.7378497790869,-113.92109992810929,122.70360573576502,12.223436471362731,-80.42913776015848,1.0325203252032464,1.0672268907563005,18.14285714285715,-3.658436213991788,-8.127999999999997,-4.6275303643724754,-3.48627450980392,10.297297297297307,6.305017843035273,33.19905073545133,50.11728444035452,1067.1843408806108,83.08968901248402,855.4032137947515,1
-15.003886211720811,-79.61011733025583,-55.7378497790869,-113.92109992810929,122.70360573576502,12.223436471362731,-80.42913776015848,-1.032520325203258,-8.537815126050422,-6.437788018433174,-1.5679012345679197,22.352000000000004,-0.514170040485836,-2.490196078431371,18.30630630630632,7.654837141184789,70.04139469365666,50.11728444035452,1067.1843408806108,83.08968901248402,855.4032137947515,1
-15.02362816726255,-81.75976149259473,-55.67550319096712,-113.78414809489577,123.05721843240988,12.725082290980879,-84.83448959365705,-1.032520325203258,-8.537815126050422,-6.437788018433174,-1.5679012345679197,22.352000000000004,-0.514170040485836,-2.490196078431371,18.30630630630632,7.654837141184789,70.04139469365666,50.81963095027479,1131.1124942175727,83.73980425948588,847.0940801617567,1
-15.02362816726255,-81.75976149259473,-55.67550319096712,-113.78414809489577,123.05721843240988,12.725082290980879,-84.83448959365705,6.195121951219506,20.277310924369743,31.01843317972351,-1.5679012345679197,-1.0159999999999965,0.5141700404858236,-2.490196078431371,19.45045045045046,10.316197982406042,135.51094072682673,50.81963095027479,1131.1124942175727,83.73980425948588,847.0940801617567,1
-15.02362816726255,-81.75976149259473,-55.67550319096712,-113.78414809489577,123.05721843240988,12.725082290980879,-84.83448959365705,5.162601626016254,13.87394957983193,15.801843317972356,-0.5226337448559857,-13.207999999999997,-11.825910931174095,-13.44705882352941,18.30630630630632,11.518538041210792,33.99203669299231,50.81963095027479,1131.1124942175727,83.73980425948588,847.0940801617567,1
-14.885434478470383,-82.05289478745914,-55.841760759286544,-113.53306973400433,123.42851176388697,13.460829493087545,-90.37264618434097,5.162601626016254,13.87394957983193,15.801843317972356,-0.5226337448559857,-13.207999999999997,-11.825910931174095,-13.44705882352941,18.30630630630632,11.518538041210792,33.99203669299231,50.926696675072016,1145.9853223038467,83.80924176025,834.3853488207119,1
-14.885434478470383,-82.05289478745914,-55.841760759286544,-113.53306973400433,123.42851176388697,13.460829493087545,-90.37264618434097,9.292682926829261,9.60504201680672,-21.654377880184327,-20.382716049382733,2.0320000000000036,-9.769230769230775,-6.474509803921567,16.01801801801803,11.903572183046677,46.78297279483975,50.926696675072016,1145.9853223038467,83.80924176025,834.3853488207119,1
-14.885434478470383,-82.05289478745914,-55.841760759286544,-113.53306973400433,123.42851176388697,13.460829493087545,-90.37264618434097,1.0325203252032464,-8.537815126050422,15.801843317972356,-0.5226337448559857,-5.0799999999999965,-0.514170040485836,3.4862745098039234,12.585585585585596,5.945105331244671,33.971344249882044,50.926696675072016,1145.9853223038467,83.80924176025,834.3853488207119,1
-20.274988341364836,-81.95518368917101,-53.59728358697432,-112.77983465132999,123.92356953918977,12.925740618828172,-92.88999008919723,1.0325203252032464,-8.537815126050422,15.801843317972356,-0.5226337448559857,-5.0799999999999965,-0.514170040485836,3.4862745098039234,12.585585585585596,5.945105331244671,33.971344249882044,51.942485205836725,953.1653927975443,82.7774339758251,876.1506592716937,1
-20.274988341364836,-81.95518368917101,-53.59728358697432,-112.77983465132999,123.92356953918977,12.925740618828172,-92.88999008919723,-2.0650406504065097,-1.7763568394002505e-15,-14.63133640552995,-19.337448559670797,-17.272,-10.797570850202435,1.4941176470588253,16.01801801801803,10.201941516360819,61.90846258650056,51.942485205836725,953.1653927975443,82.7774339758251,876.1506592716937,1
-20.274988341364836,-81.95518368917101,-53.59728358697432,-112.77983465132999,123.92356953918977,12.925740618828172,-92.88999008919723,7.227642276422758,-19.210084033613448,-28.677419354838705,-2.613168724279854,-3.0479999999999965,-0.514170040485836,0.4980392156862763,19.45045045045046,10.154871761972167,116.23436424125448,51.942485205836725,953.1653927975443,82.7774339758251,876.1506592716937,1
-22.68350691745686,-81.07578380457781,-52.828342333496984,-112.09507548526241,124.50703048865378,11.621461487820909,-93.64519326065397,7.227642276422758,-19.210084033613448,-28.677419354838705,-2.613168724279854,-3.0479999999999965,-0.514170040485836,0.4980392156862763,19.45045045045046,10.154871761972167,116.23436424125448,52.195877685177216,852.7145086640805,81.99973387444574,878.7766774193495,1
-22.68350691745686,-81.07578380457781,-52.828342333496984,-112.09507548526241,124.50703048865378,11.621461487820909,-93.64519326065397,6.195121951219506,7.470588235294116,45.06451612903226,-4.703703703703722,3.552713678800501e-15,-3.599190283400816,4.482352941176472,21.73873873873875,11.656776497820706,223.671368717603,52.195877685177216,852.7145086640805,81.99973387444574,878.7766774193495,1
-22.68350691745686,-81.07578380457781,-52.828342333496984,-112.09507548526241,124.50703048865378,11.621461487820909,-93.64519326065397,-5.329070518200751e-15,11.739495798319325,22.824884792626733,-10.975308641975326,-7.1119999999999965,0.5141700404858236,1.4941176470588253,21.73873873873875,9.549839457400598,82.18616031571175,52.195877685177216,852.7145086640805,81.99973387444574,878.7766774193495,1
-22.130732162288197,-80.14752837084055,-51.539846179021445,-111.75269590222862,125.17889461227901,10.11652402896641,-94.14866204162536,-5.329070518200751e-15,11.739495798319325,22.824884792626733,-10.975308641975326,-7.1119999999999965,0.5141700404858236,1.4941176470588253,21.73873873873875,9.549839457400598,82.18616031571175,51.27270223738339,841.5406849903391,81.14669015069687,907.145561144127,1
-22.130732162288197,-80.14752837084055,-51.539846179021445,-111.75269590222862,125.17889461227901,10.11652402896641,-94.14866204162536,10.325203252032514,12.806722689075627,0.5852534562212028,-7.839506172839524,-20.319999999999997,-0.514170040485836,3.4862745098039234,24.02702702702704,9.988019643435708,76.70813774816342,51.27270223738339,841.5406849903391,81.14669015069687,907.145561144127,1
-22.130732162288197,-80.14752837084055,-51.539846179021445,-111.75269590222862,125.17889461227901,10.11652402896641,-94.14866204162536,-1.032520325203258,6.403361344537813,16.97235023041475,-19.337448559670797,-55.879999999999995,-14.910931174089074,-6.474509803921567,18.30630630630632,17.414678468017946,285.69270156809677,51.27270223738339,841.5406849903391,81.14669015069687,907.145561144127,1
-20.847505052075235,-80.09867282169648,-51.477499590901665,-111.52444284687277,125.83307810107198,8.812244897959147,-95.2814667988107,-1.032520325203258,6.403361344537813,16.97235023041475,-19.337448559670797,-55.879999999999995,-14.910931174089074,-6.474509803921567,18.30630630630632,17.414678468017946,285.69270156809677,50.80789248822446,878.0115007699178,81.03353841982364,902.0643288613749,1
-20.847505052075235,-80.09867282169648,-51.477499590901665,-111.52444284687277,125.83307810107198,8.812244897959147,-95.2814667988107,10.325203252032514,28.815126050420165,31.01843317972351,2.6131687242798165,7.112000000000004,-9.769230769230775,-9.462745098039214,19.45045045045046,14.820794690522057,108.93249978191953,50.80789248822446,878.0115007699178,81.03353841982364,902.0643288613749,1
-20.847505052075235,-80.09867282169648,-51.477499590901665,-111.52444284687277,125.83307810107198,8.812244897959147,-95.2814667988107,2.065040650406498,11.739495798319325,27.50691244239632,0.5226337448559484,6.096000000000004,-8.740890688259114,-3.48627450980392,19.45045045045046,9.950962285561449,87.26412115277277,50.80789248822446,878.0115007699178,81.03353841982364,902.0643288613749,1
-20.274988341364836,-78.6330063473745,-52.53739158893799,-111.18206326383898,126.34581651120703,8.009611586570088,-96.9177403369672,2.065040650406498,11.739495798319325,27.50691244239632,0.5226337448559484,6.096000000000004,-8.740890688259114,-3.48627450980392,19.45045045045046,9.950962285561449,87.26412115277277,50.48179542589244,854.583673086583,80.78415373338383,863.2699552714847,1
-20.274988341364836,-78.6330063473745,-52.53739158893799,-111.18206326383898,126.34581651120703,8.009611586570088,-96.9177403369672,-4.130081300813014,6.403361344537813,42.72350230414747,-4.703703703703722,-7.1119999999999965,-6.684210526315796,-6.474509803921567,16.01801801801803,11.781173375182178,169.8385871061005,50.48179542589244,854.583673086583,80.78415373338383,863.2699552714847,1
-20.274988341364836,-78.6330063473745,-52.53739158893799,-111.18206326383898,126.34581651120703,8.009611586570088,-96.9177403369672,19.61788617886178,23.478991596638654,-5.267281105990779,9.930041152263355,10.160000000000004,4.627530364372463,9.462745098039218,26.315315315315324,13.607473851435195,69.69238818930833,50.48179542589244,854.583673086583,80.78415373338383,863.2699552714847,1
-20.432923985698736,-78.14445085593384,-53.45180821469482,-110.70273184759168,126.75247111234862,7.3741935483870975,-98.55401387512393,19.61788617886178,23.478991596638654,-5.267281105990779,9.930041152263355,10.160000000000004,4.627530364372463,9.462745098039218,26.315315315315324,13.607473851435195,69.69238818930833,50.67639435210913,838.4322750049417,80.76633030607344,824.5727530932452,1
-20.432923985698736,-78.14445085593384,-53.45180821469482,-110.70273184759168,126.75247111234862,7.3741935483870975,-98.55401387512393,5.162601626016254,20.277310924369743,59.11059907834102,-0.5226337448559857,3.0480000000000036,-4.6275303643724754,0.4980392156862763,20.594594594594604,14.230163693529544,395.32387202803244,50.67639435210913,838.4322750049417,80.76633030607344,824.5727530932452,1
-20.432923985698736,-78.14445085593384,-53.45180821469482,-110.70273184759168,126.75247111234862,7.3741935483870975,-98.55401387512393,4.130081300813003,6.403361344537813,0.5852534562212028,-5.748971193415656,-23.367999999999995,-20.052631578947373,-8.466666666666665,13.72972972972974,10.310586908791432,64.1927943368178,50.67639435210913,838.4322750049417,80.76633030607344,824.5727530932452,1
-20.926472874242187,-74.38257357184075,-54.28309605629194,-110.17774982027319,126.94695809550328,6.872547728768893,-98.80574826560951,4.130081300813003,6.403361344537813,0.5852534562212028,-5.748971193415656,-23.367999999999995,-20.052631578947373,-8.466666666666665,13.72972972972974,10.310586908791432,64.1927943368178,49.86404750079163,729.0346680498515,79.61447314946862,801.5826597416229,1
-20.926472874242187,-74.38257357184075,-54.28309605629194,-110.17774982027319,126.94695809550328,6.872547728768893,-98.80574826560951,-3.0975609756097615,-9.605042016806724,-11.119815668202762,-0.5226337448559857,6.096000000000004,0.5141700404858236,2.4901960784313744,12.585585585585596,5.7538755137472535,23.277446159768466,49.86404750079163,729.0346680498515,79.61447314946862,801.5826597416229,1
-20.926472874242187,-74.38257357184075,-54.28309605629194,-110.17774982027319,126.94695809550328,6.872547728768893,-98.80574826560951,3.0975609756097504,-7.4705882352941195,-6.437788018433174,-14.111111111111128,13.208000000000004,-0.514170040485836,7.4705882352941195,21.73873873873875,9.25606816937086,46.23897795057237,49.86404750079163,729.0346680498515,79.61447314946862,801.5826597416229,1
-21.18311829628478,-71.93979611463743,-54.844215349369996,-109.60711718188355,127.0,6.504674127715589,-98.42814667988091,3.0975609756097504,-7.4705882352941195,-6.437788018433174,-14.111111111111128,13.208000000000004,-0.514170040485836,7.4705882352941195,21.73873873873875,9.25606816937086,46.23897795057237,49.32237658676407,666.928113279176,78.79704288196366,785.0102292003837,1
-21.18311829628478,-71.93979611463743,-54.844215349369996,-109.60711718188355,127.0,6.504674127715589,-98.42814667988091,5.162601626016254,8.537815126050418,-6.437788018433174,-24.56378600823047,-8.127999999999997,-6.684210526315796,1.4941176470588253,18.30630630630632,9.914328157301407,58.01664432891136,49.32237658676407,666.928113279176,78.79704288196366,785.0102292003837,1
-21.18311829628478,-71.93979611463743,-54.844215349369996,-109.60711718188355,127.0,6.504674127715589,-98.42814667988091,9.292682926829261,23.478991596638654,41.552995391705075,15.156378600823025,12.192000000000004,-0.514170040485836,-0.49803921568627274,19.45045045045046,15.266963527827322,179.54573406062963,49.32237658676407,666.928113279176,78.79704288196366,785.0102292003837,1
-20.68956940774133,-68.9596076168494,-55.30142366224841,-109.196261682243,126.91159682583879,6.304015799868296,-97.42120911793859,9.292682926829261,23.478991596638654,41.552995391705075,15.156378600823025,12.192000000000004,-0.514170040485836,-0.49803921568627274,19.45045045045046,15.266963527827322,179.54573406062963,48.31686689561305,619.087172096952,77.81909765378026,785.0313140862218,1
-20.68956940774133,-68.9596076168494,-55.30142366224841,-109.196261682243,126.91159682583879,6.304015799868296,-97.42120911793859,5.162601626016254,8.537815126050418,15.801843317972356,-7.839506172839524,-33.528,-13.882591093117414,1.4941176470588253,21.73873873873875,13.498151715224193,106.3943318701022,48.31686689561305,619.087172096952,77.81909765378026,785.0313140862218,1
-20.68956940774133,-68.9596076168494,-55.30142366224841,-109.196261682243,126.91159682583879,6.304015799868296,-97.42120911793859,3.0975609756097504,7.470588235294116,23.99539170506913,-13.065843621399194,4.064000000000004,4.627530364372463,7.4705882352941195,16.01801801801803,9.976190144382102,52.288775700373655,48.31686689561305,619.087172096952,77.81909765378026,785.0313140862218,1
-20.274988341364836,-66.46797461050203,-55.55081001472755,-108.89953271028038,126.69942920785189,6.270572745227128,-95.78493557978186,3.0975609756097504,7.470588235294116,23.99539170506913,-13.065843621399194,4.064000000000004,4.627530364372463,7.4705882352941195,16.01801801801803,9.976190144382102,52.288775700373655,47.431257655531475,582.8933430004691,76.97277244516998,794.2846364721818,1
-20.274988341364836,-66.46797461050203,-55.55081001472755,-108.89953271028038,126.69942920785189,6.270572745227128,-95.78493557978186,8.26016260162601,6.403361344537813,9.949308755760374,-0.5226337448559857,10.160000000000004,-0.514170040485836,-1.4941176470588218,19.45045045045046,7.094275573096914,41.41537532937606,47.431257655531475,582.8933430004691,76.97277244516998,794.2846364721818,1
-20.274988341364836,-66.46797461050203,-55.55081001472755,-108.89953271028038,126.69942920785189,6.270572745227128,-95.78493557978186,-5.162601626016265,5.3361344537815105,12.290322580645167,-12.02057613168726,-15.239999999999997,-5.655870445344135,-3.48627450980392,16.01801801801803,9.401224720662036,25.226619688923723,47.431257655531475,582.8933430004691,76.97277244516998,794.2846364721818,1
-20.117052697030932,-65.3442969801885,-55.44689903452791,-108.64845434938894,126.43421968536825,6.270572745227128,-93.77106045589676,-5.162601626016265,5.3361344537815105,12.290322580645167,-12.02057613168726,-15.239999999999997,-5.655870445344135,-3.48627450980392,16.01801801801803,9.401224720662036,25.226619688923723,46.96941623724911,565.2766922957207,76.47988345470179,800.6023365785769,1
-20.117052697030932,-65.3442969801885,-55.44689903452791,-108.64845434938894,126.43421968536825,6.270572745227128,-93.77106045589676,7.227642276422758,23.478991596638654,22.824884792626733,-7.839506172839524,-13.207999999999997,-3.599190283400816,2.4901960784313744,19.45045045045046,12.51485770635129,72.12690125006606,46.96941623724911,565.2766922957207,76.47988345470179,800.6023365785769,1
-20.117052697030932,-65.3442969801885,-55.44689903452791,-108.64845434938894,126.43421968536825,6.270572745227128,-93.77106045589676,2.065040650406498,3.201680672268905,31.01843317972351,-4.703703703703722,12.192000000000004,4.627530364372463,13.447058823529414,17.162162162162172,11.052201194520837,95.28515283941115,46.96941623724911,565.2766922957207,76.47988345470179,800.6023365785769,1
-19.36685838644489,-64.9045970378919,-55.23907707412863,-108.57997843278218,126.23973270221356,6.370901909150746,-92.51238850346863,2.065040650406498,3.201680672268905,31.01843317972351,-4.703703703703722,12.192000000000004,4.627530364372463,13.447058823529414,17.162162162162172,11.052201194520837,95.28515283941115,46.5035108328218,575.6539985390674,76.24121751493423,807.7021623187737,1
-19.36685838644489,-64.9045970378919,-55.23907707412863,-108.57997843278218,126.23973270221356,6.370901909150746,-92.51238850346863,-4.130081300813014,-9.605042016806724,20.483870967741943,3.6584362139917506,27.432000000000002,1.5425101214574832,0.4980392156862763,19.45045045045046,10.850053785868457,104.85145986593953,46.5035108328218,575.6539985390674,76.24121751493423,807.7021623187737,1
-19.36685838644489,-64.9045970378919,-55.23907707412863,-108.57997843278218,126.23973270221356,6.370901909150746,-92.51238850346863,-5.329070518200751e-15,17.075630252100837,59.11059907834102,-6.79423868312759,-9.143999999999997,-10.797570850202435,-6.474509803921567,16.01801801801803,15.676820835713936,337.7709299659015,46.5035108328218,575.6539985390674,76.24121751493423,807.7021623187737,1
-18.932535364526657,-65.14887478361224,-55.07281950580921,-108.534327821711,126.0452457190589,6.571560236997982,-91.75718533201189,-5.329070518200751e-15,17.075630252100837,59.11059907834102,-6.79423868312759,-9.143999999999997,-10.797570850202435,-6.474509803921567,16.01801801801803,15.676820835713936,337.7709299659015,46.3847432179827,590.5995095123509,76.25200737037748,806.9928827822754,1
-18.932535364526657,-65.14887478361224,-55.07281950580921,-108.534327821711,126.0452457190589,6.571560236997982,-91.75718533201189,8.26016260162601,11.739495798319325,27.50691244239632,-12.02057613168726,3.552713678800501e-15,-0.514170040485836,3.4862745098039234,25.17117117117118,11.087345336936231,109.96329377259902,46.3847432179827,590.5995095123509,76.25200737037748,806.9928827822754,1
-18.932535364526657,-65.14887478361224,-55.07281950580921,-108.534327821711,126.0452457190589,6.571560236997982,-91.75718533201189,8.26016260162601,4.268907563025208,5.267281105990788,-18.292181069958865,-27.431999999999995,-9.769230769230775,4.482352941176472,19.45045045045046,12.152820812682322,73.3767959040734,46.3847432179827,590.5995095123509,76.25200737037748,806.9928827822754,1
-19.505052075237057,-65.83285247162917,-54.989690721649495,-108.37455068296191,125.90380064040096,6.705332455562825,-91.12784935579771,8.26016260162601,4.268907563025208,5.267281105990788,-18.292181069958865,-27.431999999999995,-9.769230769230775,4.482352941176472,19.45045045045046,12.152820812682322,73.3767959040734,46.77586508950524,587.1664710284398,76.39903129208018,796.2189194215453,1
-19.505052075237057,-65.83285247162917,-54.989690721649495,-108.37455068296191,125.90380064040096,6.705332455562825,-91.12784935579771,-1.032520325203258,1.0672268907563005,4.0967741935483915,-4.703703703703722,-27.431999999999995,-19.024291497975714,-8.466666666666665,13.72972972972974,9.944114125947975,89.236918097181,46.77586508950524,587.1664710284398,76.39903129208018,796.2189194215453,1
-19.505052075237057,-65.83285247162917,-54.989690721649495,-108.37455068296191,125.90380064040096,6.705332455562825,-91.12784935579771,10.325203252032514,32.01680672268907,22.824884792626733,5.748971193415619,11.176000000000004,-1.542510121457496,-4.482352941176469,19.45045045045046,13.445897434231046,109.29547601254701,46.77586508950524,587.1664710284398,76.39903129208018,796.2189194215453,1
-20.432923985698736,-66.41911906135796,-54.989690721649495,-108.07782171099929,125.76235556174302,6.671889400921657,-90.12091179385516,10.325203252032514,32.01680672268907,22.824884792626733,5.748971193415619,11.176000000000004,-1.542510121457496,-4.482352941176469,19.45045045045046,13.445897434231046,109.29547601254701,47.28057792290207,573.2553494920048,76.49554383133558,780.7381650943544,1
-20.432923985698736,-66.41911906135796,-54.989690721649495,-108.07782171099929,125.76235556174302,6.671889400921657,-90.12091179385516,5.162601626016254,11.739495798319325,16.97235023041475,-14.111111111111128,-3.0479999999999965,2.5708502024291437,-4.482352941176469,20.594594594594604,9.835169563007709,48.27660754072699,47.28057792290207,573.2553494920048,76.49554383133558,780.7381650943544,1
-20.057826830405716,-67.20080784766301,-55.197512682048774,-107.75826743350109,125.63859111791731,6.705332455562825,-89.36570862239842,5.162601626016254,11.739495798319325,16.97235023041475,-14.111111111111128,-3.0479999999999965,2.5708502024291437,-4.482352941176469,20.594594594594604,9.835169563007709,48.27660754072699,47.4853824533725,600.2228792964172,76.71886265440429,758.6032604886773,1
-20.057826830405716,-67.20080784766301,-55.197512682048774,-107.75826743350109,125.63859111791731,6.705332455562825,-89.36570862239842,2.065040650406498,7.470588235294116,11.11981566820277,-12.02057613168726,-17.272,-9.769230769230775,-4.482352941176469,16.01801801801803,10.02720280175199,27.75550103132124,47.4853824533725,600.2228792964172,76.71886265440429,758.6032604886773,1
-20.057826830405716,-67.20080784766301,-55.197512682048774,-107.75826743350109,125.63859111791731,6.705332455562825,-89.36570862239842,12.390243902439018,8.537815126050418,22.824884792626733,-3.658436213991788,11.176000000000004,-2.570850202429156,0.4980392156862763,20.594594594594604,10.28135800597725,67.28842702569844,47.4853824533725,600.2228792964172,76.71886265440429,758.6032604886773,1
-19.44582620861184,-68.61761877284094,-55.67550319096712,-107.53001437814524,125.56786857858833,6.872547728768893,-89.74331020812679,12.390243902439018,8.537815126050418,22.824884792626733,-3.658436213991788,11.176000000000004,-2.570850202429156,0.4980392156862763,20.594594594594604,10.28135800597725,67.28842702569844,47.912982724139965,649.6588389933269,77.27437878065109,728.4272029899112,1
-19.44582620861184,-68.61761877284094,-55.67550319096712,-107.53001437814524,125.56786857858833,6.872547728768893,-89.74331020812679,-8.260162601626021,-13.873949579831933,-42.72350230414746,-20.382716049382733,-2.0319999999999965,-2.570850202429156,-1.4941176470588218,20.594594594594604,13.99148662238384,196.0691359169711,47.912982724139965,649.6588389933269,77.27437878065109,728.4272029899112,1
-19.44582620861184,-68.61761877284094,-55.67550319096712,-107.53001437814524,125.56786857858833,6.872547728768893,-89.74331020812679,13.42276422764227,64.03361344537815,96.56682027649771,-15.156378600823063,-18.287999999999997,-0.514170040485836,0.4980392156862763,22.882882882882893,28.92033358617453,1143.2635671465139,47.912982724139965,649.6588389933269,77.27437878065109,728.4272029899112,1
-18.557438209233634,-69.44816310829006,-55.987236131566036,-107.34741193386054,125.51482667409161,7.240421329822254,-90.49851337958376,13.42276422764227,64.03361344537815,96.56682027649771,-15.156378600823063,-18.287999999999997,-0.514170040485836,0.4980392156862763,22.882882882882893,28.92033358617453,1143.2635671465139,47.99761248302991,695.3420347217962,77.59427039123888,709.2362125096333,1
-18.557438209233634,-69.44816310829006,-55.987236131566036,-107.34741193386054,125.51482667409161,7.240421329822254,-90.49851337958376,13.42276422764227,19.21008403361344,70.81566820276498,4.703703703703685,21.336000000000006,0.5141700404858236,5.4784313725490215,24.02702702702704,19.938481075973286,495.5197005116987,47.99761248302991,695.3420347217962,77.59427039123888,709.2362125096333,1
-18.557438209233634,-69.44816310829006,-55.987236131566036,-107.34741193386054,125.51482667409161,7.240421329822254,-90.49851337958376,-6.195121951219518,-21.344537815126053,-25.165898617511516,7.839506172839487,14.224000000000004,-6.684210526315796,4.482352941176472,13.72972972972974,12.458169719239823,57.52843020948872,47.99761248302991,695.3420347217962,77.59427039123888,709.2362125096333,1
-18.16259909839888,-69.30159646085787,-55.924889543446255,-107.25611071171821,125.46178476959489,7.574851876234334,-91.2537165510405,-6.195121951219518,-21.344537815126053,-25.165898617511516,7.839506172839487,14.224000000000004,-6.684210526315796,4.482352941176472,13.72972972972974,12.458169719239823,57.52843020948872,47.796361700901,703.3539864746718,77.49419890534078,709.0626177665232,1
-18.16259909839888,-69.30159646085787,-55.924889543446255,-107.25611071171821,125.46178476959489,7.574851876234334,-91.2537165510405,6.195121951219506,19.21008403361344,34.5299539170507,-10.975308641975326,-3.0479999999999965,-2.570850202429156,-9.462745098039214,10.297297297297307,12.03617014270308,110.38632848845428,47.796361700901,703.3539864746718,77.49419890534078,709.0626177665232,1
-18.16259909839888,-69.30159646085787,-55.924889543446255,-107.25611071171821,125.46178476959489,7.574851876234334,-91.2537165510405,1.0325203252032464,-1.067226890756304,-9.949308755760363,-0.5226337448559857,7.112000000000004,-2.570850202429156,6.4745098039215705,14.873873873873883,5.4503654496000635,26.30804427339786,47.796361700901,703.3539864746718,77.49419890534078,709.0626177665232,1
-17.432146743354576,-68.91075206770533,-56.15349369988546,-107.27893601725378,125.39106223026593,8.076497695852538,-92.26065411298305,1.0325203252032464,-1.067226890756304,-9.949308755760363,-0.5226337448559857,7.112000000000004,-2.570850202429156,6.4745098039215705,14.873873873873883,5.4503654496000635,26.30804427339786,47.49879750364846,718.689526221938,77.44772726161487,708.1126721327089,1
-17.432146743354576,-68.91075206770533,-56.15349369988546,-107.27893601725378,125.39106223026593,8.076497695852538,-92.26065411298305,16.52032520325203,44.8235294117647,9.949308755760374,-15.156378600823063,5.080000000000004,-1.542510121457496,0.4980392156862763,25.17117117117118,14.84265780998939,215.76574321507482,47.49879750364846,718.689526221938,77.44772726161487,708.1126721327089,1
-17.432146743354576,-68.91075206770533,-56.15349369988546,-107.27893601725378,125.39106223026593,8.076497695852538,-92.26065411298305,-5.329070518200751e-15,3.201680672268905,23.99539170506913,-8.884773662551458,-27.431999999999995,-7.712550607287455,-5.478431372549018,16.01801801801803,11.590355754717999,98.409455067643,47.49879750364846,718.689526221938,77.44772726161487,708.1126721327089,1
-16.2476294108503,-68.61761877284094,-56.17427589592539,-107.4158878504673,125.26729778644022,8.778801843317979,-93.51932606541118,-5.329070518200751e-15,3.201680672268905,23.99539170506913,-8.884773662551458,-27.431999999999995,-7.712550607287455,-5.478431372549018,16.01801801801803,11.590355754717999,98.409455067643,47.01317469320554,748.5982778786095,77.40259417307789,714.3075435120392,1
-16.2476294108503,-68.61761877284094,-56.17427589592539,-107.4158878504673,125.26729778644022,8.778801843317979,-93.51932606541118,8.26016260162601,-1.067226890756304,-21.654377880184327,-6.79423868312759,-9.143999999999997,-3.599190283400816,-1.4941176470588218,19.45045045045046,8.93297055457554,60.454090519468096,47.01317469320554,748.5982778786095,77.40259417307789,714.3075435120392,1
-16.2476294108503,-68.61761877284094,-56.17427589592539,-107.4158878504673,125.26729778644022,8.778801843317979,-93.51932606541118,-2.0650406504065097,-5.336134453781515,28.677419354838715,-3.658436213991788,-3.0479999999999965,-2.570850202429156,-6.474509803921567,19.45045045045046,8.910105141227465,95.64804940711437,47.01317469320554,748.5982778786095,77.40259417307789,714.3075435120392,1
-15.359241411472093,-68.61761877284094,-56.31975126820488,-107.64414090582316,125.14353334261452,9.64832126398943,-95.15559960356791,-2.0650406504065097,-5.336134453781515,28.677419354838715,-3.658436213991788,-3.0479999999999965,-2.570850202429156,-6.474509803921567,19.45045045045046,8.910105141227465,95.64804940711437,46.765537150839315,777.5759453418424,77.527170315623,718.0833244386323,1
-15.359241411472093,-68.61761877284094,-56.31975126820488,-107.64414090582316,125.14353334261452,9.64832126398943,-95.15559960356791,1.0325203252032464,3.201680672268905,50.91705069124425,-6.79423868312759,-14.223999999999997,-5.655870445344135,3.4862745098039234,11.441441441441452,12.094134596054186,265.32165620250623,46.765537150839315,777.5759453418424,77.527170315623,718.0833244386323,1
-15.359241411472093,-68.61761877284094,-56.31975126820488,-107.64414090582316,125.14353334261452,9.64832126398943,-95.15559960356791,2.065040650406498,5.3361344537815105,-16.97235023041474,-9.930041152263392,-21.336,-5.655870445344135,0.4980392156862763,18.30630630630632,10.012472806775358,62.85583998714715,46.765537150839315,777.5759453418424,77.527170315623,718.0833244386323,1
-15.003886211720811,-67.98249663396808,-56.4028800523646,-107.8952192667146,124.96672699429209,10.618169848584557,-96.66600594648162,2.065040650406498,5.3361344537815105,-16.97235023041474,-9.930041152263392,-21.336,-5.655870445344135,0.4980392156862763,18.30630630630632,10.012472806775358,62.85583998714715,46.4630876326845,775.7828955778093,77.42686531768243,729.762324316865,1
-15.003886211720811,-67.98249663396808,-56.4028800523646,-107.8952192667146,124.96672699429209,10.618169848584557,-96.66600594648162,-2.0650406504065097,-4.268907563025213,13.460829493087562,15.156378600823025,3.552713678800501e-15,-4.6275303643724754,3.4862745098039234,22.882882882882893,8.243480508050201,63.85034525325018,46.4630876326845,775.7828955778093,77.42686531768243,729.762324316865,1
-15.003886211720811,-67.98249663396808,-56.4028800523646,-107.8952192667146,124.96672699429209,10.618169848584557,-96.66600594648162,9.292682926829261,11.739495798319325,9.949308755760374,-10.975308641975326,19.304000000000002,-0.514170040485836,-4.482352941176469,13.72972972972974,9.998381104284542,32.19723108578963,46.4630876326845,775.7828955778093,77.42686531768243,729.762324316865,1
-15.181563811596453,-67.93364108482402,-56.27818687612503,-108.07782171099929,124.75455937630517,11.521132323897291,-97.79881070366696,9.292682926829261,11.739495798319325,9.949308755760374,-10.975308641975326,19.304000000000002,-0.514170040485836,-4.482352941176469,13.72972972972974,9.998381104284542,32.19723108578963,46.464463924181835,767.9272827932655,77.42988322398278,738.4345033307306,1
-15.181563811596453,-67.93364108482402,-56.27818687612503,-108.07782171099929,124.75455937630517,11.521132323897291,-97.79881070366696,-3.0975609756097615,-8.537815126050422,-22.824884792626726,-25.609053497942405,-28.447999999999997,-19.024291497975714,16.43529411764706,24.02702702702704,18.50049087935989,77.11030675059565,46.464463924181835,767.9272827932655,77.42988322398278,738.4345033307306,1
-15.181563811596453,-67.93364108482402,-56.27818687612503,-108.07782171099929,124.75455937630517,11.521132323897291,-97.79881070366696,9.292682926829261,3.201680672268905,-9.949308755760363,-13.065843621399194,9.144000000000004,-5.655870445344135,0.4980392156862763,24.02702702702704,9.354306583039397,51.34757049692644,46.464463924181835,767.9272827932655,77.42988322398278,738.4345033307306,1
-15.793564433390328,-68.03135218311215,-56.215840288005246,-108.14629762760605,124.52471112348601,12.32376563528635,-98.55401387512393,9.292682926829261,3.201680672268905,-9.949308755760363,-13.065843621399194,9.144000000000004,-5.655870445344135,0.4980392156862763,24.02702702702704,9.354306583039397,51.34757049692644,46.68025230150258,750.3921959324973,77.46449669957448,740.9312614763721,1
-15.793564433390328,-68.03135218311215,-56.215840288005246,-108.14629762760605,124.52471112348601,12.32376563528635,-98.55401387512393,6.195121951219506,-1.067226890756304,-12.290322580645157,-3.658436213991788,5.080000000000004,6.684210526315782,-6.474509803921567,18.30630630630632,7.4695167841445524,29.304349161079735,46.68025230150258,750.3921959324973,77.46449669957448,740.9312614763721,1
-15.793564433390328,-68.03135218311215,-56.215840288005246,-108.14629762760605,124.52471112348601,12.32376563528635,-98.55401387512393,8.26016260162601,24.546218487394956,46.23502304147466,7.839506172839487,7.112000000000004,-2.570850202429156,2.4901960784313744,30.891891891891902,16.243231059510943,253.83453926104653,46.68025230150258,750.3921959324973,77.46449669957448,740.9312614763721,1
-16.42530701072594,-68.22677437968841,-55.94567173948618,-108.19194823867723,124.3125435054991,12.992626728110565,-99.05748265609509,8.26016260162601,24.546218487394956,46.23502304147466,7.839506172839487,7.112000000000004,-2.570850202429156,2.4901960784313744,30.891891891891902,16.243231059510943,253.83453926104653,46.865917709966844,732.6794553218502,77.45479811928394,746.2856686113846,1
-16.42530701072594,-68.22677437968841,-55.94567173948618,-108.19194823867723,124.3125435054991,12.992626728110565,-99.05748265609509,6.195121951219506,16.008403361344534,14.631336405529959,-5.748971193415656,-6.0959999999999965,-6.684210526315796,0.4980392156862763,14.873873873873883,8.841994565923201,31.37832845290788,46.865917709966844,732.6794553218502,77.45479811928394,746.2856686113846,1
-16.42530701072594,-68.22677437968841,-55.94567173948618,-108.19194823867723,124.3125435054991,12.992626728110565,-99.05748265609509,-2.0650406504065097,2.134453781512603,12.290322580645167,-2.613168724279854,-4.0639999999999965,-4.6275303643724754,-2.490196078431371,11.441441441441452,5.215769202636178,17.72925296998992,46.865917709966844,732.6794553218502,77.45479811928394,746.2856686113846,1
-17.353178921187624,-69.00846316599348,-55.86254295532647,-108.12347232207047,124.17109842684116,13.42738643844632,-99.43508424182346,-2.0650406504065097,2.134453781512603,12.290322580645167,-2.613168724279854,-4.0639999999999965,-4.6275303643724754,-2.490196078431371,11.441441441441452,5.215769202636178,17.72925296998992,47.40806168083586,720.6757878184562,77.6648261477968,739.0006496235027,1
-17.353178921187624,-69.00846316599348,-55.86254295532647,-108.12347232207047,124.17109842684116,13.42738643844632,-99.43508424182346,13.42276422764227,33.08403361344537,43.894009216589865,-8.884773662551458,6.096000000000004,-0.514170040485836,-0.49803921568627274,21.73873873873875,16.016566089392477,248.3357721803313,47.40806168083586,720.6757878184562,77.6648261477968,739.0006496235027,1
-17.353178921187624,-69.00846316599348,-55.86254295532647,-108.12347232207047,124.17109842684116,13.42738643844632,-99.43508424182346,8.26016260162601,3.201680672268905,-1.7557603686635908,-7.839506172839524,2.0320000000000036,-3.599190283400816,-0.49803921568627274,22.882882882882893,6.258652774671002,52.944755313669546,47.40806168083586,720.6757878184562,77.6648261477968,739.0006496235027,1
-17.94543758743976,-69.44816310829006,-55.904107347406324,-107.98652048885695,124.04733398301548,13.761816984858456,-99.68681863230904,8.26016260162601,3.201680672268905,-1.7557603686635908,-7.839506172839524,2.0320000000000036,-3.599190283400816,-0.49803921568627274,22.882882882882893,6.258652774671002,52.944755313669546,47.76590268104538,712.8054654126955,77.77959698151777,730.204032447162,1
-17.94543758743976,-69.44816310829006,-55.904107347406324,-107.98652048885695,124.04733398301548,13.761816984858456,-99.68681863230904,8.26016260162601,-1.067226890756304,11.11981566820277,-16.201646090534997,-22.351999999999997,-15.939271255060735,-13.44705882352941,13.72972972972974,12.764613882429995,39.29015671950054,47.76590268104538,712.8054654126955,77.77959698151777,730.204032447162,1
-17.94543758743976,-69.44816310829006,-55.904107347406324,-107.98652048885695,124.04733398301548,13.761816984858456,-99.68681863230904,7.227642276422758,24.546218487394956,16.97235023041475,-8.884773662551458,-14.223999999999997,-0.514170040485836,12.450980392156865,19.45045045045046,13.033823192484636,56.94923378053208,47.76590268104538,712.8054654126955,77.77959698151777,730.204032447162,1
-18.360018653816255,-69.79015195229853,-55.904107347406324,-107.84956865564344,123.95893080885426,13.995918367346917,-99.81268582755206,7.227642276422758,24.546218487394956,16.97235023041475,-8.884773662551458,-14.223999999999997,-0.514170040485836,12.450980392156865,19.45045045045046,13.033823192484636,56.94923378053208,48.0180926511737,707.9065736168114,77.84794265178276,723.2787308489108,1
-18.360018653816255,-69.79015195229853,-55.904107347406324,-107.84956865564344,123.95893080885426,13.995918367346917,-99.81268582755206,2.065040650406498,-2.1344537815126063,8.778801843317979,-8.884773662551458,3.552713678800501e-15,-2.570850202429156,1.4941176470588253,18.30630630630632,5.529293011697856,37.74352998363759,48.0180926511737,707.9065736168114,77.84794265178276,723.2787308489108,1
-18.360018653816255,-69.79015195229853,-55.904107347406324,-107.84956865564344,123.95893080885426,13.995918367346917,-99.81268582755206,-4.130081300813014,-3.2016806722689104,18.14285714285715,-16.201646090534997,3.0480000000000036,1.5425101214574832,2.4901960784313744,9.153153153153163,7.2387655699395115,43.0597209777363,48.0180926511737,707.9065736168114,77.84794265178276,723.2787308489108,1
-18.478470387066682,-69.93671859973072,-56.00801832760597,-107.75826743350109,123.90588890435751,14.096247531270535,-99.81268582755206,-4.130081300813014,-3.2016806722689104,18.14285714285715,-16.201646090534997,3.0480000000000036,1.5425101214574832,2.4901960784313744,9.153153153153163,7.2387655699395115,43.0597209777363,48.141069104801126,708.4044948346778,77.9010014536126,717.0944216630273,1
-18.478470387066682,-69.93671859973072,-56.00801832760597,-107.75826743350109,123.90588890435751,14.096247531270535,-99.81268582755206,3.0975609756097504,18.14285714285714,18.14285714285715,-3.658436213991788,-13.207999999999997,-7.712550607287455,-5.478431372549018,16.01801801801803,10.68233893414629,41.27592310130569,48.141069104801126,708.4044948346778,77.9010014536126,717.0944216630273,1
-18.478470387066682,-69.93671859973072,-56.00801832760597,-107.75826743350109,123.90588890435751,14.096247531270535,-99.81268582755206,9.292682926829261,21.344537815126046,7.608294930875582,-3.658436213991788,1.0160000000000036,-3.599190283400816,-0.49803921568627274,22.882882882882893,8.737508033599083,77.18885478535978,48.141069104801126,708.4044948346778,77.9010014536126,717.0944216630273,1
-18.22182496502409,-70.03442969801885,-56.00801832760597,-107.73544212796551,123.85284699986079,14.296905859117828,-100.19028741328043,9.292682926829261,21.344537815126046,7.608294930875582,-3.658436213991788,1.0160000000000036,-3.599190283400816,-0.49803921568627274,22.882882882882893,8.737508033599083,77.18885478535978,48.088090996882976,718.1804389973377,77.9259633845301,715.6388211995072,1
-18.22182496502409,-70.03442969801885,-56.00801832760597,-107.73544212796551,123.85284699986079,14.296905859117828,-100.19028741328043,1.0325203252032464,-13.873949579831933,33.3594470046083,3.6584362139917506,7.112000000000004,-5.655870445344135,-2.490196078431371,17.162162162162172,10.543072726196613,116.26409659367548,48.088090996882976,718.1804389973377,77.9259633845301,715.6388211995072,1
-18.22182496502409,-70.03442969801885,-56.00801832760597,-107.73544212796551,123.85284699986079,14.296905859117828,-100.19028741328043,21.682926829268286,34.15126050420167,27.50691244239632,-3.658436213991788,-2.0319999999999965,-8.740890688259114,-1.4941176470588218,27.45945945945947,15.840750473079433,176.5462555035524,48.088090996882976,718.1804389973377,77.9259633845301,715.6388211995072,1
-17.984921498523235,-69.79015195229853,-55.96645393552611,-107.75826743350109,123.79980509536406,14.464121132323896,-100.31615460852322,21.682926829268286,34.15126050420167,27.50691244239632,-3.658436213991788,-2.0319999999999965,-8.740890688259114,-1.4941176470588218,27.45945945945947,15.840750473079433,176.5462555035524,47.91384246211596,719.5788892484644,77.83829110710857,719.1773942436457,1
-17.984921498523235,-69.79015195229853,-55.96645393552611,-107.75826743350109,123.79980509536406,14.464121132323896,-100.31615460852322,5.162601626016254,11.739495798319325,15.801843317972356,-1.5679012345679197,22.352000000000004,-1.542510121457496,-3.48627450980392,22.882882882882893,10.566938686377522,80.15927407510819,47.91384246211596,719.5788892484644,77.83829110710857,719.1773942436457,1
-17.984921498523235,-69.79015195229853,-55.96645393552611,-107.75826743350109,123.79980509536406,14.464121132323896,-100.31615460852322,-2.0650406504065097,-8.537815126050422,20.483870967741943,-9.930041152263392,-10.159999999999997,-2.570850202429156,-4.482352941176469,10.297297297297307,8.56590854217065,34.90224916886648,47.91384246211596,719.5788892484644,77.83829110710857,719.1773942436457,1
-18.083631276231927,-69.44816310829006,-55.841760759286544,-107.80391804457226,123.74676319086734,14.59789335088874,-100.19028741328043,-2.0650406504065097,-8.537815126050422,20.483870967741943,-9.930041152263392,-10.159999999999997,-2.570850202429156,-4.482352941176469,10.297297297297307,8.56590854217065,34.90224916886648,47.791185047936175,708.1876095447667,77.69794730404963,726.0606518926459,1
-18.083631276231927,-69.44816310829006,-55.841760759286544,-107.80391804457226,123.74676319086734,14.59789335088874,-100.19028741328043,27.8780487804878,75.77310924369748,81.35023041474655,-13.065843621399194,6.096000000000004,6.684210526315782,12.450980392156865,34.32432432432434,32.202843412891,918.0238563916789,47.791185047936175,708.1876095447667,77.69794730404963,726.0606518926459,1
-18.083631276231927,-69.44816310829006,-55.841760759286544,-107.80391804457226,123.74676319086734,14.59789335088874,-100.19028741328043,11.357723577235767,26.68067226890756,-11.119815668202762,-32.92592592592594,-23.367999999999995,-21.080971659919033,-12.450980392156861,26.315315315315324,20.662425600957903,67.30427506111536,47.791185047936175,708.1876095447667,77.69794730404963,726.0606518926459,1
-17.728276076480643,-68.9596076168494,-55.924889543446255,-107.87239396117901,123.6406793818739,14.798551678735976,-100.06442021803764,11.357723577235767,26.68067226890756,-11.119815668202762,-32.92592592592594,-23.367999999999995,-21.080971659919033,-12.450980392156861,26.315315315315324,20.662425600957903,67.30427506111536,47.53759107892543,708.9224144995106,77.58563037382488,730.4420052604855,1
-17.728276076480643,-68.9596076168494,-55.924889543446255,-107.87239396117901,123.6406793818739,14.798551678735976,-100.06442021803764,-11.357723577235777,-16.00840336134454,-21.654377880184327,-8.884773662551458,-8.127999999999997,-7.712550607287455,-0.49803921568627274,9.153153153153163,10.424627682180374,39.04447507539247,47.53759107892543,708.9224144995106,77.58563037382488,730.4420052604855,1
-17.728276076480643,-68.9596076168494,-55.924889543446255,-107.87239396117901,123.6406793818739,14.798551678735976,-100.06442021803764,-12.390243902439028,-10.672268907563026,22.824884792626733,1.5679012345678824,5.080000000000004,-3.599190283400816,-7.470588235294116,1.0658141036401503e-14,7.950634669486452,54.2455248245184,47.53759107892543,708.9224144995106,77.58563037382488,730.4420052604855,1
-17.905953676356283,-68.9596076168494,-55.717067583046976,-107.94086987778577,123.56995684254491,14.965766951942044,-99.93855302279485,-12.390243902439028,-10.672268907563026,22.824884792626733,1.5679012345678824,5.080000000000004,-3.599190283400816,-7.470588235294116,1.0658141036401503e-14,7.950634669486452,54.2455248245184,47.52754295875088,701.920130347871,77.53918169256072,737.0382000204545,1
-17.905953676356283,-68.9596076168494,-55.717067583046976,-107.94086987778577,123.56995684254491,14.965766951942044,-99.93855302279485,10.325203252032514,13.87394957983193,21.654377880184338,-2.613168724279854,5.080000000000004,-2.570850202429156,-2.490196078431371,20.594594594594604,9.900292538972971,64.78068088985597,47.52754295875088,701.920130347871,77.53918169256072,737.0382000204545,1
-17.905953676356283,-68.9596076168494,-55.717067583046976,-107.94086987778577,123.56995684254491,14.965766951942044,-99.93855302279485,-5.329070518200751e-15,-1.7763568394002505e-15,43.894009216589865,1.5679012345678824,-14.223999999999997,-1.542510121457496,3.4862745098039234,20.594594594594604,10.66366120962672,237.20370659800952,47.52754295875088,701.920130347871,77.53918169256072,737.0382000204545,1
-17.886211720814547,-68.76418542027314,-55.61315660284733,-108.05499640546371,123.4815536683837,15.132982225148112,-99.68681863230904,-5.329070518200751e-15,-1.7763568394002505e-15,43.894009216589865,1.5679012345678824,-14.223999999999997,-1.542510121457496,3.4862745098039234,20.594594594594604,10.66366120962672,237.20370659800952,47.42118458131167,697.4733561419173,77.4774461428614,744.4773247856692,1
-17.886211720814547,-68.76418542027314,-55.61315660284733,-108.05499640546371,123.4815536683837,15.132982225148112,-99.68681863230904,-5.329070518200751e-15,9.60504201680672,22.824884792626733,-3.658436213991788,16.256000000000004,-6.684210526315796,4.482352941176472,14.873873873873883,9.798100045598925,58.407722244274204,47.42118458131167,697.4733561419173,77.4774461428614,744.4773247856692,1
-17.886211720814547,-68.76418542027314,-55.61315660284733,-108.05499640546371,123.4815536683837,15.132982225148112,-99.68681863230904,-3.0975609756097615,8.537815126050418,0.5852534562212028,-3.658436213991788,-19.303999999999995,-11.825910931174095,-7.470588235294116,10.297297297297307,8.097107779454834,35.15017409850588,47.42118458131167,697.4733561419173,77.4774461428614,744.4773247856692,1
-17.925695631898023,-69.35045201000193,-55.46768123056784,-108.12347232207047,123.4461923987192,15.23331138907173,-99.68681863230904,-3.0975609756097615,8.537815126050418,0.5852534562212028,-3.658436213991788,-19.303999999999995,-11.825910931174095,-7.470588235294116,10.297297297297307,8.097107779454834,35.15017409850588,47.58127629082259,707.7729292920633,77.6472018542134,744.7851273510594,1
-17.925695631898023,-69.35045201000193,-55.46768123056784,-108.12347232207047,123.4461923987192,15.23331138907173,-99.68681863230904,13.42276422764227,22.41176470588235,9.949308755760374,-7.839506172839524,7.112000000000004,1.5425101214574832,4.482352941176472,22.882882882882893,11.205386225955172,62.15666472962084,47.58127629082259,707.7729292920633,77.6472018542134,744.7851273510594,1
-17.925695631898023,-69.35045201000193,-55.46768123056784,-108.12347232207047,123.4461923987192,15.23331138907173,-99.68681863230904,1.0325203252032464,-8.537815126050422,7.608294930875582,-8.884773662551458,10.160000000000004,0.5141700404858236,5.4784313725490215,26.315315315315324,8.56641509662886,64.24528579360765,47.58127629082259,707.7729292920633,77.6472018542134,744.7851273510594,1
-18.182341053940615,-69.64358530486633,-55.38455244640813,-108.16912293314164,123.41083112905471,15.30019749835418,-99.56095143706625,1.0325203252032464,-8.537815126050422,7.608294930875582,-8.884773662551458,10.160000000000004,0.5141700404858236,5.4784313725490215,26.315315315315324,8.56641509662886,64.24528579360765,47.736826268405025,705.9307017336442,77.73242022813871,745.6246581791975,1
-18.182341053940615,-69.64358530486633,-55.38455244640813,-108.16912293314164,123.41083112905471,15.30019749835418,-99.56095143706625,3.0975609756097504,-7.4705882352941195,-25.165898617511516,-4.703703703703722,5.080000000000004,1.5425101214574832,0.4980392156862763,9.153153153153163,7.088931752802004,61.57746005017163,47.736826268405025,705.9307017336442,77.73242022813871,745.6246581791975,1
-18.182341053940615,-69.64358530486633,-55.38455244640813,-108.16912293314164,123.41083112905471,15.30019749835418,-99.56095143706625,8.26016260162601,2.134453781512603,-26.336405529953915,-26.654320987654337,-30.479999999999997,-13.882591093117414,5.4784313725490215,21.73873873873875,16.870638013144003,117.74865066443839,47.736826268405025,705.9307017336442,77.73242022813871,745.6246581791975,1
-18.16259909839888,-69.30159646085787,-55.11438389788906,-108.2375988497484,123.37546985939025,15.333640552995348,-99.43508424182346,8.26016260162601,2.134453781512603,-26.336405529953915,-26.654320987654337,-30.479999999999997,-13.882591093117414,5.4784313725490215,21.73873873873875,16.870638013144003,117.74865066443839,47.52619315238194,696.9847419020467,77.55119306949844,756.5608748593332,1
-18.16259909839888,-69.30159646085787,-55.11438389788906,-108.2375988497484,123.37546985939025,15.333640552995348,-99.43508424182346,-5.329070518200751e-15,16.008403361344534,8.778801843317979,-7.839506172839524,-20.319999999999997,-3.599190283400816,-6.474509803921567,16.01801801801803,9.879803685355308,48.323254178744314,47.52619315238194,696.9847419020467,77.55119306949844,756.5608748593332,1
-18.16259909839888,-69.30159646085787,-55.11438389788906,-108.2375988497484,123.37546985939025,15.333640552995348,-99.43508424182346,5.162601626016254,1.0672268907563005,0.5852534562212028,-2.613168724279854,10.160000000000004,-5.655870445344135,5.4784313725490215,17.162162162162172,5.985589334666118,29.73026494104567,47.52619315238194,696.9847419020467,77.55119306949844,756.5608748593332,1
-18.478470387066682,-69.30159646085787,-54.94812632956964,-108.28324946081956,123.34010858972576,15.23331138907173,-98.80574826560951,5.162601626016254,1.0672268907563005,0.5852534562212028,-2.613168724279854,10.160000000000004,-5.655870445344135,5.4784313725490215,17.162162162162172,5.985589334666118,29.73026494104567,47.57606439249806,686.5080088811329,77.51099075041569,761.704455807466,1
-18.478470387066682,-69.30159646085787,-54.94812632956964,-108.28324946081956,123.34010858972576,15.23331138907173,-98.80574826560951,2.065040650406498,9.60504201680672,36.87096774193549,-4.703703703703722,3.552713678800501e-15,-5.655870445344135,-1.4941176470588218,18.30630630630632,9.837631063945214,153.31779211531696,47.57606439249806,686.5080088811329,77.51099075041569,761.704455807466,1
-18.478470387066682,-69.30159646085787,-54.94812632956964,-108.28324946081956,123.34010858972576,15.23331138907173,-98.80574826560951,7.227642276422758,16.008403361344534,28.677419354838715,-8.884773662551458,-4.0639999999999965,-2.570850202429156,-1.4941176470588218,18.30630630630632,10.904189101368969,88.4441800232956,47.57606439249806,686.5080088811329,77.51099075041569,761.704455807466,1
-18.675889942484062,-69.30159646085787,-54.781868761250216,-108.30607476635515,123.34010858972576,15.132982225148112,-98.30227948463812,7.227642276422758,16.008403361344534,28.677419354838715,-8.884773662551458,-4.0639999999999965,-2.570850202429156,-1.4941176470588218,18.30630630630632,10.904189101368969,88.4441800232956,47.586451721530715,679.5710599027433,77.46317999615441,766.1687414719456,1
-18.675889942484062,-69.30159646085787,-54.781868761250216,-108.30607476635515,123.34010858972576,15.132982225148112,-98.30227948463812,6.195121951219506,24.546218487394956,22.824884792626733,-9.930041152263392,-6.0959999999999965,-3.599190283400816,-3.48627450980392,26.315315315315324,12.87413081150308,98.47097495550004,47.586451721530715,679.5710599027433,77.46317999615441,766.1687414719456,1
-18.675889942484062,-69.30159646085787,-54.781868761250216,-108.30607476635515,123.34010858972576,15.132982225148112,-98.30227948463812,1.0325203252032464,5.3361344537815105,66.1336405529954,28.744855967078166,18.288000000000004,5.655870445344123,7.4705882352941195,16.01801801801803,18.584953499714324,449.29828830009876,47.586451721530715,679.5710599027433,77.46317999615441,766.1687414719456,1
-18.87330949790144,-69.49701865743413,-54.53248240877108,-108.32890007189073,123.34010858972576,14.932323897300819,-97.67294350842417,1.0325203252032464,5.3361344537815105,66.1336405529954,28.744855967078166,18.288000000000004,5.655870445344123,7.4705882352941195,16.01801801801803,18.584953499714324,449.29828830009876,47.63427018803555,676.3789811489671,77.45280037936531,770.9844854514637,1
-18.87330949790144,-69.49701865743413,-54.53248240877108,-108.32890007189073,123.34010858972576,14.932323897300819,-97.67294350842417,6.195121951219506,5.3361344537815105,-12.290322580645157,-14.111111111111128,-18.287999999999997,-6.684210526315796,0.4980392156862763,17.162162162162172,10.070637750115193,39.94355182488824,47.63427018803555,676.3789811489671,77.45280037936531,770.9844854514637,1
-18.87330949790144,-69.49701865743413,-54.53248240877108,-108.32890007189073,123.34010858972576,14.932323897300819,-97.67294350842417,13.42276422764227,28.815126050420165,14.631336405529959,-7.839506172839524,-7.1119999999999965,2.5708502024291437,-2.490196078431371,14.873873873873883,11.46945662639579,74.03592624404713,47.63427018803555,676.3789811489671,77.45280037936531,770.9844854514637,1
-19.07072905331882,-69.54587420657819,-54.698739977090504,-108.26042415528397,123.34010858972576,14.76510862409475,-97.16947472745278,13.42276422764227,28.815126050420165,14.631336405529959,-7.839506172839524,-7.1119999999999965,2.5708502024291437,-2.490196078431371,14.873873873873883,11.46945662639579,74.03592624404713,47.771781078995836,672.9221392425704,77.50167944631755,764.6846307606334,1
-19.07072905331882,-69.54587420657819,-54.698739977090504,-108.26042415528397,123.34010858972576,14.76510862409475,-97.16947472745278,5.162601626016254,1.0672268907563005,4.0967741935483915,-9.930041152263392,5.080000000000004,-5.655870445344135,-1.4941176470588218,26.315315315315324,7.350243408787828,66.21365109981078,47.771781078995836,672.9221392425704,77.50167944631755,764.6846307606334,1
-19.07072905331882,-69.54587420657819,-54.698739977090504,-108.26042415528397,123.34010858972576,14.76510862409475,-97.16947472745278,-5.329070518200751e-15,-2.1344537815126063,0.5852534562212028,-20.382716049382733,-14.223999999999997,-2.570850202429156,-6.474509803921567,17.162162162162172,7.9417431819536795,65.88196914329886,47.771781078995836,672.9221392425704,77.50167944631755,764.6846307606334,1
-19.327374475361413,-69.8390075014426,-54.553264604811005,-108.2147735442128,123.35778922455799,14.53100724160629,-96.66600594648162,-5.329070518200751e-15,-2.1344537815126063,0.5852534562212028,-20.382716049382733,-14.223999999999997,-2.570850202429156,-6.474509803921567,17.162162162162172,7.9417431819536795,65.88196914329886,47.90654886053833,670.9903903792455,77.5356818834888,764.3184828208095,1
-19.327374475361413,-69.8390075014426,-54.553264604811005,-108.2147735442128,123.35778922455799,14.53100724160629,-96.66600594648162,3.0975609756097504,24.546218487394956,32.18894009216591,-6.79423868312759,8.128000000000004,1.5425101214574832,0.4980392156862763,17.162162162162172,11.744708717200517,136.30391162418974,47.90654886053833,670.9903903792455,77.5356818834888,764.3184828208095,1
-19.327374475361413,-69.8390075014426,-54.553264604811005,-108.2147735442128,123.35778922455799,14.53100724160629,-96.66600594648162,17.55284552845528,11.739495798319325,-19.313364055299537,13.065843621399157,24.384000000000004,-9.769230769230775,8.466666666666669,32.03603603603605,17.04093530942585,64.92885911782855,47.90654886053833,670.9903903792455,77.5356818834888,764.3184828208095,1
-19.426084253070105,-69.8390075014426,-54.51170021273115,-108.16912293314164,123.39315049422248,14.230019749835378,-95.91080277502465,17.55284552845528,11.739495798319325,-19.313364055299537,13.065843621399157,24.384000000000004,-9.769230769230775,8.466666666666669,32.03603603603605,17.04093530942585,64.92885911782855,47.92559732241461,667.8982710729507,77.5066102157718,763.8738517877973,1
-19.426084253070105,-69.8390075014426,-54.51170021273115,-108.16912293314164,123.39315049422248,14.230019749835378,-95.91080277502465,-7.22764227642277,-26.680672268907564,-1.7557603686635908,2.6131687242798165,-3.0479999999999965,-8.740890688259114,-6.474509803921567,22.882882882882893,9.927940876667165,90.96220438608952,47.92559732241461,667.8982710729507,77.5066102157718,763.8738517877973,1
-19.426084253070105,-69.8390075014426,-54.51170021273115,-108.16912293314164,123.39315049422248,14.230019749835378,-95.91080277502465,-1.032520325203258,10.672268907563023,40.382488479262676,16.201646090534958,8.128000000000004,-4.6275303643724754,-4.482352941176469,18.30630630630632,12.979139176802398,157.60406617919176,47.92559732241461,667.8982710729507,77.5066102157718,763.8738517877973,1
-19.228664697652725,-69.8390075014426,-54.553264604811005,-108.12347232207047,123.39315049422248,13.962475312705692,-95.15559960356791,-1.032520325203258,10.672268907563023,40.382488479262676,16.201646090534958,8.128000000000004,-4.6275303643724754,-4.482352941176469,18.30630630630632,12.979139176802398,157.60406617919176,47.87364560130211,673.8146822033092,77.50524814277469,761.5202228956903,1
-19.228664697652725,-69.8390075014426,-54.553264604811005,-108.12347232207047,123.39315049422248,13.962475312705692,-95.15559960356791,-1.032520325203258,-5.336134453781515,1.7557603686635996,-10.975308641975326,-1.0159999999999965,5.655870445344123,17.43137254901961,11.441441441441452,6.8305510281786095,35.37279461376149,47.87364560130211,673.8146822033092,77.50524814277469,761.5202228956903,1
-19.228664697652725,-69.8390075014426,-54.553264604811005,-108.12347232207047,123.39315049422248,13.962475312705692,-95.15559960356791,1.0325203252032464,11.739495798319325,18.14285714285715,-17.246913580246932,4.064000000000004,-20.052631578947373,-8.466666666666665,13.72972972972974,11.809351852746305,46.94698226464424,47.87364560130211,673.8146822033092,77.50524814277469,761.5202228956903,1
-19.347116430903153,-70.18099634545106,-54.80265095729014,-108.00934579439253,123.41083112905471,13.761816984858456,-94.65213082259652,1.0325203252032464,11.739495798319325,18.14285714285715,-17.246913580246932,4.064000000000004,-20.052631578947373,-8.466666666666665,13.72972972972974,11.809351852746305,46.94698226464424,48.11025457788145,679.6119637660113,77.66433103237792,749.7383173995564,1
-19.347116430903153,-70.18099634545106,-54.80265095729014,-108.00934579439253,123.41083112905471,13.761816984858456,-94.65213082259652,2.065040650406498,-10.672268907563026,2.9262672811059964,15.156378600823025,8.128000000000004,-3.599190283400816,-1.4941176470588218,21.73873873873875,8.222500263637118,52.76974121736372,48.11025457788145,679.6119637660113,77.66433103237792,749.7383173995564,1
-19.347116430903153,-70.18099634545106,-54.80265095729014,-108.00934579439253,123.41083112905471,13.761816984858456,-94.65213082259652,3.0975609756097504,2.134453781512603,28.677419354838715,-12.02057613168726,-2.0319999999999965,2.5708502024291437,4.482352941176472,20.594594594594604,9.451225997731068,103.05730494582986,48.11025457788145,679.6119637660113,77.66433103237792,749.7383173995564,1
-19.505052075237057,-70.52298518945952,-54.92734413352971,-107.87239396117901,123.4461923987192,13.527715602369938,-94.14866204162536,3.0975609756097504,2.134453781512603,28.677419354838715,-12.02057613168726,-2.0319999999999965,2.5708502024291437,4.482352941176472,20.594594594594604,9.451225997731068,103.05730494582986,48.31846046607543,683.4653823092771,77.77424109472274,740.230109465778,1
-19.505052075237057,-70.52298518945952,-54.92734413352971,-107.87239396117901,123.4461923987192,13.527715602369938,-94.14866204162536,9.292682926829261,7.470588235294116,11.11981566820277,-9.930041152263392,5.080000000000004,-0.514170040485836,-1.4941176470588218,19.45045045045046,8.043983265073082,36.199644184194156,48.31846046607543,683.4653823092771,77.77424109472274,740.230109465778,1
-19.505052075237057,-70.52298518945952,-54.92734413352971,-107.87239396117901,123.4461923987192,13.527715602369938,-94.14866204162536,3.0975609756097504,-7.4705882352941195,-4.096774193548381,8.88477366255142,-14.223999999999997,-0.514170040485836,-0.49803921568627274,10.297297297297307,6.135400452559136,24.12159231719213,48.31846046607543,683.4653823092771,77.77424109472274,740.230109465778,1
-19.44582620861184,-70.66955183689171,-55.197512682048774,-107.73544212796551,123.4461923987192,13.327057274522701,-93.64519326065397,3.0975609756097504,-7.4705882352941195,-4.096774193548381,8.88477366255142,-14.223999999999997,-0.514170040485836,-0.49803921568627274,10.297297297297307,6.135400452559136,24.12159231719213,48.437630242517436,690.2395247575372,77.86750221563533,728.9163748571729,1
-19.44582620861184,-70.66955183689171,-55.197512682048774,-107.73544212796551,123.4461923987192,13.327057274522701,-93.64519326065397,6.195121951219506,-4.268907563025213,-6.437788018433174,-27.69958847736627,-24.383999999999997,-9.769230769230775,-5.478431372549018,17.162162162162172,12.674403789248265,84.96595415159125,48.437630242517436,690.2395247575372,77.86750221563533,728.9163748571729,1
-19.44582620861184,-70.66955183689171,-55.197512682048774,-107.73544212796551,123.4461923987192,13.327057274522701,-93.64519326065397,-7.22764227642277,-10.672268907563026,6.437788018433185,-22.4732510288066,-9.143999999999997,-11.825910931174095,1.4941176470588253,16.01801801801803,10.661624603434566,40.79150621852637,48.437630242517436,690.2395247575372,77.86750221563533,728.9163748571729,1
-19.603761852945745,-70.71840738603578,-55.44689903452791,-107.50718907260965,123.4461923987192,13.193285055957858,-93.39345887016839,-7.22764227642277,-10.672268907563026,6.437788018433185,-22.4732510288066,-9.143999999999997,-11.825910931174095,1.4941176470588253,16.01801801801803,10.661624603434566,40.79150621852637,48.58968942450315,688.4427397202222,77.89083183105778,716.15120402696,1
-19.603761852945745,-70.71840738603578,-55.44689903452791,-107.50718907260965,123.4461923987192,13.193285055957858,-93.39345887016839,10.325203252032514,18.14285714285714,43.894009216589865,14.111111111111093,8.128000000000004,-6.684210526315796,-3.48627450980392,27.45945945945947,16.528890652271226,178.98083685195843,48.58968942450315,688.4427397202222,77.89083183105778,716.15120402696,1
-19.603761852945745,-70.71840738603578,-55.44689903452791,-107.50718907260965,123.4461923987192,13.193285055957858,-93.39345887016839,3.0975609756097504,13.87394957983193,32.18894009216591,-5.748971193415656,-16.255999999999997,-0.514170040485836,-3.48627450980392,18.30630630630632,11.684021587202414,112.98941124970908,48.58968942450315,688.4427397202222,77.89083183105778,716.15120402696,1
-19.505052075237057,-70.2787074437392,-55.488463426607765,-107.32458662832497,123.42851176388697,13.059512837393015,-92.88999008919723,3.0975609756097504,13.87394957983193,32.18894009216591,-5.748971193415656,-16.255999999999997,-0.514170040485836,-3.48627450980392,18.30630630630632,11.684021587202414,112.98941124970908,48.42407431519467,681.9202150079454,77.69725249955731,713.0220252048036,1
-19.505052075237057,-70.2787074437392,-55.488463426607765,-107.32458662832497,123.42851176388697,13.059512837393015,-92.88999008919723,6.195121951219506,12.806722689075627,-1.7557603686635908,-15.156378600823063,-40.64,-7.712550607287455,-1.4941176470588218,17.162162162162172,12.86535175328628,159.84531677090087,48.42407431519467,681.9202150079454,77.69725249955731,713.0220252048036,1
-19.505052075237057,-70.2787074437392,-55.488463426607765,-107.32458662832497,123.42851176388697,13.059512837393015,-92.88999008919723,14.455284552845523,25.61344537815126,28.677419354838715,-10.975308641975326,11.176000000000004,-27.25101214574899,1.4941176470588253,35.46846846846848,19.38888202363589,132.59870418302225,48.42407431519467,681.9202150079454,77.69725249955731,713.0220252048036,1
-19.722213586196172,-69.88786305058666,-55.59237440680741,-107.14198418404027,123.37546985939025,12.858854509545722,-92.13478691774026,14.455284552845523,25.61344537815126,28.677419354838715,-10.975308641975326,11.176000000000004,-27.25101214574899,1.4941176470588253,35.46846846846848,19.38888202363589,132.59870418302225,48.400817014530084,667.9369698408394,77.54074054714478,708.2654675292397,1
-19.722213586196172,-69.88786305058666,-55.59237440680741,-107.14198418404027,123.37546985939025,12.858854509545722,-92.13478691774026,18.58536585365853,35.21848739495798,33.3594470046083,-9.930041152263392,16.256000000000004,-2.570850202429156,13.447058823529414,33.18018018018019,20.31842882645337,149.58889354183813,48.400817014530084,667.9369698408394,77.54074054714478,708.2654675292397,1
-19.722213586196172,-69.88786305058666,-55.59237440680741,-107.14198418404027,123.37546985939025,12.858854509545722,-92.13478691774026,8.26016260162601,23.478991596638654,1.7557603686635996,-12.02057613168726,1.0160000000000036,17.99595141700404,17.43137254901961,19.45045045045046,12.676158139386205,69.80709875481206,48.400817014530084,667.9369698408394,77.54074054714478,708.2654675292397,1
-18.99176123115187,-70.76726293517984,-56.09114711176568,-107.05068296189793,123.35778922455799,12.825411454904497,-91.75718533201189,8.26016260162601,23.478991596638654,1.7557603686635996,-12.02057613168726,1.0160000000000036,17.99595141700404,17.43137254901961,19.45045045045046,12.676158139386205,69.80709875481206,48.61672375936579,712.0758975141264,77.96969766961449,688.1248730930715,1
-18.99176123115187,-70.76726293517984,-56.09114711176568,-107.05068296189793,123.35778922455799,12.825411454904497,-91.75718533201189,25.813008130081293,-6.403361344537817,-40.38248847926267,-23.518518518518533,-13.207999999999997,-25.19433198380567,-5.478431372549018,48.05405405405406,23.506524235351133,231.30543010610523,48.61672375936579,712.0758975141264,77.96969766961449,688.1248730930715,1
-18.99176123115187,-70.76726293517984,-56.09114711176568,-107.05068296189793,123.35778922455799,12.825411454904497,-91.75718533201189,-1.032520325203258,25.61344537815126,68.4746543778802,-1.5679012345679197,38.608000000000004,-2.570850202429156,0.4980392156862763,-22.882882882882875,20.156036702100117,588.4694387681676,48.61672375936579,712.0758975141264,77.96969766961449,688.1248730930715,1
-16.22788745530856,-71.54895172148491,-57.23416789396172,-107.25611071171821,123.34010858972576,13.360500329163926,-93.39345887016839,-1.032520325203258,25.61344537815126,68.4746543778802,-1.5679012345679197,38.608000000000004,-2.570850202429156,0.4980392156862763,-22.882882882882875,20.156036702100117,588.4694387681676,48.3370023569184,824.474703830767,78.67974344238827,663.6848337409031,1
-16.22788745530856,-71.54895172148491,-57.23416789396172,-107.25611071171821,123.34010858972576,13.360500329163926,-93.39345887016839,18.58536585365853,46.95798319327731,89.54377880184333,-5.748971193415656,17.272000000000006,-1.542510121457496,33.3686274509804,76.65765765765767,36.2096117840363,1057.583173425917,48.3370023569184,824.474703830767,78.67974344238827,663.6848337409031,1
-16.22788745530856,-71.54895172148491,-57.23416789396172,-107.25611071171821,123.34010858972576,13.360500329163926,-93.39345887016839,23.74796747967479,60.831932773109244,-61.45161290322581,-4.703703703703722,-23.367999999999995,-5.655870445344135,33.3686274509804,3.4324324324324422,27.070018398558815,557.7039396202099,48.3370023569184,824.474703830767,78.67974344238827,663.6848337409031,1
-14.668272967511268,-73.01461819580689,-60.68401243658977,-107.34741193386054,123.16330224140333,14.698222514812358,-96.28840436075325,23.74796747967479,60.831932773109244,-61.45161290322581,-4.703703703703722,-23.367999999999995,-5.655870445344135,33.3686274509804,3.4324324324324422,27.070018398558815,557.7039396202099,49.455634533302636,945.6313531291339,80.34868085541906,584.7095694818108,1
-14.668272967511268,-73.01461819580689,-60.68401243658977,-107.34741193386054,123.16330224140333,14.698222514812358,-96.28840436075325,-13.422764227642283,-25.613445378151262,-23.995391705069117,-0.5226337448559857,100.584,23.13765182186234,-14.44313725490196,-19.45045045045044,27.646184322866674,933.8850451670166,49.455634533302636,945.6313531291339,80.34868085541906,584.7095694818108,1
-14.668272967511268,-73.01461819580689,-60.68401243658977,-107.34741193386054,123.16330224140333,14.698222514812358,-96.28840436075325,8.26016260162601,37.35294117647059,14.631336405529959,33.97119341563784,-89.408,-8.740890688259114,5.4784313725490215,18.30630630630632,27.018657745797356,775.2650359520695,49.455634533302636,945.6313531291339,80.34868085541906,584.7095694818108,1
-12.378206124669669,-78.1933064050779,-67.251186385207,-106.63982746225739,122.61520256160381,17.540882159315288,-101.82656095143693,8.26016260162601,37.35294117647059,14.631336405529959,33.97119341563784,-89.408,-8.740890688259114,5.4784313725490215,18.30630630630632,27.018657745797356,775.2650359520695,52.60756630498486,1243.7335630204623,84.02810675084743,413.39993278041925,1
-12.378206124669669,-78.1933064050779,-67.251186385207,-106.63982746225739,122.61520256160381,17.540882159315288,-101.82656095143693,20.65040650406503,64.03361344537815,28.677419354838715,-19.337448559670797,-121.92,-52.95951417004049,-55.28235294117647,8.009009009009018,46.358720498022336,1331.3579743917567,52.60756630498486,1243.7335630204623,84.02810675084743,413.39993278041925,1
-12.378206124669669,-78.1933064050779,-67.251186385207,-106.63982746225739,122.61520256160381,17.540882159315288,-101.82656095143693,-61.951219512195124,-73.63865546218487,67.3041474654378,-16.201646090534997,91.44000000000001,-3.599190283400816,-21.415686274509802,-33.18018018018017,46.09134065855545,998.776722269775,52.60756630498486,1243.7335630204623,84.02810675084743,413.39993278041925,1
-13.523239546090467,-83.71398345835739,-75.35624284077893,-104.3344716031632,121.4129193930113,21.687820934825538,-108.49752229930618,-61.951219512195124,-73.63865546218487,67.3041474654378,-16.201646090534997,91.44000000000001,-3.599190283400816,-21.415686274509802,-33.18018018018017,46.09134065855545,998.776722269775,57.53115528174226,1469.9854426048519,87.80156596743318,222.46568362764535,1
-13.523239546090467,-83.71398345835739,-75.35624284077893,-104.3344716031632,121.4129193930113,21.687820934825538,-108.49752229930618,-11.357723577235777,-23.478991596638657,39.211981566820285,5.748971193415619,25.400000000000006,17.99595141700404,26.39607843137255,11.441441441441452,20.12889240299105,115.16949009686452,57.53115528174226,1469.9854426048519,87.80156596743318,222.46568362764535,1
-13.523239546090467,-83.71398345835739,-75.35624284077893,-104.3344716031632,121.4129193930113,21.687820934825538,-108.49752229930618,38.20325203252032,19.21008403361344,67.3041474654378,20.382716049382694,43.688,36.50607287449392,7.4705882352941195,67.50450450450452,37.53367064940585,479.6586046273146,57.53115528174226,1469.9854426048519,87.80156596743318,222.46568362764535,1
-20.61060158557438,-89.57664935564533,-85.62264768450336,-99.7922358015816,119.4326882918001,26.068861092824193,-112.021803766105,38.20325203252032,19.21008403361344,67.3041474654378,20.382716049382694,43.688,36.50607287449392,7.4705882352941195,67.50450450450452,37.53367064940585,479.6586046273146,65.26996620857436,1499.752668701395,91.66384428057677,53.46159384290583,1
-20.61060158557438,-89.57664935564533,-85.62264768450336,-99.7922358015816,119.4326882918001,26.068861092824193,-112.021803766105,-1.032520325203258,-43.75630252100841,-69.64516129032258,-35.01646090534981,-33.528,-5.655870445344135,-0.49803921568627274,19.45045045045046,26.072850644170614,584.0880755139121,65.26996620857436,1499.752668701395,91.66384428057677,53.46159384290583,1
-20.61060158557438,-89.57664935564533,-85.62264768450336,-99.7922358015816,119.4326882918001,26.068861092824193,-112.021803766105,-5.329070518200751e-15,-41.6218487394958,-116.46543778801842,-16.201646090534997,-17.272,-10.797570850202435,-0.49803921568627274,14.873873873873883,27.21630206972648,1467.091818318262,65.26996620857436,1499.752668701395,91.66384428057677,53.46159384290583,1
-27.303124514223533,-94.511059819196,-91.75339551628213,-93.44680086268872,117.09884449394406,30.583673469387747,-116.42715559960357,-5.329070518200751e-15,-41.6218487394958,-116.46543778801842,-16.201646090534997,-17.272,-10.797570850202435,-0.49803921568627274,14.873873873873883,27.21630206972648,1467.091818318262,71.18919328323389,1446.3914521006209,93.23708539938895,1.9341635335516523,1
-27.303124514223533,-94.511059819196,-91.75339551628213,-93.44680086268872,117.09884449394406,30.583673469387747,-116.42715559960357,5.162601626016254,4.268907563025208,-7.608294930875573,-10.975308641975326,-39.623999999999995,-8.740890688259114,0.4980392156862763,5.720720720720731,10.324845423319811,149.97704991396571,71.18919328323389,1446.3914521006209,93.23708539938895,1.9341635335516523,1
-27.303124514223533,-94.511059819196,-91.75339551628213,-93.44680086268872,117.09884449394406,30.583673469387747,-116.42715559960357,8.26016260162601,-4.268907563025213,20.483870967741943,-13.065843621399194,3.552713678800501e-15,-0.514170040485836,-13.44705882352941,43.47747747747749,12.939686386910637,201.2362909506666,71.18919328323389,1446.3914521006209,93.23708539938895,1.9341635335516523,1
-30.06699829006684,-100.27601461819582,-93.97709049255442,-86.00575125808771,114.55283307810109,34.864384463462784,-121.21010901883051,8.26016260162601,-4.268907563025213,20.483870967741943,-13.065843621399194,3.552713678800501e-15,-0.514170040485836,-13.44705882352941,43.47747747747749,12.939686386910637,201.2362909506666,74.77336780027237,1508.913717372422,93.41961878961267,51.14318511639655,1
-30.06699829006684,-100.27601461819582,-93.97709049255442,-86.00575125808771,114.55283307810109,34.864384463462784,-121.21010901883051,-14.455284552845534,25.61344537815126,50.91705069124425,10.975308641975289,15.240000000000002,4.627530364372463,-4.482352941176469,-8.009009009008999,16.789997697346784,237.2403507968849,74.77336780027237,1508.913717372422,93.41961878961267,51.14318511639655,1
-30.06699829006684,-100.27601461819582,-93.97709049255442,-86.00575125808771,114.55283307810109,34.864384463462784,-121.21010901883051,11.357723577235767,37.35294117647059,66.1336405529954,3.6584362139917506,-12.191999999999997,-11.825910931174095,-5.478431372549018,24.02702702702704,21.503263856430458,443.9954410419351,74.77336780027237,1508.913717372422,93.41961878961267,51.14318511639655,1
-30.856676511736353,-99.0057703404501,-95.16167566683032,-78.108195542775,111.54712515661981,39.07820934825543,-124.9861248761149,11.357723577235767,37.35294117647059,66.1336405529954,3.6584362139917506,-12.191999999999997,-11.825910931174095,-5.478431372549018,24.02702702702704,21.503263856430458,443.9954410419351,75.00804083967226,1465.7014949785362,90.75854718335181,123.71781343762129,1
-30.856676511736353,-99.0057703404501,-95.16167566683032,-78.108195542775,111.54712515661981,39.07820934825543,-124.9861248761149,9.292682926829261,11.739495798319325,40.382488479262676,-5.748971193415656,-1.0159999999999965,-6.684210526315796,3.4862745098039234,19.45045045045046,12.225071735549637,161.21882723805973,75.00804083967226,1465.7014949785362,90.75854718335181,123.71781343762129,1
-30.856676511736353,-99.0057703404501,-95.16167566683032,-78.108195542775,111.54712515661981,39.07820934825543,-124.9861248761149,12.390243902439018,22.41176470588235,36.87096774193549,-13.065843621399194,-16.255999999999997,-6.684210526315796,-7.470588235294116,26.315315315315324,17.68311675607266,105.95580605345425,75.00804083967226,1465.7014949785362,90.75854718335181,123.71781343762129,1
-32.73216228820146,-90.65147143681477,-99.00638193421699,-69.66283249460821,107.63970485869416,43.76023699802499,-127.0,12.390243902439018,22.41176470588235,36.87096774193549,-13.065843621399194,-16.255999999999997,-6.684210526315796,-7.470588235294116,26.315315315315324,17.68311675607266,105.95580605345425,74.1300052197444,1302.787181893426,86.44022862188,228.56189796344609,1
-32.73216228820146,-90.65147143681477,-99.00638193421699,-69.66283249460821,107.63970485869416,43.76023699802499,-127.0,-11.357723577235777,30.94957983193277,48.57603686635945,2.6131687242798165,9.144000000000004,0.5141700404858236,-0.49803921568627274,20.594594594594604,15.530914106321815,290.27464537665367,74.1300052197444,1302.787181893426,86.44022862188,228.56189796344609,1
-32.73216228820146,-90.65147143681477,-99.00638193421699,-69.66283249460821,107.63970485869416,43.76023699802499,-127.0,-7.22764227642277,7.470588235294116,-56.76958525345621,-48.60493827160495,3.0480000000000036,-3.599190283400816,-9.462745098039214,13.72972972972974,18.739052393493477,454.90730811178247,74.1300052197444,1302.787181893426,86.44022862188,228.56189796344609,1
-38.200683973262855,-82.19946143489133,-101.14694812632958,-61.69680086268872,103.53779757761382,47.70651744568795,-126.6223984142714,-7.22764227642277,7.470588235294116,-56.76958525345621,-48.60493827160495,3.0480000000000036,-3.599190283400816,-9.462745098039214,13.72972972972974,18.739052393493477,454.90730811178247,73.84903117816125,1042.855306811298,81.68107014130321,389.28007693068855,1
-38.200683973262855,-82.19946143489133,-101.14694812632958,-61.69680086268872,103.53779757761382,47.70651744568795,-126.6223984142714,29.943089430894304,39.48739495798319,47.40552995391705,-24.56378600823047,8.128000000000004,-3.599190283400816,4.482352941176472,21.73873873873875,22.418510289292634,265.35325633024866,73.84903117816125,1042.855306811298,81.68107014130321,389.28007693068855,1
-38.200683973262855,-82.19946143489133,-101.14694812632958,-61.69680086268872,103.53779757761382,47.70651744568795,-126.6223984142714,16.52032520325203,28.815126050420165,50.91705069124425,-1.5679012345679197,-4.0639999999999965,-1.542510121457496,4.482352941176472,38.90090090090091,18.3512708928774,365.19298067064756,73.84903117816125,1042.855306811298,81.68107014130321,389.28007693068855,1
-47.972951966423125,-73.99172917868822,-106.77892325315005,-52.42972681524084,98.1982458582765,50.81672152732057,-119.95143706640238,16.52032520325203,28.815126050420165,50.91705069124425,-1.5679012345679197,-4.0639999999999965,-1.542510121457496,4.482352941176472,38.90090090090091,18.3512708928774,365.19298067064756,76.2478681327538,868.3531869788771,77.73345974902638,748.9591991073632,1
-47.972951966423125,-73.99172917868822,-106.77892325315005,-52.42972681524084,98.1982458582765,50.81672152732057,-119.95143706640238,-32.00813008130082,-16.00840336134454,-7.608294930875573,-4.703703703703722,-8.127999999999997,1.5425101214574832,-3.48627450980392,-5.720720720720713,9.900754678650847,98.56075444439746,76.2478681327538,868.3531869788771,77.73345974902638,748.9591991073632,1
-47.972951966423125,-73.99172917868822,-106.77892325315005,-52.42972681524084,98.1982458582765,50.81672152732057,-119.95143706640238,21.682926829268286,2.134453781512603,-8.778801843317968,-16.201646090534997,-14.223999999999997,-0.514170040485836,-1.4941176470588218,29.74774774774776,11.847232997490783,111.59398564839269,76.2478681327538,868.3531869788771,77.73345974902638,748.9591991073632,1
-59.443028136172856,-66.2236968647817,-116.27638684339716,-41.26815240833933,91.14367256021163,53.29150757077019,-107.61645193260642,21.682926829268286,2.134453781512603,-8.778801843317968,-16.201646090534997,-14.223999999999997,-0.514170040485836,-1.4941176470588218,29.74774774774776,11.847232997490783,111.59398564839269,80.64770394811724,963.5466507410927,74.5894120388394,1459.0477010462432,1
-59.443028136172856,-66.2236968647817,-116.27638684339716,-41.26815240833933,91.14367256021163,53.29150757077019,-107.61645193260642,33.04065040650406,33.08403361344537,-13.460829493087552,-16.201646090534997,2.0320000000000036,-4.6275303643724754,3.4862745098039234,24.02702702702704,16.244998938096927,161.96005730050666,80.64770394811724,963.5466507410927,74.5894120388394,1459.0477010462432,1
-59.443028136172856,-66.2236968647817,-116.27638684339716,-41.26815240833933,91.14367256021163,53.29150757077019,-107.61645193260642,3.0975609756097504,4.268907563025208,22.824884792626733,3.6584362139917506,-4.0639999999999965,-15.939271255060735,-6.474509803921567,18.30630630630632,9.829234613817757,62.41196346911586,80.64770394811724,963.5466507410927,74.5894120388394,1459.0477010462432,1
-69.51142546245919,-64.85574148874784,-124.75552282768778,-27.915348670021572,82.3387164137547,54.79644502962475,-92.26065411298305,3.0975609756097504,4.268907563025208,22.824884792626733,3.6584362139917506,-4.0639999999999965,-15.939271255060735,-6.474509803921567,18.30630630630632,9.829234613817757,62.41196346911586,86.37422992629827,1110.2615819024581,72.50887099548574,2388.432626156957,1
-69.51142546245919,-64.85574148874784,-124.75552282768778,-27.915348670021572,82.3387164137547,54.79644502962475,-92.26065411298305,-3.0975609756097615,-8.537815126050422,31.01843317972351,-2.613168724279854,7.112000000000004,11.825910931174082,6.4745098039215705,17.162162162162172,10.980195112865172,87.69076310450676,86.37422992629827,1110.2615819024581,72.50887099548574,2388.432626156957,1
-69.51142546245919,-64.85574148874784,-124.75552282768778,-27.915348670021572,82.3387164137547,54.79644502962475,-92.26065411298305,-6.195121951219518,4.268907563025208,9.949308755760374,-23.518518518518533,-17.272,-11.825910931174095,-5.478431372549018,10.297297297297307,11.100687048693006,42.447462493719776,86.37422992629827,1110.2615819024581,72.50887099548574,2388.432626156957,1
-78.51375718949168,-74.48028467012888,-127.0,-13.444104960460109,73.09174439649172,53.75971033574717,-76.40138751238851,-6.195121951219518,4.268907563025208,9.949308755760374,-23.518518518518533,-17.272,-11.825910931174095,-5.478431372549018,10.297297297297307,11.100687048693006,42.447462493719776,93.33134728654018,854.2508567957873,71.64146321019633,3229.7795050187806,1
-78.51375718949168,-74.48028467012888,-127.0,-13.444104960460109,73.09174439649172,53.75971033574717,-76.40138751238851,14.455284552845523,4.268907563025208,28.677419354838715,0.5226337448559484,-11.175999999999997,-12.854251012145754,-0.49803921568627274,27.45945945945947,12.488999362857111,120.92145877652509,93.33134728654018,854.2508567957873,71.64146321019633,3229.7795050187806,1
-78.51375718949168,-74.48028467012888,-127.0,-13.444104960460109,73.09174439649172,53.75971033574717,-76.40138751238851,8.26016260162601,21.344537815126046,50.91705069124425,-4.703703703703722,-8.127999999999997,-27.25101214574899,-1.4941176470588218,22.882882882882893,18.12268343592384,263.6539977952427,93.33134728654018,854.2508567957873,71.64146321019633,3229.7795050187806,1
-87.75299238302502,-83.81169455664552,-126.41809851088202,1.6890726096333424,63.61492412640959,49.67965766951937,-59.409316154608405,8.26016260162601,21.344537815126046,50.91705069124425,-4.703703703703722,-8.127999999999997,-27.25101214574899,-1.4941176470588218,22.882882882882893,18.12268343592384,263.6539977952427,99.3275951501842,554.3049863910413,70.63962189238696,4019.460099272971,1
-87.75299238302502,-83.81169455664552,-126.41809851088202,1.6890726096333424,63.61492412640959,49.67965766951937,-59.409316154608405,-11.357723577235777,-1.7763568394002505e-15,12.290322580645167,-5.748971193415656,-7.1119999999999965,-1.542510121457496,-0.49803921568627274,9.153153153153163,5.962839980199192,23.663576560068527,99.3275951501842,554.3049863910413,70.63962189238696,4019.460099272971,1
-87.75299238302502,-83.81169455664552,-126.41809851088202,1.6890726096333424,63.61492412640959,49.67965766951937,-59.409316154608405,-7.22764227642277,-5.336134453781515,6.437788018433185,-8.884773662551458,-2.0319999999999965,5.655870445344123,-3.48627450980392,16.01801801801803,6.884812673044375,18.105886103470613,99.3275951501842,554.3049863910413,70.63962189238696,4019.460099272971,1
-93.53738535675423,-90.065204847086,-120.9108165603011,16.434219985621837,54.31491020464988,42.82383146807109,-41.91377601585714,-7.22764227642277,-5.336134453781515,6.437788018433185,-8.884773662551458,-2.0319999999999965,5.655870445344123,-3.48627450980392,16.01801801801803,6.884812673044375,18.105886103470613,101.50446892138045,285.4687558849111,75.80341379766965,2881.38882090998,1
-93.53738535675423,-90.065204847086,-120.9108165603011,16.434219985621837,54.31491020464988,42.82383146807109,-41.91377601585714,17.55284552845528,30.94957983193277,18.14285714285715,0.5226337448559484,-3.0479999999999965,-6.684210526315796,-0.49803921568627274,24.02702702702704,12.67814912714128,134.43523030201018,101.50446892138045,285.4687558849111,75.80341379766965,2881.38882090998,1
-93.53738535675423,-90.065204847086,-120.9108165603011,16.434219985621837,54.31491020464988,42.82383146807109,-41.91377601585714,13.42276422764227,12.806722689075627,11.11981566820277,-5.748971193415656,-3.0479999999999965,-0.514170040485836,2.4901960784313744,24.02702702702704,9.147208365535072,60.65230398003228,101.50446892138045,285.4687558849111,75.80341379766965,2881.38882090998,1
-103.19120161666407,-85.81477207155223,-116.11012927507772,30.654385334291874,44.396074063761674,33.15878867676099,-19.761149653121947,13.42276422764227,12.806722689075627,11.11981566820277,-5.748971193415656,-3.0479999999999965,-0.514170040485836,2.4901960784313744,24.02702702702704,9.147208365535072,60.65230398003228,101.70536765443133,231.10794394479424,77.52642889364061,1877.193517594415,1
-103.19120161666407,-85.81477207155223,-116.11012927507772,30.654385334291874,44.396074063761674,33.15878867676099,-19.761149653121947,-6.195121951219518,-8.537815126050422,25.165898617511527,12.020576131687221,15.240000000000002,-8.740890688259114,-3.48627450980392,11.441441441441452,11.353502308246647,44.22798168778518,101.70536765443133,231.10794394479424,77.52642889364061,1877.193517594415,1
-103.19120161666407,-85.81477207155223,-116.11012927507772,30.654385334291874,44.396074063761674,33.15878867676099,-19.761149653121947,9.292682926829261,23.478991596638654,34.5299539170507,23.518518518518498,13.208000000000004,7.712550607287442,6.4745098039215705,21.73873873873875,17.49424326362311,97.58482775439454,101.70536765443133,231.10794394479424,77.52642889364061,1877.193517594415,1
-113.37805067620083,-79.3658395845355,-113.82408771068566,44.39521926671458,33.50480300710011,20.952073732718873,6.1674925668980904,9.292682926829261,23.478991596638654,34.5299539170507,23.518518518518498,13.208000000000004,7.712550607287442,6.4745098039215705,21.73873873873875,17.49424326362311,97.58482775439454,102.189325990474,390.7333860505777,79.19504885397858,1205.113820457794,1
-113.37805067620083,-79.3658395845355,-113.82408771068566,44.39521926671458,33.50480300710011,20.952073732718873,6.1674925668980904,1.0325203252032464,18.14285714285714,5.267281105990788,-14.111111111111128,-9.143999999999997,0.5141700404858236,-1.4941176470588218,17.162162162162172,8.35852744185864,54.11807529306241,102.189325990474,390.7333860505777,79.19504885397858,1205.113820457794,1
-113.37805067620083,-79.3658395845355,-113.82408771068566,44.39521926671458,33.50480300710011,20.952073732718873,6.1674925668980904,13.42276422764227,8.537815126050418,22.824884792626733,-19.337448559670797,49.784000000000006,-14.910931174089074,-2.490196078431371,19.45045045045046,18.84481130112014,198.89506987805257,102.189325990474,390.7333860505777,79.19504885397858,1205.113820457794,1
-120.93921964868646,-79.12156183881517,-108.42071674030439,57.200215672178274,22.224557984129206,6.0699144173798345,34.11000991080277,13.42276422764227,8.537815126050418,22.824884792626733,-19.337448559670797,49.784000000000006,-14.910931174089074,-2.490196078431371,19.45045045045046,18.84481130112014,198.89506987805257,102.82716607593534,460.64498295201986,81.58083141709928,660.4209375614823,1
-120.93921964868646,-79.12156183881517,-108.42071674030439,57.200215672178274,22.224557984129206,6.0699144173798345,34.11000991080277,5.162601626016254,5.3361344537815105,29.84792626728111,-29.79012345679014,-24.383999999999997,-13.882591093117414,-8.466666666666665,13.72972972972974,16.324971661672855,106.99072297211795,102.82716607593534,460.64498295201986,81.58083141709928,660.4209375614823,1
-120.93921964868646,-79.12156183881517,-108.42071674030439,57.200215672178274,22.224557984129206,6.0699144173798345,34.11000991080277,-4.130081300813014,-6.403361344537817,7.608294930875582,-22.4732510288066,-11.175999999999997,7.712550607287442,5.4784313725490215,18.30630630630632,10.411034611396975,43.342444562193464,102.82716607593534,460.64498295201986,81.58083141709928,660.4209375614823,1
-127.0,-77.06962877476438,-106.59188348879071,69.29762760603882,10.25476820270083,-10.8857142857143,61.54905847373652,-4.130081300813014,-6.403361344537817,7.608294930875582,-22.4732510288066,-11.175999999999997,7.712550607287442,5.4784313725490215,18.30630630630632,10.411034611396975,43.342444562193464,103.55383742118504,630.18278560413,84.31971328986464,387.138174569116,1
-127.0,-77.06962877476438,-106.59188348879071,69.29762760603882,10.25476820270083,-10.8857142857143,61.54905847373652,-5.329070518200751e-15,1.0672268907563005,9.949308755760374,19.33744855967076,13.208000000000004,-7.712550607287455,-5.478431372549018,14.873873873873883,8.953355007487225,45.420591831507316,103.55383742118504,630.18278560413,84.31971328986464,387.138174569116,1
-127.0,-77.06962877476438,-106.59188348879071,69.29762760603882,10.25476820270083,-10.8857142857143,61.54905847373652,9.292682926829261,7.470588235294116,32.18894009216591,-1.5679012345679197,23.368000000000002,0.5141700404858236,3.4862745098039234,26.315315315315324,13.025484044307785,153.48881018898314,103.55383742118504,630.18278560413,84.31971328986464,387.138174569116,1
-126.23006373387221,-71.35352952490865,-104.9500900016364,80.16247304097772,-2.103995545036888,-28.409874917709033,84.83448959365705,9.292682926829261,7.470588235294116,32.18894009216591,-1.5679012345679197,23.368000000000002,0.5141700404858236,3.4862745098039234,26.315315315315324,13.025484044307785,153.48881018898314,100.84456108680575,765.50002744977,85.4886975225076,303.45871938734234,1
-126.23006373387221,-71.35352952490865,-104.9500900016364,80.16247304097772,-2.103995545036888,-28.409874917709033,84.83448959365705,5.162601626016254,4.268907563025208,7.608294930875582,21.42798353909463,-49.784,-4.6275303643724754,14.443137254901963,28.603603603603617,16.990757360236216,254.1521454844771,100.84456108680575,765.50002744977,85.4886975225076,303.45871938734234,1
-126.23006373387221,-71.35352952490865,-104.9500900016364,80.16247304097772,-2.103995545036888,-28.409874917709033,84.83448959365705,-2.0650406504065097,6.403361344537813,20.483870967741943,-6.79423868312759,-29.464,-23.137651821862352,-20.419607843137253,4.576576576576587,14.168043485923755,106.64772774418007,100.84456108680575,765.50002744977,85.4886975225076,303.45871938734234,1
-119.12295973884656,-64.85574148874784,-101.604156439208,89.3838964773544,-14.16218850062647,-45.064516129032285,102.33002973240832,-2.0650406504065097,6.403361344537813,20.483870967741943,-6.79423868312759,-29.464,-23.137651821862352,-20.419607843137253,4.576576576576587,14.168043485923755,106.64772774418007,95.19428588893413,767.0475745044131,85.28126480177008,350.2351903419318,1
-119.12295973884656,-64.85574148874784,-101.604156439208,89.3838964773544,-14.16218850062647,-45.064516129032285,102.33002973240832,5.162601626016254,11.739495798319325,6.437788018433185,-18.292181069958865,17.272000000000006,10.797570850202423,1.4941176470588253,17.162162162162172,11.044739646518883,39.47267814682895,95.19428588893413,767.0475745044131,85.28126480177008,350.2351903419318,1
-119.12295973884656,-64.85574148874784,-101.604156439208,89.3838964773544,-14.16218850062647,-45.064516129032285,102.33002973240832,4.130081300813003,13.87394957983193,6.437788018433185,-16.201646090534997,-9.143999999999997,9.769230769230763,24.403921568627453,27.45945945945947,13.927509598366349,70.04317396621181,95.19428588893413,767.0475745044131,85.28126480177008,350.2351903419318,1
-116.89211876263018,-53.081554145027894,-99.71297659957455,97.16732566498919,-26.64471669218989,-61.25095457537856,116.42715559960357,4.130081300813003,13.87394957983193,6.437788018433185,-16.201646090534997,-9.143999999999997,9.769230769230763,24.403921568627453,27.45945945945947,13.927509598366349,70.04317396621181,89.89554983574419,1090.2334404016783,83.3206188031972,687.4208582208973,1
-116.89211876263018,-53.081554145027894,-99.71297659957455,97.16732566498919,-26.64471669218989,-61.25095457537856,116.42715559960357,-5.162601626016265,-4.268907563025213,9.949308755760374,5.748971193415619,-33.528,-57.07287449392713,-30.380392156862744,-1.1441441441441356,18.406899991643936,396.0172548340893,89.89554983574419,1090.2334404016783,83.3206188031972,687.4208582208973,1
-116.89211876263018,-53.081554145027894,-99.71297659957455,97.16732566498919,-26.64471669218989,-61.25095457537856,116.42715559960357,-1.032520325203258,2.134453781512603,5.267281105990788,-1.5679012345679197,-77.216,-14.910931174089074,-8.466666666666665,11.441441441441452,15.254649466183968,651.6324948842688,89.89554983574419,1090.2334404016783,83.3206188031972,687.4208582208973,1
-113.69392196486864,-38.13175610694365,-101.25085910652922,103.94644140905822,-39.76374773771404,-76.30032916392364,124.48265609514374,-1.032520325203258,2.134453781512603,5.267281105990788,-1.5679012345679197,-77.216,-14.910931174089074,-8.466666666666665,11.441441441441452,15.254649466183968,651.6324948842688,84.35884572611384,1641.4153143182405,81.1096855408437,1387.143354806396,1
-113.69392196486864,-38.13175610694365,-101.25085910652922,103.94644140905822,-39.76374773771404,-76.30032916392364,124.48265609514374,1.0325203252032464,-1.7763568394002505e-15,9.949308755760374,21.42798353909463,24.384000000000004,35.47773279352226,41.33725490196079,26.315315315315324,19.99051445385708,230.96591708498337,84.35884572611384,1641.4153143182405,81.1096855408437,1387.143354806396,1
-113.69392196486864,-38.13175610694365,-101.25085910652922,103.94644140905822,-39.76374773771404,-76.30032916392364,124.48265609514374,11.357723577235767,16.008403361344534,22.824884792626733,62.193415637860056,14.224000000000004,20.05263157894736,16.43529411764706,21.73873873873875,23.10438647555003,264.4119494528244,84.35884572611384,1641.4153143182405,81.1096855408437,1387.143354806396,1
-111.52230685527746,-22.253702635122146,-102.62248404516447,109.74406901509704,-53.66072671585688,-90.44674127715604,127.0,11.357723577235767,16.008403361344534,22.824884792626733,62.193415637860056,14.224000000000004,20.05263157894736,16.43529411764706,21.73873873873875,23.10438647555003,264.4119494528244,78.79949784518803,2417.871928466884,78.20675189846122,2360.7370345202294,1
-111.52230685527746,-22.253702635122146,-102.62248404516447,109.74406901509704,-53.66072671585688,-90.44674127715604,127.0,9.292682926829261,14.941176470588232,36.87096774193549,-19.337448559670797,-49.784,15.93927125506072,13.447058823529414,22.882882882882893,22.811936082562102,188.12560154671647,78.79949784518803,2417.871928466884,78.20675189846122,2360.7370345202294,1
-111.52230685527746,-22.253702635122146,-102.62248404516447,109.74406901509704,-53.66072671585688,-90.44674127715604,127.0,4.130081300813003,13.87394957983193,12.290322580645167,-95.64197530864199,27.432000000000002,32.39271255060728,30.380392156862747,10.297297297297307,28.304841346837428,847.0680255475869,78.79949784518803,2417.871928466884,78.20675189846122,2360.7370345202294,1
-107.31727032488729,-11.65204847085979,-103.34986090656194,114.60585909417685,-67.85827648614784,-103.52297564186966,122.97224975223003,4.130081300813003,13.87394957983193,12.290322580645167,-95.64197530864199,27.432000000000002,32.39271255060728,30.380392156862747,10.297297297297307,28.304841346837428,847.0680255475869,74.10639323410301,2929.3439692276884,76.5359228238662,3189.1122370924386,1
-107.31727032488729,-11.65204847085979,-103.34986090656194,114.60585909417685,-67.85827648614784,-103.52297564186966,122.97224975223003,13.42276422764227,13.87394957983193,1.7557603686635996,-107.13991769547326,-74.16799999999999,-111.5748987854251,-5.478431372549018,35.46846846846848,45.36027381225671,2090.3059915595227,74.10639323410301,2929.3439692276884,76.5359228238662,3189.1122370924386,1
-107.31727032488729,-11.65204847085979,-103.34986090656194,114.60585909417685,-67.85827648614784,-103.52297564186966,122.97224975223003,-5.329070518200751e-15,-2.1344537815126063,-6.437788018433174,-72.64609053497944,-66.03999999999999,20.05263157894736,-46.317647058823525,9.153153153153163,27.847720515731154,873.1407784436784,74.10639323410301,2929.3439692276884,76.5359228238662,3189.1122370924386,1
-102.50023317270325,-4.567993844970189,-103.14203894616267,118.60028756290438,-82.10886816093554,-115.69624753127059,112.90287413280475,-5.329070518200751e-15,-2.1344537815126063,-6.437788018433174,-72.64609053497944,-66.03999999999999,20.05263157894736,-46.317647058823525,9.153153153153163,27.847720515731154,873.1407784436784,70.07008865461204,3217.9962970011934,75.43677345134574,3826.5273047470237,1
-102.50023317270325,-4.567993844970189,-103.14203894616267,118.60028756290438,-82.10886816093554,-115.69624753127059,112.90287413280475,-1.032520325203258,4.268907563025208,11.11981566820277,-16.201646090534997,-47.751999999999995,-85.8663967611336,60.26274509803922,33.18018018018019,32.46052646078991,908.8230688470173,70.07008865461204,3217.9962970011934,75.43677345134574,3826.5273047470237,1
-102.50023317270325,-4.567993844970189,-103.14203894616267,118.60028756290438,-82.10886816093554,-115.69624753127059,112.90287413280475,11.357723577235767,17.075630252100837,31.01843317972351,37.10699588477364,110.744,27.25101214574898,25.400000000000002,16.01801801801803,34.4964766322001,1021.1686105409757,70.07008865461204,3217.9962970011934,75.43677345134574,3826.5273047470237,1
-94.62319291154982,29.679746105020186,-102.62248404516447,121.20237239396116,-97.34957538632884,-124.32455562870311,94.90386521308233,11.357723577235767,17.075630252100837,31.01843317972351,37.10699588477364,110.744,27.25101214574898,25.400000000000002,16.01801801801803,34.4964766322001,1021.1686105409757,75.64180768724482,5503.181568251646,84.50153418138194,2340.3743986805775,1
-94.62319291154982,29.679746105020186,-102.62248404516447,121.20237239396116,-97.34957538632884,-124.32455562870311,94.90386521308233,6.195121951219506,8.537815126050418,6.437788018433185,23.518518518518498,23.368000000000002,-27.25101214574899,-44.325490196078434,-20.59459459459459,20.028542568830453,167.75242944967957,75.64180768724482,5503.181568251646,84.50153418138194,2340.3743986805775,1
-94.62319291154982,29.679746105020186,-102.62248404516447,121.20237239396116,-97.34957538632884,-124.32455562870311,94.90386521308233,4.130081300813003,9.60504201680672,13.460829493087562,-13.065843621399194,-83.312,-33.42105263157895,-62.25490196078431,-17.162162162162154,29.551489148328987,814.7098925766174,75.64180768724482,5503.181568251646,84.50153418138194,2340.3743986805775,1
-77.62536919011347,63.04808617041738,-103.0173457699231,122.77731847591659,-111.42336071279409,-127.0,67.213082259663,4.130081300813003,9.60504201680672,13.460829493087562,-13.065843621399194,-83.312,-33.42105263157895,-62.25490196078431,-17.162162162162154,29.551489148328987,814.7098925766174,81.23026704348466,8001.916867205453,96.28091680541901,925.9299043464297,1
-77.62536919011347,63.04808617041738,-103.0173457699231,122.77731847591659,-111.42336071279409,-127.0,67.213082259663,27.8780487804878,22.41176470588235,34.5299539170507,32.9259259259259,29.464000000000006,75.58299595141699,6.4745098039215705,96.10810810810813,40.67191339909918,883.1250135135,81.23026704348466,8001.916867205453,96.28091680541901,925.9299043464297,1
-77.62536919011347,63.04808617041738,-103.0173457699231,122.77731847591659,-111.42336071279409,-127.0,67.213082259663,2.065040650406498,6.403361344537813,1.7557603686635996,27.699588477366234,23.368000000000002,46.78947368421052,-83.17254901960784,3.4324324324324422,24.335775747153118,820.3643214894382,81.23026704348466,8001.916867205453,96.28091680541901,925.9299043464297,1
