Gyro 0,Gyro 1,Gyro 2,Orientation 0,Orientation 1,Orientation 2,Orientation 3,Sensor 0,Sensor 1,Sensor 2,Sensor 3,Sensor 4,Sensor 5,Sensor 6,Sensor 7,Sensor Mean,Sensor Variance,Gyro Mean,Gyro Variance,Orientation Mean,Orientation Variance,Label
-22.550009773897177,-76.2611771789854,-53.885264929487555,-121.83185061217299,125.51714072364399,-26.74836263357463,106.6010362694301,-3.48627450980392,-4.482352941176469,-13.44705882352941,-8.127999999999998,-24.792828685258964,0.5226337448559555,-3.48627450980392,-4.482352941176469,7.853472019450638,61.845755551847596,50.898817294123376,727.9115281134323,83.99276424021532,1199.0177053476614,1
-22.550009773897177,-76.2611771789854,-53.885264929487555,-121.83185061217299,125.51714072364399,-26.74836263357463,106.6010362694301,-1.4941176470588218,-3.48627450980392,-14.44313725490196,1.0160000000000018,3.541832669322708,0.5226337448559555,-0.49803921568627274,-2.490196078431371,3.4365288900076263,21.25885214688312,50.898817294123376,727.9115281134323,83.99276424021532,1199.0177053476614,1
-22.550009773897177,-76.2611771789854,-53.885264929487555,-121.83185061217299,125.51714072364399,-26.74836263357463,106.6010362694301,0.4980392156862763,4.482352941176472,5.4784313725490215,4.064000000000002,11.637450199203187,8.884773662551428,-0.49803921568627274,2.4901960784313744,4.754160335660504,15.267297574160223,50.898817294123376,727.9115281134323,83.99276424021532,1199.0177053476614,1
-22.566560239786273,-76.10823423152192,-53.826301433462945,-121.76473178895445,125.55162582309413,-26.923474663908962,106.6010362694301,0.4980392156862763,4.482352941176472,5.4784313725490215,4.064000000000002,11.637450199203187,8.884773662551428,-0.49803921568627274,2.4901960784313744,4.754160335660504,15.267297574160223,50.833698634923714,723.3944670916941,83.89975581797978,1199.4384362661715,1
-22.566560239786273,-76.10823423152192,-53.826301433462945,-121.76473178895445,125.55162582309413,-26.923474663908962,106.6010362694301,-4.482352941176469,-8.466666666666665,-3.48627450980392,10.160000000000002,1.5179282868525883,-1.5679012345679126,-3.48627450980392,-1.4941176470588218,4.332689474491287,10.875282242690519,50.833698634923714,723.3944670916941,83.89975581797978,1199.4384362661715,1
-22.401055580895285,-76.03176275779016,-53.64941094538912,-121.69761296573591,125.58611092254426,-27.054808686659783,106.46943005181345,-4.482352941176469,-8.466666666666665,-3.48627450980392,10.160000000000002,1.5179282868525883,-1.5679012345679126,-3.48627450980392,-1.4941176470588218,4.332689474491287,10.875282242690519,50.69407642802486,725.6136896556045,83.79292888963839,1202.8162243450934,1
-22.401055580895285,-76.03176275779016,-53.64941094538912,-121.69761296573591,125.58611092254426,-27.054808686659783,106.46943005181345,3.4862745098039234,11.454901960784316,-2.490196078431371,4.064000000000002,8.601593625498007,3.6584362139917577,-1.4941176470588218,3.4862745098039234,4.841974318171515,11.469486420897047,50.69407642802486,725.6136896556045,83.79292888963839,1202.8162243450934,1
-22.401055580895285,-76.03176275779016,-53.64941094538912,-121.69761296573591,125.58611092254426,-27.054808686659783,106.46943005181345,2.4901960784313744,10.458823529411767,9.462745098039218,2.032000000000002,4.5537848605577675,7.839506172839494,1.4941176470588253,4.482352941176472,5.351690790939365,12.093509909576492,50.69407642802486,725.6136896556045,83.79292888963839,1202.8162243450934,1
-22.516908842118976,-75.87881981032668,-53.61992919737682,-121.65286708359022,125.6205960219944,-27.229920716994116,106.46943005181345,2.4901960784313744,10.458823529411767,9.462745098039218,2.032000000000002,4.5537848605577675,7.839506172839494,1.4941176470588253,4.482352941176472,5.351690790939365,12.093509909576492,50.67188594994082,718.391604786296,83.71720536376458,1203.2003754206007,1
-22.516908842118976,-75.87881981032668,-53.61992919737682,-121.65286708359022,125.6205960219944,-27.229920716994116,106.46943005181345,8.466666666666669,-6.474509803921567,-68.23137254901961,-23.368,5.565737051792827,12.02057613168723,3.4862745098039234,4.482352941176472,16.511936206758538,477.3931892163558,50.67188594994082,718.391604786296,83.71720536376458,1203.2003754206007,1
-22.516908842118976,-75.87881981032668,-53.61992919737682,-121.65286708359022,125.6205960219944,-27.229920716994116,106.46943005181345,-0.49803921568627274,-0.49803921568627274,1.4941176470588253,3.048000000000002,-13.661354581673308,0.5226337448559555,-3.48627450980392,-0.49803921568627274,2.9633122663063536,20.15384700262575,50.67188594994082,718.391604786296,83.71720536376458,1203.2003754206007,1
-22.583110705675374,-75.64940538913143,-53.61992919737682,-121.5857482603717,125.63783857171947,-27.36125473974488,106.40362694300518,-0.49803921568627274,-0.49803921568627274,1.4941176470588253,3.048000000000002,-13.661354581673308,0.5226337448559555,-3.48627450980392,-0.49803921568627274,2.9633122663063536,20.15384700262575,50.61748176406121,710.7689258002168,83.61836094895999,1202.4663297618313,1
-22.583110705675374,-75.64940538913143,-53.61992919737682,-121.5857482603717,125.63783857171947,-27.36125473974488,106.40362694300518,-4.482352941176469,-7.470588235294116,23.407843137254904,8.128000000000002,-2.5298804780876507,5.748971193415626,3.4862745098039234,-2.490196078431371,7.218013321683007,47.27158597083543,50.61748176406121,710.7689258002168,83.61836094895999,1202.4663297618313,1
-22.583110705675374,-75.64940538913143,-53.61992919737682,-121.5857482603717,125.63783857171947,-27.36125473974488,106.40362694300518,10.458823529411767,22.411764705882355,-2.490196078431371,3.048000000000002,16.697211155378483,14.111111111111098,10.458823529411767,5.4784313725490215,10.644295185271982,48.29684635873385,50.61748176406121,710.7689258002168,83.61836094895999,1202.4663297618313,1
-22.450706978562582,-76.10823423152192,-53.56096570135222,-121.56337531929886,125.70680877061977,-27.53636677007927,106.33782383419691,10.458823529411767,22.411764705882355,-2.490196078431371,3.048000000000002,16.697211155378483,14.111111111111098,10.458823529411767,5.4784313725490215,10.644295185271982,48.29684635873385,50.706635637145574,725.892957812094,83.74419175072434,1199.8128138880484,1
-22.450706978562582,-76.10823423152192,-53.56096570135222,-121.56337531929886,125.70680877061977,-27.53636677007927,106.33782383419691,-1.4941176470588218,-4.482352941176469,-42.33333333333333,-16.256,-11.637450199203188,7.839506172839494,-4.482352941176469,1.4941176470588253,11.252403860230825,183.56739443988357,50.706635637145574,725.892957812094,83.74419175072434,1199.8128138880484,1
-22.450706978562582,-76.10823423152192,-53.56096570135222,-121.56337531929886,125.70680877061977,-27.53636677007927,106.33782383419691,-5.478431372549018,-7.470588235294116,14.443137254901963,6.096000000000002,2.529880478087648,4.703703703703692,-4.482352941176469,-5.478431372549018,6.335315669782741,12.732621931610113,50.706635637145574,725.892957812094,83.74419175072434,1199.8128138880484,1
-22.103147194891505,-75.61116965226556,-53.73785618942603,-121.56337531929886,125.70680877061977,-27.53636677007927,106.27202072538864,-5.478431372549018,-7.470588235294116,14.443137254901963,6.096000000000002,2.529880478087648,4.703703703703692,-4.482352941176469,-5.478431372549018,6.335315669782741,12.732621931610113,50.484057678861035,723.7175203852278,83.63746705366349,1198.3913487909515,1
-22.103147194891505,-75.61116965226556,-53.73785618942603,-121.56337531929886,125.70680877061977,-27.53636677007927,106.27202072538864,-6.474509803921567,0.4980392156862763,29.3843137254902,18.288000000000004,9.613545816733065,8.884773662551428,-2.490196078431371,-5.478431372549018,10.138976209420365,89.3198859708414,50.484057678861035,723.7175203852278,83.63746705366349,1198.3913487909515,1
-22.103147194891505,-75.61116965226556,-53.73785618942603,-121.56337531929886,125.70680877061977,-27.53636677007927,106.27202072538864,-0.49803921568627274,-9.462745098039214,-28.388235294117646,2.032000000000002,0.5059760956175285,5.748971193415626,0.4980392156862763,2.4901960784313744,6.203025273874242,90.24973367712683,50.484057678861035,723.7175203852278,83.63746705366349,1198.3913487909515,1
-21.739036945331332,-75.45822670480206,-53.67889269340143,-121.56337531929886,125.70680877061977,-27.53636677007927,106.20621761658037,-0.49803921568627274,-9.462745098039214,-28.388235294117646,2.032000000000002,0.5059760956175285,5.748971193415626,0.4980392156862763,2.4901960784313744,6.203025273874242,90.24973367712683,50.29205211451161,730.0408539336172,83.56683157250077,1201.387850021793,1
-21.739036945331332,-75.45822670480206,-53.67889269340143,-121.56337531929886,125.70680877061977,-27.53636677007927,106.20621761658037,-2.490196078431371,-4.482352941176469,18.42745098039216,7.112000000000002,-6.577689243027891,0.5226337448559555,0.4980392156862763,1.4941176470588253,5.2005599813286185,35.15671964151593,50.29205211451161,730.0408539336172,83.56683157250077,1201.387850021793,1
-21.739036945331332,-75.45822670480206,-53.67889269340143,-121.56337531929886,125.70680877061977,-27.53636677007927,106.20621761658037,-0.49803921568627274,-3.48627450980392,-21.415686274509802,-6.095999999999998,5.565737051792827,10.975308641975296,-0.49803921568627274,-1.4941176470588218,6.2536503195641515,49.89215834159287,50.29205211451161,730.0408539336172,83.56683157250077,1201.387850021793,1
-21.49077995699485,-75.64940538913143,-53.50200220532761,-121.69761296573591,125.79302151924512,-27.36125473974488,105.81139896373054,-0.49803921568627274,-3.48627450980392,-21.415686274509802,-6.095999999999998,5.565737051792827,10.975308641975296,-0.49803921568627274,-1.4941176470588218,6.2536503195641515,49.89215834159287,50.2140625171513,741.3970877194315,83.61634018673165,1210.2643692981892,1
-21.49077995699485,-75.64940538913143,-53.50200220532761,-121.69761296573591,125.79302151924512,-27.36125473974488,105.81139896373054,-7.470588235294116,-4.482352941176469,9.462745098039218,7.112000000000002,2.529880478087648,2.6131687242798236,-1.4941176470588218,-2.490196078431371,4.706881150295933,8.635690574887843,50.2140625171513,741.3970877194315,83.61634018673165,1210.2643692981892,1
-21.49077995699485,-75.64940538913143,-53.50200220532761,-121.69761296573591,125.79302151924512,-27.36125473974488,105.81139896373054,-1.4941176470588218,-17.431372549019606,0.4980392156862763,8.128000000000002,6.577689243027887,7.839506172839494,0.4980392156862763,-2.490196078431371,5.619620015218716,32.98992900056908,50.2140625171513,741.3970877194315,83.61634018673165,1210.2643692981892,1
-22.02039486544601,-75.64940538913143,-53.54622482734606,-121.76473178895445,125.86199171814539,-27.405032747328505,105.679792746114,-1.4941176470588218,-17.431372549019606,0.4980392156862763,8.128000000000002,6.577689243027887,7.839506172839494,0.4980392156862763,-2.490196078431371,5.619620015218716,32.98992900056908,50.4053416939745,726.4165525805138,83.65345400181064,1211.4897686633522,1
-22.02039486544601,-75.64940538913143,-53.54622482734606,-121.76473178895445,125.86199171814539,-27.405032747328505,105.679792746114,6.4745098039215705,-4.482352941176469,-54.28627450980392,-8.127999999999998,0.5059760956175285,9.930041152263362,4.482352941176472,1.4941176470588253,11.222953136377267,312.6604195658685,50.4053416939745,726.4165525805138,83.65345400181064,1211.4897686633522,1
-22.02039486544601,-75.64940538913143,-53.54622482734606,-121.76473178895445,125.86199171814539,-27.405032747328505,105.679792746114,-0.49803921568627274,-4.482352941176469,-15.439215686274508,-2.0319999999999983,-9.613545816733069,-6.794238683127583,-3.48627450980392,-4.482352941176469,5.853502474247286,22.793935218500256,50.4053416939745,726.4165525805138,83.65345400181064,1211.4897686633522,1
-21.838339740665926,-75.57293391539967,-53.64941094538912,-121.7423588478816,125.86199171814539,-27.36125473974488,105.61398963730574,-0.49803921568627274,-4.482352941176469,-15.439215686274508,-2.0319999999999983,-9.613545816733069,-6.794238683127583,-3.48627450980392,-4.482352941176469,5.853502474247286,22.793935218500256,50.353561533818244,729.9986202886466,83.65490123622347,1208.1510353440367,1
-21.838339740665926,-75.57293391539967,-53.64941094538912,-121.7423588478816,125.86199171814539,-27.36125473974488,105.61398963730574,-3.48627450980392,-5.478431372549018,15.439215686274512,5.080000000000002,-7.5896414342629495,4.703703703703692,-4.482352941176469,-3.48627450980392,6.21823676969681,15.569205222366593,50.353561533818244,729.9986202886466,83.65490123622347,1208.1510353440367,1
-21.838339740665926,-75.57293391539967,-53.64941094538912,-121.7423588478816,125.86199171814539,-27.36125473974488,105.61398963730574,-3.48627450980392,6.4745098039215705,21.415686274509806,6.096000000000002,7.589641434262947,15.156378600823032,2.4901960784313744,-1.4941176470588218,8.025350543601434,47.19544920428529,50.353561533818244,729.9986202886466,83.65490123622347,1208.1510353440367,1
-21.987293933667814,-76.06999849465603,-53.38407521327839,-121.7871047300273,125.93096191704566,-27.448810754912074,105.41658031088082,-3.48627450980392,6.4745098039215705,21.415686274509806,6.096000000000002,7.589641434262947,15.156378600823032,2.4901960784313744,-1.4941176470588218,8.025350543601434,47.19544920428529,50.48045588053409,737.5579870798989,83.74705947932057,1213.9465607889992,1
-21.987293933667814,-76.06999849465603,-53.38407521327839,-121.7871047300273,125.93096191704566,-27.448810754912074,105.41658031088082,6.4745098039215705,21.415686274509806,15.439215686274512,6.096000000000002,7.589641434262947,-1.5679012345679126,-0.49803921568627274,2.4901960784313744,7.696398715956799,52.673594029742034,50.48045588053409,737.5579870798989,83.74705947932057,1213.9465607889992,1
-21.987293933667814,-76.06999849465603,-53.38407521327839,-121.7871047300273,125.93096191704566,-27.448810754912074,105.41658031088082,-3.48627450980392,-3.48627450980392,-23.4078431372549,-23.368,2.529880478087648,1.5679012345678895,-2.490196078431371,-0.49803921568627274,7.60430114545449,95.85761800740423,50.48045588053409,737.5579870798989,83.74705947932057,1213.9465607889992,1
-22.103147194891505,-76.06999849465603,-53.472520457315305,-121.7871047300273,125.98268956622087,-27.4925887624957,105.21917098445601,-3.48627450980392,-3.48627450980392,-23.4078431372549,-23.368,2.529880478087648,1.5679012345678895,-2.490196078431371,-0.49803921568627274,7.60430114545449,95.85761800740423,50.54855538228762,734.5174386227104,83.77654122733288,1211.2637067562978,1
-22.103147194891505,-76.06999849465603,-53.472520457315305,-121.7871047300273,125.98268956622087,-27.4925887624957,105.21917098445601,16.43529411764706,18.42745098039216,7.4705882352941195,1.0160000000000018,9.613545816733065,7.839506172839494,0.4980392156862763,1.4941176470588253,7.849317773206375,47.142288817067914,50.54855538228762,734.5174386227104,83.77654122733288,1211.2637067562978,1
-22.103147194891505,-76.06999849465603,-53.472520457315305,-121.7871047300273,125.98268956622087,-27.4925887624957,105.21917098445601,1.4941176470588253,3.4862745098039234,22.411764705882355,11.176000000000002,13.661354581673304,13.065843621399164,1.4941176470588253,1.4941176470588253,8.535448794991904,60.07989075841914,50.54855538228762,734.5174386227104,83.77654122733288,1211.2637067562978,1
-22.119697660780606,-75.99352702092429,-53.51674307933376,-121.7871047300273,126.05165976512114,-27.580144777662838,105.0217616580311,1.4941176470588253,3.4862745098039234,22.411764705882355,11.176000000000002,13.661354581673304,13.065843621399164,1.4941176470588253,1.4941176470588253,8.535448794991904,60.07989075841914,50.54332258701288,732.2282945495851,83.76579161009512,1210.5166426121807,1
-22.119697660780606,-75.99352702092429,-53.51674307933376,-121.7871047300273,126.05165976512114,-27.580144777662838,105.0217616580311,14.443137254901963,35.36078431372549,2.4901960784313744,-9.143999999999998,-3.5418326693227105,-1.5679012345679126,5.4784313725490215,6.4745098039215705,9.812599090927506,123.63452380632334,50.54332258701288,732.2282945495851,83.76579161009512,1210.5166426121807,1
-22.119697660780606,-75.99352702092429,-53.51674307933376,-121.7871047300273,126.05165976512114,-27.580144777662838,105.0217616580311,2.4901960784313744,1.4941176470588253,-60.26274509803922,-1.0159999999999982,0.5059760956175285,10.975308641975296,-0.49803921568627274,-0.49803921568627274,9.717552749061849,429.5467161534026,50.54332258701288,732.2282945495851,83.76579161009512,1210.5166426121807,1
-22.07004626311331,-75.91705554719255,-53.443038709303,-121.80947767110014,126.10338741429635,-27.623922785246464,104.82435233160629,2.4901960784313744,1.4941176470588253,-60.26274509803922,-1.0159999999999982,0.5059760956175285,10.975308641975296,-0.49803921568627274,-0.49803921568627274,9.717552749061849,429.5467161534026,50.47671350653629,731.4744161163558,83.72319064253189,1214.1943029242998,1
-22.07004626311331,-75.91705554719255,-53.443038709303,-121.80947767110014,126.10338741429635,-27.623922785246464,104.82435233160629,-11.454901960784312,-15.439215686274508,19.423529411764708,10.160000000000002,-4.55378486055777,6.79423868312756,-1.4941176470588218,-3.48627450980392,9.10075784492145,38.396863039070354,50.47671350653629,731.4744161163558,83.72319064253189,1214.1943029242998,1
-22.07004626311331,-75.91705554719255,-53.443038709303,-121.80947767110014,126.10338741429635,-27.623922785246464,104.82435233160629,3.4862745098039234,-0.49803921568627274,27.3921568627451,14.224000000000002,15.685258964143426,15.156378600823032,2.4901960784313744,4.482352941176472,10.4268321466012,85.33424045231006,50.47671350653629,731.4744161163558,83.72319064253189,1214.1943029242998,1
-21.755587411220432,-75.64940538913143,-53.38407521327839,-121.8989694353915,126.15511506347158,-27.623922785246464,104.69274611398964,3.4862745098039234,-0.49803921568627274,27.3921568627451,14.224000000000002,15.685258964143426,15.156378600823032,2.4901960784313744,4.482352941176472,10.4268321466012,85.33424045231006,50.26302267121008,733.441630786814,83.64415001260045,1221.5096387627023,1
-21.755587411220432,-75.64940538913143,-53.38407521327839,-121.8989694353915,126.15511506347158,-27.623922785246464,104.69274611398964,-4.482352941176469,7.4705882352941195,24.403921568627453,2.032000000000002,-26.816733067729086,1.5679012345678895,-6.474509803921567,-4.482352941176469,9.716294974061633,100.56239085886425,50.26302267121008,733.441630786814,83.64415001260045,1221.5096387627023,1
-21.755587411220432,-75.64940538913143,-53.38407521327839,-121.8989694353915,126.15511506347158,-27.623922785246464,104.69274611398964,3.4862745098039234,22.411764705882355,9.462745098039218,-2.0319999999999983,1.5179282868525883,6.79423868312756,1.4941176470588253,-1.4941176470588218,6.08664832222791,52.09516203514405,50.26302267121008,733.441630786814,83.64415001260045,1221.5096387627023,1
-21.821789274776826,-75.19057654674094,-53.472520457315305,-121.92134237646435,126.13787251374649,-27.580144777662838,104.75854922279791,3.4862745098039234,22.411764705882355,9.462745098039218,-2.0319999999999983,1.5179282868525883,6.79423868312756,1.4941176470588253,-1.4941176470588218,6.08664832222791,52.09516203514405,50.16162875961103,720.2783665954851,83.52814646017353,1223.4466095758771,1
-21.821789274776826,-75.19057654674094,-53.472520457315305,-121.92134237646435,126.13787251374649,-27.580144777662838,104.75854922279791,-0.49803921568627274,-5.478431372549018,1.4941176470588253,2.032000000000002,31.87649402390438,6.79423868312756,-1.4941176470588218,-0.49803921568627274,6.2706847256338945,112.40053580341286,50.16162875961103,720.2783665954851,83.52814646017353,1223.4466095758771,1
-21.821789274776826,-75.19057654674094,-53.472520457315305,-121.92134237646435,126.13787251374649,-27.580144777662838,104.75854922279791,4.482352941176472,-9.462745098039214,-0.49803921568627274,5.080000000000002,3.541832669322708,9.930041152263362,-1.4941176470588218,2.4901960784313744,4.622415600247278,12.048489697748256,50.16162875961103,720.2783665954851,83.52814646017353,1223.4466095758771,1
-21.854890206555023,-75.45822670480206,-53.56096570135222,-121.96608825861004,126.13787251374649,-27.53636677007927,104.69274611398964,4.482352941176472,-9.462745098039214,-0.49803921568627274,5.080000000000002,3.541832669322708,9.930041152263362,-1.4941176470588218,2.4901960784313744,4.622415600247278,12.048489697748256,50.2913608709031,726.3471577465477,83.6617602215881,1220.28866963914,1
-21.854890206555023,-75.45822670480206,-53.56096570135222,-121.96608825861004,126.13787251374649,-27.53636677007927,104.69274611398964,-3.48627450980392,-14.44313725490196,-50.30196078431372,3.048000000000002,7.589641434262947,9.930041152263362,1.4941176470588253,2.4901960784313744,11.597921107629514,264.12621896521534,50.2913608709031,726.3471577465477,83.6617602215881,1220.28866963914,1
-21.854890206555023,-75.45822670480206,-53.56096570135222,-121.96608825861004,126.13787251374649,-27.53636677007927,104.69274611398964,1.4941176470588253,4.482352941176472,11.454901960784316,1.7763568394002505e-15,-9.613545816733069,1.5679012345678895,-0.49803921568627274,-2.490196078431371,3.9501318618047767,18.57685965424656,50.2913608709031,726.3471577465477,83.6617602215881,1220.28866963914,1
-21.970743467778714,-75.30528375733856,-53.767337937438334,-121.96608825861004,126.15511506347158,-27.53636677007927,104.69274611398964,1.4941176470588253,4.482352941176472,11.454901960784316,1.7763568394002505e-15,-9.613545816733069,1.5679012345678895,-0.49803921568627274,-2.490196078431371,3.9501318618047767,18.57685965424656,50.347788387518534,719.9132863179381,83.6795699844623,1215.3638887027255,1
-21.970743467778714,-75.30528375733856,-53.767337937438334,-121.96608825861004,126.15511506347158,-27.53636677007927,104.69274611398964,-14.44313725490196,-28.388235294117646,-9.462745098039214,5.080000000000002,-2.5298804780876507,2.6131687242798236,-2.490196078431371,-2.490196078431371,8.43719487578613,83.71244310366976,50.347788387518534,719.9132863179381,83.6795699844623,1215.3638887027255,1
-21.970743467778714,-75.30528375733856,-53.767337937438334,-121.96608825861004,126.15511506347158,-27.53636677007927,104.69274611398964,1.4941176470588253,-5.478431372549018,-30.380392156862744,2.032000000000002,2.529880478087648,3.6584362139917577,-0.49803921568627274,-0.49803921568627274,5.8211670374903175,101.21935727297387,50.347788387518534,719.9132863179381,83.6795699844623,1215.3638887027255,1
-22.02039486544601,-75.49646244166793,-53.767337937438334,-121.9437153175372,126.15511506347158,-27.4925887624957,104.62694300518137,1.4941176470588253,-5.478431372549018,-30.380392156862744,2.032000000000002,2.529880478087648,3.6584362139917577,-0.49803921568627274,-0.49803921568627274,5.8211670374903175,101.21935727297387,50.428065081517424,723.2855082588809,83.73583856554782,1212.9200973514855,1
-22.02039486544601,-75.49646244166793,-53.767337937438334,-121.9437153175372,126.15511506347158,-27.4925887624957,104.62694300518137,-5.478431372549018,-21.415686274509802,-17.431372549019606,6.096000000000002,17.709163346613543,13.065843621399164,-1.4941176470588218,-2.490196078431371,10.647601361197665,59.35023941528992,50.428065081517424,723.2855082588809,83.73583856554782,1212.9200973514855,1
-22.02039486544601,-75.49646244166793,-53.767337937438334,-121.9437153175372,126.15511506347158,-27.4925887624957,104.62694300518137,-10.458823529411763,-11.454901960784312,38.34901960784314,8.128000000000002,-14.673306772908369,-2.6131687242798467,-2.490196078431371,-3.48627450980392,11.45671139793284,138.25047684132534,50.428065081517424,723.2855082588809,83.73583856554782,1212.9200973514855,1
-22.08659672900241,-75.22881228360681,-53.900005803493706,-121.9437153175372,126.15511506347158,-27.4925887624957,104.62694300518137,-10.458823529411763,-11.454901960784312,38.34901960784314,8.128000000000002,-14.673306772908369,-2.6131687242798467,-2.490196078431371,-3.48627450980392,11.45671139793284,138.25047684132534,50.405138272034314,715.1843428098465,83.69084446821257,1211.191092627861,1
-22.08659672900241,-75.22881228360681,-53.900005803493706,-121.9437153175372,126.15511506347158,-27.4925887624957,104.62694300518137,3.4862745098039234,-7.470588235294116,-16.435294117647057,1.7763568394002505e-15,0.5059760956175285,4.703703703703692,2.4901960784313744,1.4941176470588253,4.573268798444565,28.796956520547774,50.405138272034314,715.1843428098465,83.69084446821257,1211.191092627861,1
-22.08659672900241,-75.22881228360681,-53.900005803493706,-121.9437153175372,126.15511506347158,-27.4925887624957,104.62694300518137,-2.490196078431371,3.4862745098039234,32.372549019607845,7.112000000000002,12.649402390438246,8.884773662551428,3.4862745098039234,1.4941176470588253,8.996948477211944,103.24144095025132,50.405138272034314,715.1843428098465,83.69084446821257,1211.191092627861,1
-22.08659672900241,-75.22881228360681,-53.97371017352446,-121.9437153175372,126.15511506347158,-27.4925887624957,104.62694300518137,-2.490196078431371,3.4862745098039234,32.372549019607845,7.112000000000002,12.649402390438246,8.884773662551428,3.4862745098039234,1.4941176470588253,8.996948477211944,103.24144095025132,50.4297063953779,715.4437405976474,83.71541259155616,1208.9971884094439,1
-22.08659672900241,-75.22881228360681,-53.97371017352446,-121.9437153175372,126.15511506347158,-27.4925887624957,104.62694300518137,1.4941176470588253,11.454901960784316,9.462745098039218,3.048000000000002,5.565737051792827,9.930041152263362,2.4901960784313744,0.4980392156862763,5.492972275507025,18.133046527675344,50.4297063953779,715.4437405976474,83.71541259155616,1208.9971884094439,1
-22.08659672900241,-75.22881228360681,-53.97371017352446,-121.9437153175372,126.15511506347158,-27.4925887624957,104.62694300518137,7.4705882352941195,-1.4941176470588218,-3.48627450980392,10.160000000000002,8.601593625498007,-0.5226337448559786,-1.4941176470588218,-0.49803921568627274,4.215920578156993,15.424412149248495,50.4297063953779,715.4437405976474,83.71541259155616,1208.9971884094439,1
-22.119697660780606,-75.22881228360681,-53.900005803493706,-121.92134237646435,126.13787251374649,-27.448810754912074,104.5611398963731,7.4705882352941195,-1.4941176470588218,-3.48627450980392,10.160000000000002,8.601593625498007,-0.5226337448559786,-1.4941176470588218,-0.49803921568627274,4.215920578156993,15.424412149248495,50.416171915960376,714.2473379220673,83.6833868211883,1210.3354302519792,1
-22.119697660780606,-75.22881228360681,-53.900005803493706,-121.92134237646435,126.13787251374649,-27.448810754912074,104.5611398963731,-6.474509803921567,-19.423529411764704,-32.372549019607845,-12.191999999999998,-3.5418326693227105,4.703703703703692,-3.48627450980392,-1.4941176470588218,10.461064595647908,112.77207013340163,50.416171915960376,714.2473379220673,83.6833868211883,1210.3354302519792,1
-22.119697660780606,-75.22881228360681,-53.900005803493706,-121.92134237646435,126.13787251374649,-27.448810754912074,104.5611398963731,-0.49803921568627274,12.450980392156865,8.466666666666669,3.048000000000002,7.589641434262947,8.884773662551428,-2.490196078431371,0.4980392156862763,5.490792083180229,19.721471761401144,50.416171915960376,714.2473379220673,83.6833868211883,1210.3354302519792,1
-22.285202319671594,-75.22881228360681,-53.752597063432184,-121.87659649431868,126.12062996402142,-27.448810754912074,104.62694300518137,-0.49803921568627274,12.450980392156865,8.466666666666669,3.048000000000002,7.589641434262947,8.884773662551428,-2.490196078431371,0.4980392156862763,5.490792083180229,19.721471761401144,50.42220388890353,709.0750980260356,83.61933528045256,1213.0204817353037,1
-22.285202319671594,-75.22881228360681,-53.752597063432184,-121.87659649431868,126.12062996402142,-27.448810754912074,104.62694300518137,-3.48627450980392,1.4941176470588253,26.39607843137255,16.256,-5.56573705179283,1.5679012345678895,-0.49803921568627274,-1.4941176470588218,7.094783217167638,86.94651038313953,50.42220388890353,709.0750980260356,83.61933528045256,1213.0204817353037,1
-22.285202319671594,-75.22881228360681,-53.752597063432184,-121.87659649431868,126.12062996402142,-27.448810754912074,104.62694300518137,5.4784313725490215,17.43137254901961,20.419607843137257,1.0160000000000018,-9.613545816733069,-1.5679012345679126,0.4980392156862763,1.4941176470588253,7.189876959843996,62.23756602682734,50.42220388890353,709.0750980260356,83.61933528045256,1213.0204817353037,1
-22.550009773897177,-75.19057654674094,-53.73785618942603,-121.7871047300273,126.08614486457128,-27.53636677007927,104.82435233160629,5.4784313725490215,17.43137254901961,20.419607843137257,1.0160000000000018,-9.613545816733069,-1.5679012345679126,0.4980392156862763,1.4941176470588253,7.189876959843996,62.23756602682734,50.49281417002138,700.655040822332,83.57184582206476,1210.359312734246,1
-22.550009773897177,-75.19057654674094,-53.73785618942603,-121.7871047300273,126.08614486457128,-27.53636677007927,104.82435233160629,0.4980392156862763,4.482352941176472,5.4784313725490215,1.0160000000000018,2.529880478087648,5.748971193415626,-0.49803921568627274,-2.490196078431371,2.8427388118790864,4.662252888340348,50.49281417002138,700.655040822332,83.57184582206476,1210.359312734246,1
-22.550009773897177,-75.19057654674094,-53.73785618942603,-121.7871047300273,126.08614486457128,-27.53636677007927,104.82435233160629,3.4862745098039234,10.458823529411767,-1.4941176470588218,1.7763568394002505e-15,8.601593625498007,9.930041152263362,1.4941176470588253,2.4901960784313744,4.74439552369076,17.817967182106056,50.49281417002138,700.655040822332,83.57184582206476,1210.359312734246,1
-22.715514432788165,-75.07586933614331,-53.69363356740758,-121.67524002466307,126.03441721539608,-27.71147880041366,105.0217616580311,3.4862745098039234,10.458823529411767,-1.4941176470588218,1.7763568394002505e-15,8.601593625498007,9.930041152263362,1.4941176470588253,2.4901960784313744,4.74439552369076,17.817967182106056,50.49500577877969,693.0751061989638,83.48158097607131,1208.3666952575063,1
-22.715514432788165,-75.07586933614331,-53.69363356740758,-121.67524002466307,126.03441721539608,-27.71147880041366,105.0217616580311,7.4705882352941195,27.3921568627451,46.31764705882353,8.128000000000002,-0.5059760956175312,6.79423868312756,0.4980392156862763,0.4980392156862763,12.200585670872549,267.6583158221792,50.49500577877969,693.0751061989638,83.48158097607131,1208.3666952575063,1
-22.715514432788165,-75.07586933614331,-53.69363356740758,-121.67524002466307,126.03441721539608,-27.71147880041366,105.0217616580311,-3.48627450980392,-5.478431372549018,-0.49803921568627274,-3.0479999999999983,1.5179282868525883,8.884773662551428,-1.4941176470588218,-2.490196078431371,3.362220096616677,7.2780355525910165,50.49500577877969,693.0751061989638,83.48158097607131,1208.3666952575063,1
-22.450706978562582,-75.1141050730092,-53.69363356740758,-121.63049414251738,126.017174665671,-27.799034815580796,105.21917098445601,-3.48627450980392,-5.478431372549018,-0.49803921568627274,-3.0479999999999983,1.5179282868525883,8.884773662551428,-1.4941176470588218,-2.490196078431371,3.362220096616677,7.2780355525910165,50.41948187299312,701.3984267020687,83.47941092764472,1206.3380127316764,1
-22.450706978562582,-75.1141050730092,-53.69363356740758,-121.63049414251738,126.017174665671,-27.799034815580796,105.21917098445601,-1.4941176470588218,-2.490196078431371,12.450980392156865,1.0160000000000018,-2.5298804780876507,4.703703703703692,-2.490196078431371,1.4941176470588253,3.583649003116075,14.101557025116568,50.41948187299312,701.3984267020687,83.47941092764472,1206.3380127316764,1
-22.450706978562582,-75.1141050730092,-53.69363356740758,-121.63049414251738,126.017174665671,-27.799034815580796,105.21917098445601,-11.454901960784312,-3.48627450980392,-12.450980392156861,-10.159999999999998,6.577689243027887,4.703703703703692,-2.490196078431371,-3.48627450980392,6.851252549713996,15.692874341698204,50.41948187299312,701.3984267020687,83.47941092764472,1206.3380127316764,1
-22.169349058447903,-75.07586933614331,-53.73785618942603,-121.63049414251738,125.99993211594594,-27.755256807997227,105.28497409326428,-11.454901960784312,-3.48627450980392,-12.450980392156861,-10.159999999999998,6.577689243027887,4.703703703703692,-2.490196078431371,-3.48627450980392,6.851252549713996,15.692874341698204,50.32769152800575,708.4968892370487,83.48140655602892,1205.3423640235465,1
-22.169349058447903,-75.07586933614331,-53.73785618942603,-121.63049414251738,125.99993211594594,-27.755256807997227,105.28497409326428,-3.48627450980392,-9.462745098039214,-6.474509803921567,7.112000000000002,15.685258964143426,8.884773662551428,0.4980392156862763,-1.4941176470588218,6.637214862650582,24.174784185136456,50.32769152800575,708.4968892370487,83.48140655602892,1205.3423640235465,1
-22.169349058447903,-75.07586933614331,-53.73785618942603,-121.63049414251738,125.99993211594594,-27.755256807997227,105.28497409326428,-6.474509803921567,-18.427450980392155,-8.466666666666665,9.144000000000002,-1.517928286852591,2.6131687242798236,-6.474509803921567,-6.474509803921567,7.449093008744493,26.54954650351466,50.32769152800575,708.4968892370487,83.48140655602892,1205.3423640235465,1
-22.268651853782494,-75.22881228360681,-53.885264929487555,-121.54100237822601,125.9654470164958,-27.667700792830033,105.21917098445601,-6.474509803921567,-18.427450980392155,-8.466666666666665,9.144000000000002,-1.517928286852591,2.6131687242798236,-6.474509803921567,-6.474509803921567,7.449093008744493,26.54954650351466,50.46090968895896,709.9893047981842,83.55169319710679,1196.2774624583844,1
-22.268651853782494,-75.22881228360681,-53.885264929487555,-121.54100237822601,125.9654470164958,-27.667700792830033,105.21917098445601,4.482352941176472,11.454901960784316,19.423529411764708,7.112000000000002,6.577689243027887,8.884773662551428,3.4862745098039234,5.4784313725490215,8.36249413770722,26.297479868384535,50.46090968895896,709.9893047981842,83.55169319710679,1196.2774624583844,1
-22.268651853782494,-75.22881228360681,-53.885264929487555,-121.54100237822601,125.9654470164958,-27.667700792830033,105.21917098445601,3.4862745098039234,-1.4941176470588218,10.458823529411767,-5.079999999999998,12.649402390438246,10.975308641975296,4.482352941176472,1.4941176470588253,6.265049663365419,19.765966414175086,50.46090968895896,709.9893047981842,83.55169319710679,1196.2774624583844,1
-22.50035837622988,-75.38175523107031,-53.900005803493706,-121.42913767286178,125.94820446677073,-27.667700792830033,105.28497409326428,3.4862745098039234,-1.4941176470588218,10.458823529411767,-5.079999999999998,12.649402390438246,10.975308641975296,4.482352941176472,1.4941176470588253,6.265049663365419,19.765966414175086,50.59403980359797,707.307591724132,83.57029956914194,1190.3351065400495,1
-22.50035837622988,-75.38175523107031,-53.900005803493706,-121.42913767286178,125.94820446677073,-27.667700792830033,105.28497409326428,-2.490196078431371,1.4941176470588253,22.411764705882355,14.224000000000002,-0.5059760956175312,9.930041152263362,-2.490196078431371,0.4980392156862763,6.755541371671387,64.7507103076555,50.59403980359797,707.307591724132,83.57029956914194,1190.3351065400495,1
-22.50035837622988,-75.38175523107031,-53.900005803493706,-121.42913767286178,125.94820446677073,-27.667700792830033,105.28497409326428,-1.4941176470588218,0.4980392156862763,-17.431372549019606,3.048000000000002,-7.5896414342629495,-3.6584362139917808,-1.4941176470588218,0.4980392156862763,4.463970490345567,32.81063806758021,50.59403980359797,707.307591724132,83.57029956914194,1190.3351065400495,1
-22.235550922004297,-75.38175523107031,-53.767337937438334,-121.42913767286178,125.94820446677073,-27.667700792830033,105.21917098445601,-1.4941176470588218,0.4980392156862763,-17.431372549019606,3.048000000000002,-7.5896414342629495,-3.6584362139917808,-1.4941176470588218,0.4980392156862763,4.463970490345567,32.81063806758021,50.46154803017098,714.3259432984898,83.52607694712347,1194.2772680200685,1
-22.235550922004297,-75.38175523107031,-53.767337937438334,-121.42913767286178,125.94820446677073,-27.667700792830033,105.21917098445601,-1.4941176470588218,4.482352941176472,-40.34117647058824,-17.272,-6.577689243027891,0.5226337448559555,-3.48627450980392,-1.4941176470588218,9.458795275446265,184.31879332447133,50.46154803017098,714.3259432984898,83.52607694712347,1194.2772680200685,1
-22.235550922004297,-75.38175523107031,-53.767337937438334,-121.42913767286178,125.94820446677073,-27.667700792830033,105.21917098445601,-1.4941176470588218,0.4980392156862763,9.462745098039218,26.416000000000004,6.577689243027887,13.065843621399164,-0.49803921568627274,-3.48627450980392,7.687343568837695,77.63592008086415,50.46154803017098,714.3259432984898,83.52607694712347,1194.2772680200685,1
-22.401055580895285,-75.34351949420443,-53.70837444141373,-121.3843917907161,125.94820446677073,-27.71147880041366,105.21917098445601,-1.4941176470588218,0.4980392156862763,9.462745098039218,26.416000000000004,6.577689243027887,13.065843621399164,-0.49803921568627274,-3.48627450980392,7.687343568837695,77.63592008086415,50.48431650550449,708.5220334835848,83.47876190877808,1194.6474579236774,1
-22.401055580895285,-75.34351949420443,-53.70837444141373,-121.3843917907161,125.94820446677073,-27.71147880041366,105.21917098445601,3.4862745098039234,1.4941176470588253,-55.28235294117647,-2.0319999999999983,10.625498007968126,9.930041152263362,0.4980392156862763,3.4862745098039234,10.854324747970113,336.5760315085202,50.48431650550449,708.5220334835848,83.47876190877808,1194.6474579236774,1
-22.401055580895285,-75.34351949420443,-53.70837444141373,-121.3843917907161,125.94820446677073,-27.71147880041366,105.21917098445601,1.4941176470588253,-7.470588235294116,-7.470588235294116,3.048000000000002,-12.649402390438247,4.703703703703692,1.4941176470588253,0.4980392156862763,4.853569634316763,17.042514730808996,50.48431650550449,708.5220334835848,83.47876190877808,1194.6474579236774,1
-22.351404183227988,-75.07586933614331,-53.767337937438334,-121.36201884964325,125.93096191704566,-27.755256807997227,105.28497409326428,1.4941176470588253,-7.470588235294116,-7.470588235294116,3.048000000000002,-12.649402390438247,4.703703703703692,1.4941176470588253,0.4980392156862763,4.853569634316763,17.042514730808996,50.398203818936544,703.4806049465852,83.40174204107497,1194.2503391297444,1
-22.351404183227988,-75.07586933614331,-53.767337937438334,-121.36201884964325,125.93096191704566,-27.755256807997227,105.28497409326428,-2.490196078431371,-12.450980392156861,7.4705882352941195,5.080000000000002,0.5059760956175285,4.703703703703692,-3.48627450980392,-4.482352941176469,5.083758994522995,12.959095984232997,50.398203818936544,703.4806049465852,83.40174204107497,1194.2503391297444,1
-22.351404183227988,-75.07586933614331,-53.767337937438334,-121.36201884964325,125.93096191704566,-27.755256807997227,105.28497409326428,-1.4941176470588218,2.4901960784313744,-0.49803921568627274,9.144000000000002,12.649402390438246,13.065843621399164,1.4941176470588253,2.4901960784313744,5.41573908481301,28.115645551549797,50.398203818936544,703.4806049465852,83.40174204107497,1194.2503391297444,1
-22.252101387893397,-75.07586933614331,-53.752597063432184,-121.36201884964325,125.9137193673206,-27.799034815580796,105.41658031088082,-1.4941176470588218,2.4901960784313744,-0.49803921568627274,9.144000000000002,12.649402390438246,13.065843621399164,1.4941176470588253,2.4901960784313744,5.41573908481301,28.115645551549797,50.36018926248963,706.2189380785607,83.39682841640625,1194.6872485780054,1
-22.252101387893397,-75.07586933614331,-53.752597063432184,-121.36201884964325,125.9137193673206,-27.799034815580796,105.41658031088082,3.4862745098039234,19.423529411764708,37.352941176470594,5.080000000000002,3.541832669322708,6.79423868312756,4.482352941176472,1.4941176470588253,10.206910879840597,151.151159285931,50.36018926248963,706.2189380785607,83.39682841640625,1194.6872485780054,1
-22.252101387893397,-75.07586933614331,-53.752597063432184,-121.36201884964325,125.9137193673206,-27.799034815580796,105.41658031088082,2.4901960784313744,4.482352941176472,-10.458823529411763,-9.143999999999998,-6.577689243027891,7.839506172839494,0.4980392156862763,-1.4941176470588218,5.373090603454012,13.64796462424664,50.36018926248963,706.2189380785607,83.39682841640625,1194.6872485780054,1
-22.103147194891505,-75.1141050730092,-53.78207881144449,-121.36201884964325,125.87923426787046,-27.799034815580796,105.54818652849747,2.4901960784313744,4.482352941176472,-10.458823529411763,-9.143999999999998,-6.577689243027891,7.839506172839494,0.4980392156862763,-1.4941176470588218,5.373090603454012,13.64796462424664,50.333110359781735,711.4619513243158,83.41940091136564,1193.4955281136006,1
-22.103147194891505,-75.1141050730092,-53.78207881144449,-121.36201884964325,125.87923426787046,-27.799034815580796,105.54818652849747,-7.470588235294116,-19.423529411764704,-10.458823529411763,1.0160000000000018,-22.768924302788847,0.5226337448559555,-0.49803921568627274,-3.48627450980392,8.205601618700697,76.56377979532188,50.333110359781735,711.4619513243158,83.41940091136564,1193.4955281136006,1
-22.103147194891505,-75.1141050730092,-53.78207881144449,-121.36201884964325,125.87923426787046,-27.799034815580796,105.54818652849747,-4.482352941176469,-7.470588235294116,8.466666666666669,-8.127999999999998,8.601593625498007,10.975308641975296,1.4941176470588253,-2.490196078431371,6.513602979512594,11.016013064917583,50.333110359781735,711.4619513243158,83.41940091136564,1193.4955281136006,1
-22.169349058447903,-75.61116965226556,-53.66415181939528,-121.36201884964325,125.87923426787046,-27.755256807997227,105.54818652849747,-4.482352941176469,-7.470588235294116,8.466666666666669,-8.127999999999998,8.601593625498007,10.975308641975296,1.4941176470588253,-2.490196078431371,6.513602979512594,11.016013064917583,50.48155684336958,721.6037301815163,83.54578010710135,1192.968832413776,1
-22.169349058447903,-75.61116965226556,-53.66415181939528,-121.36201884964325,125.87923426787046,-27.755256807997227,105.54818652849747,0.4980392156862763,-2.490196078431371,-2.490196078431371,-16.256,-1.517928286852591,8.884773662551428,-1.4941176470588218,-1.4941176470588218,4.390671077008835,29.770268061696555,50.48155684336958,721.6037301815163,83.54578010710135,1192.968832413776,1
-22.169349058447903,-75.61116965226556,-53.66415181939528,-121.36201884964325,125.87923426787046,-27.755256807997227,105.54818652849747,0.4980392156862763,-3.48627450980392,-10.458823529411763,-4.063999999999998,-19.733067729083665,-3.6584362139917808,1.4941176470588253,2.4901960784313744,5.73536936543345,40.90873230836634,50.48155684336958,721.6037301815163,83.54578010710135,1192.968832413776,1
-22.268651853782494,-75.80234833659492,-53.60518832337067,-121.31727296749756,125.89647681759553,-27.842812823164422,105.48238341968909,0.4980392156862763,-3.48627450980392,-10.458823529411763,-4.063999999999998,-19.733067729083665,-3.6584362139917808,1.4941176470588253,2.4901960784313744,5.73536936543345,40.90873230836634,50.55872950458269,723.4248482793992,83.57493654248772,1191.541447277139,1
-22.268651853782494,-75.80234833659492,-53.60518832337067,-121.31727296749756,125.89647681759553,-27.842812823164422,105.48238341968909,1.4941176470588253,6.4745098039215705,11.454901960784316,1.7763568394002505e-15,-0.5059760956175312,6.79423868312756,3.4862745098039234,3.4862745098039234,4.212036651264706,14.880333238684617,50.55872950458269,723.4248482793992,83.57493654248772,1191.541447277139,1
-22.268651853782494,-75.80234833659492,-53.60518832337067,-121.31727296749756,125.89647681759553,-27.842812823164422,105.48238341968909,-3.48627450980392,0.4980392156862763,5.4784313725490215,2.032000000000002,8.601593625498007,7.839506172839494,-2.490196078431371,-0.49803921568627274,3.8655100238117956,9.84306212426806,50.55872950458269,723.4248482793992,83.57493654248772,1191.541447277139,1
-22.434156512673482,-76.14646996838779,-53.53148395333991,-121.27252708535188,125.94820446677073,-28.017924853498755,105.41658031088082,-3.48627450980392,0.4980392156862763,5.4784313725490215,2.032000000000002,8.601593625498007,7.839506172839494,-2.490196078431371,-0.49803921568627274,3.8655100238117956,9.84306212426806,50.70403681146706,727.2489971962908,83.6501603356932,1189.4412579995706,1
-22.434156512673482,-76.14646996838779,-53.53148395333991,-121.27252708535188,125.94820446677073,-28.017924853498755,105.41658031088082,-1.4941176470588218,-8.466666666666665,3.4862745098039234,9.144000000000002,7.589641434262947,9.930041152263362,1.4941176470588253,-2.490196078431371,5.51188189194324,13.039825779737674,50.70403681146706,727.2489971962908,83.6501603356932,1189.4412579995706,1
-22.434156512673482,-76.14646996838779,-53.53148395333991,-121.27252708535188,125.94820446677073,-28.017924853498755,105.41658031088082,-2.490196078431371,-1.4941176470588218,16.43529411764706,12.192000000000002,-1.517928286852591,2.6131687242798236,-2.490196078431371,-2.490196078431371,5.215387126391551,33.01857540635105,50.70403681146706,727.2489971962908,83.6501603356932,1189.4412579995706,1
-22.63276210334267,-75.84058407346079,-53.53148395333991,-121.20540826213335,125.9654470164958,-28.28059289900034,105.48238341968909,-2.490196078431371,-1.4941176470588218,16.43529411764706,12.192000000000002,-1.517928286852591,2.6131687242798236,-2.490196078431371,-2.490196078431371,5.215387126391551,33.01857540635105,50.66827671004779,713.9165464894764,83.52582542964468,1189.2372088651753,1
-22.63276210334267,-75.84058407346079,-53.53148395333991,-121.20540826213335,125.9654470164958,-28.28059289900034,105.48238341968909,5.4784313725490215,3.4862745098039234,1.4941176470588253,7.112000000000002,1.5179282868525883,13.065843621399164,-2.490196078431371,0.4980392156862763,4.392853841472647,17.153204030949073,50.66827671004779,713.9165464894764,83.52582542964468,1189.2372088651753,1
-22.63276210334267,-75.84058407346079,-53.53148395333991,-121.20540826213335,125.9654470164958,-28.28059289900034,105.48238341968909,-4.482352941176469,-0.49803921568627274,1.4941176470588253,5.080000000000002,4.5537848605577675,5.748971193415626,-2.490196078431371,-0.49803921568627274,3.1056876440015757,4.493242637774154,50.66827671004779,713.9165464894764,83.52582542964468,1189.2372088651753,1
-22.516908842118976,-75.72587686286317,-53.487261331321456,-121.16066237998766,125.99993211594594,-28.499482936918298,105.54818652849747,-4.482352941176469,-0.49803921568627274,1.4941176470588253,5.080000000000002,4.5537848605577675,5.748971193415626,-2.490196078431371,-0.49803921568627274,3.1056876440015757,4.493242637774154,50.576682345434534,714.1521719829595,83.4579335247241,1189.7608275400748,1
-22.516908842118976,-75.72587686286317,-53.487261331321456,-121.16066237998766,125.99993211594594,-28.499482936918298,105.54818652849747,1.4941176470588253,-12.450980392156861,-8.466666666666665,2.032000000000002,8.601593625498007,5.748971193415626,3.4862745098039234,1.4941176470588253,5.471840210207342,16.424152372446862,50.576682345434534,714.1521719829595,83.4579335247241,1189.7608275400748,1
-22.516908842118976,-75.72587686286317,-53.487261331321456,-121.16066237998766,125.99993211594594,-28.499482936918298,105.54818652849747,2.4901960784313744,4.482352941176472,-18.427450980392155,-8.127999999999998,0.5059760956175285,4.703703703703692,0.4980392156862763,2.4901960784313744,5.215739386679859,34.73233702084629,50.576682345434534,714.1521719829595,83.4579335247241,1189.7608275400748,1
-22.450706978562582,-75.84058407346079,-53.428297835296846,-121.13828943891481,126.03441721539608,-28.674594967252688,105.54818652849747,2.4901960784313744,4.482352941176472,-18.427450980392155,-8.127999999999998,0.5059760956175285,4.703703703703692,0.4980392156862763,2.4901960784313744,5.215739386679859,34.73233702084629,50.57319629577341,718.7334476528259,83.4690571158908,1189.8059414598151,1
-22.450706978562582,-75.84058407346079,-53.428297835296846,-121.13828943891481,126.03441721539608,-28.674594967252688,105.54818652849747,-3.48627450980392,-0.49803921568627274,11.454901960784316,13.208000000000002,3.541832669322708,1.5679012345678895,-1.4941176470588218,-3.48627450980392,4.842167718378481,22.84069724082848,50.57319629577341,718.7334476528259,83.4690571158908,1189.8059414598151,1
-22.450706978562582,-75.84058407346079,-53.428297835296846,-121.13828943891481,126.03441721539608,-28.674594967252688,105.54818652849747,1.4941176470588253,8.466666666666669,21.415686274509806,2.032000000000002,21.756972111553782,10.975308641975296,3.4862745098039234,0.4980392156862763,8.765633133406823,75.45889557538648,50.57319629577341,718.7334476528259,83.4690571158908,1189.8059414598151,1
-22.219000456115197,-76.06999849465603,-53.67889269340143,-121.13828943891481,126.03441721539608,-28.674594967252688,105.48238341968909,1.4941176470588253,8.466666666666669,21.415686274509806,2.032000000000002,21.756972111553782,10.975308641975296,3.4862745098039234,0.4980392156862763,8.765633133406823,75.45889557538648,50.65596388139088,731.8360713885949,83.62906020899075,1180.547112817986,1
-22.219000456115197,-76.06999849465603,-53.67889269340143,-121.13828943891481,126.03441721539608,-28.674594967252688,105.48238341968909,1.4941176470588253,6.4745098039215705,-29.384313725490195,-14.223999999999997,-30.864541832669325,-1.5679012345679126,-5.478431372549018,2.4901960784313744,11.497251461836026,149.1014211547934,50.65596388139088,731.8360713885949,83.62906020899075,1180.547112817986,1
-22.219000456115197,-76.06999849465603,-53.67889269340143,-121.13828943891481,126.03441721539608,-28.674594967252688,105.48238341968909,-1.4941176470588218,-9.462745098039214,-7.470588235294116,5.080000000000002,-7.5896414342629495,6.79423868312756,-1.4941176470588218,-1.4941176470588218,5.109945798987539,10.389823405257507,50.65596388139088,731.8360713885949,83.62906020899075,1180.547112817986,1
-22.219000456115197,-76.37588438958304,-53.63467007138297,-121.11591649784197,126.06890231484621,-28.84970699758702,105.48238341968909,-1.4941176470588218,-9.462745098039214,-7.470588235294116,5.080000000000002,-7.5896414342629495,6.79423868312756,-1.4941176470588218,-1.4941176470588218,5.109945798987539,10.389823405257507,50.7431849723604,739.5125339041789,83.70882365293599,1178.7586534971388,1
-22.219000456115197,-76.37588438958304,-53.63467007138297,-121.11591649784197,126.06890231484621,-28.84970699758702,105.48238341968909,-7.470588235294116,-14.44313725490196,28.38823529411765,11.176000000000002,12.649402390438246,2.6131687242798236,-0.49803921568627274,-3.48627450980392,10.090605703065247,79.98348263663206,50.7431849723604,739.5125339041789,83.70882365293599,1178.7586534971388,1
-22.219000456115197,-76.37588438958304,-53.63467007138297,-121.11591649784197,126.06890231484621,-28.84970699758702,105.48238341968909,1.4941176470588253,0.4980392156862763,27.3921568627451,12.192000000000002,10.625498007968126,7.839506172839494,0.4980392156862763,1.4941176470588253,7.754184346130366,85.32514982308558,50.7431849723604,739.5125339041789,83.70882365293599,1178.7586534971388,1
-21.88799113833322,-76.52882733704652,-53.57570657535837,-121.13828943891481,126.15511506347158,-28.893485005170646,105.21917098445601,1.4941176470588253,0.4980392156862763,27.3921568627451,12.192000000000002,10.625498007968126,7.839506172839494,0.4980392156862763,1.4941176470588253,7.754184346130366,85.32514982308558,50.6641750169127,752.7630071355233,83.74760778377323,1180.2587441522655,1
-21.88799113833322,-76.52882733704652,-53.57570657535837,-121.13828943891481,126.15511506347158,-28.893485005170646,105.21917098445601,0.4980392156862763,4.482352941176472,13.447058823529414,1.0160000000000018,0.5059760956175285,9.930041152263362,-1.4941176470588218,-1.4941176470588218,4.108462940298837,24.355134325729814,50.6641750169127,752.7630071355233,83.74760778377323,1180.2587441522655,1
-21.88799113833322,-76.52882733704652,-53.57570657535837,-121.13828943891481,126.15511506347158,-28.893485005170646,105.21917098445601,-3.48627450980392,-4.482352941176469,2.4901960784313744,6.096000000000002,5.565737051792827,4.703703703703692,0.4980392156862763,0.4980392156862763,3.4775428395351042,4.637114333180006,50.6641750169127,752.7630071355233,83.74760778377323,1180.2587441522655,1
-22.268651853782494,-76.2611771789854,-53.53148395333991,-121.07117061569627,126.20684271264679,-28.937263012754215,104.95595854922283,-3.48627450980392,-4.482352941176469,2.4901960784313744,6.096000000000002,5.565737051792827,4.703703703703692,0.4980392156862763,0.4980392156862763,3.4775428395351042,4.637114333180006,50.68710432870261,734.8660693349583,83.62127724934054,1181.0306233965507,1
-22.268651853782494,-76.2611771789854,-53.53148395333991,-121.07117061569627,126.20684271264679,-28.937263012754215,104.95595854922283,15.439215686274512,39.345098039215685,18.42745098039216,1.0160000000000018,2.529880478087648,5.748971193415626,1.4941176470588253,6.4745098039215705,11.309405478545752,169.62724827039003,50.68710432870261,734.8660693349583,83.62127724934054,1181.0306233965507,1
-22.268651853782494,-76.2611771789854,-53.53148395333991,-121.07117061569627,126.20684271264679,-28.937263012754215,104.95595854922283,-2.490196078431371,0.4980392156862763,-7.470588235294116,-4.063999999999998,-16.697211155378486,-4.703703703703715,-5.478431372549018,-4.482352941176469,5.735565337777431,23.803944755990603,50.68710432870261,734.8660693349583,83.62127724934054,1181.0306233965507,1
-22.33485371733889,-76.06999849465603,-53.60518832337067,-121.00405179247775,126.24132781209693,-29.02481902792141,104.75854922279791,-2.490196078431371,0.4980392156862763,-7.470588235294116,-4.063999999999998,-16.697211155378486,-4.703703703703715,-5.478431372549018,-4.482352941176469,5.735565337777431,23.803944755990603,50.67001351178853,728.3278844407182,83.55974620350149,1177.7239397884512,1
-22.33485371733889,-76.06999849465603,-53.60518832337067,-121.00405179247775,126.24132781209693,-29.02481902792141,104.75854922279791,-5.478431372549018,-11.454901960784312,-39.345098039215685,1.7763568394002505e-15,26.816733067729082,4.703703703703692,1.4941176470588253,-5.478431372549018,11.846427145448704,194.29566269372347,50.67001351178853,728.3278844407182,83.55974620350149,1177.7239397884512,1
-22.33485371733889,-76.06999849465603,-53.60518832337067,-121.00405179247775,126.24132781209693,-29.02481902792141,104.75854922279791,0.4980392156862763,6.4745098039215705,-1.4941176470588218,13.208000000000002,10.625498007968126,5.748971193415626,1.4941176470588253,3.4862745098039234,5.378691003114147,21.106687392837223,50.67001351178853,728.3278844407182,83.55974620350149,1177.7239397884512,1
-22.07004626311331,-76.22294144211953,-53.443038709303,-121.02642473355058,126.3102980109972,-29.112375043088605,104.5611398963731,0.4980392156862763,6.4745098039215705,-1.4941176470588218,13.208000000000002,10.625498007968126,5.748971193415626,1.4941176470588253,3.4862745098039234,5.378691003114147,21.106687392837223,50.57867547151195,739.2874466356157,83.5641349616577,1182.2983583440978,1
-22.07004626311331,-76.22294144211953,-53.443038709303,-121.02642473355058,126.3102980109972,-29.112375043088605,104.5611398963731,8.466666666666669,24.403921568627453,57.274509803921575,9.144000000000002,2.529880478087648,7.839506172839494,3.4862745098039234,2.4901960784313744,14.454369409797268,349.42871715810725,50.57867547151195,739.2874466356157,83.5641349616577,1182.2983583440978,1
-22.07004626311331,-76.22294144211953,-53.443038709303,-121.02642473355058,126.3102980109972,-29.112375043088605,104.5611398963731,2.4901960784313744,-6.474509803921567,-14.44313725490196,-5.079999999999998,-7.5896414342629495,10.975308641975296,1.4941176470588253,1.4941176470588253,6.25512856345135,21.72039038363037,50.57867547151195,739.2874466356157,83.5641349616577,1182.2983583440978,1
-22.103147194891505,-76.03176275779016,-53.457779583309154,-121.04879767462343,126.37926820989748,-29.24370906583937,104.42953367875646,2.4901960784313744,-6.474509803921567,-14.44313725490196,-5.079999999999998,-7.5896414342629495,10.975308641975296,1.4941176470588253,1.4941176470588253,6.25512856345135,21.72039038363037,50.530896511996936,733.4988775175792,83.51278000524091,1184.1106459475852,1
-22.103147194891505,-76.03176275779016,-53.457779583309154,-121.04879767462343,126.37926820989748,-29.24370906583937,104.42953367875646,7.4705882352941195,8.466666666666669,-3.48627450980392,-3.0479999999999983,2.529880478087648,5.748971193415626,-0.49803921568627274,2.4901960784313744,4.217327047173203,7.5074074552066845,50.530896511996936,733.4988775175792,83.51278000524091,1184.1106459475852,1
-22.103147194891505,-76.03176275779016,-53.457779583309154,-121.04879767462343,126.37926820989748,-29.24370906583937,104.42953367875646,2.4901960784313744,0.4980392156862763,11.454901960784316,7.112000000000002,4.5537848605577675,12.02057613168723,-1.4941176470588218,-0.49803921568627274,5.0152068887365076,22.1053827290691,50.530896511996936,733.4988775175792,83.51278000524091,1184.1106459475852,1
-22.05349579722421,-75.95529128405842,-53.487261331321456,-121.07117061569627,126.43099585907268,-29.331265081006563,104.29792746113992,2.4901960784313744,0.4980392156862763,11.454901960784316,7.112000000000002,4.5537848605577675,12.02057613168723,-1.4941176470588218,-0.49803921568627274,5.0152068887365076,22.1053827290691,50.498682804201366,733.0495903856977,83.50457441035871,1184.6399553304332,1
-22.05349579722421,-75.95529128405842,-53.487261331321456,-121.07117061569627,126.43099585907268,-29.331265081006563,104.29792746113992,-19.423529411764704,-42.33333333333333,-7.470588235294116,11.176000000000002,5.565737051792827,7.839506172839494,-1.4941176470588218,-5.478431372549018,12.597655403079038,172.16725443928175,50.498682804201366,733.0495903856977,83.50457441035871,1184.6399553304332,1
-22.05349579722421,-75.95529128405842,-53.487261331321456,-121.07117061569627,126.43099585907268,-29.331265081006563,104.29792746113992,2.4901960784313744,10.458823529411767,6.4745098039215705,-2.0319999999999983,-13.661354581673308,-0.5226337448559786,-0.49803921568627274,1.4941176470588253,4.703959325129887,24.857812330108548,50.498682804201366,733.0495903856977,83.50457441035871,1184.6399553304332,1
-21.78868834299863,-76.22294144211953,-53.428297835296846,-121.16066237998766,126.49996605797296,-29.4188210961737,104.16632124352338,2.4901960784313744,10.458823529411767,6.4745098039215705,-2.0319999999999983,-13.661354581673308,-0.5226337448559786,-0.49803921568627274,1.4941176470588253,4.703959325129887,24.857812330108548,50.479975873471666,747.291429407724,83.60396721913469,1187.7779578444438,1
-21.78868834299863,-76.22294144211953,-53.428297835296846,-121.16066237998766,126.49996605797296,-29.4188210961737,104.16632124352338,-8.466666666666665,-11.454901960784312,-9.462745098039214,2.032000000000002,-1.517928286852591,3.6584362139917577,-2.490196078431371,-0.49803921568627274,4.947614190056523,17.554012023167214,50.479975873471666,747.291429407724,83.60396721913469,1187.7779578444438,1
-21.78868834299863,-76.22294144211953,-53.428297835296846,-121.16066237998766,126.49996605797296,-29.4188210961737,104.16632124352338,-2.490196078431371,-6.474509803921567,-11.454901960784312,2.032000000000002,12.649402390438246,8.884773662551428,1.4941176470588253,-3.48627450980392,6.120772006623708,19.583776907956835,50.479975873471666,747.291429407724,83.60396721913469,1187.7779578444438,1
-21.341825763992958,-76.14646996838779,-53.457779583309154,-121.29490002642473,126.5861788065983,-29.287487073422938,103.77150259067355,-2.490196078431371,-6.474509803921567,-11.454901960784312,2.032000000000002,12.649402390438246,8.884773662551428,1.4941176470588253,-3.48627450980392,6.120772006623708,19.583776907956835,50.3153584385633,758.2933645807865,83.6330498593739,1192.5053863515302,1
-21.341825763992958,-76.14646996838779,-53.457779583309154,-121.29490002642473,126.5861788065983,-29.287487073422938,103.77150259067355,3.4862745098039234,0.4980392156862763,-8.466666666666665,-2.0319999999999983,-2.5298804780876507,6.79423868312756,-1.4941176470588218,-0.49803921568627274,3.224907052014646,8.579688947110563,50.3153584385633,758.2933645807865,83.6330498593739,1192.5053863515302,1
-21.341825763992958,-76.14646996838779,-53.457779583309154,-121.29490002642473,126.5861788065983,-29.287487073422938,103.77150259067355,6.4745098039215705,4.482352941176472,5.4784313725490215,-3.0479999999999983,2.529880478087648,9.930041152263362,-2.490196078431371,2.4901960784313744,4.615450988107602,6.900477477459222,50.3153584385633,758.2933645807865,83.6330498593739,1192.5053863515302,1
-21.78868834299863,-75.95529128405842,-53.53148395333991,-121.29490002642473,126.60342135632337,-29.287487073422938,103.70569948186528,6.4745098039215705,4.482352941176472,5.4784313725490215,-3.0479999999999983,2.529880478087648,9.930041152263362,-2.490196078431371,2.4901960784313744,4.615450988107602,6.900477477459222,50.425154526798984,740.7421804232524,83.5938917546077,1191.731302335009,1
-21.78868834299863,-75.95529128405842,-53.53148395333991,-121.29490002642473,126.60342135632337,-29.287487073422938,103.70569948186528,5.4784313725490215,-1.4941176470588218,-24.40392156862745,10.160000000000002,-11.637450199203188,0.5226337448559555,0.4980392156862763,-1.4941176470588218,6.961088924379942,68.79319106335883,50.425154526798984,740.7421804232524,83.5938917546077,1191.731302335009,1
-21.78868834299863,-75.95529128405842,-53.53148395333991,-121.29490002642473,126.60342135632337,-29.287487073422938,103.70569948186528,-9.462745098039214,-16.435294117647057,4.482352941176472,6.096000000000002,-7.5896414342629495,3.6584362139917577,-0.49803921568627274,-1.4941176470588218,6.214578333482818,25.916359106498735,50.425154526798984,740.7421804232524,83.5938917546077,1191.731302335009,1
-21.92109207011142,-75.49646244166793,-53.59044744936452,-121.3396459085704,126.62066390604843,-29.24370906583937,103.57409326424875,-9.462745098039214,-16.435294117647057,4.482352941176472,6.096000000000002,-7.5896414342629495,3.6584362139917577,-0.49803921568627274,-1.4941176470588218,6.214578333482818,25.916359106498735,50.33600065371462,725.5236455716507,83.47551859986761,1195.2374758479946,1
-21.92109207011142,-75.49646244166793,-53.59044744936452,-121.3396459085704,126.62066390604843,-29.24370906583937,103.57409326424875,0.4980392156862763,-3.48627450980392,-5.478431372549018,6.096000000000002,19.733067729083665,9.930041152263362,-1.4941176470588218,0.4980392156862763,5.901751355266418,41.63019096236405,50.33600065371462,725.5236455716507,83.47551859986761,1195.2374758479946,1
-21.92109207011142,-75.49646244166793,-53.59044744936452,-121.3396459085704,126.62066390604843,-29.24370906583937,103.57409326424875,0.4980392156862763,-1.4941176470588218,-8.466666666666665,1.7763568394002505e-15,4.5537848605577675,8.884773662551428,1.4941176470588253,-2.490196078431371,3.4852119722513946,12.15726839416614,50.33600065371462,725.5236455716507,83.47551859986761,1195.2374758479946,1
-21.77213787710953,-75.45822670480206,-53.36933433927224,-121.3843917907161,126.63790645577353,-29.199931058255743,103.50829015544048,0.4980392156862763,-1.4941176470588218,-8.466666666666665,1.7763568394002505e-15,4.5537848605577675,8.884773662551428,1.4941176470588253,-2.490196078431371,3.4852119722513946,12.15726839416614,50.19989964039461,728.0830206365603,83.40398427826347,1203.8633075929665,1
-21.77213787710953,-75.45822670480206,-53.36933433927224,-121.3843917907161,126.63790645577353,-29.199931058255743,103.50829015544048,-6.474509803921567,1.4941176470588253,10.458823529411767,3.048000000000002,-0.5059760956175312,4.703703703703692,-1.4941176470588218,-2.490196078431371,3.833680563150447,10.866629925049406,50.19989964039461,728.0830206365603,83.40398427826347,1203.8633075929665,1
-21.77213787710953,-75.45822670480206,-53.36933433927224,-121.3843917907161,126.63790645577353,-29.199931058255743,103.50829015544048,17.43137254901961,39.345098039215685,-24.40392156862745,-1.0159999999999982,6.577689243027887,9.930041152263362,2.4901960784313744,8.466666666666669,13.707623162156505,166.43412922248294,50.19989964039461,728.0830206365603,83.40398427826347,1203.8633075929665,1
-22.268651853782494,-75.22881228360681,-53.398816087284544,-121.40676473178894,126.6551490054986,-29.375043088590132,103.63989637305701,17.43137254901961,39.345098039215685,-24.40392156862745,-1.0159999999999982,6.577689243027887,9.930041152263362,2.4901960784313744,8.466666666666669,13.707623162156505,166.43412922248294,50.29876007489128,708.4024086481642,83.34479770089344,1205.6721841785936,1
-22.268651853782494,-75.22881228360681,-53.398816087284544,-121.40676473178894,126.6551490054986,-29.375043088590132,103.63989637305701,-3.48627450980392,-0.49803921568627274,-11.454901960784312,-3.0479999999999983,-13.661354581673308,-1.5679012345679126,0.4980392156862763,-1.4941176470588218,4.463578545657603,26.44147462491305,50.29876007489128,708.4024086481642,83.34479770089344,1205.6721841785936,1
-22.268651853782494,-75.22881228360681,-53.398816087284544,-121.40676473178894,126.6551490054986,-29.375043088590132,103.63989637305701,-4.482352941176469,-7.470588235294116,2.4901960784313744,5.080000000000002,5.565737051792827,4.703703703703692,-0.49803921568627274,-3.48627450980392,4.2221114669860835,4.400465934626491,50.29876007489128,708.4024086481642,83.34479770089344,1205.6721841785936,1
-21.937642536000517,-75.64940538913143,-53.457779583309154,-121.49625649608032,126.68963410494874,-29.462599103757327,103.63989637305701,-4.482352941176469,-7.470588235294116,2.4901960784313744,5.080000000000002,5.565737051792827,4.703703703703692,-0.49803921568627274,-3.48627450980392,4.2221114669860835,4.400465934626491,50.34827583614703,728.4901273629549,83.53448048950698,1203.9393921563453,1
-21.937642536000517,-75.64940538913143,-53.457779583309154,-121.49625649608032,126.68963410494874,-29.462599103757327,103.63989637305701,2.4901960784313744,-0.49803921568627274,7.4705882352941195,3.048000000000002,5.565737051792827,10.975308641975296,0.4980392156862763,0.4980392156862763,3.8804934568190554,14.716313034346745,50.34827583614703,728.4901273629549,83.53448048950698,1203.9393921563453,1
-21.937642536000517,-75.64940538913143,-53.457779583309154,-121.49625649608032,126.68963410494874,-29.462599103757327,103.63989637305701,0.4980392156862763,-5.478431372549018,-8.466666666666665,1.0160000000000018,1.5179282868525883,2.6131687242798236,-1.4941176470588218,1.4941176470588253,2.8223086950190024,7.55029642868327,50.34827583614703,728.4901273629549,83.53448048950698,1203.9393921563453,1
-21.88799113833322,-75.64940538913143,-53.472520457315305,-121.56337531929886,126.72411920439887,-29.550155118924522,103.63989637305701,0.4980392156862763,-5.478431372549018,-8.466666666666665,1.0160000000000018,1.5179282868525883,2.6131687242798236,-1.4941176470588218,1.4941176470588253,2.8223086950190024,7.55029642868327,50.33663899492665,729.9477299710968,83.56176705524852,1206.0452293105068,1
-21.88799113833322,-75.64940538913143,-53.472520457315305,-121.56337531929886,126.72411920439887,-29.550155118924522,103.63989637305701,-0.49803921568627274,-5.478431372549018,-4.482352941176469,3.048000000000002,4.5537848605577675,6.79423868312756,-2.490196078431371,-2.490196078431371,3.729404903744979,3.9537352317670442,50.33663899492665,729.9477299710968,83.56176705524852,1206.0452293105068,1
-21.88799113833322,-75.64940538913143,-53.472520457315305,-121.56337531929886,126.72411920439887,-29.550155118924522,103.63989637305701,4.482352941176472,-1.4941176470588218,2.4901960784313744,-1.0159999999999982,0.5059760956175285,1.5679012345678895,-2.490196078431371,2.4901960784313744,2.0671170192143538,1.4985578401888173,50.33663899492665,729.9477299710968,83.56176705524852,1206.0452293105068,1
-21.72248647944223,-75.26704802047269,-53.56096570135222,-121.67524002466307,126.72411920439887,-29.550155118924522,103.70569948186528,4.482352941176472,-1.4941176470588218,2.4901960784313744,-1.0159999999999982,0.5059760956175285,1.5679012345678895,-2.490196078431371,2.4901960784313744,2.0671170192143538,1.4985578401888173,50.18350006708905,725.310473238271,83.50108458216265,1210.7381102222464,1
-21.72248647944223,-75.26704802047269,-53.56096570135222,-121.67524002466307,126.72411920439887,-29.550155118924522,103.70569948186528,18.42745098039216,21.415686274509806,-19.423529411764704,-5.079999999999998,6.577689243027887,7.839506172839494,5.4784313725490215,6.4745098039215705,11.33960040737558,49.892357739670274,50.18350006708905,725.310473238271,83.50108458216265,1210.7381102222464,1
-21.72248647944223,-75.26704802047269,-53.56096570135222,-121.67524002466307,126.72411920439887,-29.550155118924522,103.70569948186528,-9.462745098039214,-12.450980392156861,4.482352941176472,9.144000000000002,2.529880478087648,6.79423868312756,0.4980392156862763,-4.482352941176469,6.230573718681313,15.802256565797942,50.18350006708905,725.310473238271,83.50108458216265,1210.7381102222464,1
-21.424578093438452,-75.07586933614331,-53.57570657535837,-121.7871047300273,126.75860430384901,-29.331265081006563,103.50829015544048,-9.462745098039214,-12.450980392156861,4.482352941176472,9.144000000000002,2.529880478087648,6.79423868312756,0.4980392156862763,-4.482352941176469,6.230573718681313,15.802256565797942,50.02538466831337,729.0688522351176,83.47956021384299,1216.1652248296425,1
-21.424578093438452,-75.07586933614331,-53.57570657535837,-121.7871047300273,126.75860430384901,-29.331265081006563,103.50829015544048,-4.482352941176469,-4.482352941176469,6.4745098039215705,14.224000000000002,1.5179282868525883,6.79423868312756,-3.48627450980392,0.4980392156862763,5.244962047718107,17.88790750128584,50.02538466831337,729.0688522351176,83.47956021384299,1216.1652248296425,1
-21.424578093438452,-75.07586933614331,-53.57570657535837,-121.7871047300273,126.75860430384901,-29.331265081006563,103.50829015544048,-3.48627450980392,-19.423529411764704,-17.431372549019606,-13.207999999999998,2.529880478087648,6.79423868312756,0.4980392156862763,-1.4941176470588218,8.108181561818567,56.69045098787495,50.02538466831337,729.0688522351176,83.47956021384299,1216.1652248296425,1
-21.755587411220432,-75.1141050730092,-53.443038709303,-121.83185061217299,126.75860430384901,-29.199931058255743,103.37668393782383,-3.48627450980392,-19.423529411764704,-17.431372549019606,-13.207999999999998,2.529880478087648,6.79423868312756,0.4980392156862763,-1.4941176470588218,8.108181561818567,56.69045098787495,50.10424373117755,720.1435156953228,83.46299813149507,1221.5354098480577,1
-21.755587411220432,-75.1141050730092,-53.443038709303,-121.83185061217299,126.75860430384901,-29.199931058255743,103.37668393782383,7.4705882352941195,8.466666666666669,-13.44705882352941,-8.127999999999998,-8.601593625498008,0.5226337448559555,2.4901960784313744,1.4941176470588253,6.327606852666795,19.538151879378713,50.10424373117755,720.1435156953228,83.46299813149507,1221.5354098480577,1
-21.755587411220432,-75.1141050730092,-53.443038709303,-121.83185061217299,126.75860430384901,-29.199931058255743,103.37668393782383,-0.49803921568627274,2.4901960784313744,6.4745098039215705,4.064000000000002,-0.5059760956175312,5.748971193415626,2.4901960784313744,-0.49803921568627274,2.8462409601487533,5.690227586585775,50.10424373117755,720.1435156953228,83.46299813149507,1221.5354098480577,1
-22.08659672900241,-74.88469065181395,-53.38407521327839,-121.8989694353915,126.77584685357408,-29.199931058255743,103.37668393782383,-0.49803921568627274,2.4901960784313744,6.4745098039215705,4.064000000000002,-0.5059760956175312,5.748971193415626,2.4901960784313744,-0.49803921568627274,2.8462409601487533,5.690227586585775,50.11845419803158,704.9078909319236,83.38924510016129,1227.8182673405156,1
-22.08659672900241,-74.88469065181395,-53.38407521327839,-121.8989694353915,126.77584685357408,-29.199931058255743,103.37668393782383,-4.482352941176469,-9.462745098039214,4.482352941176472,7.112000000000002,12.649402390438246,8.884773662551428,-1.4941176470588218,-2.490196078431371,6.382242594859003,14.546135453461593,50.11845419803158,704.9078909319236,83.38924510016129,1227.8182673405156,1
-22.08659672900241,-74.88469065181395,-53.38407521327839,-121.8989694353915,126.77584685357408,-29.199931058255743,103.37668393782383,4.482352941176472,9.462745098039218,-10.458823529411763,4.064000000000002,-0.5059760956175312,5.748971193415626,-0.49803921568627274,2.4901960784313744,4.713888018972282,13.932571059612538,50.11845419803158,704.9078909319236,83.38924510016129,1227.8182673405156,1
-21.987293933667814,-74.92292638867983,-53.54622482734606,-121.9437153175372,126.77584685357408,-29.199931058255743,103.4424870466321,4.482352941176472,9.462745098039218,-10.458823529411763,4.064000000000002,-0.5059760956175312,5.748971193415626,-0.49803921568627274,2.4901960784313744,4.713888018972282,13.932571059612538,50.152148383231236,709.1851120344015,83.4709555111877,1224.3557777483788,1
-21.987293933667814,-74.92292638867983,-53.54622482734606,-121.9437153175372,126.77584685357408,-29.199931058255743,103.4424870466321,-7.470588235294116,-6.474509803921567,6.4745098039215705,6.096000000000002,8.601593625498007,8.884773662551428,-1.4941176470588218,-3.48627450980392,6.122795911006179,6.316219182104661,50.152148383231236,709.1851120344015,83.4709555111877,1224.3557777483788,1
-21.987293933667814,-74.92292638867983,-53.54622482734606,-121.9437153175372,126.77584685357408,-29.199931058255743,103.4424870466321,-1.4941176470588218,-5.478431372549018,11.454901960784316,-1.0159999999999982,5.565737051792827,4.703703703703692,-1.4941176470588218,-2.490196078431371,4.212150682672358,12.01294961486964,50.152148383231236,709.1851120344015,83.4709555111877,1224.3557777483788,1
-21.639734149996738,-75.03763359927744,-53.56096570135222,-122.07795296397427,126.79308940329915,-29.156153050672174,103.4424870466321,-1.4941176470588218,-5.478431372549018,11.454901960784316,-1.0159999999999982,5.565737051792827,4.703703703703692,-1.4941176470588218,-2.490196078431371,4.212150682672358,12.01294961486964,50.079444483542126,721.9246588914195,83.55885075486798,1228.1027422461261,1
-21.639734149996738,-75.03763359927744,-53.56096570135222,-122.07795296397427,126.79308940329915,-29.156153050672174,103.4424870466321,-10.458823529411763,-10.458823529411763,-1.4941176470588218,6.096000000000002,2.529880478087648,4.703703703703692,-1.4941176470588218,-3.48627450980392,5.090217630567054,13.399525690903923,50.079444483542126,721.9246588914195,83.55885075486798,1228.1027422461261,1
-21.639734149996738,-75.03763359927744,-53.56096570135222,-122.07795296397427,126.79308940329915,-29.156153050672174,103.4424870466321,1.4941176470588253,11.454901960784316,24.403921568627453,8.128000000000002,5.565737051792827,18.292181069958836,2.4901960784313744,2.4901960784313744,9.289906431885626,68.94678807722339,50.079444483542126,721.9246588914195,83.55885075486798,1228.1027422461261,1
-21.590082752329444,-75.22881228360681,-53.60518832337067,-122.16744472826565,126.77584685357408,-29.02481902792141,103.4424870466321,1.4941176470588253,11.454901960784316,24.403921568627453,8.128000000000002,5.565737051792827,18.292181069958836,2.4901960784313744,2.4901960784313744,9.289906431885626,68.94678807722339,50.14136111976898,728.2769006046901,83.66714844508105,1228.5998887131734,1
-21.590082752329444,-75.22881228360681,-53.60518832337067,-122.16744472826565,126.77584685357408,-29.02481902792141,103.4424870466321,5.4784313725490215,1.4941176470588253,-39.345098039215685,-5.079999999999998,-22.768924302788847,0.5226337448559555,0.4980392156862763,2.4901960784313744,9.709680050073247,196.71597481013424,50.14136111976898,728.2769006046901,83.66714844508105,1228.5998887131734,1
-21.590082752329444,-75.22881228360681,-53.60518832337067,-122.16744472826565,126.77584685357408,-29.02481902792141,103.4424870466321,-5.478431372549018,-7.470588235294116,-9.462745098039214,4.064000000000002,8.601593625498007,9.930041152263362,0.4980392156862763,-5.478431372549018,6.372983758984876,9.973935326453118,50.14136111976898,728.2769006046901,83.66714844508105,1228.5998887131734,1
-21.672835081774938,-75.15234080987507,-53.64941094538912,-122.25693649255702,126.81033195302422,-28.893485005170646,103.31088082901556,-5.478431372549018,-7.470588235294116,-9.462745098039214,4.064000000000002,8.601593625498007,9.930041152263362,0.4980392156862763,-5.478431372549018,6.372983758984876,9.973935326453118,50.15819561234637,724.1558216067283,83.6862294159404,1231.3685814818725,1
-21.672835081774938,-75.15234080987507,-53.64941094538912,-122.25693649255702,126.81033195302422,-28.893485005170646,103.31088082901556,-4.482352941176469,-16.435294117647057,0.4980392156862763,10.160000000000002,13.661354581673304,7.839506172839494,0.4980392156862763,-0.49803921568627274,6.759078182549395,39.54135326022778,50.15819561234637,724.1558216067283,83.6862294159404,1231.3685814818725,1
-21.672835081774938,-75.15234080987507,-53.64941094538912,-122.25693649255702,126.81033195302422,-28.893485005170646,103.31088082901556,13.447058823529414,30.380392156862747,15.439215686274512,-2.0319999999999983,-2.5298804780876507,2.6131687242798236,-0.49803921568627274,1.4941176470588253,8.554234091472406,110.94286187149146,50.15819561234637,724.1558216067283,83.6862294159404,1231.3685814818725,1
-21.672835081774938,-75.26704802047269,-53.69363356740758,-122.3464282568484,126.82757450274929,-28.762150982419826,103.11347150259064,13.447058823529414,30.380392156862747,15.439215686274512,-2.0319999999999983,-2.5298804780876507,2.6131687242798236,-0.49803921568627274,1.4941176470588253,8.554234091472406,110.94286187149146,50.2111722232184,727.1805678899482,83.76903661490955,1232.5144122125794,1
-21.672835081774938,-75.26704802047269,-53.69363356740758,-122.3464282568484,126.82757450274929,-28.762150982419826,103.11347150259064,-6.474509803921567,-1.4941176470588218,7.4705882352941195,3.048000000000002,1.5179282868525883,5.748971193415626,-0.49803921568627274,-3.48627450980392,3.7173036115041147,6.63740246995023,50.2111722232184,727.1805678899482,83.76903661490955,1232.5144122125794,1
-21.672835081774938,-75.26704802047269,-53.69363356740758,-122.3464282568484,126.82757450274929,-28.762150982419826,103.11347150259064,-4.482352941176469,0.4980392156862763,12.450980392156865,1.0160000000000018,-15.68525896414343,-1.5679012345679126,-0.49803921568627274,-1.4941176470588218,4.7115862013095064,35.681776724823386,50.2111722232184,727.1805678899482,83.76903661490955,1232.5144122125794,1
-21.672835081774938,-75.30528375733856,-53.73785618942603,-122.43592002113978,126.86205960219942,-28.630816959669062,102.9818652849741,-4.482352941176469,0.4980392156862763,12.450980392156865,1.0160000000000018,-15.68525896414343,-1.5679012345679126,-0.49803921568627274,-1.4941176470588218,4.7115862013095064,35.681776724823386,50.23865834284651,728.2931769113715,83.82635332263479,1234.3124634590174,1
-21.672835081774938,-75.30528375733856,-53.73785618942603,-122.43592002113978,126.86205960219942,-28.630816959669062,102.9818652849741,6.4745098039215705,5.4784313725490215,6.4745098039215705,-4.063999999999998,0.5059760956175285,10.975308641975296,0.4980392156862763,2.4901960784313744,4.620121376512829,12.395174228792339,50.23865834284651,728.2931769113715,83.82635332263479,1234.3124634590174,1
-21.672835081774938,-75.30528375733856,-53.73785618942603,-122.43592002113978,126.86205960219942,-28.630816959669062,102.9818652849741,-3.48627450980392,-0.49803921568627274,17.43137254901961,6.096000000000002,5.565737051792827,7.839506172839494,-2.490196078431371,-0.49803921568627274,5.4881455991574715,30.19179807906524,50.23865834284651,728.2931769113715,83.82635332263479,1234.3124634590174,1
-21.573532286440344,-75.5346981785338,-53.826301433462945,-122.5030388443583,126.87930215192449,-28.411926921751103,102.71865284974092,-3.48627450980392,-0.49803921568627274,17.43137254901961,6.096000000000002,5.565737051792827,7.839506172839494,-2.490196078431371,-0.49803921568627274,5.4881455991574715,30.19179807906524,50.311510632812364,737.2171718877611,83.95467948545168,1232.2956292579033,1
-21.573532286440344,-75.5346981785338,-53.826301433462945,-122.5030388443583,126.87930215192449,-28.411926921751103,102.71865284974092,-2.490196078431371,16.43529411764706,0.4980392156862763,-10.159999999999998,-3.5418326693227105,4.703703703703692,0.4980392156862763,0.4980392156862763,4.853143027020458,32.36216109823748,50.311510632812364,737.2171718877611,83.95467948545168,1232.2956292579033,1
-21.573532286440344,-75.5346981785338,-53.826301433462945,-122.5030388443583,126.87930215192449,-28.411926921751103,102.71865284974092,2.4901960784313744,-3.48627450980392,5.4784313725490215,11.176000000000002,-8.601593625498008,-2.6131687242798467,-0.49803921568627274,0.4980392156862763,4.35521784274184,14.691448987008997,50.311510632812364,737.2171718877611,83.95467948545168,1232.2956292579033,1
-21.62318368410764,-75.95529128405842,-53.826301433462945,-122.52541178543115,126.91378725137463,-28.236814891416714,102.38963730569947,2.4901960784313744,-3.48627450980392,5.4784313725490215,11.176000000000002,-8.601593625498008,-2.6131687242798467,-0.49803921568627274,0.4980392156862763,4.35521784274184,14.691448987008997,50.468258800543005,746.4518168065382,84.1023348343175,1229.6726797453398,1
-21.62318368410764,-75.95529128405842,-53.826301433462945,-122.52541178543115,126.91378725137463,-28.236814891416714,102.38963730569947,-7.470588235294116,-13.44705882352941,4.482352941176472,13.208000000000002,1.5179282868525883,5.748971193415626,-1.4941176470588218,-4.482352941176469,6.481421258562939,21.82627296081595,50.468258800543005,746.4518168065382,84.1023348343175,1229.6726797453398,1
-21.62318368410764,-75.95529128405842,-53.826301433462945,-122.52541178543115,126.91378725137463,-28.236814891416714,102.38963730569947,-8.466666666666665,-18.427450980392155,-28.388235294117646,-5.079999999999998,19.733067729083665,20.3827160493827,0.4980392156862763,-12.450980392156861,14.178394540935747,84.9803934946424,50.468258800543005,746.4518168065382,84.1023348343175,1229.6726797453398,1
-21.72248647944223,-75.76411259972905,-53.8705240554814,-122.54778472650399,126.9310298010997,-28.06170286108238,102.19222797927466,-8.466666666666665,-18.427450980392155,-28.388235294117646,-5.079999999999998,19.733067729083665,20.3827160493827,0.4980392156862763,-12.450980392156861,14.178394540935747,84.9803934946424,50.45237437821756,738.8871488433506,84.06080712723815,1230.7678883809963,1
-21.72248647944223,-75.76411259972905,-53.8705240554814,-122.54778472650399,126.9310298010997,-28.06170286108238,102.19222797927466,9.462745098039218,-5.478431372549018,20.419607843137257,-16.256,-3.5418326693227105,-1.5679012345679126,1.4941176470588253,13.447058823529414,8.958461836025544,50.97157704386455,50.45237437821756,738.8871488433506,84.06080712723815,1230.7678883809963,1
-21.72248647944223,-75.76411259972905,-53.8705240554814,-122.54778472650399,126.9310298010997,-28.06170286108238,102.19222797927466,-5.478431372549018,-5.478431372549018,-0.49803921568627274,1.0160000000000018,-10.62549800796813,3.6584362139917577,-4.482352941176469,0.4980392156862763,3.9669035424508676,11.720146335108836,50.45237437821756,738.8871488433506,84.06080712723815,1230.7678883809963,1
-21.507330422883946,-76.06999849465603,-54.12111891358598,-122.61490354972253,126.96551490054983,-27.88659083074799,101.92901554404148,-5.478431372549018,-5.478431372549018,-0.49803921568627274,1.0160000000000018,-10.62549800796813,3.6584362139917577,-4.482352941176469,0.4980392156862763,3.9669035424508676,11.720146335108836,50.56614927704198,753.7495436151567,84.26867365265484,1223.263339205154,1
-21.507330422883946,-76.06999849465603,-54.12111891358598,-122.61490354972253,126.96551490054983,-27.88659083074799,101.92901554404148,4.482352941176472,17.43137254901961,53.29019607843138,25.400000000000002,-6.577689243027891,4.703703703703692,5.4784313725490215,12.450980392156865,16.226840785008118,278.98532676475895,50.56614927704198,753.7495436151567,84.26867365265484,1223.263339205154,1
-21.507330422883946,-76.06999849465603,-54.12111891358598,-122.61490354972253,126.96551490054983,-27.88659083074799,101.92901554404148,5.4784313725490215,-1.4941176470588218,-23.4078431372549,-15.239999999999998,-9.613545816733069,0.5226337448559555,-13.44705882352941,-0.49803921568627274,8.71270871970843,68.41497365356518,50.56614927704198,753.7495436151567,84.26867365265484,1223.263339205154,1
-19.88538476575226,-76.52882733704652,-54.961348731936624,-122.81626001937812,126.99999999999997,-26.967252671492588,101.07357512953365,5.4784313725490215,-1.4941176470588218,-23.4078431372549,-15.239999999999998,-9.613545816733069,0.5226337448559555,-13.44705882352941,-0.49803921568627274,8.71270871970843,68.41497365356518,50.45852027824514,817.3264946444081,84.76881202945376,1201.995257254968,1
-19.88538476575226,-76.52882733704652,-54.961348731936624,-122.81626001937812,126.99999999999997,-26.967252671492588,101.07357512953365,1.4941176470588253,10.458823529411767,-1.4941176470588218,-5.079999999999998,20.745019920318725,19.33744855967077,1.4941176470588253,-9.462745098039214,8.695798756077119,61.54164818319931,50.45852027824514,817.3264946444081,84.76881202945376,1201.995257254968,1
-19.88538476575226,-76.52882733704652,-54.961348731936624,-122.81626001937812,126.99999999999997,-26.967252671492588,101.07357512953365,-2.490196078431371,4.482352941176472,18.42745098039216,-5.079999999999998,-6.577689243027891,-23.518518518518526,3.4862745098039234,-3.48627450980392,8.443594597644283,63.14436074246906,50.45852027824514,817.3264946444081,84.76881202945376,1201.995257254968,1
-18.842705414739033,-76.14646996838779,-56.096396030410304,-123.06236237117942,126.94827235082477,-25.478800413650447,100.0865284974094,-2.490196078431371,4.482352941176472,18.42745098039216,-5.079999999999998,-6.577689243027891,-23.518518518518526,3.4862745098039234,-3.48627450980392,8.443594597644283,63.14436074246906,50.36185713784571,845.594060237755,85.1017427899925,1181.2578454702843,1
-18.842705414739033,-76.14646996838779,-56.096396030410304,-123.06236237117942,126.94827235082477,-25.478800413650447,100.0865284974094,3.4862745098039234,11.454901960784316,23.407843137254904,35.56,9.613545816733065,15.156378600823032,10.458823529411767,1.4941176470588253,13.828985650233728,122.80547270525706,50.36185713784571,845.594060237755,85.1017427899925,1181.2578454702843,1
-18.842705414739033,-76.14646996838779,-56.096396030410304,-123.06236237117942,126.94827235082477,-25.478800413650447,100.0865284974094,-10.458823529411763,-28.388235294117646,16.43529411764706,29.464000000000002,-11.637450199203188,10.975308641975296,11.454901960784316,1.4941176470588253,15.038516423774762,90.51486929170957,50.36185713784571,845.594060237755,85.1017427899925,1181.2578454702843,1
-16.376685997263305,-75.22881228360681,-58.66130810748071,-123.5098211926363,126.72411920439887,-22.76456394346775,98.90207253886012,-10.458823529411763,-28.388235294117646,16.43529411764706,29.464000000000002,-11.637450199203188,10.975308641975296,11.454901960784316,1.4941176470588253,15.038516423774762,90.51486929170957,50.08893546278361,921.0073716755943,85.79998052790795,1135.1446108758892,1
-16.376685997263305,-75.22881228360681,-58.66130810748071,-123.5098211926363,126.72411920439887,-22.76456394346775,98.90207253886012,5.4784313725490215,2.4901960784313744,3.4862745098039234,3.048000000000002,-17.709163346613547,-2.6131687242798467,-8.466666666666665,-4.482352941176469,5.971781704940106,26.368619495875272,50.08893546278361,921.0073716755943,85.79998052790795,1135.1446108758892,1
-16.376685997263305,-75.22881228360681,-58.66130810748071,-123.5098211926363,126.72411920439887,-22.76456394346775,98.90207253886012,-0.49803921568627274,12.450980392156865,-16.435294117647057,33.528000000000006,9.613545816733065,4.703703703703692,2.4901960784313744,5.4784313725490215,10.64977383711342,113.2769355402718,50.08893546278361,921.0073716755943,85.79998052790795,1135.1446108758892,1
-11.196390173975367,-76.14646996838779,-62.67082583715397,-124.18100942482162,126.3102980109972,-17.336091003102354,96.07253886010369,-0.49803921568627274,12.450980392156865,-16.435294117647057,33.528000000000006,9.613545816733065,4.703703703703692,2.4901960784313744,5.4784313725490215,10.64977383711342,113.2769355402718,50.004561993172366,1174.9538961491517,87.66610174345446,1045.4021084219892,1
-11.196390173975367,-76.14646996838779,-62.67082583715397,-124.18100942482162,126.3102980109972,-17.336091003102354,96.07253886010369,-2.490196078431371,40.34117647058824,8.466666666666669,-33.528,-68.30677290836654,-4.703703703703715,-22.41176470588235,-6.474509803921567,23.340348792195055,529.0563283106221,50.004561993172366,1174.9538961491517,87.66610174345446,1045.4021084219892,1
-11.196390173975367,-76.14646996838779,-62.67082583715397,-124.18100942482162,126.3102980109972,-17.336091003102354,96.07253886010369,4.482352941176472,15.439215686274512,-14.44313725490196,-21.336,24.79282868525896,7.839506172839494,0.4980392156862763,1.4941176470588253,11.29064970039956,83.0117793225222,50.004561993172366,1174.9538961491517,87.66610174345446,1045.4021084219892,1
-9.508242653287283,-79.12885744392595,-68.52295281759619,-123.53219413370914,125.31023012694317,-9.062047569803497,91.59792746113988,4.482352941176472,15.439215686274512,-14.44313725490196,-21.336,24.79282868525896,7.839506172839494,0.4980392156862763,1.4941176470588253,11.29064970039956,83.0117793225222,52.38668430493647,1407.0418720911139,90.39466813174376,851.6930253838996,1
-9.508242653287283,-79.12885744392595,-68.52295281759619,-123.53219413370914,125.31023012694317,-9.062047569803497,91.59792746113988,-6.474509803921567,-4.482352941176469,21.415686274509806,35.56,21.756972111553782,13.065843621399164,9.462745098039218,-3.48627450980392,14.463048045050492,122.49966763157532,52.38668430493647,1407.0418720911139,90.39466813174376,851.6930253838996,1
-9.508242653287283,-79.12885744392595,-68.52295281759619,-123.53219413370914,125.31023012694317,-9.062047569803497,91.59792746113988,-5.478431372549018,-38.34901960784313,-10.458823529411763,1.7763568394002505e-15,18.721115537848604,23.518518518518505,16.43529411764706,6.4745098039215705,14.929464060967458,148.93933969230102,52.38668430493647,1407.0418720911139,90.39466813174376,851.6930253838996,1
-18.743402619404442,-86.27894023784435,-76.23242992281354,-119.10235180128599,123.13766886158439,-0.6128921061702499,88.43937823834199,-5.478431372549018,-38.34901960784313,-10.458823529411763,1.7763568394002505e-15,18.721115537848604,23.518518518518505,16.43529411764706,6.4745098039215705,14.929464060967458,148.93933969230102,60.418257593354106,1327.8282452023082,93.8712406539813,502.68981967323765,1
-18.743402619404442,-86.27894023784435,-76.23242992281354,-119.10235180128599,123.13766886158439,-0.6128921061702499,88.43937823834199,26.39607843137255,62.254901960784316,56.27843137254902,11.176000000000002,24.79282868525896,7.839506172839494,6.4745098039215705,9.462745098039218,25.58437519059564,490.81622722193595,60.418257593354106,1327.8282452023082,93.8712406539813,502.68981967323765,1
-18.743402619404442,-86.27894023784435,-76.23242992281354,-119.10235180128599,123.13766886158439,-0.6128921061702499,88.43937823834199,3.4862745098039234,5.4784313725490215,6.4745098039215705,-1.0159999999999982,21.756972111553782,12.02057613168723,-1.4941176470588218,-4.482352941176469,7.026154314718852,47.195437037388494,60.418257593354106,1327.8282452023082,93.8712406539813,502.68981967323765,1
-24.370561021698048,-94.57609513773897,-83.69131216992629,-112.81555535981677,121.01683524540084,8.799379524301969,81.20103626943012,3.4862745098039234,5.4784313725490215,6.4745098039215705,-1.0159999999999982,21.756972111553782,12.02057613168723,-1.4941176470588218,-4.482352941176469,7.026154314718852,47.195437037388494,67.54598944312112,1427.7078395941655,97.02765422249401,216.5629918055042,1
-24.370561021698048,-94.57609513773897,-83.69131216992629,-112.81555535981677,121.01683524540084,8.799379524301969,81.20103626943012,-43.32941176470588,-80.1843137254902,-6.474509803921567,4.064000000000002,11.637450199203187,-0.5226337448559786,-10.458823529411763,-8.466666666666665,20.642226179281906,753.3371826921876,67.54598944312112,1427.7078395941655,97.02765422249401,216.5629918055042,1
-24.370561021698048,-94.57609513773897,-83.69131216992629,-112.81555535981677,121.01683524540084,8.799379524301969,81.20103626943012,11.454901960784316,29.3843137254902,11.454901960784316,2.032000000000002,0.5059760956175285,19.33744855967077,-4.482352941176469,5.4784313725490215,10.516290827009076,95.6507313878232,67.54598944312112,1427.7078395941655,97.02765422249401,216.5629918055042,1
-27.81305792663061,-99.81439108836369,-84.53154198827694,-105.29824715934113,118.70633358224151,17.598759048603938,73.10725388601043,11.454901960784316,29.3843137254902,11.454901960784316,2.032000000000002,0.5059760956175285,19.33744855967077,-4.482352941176469,5.4784313725490215,10.516290827009076,95.6507313878232,70.71966366775708,1439.123981322356,96.54806007866058,115.81569961418711,1
-27.81305792663061,-99.81439108836369,-84.53154198827694,-105.29824715934113,118.70633358224151,17.598759048603938,73.10725388601043,-2.490196078431371,-7.470588235294116,-67.23529411764706,-6.095999999999998,7.589641434262947,4.703703703703692,2.4901960784313744,-5.478431372549018,12.944256377539947,485.0383347546668,70.71966366775708,1439.123981322356,96.54806007866058,115.81569961418711,1
-27.81305792663061,-99.81439108836369,-84.53154198827694,-105.29824715934113,118.70633358224151,17.598759048603938,73.10725388601043,5.4784313725490215,-27.392156862745097,-51.29803921568627,-1.0159999999999982,4.5537848605577675,10.975308641975296,0.4980392156862763,-0.49803921568627274,12.713724923110751,323.0635117672022,70.71966366775708,1439.123981322356,96.54806007866058,115.81569961418711,1
-33.02645468169675,-93.964323347885,-81.05269572282515,-97.51246366599136,116.05098092458078,24.47190623922785,67.05336787564772,5.4784313725490215,-27.392156862745097,-51.29803921568627,-1.0159999999999982,4.5537848605577675,10.975308641975296,0.4980392156862763,-0.49803921568627274,12.713724923110751,323.0635117672022,69.34782458413564,1031.108965674397,90.84316091223384,75.03723139801045,1
-33.02645468169675,-93.964323347885,-81.05269572282515,-97.51246366599136,116.05098092458078,24.47190623922785,67.05336787564772,11.454901960784316,-23.4078431372549,-31.376470588235293,-10.159999999999998,8.601593625498007,8.884773662551428,6.4745098039215705,3.4862745098039234,12.98079591100618,89.40598701001552,69.34782458413564,1031.108965674397,90.84316091223384,75.03723139801045,1
-33.02645468169675,-93.964323347885,-81.05269572282515,-97.51246366599136,116.05098092458078,24.47190623922785,67.05336787564772,-39.345098039215685,-1.4941176470588218,-1.4941176470588218,-10.159999999999998,-15.68525896414343,-7.839506172839517,-11.454901960784312,-9.462745098039214,12.116968191142474,144.20047130980097,69.34782458413564,1031.108965674397,90.84316091223384,75.03723139801045,1
-45.290349905518994,-84.25244618395304,-78.28141140966862,-89.77142605478727,113.03353472269362,26.354360565322338,67.57979274611398,-39.345098039215685,-1.4941176470588218,-1.4941176470588218,-10.159999999999998,-15.68525896414343,-7.839506172839517,-11.454901960784312,-9.462745098039214,12.116968191142474,144.20047130980097,69.27473583304688,440.3513903093769,84.10176121613631,33.0221386059047,1
-45.290349905518994,-84.25244618395304,-78.28141140966862,-89.77142605478727,113.03353472269362,26.354360565322338,67.57979274611398,39.345098039215685,-3.48627450980392,-26.396078431372548,-7.111999999999998,13.661354581673304,15.156378600823032,6.4745098039215705,17.43137254901961,16.132883314478708,141.06934362302468,69.27473583304688,440.3513903093769,84.10176121613631,33.0221386059047,1
-45.290349905518994,-84.25244618395304,-78.28141140966862,-89.77142605478727,113.03353472269362,26.354360565322338,67.57979274611398,-17.431372549019606,-0.49803921568627274,30.380392156862747,12.192000000000002,-4.55378486055777,-4.703703703703715,-2.490196078431371,-2.490196078431371,9.342460580336606,104.67503773617817,69.27473583304688,440.3513903093769,84.10176121613631,33.0221386059047,1
-51.18231576203818,-84.29068192081891,-85.44547617665835,-80.08394257024574,108.8953227886769,28.893485005170646,67.9746113989637,-17.431372549019606,-0.49803921568627274,30.380392156862747,12.192000000000002,-4.55378486055777,-4.703703703703715,-2.490196078431371,-2.490196078431371,9.342460580336606,104.67503773617817,73.63949128650513,378.5769368458686,83.273366889241,7.9627080582787215,1
-51.18231576203818,-84.29068192081891,-85.44547617665835,-80.08394257024574,108.8953227886769,28.893485005170646,67.9746113989637,-22.41176470588235,-6.474509803921567,-28.388235294117646,-9.143999999999998,8.601593625498007,20.3827160493827,-0.49803921568627274,-11.454901960784312,13.419470081909106,87.70843482179728,73.63949128650513,378.5769368458686,83.273366889241,7.9627080582787215,1
-51.18231576203818,-84.29068192081891,-85.44547617665835,-80.08394257024574,108.8953227886769,28.893485005170646,67.9746113989637,22.411764705882355,-6.474509803921567,-31.376470588235293,-1.0159999999999982,-1.517928286852591,1.5679012345678895,-0.49803921568627274,4.482352941176472,8.668120847040305,136.24757662445265,73.63949128650513,378.5769368458686,83.273366889241,7.9627080582787215,1
-47.12745161920896,-80.39063676049979,-97.53299286170275,-69.52391438386329,103.48116217500507,36.42330230954843,64.35544041450783,22.411764705882355,-6.474509803921567,-31.376470588235293,-1.0159999999999982,-1.517928286852591,1.5679012345678895,-0.49803921568627274,4.482352941176472,8.668120847040305,136.24757662445265,75.0170270804705,656.8364077321639,82.48251466868861,199.40908418151884,1
-47.12745161920896,-80.39063676049979,-97.53299286170275,-69.52391438386329,103.48116217500507,36.42330230954843,64.35544041450783,10.458823529411767,0.4980392156862763,13.447058823529414,7.112000000000002,-5.56573705179283,2.6131687242798236,-3.48627450980392,1.4941176470588253,5.584402437695357,20.535305743758723,75.0170270804705,656.8364077321639,82.48251466868861,199.40908418151884,1
-47.12745161920896,-80.39063676049979,-97.53299286170275,-69.52391438386329,103.48116217500507,36.42330230954843,64.35544041450783,4.482352941176472,13.447058823529414,11.454901960784316,6.096000000000002,0.5059760956175285,18.292181069958836,8.466666666666669,6.4745098039215705,8.652455920206851,31.262078280850158,75.0170270804705,656.8364077321639,82.48251466868861,199.40908418151884,1
-47.29295627809995,-79.85533644437756,-109.01613371249492,-57.44252620452741,96.63586993415245,47.105136159944834,56.85388601036277,4.482352941176472,13.447058823529414,11.454901960784316,6.096000000000002,0.5059760956175285,18.292181069958836,8.466666666666669,6.4745098039215705,8.652455920206851,31.262078280850158,78.72147547832414,953.4018886672058,82.10466545379997,668.7538585909425,1
-47.29295627809995,-79.85533644437756,-109.01613371249492,-57.44252620452741,96.63586993415245,47.105136159944834,56.85388601036277,-14.44313725490196,-10.458823529411763,0.4980392156862763,-3.0479999999999983,7.589641434262947,17.2469135802469,-1.4941176470588218,-10.458823529411763,8.154687023872553,37.45946415613826,78.72147547832414,953.4018886672058,82.10466545379997,668.7538585909425,1
-47.29295627809995,-79.85533644437756,-109.01613371249492,-57.44252620452741,96.63586993415245,47.105136159944834,56.85388601036277,0.4980392156862763,-7.470588235294116,-57.27450980392157,-21.336,6.577689243027887,14.111111111111098,-4.482352941176469,0.4980392156862763,14.03104122073796,354.2028775049148,78.72147547832414,953.4018886672058,82.10466545379997,668.7538585909425,1
-56.5943181077735,-89.03191329218727,-121.66380360977308,-42.049942746410636,87.91113977326725,57.83074801792486,45.733160621761726,0.4980392156862763,-7.470588235294116,-57.27450980392157,-21.336,6.577689243027887,14.111111111111098,-4.482352941176469,0.4980392156862763,14.03104122073796,354.2028775049148,89.09667833657795,1058.5126317569648,84.24855321612365,1601.7521106056681,1
-56.5943181077735,-89.03191329218727,-121.66380360977308,-42.049942746410636,87.91113977326725,57.83074801792486,45.733160621761726,-11.454901960784312,-19.423529411764704,-18.427450980392155,13.208000000000002,1.5179282868525883,-1.5679012345679126,7.4705882352941195,-1.4941176470588218,9.320552219589327,55.761919234406676,89.09667833657795,1058.5126317569648,84.24855321612365,1601.7521106056681,1
-56.5943181077735,-89.03191329218727,-121.66380360977308,-42.049942746410636,87.91113977326725,57.83074801792486,45.733160621761726,12.450980392156865,24.403921568627453,67.23529411764706,33.528000000000006,12.649402390438246,1.5679012345678895,-0.49803921568627274,6.4745098039215705,19.851006090380668,492.48904753078284,89.09667833657795,1058.5126317569648,84.24855321612365,1601.7521106056681,1
-71.48973740796247,-98.55261177178986,-127.0,-23.927860477406853,77.3931844409748,64.35367114788005,34.415025906735764,12.450980392156865,24.403921568627453,67.23529411764706,33.528000000000006,12.649402390438246,1.5679012345678895,-0.49803921568627274,6.4745098039215705,19.851006090380668,492.48904753078284,99.01411639325077,770.5070531459628,83.1601574163989,2833.662224753323,1
-71.48973740796247,-98.55261177178986,-127.0,-23.927860477406853,77.3931844409748,64.35367114788005,34.415025906735764,-4.482352941176469,32.372549019607845,26.39607843137255,-26.415999999999997,-12.649402390438247,-7.839506172839517,-9.462745098039214,-2.490196078431371,15.263603766488151,130.86007001675154,99.01411639325077,770.5070531459628,83.1601574163989,2833.662224753323,1
-71.48973740796247,-98.55261177178986,-127.0,-23.927860477406853,77.3931844409748,64.35367114788005,34.415025906735764,10.458823529411767,1.4941176470588253,15.439215686274512,17.272000000000002,-14.673306772908369,0.5226337448559555,7.4705882352941195,4.482352941176472,8.976629819622502,42.16456185362521,99.01411639325077,770.5070531459628,83.1601574163989,2833.662224753323,1
-85.65693620903107,-109.64097546289328,-122.43032905809297,-4.798995860125075,66.01310162242888,63.521889003791784,25.663212435233163,10.458823529411767,1.4941176470588253,15.439215686274512,17.272000000000002,-14.673306772908369,0.5226337448559555,7.4705882352941195,4.482352941176472,8.976629819622502,42.16456185362521,105.90941357667243,348.51402099088114,78.95676679370378,4165.42313372361,1
-85.65693620903107,-109.64097546289328,-122.43032905809297,-4.798995860125075,66.01310162242888,63.521889003791784,25.663212435233163,-20.419607843137253,-25.4,-2.490196078431371,-37.592,-25.804780876494025,-1.5679012345679126,-5.478431372549018,-13.44705882352941,16.524997028588622,168.00819175572363,105.90941357667243,348.51402099088114,78.95676679370378,4165.42313372361,1
-85.65693620903107,-109.64097546289328,-122.43032905809297,-4.798995860125075,66.01310162242888,63.521889003791784,25.663212435233163,2.4901960784313744,6.4745098039215705,7.4705882352941195,16.256,15.685258964143426,27.69958847736624,15.439215686274512,3.4862745098039234,11.875203969404396,71.97740933206556,105.90941357667243,348.51402099088114,78.95676679370378,4165.42313372361,1
-101.2309246106731,-119.42932410055698,-116.22442110150311,14.911565225050651,53.58122327065371,54.67873147190625,20.79378238341974,2.4901960784313744,6.4745098039215705,7.4705882352941195,16.256,15.685258964143426,27.69958847736624,15.439215686274512,3.4862745098039234,11.875203969404396,71.97740933206556,112.29488993757774,94.37634737454707,83.52177014237024,3533.0880149057757,1
-101.2309246106731,-119.42932410055698,-116.22442110150311,14.911565225050651,53.58122327065371,54.67873147190625,20.79378238341974,6.4745098039215705,15.439215686274512,-3.48627450980392,59.944,24.79282868525896,10.975308641975296,-4.482352941176469,7.4705882352941195,16.633134812963107,354.7827778557506,112.29488993757774,94.37634737454707,83.52177014237024,3533.0880149057757,1
-101.2309246106731,-119.42932410055698,-116.22442110150311,14.911565225050651,53.58122327065371,54.67873147190625,20.79378238341974,-3.48627450980392,2.4901960784313744,-8.466666666666665,-23.368,-2.5298804780876507,-3.6584362139917808,8.466666666666669,-1.4941176470588218,6.74502978258836,52.26298907430124,112.29488993757774,94.37634737454707,83.52177014237024,3533.0880149057757,1
-116.953867205317,-125.58527773596268,-112.43601648192211,34.91297454417335,39.49406014527186,38.524646673560824,19.21450777202074,-3.48627450980392,2.4901960784313744,-8.466666666666665,-23.368,-2.5298804780876507,-3.6584362139917808,8.466666666666669,-1.4941176470588218,6.74502978258836,52.26298907430124,118.32505380773394,44.6358824057389,90.97808958735271,2400.698611485456,1
-116.953867205317,-125.58527773596268,-112.43601648192211,34.91297454417335,39.49406014527186,38.524646673560824,19.21450777202074,3.4862745098039234,-2.490196078431371,7.4705882352941195,-18.287999999999997,55.15139442231076,-15.156378600823054,4.482352941176472,3.4862745098039234,13.751432412205453,314.20548411602573,118.32505380773394,44.6358824057389,90.97808958735271,2400.698611485456,1
-116.953867205317,-125.58527773596268,-112.43601648192211,34.91297454417335,39.49406014527186,38.524646673560824,19.21450777202074,-7.470588235294116,-15.439215686274508,-9.462745098039214,-12.191999999999998,-7.5896414342629495,15.156378600823032,-26.396078431372548,-15.439215686274508,13.643232896542608,37.95797919704406,118.32505380773394,44.6358824057389,90.97808958735271,2400.698611485456,1
-124.88154036619535,-122.3352401023634,-110.84400208925774,52.90081916674009,24.94134817731313,19.08721130644608,18.09585492227984,-7.470588235294116,-15.439215686274508,-9.462745098039214,-12.191999999999998,-7.5896414342629495,15.156378600823032,-26.396078431372548,-15.439215686274508,13.643232896542608,37.95797919704406,119.35359418593883,55.930779497320614,95.36002045278708,1385.0999681552514,1
-124.88154036619535,-122.3352401023634,-110.84400208925774,52.90081916674009,24.94134817731313,19.08721130644608,18.09585492227984,2.4901960784313744,-4.482352941176469,-17.431372549019606,35.56,-9.613545816733069,21.427983539094637,16.43529411764706,7.4705882352941195,14.363916659674542,117.3699174184902,119.35359418593883,55.930779497320614,95.36002045278708,1385.0999681552514,1
-124.88154036619535,-122.3352401023634,-110.84400208925774,52.90081916674009,24.94134817731313,19.08721130644608,18.09585492227984,5.4784313725490215,7.4705882352941195,3.4862745098039234,38.608000000000004,40.98406374501992,-10.975308641975317,11.454901960784316,9.462745098039218,15.99003919543323,223.43043566213504,119.35359418593883,55.930779497320614,95.36002045278708,1385.0999681552514,1
-127.0,-116.1792864669577,-108.19064476815043,69.00933673918792,9.578236372276137,-2.057566356428822,16.05595854922285,5.4784313725490215,7.4705882352941195,3.4862745098039234,38.608000000000004,40.98406374501992,-10.975308641975317,11.454901960784316,9.462745098039218,15.99003919543323,223.43043566213504,117.12331041170272,89.1163469656656,97.79308932476535,637.3329087287825,1
-127.0,-116.1792864669577,-108.19064476815043,69.00933673918792,9.578236372276137,-2.057566356428822,16.05595854922285,17.43137254901961,37.352941176470594,20.419607843137257,-4.063999999999998,99.67729083665338,70.55555555555554,-3.48627450980392,17.43137254901961,33.80230187745749,1174.4945904876088,117.12331041170272,89.1163469656656,97.79308932476535,637.3329087287825,1
-127.0,-116.1792864669577,-108.19064476815043,69.00933673918792,9.578236372276137,-2.057566356428822,16.05595854922285,-7.470588235294116,-9.462745098039214,32.372549019607845,48.768,-92.59362549800797,-59.05761316872429,17.43137254901961,1.4941176470588253,33.58132640196898,988.2107738017221,117.12331041170272,89.1163469656656,97.79308932476535,637.3329087287825,1
-125.4111552746465,-108.26448893572183,-105.86158667517846,83.7083590240465,-7.302219808566981,-24.690796277145807,12.173575129533674,-7.470588235294116,-9.462745098039214,32.372549019607845,48.768,-92.59362549800797,-59.05761316872429,17.43137254901961,1.4941176470588253,33.58132640196898,988.2107738017221,113.17907696184892,113.66128970624065,99.27814487831559,183.2571584792796,1
-125.4111552746465,-108.26448893572183,-105.86158667517846,83.7083590240465,-7.302219808566981,-24.690796277145807,12.173575129533674,-8.466666666666665,-15.439215686274508,24.403921568627453,-15.239999999999998,-33.90039840637451,0.5226337448559555,19.423529411764708,-10.458823529411763,15.981898626746945,104.38068374654135,113.17907696184892,113.66128970624065,99.27814487831559,183.2571584792796,1
-125.4111552746465,-108.26448893572183,-105.86158667517846,83.7083590240465,-7.302219808566981,-24.690796277145807,12.173575129533674,6.4745098039215705,7.4705882352941195,33.3686274509804,-28.448,11.637450199203187,8.884773662551428,-19.423529411764704,13.447058823529414,16.144317198405602,101.11964018709787,113.17907696184892,113.66128970624065,99.27814487831559,183.2571584792796,1
-124.1367694011859,-103.29384314315823,-103.35563809413267,95.61076367479961,-23.44124635123211,-47.06135815236124,6.7119170984456105,6.4745098039215705,7.4705882352941195,33.3686274509804,-28.448,11.637450199203187,8.884773662551428,-19.423529411764704,13.447058823529414,16.144317198405602,101.11964018709787,110.26208354615892,144.38113533575554,100.75341497069684,19.83610141738653,1
-124.1367694011859,-103.29384314315823,-103.35563809413267,95.61076367479961,-23.44124635123211,-47.06135815236124,6.7119170984456105,-9.462745098039214,-15.439215686274508,24.403921568627453,-2.0319999999999983,-82.47410358565737,-21.42798353909466,7.4705882352941195,-6.474509803921567,21.14813343961361,672.6443086399582,110.26208354615892,144.38113533575554,100.75341497069684,19.83610141738653,1
-124.1367694011859,-103.29384314315823,-103.35563809413267,95.61076367479961,-23.44124635123211,-47.06135815236124,6.7119170984456105,3.4862745098039234,-2.490196078431371,6.4745098039215705,46.736000000000004,-16.697211155378486,2.6131687242798236,-9.462745098039214,-25.4,14.1700131712318,236.93471848915345,110.26208354615892,144.38113533575554,100.75341497069684,19.83610141738653,1
-124.69948524141526,-82.76125244618396,-101.46880622134525,105.09689068968555,-40.68379607630169,-68.11857980006891,0.7896373056995571,3.4862745098039234,-2.490196078431371,6.4745098039215705,46.736000000000004,-16.697211155378486,2.6131687242798236,-9.462745098039214,-25.4,14.1700131712318,236.93471848915345,102.97651463631483,441.4087309951811,96.44231645240491,143.66938348408905,1
-124.69948524141526,-82.76125244618396,-101.46880622134525,105.09689068968555,-40.68379607630169,-68.11857980006891,0.7896373056995571,-3.48627450980392,-10.458823529411763,-43.32941176470588,-11.175999999999998,-62.235059760956176,-15.156378600823054,3.4862745098039234,-12.450980392156861,20.222400383457696,446.059668532345,102.97651463631483,441.4087309951811,96.44231645240491,143.66938348408905,1
-124.69948524141526,-82.76125244618396,-101.46880622134525,105.09689068968555,-40.68379607630169,-68.11857980006891,0.7896373056995571,5.4784313725490215,6.4745098039215705,-69.22745098039215,-73.152,-21.756972111553786,13.065843621399164,11.454901960784316,-4.482352941176469,25.63655784897206,821.8730208314453,102.97651463631483,441.4087309951811,96.44231645240491,143.66938348408905,1
-125.29530201342281,-62.30513322294145,-95.4692705008415,111.67453536510175,-58.805715837349815,-87.46845915201652,-3.4875647668393412,5.4784313725490215,6.4745098039215705,-69.22745098039215,-73.152,-21.756972111553786,13.065843621399164,11.454901960784316,-4.482352941176469,25.63655784897206,821.8730208314453,94.3565685790686,992.8689202383711,89.81631302962823,633.3014130970948,1
-125.29530201342281,-62.30513322294145,-95.4692705008415,111.67453536510175,-58.805715837349815,-87.46845915201652,-3.4875647668393412,2.4901960784313744,6.4745098039215705,0.4980392156862763,-23.368,110.80876494023904,55.92181069958846,-34.364705882352936,-19.423529411764704,31.668694503998047,1362.1742761088701,94.3565685790686,992.8689202383711,89.81631302962823,633.3014130970948,1
-125.29530201342281,-62.30513322294145,-95.4692705008415,111.67453536510175,-58.805715837349815,-87.46845915201652,-3.4875647668393412,-11.454901960784312,-16.435294117647057,-17.431372549019606,-52.832,-35.92430278884462,41.28806584362138,-11.454901960784312,-15.439215686274508,25.282506863371975,249.65849859230568,94.3565685790686,992.8689202383711,89.81631302962823,633.3014130970948,1
-122.7465302665016,-44.37257263284661,-90.23626022865764,115.47793534748524,-77.42766954042496,-103.97276801103067,-7.76476683937824,-11.454901960784312,-16.435294117647057,-17.431372549019606,-52.832,-35.92430278884462,41.28806584362138,-11.454901960784312,-15.439215686274508,25.282506863371975,249.65849859230568,85.7851210426686,1550.4787888302717,83.36225606966316,1299.4321015784856,1
-122.7465302665016,-44.37257263284661,-90.23626022865764,115.47793534748524,-77.42766954042496,-103.97276801103067,-7.76476683937824,6.4745098039215705,0.4980392156862763,4.482352941176472,66.04,77.41434262948206,-28.744855967078195,-55.28235294117647,-16.435294117647057,31.921468452021013,916.7434074075728,85.7851210426686,1550.4787888302717,83.36225606966316,1299.4321015784856,1
-122.7465302665016,-44.37257263284661,-90.23626022865764,115.47793534748524,-77.42766954042496,-103.97276801103067,-7.76476683937824,-16.435294117647057,-12.450980392156861,-22.41176470588235,-15.239999999999998,122.95219123505976,39.19753086419752,-4.482352941176469,12.450980392156865,30.70263683103461,1492.468784518803,85.7851210426686,1550.4787888302717,83.36225606966316,1299.4321015784856,1
-111.74047045025087,-29.69004967635106,-84.50206024026464,116.99929534043866,-94.79091711357003,-117.58772836952772,-12.699999999999932,-16.435294117647057,-12.450980392156861,-22.41176470588235,-15.239999999999998,122.95219123505976,39.19753086419752,-4.482352941176469,12.450980392156865,30.70263683103461,1492.468784518803,75.31086012228884,1746.4265070000108,77.06380175235147,1947.2218616077596,1
-111.74047045025087,-29.69004967635106,-84.50206024026464,116.99929534043866,-94.79091711357003,-117.58772836952772,-12.699999999999932,-8.466666666666665,-4.482352941176469,-10.458823529411763,56.896,-40.984063745019924,-15.156378600823054,82.1764705882353,72.2156862745098,36.354555293230376,963.2250241699439,75.31086012228884,1746.4265070000108,77.06380175235147,1947.2218616077596,1
-111.74047045025087,-29.69004967635106,-84.50206024026464,116.99929534043866,-94.79091711357003,-117.58772836952772,-12.699999999999932,-2.490196078431371,-5.478431372549018,0.4980392156862763,35.56,24.79282868525896,-52.78600823045268,20.419607843137257,-16.435294117647057,19.807550692895326,321.48424436903923,75.31086012228884,1746.4265070000108,77.06380175235147,1947.2218616077596,1
-95.23965595881931,-14.739876561794382,-83.10167720968023,117.17827886902143,-110.01608852080648,-125.46776973457426,-21.91243523316058,-2.490196078431371,-5.478431372549018,0.4980392156862763,35.56,24.79282868525896,-52.78600823045268,20.419607843137257,-16.435294117647057,19.807550692895326,321.48424436903923,64.36040324343132,1883.4801331509198,71.67327754683201,2721.362805954667,1
-95.23965595881931,-14.739876561794382,-83.10167720968023,117.17827886902143,-110.01608852080648,-125.46776973457426,-21.91243523316058,-1.4941176470588218,-1.4941176470588218,1.4941176470588253,-16.256,-2.5298804780876507,-8.884773662551451,-29.384313725490195,8.466666666666669,8.750498434246554,96.97810738262851,64.36040324343132,1883.4801331509198,71.67327754683201,2721.362805954667,1
-95.23965595881931,-14.739876561794382,-83.10167720968023,117.17827886902143,-110.01608852080648,-125.46776973457426,-21.91243523316058,22.411764705882355,13.447058823529414,20.419607843137257,30.480000000000004,-36.93625498007968,64.28395061728394,79.18823529411765,39.345098039215685,38.313996287905745,514.4184954194941,64.36040324343132,1883.4801331509198,71.67327754683201,2721.362805954667,1
-70.74496644295301,-5.333885292789418,-86.83111833323662,117.69285651369682,-121.86172018192927,-126.99999999999997,-39.41606217616578,22.411764705882355,13.447058823529414,20.419607843137257,30.480000000000004,-36.93625498007968,64.28395061728394,79.18823529411765,39.345098039215685,38.313996287905745,514.4184954194941,54.30332335632635,1863.1954688532535,69.95262004657428,3369.7973817648217,1
-70.74496644295301,-5.333885292789418,-86.83111833323662,117.69285651369682,-121.86172018192927,-126.99999999999997,-39.41606217616578,5.4784313725490215,-1.4941176470588218,-16.435294117647057,40.64,35.92430278884462,8.884773662551428,-47.31372549019608,22.411764705882355,22.322801223091172,296.8407151297487,54.30332335632635,1863.1954688532535,69.95262004657428,3369.7973817648217,1
-70.74496644295301,-5.333885292789418,-86.83111833323662,117.69285651369682,-121.86172018192927,-126.99999999999997,-39.41606217616578,-12.450980392156861,7.4705882352941195,1.4941176470588253,-56.896,-5.56573705179283,-71.60082304526749,-127.0,-85.16470588235293,45.95536903174039,2156.3912399742835,54.30332335632635,1863.1954688532535,69.95262004657428,3369.7973817648217,1
-30.792141786668402,-16.68989914195395,-87.06697231733503,119.81828591561703,-127.0,-122.09686315063769,-63.76321243523313,-12.450980392156861,7.4705882352941195,1.4941176470588253,-56.896,-5.56573705179283,-71.60082304526749,-127.0,-85.16470588235293,45.95536903174039,2156.3912399742835,44.8496710819858,1386.4437045997656,74.525052458302,2776.8408549473666,1
-30.792141786668402,-16.68989914195395,-87.06697231733503,119.81828591561703,-127.0,-122.09686315063769,-63.76321243523313,34.36470588235294,16.43529411764706,7.4705882352941195,5.080000000000002,63.24701195219123,99.82304526748969,127.0,114.05098039215687,58.43395323089149,2473.986269420494,44.8496710819858,1386.4437045997656,74.525052458302,2776.8408549473666,1
-30.792141786668402,-16.68989914195395,-87.06697231733503,119.81828591561703,-127.0,-122.09686315063769,-63.76321243523313,-16.435294117647057,-14.44313725490196,-15.439215686274508,-3.0479999999999983,-18.721115537848608,-112.36625514403292,-86.16078431372549,-77.19607843137254,42.97623506072539,1758.614184623051,44.8496710819858,1386.4437045997656,74.525052458302,2776.8408549473666,1
11.196390173975374,-20.169351196748465,-80.81684173872671,123.06236237117946,-125.05159188106714,-108.70079283005859,-91.33471502590669,-16.435294117647057,-14.44313725490196,-15.439215686274508,-3.0479999999999983,-18.721115537848608,-112.36625514403292,-86.16078431372549,-77.19607843137254,42.97623506072539,1758.614184623051,37.39419436981685,2188.0604479658623,74.68285176888487,2674.962311847986,1
11.196390173975374,-20.169351196748465,-80.81684173872671,123.06236237117946,-125.05159188106714,-108.70079283005859,-91.33471502590669,-16.435294117647057,-2.490196078431371,-0.49803921568627274,31.496000000000002,-60.211155378486055,-59.05761316872429,-3.48627450980392,24.403921568627453,24.759811754675802,583.5814580530571,37.39419436981685,2188.0604479658623,74.68285176888487,2674.962311847986,1
11.196390173975374,-20.169351196748465,-80.81684173872671,123.06236237117946,-125.05159188106714,-108.70079283005859,-91.33471502590669,-12.450980392156861,-10.458823529411763,-9.462745098039214,6.096000000000002,29.85258964143426,42.333333333333314,31.376470588235296,35.36078431372549,22.173965862042024,196.5423942849804,37.39419436981685,2188.0604479658623,74.68285176888487,2674.962311847986,1
