Gyro 0,Gyro 1,Gyro 2,Orientation 0,Orientation 1,Orientation 2,Orientation 3,Sensor 0,Sensor 1,Sensor 2,Sensor 3,Sensor 4,Sensor 5,Sensor 6,Sensor 7,Sensor Mean,Sensor Variance,Gyro Mean,Gyro Variance,Orientation Mean,Orientation Variance,Label
-17.9669457910974,-41.87275307473983,-42.99679150984142,-119.86004784688993,124.95878421387647,-122.78763100310952,123.72550575168584,-3.148760330578506,-18.427450980392155,27.78125000000001,5.381355932203392,12.450980392156865,0.4980392156862763,9.462745098039218,-7.71255060728747,10.607891569542987,79.18935907470917,34.27883012522622,199.87404349839426,68.24319747715705,1998.5402971694402,1
-17.9669457910974,-41.87275307473983,-42.99679150984142,-119.86004784688993,124.95878421387647,-122.78763100310952,123.72550575168584,22.041322314049594,5.4784313725490215,31.75000000000001,3.2288135593220364,-8.466666666666665,-0.49803921568627274,0.4980392156862763,5.655870445344107,9.702147848663,126.49097924250977,34.27883012522622,199.87404349839426,68.24319747715705,1998.5402971694402,1
-17.855002203613928,-41.87275307473983,-42.98111926945147,-119.82206937799043,124.95878421387647,-122.78763100310952,123.70031733439113,22.041322314049594,5.4784313725490215,31.75000000000001,3.2288135593220364,-8.466666666666665,-0.49803921568627274,0.4980392156862763,5.655870445344107,9.702147848663,126.49097924250977,34.23629151593508,201.5670985558702,68.22531390739391,1996.9760002247938,1
-17.855002203613928,-41.87275307473983,-42.98111926945147,-119.82206937799043,124.95878421387647,-122.78763100310952,123.70031733439113,22.041322314049594,9.462745098039218,10.583333333333343,13.991525423728817,-14.44313725490196,-3.48627450980392,-12.450980392156861,21.080971659919005,13.44253624824159,36.81593122301372,34.23629151593508,201.5670985558702,68.22531390739391,1996.9760002247938,1
-17.855002203613928,-41.87275307473983,-42.98111926945147,-119.82206937799043,124.95878421387647,-122.78763100310952,123.70031733439113,1.0495867768595115,-5.478431372549018,2.645833333333343,11.83898305084746,8.466666666666669,5.4784313725490215,-1.4941176470588218,0.5141700404858076,4.620777532543707,15.951218498827554,34.23629151593508,201.5670985558702,68.22531390739391,1996.9760002247938,1
-17.855002203613928,-41.87275307473983,-42.98111926945147,-119.82206937799043,124.95878421387647,-122.78763100310952,123.70031733439113,9.446280991735545,-3.48627450980392,33.07291666666668,16.144067796610173,7.4705882352941195,-0.49803921568627274,-24.40392156862745,1.5425101214574677,12.008074888235203,136.61037618097615,34.23629151593508,201.5670985558702,68.22531390739391,1996.9760002247938,1
-18.834508594094316,-41.51229895931883,-42.73036342321219,-119.70813397129189,124.89815404201141,-122.84613612806635,123.70031733439113,9.446280991735545,-3.48627450980392,33.07291666666668,16.144067796610173,7.4705882352941195,-0.49803921568627274,-24.40392156862745,1.5425101214574677,12.008074888235203,136.61037618097615,34.359056992208444,181.1296224835909,67.98359878460764,2006.941575468453,1
-18.834508594094316,-41.51229895931883,-42.73036342321219,-119.70813397129189,124.89815404201141,-122.84613612806635,123.70031733439113,-7.347107438016522,-40.34117647058824,-19.843749999999993,16.144067796610173,-11.454901960784312,-2.490196078431371,6.4745098039215705,-1.5425101214575117,13.204777458726213,160.36873343730926,34.359056992208444,181.1296224835909,67.98359878460764,2006.941575468453,1
-18.834508594094316,-41.51229895931883,-42.73036342321219,-119.70813397129189,124.89815404201141,-122.84613612806635,123.70031733439113,7.105427357601002e-15,17.43137254901961,42.33333333333334,11.83898305084746,-10.458823529411763,-4.482352941176469,3.4862745098039234,-5.655870445344151,11.960876294867091,180.7494776805783,34.359056992208444,181.1296224835909,67.98359878460764,2006.941575468453,1
-19.22631115028647,-41.572374645222325,-42.63632998087246,-119.59419856459328,124.85773392743471,-122.99239894045837,123.70031733439113,7.105427357601002e-15,17.43137254901961,42.33333333333334,11.83898305084746,-10.458823529411763,-4.482352941176469,3.4862745098039234,-5.655870445344151,11.960876294867091,180.7494776805783,34.47833859212708,174.75125605405898,67.9343010635627,2001.841757601805,1
-19.22631115028647,-41.572374645222325,-42.63632998087246,-119.59419856459328,124.85773392743471,-122.99239894045837,123.70031733439113,8.39669421487604,5.4784313725490215,52.91666666666668,8.610169491525426,12.450980392156865,1.4941176470588253,4.482352941176472,-1.5425101214575117,11.921490355933356,288.22585442943904,34.47833859212708,174.75125605405898,67.9343010635627,2001.841757601805,1
-19.22631115028647,-41.572374645222325,-42.63632998087246,-119.59419856459328,124.85773392743471,-122.99239894045837,123.70031733439113,10.495867768595048,6.4745098039215705,31.75000000000001,7.533898305084748,13.447058823529414,2.4901960784313744,10.458823529411767,0.5141700404858076,10.395565543682467,92.71974360952696,34.47833859212708,174.75125605405898,67.9343010635627,2001.841757601805,1
-18.498677831643896,-41.93282876064333,-42.51095205775282,-119.67015550239233,124.85773392743471,-123.1679143153288,123.75069416898056,10.495867768595048,6.4745098039215705,31.75000000000001,7.533898305084748,13.447058823529414,2.4901960784313744,10.458823529411767,0.5141700404858076,10.395565543682467,92.71974360952696,34.31415288334668,187.68049496994013,68.03797877359615,1999.494811951896,1
-18.498677831643896,-41.93282876064333,-42.51095205775282,-119.67015550239233,124.85773392743471,-123.1679143153288,123.75069416898056,5.247933884297527,-6.474509803921567,17.197916666666675,12.915254237288138,-10.458823529411763,4.482352941176472,-0.49803921568627274,7.712550607287427,8.12342261071698,27.617459297564817,34.31415288334668,187.68049496994013,68.03797877359615,1999.494811951896,1
-18.498677831643896,-41.93282876064333,-42.51095205775282,-119.67015550239233,124.85773392743471,-123.1679143153288,123.75069416898056,-16.79338842975206,-25.4,11.906250000000009,8.610169491525426,-12.450980392156861,-3.48627450980392,-0.49803921568627274,-5.655870445344151,10.600121560533587,63.36986030593937,34.31415288334668,187.68049496994013,68.03797877359615,1999.494811951896,1
-18.834508594094316,-41.81267738883633,-42.542296538532725,-119.63217703349284,124.83752387014636,-123.34342969019924,123.7758825862753,-16.79338842975206,-25.4,11.906250000000009,8.610169491525426,-12.450980392156861,-3.48627450980392,-0.49803921568627274,-5.655870445344151,10.600121560533587,63.36986030593937,34.39649417382112,181.76463241361972,67.99571698695397,1999.876090629255,1
-18.834508594094316,-41.81267738883633,-42.542296538532725,-119.63217703349284,124.83752387014636,-123.34342969019924,123.7758825862753,25.190082644628106,26.39607843137255,6.614583333333343,10.762711864406782,20.419607843137257,7.4705882352941195,-16.435294117647057,7.712550607287427,15.12518713463833,66.15485933399275,34.39649417382112,181.76463241361972,67.99571698695397,1999.876090629255,1
-18.834508594094316,-41.81267738883633,-42.542296538532725,-119.63217703349284,124.83752387014636,-123.34342969019924,123.7758825862753,8.39669421487604,-4.482352941176469,3.968750000000007,6.45762711864407,-9.462745098039214,2.4901960784313744,6.4745098039215705,4.627530364372447,5.795050702432649,5.49498868814258,34.39649417382112,181.76463241361972,67.99571698695397,1999.876090629255,1
-18.834508594094316,-41.69252601702933,-42.57364101931264,-119.63217703349284,124.79710375556965,-123.51894506506969,123.85144783815947,8.39669421487604,-4.482352941176469,3.968750000000007,6.45762711864407,-9.462745098039214,2.4901960784313744,6.4745098039215705,4.627530364372447,5.795050702432649,5.49498868814258,34.3668918768121,181.13528874275022,67.96611468994494,2002.230589477346,1
-18.834508594094316,-41.69252601702933,-42.57364101931264,-119.63217703349284,124.79710375556965,-123.51894506506969,123.85144783815947,6.297520661157032,22.411764705882355,33.07291666666668,4.305084745762715,-4.482352941176469,-4.482352941176469,-0.49803921568627274,-1.5425101214575117,9.636567749870686,136.31434107841937,34.3668918768121,181.13528874275022,67.96611468994494,2002.230589477346,1
-18.834508594094316,-41.69252601702933,-42.57364101931264,-119.63217703349284,124.79710375556965,-123.51894506506969,123.85144783815947,11.545454545454554,-7.470588235294116,18.520833333333343,6.45762711864407,-10.458823529411763,-8.466666666666665,4.482352941176472,11.825910931174066,9.903532162644382,18.600703077133495,34.3668918768121,181.13528874275022,67.96611468994494,2002.230589477346,1
-18.02291758483914,-41.69252601702933,-42.58931325970259,-119.78409090909093,124.817313812858,-123.6067027525049,123.9018246727489,11.545454545454554,-7.470588235294116,18.520833333333343,6.45762711864407,-10.458823529411763,-8.466666666666665,4.482352941176472,11.825910931174066,9.903532162644382,18.600703077133495,34.101585620523686,194.09373119096338,68.02197672860763,2009.6884051646991,1
-18.02291758483914,-41.69252601702933,-42.58931325970259,-119.78409090909093,124.817313812858,-123.6067027525049,123.9018246727489,2.099173553719015,-24.40392156862745,18.520833333333343,18.29661016949153,22.411764705882355,5.4784313725490215,0.4980392156862763,-0.514170040485852,11.527867994971855,106.7748608488989,34.101585620523686,194.09373119096338,68.02197672860763,2009.6884051646991,1
-18.02291758483914,-41.69252601702933,-42.58931325970259,-119.78409090909093,124.817313812858,-123.6067027525049,123.9018246727489,22.041322314049594,32.372549019607845,83.34375000000001,22.601694915254242,-8.466666666666665,2.4901960784313744,2.4901960784313744,7.712550607287427,22.689865709966064,716.5355833322283,34.101585620523686,194.09373119096338,68.02197672860763,2009.6884051646991,1
-17.99493168796827,-41.33207190160832,-42.57364101931264,-119.89802631578948,124.83752387014636,-123.69446043994012,123.95220150733836,22.041322314049594,32.372549019607845,83.34375000000001,22.601694915254242,-8.466666666666665,2.4901960784313744,2.4901960784313744,7.712550607287427,22.689865709966064,716.5355833322283,33.966881536296405,191.7127599366413,67.93457974557015,2025.5352080605387,1
-17.99493168796827,-41.33207190160832,-42.57364101931264,-119.89802631578948,124.83752387014636,-123.69446043994012,123.95220150733836,-6.297520661157018,-25.4,-6.614583333333325,8.610169491525426,-11.454901960784312,-2.490196078431371,-15.439215686274508,-1.5425101214575117,9.731137166620433,60.47297532882459,33.966881536296405,191.7127599366413,67.93457974557015,2025.5352080605387,1
-17.99493168796827,-41.33207190160832,-42.57364101931264,-119.89802631578948,124.83752387014636,-123.69446043994012,123.95220150733836,5.247933884297527,-15.439215686274508,-27.781249999999993,1.07627118644068,-4.482352941176469,0.4980392156862763,-3.48627450980392,1.5425101214574677,7.444230943142106,90.05811228485598,33.966881536296405,191.7127599366413,67.93457974557015,2025.5352080605387,1
-18.498677831643896,-41.81267738883633,-42.68334670204232,-119.86004784688993,124.817313812858,-123.75296556489693,123.95220150733836,5.247933884297527,-15.439215686274508,-27.781249999999993,1.07627118644068,-4.482352941176469,0.4980392156862763,-3.48627450980392,1.5425101214574677,7.444230943142106,90.05811228485598,34.33156730750752,188.19980812942435,68.11869064592285,2008.0655500117896,1
-18.498677831643896,-41.81267738883633,-42.68334670204232,-119.86004784688993,124.817313812858,-123.75296556489693,123.95220150733836,9.446280991735545,2.4901960784313744,29.10416666666668,12.915254237288138,3.4862745098039234,0.4980392156862763,4.482352941176472,2.5708502024291278,8.124176855402192,88.62493221523034,34.33156730750752,188.19980812942435,68.11869064592285,2008.0655500117896,1
-18.498677831643896,-41.81267738883633,-42.68334670204232,-119.86004784688993,124.817313812858,-123.75296556489693,123.95220150733836,4.198347107438024,6.4745098039215705,25.135416666666675,-5.3813559322033875,3.4862745098039234,-3.48627450980392,-0.49803921568627274,4.627530364372447,6.660968513737028,58.75940660465916,34.33156730750752,188.19980812942435,68.11869064592285,2008.0655500117896,1
-18.666593212869106,-41.81267738883633,-42.73036342321219,-119.74611244019138,124.7768936982813,-123.84072325233214,123.95220150733836,4.198347107438024,6.4745098039215705,25.135416666666675,-5.3813559322033875,3.4862745098039234,-3.48627450980392,-0.49803921568627274,4.627530364372447,6.660968513737028,58.75940660465916,34.40321134163921,185.941399512474,68.0963844174133,2000.9813405346329,1
-18.666593212869106,-41.81267738883633,-42.73036342321219,-119.74611244019138,124.7768936982813,-123.84072325233214,123.95220150733836,12.595041322314056,-0.49803921568627274,21.166666666666675,15.067796610169495,2.4901960784313744,3.4862745098039234,15.439215686274512,7.712550607287427,9.806972587079215,54.39195645551512,34.40321134163921,185.941399512474,68.0963844174133,2000.9813405346329,1
-18.666593212869106,-41.81267738883633,-42.73036342321219,-119.74611244019138,124.7768936982813,-123.84072325233214,123.95220150733836,-1.0495867768594973,-5.478431372549018,19.84375000000001,16.144067796610173,-1.4941176470588218,-3.48627450980392,6.4745098039215705,-11.82591093117411,8.224581104747141,48.64689300793217,34.40321134163921,185.941399512474,68.0963844174133,2000.9813405346329,1
-18.218818862935215,-41.99290444654683,-42.77738014438205,-119.78409090909093,124.79710375556965,-123.86997581481054,123.92701309004364,-1.0495867768594973,-5.478431372549018,19.84375000000001,16.144067796610173,-1.4941176470588218,-3.48627450980392,6.4745098039215705,-11.82591093117411,8.224581104747141,48.64689300793217,34.32970115128803,194.82424661199389,68.18479183333994,1997.0195993617217,1
-18.218818862935215,-41.99290444654683,-42.77738014438205,-119.78409090909093,124.79710375556965,-123.86997581481054,123.92701309004364,19.942148760330586,24.403921568627453,13.229166666666675,1.7763568394002505e-15,-9.462745098039214,-5.478431372549018,-3.48627450980392,9.769230769230747,10.72148984315595,67.9710735743625,34.32970115128803,194.82424661199389,68.18479183333994,1997.0195993617217,1
-18.218818862935215,-41.99290444654683,-42.77738014438205,-119.78409090909093,124.79710375556965,-123.86997581481054,123.92701309004364,13.644628099173561,0.4980392156862763,7.937500000000009,12.915254237288138,6.4745098039215705,1.4941176470588253,4.482352941176472,3.5991902834007874,6.380699028463205,23.960339983426618,34.32970115128803,194.82424661199389,68.18479183333994,1997.0195993617217,1
-18.274790656676952,-41.99290444654683,-42.808724625161965,-119.74611244019138,124.79710375556965,-123.89922837728896,123.9018246727489,13.644628099173561,0.4980392156862763,7.937500000000009,12.915254237288138,6.4745098039215705,1.4941176470588253,4.482352941176472,3.5991902834007874,6.380699028463205,23.960339983426618,34.358806576128586,194.18806671383902,68.18258050396673,1994.264759944504,1
-18.274790656676952,-41.99290444654683,-42.808724625161965,-119.74611244019138,124.79710375556965,-123.89922837728896,123.9018246727489,-2.0991735537190017,-8.466666666666665,-9.260416666666657,-5.3813559322033875,3.4862745098039234,-0.49803921568627274,-5.478431372549018,0.5141700404858076,4.398065994722591,11.248734394752372,34.358806576128586,194.18806671383902,68.18258050396673,1994.264759944504,1
-18.274790656676952,-41.99290444654683,-42.808724625161965,-119.74611244019138,124.79710375556965,-123.89922837728896,123.9018246727489,3.1487603305785195,-6.474509803921567,-2.645833333333325,20.449152542372886,2.4901960784313744,6.4745098039215705,1.4941176470588253,4.627530364372447,5.975576237998814,37.58699000956847,34.358806576128586,194.18806671383902,68.18258050396673,1994.264759944504,1
-18.554649625385633,-41.81267738883633,-42.855741346331826,-119.74611244019138,124.79710375556965,-123.89922837728896,123.9018246727489,3.1487603305785195,-6.474509803921567,-2.645833333333325,20.449152542372886,2.4901960784313744,6.4745098039215705,1.4941176470588253,4.627530364372447,5.975576237998814,37.58699000956847,34.407689453517925,188.7611494491182,68.13817705845318,1997.806241379106,1
-18.554649625385633,-41.81267738883633,-42.855741346331826,-119.74611244019138,124.79710375556965,-123.89922837728896,123.9018246727489,-7.347107438016522,-20.419607843137253,23.81250000000001,20.449152542372886,19.423529411764708,-0.49803921568627274,-8.466666666666665,-15.93927125506075,14.544484296588134,66.72479013597372,34.407689453517925,188.7611494491182,68.13817705845318,1997.806241379106,1
-18.554649625385633,-41.81267738883633,-42.855741346331826,-119.74611244019138,124.79710375556965,-123.89922837728896,123.9018246727489,8.39669421487604,-17.431372549019606,-3.968749999999993,2.152542372881358,-8.466666666666665,0.4980392156862763,-1.4941176470588218,9.769230769230747,6.522176679427439,32.0048676685147,34.407689453517925,188.7611494491182,68.13817705845318,1997.806241379106,1
-18.834508594094316,-42.11305581835383,-42.77738014438205,-119.59419856459328,124.7768936982813,-123.95773350224577,123.85144783815947,8.39669421487604,-17.431372549019606,-3.968749999999993,2.152542372881358,-8.466666666666665,0.4980392156862763,-1.4941176470588218,9.769230769230747,6.522176679427439,32.0048676685147,34.574981518943396,185.93219762596846,68.16154484244305,1984.0987333794988,1
-18.834508594094316,-42.11305581835383,-42.77738014438205,-119.59419856459328,124.7768936982813,-123.95773350224577,123.85144783815947,14.694214876033065,19.423529411764708,27.78125000000001,11.83898305084746,7.4705882352941195,6.4745098039215705,7.4705882352941195,11.825910931174066,13.37244681804114,52.566424196933404,34.574981518943396,185.93219762596846,68.16154484244305,1984.0987333794988,1
-18.834508594094316,-42.11305581835383,-42.77738014438205,-119.59419856459328,124.7768936982813,-123.95773350224577,123.85144783815947,6.297520661157032,13.447058823529414,48.94791666666668,15.067796610169495,18.42745098039216,-2.490196078431371,-12.450980392156861,5.655870445344107,15.348098832230892,213.09912934661506,34.574981518943396,185.93219762596846,68.16154484244305,1984.0987333794988,1
-19.142353459673867,-42.29328287606433,-42.7617079039921,-119.44228468899524,124.7364735837046,-124.04549118968099,123.7758825862753,6.297520661157032,13.447058823529414,48.94791666666668,15.067796610169495,18.42745098039216,-2.490196078431371,-12.450980392156861,5.655870445344107,15.348098832230892,213.09912934661506,34.73244807991009,182.34314320263627,68.16575848968388,1972.016459803195,1
-19.142353459673867,-42.29328287606433,-42.7617079039921,-119.44228468899524,124.7364735837046,-124.04549118968099,123.7758825862753,5.247933884297527,-8.466666666666665,29.10416666666668,7.533898305084748,-1.4941176470588218,1.4941176470588253,2.4901960784313744,6.684210526315767,7.81441342769755,81.40877996209792,34.73244807991009,182.34314320263627,68.16575848968388,1972.016459803195,1
-19.142353459673867,-42.29328287606433,-42.7617079039921,-119.44228468899524,124.7364735837046,-124.04549118968099,123.7758825862753,5.247933884297527,0.4980392156862763,43.656250000000014,8.610169491525426,-3.48627450980392,1.4941176470588253,1.4941176470588253,-0.514170040485852,8.125134054489584,213.79040921385032,34.73244807991009,182.34314320263627,68.16575848968388,1972.016459803195,1
-19.198325253415604,-42.473509933774835,-42.714691182822236,-119.29037081339715,124.69605346912789,-124.22100656455143,123.72550575168584,5.247933884297527,0.4980392156862763,43.656250000000014,8.610169491525426,-3.48627450980392,1.4941176470588253,1.4941176470588253,-0.514170040485852,8.125134054489584,213.79040921385032,34.79550879000423,182.46864280424634,68.15952397666474,1960.787165779764,1
-19.198325253415604,-42.473509933774835,-42.714691182822236,-119.29037081339715,124.69605346912789,-124.22100656455143,123.72550575168584,24.140495867768603,43.32941176470588,58.20833333333334,-3.228813559322031,-13.44705882352941,-5.478431372549018,4.482352941176472,16.967611336032366,21.160313624802143,399.3705304442447,34.79550879000423,182.46864280424634,68.15952397666474,1960.787165779764,1
-19.198325253415604,-42.473509933774835,-42.714691182822236,-119.29037081339715,124.69605346912789,-124.22100656455143,123.72550575168584,4.198347107438024,-0.49803921568627274,44.97916666666668,13.991525423728817,-7.470588235294116,-1.4941176470588218,4.482352941176472,-4.627530364372491,10.21770845017771,214.44249324426988,34.79550879000423,182.46864280424634,68.15952397666474,1960.787165779764,1
-19.25429704715734,-42.05298013245033,-42.793052384772004,-119.17643540669854,124.65563335455118,-124.36726937694345,123.70031733439113,4.198347107438024,-0.49803921568627274,44.97916666666668,13.991525423728817,-7.470588235294116,-1.4941176470588218,4.482352941176472,-4.627530364372491,10.21770845017771,214.44249324426988,34.700109854793226,179.06677670106066,68.00748930797363,1963.8327103753263,1
-19.25429704715734,-42.05298013245033,-42.793052384772004,-119.17643540669854,124.65563335455118,-124.36726937694345,123.70031733439113,-15.743801652892557,-36.35686274509804,-19.843749999999993,5.381355932203392,-30.380392156862744,-2.490196078431371,-0.49803921568627274,-5.655870445344151,14.543783528314815,180.2364668577016,34.700109854793226,179.06677670106066,68.00748930797363,1963.8327103753263,1
-19.25429704715734,-42.05298013245033,-42.793052384772004,-119.17643540669854,124.65563335455118,-124.36726937694345,123.70031733439113,17.842975206611577,8.466666666666669,30.427083333333343,8.610169491525426,4.482352941176472,3.4862745098039234,-3.48627450980392,6.684210526315767,10.435750898154637,86.83397588753219,34.700109854793226,179.06677670106066,68.00748930797363,1963.8327103753263,1
-18.414720141031292,-42.35335856196783,-42.90275806750169,-119.2144138755981,124.67584341183954,-124.36726937694345,123.70031733439113,17.842975206611577,8.466666666666669,30.427083333333343,8.610169491525426,4.482352941176472,3.4862745098039234,-3.48627450980392,6.684210526315767,10.435750898154637,86.83397588753219,34.55694559016694,195.5040417922121,68.15684350168921,1955.232079319164,1
-18.414720141031292,-42.35335856196783,-42.90275806750169,-119.2144138755981,124.67584341183954,-124.36726937694345,123.70031733439113,-3.148760330578506,-4.482352941176469,51.593750000000014,19.372881355932208,6.4745098039215705,3.4862745098039234,4.482352941176472,-11.82591093117411,13.108349101720409,272.373752231679,34.55694559016694,195.5040417922121,68.15684350168921,1955.232079319164,1
-18.414720141031292,-42.35335856196783,-42.90275806750169,-119.2144138755981,124.67584341183954,-124.36726937694345,123.70031733439113,17.842975206611577,18.42745098039216,54.23958333333334,13.991525423728817,12.450980392156865,1.4941176470588253,0.4980392156862763,15.939271255060707,16.86049293175357,276.1422619961671,34.55694559016694,195.5040417922121,68.15684350168921,1955.232079319164,1
-18.13486117232261,-42.29328287606433,-42.965447029061515,-119.2144138755981,124.67584341183954,-124.36726937694345,123.70031733439113,17.842975206611577,18.42745098039216,54.23958333333334,13.991525423728817,12.450980392156865,1.4941176470588253,0.4980392156862763,15.939271255060707,16.86049293175357,276.1422619961671,34.464530359149485,200.10652297554594,68.15771459357465,1955.202857343374,1
-18.13486117232261,-42.29328287606433,-42.965447029061515,-119.2144138755981,124.67584341183954,-124.36726937694345,123.70031733439113,3.1487603305785195,1.4941176470588253,9.260416666666675,6.45762711864407,-11.454901960784312,0.4980392156862763,-6.474509803921567,-7.71255060728747,5.812615418828464,14.596699430196008,34.464530359149485,200.10652297554594,68.15771459357465,1955.202857343374,1
-18.13486117232261,-42.29328287606433,-42.965447029061515,-119.2144138755981,124.67584341183954,-124.36726937694345,123.70031733439113,-8.396694214876026,-24.40392156862745,13.229166666666675,10.762711864406782,2.4901960784313744,4.482352941176472,10.458823529411767,-1.5425101214575117,9.470797123131756,53.913369335551145,34.464530359149485,200.10652297554594,68.15771459357465,1955.202857343374,1
-18.050903481710005,-42.11305581835383,-43.02813599062133,-119.2144138755981,124.67584341183954,-124.36726937694345,123.70031733439113,-8.396694214876026,-24.40392156862745,13.229166666666675,10.762711864406782,2.4901960784313744,4.482352941176472,10.458823529411767,-1.5425101214575117,9.470797123131756,53.913369335551145,34.39736509689505,200.61444843295794,68.11853522819108,1958.300953993327,1
-18.050903481710005,-42.11305581835383,-43.02813599062133,-119.2144138755981,124.67584341183954,-124.36726937694345,123.70031733439113,31.487603305785132,9.462745098039218,9.260416666666675,17.22033898305085,8.466666666666669,-1.4941176470588218,-3.48627450980392,14.910931174089045,11.973636756395042,89.25301304221227,34.39736509689505,200.61444843295794,68.11853522819108,1958.300953993327,1
-18.050903481710005,-42.11305581835383,-43.02813599062133,-119.2144138755981,124.67584341183954,-124.36726937694345,123.70031733439113,8.39669421487604,3.4862745098039234,2.645833333333343,7.533898305084748,1.4941176470588253,2.4901960784313744,-0.49803921568627274,4.627530364372447,3.8965729585808715,7.863991315495214,34.39736509689505,200.61444843295794,68.11853522819108,1958.300953993327,1
-17.79903040987219,-41.93282876064333,-43.02813599062133,-119.2144138755981,124.67584341183954,-124.36726937694345,123.70031733439113,8.39669421487604,3.4862745098039234,2.645833333333343,7.533898305084748,1.4941176470588253,2.4901960784313744,-0.49803921568627274,4.627530364372447,3.8965729585808715,7.863991315495214,34.25333172037895,203.35794819471886,68.0584595422876,1962.9986722958233,1
-17.79903040987219,-41.93282876064333,-43.02813599062133,-119.2144138755981,124.67584341183954,-124.36726937694345,123.70031733439113,-9.44628099173553,-10.458823529411763,-5.291666666666657,10.762711864406782,-2.490196078431371,-4.482352941176469,6.4745098039215705,-1.5425101214575117,6.368631499650957,12.653194089852459,34.25333172037895,203.35794819471886,68.0584595422876,1962.9986722958233,1
-17.79903040987219,-41.93282876064333,-43.02813599062133,-119.2144138755981,124.67584341183954,-124.36726937694345,123.70031733439113,3.1487603305785195,5.4784313725490215,19.84375000000001,9.686440677966104,-6.474509803921567,-8.466666666666665,-5.478431372549018,3.5991902834007874,7.7720225634539615,28.69512483201259,34.25333172037895,203.35794819471886,68.0584595422876,1962.9986722958233,1
-17.239312472454827,-41.87275307473983,-43.04380823101128,-119.40430622009569,124.7364735837046,-124.30876425198664,123.70031733439113,3.1487603305785195,5.4784313725490215,19.84375000000001,9.686440677966104,-6.474509803921567,-8.466666666666665,-5.478431372549018,3.5991902834007874,7.7720225634539615,28.69512483201259,34.051957926068646,212.3416279064486,68.10695584194893,1973.9064594085223,1
-17.239312472454827,-41.87275307473983,-43.04380823101128,-119.40430622009569,124.7364735837046,-124.30876425198664,123.70031733439113,6.297520661157032,8.466666666666669,68.79166666666669,11.83898305084746,2.4901960784313744,5.4784313725490215,4.482352941176472,4.627530364372447,14.059168475233395,497.17659994763335,34.051957926068646,212.3416279064486,68.10695584194893,1973.9064594085223,1
-17.239312472454827,-41.87275307473983,-43.04380823101128,-119.40430622009569,124.7364735837046,-124.30876425198664,123.70031733439113,13.644628099173561,13.447058823529414,-2.645833333333325,6.45762711864407,-1.4941176470588218,1.4941176470588253,-1.4941176470588218,2.5708502024291278,5.406043814785747,27.886372081923415,34.051957926068646,212.3416279064486,68.10695584194893,1973.9064594085223,1
-17.379241956809167,-41.51229895931883,-42.98111926945147,-119.51824162679424,124.79710375556965,-124.22100656455143,123.67512891709639,13.644628099173561,13.447058823529414,-2.645833333333325,6.45762711864407,-1.4941176470588218,1.4941176470588253,-1.4941176470588218,2.5708502024291278,5.406043814785747,27.886372081923415,33.95755339519315,206.66966588690454,68.0038866185215,1990.8359372146292,1
-17.379241956809167,-41.51229895931883,-42.98111926945147,-119.51824162679424,124.79710375556965,-124.22100656455143,123.67512891709639,9.446280991735545,0.4980392156862763,39.687500000000014,17.22033898305085,29.3843137254902,9.462745098039218,-0.49803921568627274,15.939271255060707,15.267066060593635,186.2487712713414,33.95755339519315,206.66966588690454,68.0038866185215,1990.8359372146292,1
-17.379241956809167,-41.51229895931883,-42.98111926945147,-119.51824162679424,124.79710375556965,-124.22100656455143,123.67512891709639,7.105427357601002e-15,1.4941176470588253,67.46875000000001,12.915254237288138,-41.33725490196078,-7.470588235294116,4.482352941176472,-2.570850202429172,17.21739602065094,591.5482414753898,33.95755339519315,206.66966588690454,68.0038866185215,1990.8359372146292,1
-17.379241956809167,-41.572374645222325,-42.84006910594187,-119.70813397129189,124.83752387014636,-124.19175400207303,123.70031733439113,7.105427357601002e-15,1.4941176470588253,67.46875000000001,12.915254237288138,-41.33725490196078,-7.470588235294116,4.482352941176472,-2.570850202429172,17.21739602065094,591.5482414753898,33.930561902657786,205.86140627381954,68.04019257415203,2002.5838884751438,1
-17.379241956809167,-41.572374645222325,-42.84006910594187,-119.70813397129189,124.83752387014636,-124.19175400207303,123.70031733439113,5.247933884297527,-4.482352941176469,-2.645833333333325,11.83898305084746,-6.474509803921567,-1.4941176470588218,-1.4941176470588218,0.5141700404858076,4.274002293522475,13.615129989584927,33.930561902657786,205.86140627381954,68.04019257415203,2002.5838884751438,1
-17.379241956809167,-41.572374645222325,-42.84006910594187,-119.70813397129189,124.83752387014636,-124.19175400207303,123.70031733439113,4.198347107438024,-14.44313725490196,30.427083333333343,11.83898305084746,5.4784313725490215,2.4901960784313744,2.4901960784313744,3.5991902834007874,9.370695569916668,92.1556146222592,33.930561902657786,205.86140627381954,68.04019257415203,2002.5838884751438,1
-17.575143234905244,-41.15184484389783,-42.855741346331826,-119.89802631578948,124.87794398472306,-124.16250143959462,123.75069416898056,4.198347107438024,-14.44313725490196,30.427083333333343,11.83898305084746,5.4784313725490215,2.4901960784313744,2.4901960784313744,3.5991902834007874,9.370695569916668,92.1556146222592,33.8609098083783,199.64546048699088,67.96853750200638,2023.2296721683701,1
-17.575143234905244,-41.15184484389783,-42.855741346331826,-119.89802631578948,124.87794398472306,-124.16250143959462,123.75069416898056,-3.148760330578506,-17.431372549019606,26.458333333333343,9.686440677966104,7.4705882352941195,0.4980392156862763,-0.49803921568627274,2.5708502024291278,8.47030296999917,85.22639465491822,33.8609098083783,199.64546048699088,67.96853750200638,2023.2296721683701,1
-17.575143234905244,-41.15184484389783,-42.855741346331826,-119.89802631578948,124.87794398472306,-124.16250143959462,123.75069416898056,10.495867768595048,10.458823529411767,19.84375000000001,3.2288135593220364,4.482352941176472,-0.49803921568627274,-13.44705882352941,9.769230769230747,9.027992075868971,38.330506471218314,33.8609098083783,199.64546048699088,67.96853750200638,2023.2296721683701,1
-17.687086822388718,-40.911542100283825,-42.74603566360214,-120.04994019138758,124.89815404201141,-124.19175400207303,123.85144783815947,10.495867768595048,10.458823529411767,19.84375000000001,3.2288135593220364,4.482352941176472,-0.49803921568627274,-13.44705882352941,9.769230769230747,9.027992075868971,38.330506471218314,33.78155486209156,195.11526776922634,67.90250598509118,2040.3575123834726,1
-17.687086822388718,-40.911542100283825,-42.74603566360214,-120.04994019138758,124.89815404201141,-124.19175400207303,123.85144783815947,3.1487603305785195,-0.49803921568627274,13.229166666666675,7.533898305084748,-6.474509803921567,-9.462745098039214,-11.454901960784312,3.5991902834007874,6.925151458020261,19.129028418896734,33.78155486209156,195.11526776922634,67.90250598509118,2040.3575123834726,1
-17.687086822388718,-40.911542100283825,-42.74603566360214,-120.04994019138758,124.89815404201141,-124.19175400207303,123.85144783815947,-2.0991735537190017,-4.482352941176469,19.84375000000001,11.83898305084746,-4.482352941176469,0.4980392156862763,2.4901960784313744,-4.627530364372491,6.295297268176195,41.33463634469519,33.78155486209156,195.11526776922634,67.90250598509118,2040.3575123834726,1
-17.379241956809167,-40.79139072847682,-42.714691182822236,-120.23983253588517,124.91836409929977,-124.16250143959462,123.97738992463307,-2.0991735537190017,-4.482352941176469,19.84375000000001,11.83898305084746,-4.482352941176469,0.4980392156862763,2.4901960784313744,-4.627530364372491,6.295297268176195,41.33463634469519,33.62844128936941,198.95213037137844,67.91530481572808,2054.3169220125374,1
-17.379241956809167,-40.79139072847682,-42.714691182822236,-120.23983253588517,124.91836409929977,-124.16250143959462,123.97738992463307,18.892561983471083,16.43529411764706,25.135416666666675,8.610169491525426,-5.478431372549018,1.4941176470588253,7.4705882352941195,9.769230769230747,11.66072628543037,61.2406909905098,33.62844128936941,198.95213037137844,67.91530481572808,2054.3169220125374,1
-17.379241956809167,-40.79139072847682,-42.714691182822236,-120.23983253588517,124.91836409929977,-124.16250143959462,123.97738992463307,9.446280991735545,8.466666666666669,21.166666666666675,10.762711864406782,14.443137254901963,3.4862745098039234,-1.4941176470588218,2.5708502024291278,8.979588225458688,44.18805113016385,33.62844128936941,198.95213037137844,67.91530481572808,2054.3169220125374,1
-17.071397091229617,-41.211920529801326,-42.699018942432275,-120.46770334928232,124.95878421387647,-124.13324887711622,124.02776675922253,9.446280991735545,8.466666666666669,21.166666666666675,10.762711864406782,14.443137254901963,3.4862745098039234,-1.4941176470588218,2.5708502024291278,8.979588225458688,44.18805113016385,33.66077885448774,206.95855588755325,68.12621427383864,2055.276474398305,1
-17.071397091229617,-41.211920529801326,-42.699018942432275,-120.46770334928232,124.95878421387647,-124.13324887711622,124.02776675922253,8.39669421487604,-10.458823529411763,-60.85416666666666,1.07627118644068,11.454901960784316,1.4941176470588253,2.4901960784313744,5.655870445344107,12.73513021612672,394.06402917472434,33.66077885448774,206.95855588755325,68.12621427383864,2055.276474398305,1
-17.071397091229617,-41.211920529801326,-42.699018942432275,-120.46770334928232,124.95878421387647,-124.13324887711622,124.02776675922253,10.495867768595048,-5.478431372549018,14.552083333333343,16.144067796610173,-12.450980392156861,-2.490196078431371,-5.478431372549018,2.5708502024291278,8.707613539581745,29.120100963670804,33.66077885448774,206.95855588755325,68.12621427383864,2055.276474398305,1
-17.01542529748788,-41.03169347209082,-42.699018942432275,-120.6955741626794,124.99920432845317,-124.07474375215939,124.12852042840144,10.495867768595048,-5.478431372549018,14.552083333333343,16.144067796610173,-12.450980392156861,-2.490196078431371,-5.478431372549018,2.5708502024291278,8.707613539581745,29.120100963670804,33.58204590400366,206.53468229618727,68.14209552573416,2072.096081188907,1
-17.01542529748788,-41.03169347209082,-42.699018942432275,-120.6955741626794,124.99920432845317,-124.07474375215939,124.12852042840144,11.545454545454554,12.450980392156865,39.687500000000014,7.533898305084748,-0.49803921568627274,2.4901960784313744,-2.490196078431371,5.655870445344107,10.294016882573661,159.58378732166392,33.58204590400366,206.53468229618727,68.14209552573416,2072.096081188907,1
-17.01542529748788,-41.03169347209082,-42.699018942432275,-120.6955741626794,124.99920432845317,-124.07474375215939,124.12852042840144,1.0495867768595115,-19.423529411764704,15.875000000000009,9.686440677966104,9.462745098039218,0.4980392156862763,2.4901960784313744,2.5708502024291278,7.632048432647041,51.54778773094771,33.58204590400366,206.53468229618727,68.14209552573416,2072.096081188907,1
-17.155354781842224,-41.33207190160832,-42.57364101931264,-120.92344497607655,125.03962444302988,-124.07474375215939,124.20408568028562,1.0495867768595115,-19.423529411764704,15.875000000000009,9.686440677966104,9.462745098039218,0.4980392156862763,2.4901960784313744,2.5708502024291278,7.632048432647041,51.54778773094771,33.687022567587725,205.35740330220102,68.27638596566584,2079.16999030276,1
-17.155354781842224,-41.33207190160832,-42.57364101931264,-120.92344497607655,125.03962444302988,-124.07474375215939,124.20408568028562,10.495867768595048,11.454901960784316,46.30208333333334,15.067796610169495,6.4745098039215705,4.482352941176472,2.4901960784313744,2.5708502024291278,12.417319837355093,207.65741309381852,33.687022567587725,205.35740330220102,68.27638596566584,2079.16999030276,1
-17.155354781842224,-41.33207190160832,-42.57364101931264,-120.92344497607655,125.03962444302988,-124.07474375215939,124.20408568028562,1.0495867768595115,8.466666666666669,62.17708333333334,12.915254237288138,-15.439215686274508,-7.470588235294116,-15.439215686274508,-2.570850202429172,15.691057603052496,382.151853205919,33.687022567587725,205.35740330220102,68.27638596566584,2079.16999030276,1
-17.575143234905244,-41.33207190160832,-42.47960757697291,-121.11333732057415,125.08004455760658,-124.13324887711622,124.25446251487504,1.0495867768595115,8.466666666666669,62.17708333333334,12.915254237288138,-15.439215686274508,-7.470588235294116,-15.439215686274508,-2.570850202429172,15.691057603052496,382.151853205919,33.79560757116216,197.65680699439548,68.30833893305179,2091.6051005612376,1
-17.575143234905244,-41.33207190160832,-42.47960757697291,-121.11333732057415,125.08004455760658,-124.13324887711622,124.25446251487504,3.1487603305785195,-4.482352941176469,27.78125000000001,4.305084745762715,-6.474509803921567,-7.470588235294116,-5.478431372549018,2.5708502024291278,7.713978453963943,68.37793198329838,33.79560757116216,197.65680699439548,68.30833893305179,2091.6051005612376,1
-17.575143234905244,-41.33207190160832,-42.47960757697291,-121.11333732057415,125.08004455760658,-124.13324887711622,124.25446251487504,4.198347107438024,-15.439215686274508,22.489583333333343,9.686440677966104,7.4705882352941195,1.4941176470588253,-0.49803921568627274,-0.514170040485852,7.7238127429421315,62.414316381102786,33.79560757116216,197.65680699439548,68.30833893305179,2091.6051005612376,1
-17.687086822388718,-40.67123935666982,-42.35422965385327,-121.34120813397129,125.10025461489494,-124.22100656455143,124.38040460134867,4.198347107438024,-15.439215686274508,22.489583333333343,9.686440677966104,7.4705882352941195,1.4941176470588253,-0.49803921568627274,-0.514170040485852,7.7238127429421315,62.414316381102786,33.57085194430393,189.92860992123119,68.12222571483146,2124.903181381639,1
-17.687086822388718,-40.67123935666982,-42.35422965385327,-121.34120813397129,125.10025461489494,-124.22100656455143,124.38040460134867,11.545454545454554,-8.466666666666665,33.07291666666668,8.610169491525426,-9.462745098039214,-3.48627450980392,15.439215686274512,12.854251012145726,12.867211709572087,79.10178686083019,33.57085194430393,189.92860992123119,68.12222571483146,2124.903181381639,1
-17.687086822388718,-40.67123935666982,-42.35422965385327,-121.34120813397129,125.10025461489494,-124.22100656455143,124.38040460134867,1.0495867768595115,-5.478431372549018,-2.645833333333325,8.610169491525426,7.4705882352941195,-4.482352941176469,-9.462745098039214,0.5141700404858076,4.964234661157861,11.544340189959765,33.57085194430393,189.92860992123119,68.12222571483146,2124.903181381639,1
-17.379241956809167,-41.03169347209082,-42.32288517307336,-121.68301435406698,125.18109484404835,-124.30876425198664,124.45596985323284,1.0495867768595115,-5.478431372549018,-2.645833333333325,8.610169491525426,7.4705882352941195,-4.482352941176469,-9.462745098039214,0.5141700404858076,4.964234661157861,11.544340189959765,33.577940200657785,197.2151625986197,68.34586433307705,2134.055473273361,1
-17.379241956809167,-41.03169347209082,-42.32288517307336,-121.68301435406698,125.18109484404835,-124.30876425198664,124.45596985323284,3.1487603305785195,-15.439215686274508,46.30208333333334,19.372881355932208,-11.454901960784312,-3.48627450980392,5.4784313725490215,0.5141700404858076,13.149589823717704,222.54689934738437,33.577940200657785,197.2151625986197,68.34586433307705,2134.055473273361,1
-17.379241956809167,-41.03169347209082,-42.32288517307336,-121.68301435406698,125.18109484404835,-124.30876425198664,124.45596985323284,22.041322314049594,21.415686274509806,-30.42708333333333,1.07627118644068,-2.490196078431371,5.4784313725490215,17.43137254901961,11.825910931174066,14.023284254938435,111.15949464993268,33.577940200657785,197.2151625986197,68.34586433307705,2134.055473273361,1
-16.791538122520937,-41.03169347209082,-42.35422965385327,-122.21471291866027,125.30235518777846,-124.39652193942186,124.55672352241176,22.041322314049594,21.415686274509806,-30.42708333333333,1.07627118644068,-2.490196078431371,5.4784313725490215,17.43137254901961,11.825910931174066,14.023284254938435,111.15949464993268,33.392487082821674,207.13090527490033,68.53354534820146,2161.688089283777,1
-16.791538122520937,-41.03169347209082,-42.35422965385327,-122.21471291866027,125.30235518777846,-124.39652193942186,124.55672352241176,7.347107438016536,8.466666666666669,31.75000000000001,10.762711864406782,-14.44313725490196,-4.482352941176469,-14.44313725490196,1.5425101214574677,11.654702942690982,86.0836208942047,33.392487082821674,207.13090527490033,68.53354534820146,2161.688089283777,1
-16.791538122520937,-41.03169347209082,-42.35422965385327,-122.21471291866027,125.30235518777846,-124.39652193942186,124.55672352241176,6.297520661157032,13.447058823529414,50.27083333333334,9.686440677966104,22.411764705882355,0.4980392156862763,-10.458823529411763,7.712550607287427,15.097878944281714,241.3291503383937,33.392487082821674,207.13090527490033,68.53354534820146,2161.688089283777,1
-15.672102247686206,-40.911542100283825,-42.51095205775282,-122.86034688995215,125.46403564608528,-124.30876425198664,124.65747719159064,6.297520661157032,13.447058823529414,50.27083333333334,9.686440677966104,22.411764705882355,0.4980392156862763,-10.458823529411763,7.712550607287427,15.097878944281714,241.3291503383937,33.03153213524095,226.65188256870942,68.76094701599628,2195.6983280946465,1
-15.672102247686206,-40.911542100283825,-42.51095205775282,-122.86034688995215,125.46403564608528,-124.30876425198664,124.65747719159064,16.793388429752074,48.30980392156863,93.92708333333334,12.915254237288138,-1.4941176470588218,-7.470588235294116,-9.462745098039214,0.5141700404858076,23.860893867852518,1028.295395396552,33.03153213524095,226.65188256870942,68.76094701599628,2195.6983280946465,1
-15.672102247686206,-40.911542100283825,-42.51095205775282,-122.86034688995215,125.46403564608528,-124.30876425198664,124.65747719159064,6.297520661157032,3.4862745098039234,-9.260416666666657,10.762711864406782,-6.474509803921567,0.4980392156862763,6.4745098039215705,2.5708502024291278,5.728104090999118,11.658659479886593,33.03153213524095,226.65188256870942,68.76094701599628,2195.6983280946465,1
-15.392243278977524,-41.15184484389783,-42.57364101931264,-123.35406698564594,125.6257161043921,-124.13324887711622,124.7078540261801,6.297520661157032,3.4862745098039234,-9.260416666666657,10.762711864406782,-6.474509803921567,0.4980392156862763,6.4745098039215705,2.5708502024291278,5.728104090999118,11.658659479886593,33.03924304739599,234.06782671102727,69.02651761628547,2214.1173414513305,1
-15.392243278977524,-41.15184484389783,-42.57364101931264,-123.35406698564594,125.6257161043921,-124.13324887711622,124.7078540261801,-12.595041322314042,-27.392156862745097,11.906250000000009,19.372881355932208,7.4705882352941195,-0.49803921568627274,-9.462745098039214,-14.91093117408909,12.951079158012508,64.58945409303905,33.03924304739599,234.06782671102727,69.02651761628547,2214.1173414513305,1
-15.392243278977524,-41.15184484389783,-42.57364101931264,-123.35406698564594,125.6257161043921,-124.13324887711622,124.7078540261801,22.041322314049594,21.415686274509806,22.489583333333343,7.533898305084748,-2.490196078431371,4.482352941176472,4.482352941176472,13.882591093117385,12.352247910109899,75.06837863173155,33.03924304739599,234.06782671102727,69.02651761628547,2214.1173414513305,1
-15.895989422653152,-42.35335856196783,-42.52662429814277,-123.73385167464113,125.7671865054105,-124.01623862720258,124.65747719159064,22.041322314049594,21.415686274509806,22.489583333333343,7.533898305084748,-2.490196078431371,4.482352941176472,4.482352941176472,13.882591093117385,12.352247910109899,75.06837863173155,33.59199076092125,234.86885277682282,69.53794484491725,2202.904743075917,1
-15.895989422653152,-42.35335856196783,-42.52662429814277,-123.73385167464113,125.7671865054105,-124.01623862720258,124.65747719159064,-1.0495867768594973,-17.431372549019606,-19.843749999999993,4.305084745762715,0.4980392156862763,-1.4941176470588218,7.4705882352941195,1.5425101214574677,6.7043811613923125,59.76317038249168,33.59199076092125,234.86885277682282,69.53794484491725,2202.904743075917,1
-15.895989422653152,-42.35335856196783,-42.52662429814277,-123.73385167464113,125.7671865054105,-124.01623862720258,124.65747719159064,9.446280991735545,5.4784313725490215,5.291666666666675,6.45762711864407,3.4862745098039234,1.4941176470588253,-8.466666666666665,0.5141700404858076,5.079404376701317,9.840091598947284,33.59199076092125,234.86885277682282,69.53794484491725,2202.904743075917,1
-16.791538122520937,-42.71381267738884,-42.307212932683406,-123.92374401913878,125.84802673456392,-124.01623862720258,124.60710035700119,9.446280991735545,5.4784313725490215,5.291666666666675,6.45762711864407,3.4862745098039234,1.4941176470588253,-8.466666666666665,0.5141700404858076,5.079404376701317,9.840091598947284,33.93752124419773,220.52988374471764,69.64825654307033,2209.4127364117453,1
-16.791538122520937,-42.71381267738884,-42.307212932683406,-123.92374401913878,125.84802673456392,-124.01623862720258,124.60710035700119,17.842975206611577,10.458823529411767,14.552083333333343,16.144067796610173,14.443137254901963,4.482352941176472,2.4901960784313744,7.712550607287427,11.015773343470512,31.964989199921053,33.93752124419773,220.52988374471764,69.64825654307033,2209.4127364117453,1
-16.791538122520937,-42.71381267738884,-42.307212932683406,-123.92374401913878,125.84802673456392,-124.01623862720258,124.60710035700119,3.1487603305785195,-2.490196078431371,29.10416666666668,3.2288135593220364,-37.35294117647059,-6.474509803921567,-1.4941176470588218,0.5141700404858076,10.475959412866924,205.04085251969812,33.93752124419773,220.52988374471764,69.64825654307033,2209.4127364117453,1
-17.435213750550904,-43.31456953642384,-42.35422965385327,-124.11363636363637,125.90865690642897,-124.13324887711622,124.53153510511702,3.1487603305785195,-2.490196078431371,29.10416666666668,3.2288135593220364,-37.35294117647059,-6.474509803921567,-1.4941176470588218,0.5141700404858076,10.475959412866924,205.04085251969812,34.36800431360934,215.27011036181446,69.92747851797117,2202.3353397290234,1
-17.435213750550904,-43.31456953642384,-42.35422965385327,-124.11363636363637,125.90865690642897,-124.13324887711622,124.53153510511702,7.347107438016536,3.4862745098039234,21.166666666666675,8.610169491525426,-2.490196078431371,4.482352941176472,1.4941176470588253,4.627530364372447,6.7130518921314595,39.673622525313085,34.36800431360934,215.27011036181446,69.92747851797117,2202.3353397290234,1
-17.435213750550904,-43.31456953642384,-42.35422965385327,-124.11363636363637,125.90865690642897,-124.13324887711622,124.53153510511702,-3.148760330578506,-5.478431372549018,17.197916666666675,23.677966101694917,13.447058823529414,-5.478431372549018,1.4941176470588253,-13.88259109311743,10.475659175967975,60.603165892941206,34.36800431360934,215.27011036181446,69.92747851797117,2202.3353397290234,1
-17.882988100484795,-43.374645222327345,-42.38557413463318,-124.22757177033492,125.96928707829403,-124.27951168950824,124.48115827052759,-3.148760330578506,-5.478431372549018,17.197916666666675,23.677966101694917,13.447058823529414,-5.478431372549018,1.4941176470588253,-13.88259109311743,10.475659175967975,60.603165892941206,34.54773581914844,208.529927799157,69.99593037576514,2206.0477616660382,1
-17.882988100484795,-43.374645222327345,-42.38557413463318,-124.22757177033492,125.96928707829403,-124.27951168950824,124.48115827052759,6.297520661157032,-13.44705882352941,14.552083333333343,11.83898305084746,-4.482352941176469,3.4862745098039234,0.4980392156862763,-0.514170040485852,6.88956032200247,32.2052123990688,34.54773581914844,208.529927799157,69.99593037576514,2206.0477616660382,1
-17.882988100484795,-43.374645222327345,-42.38557413463318,-124.22757177033492,125.96928707829403,-124.27951168950824,124.48115827052759,5.247933884297527,-14.44313725490196,37.04166666666668,13.991525423728817,10.458823529411767,3.4862745098039234,8.466666666666669,11.825910931174066,13.120242358331426,108.56350199827848,34.54773581914844,208.529927799157,69.99593037576514,2206.0477616660382,1
-17.715072719259588,-43.675023651844846,-42.63632998087246,-124.37948564593302,126.05012730744744,-124.39652193942186,124.38040460134867,5.247933884297527,-14.44313725490196,37.04166666666668,13.991525423728817,10.458823529411767,3.4862745098039234,8.466666666666669,11.825910931174066,13.120242358331426,108.56350199827848,34.675475450658965,216.01116674397412,70.2302797595501,2199.3720947299435,1
-17.715072719259588,-43.675023651844846,-42.63632998087246,-124.37948564593302,126.05012730744744,-124.39652193942186,124.38040460134867,8.39669421487604,21.415686274509806,41.01041666666668,9.686440677966104,4.482352941176472,7.4705882352941195,5.4784313725490215,2.5708502024291278,12.56393257318342,164.93170634819734,34.675475450658965,216.01116674397412,70.2302797595501,2199.3720947299435,1
-17.715072719259588,-43.675023651844846,-42.63632998087246,-124.37948564593302,126.05012730744744,-124.39652193942186,124.38040460134867,2.099173553719015,-2.490196078431371,26.458333333333343,5.381355932203392,-52.294117647058826,-14.44313725490196,-30.380392156862744,-1.5425101214575117,16.88615200974602,332.4427831889205,34.675475450658965,216.01116674397412,70.2302797595501,2199.3720947299435,1
-17.267298369325694,-43.675023651844846,-42.855741346331826,-124.56937799043061,126.1511775938892,-124.42577450190026,124.25446251487504,2.099173553719015,-2.490196078431371,26.458333333333343,5.381355932203392,-52.294117647058826,-14.44313725490196,-30.380392156862744,-1.5425101214575117,16.88615200974602,332.4427831889205,34.599354455834124,225.4679320134371,70.36671432953575,2203.6143668260997,1
-17.267298369325694,-43.675023651844846,-42.855741346331826,-124.56937799043061,126.1511775938892,-124.42577450190026,124.25446251487504,22.041322314049594,17.43137254901961,43.656250000000014,7.533898305084748,10.458823529411767,8.466666666666669,23.407843137254904,11.825910931174066,18.10276092908267,142.78164624834767,34.599354455834124,225.4679320134371,70.36671432953575,2203.6143668260997,1
-17.267298369325694,-43.675023651844846,-42.855741346331826,-124.56937799043061,126.1511775938892,-124.42577450190026,124.25446251487504,1.0495867768595115,-12.450980392156861,44.97916666666668,11.83898305084746,0.4980392156862763,2.4901960784313744,12.450980392156865,-4.627530364372491,11.29818286714719,211.58772565807706,34.599354455834124,225.4679320134371,70.36671432953575,2203.6143668260997,1
-17.379241956809167,-43.07426679280984,-42.793052384772004,-124.79724880382776,126.25222788033096,-124.45502706437867,124.15370884569616,1.0495867768595115,-12.450980392156861,44.97916666666668,11.83898305084746,0.4980392156862763,2.4901960784313744,12.450980392156865,-4.627530364372491,11.29818286714719,211.58772565807706,34.41552037813034,217.695857222402,70.22152266046987,2233.9021834419204,1
-17.379241956809167,-43.07426679280984,-42.793052384772004,-124.79724880382776,126.25222788033096,-124.45502706437867,124.15370884569616,3.1487603305785195,-26.396078431372548,6.614583333333343,6.45762711864407,-7.470588235294116,-1.4941176470588218,-7.470588235294116,-4.627530364372491,7.959984211993503,60.070903084177075,34.41552037813034,217.695857222402,70.22152266046987,2233.9021834419204,1
-17.379241956809167,-43.07426679280984,-42.793052384772004,-124.79724880382776,126.25222788033096,-124.45502706437867,124.15370884569616,20.991735537190088,19.423529411764708,35.718750000000014,3.2288135593220364,26.39607843137255,10.458823529411767,15.439215686274512,11.825910931174066,17.935357135813717,102.1608580081177,34.41552037813034,217.695857222402,70.22152266046987,2233.9021834419204,1
-16.791538122520937,-42.533585619678334,-42.82439686555192,-125.0630980861244,126.35327816677272,-124.39652193942186,124.1033320111067,20.991735537190088,19.423529411764708,35.718750000000014,3.2288135593220364,26.39607843137255,10.458823529411767,15.439215686274512,11.825910931174066,17.935357135813717,102.1608580081177,34.04984020258373,223.40788581020644,70.14036019045155,2262.4014962627657,1
-16.791538122520937,-42.533585619678334,-42.82439686555192,-125.0630980861244,126.35327816677272,-124.39652193942186,124.1033320111067,-7.347107438016522,-20.419607843137253,3.968750000000007,6.45762711864407,-12.450980392156861,-5.478431372549018,-8.466666666666665,-2.570850202429172,8.395002629199945,32.5596545460577,34.04984020258373,223.40788581020644,70.14036019045155,2262.4014962627657,1
-16.791538122520937,-42.533585619678334,-42.82439686555192,-125.0630980861244,126.35327816677272,-124.39652193942186,124.1033320111067,-3.148760330578506,-12.450980392156861,14.552083333333343,10.762711864406782,-3.48627450980392,-2.490196078431371,4.482352941176472,-8.740890688259132,7.514281267268299,22.23930871899686,34.04984020258373,223.40788581020644,70.14036019045155,2262.4014962627657,1
-16.87549581313354,-41.93282876064333,-42.7617079039921,-125.25299043062199,126.43411839592613,-124.30876425198664,124.07814359381199,-3.148760330578506,-12.450980392156861,14.552083333333343,10.762711864406782,-3.48627450980392,-2.490196078431371,4.482352941176472,-8.740890688259132,7.514281267268299,22.23930871899686,33.856677492589654,216.44215858159168,69.98250903175247,2291.2913457056557,1
-16.87549581313354,-41.93282876064333,-42.7617079039921,-125.25299043062199,126.43411839592613,-124.30876425198664,124.07814359381199,-1.0495867768594973,-8.466666666666665,-9.260416666666657,5.381355932203392,9.462745098039218,-1.4941176470588218,4.482352941176472,1.5425101214574677,5.142468981266024,12.883892181066452,33.856677492589654,216.44215858159168,69.98250903175247,2291.2913457056557,1
-16.87549581313354,-41.93282876064333,-42.7617079039921,-125.25299043062199,126.43411839592613,-124.30876425198664,124.07814359381199,15.74380165289257,8.466666666666669,34.39583333333334,12.915254237288138,-0.49803921568627274,8.466666666666669,13.447058823529414,2.5708502024291278,12.063021349811525,109.23745060311832,33.856677492589654,216.44215858159168,69.98250903175247,2291.2913457056557,1
-16.931467606875277,-41.99290444654683,-42.74603566360214,-125.40490430622009,126.47453851050284,-124.25025912702984,124.1033320111067,15.74380165289257,8.466666666666669,34.39583333333334,12.915254237288138,-0.49803921568627274,8.466666666666669,13.447058823529414,2.5708502024291278,12.063021349811525,109.23745060311832,33.89013590567475,215.83912450905547,70.04794813878969,2298.4362487496337,1
-16.931467606875277,-41.99290444654683,-42.74603566360214,-125.40490430622009,126.47453851050284,-124.25025912702984,124.1033320111067,39.884297520661164,60.26274509803922,22.489583333333343,5.381355932203392,-11.454901960784312,-10.458823529411763,-11.454901960784312,25.194331983805643,23.322617664877892,344.58727704274685,33.89013590567475,215.83912450905547,70.04794813878969,2298.4362487496337,1
-16.931467606875277,-41.99290444654683,-42.74603566360214,-125.40490430622009,126.47453851050284,-124.25025912702984,124.1033320111067,1.0495867768595115,-11.454901960784312,30.427083333333343,11.83898305084746,10.458823529411767,2.4901960784313744,-5.478431372549018,9.769230769230747,10.370904608930942,82.69702545420994,33.89013590567475,215.83912450905547,70.04794813878969,2298.4362487496337,1
-16.455707360070516,-42.59366130558183,-42.855741346331826,-125.67075358851673,126.55537873965625,-124.19175400207303,124.1033320111067,1.0495867768595115,-11.454901960784312,30.427083333333343,11.83898305084746,10.458823529411767,2.4901960784313744,-5.478431372549018,9.769230769230747,10.370904608930942,82.69702545420994,33.96837000399473,230.03718614686375,70.3733854134768,2293.366366801379,1
-16.455707360070516,-42.59366130558183,-42.855741346331826,-125.67075358851673,126.55537873965625,-124.19175400207303,124.1033320111067,-2.0991735537190017,5.4784313725490215,14.552083333333343,16.144067796610173,-0.49803921568627274,0.4980392156862763,-5.478431372549018,-5.655870445344151,6.300517038184657,35.9628345150735,33.96837000399473,230.03718614686375,70.3733854134768,2293.366366801379,1
-16.455707360070516,-42.59366130558183,-42.855741346331826,-125.67075358851673,126.55537873965625,-124.19175400207303,124.1033320111067,16.793388429752074,-8.466666666666665,7.105427357601002e-15,5.381355932203392,2.4901960784313744,0.4980392156862763,-2.490196078431371,19.024291497975685,6.8930167373933555,53.875108029791086,33.96837000399473,230.03718614686375,70.3733854134768,2293.366366801379,1
-16.25980608197444,-43.25449385052034,-42.855741346331826,-126.08851674641147,126.67663908338636,-124.19175400207303,124.1033320111067,16.793388429752074,-8.466666666666665,7.105427357601002e-15,5.381355932203392,2.4901960784313744,0.4980392156862763,-2.490196078431371,19.024291497975685,6.8930167373933555,53.875108029791086,34.123347092942204,239.36932397779452,70.73291731442121,2298.2215422461195,1
-16.25980608197444,-43.25449385052034,-42.855741346331826,-126.08851674641147,126.67663908338636,-124.19175400207303,124.1033320111067,15.74380165289257,21.415686274509806,33.07291666666668,4.305084745762715,-8.466666666666665,-2.490196078431371,8.466666666666669,19.024291497975685,14.123163781196519,104.94772449659891,34.123347092942204,239.36932397779452,70.73291731442121,2298.2215422461195,1
-16.25980608197444,-43.25449385052034,-42.855741346331826,-126.08851674641147,126.67663908338636,-124.19175400207303,124.1033320111067,2.099173553719015,0.4980392156862763,48.94791666666668,24.754237288135595,-0.49803921568627274,-3.48627450980392,-8.466666666666665,0.5141700404858076,11.158064644606277,300.2367282543728,34.123347092942204,239.36932397779452,70.73291731442121,2298.2215422461195,1
-16.455707360070516,-42.473509933774835,-42.73036342321219,-126.46830143540672,126.77768936982812,-124.19175400207303,124.12852042840144,2.099173553719015,0.4980392156862763,48.94791666666668,24.754237288135595,-0.49803921568627274,-3.48627450980392,-8.466666666666665,0.5141700404858076,11.158064644606277,300.2367282543728,33.88652690568585,227.89159595261316,70.55739159746459,2344.53887260863,1
-16.455707360070516,-42.473509933774835,-42.73036342321219,-126.46830143540672,126.77768936982812,-124.19175400207303,124.12852042840144,-3.148760330578506,-16.435294117647057,5.291666666666675,13.991525423728817,18.42745098039216,0.4980392156862763,-10.458823529411763,-8.740890688259132,9.624056369046299,41.20393836127066,33.88652690568585,227.89159595261316,70.55739159746459,2344.53887260863,1
-16.455707360070516,-42.473509933774835,-42.73036342321219,-126.46830143540672,126.77768936982812,-124.19175400207303,124.12852042840144,-11.54545454545454,-36.35686274509804,23.81250000000001,7.533898305084748,19.423529411764708,6.4745098039215705,-1.4941176470588218,-9.769230769230791,14.551262903451654,128.8375402774245,33.88652690568585,227.89159595261316,70.55739159746459,2344.53887260863,1
-17.93895989422653,-42.11305581835383,-42.38557413463318,-126.54425837320576,126.77768936982812,-124.33801681446505,124.20408568028562,-11.54545454545454,-36.35686274509804,23.81250000000001,7.533898305084748,19.423529411764708,6.4745098039215705,-1.4941176470588218,-9.769230769230791,14.551262903451654,128.8375402774245,34.14586328240451,197.01635463347816,70.34762944206425,2368.564393976485,1
-17.93895989422653,-42.11305581835383,-42.38557413463318,-126.54425837320576,126.77768936982812,-124.33801681446505,124.20408568028562,18.892561983471083,24.403921568627453,15.875000000000009,13.991525423728817,-14.44313725490196,-1.4941176470588218,-0.49803921568627274,-0.514170040485852,11.264059141745033,85.22506904544464,34.14586328240451,197.01635463347816,70.34762944206425,2368.564393976485,1
-17.93895989422653,-42.11305581835383,-42.38557413463318,-126.54425837320576,126.77768936982812,-124.33801681446505,124.20408568028562,-1.0495867768594973,-14.44313725490196,11.906250000000009,7.533898305084748,16.43529411764706,-5.478431372549018,-3.48627450980392,8.740890688259086,8.634220378138163,28.645078516142878,34.14586328240451,197.01635463347816,70.34762944206425,2368.564393976485,1
-17.687086822388718,-42.05298013245033,-42.66767446165237,-126.73415071770336,126.79789942711648,-124.45502706437867,124.3048393494645,-1.0495867768594973,-14.44313725490196,11.906250000000009,7.533898305084748,16.43529411764706,-5.478431372549018,-3.48627450980392,8.740890688259086,8.634220378138163,28.645078516142878,34.13591380549714,203.01739411976502,70.48493510393536,2373.07515515271,1
-17.687086822388718,-42.05298013245033,-42.66767446165237,-126.73415071770336,126.79789942711648,-124.45502706437867,124.3048393494645,7.347107438016536,-7.470588235294116,33.07291666666668,5.381355932203392,15.439215686274512,-8.466666666666665,3.4862745098039234,9.769230769230747,11.304169488019571,89.70547250248192,34.13591380549714,203.01739411976502,70.48493510393536,2373.07515515271,1
-17.687086822388718,-42.05298013245033,-42.66767446165237,-126.73415071770336,126.79789942711648,-124.45502706437867,124.3048393494645,-4.1983471074380105,6.4745098039215705,14.552083333333343,12.915254237288138,-1.4941176470588218,-1.4941176470588218,9.462745098039218,-1.5425101214575117,6.516710624449429,27.822833634135662,34.13591380549714,203.01739411976502,70.48493510393536,2373.07515515271,1
-17.435213750550904,-42.05298013245033,-42.84006910594187,-126.88606459330146,126.85852959898153,-124.42577450190026,124.25446251487504,-4.1983471074380105,6.4745098039215705,14.552083333333343,12.915254237288138,-1.4941176470588218,-1.4941176470588218,9.462745098039218,-1.5425101214575117,6.516710624449429,27.822833634135662,34.10942099631436,208.6767677190511,70.59303794389788,2376.8335142758933,1
-17.435213750550904,-42.05298013245033,-42.84006910594187,-126.88606459330146,126.85852959898153,-124.42577450190026,124.25446251487504,4.198347107438024,-21.415686274509802,-2.645833333333325,10.762711864406782,4.482352941176472,5.4784313725490215,2.4901960784313744,7.712550607287427,7.398263697391528,39.57270048995106,34.10942099631436,208.6767677190511,70.59303794389788,2376.8335142758933,1
-17.435213750550904,-42.05298013245033,-42.84006910594187,-126.88606459330146,126.85852959898153,-124.42577450190026,124.25446251487504,20.991735537190088,45.321568627450986,62.17708333333334,15.067796610169495,-10.458823529411763,-6.474509803921567,-11.454901960784312,9.769230769230747,22.714456271436536,405.4446365942701,34.10942099631436,208.6767677190511,70.59303794389788,2376.8335142758933,1
-18.13486117232261,-42.833964049195835,-42.82439686555192,-127.0,126.91915977084653,-124.48427962685707,124.15370884569616,20.991735537190088,45.321568627450986,62.17708333333334,15.067796610169495,-10.458823529411763,-6.474509803921567,-11.454901960784312,9.769230769230747,22.714456271436536,405.4446365942701,34.59774069569012,203.26982453343572,70.8861203049159,2361.575643708528,1
-18.13486117232261,-42.833964049195835,-42.82439686555192,-127.0,126.91915977084653,-124.48427962685707,124.15370884569616,3.1487603305785195,-12.450980392156861,-17.197916666666657,1.07627118644068,-12.450980392156861,1.4941176470588253,1.4941176470588253,-6.684210526315811,6.9996693485541295,39.153670277922586,34.59774069569012,203.26982453343572,70.8861203049159,2361.575643708528,1
-18.13486117232261,-42.833964049195835,-42.82439686555192,-127.0,126.91915977084653,-124.48427962685707,124.15370884569616,1.0495867768595115,-20.419607843137253,-11.906249999999993,8.610169491525426,10.458823529411767,6.4745098039215705,2.4901960784313744,-1.5425101214575117,7.8689567055930505,42.63980976189582,34.59774069569012,203.26982453343572,70.8861203049159,2361.575643708528,1
-18.94645218157779,-43.85525070955534,-42.87141358672178,-126.92404306220095,126.95957988542324,-124.63054243924911,123.95220150733836,1.0495867768595115,-20.419607843137253,-11.906249999999993,8.610169491525426,10.458823529411767,6.4745098039215705,2.4901960784313744,-1.5425101214575117,7.8689567055930505,42.63980976189582,35.22437215928497,198.96999297154525,71.21690245282603,2327.706120025568,1
-18.94645218157779,-43.85525070955534,-42.87141358672178,-126.92404306220095,126.95957988542324,-124.63054243924911,123.95220150733836,-2.0991735537190017,-5.478431372549018,46.30208333333334,5.381355932203392,-31.376470588235293,-8.466666666666665,-13.44705882352941,-1.5425101214575117,14.261718798961706,259.9226781828864,35.22437215928497,198.96999297154525,71.21690245282603,2327.706120025568,1
-18.94645218157779,-43.85525070955534,-42.87141358672178,-126.92404306220095,126.95957988542324,-124.63054243924911,123.95220150733836,28.33884297520662,52.294117647058826,80.69791666666669,17.22033898305085,10.458823529411767,-16.435294117647057,-2.490196078431371,9.769230769230747,27.21309509583799,700.4547231161138,35.22437215928497,198.96999297154525,71.21690245282603,2327.706120025568,1
-19.39422653151168,-44.75638599810785,-42.557968778922685,-126.8101076555024,126.99999999999994,-124.89381550155477,123.72550575168584,28.33884297520662,52.294117647058826,80.69791666666669,17.22033898305085,10.458823529411767,-16.435294117647057,-2.490196078431371,9.769230769230747,27.21309509583799,700.4547231161138,35.56952710284741,197.43852099719285,71.37482081084431,2306.0115302295444,1
-19.39422653151168,-44.75638599810785,-42.557968778922685,-126.8101076555024,126.99999999999994,-124.89381550155477,123.72550575168584,-5.247933884297513,-16.435294117647057,43.656250000000014,17.22033898305085,5.4784313725490215,-11.454901960784312,0.4980392156862763,-4.627530364372491,13.077339987298442,187.831920280358,35.56952710284741,197.43852099719285,71.37482081084431,2306.0115302295444,1
-19.39422653151168,-44.75638599810785,-42.557968778922685,-126.8101076555024,126.99999999999994,-124.89381550155477,123.72550575168584,2.099173553719015,-18.427450980392155,-3.968749999999993,5.381355932203392,-6.474509803921567,9.462745098039218,4.482352941176472,5.655870445344107,6.99402609434949,25.84277425467845,35.56952710284741,197.43852099719285,71.37482081084431,2306.0115302295444,1
-19.170339356544734,-44.51608325449385,-42.557968778922685,-126.6961722488038,126.99999999999994,-125.18634112633883,123.59956366521222,2.099173553719015,-18.427450980392155,-3.968749999999993,5.381355932203392,-6.474509803921567,9.462745098039218,4.482352941176472,5.655870445344107,6.99402609434949,25.84277425467845,35.414797129987086,198.8703593397242,71.25674142740678,2306.10642042521,1
-19.170339356544734,-44.51608325449385,-42.557968778922685,-126.6961722488038,126.99999999999994,-125.18634112633883,123.59956366521222,-13.644628099173548,-12.450980392156861,43.656250000000014,19.372881355932208,-4.482352941176469,7.4705882352941195,-2.490196078431371,-19.024291497975728,15.32402107501754,169.68577564329703,35.414797129987086,198.8703593397242,71.25674142740678,2306.10642042521,1
-19.170339356544734,-44.51608325449385,-42.557968778922685,-126.6961722488038,126.99999999999994,-125.18634112633883,123.59956366521222,14.694214876033065,-5.478431372549018,14.552083333333343,4.305084745762715,28.38823529411765,14.443137254901963,-28.388235294117646,-3.599190283400832,14.23107655677703,98.4834165864122,35.414797129987086,198.8703593397242,71.25674142740678,2306.10642042521,1
-18.582635522256503,-40.67123935666982,-42.448263096192996,-126.62021531100481,126.93936982813489,-125.27409881377405,123.67512891709639,14.694214876033065,-5.478431372549018,14.552083333333343,4.305084745762715,28.38823529411765,14.443137254901963,-28.388235294117646,-3.599190283400832,14.23107655677703,98.4834165864122,33.9007126583731,176.77206870372092,69.91323925462254,2412.5503034370413,1
-18.582635522256503,-40.67123935666982,-42.448263096192996,-126.62021531100481,126.93936982813489,-125.27409881377405,123.67512891709639,9.446280991735545,-15.439215686274508,27.78125000000001,5.381355932203392,12.450980392156865,-3.48627450980392,4.482352941176472,7.712550607287427,10.772532632579768,63.81924595664983,33.9007126583731,176.77206870372092,69.91323925462254,2412.5503034370413,1
-18.582635522256503,-40.67123935666982,-42.448263096192996,-126.62021531100481,126.93936982813489,-125.27409881377405,123.67512891709639,12.595041322314056,-19.423529411764704,-11.906249999999993,15.067796610169495,-9.462745098039214,-1.4941176470588218,14.443137254901963,6.684210526315767,11.384603483820502,30.413012722234903,33.9007126583731,176.77206870372092,69.91323925462254,2412.5503034370413,1
-17.743058616130455,-41.75260170293283,-42.10347380761399,-126.8480861244019,126.93936982813489,-125.4788667511229,123.82625942086473,12.595041322314056,-19.423529411764704,-11.906249999999993,15.067796610169495,-9.462745098039214,-1.4941176470588218,14.443137254901963,6.684210526315767,11.384603483820502,30.413012722234903,33.866378042225755,195.00184979538744,70.2347205449829,2403.8356494801687,1
-17.743058616130455,-41.75260170293283,-42.10347380761399,-126.8480861244019,126.93936982813489,-125.4788667511229,123.82625942086473,16.793388429752074,20.419607843137257,-1.3229166666666572,9.686440677966104,19.423529411764708,5.4784313725490215,-12.450980392156861,14.910931174089045,12.560778246010216,45.288543726987086,33.866378042225755,195.00184979538744,70.2347205449829,2403.8356494801687,1
-17.743058616130455,-41.75260170293283,-42.10347380761399,-126.8480861244019,126.93936982813489,-125.4788667511229,123.82625942086473,7.105427357601002e-15,0.4980392156862763,14.552083333333343,2.152542372881358,-11.454901960784312,1.4941176470588253,4.482352941176472,4.627530364372447,4.9076959794116295,28.416209156274252,33.866378042225755,195.00184979538744,70.2347205449829,2403.8356494801687,1
-17.743058616130455,-41.75260170293283,-42.10347380761399,-126.8480861244019,126.93936982813489,-125.4788667511229,123.82625942086473,3.1487603305785195,-22.41176470588235,33.07291666666668,16.144067796610173,11.454901960784316,0.4980392156862763,-9.462745098039214,-2.570850202429172,12.345505747084587,124.99631014971877,33.866378042225755,195.00184979538744,70.2347205449829,2403.8356494801687,1
-18.274790656676952,-39.58987701040681,-42.66767446165237,-124.07565789473682,124.89815404201141,-126.88298975008638,126.8992463308211,3.1487603305785195,-22.41176470588235,33.07291666666668,16.144067796610173,11.454901960784316,0.4980392156862763,-9.462745098039214,-2.570850202429172,12.345505747084587,124.99631014971877,33.51078070957871,176.4697539568144,68.77773645559866,2295.763295904545,1
-18.274790656676952,-39.58987701040681,-42.66767446165237,-124.07565789473682,124.89815404201141,-126.88298975008638,126.8992463308211,11.545454545454554,10.458823529411767,21.166666666666675,11.83898305084746,-1.4941176470588218,-0.49803921568627274,-5.478431372549018,9.769230769230747,9.031218349613164,43.75743991989683,33.51078070957871,176.4697539568144,68.77773645559866,2295.763295904545,1
-18.274790656676952,-39.58987701040681,-42.66767446165237,-124.07565789473682,124.89815404201141,-126.88298975008638,126.8992463308211,-8.396694214876026,-8.466666666666665,38.36458333333334,12.915254237288138,18.42745098039216,1.4941176470588253,-1.4941176470588218,-6.684210526315811,12.030386906623724,144.5295266619298,33.51078070957871,176.4697539568144,68.77773645559866,2295.763295904545,1
-18.77853680035258,-40.85146641438032,-42.63632998087246,-123.99970095693777,124.83752387014636,-126.94149487504319,126.94962316541056,-8.396694214876026,-8.466666666666665,38.36458333333334,12.915254237288138,18.42745098039216,1.4941176470588253,-1.4941176470588218,-6.684210526315811,12.030386906623724,144.5295266619298,34.088777731868454,176.5990425235458,69.16249911739685,2256.1354636806605,1
-18.77853680035258,-40.85146641438032,-42.63632998087246,-123.99970095693777,124.83752387014636,-126.94149487504319,126.94962316541056,19.942148760330586,10.458823529411767,31.75000000000001,16.144067796610173,-1.4941176470588218,0.4980392156862763,-2.490196078431371,21.080971659919005,12.982295585931002,125.79122794502385,34.088777731868454,176.5990425235458,69.16249911739685,2256.1354636806605,1
-18.77853680035258,-40.85146641438032,-42.63632998087246,-123.99970095693777,124.83752387014636,-126.94149487504319,126.94962316541056,-9.44628099173553,-9.462745098039214,51.593750000000014,15.067796610169495,10.458823529411767,3.4862745098039234,3.4862745098039234,0.5141700404858076,12.939514411181209,266.03437398588915,34.088777731868454,176.5990425235458,69.16249911739685,2256.1354636806605,1
-18.694579109739976,-40.85146641438032,-42.793052384772004,-123.99970095693777,124.817313812858,-127.0,127.00000000000001,-9.44628099173553,-9.462745098039214,51.593750000000014,15.067796610169495,10.458823529411767,3.4862745098039234,3.4862745098039234,0.5141700404858076,12.939514411181209,266.03437398588915,34.11303263629743,179.23897088306452,69.21473991869671,2251.9864059912998,1
-18.694579109739976,-40.85146641438032,-42.793052384772004,-123.99970095693777,124.817313812858,-127.0,127.00000000000001,9.446280991735545,-2.490196078431371,7.105427357601002e-15,4.305084745762715,1.4941176470588253,-0.49803921568627274,0.4980392156862763,1.5425101214574677,2.53428350197731,9.670589134811024,34.11303263629743,179.23897088306452,69.21473991869671,2251.9864059912998,1
-18.694579109739976,-40.85146641438032,-42.793052384772004,-123.99970095693777,124.817313812858,-127.0,127.00000000000001,11.545454545454554,-9.462745098039214,6.614583333333343,6.45762711864407,-5.478431372549018,-1.4941176470588218,-7.470588235294116,5.655870445344107,6.772427224464655,8.773245566590623,34.11303263629743,179.23897088306452,69.21473991869671,2251.9864059912998,1
-18.050903481710005,-41.81267738883633,-43.059480471401244,-123.99970095693777,124.83752387014636,-126.9707474375216,126.97481158270527,11.545454545454554,-9.462745098039214,6.614583333333343,6.45762711864407,-5.478431372549018,-1.4941176470588218,-7.470588235294116,5.655870445344107,6.772427224464655,8.773245566590623,34.307687113982524,198.6008900315661,69.62395293905844,2217.930108859604,1
-18.050903481710005,-41.81267738883633,-43.059480471401244,-123.99970095693777,124.83752387014636,-126.9707474375216,126.97481158270527,16.793388429752074,15.439215686274512,43.656250000000014,12.915254237288138,20.419607843137257,7.4705882352941195,-5.478431372549018,4.627530364372447,15.850033271083449,158.20973072946487,34.307687113982524,198.6008900315661,69.62395293905844,2217.930108859604,1
-18.050903481710005,-41.81267738883633,-43.059480471401244,-123.99970095693777,124.83752387014636,-126.9707474375216,126.97481158270527,10.495867768595048,-14.44313725490196,-17.197916666666657,11.83898305084746,-3.48627450980392,-14.44313725490196,6.4745098039215705,13.882591093117385,11.532802175344495,20.865291369715994,34.307687113982524,198.6008900315661,69.62395293905844,2217.930108859604,1
-18.078889378580875,-42.35335856196783,-43.16918615413093,-123.96172248803828,124.83752387014636,-126.9707474375216,126.94962316541056,10.495867768595048,-14.44313725490196,-17.197916666666657,11.83898305084746,-3.48627450980392,-14.44313725490196,6.4745098039215705,13.882591093117385,11.532802175344495,20.865291369715994,34.53381136489321,203.23973684675246,69.82808906804568,2198.0040941026386,1
-18.078889378580875,-42.35335856196783,-43.16918615413093,-123.96172248803828,124.83752387014636,-126.9707474375216,126.94962316541056,2.099173553719015,-14.44313725490196,-26.45833333333333,4.305084745762715,16.43529411764706,0.4980392156862763,0.4980392156862763,-3.599190283400832,8.542036465017183,90.20370780164205,34.53381136489321,203.23973684675246,69.82808906804568,2198.0040941026386,1
-18.078889378580875,-42.35335856196783,-43.16918615413093,-123.96172248803828,124.83752387014636,-126.9707474375216,126.94962316541056,30.43801652892563,30.380392156862747,34.39583333333334,12.915254237288138,2.4901960784313744,4.482352941176472,3.4862745098039234,19.024291497975685,17.201576410474665,176.0763876915616,34.53381136489321,203.23973684675246,69.82808906804568,2198.0040941026386,1
-18.16284706919348,-42.473509933774835,-43.29456407725056,-123.96172248803828,124.83752387014636,-126.94149487504319,126.94962316541056,30.43801652892563,30.380392156862747,34.39583333333334,12.915254237288138,2.4901960784313744,4.482352941176472,3.4862745098039234,19.024291497975685,17.201576410474665,176.0763876915616,34.64364036007296,203.88094309915323,69.90993216635455,2191.3655602110757,1
-18.16284706919348,-42.473509933774835,-43.29456407725056,-123.96172248803828,124.83752387014636,-126.94149487504319,126.94962316541056,-10.495867768595033,-9.462745098039214,33.07291666666668,8.610169491525426,-3.48627450980392,-3.48627450980392,6.4745098039215705,-3.599190283400832,9.835993516469575,96.12387724053426,34.64364036007296,203.88094309915323,69.90993216635455,2191.3655602110757,1
-18.16284706919348,-42.473509933774835,-43.29456407725056,-123.96172248803828,124.83752387014636,-126.94149487504319,126.94962316541056,12.595041322314056,1.4941176470588253,-9.260416666666657,4.305084745762715,-4.482352941176469,-2.490196078431371,2.4901960784313744,3.5991902834007874,5.089574470405282,14.767741463941135,34.64364036007296,203.88094309915323,69.90993216635455,2191.3655602110757,1
-18.61062141912737,-43.01419110690634,-43.40426975998025,-123.77183014354068,124.85773392743471,-126.88298975008638,126.74811582705276,12.595041322314056,1.4941176470588253,-9.260416666666657,4.305084745762715,-4.482352941176469,-2.490196078431371,2.4901960784313744,3.5991902834007874,5.089574470405282,14.767741463941135,35.009694095337984,201.73522881862425,70.06343033680909,2163.4821976886906,1
-18.61062141912737,-43.01419110690634,-43.40426975998025,-123.77183014354068,124.85773392743471,-126.88298975008638,126.74811582705276,7.347107438016536,17.43137254901961,25.135416666666675,1.07627118644068,-14.44313725490196,0.4980392156862763,-1.4941176470588218,-3.599190283400832,8.878081530148924,83.4652041625837,35.009694095337984,201.73522881862425,70.06343033680909,2163.4821976886906,1
-18.61062141912737,-43.01419110690634,-43.40426975998025,-123.77183014354068,124.85773392743471,-126.88298975008638,126.74811582705276,7.105427357601002e-15,-15.439215686274508,23.81250000000001,16.144067796610173,1.4941176470588253,4.482352941176472,3.4862745098039234,0.5141700404858076,8.171587327676217,80.9398718384158,35.009694095337984,201.73522881862425,70.06343033680909,2163.4821976886906,1
-18.47069193477303,-43.434720908230844,-43.513975442709935,-123.65789473684208,124.89815404201141,-126.79523206265117,126.54660848869496,7.105427357601002e-15,-15.439215686274508,23.81250000000001,16.144067796610173,1.4941176470588253,4.482352941176472,3.4862745098039234,0.5141700404858076,8.171587327676217,80.9398718384158,35.139796095237934,208.39584545463023,70.20219702926096,2143.1352833735295,1
-18.47069193477303,-43.434720908230844,-43.513975442709935,-123.65789473684208,124.89815404201141,-126.79523206265117,126.54660848869496,-2.0991735537190017,-12.450980392156861,1.322916666666675,1.07627118644068,-22.41176470588235,-5.478431372549018,-0.49803921568627274,-5.655870445344151,6.374180942305626,57.40539573094842,35.139796095237934,208.39584545463023,70.20219702926096,2143.1352833735295,1
-18.47069193477303,-43.434720908230844,-43.513975442709935,-123.65789473684208,124.89815404201141,-126.79523206265117,126.54660848869496,25.190082644628106,39.345098039215685,29.10416666666668,-2.152542372881353,3.4862745098039234,6.4745098039215705,0.4980392156862763,3.5991902834007874,13.731237942025547,227.59477099113525,35.139796095237934,208.39584545463023,70.20219702926096,2143.1352833735295,1
-18.890480387836053,-43.49479659413434,-43.46695872154007,-123.39204545454544,124.87794398472306,-126.76597950017276,126.34510115033719,25.190082644628106,39.345098039215685,29.10416666666668,-2.152542372881353,3.4862745098039234,6.4745098039215705,0.4980392156862763,3.5991902834007874,13.731237942025547,227.59477099113525,35.28407856783682,201.56273970228102,70.11793359007329,2128.5984399480076,1
-18.890480387836053,-43.49479659413434,-43.46695872154007,-123.39204545454544,124.87794398472306,-126.76597950017276,126.34510115033719,12.595041322314056,5.4784313725490215,25.135416666666675,22.601694915254242,23.407843137254904,0.4980392156862763,14.443137254901963,11.825910931174066,14.498189351975151,78.04652155608422,35.28407856783682,201.56273970228102,70.11793359007329,2128.5984399480076,1
-18.890480387836053,-43.49479659413434,-43.46695872154007,-123.39204545454544,124.87794398472306,-126.76597950017276,126.34510115033719,-2.0991735537190017,-19.423529411764704,34.39583333333334,12.915254237288138,1.4941176470588253,2.4901960784313744,4.482352941176472,-4.627530364372491,10.240998445893043,134.6388232844338,35.28407856783682,201.56273970228102,70.11793359007329,2128.5984399480076,1
-18.834508594094316,-43.91532639545885,-43.46695872154007,-123.16417464114835,124.89815404201141,-126.76597950017276,126.14359381197939,-2.0991735537190017,-19.423529411764704,34.39583333333334,12.915254237288138,1.4941176470588253,2.4901960784313744,4.482352941176472,-4.627530364372491,10.240998445893043,134.6388232844338,35.405597903697746,206.00100907289357,70.18215325271576,2105.3712011960006,1
-18.834508594094316,-43.91532639545885,-43.46695872154007,-123.16417464114835,124.89815404201141,-126.76597950017276,126.14359381197939,-2.0991735537190017,-25.4,-5.291666666666657,13.991525423728817,-0.49803921568627274,-4.482352941176469,-2.490196078431371,-0.514170040485852,6.845890489986806,75.02947069780896,35.405597903697746,206.00100907289357,70.18215325271576,2105.3712011960006,1
-18.834508594094316,-43.91532639545885,-43.46695872154007,-123.16417464114835,124.89815404201141,-126.76597950017276,126.14359381197939,14.694214876033065,-9.462745098039214,7.105427357601002e-15,12.915254237288138,5.4784313725490215,3.4862745098039234,-2.490196078431371,3.5991902834007874,6.515788306943191,27.70655385810064,35.405597903697746,206.00100907289357,70.18215325271576,2105.3712011960006,1
-18.554649625385633,-44.035477767265846,-43.52964768309989,-123.05023923444975,124.91836409929977,-126.73672693769436,125.94208647362159,14.694214876033065,-9.462745098039214,7.105427357601002e-15,12.915254237288138,5.4784313725490215,3.4862745098039234,-2.490196078431371,3.5991902834007874,6.515788306943191,27.70655385810064,35.37325835858379,212.2131658088188,70.20512156160515,2094.518812411105,1
-18.554649625385633,-44.035477767265846,-43.52964768309989,-123.05023923444975,124.91836409929977,-126.73672693769436,125.94208647362159,7.105427357601002e-15,-0.49803921568627274,-13.229166666666657,4.305084745762715,-0.49803921568627274,-2.490196078431371,-15.439215686274508,2.5708502024291278,4.878823976367116,36.39957608914834,35.37325835858379,212.2131658088188,70.20512156160515,2094.518812411105,1
-18.554649625385633,-44.035477767265846,-43.52964768309989,-123.05023923444975,124.91836409929977,-126.73672693769436,125.94208647362159,-3.148760330578506,2.4901960784313744,14.552083333333343,4.305084745762715,-31.376470588235293,-5.478431372549018,-10.458823529411763,-3.599190283400832,9.426130032712855,96.06207288309636,35.37325835858379,212.2131658088188,70.20512156160515,2094.518812411105,1
-18.582635522256503,-44.095553453169344,-43.576664404269756,-122.9363038277512,124.97899427116482,-126.70747437521595,125.71539071796907,-3.148760330578506,2.4901960784313744,14.552083333333343,4.305084745762715,-31.376470588235293,-5.478431372549018,-10.458823529411763,-3.599190283400832,9.426130032712855,96.06207288309636,35.41828445989854,212.64661782491243,70.2028405617301,2085.680922482865,1
-18.582635522256503,-44.095553453169344,-43.576664404269756,-122.9363038277512,124.97899427116482,-126.70747437521595,125.71539071796907,9.446280991735545,5.4784313725490215,39.687500000000014,12.915254237288138,2.4901960784313744,3.4862745098039234,-4.482352941176469,4.627530364372447,10.326727561919615,152.55388252380968,35.41828445989854,212.64661782491243,70.2028405617301,2085.680922482865,1
-18.582635522256503,-44.095553453169344,-43.576664404269756,-122.9363038277512,124.97899427116482,-126.70747437521595,125.71539071796907,-1.0495867768594973,-1.4941176470588218,11.906250000000009,10.762711864406782,-9.462745098039214,-1.4941176470588218,-1.4941176470588218,3.5991902834007874,5.157854620485344,22.151935995536352,35.41828445989854,212.64661782491243,70.2028405617301,2085.680922482865,1
-18.61062141912737,-44.15562913907285,-43.46695872154007,-122.82236842105266,125.01941438574153,-126.76597950017276,125.53907179690599,-1.0495867768594973,-1.4941176470588218,11.906250000000009,10.762711864406782,-9.462745098039214,-1.4941176470588218,-1.4941176470588218,3.5991902834007874,5.157854620485344,22.151935995536352,35.41106975991343,211.80986507456203,70.1483187605552,2081.0351974634114,1
-18.61062141912737,-44.15562913907285,-43.46695872154007,-122.82236842105266,125.01941438574153,-126.76597950017276,125.53907179690599,15.74380165289257,4.482352941176472,63.500000000000014,11.83898305084746,-3.48627450980392,-0.49803921568627274,-1.4941176470588218,-2.570850202429172,12.951802402486837,445.66008937047053,35.41106975991343,211.80986507456203,70.1483187605552,2081.0351974634114,1
-18.61062141912737,-44.15562913907285,-43.46695872154007,-122.82236842105266,125.01941438574153,-126.76597950017276,125.53907179690599,9.446280991735545,31.376470588235296,96.57291666666669,17.22033898305085,19.423529411764708,-1.4941176470588218,0.4980392156862763,4.627530364372447,22.582402983571328,1002.5760008477928,35.41106975991343,211.80986507456203,70.1483187605552,2081.0351974634114,1
-18.078889378580875,-44.035477767265846,-43.37292527920034,-122.89832535885165,125.08004455760658,-126.79523206265117,125.38794129313764,9.446280991735545,31.376470588235296,96.57291666666669,17.22033898305085,19.423529411764708,-1.4941176470588218,0.4980392156862763,4.627530364372447,22.582402983571328,1002.5760008477928,35.16243080834902,218.9952847868139,70.1022428017726,2090.6794939802894,1
-18.078889378580875,-44.035477767265846,-43.37292527920034,-122.89832535885165,125.08004455760658,-126.79523206265117,125.38794129313764,5.247933884297527,5.4784313725490215,7.937500000000009,5.381355932203392,-10.458823529411763,-6.474509803921567,-16.435294117647057,5.655870445344107,7.883714885671806,15.101037876682446,35.16243080834902,218.9952847868139,70.1022428017726,2090.6794939802894,1
-18.078889378580875,-44.035477767265846,-43.37292527920034,-122.89832535885165,125.08004455760658,-126.79523206265117,125.38794129313764,15.74380165289257,8.466666666666669,-19.843749999999993,9.686440677966104,-5.478431372549018,-4.482352941176469,-4.482352941176469,5.655870445344107,9.229958337221426,32.54304161748144,35.16243080834902,218.9952847868139,70.1022428017726,2090.6794939802894,1
-17.827016306743058,-43.85525070955534,-43.419942000370206,-122.9742822966507,125.14067472947164,-126.82448462512957,125.26199920666402,15.74380165289257,8.466666666666669,-19.843749999999993,9.686440677966104,-5.478431372549018,-4.482352941176469,-4.482352941176469,5.655870445344107,9.229958337221426,32.54304161748144,35.03406967222287,222.10938755992566,70.08315833552543,2098.1506188214144,1
-17.827016306743058,-43.85525070955534,-43.419942000370206,-122.9742822966507,125.14067472947164,-126.82448462512957,125.26199920666402,5.247933884297527,-9.462745098039214,7.937500000000009,3.2288135593220364,-27.392156862745097,-9.462745098039214,12.450980392156865,0.5141700404858076,9.462130616885721,67.06046536390605,35.03406967222287,222.10938755992566,70.08315833552543,2098.1506188214144,1
-17.827016306743058,-43.85525070955534,-43.419942000370206,-122.9742822966507,125.14067472947164,-126.82448462512957,125.26199920666402,-5.247933884297513,-35.36078431372549,-29.104166666666657,6.45762711864407,2.4901960784313744,6.4745098039215705,-1.4941176470588218,-9.769230769230791,12.049820785247036,164.41207230337264,35.03406967222287,222.10938755992566,70.08315833552543,2098.1506188214144,1
-17.519171441163508,-43.31456953642384,-43.34158079842043,-123.20215311004785,125.26193507320176,-126.79523206265117,125.16124553748513,-5.247933884297513,-35.36078431372549,-29.104166666666657,6.45762711864407,2.4901960784313744,6.4745098039215705,-1.4941176470588218,-9.769230769230791,12.049820785247036,164.41207230337264,34.72510725866926,222.03335291916414,69.95276781496405,2126.622958130284,1
-17.519171441163508,-43.31456953642384,-43.34158079842043,-123.20215311004785,125.26193507320176,-126.79523206265117,125.16124553748513,8.39669421487604,-17.431372549019606,17.197916666666675,11.83898305084746,19.423529411764708,3.4862745098039234,14.443137254901963,8.740890688259086,12.619849793267433,30.091028307297716,34.72510725866926,222.03335291916414,69.95276781496405,2126.622958130284,1
-17.519171441163508,-43.31456953642384,-43.34158079842043,-123.20215311004785,125.26193507320176,-126.79523206265117,125.16124553748513,19.942148760330586,7.4705882352941195,58.20833333333334,18.29661016949153,-2.490196078431371,-6.474509803921567,-12.450980392156861,9.769230769230747,16.887824692773766,313.35302176097895,34.72510725866926,222.03335291916414,69.95276781496405,2126.622958130284,1
-17.04341119435875,-43.19441816461684,-43.31023631764052,-123.39204545454544,125.34277530235516,-126.73672693769436,125.08568028560096,19.942148760330586,7.4705882352941195,58.20833333333334,18.29661016949153,-2.490196078431371,-6.474509803921567,-12.450980392156861,9.769230769230747,16.887824692773766,313.35302176097895,34.51602189220537,228.9724469100206,69.96556664560093,2140.7948319030897,1
-17.04341119435875,-43.19441816461684,-43.31023631764052,-123.39204545454544,125.34277530235516,-126.73672693769436,125.08568028560096,7.105427357601002e-15,-16.435294117647057,-13.229166666666657,11.83898305084746,2.4901960784313744,1.4941176470588253,-2.490196078431371,4.627530364372447,6.5756855004318995,39.3461032194358,34.51602189220537,228.9724469100206,69.96556664560093,2140.7948319030897,1
-17.04341119435875,-43.19441816461684,-43.31023631764052,-123.39204545454544,125.34277530235516,-126.73672693769436,125.08568028560096,-2.0991735537190017,-11.454901960784312,10.583333333333343,7.533898305084748,2.4901960784313744,2.4901960784313744,7.4705882352941195,-9.769230769230791,6.736439789288633,15.000088542828413,34.51602189220537,228.9724469100206,69.96556664560093,2140.7948319030897,1
-17.127368884971354,-43.49479659413434,-43.45128648115011,-123.58193779904309,125.44382558879693,-126.67822181273755,124.98492661642207,-2.0991735537190017,-11.454901960784312,10.583333333333343,7.533898305084748,2.4901960784313744,2.4901960784313744,7.4705882352941195,-9.769230769230791,6.736439789288633,15.000088542828413,34.6911506534186,231.36529578971295,70.17600695810918,2139.1455600224444,1
-17.127368884971354,-43.49479659413434,-43.45128648115011,-123.58193779904309,125.44382558879693,-126.67822181273755,124.98492661642207,10.495867768595048,0.4980392156862763,15.875000000000009,2.152542372881358,-14.44313725490196,4.482352941176472,0.4980392156862763,2.5708502024291278,6.376978621419566,39.612358816543974,34.6911506534186,231.36529578971295,70.17600695810918,2139.1455600224444,1
-17.127368884971354,-43.49479659413434,-43.45128648115011,-123.58193779904309,125.44382558879693,-126.67822181273755,124.98492661642207,-1.0495867768594973,-7.470588235294116,22.489583333333343,4.305084745762715,-13.44705882352941,-11.454901960784312,-0.49803921568627274,13.882591093117385,9.32467927304588,55.80597632156416,34.6911506534186,231.36529578971295,70.17600695810918,2139.1455600224444,1
-16.987439400617014,-43.97540208136235,-43.419942000370206,-123.77183014354068,125.54487587523869,-126.61971668778072,124.85898452994844,-1.0495867768594973,-7.470588235294116,22.489583333333343,4.305084745762715,-13.44705882352941,-11.454901960784312,-0.49803921568627274,13.882591093117385,9.32467927304588,55.80597632156416,34.794261160783186,237.88930987413966,70.38905807509109,2137.3673992594263,1
-16.987439400617014,-43.97540208136235,-43.419942000370206,-123.77183014354068,125.54487587523869,-126.61971668778072,124.85898452994844,6.297520661157032,-0.49803921568627274,39.687500000000014,16.144067796610173,-3.48627450980392,4.482352941176472,-1.4941176470588218,5.655870445344107,9.718217902104602,169.5074533074383,34.794261160783186,237.88930987413966,70.38905807509109,2137.3673992594263,1
-16.987439400617014,-43.97540208136235,-43.419942000370206,-123.77183014354068,125.54487587523869,-126.61971668778072,124.85898452994844,11.545454545454554,1.4941176470588253,48.94791666666668,10.762711864406782,-0.49803921568627274,4.482352941176472,-6.474509803921567,3.5991902834007874,10.975536620971493,251.25402382687795,34.794261160783186,237.88930987413966,70.38905807509109,2137.3673992594263,1
-17.155354781842224,-44.095553453169344,-43.52964768309989,-123.84778708133973,125.64592616168045,-126.50270643786709,124.68266560888536,11.545454545454554,1.4941176470588253,48.94791666666668,10.762711864406782,-0.49803921568627274,4.482352941176472,-6.474509803921567,3.5991902834007874,10.975536620971493,251.25402382687795,34.926851972703815,236.94964663875064,70.49099607253632,2135.2904224029926,1
-17.155354781842224,-44.095553453169344,-43.52964768309989,-123.84778708133973,125.64592616168045,-126.50270643786709,124.68266560888536,15.74380165289257,26.39607843137255,54.23958333333334,12.915254237288138,2.4901960784313744,-0.49803921568627274,8.466666666666669,13.882591093117385,16.82902633859854,294.069616951256,34.926851972703815,236.94964663875064,70.49099607253632,2135.2904224029926,1
-17.155354781842224,-44.095553453169344,-43.52964768309989,-123.84778708133973,125.64592616168045,-126.50270643786709,124.68266560888536,4.198347107438024,8.466666666666669,17.197916666666675,13.991525423728817,20.419607843137257,-0.49803921568627274,1.4941176470588253,-0.514170040485852,8.347548826358548,63.29918555279698,34.926851972703815,236.94964663875064,70.49099607253632,2135.2904224029926,1
-17.379241956809167,-43.795175023651844,-43.45128648115011,-123.92374401913878,125.74697644812215,-126.41494875043188,124.53153510511702,4.198347107438024,8.466666666666669,17.197916666666675,13.991525423728817,20.419607843137257,-0.49803921568627274,1.4941176470588253,-0.514170040485852,8.347548826358548,63.29918555279698,34.875234487203706,229.61188080013216,70.39006850798025,2149.420375132927,1
-17.379241956809167,-43.795175023651844,-43.45128648115011,-123.92374401913878,125.74697644812215,-126.41494875043188,124.53153510511702,4.198347107438024,-22.41176470588235,31.75000000000001,11.83898305084746,2.4901960784313744,0.4980392156862763,2.4901960784313744,2.5708502024291278,9.78104705489325,131.72082146658502,34.875234487203706,229.61188080013216,70.39006850798025,2149.420375132927,1
-17.379241956809167,-43.795175023651844,-43.45128648115011,-123.92374401913878,125.74697644812215,-126.41494875043188,124.53153510511702,14.694214876033065,5.4784313725490215,-7.937499999999993,8.610169491525426,-1.4941176470588218,-4.482352941176469,7.4705882352941195,13.882591093117385,8.006245707094289,20.161746134739026,34.875234487203706,229.61188080013216,70.39006850798025,2149.420375132927,1
-17.519171441163508,-43.25449385052034,-43.52964768309989,-123.96172248803828,125.80760661998721,-126.29793850051826,124.40559301864339,14.694214876033065,5.4784313725490215,-7.937499999999993,8.610169491525426,-1.4941176470588218,-4.482352941176469,7.4705882352941195,13.882591093117385,8.006245707094289,20.161746134739026,34.76777099159458,223.15456724624403,70.24862134055283,2163.841853567897,1
-17.519171441163508,-43.25449385052034,-43.52964768309989,-123.96172248803828,125.80760661998721,-126.29793850051826,124.40559301864339,2.099173553719015,-4.482352941176469,30.427083333333343,13.991525423728817,2.4901960784313744,2.4901960784313744,-14.44313725490196,-3.599190283400832,9.2528568683904,99.3008367167353,34.76777099159458,223.15456724624403,70.24862134055283,2163.841853567897,1
-17.519171441163508,-43.25449385052034,-43.52964768309989,-123.96172248803828,125.80760661998721,-126.29793850051826,124.40559301864339,5.247933884297527,-0.49803921568627274,41.01041666666668,5.381355932203392,4.482352941176472,-0.49803921568627274,2.4901960784313744,-3.599190283400832,7.900940527193603,182.6711440568266,34.76777099159458,223.15456724624403,70.24862134055283,2163.841853567897,1
-18.13486117232261,-43.13434247871334,-43.608008885049664,-123.84778708133973,125.82781667727556,-126.18092825060464,124.25446251487504,5.247933884297527,-0.49803921568627274,41.01041666666668,5.381355932203392,4.482352941176472,-0.49803921568627274,2.4901960784313744,-3.599190283400832,7.900940527193603,182.6711440568266,34.95907084536187,212.34661330791383,70.19671281503425,2158.884417412593,1
-18.13486117232261,-43.13434247871334,-43.608008885049664,-123.84778708133973,125.82781667727556,-126.18092825060464,124.25446251487504,12.595041322314056,31.376470588235296,43.656250000000014,16.144067796610173,-3.48627450980392,-0.49803921568627274,3.4862745098039234,0.5141700404858076,13.969573497867433,253.32083223957008,34.95907084536187,212.34661330791383,70.19671281503425,2158.884417412593,1
-18.13486117232261,-43.13434247871334,-43.608008885049664,-123.84778708133973,125.82781667727556,-126.18092825060464,124.25446251487504,9.446280991735545,-2.490196078431371,17.197916666666675,8.610169491525426,4.482352941176472,4.482352941176472,1.4941176470588253,1.5425101214574677,6.218237109903532,28.685653741001783,34.95907084536187,212.34661330791383,70.19671281503425,2158.884417412593,1
-18.498677831643896,-42.533585619678334,-43.5609921638798,-123.65789473684208,125.80760661998721,-126.06391800069102,124.12852042840144,9.446280991735545,-2.490196078431371,17.197916666666675,8.610169491525426,4.482352941176472,4.482352941176472,1.4941176470588253,1.5425101214574677,6.218237109903532,28.685653741001783,34.86441853840068,201.14199271236396,69.9174908401334,2166.2871492878025,1
-18.498677831643896,-42.533585619678334,-43.5609921638798,-123.65789473684208,125.80760661998721,-126.06391800069102,124.12852042840144,-5.247933884297513,-11.454901960784312,3.968750000000007,6.45762711864407,-5.478431372549018,-6.474509803921567,0.4980392156862763,-3.599190283400832,5.39742295491045,9.754974054117975,34.86441853840068,201.14199271236396,69.9174908401334,2166.2871492878025,1
-18.498677831643896,-42.533585619678334,-43.5609921638798,-123.65789473684208,125.80760661998721,-126.06391800069102,124.12852042840144,7.347107438016536,6.4745098039215705,-5.291666666666657,4.305084745762715,-5.478431372549018,0.4980392156862763,-6.474509803921567,-9.769230769230791,5.704822476969391,7.099022874845093,34.86441853840068,201.14199271236396,69.9174908401334,2166.2871492878025,1
-18.498677831643896,-42.173131504257334,-43.43561424076016,-123.50598086124404,125.80760661998721,-125.94690775077738,124.02776675922253,7.347107438016536,6.4745098039215705,-5.291666666666657,4.305084745762715,-5.478431372549018,0.4980392156862763,-6.474509803921567,-9.769230769230791,5.704822476969391,7.099022874845093,34.7024745255538,197.32073613816598,69.70490886875383,2171.3149763208266,1
-18.498677831643896,-42.173131504257334,-43.43561424076016,-123.50598086124404,125.80760661998721,-125.94690775077738,124.02776675922253,20.991735537190088,18.42745098039216,13.229166666666675,6.45762711864407,14.443137254901963,3.4862745098039234,-0.49803921568627274,15.939271255060707,11.684087817293232,54.26559702037538,34.7024745255538,197.32073613816598,69.70490886875383,2171.3149763208266,1
-18.498677831643896,-42.173131504257334,-43.43561424076016,-123.50598086124404,125.80760661998721,-125.94690775077738,124.02776675922253,-3.148760330578506,-19.423529411764704,23.81250000000001,8.610169491525426,-6.474509803921567,0.4980392156862763,-4.482352941176469,-7.71255060728747,9.270301475242555,66.08467011964522,34.7024745255538,197.32073613816598,69.70490886875383,2171.3149763208266,1
-18.91846628470692,-41.33207190160832,-43.34158079842043,-123.2401315789474,125.74697644812215,-125.85915006334217,123.97738992463307,-3.148760330578506,-19.423529411764704,23.81250000000001,8.610169491525426,-6.474509803921567,0.4980392156862763,-4.482352941176469,-7.71255060728747,9.270301475242555,66.08467011964522,34.53070632824522,183.81606088438747,69.30459475965871,2182.7911304902254,1
-18.91846628470692,-41.33207190160832,-43.34158079842043,-123.2401315789474,125.74697644812215,-125.85915006334217,123.97738992463307,5.247933884297527,-12.450980392156861,30.427083333333343,16.144067796610173,-10.458823529411763,-5.478431372549018,-0.49803921568627274,9.769230769230747,11.309323786659462,82.98367495556148,34.53070632824522,183.81606088438747,69.30459475965871,2182.7911304902254,1
-18.91846628470692,-41.33207190160832,-43.34158079842043,-123.2401315789474,125.74697644812215,-125.85915006334217,123.97738992463307,13.644628099173561,2.4901960784313744,27.78125000000001,13.991525423728817,0.4980392156862763,4.482352941176472,6.4745098039215705,13.882591093117385,10.405636581904433,78.38636427588763,34.53070632824522,183.81606088438747,69.30459475965871,2182.7911304902254,1
-18.582635522256503,-40.61116367076632,-43.29456407725056,-123.05023923444975,125.7065563335455,-125.74213981342854,123.97738992463307,13.644628099173561,2.4901960784313744,27.78125000000001,13.991525423728817,0.4980392156862763,4.482352941176472,6.4745098039215705,13.882591093117385,10.405636581904433,78.38636427588763,34.162787756757794,183.85601717305664,68.98532232748887,2194.0615895528176,1
-18.582635522256503,-40.61116367076632,-43.29456407725056,-123.05023923444975,125.7065563335455,-125.74213981342854,123.97738992463307,6.297520661157032,4.482352941176472,85.98958333333334,11.83898305084746,-4.482352941176469,-3.48627450980392,-11.454901960784312,1.5425101214574677,16.19680993996706,808.7523874695914,34.162787756757794,183.85601717305664,68.98532232748887,2194.0615895528176,1
-18.582635522256503,-40.61116367076632,-43.29456407725056,-123.05023923444975,125.7065563335455,-125.74213981342854,123.97738992463307,3.1487603305785195,0.4980392156862763,11.906250000000009,13.991525423728817,-10.458823529411763,-4.482352941176469,1.4941176470588253,7.712550607287427,6.711552461866013,25.50273110856731,34.162787756757794,183.85601717305664,68.98532232748887,2194.0615895528176,1
-18.498677831643896,-40.43093661305582,-43.37292527920034,-122.89832535885165,125.64592616168045,-125.59587700103651,124.00257834192782,3.1487603305785195,0.4980392156862763,11.906250000000009,13.991525423728817,-10.458823529411763,-4.482352941176469,1.4941176470588253,7.712550607287427,6.711552461866013,25.50273110856731,34.10084657463335,184.7345764414686,68.9007290837026,2188.9691269484238,1
-18.498677831643896,-40.43093661305582,-43.37292527920034,-122.89832535885165,125.64592616168045,-125.59587700103651,124.00257834192782,-12.595041322314042,-15.439215686274508,29.10416666666668,11.83898305084746,1.4941176470588253,2.4901960784313744,3.4862745098039234,-2.570850202429172,9.877355645478248,90.13115605038664,34.10084657463335,184.7345764414686,68.9007290837026,2188.9691269484238,1
-18.498677831643896,-40.43093661305582,-43.37292527920034,-122.89832535885165,125.64592616168045,-125.59587700103651,124.00257834192782,2.099173553719015,9.462745098039218,14.552083333333343,7.533898305084748,18.42745098039216,2.4901960784313744,-6.474509803921567,-4.627530364372491,8.20844843966174,33.22130881944433,34.10084657463335,184.7345764414686,68.9007290837026,2188.9691269484238,1
-18.47069193477303,-40.37086092715232,-43.45128648115011,-122.7843899521531,125.64592616168045,-125.42036162616608,123.97738992463307,2.099173553719015,9.462745098039218,14.552083333333343,7.533898305084748,18.42745098039216,2.4901960784313744,-6.474509803921567,-4.627530364372491,8.20844843966174,33.22130881944433,34.09761311435849,185.52275456316306,68.86884578681851,2182.5366823815393,1
-18.47069193477303,-40.37086092715232,-43.45128648115011,-122.7843899521531,125.64592616168045,-125.42036162616608,123.97738992463307,19.942148760330586,10.458823529411767,-14.552083333333329,7.533898305084748,-15.439215686274508,0.4980392156862763,4.482352941176472,15.939271255060707,11.105729128294799,43.09579487729543,34.09761311435849,185.52275456316306,68.86884578681851,2182.5366823815393,1
-18.47069193477303,-40.37086092715232,-43.45128648115011,-122.7843899521531,125.64592616168045,-125.42036162616608,123.97738992463307,7.347107438016536,2.4901960784313744,41.01041666666668,13.991525423728817,-0.49803921568627274,4.482352941176472,1.4941176470588253,7.712550607287427,9.87828825225655,177.02983543953624,34.09761311435849,185.52275456316306,68.86884578681851,2182.5366823815393,1
-18.974438078448657,-40.07048249763481,-43.419942000370206,-122.59449760765551,125.58529598981539,-125.27409881377405,123.97738992463307,7.347107438016536,2.4901960784313744,41.01041666666668,13.991525423728817,-0.49803921568627274,4.482352941176472,1.4941176470588253,7.712550607287427,9.87828825225655,177.02983543953624,34.15495419215122,175.64077184890363,68.69497403522018,2181.6737007417505,1
-18.974438078448657,-40.07048249763481,-43.419942000370206,-122.59449760765551,125.58529598981539,-125.27409881377405,123.97738992463307,7.347107438016536,-1.4941176470588218,13.229166666666675,5.381355932203392,-0.49803921568627274,0.4980392156862763,-2.490196078431371,-6.684210526315811,4.7027790900081445,19.232714463863147,34.15495419215122,175.64077184890363,68.69497403522018,2181.6737007417505,1
-18.974438078448657,-40.07048249763481,-43.419942000370206,-122.59449760765551,125.58529598981539,-125.27409881377405,123.97738992463307,9.446280991735545,-1.4941176470588218,30.427083333333343,8.610169491525426,-15.439215686274508,-0.49803921568627274,0.4980392156862763,15.939271255060707,10.294027104545112,105.22813057172006,34.15495419215122,175.64077184890363,68.69497403522018,2181.6737007417505,1
-19.114367562802997,-40.25070955534532,-43.37292527920034,-122.32864832535887,125.52466581795034,-125.15708856386041,123.95220150733836,9.446280991735545,-1.4941176470588218,30.427083333333343,8.610169491525426,-15.439215686274508,-0.49803921568627274,0.4980392156862763,15.939271255060707,10.294027104545112,105.22813057172006,34.24600079911622,174.16180105529605,68.65076105330151,2163.4237442503454,1
-19.114367562802997,-40.25070955534532,-43.37292527920034,-122.32864832535887,125.52466581795034,-125.15708856386041,123.95220150733836,7.105427357601002e-15,1.4941176470588253,9.260416666666675,3.2288135593220364,-9.462745098039214,-1.4941176470588218,2.4901960784313744,-8.740890688259132,4.521412173104511,15.606825134065586,34.24600079911622,174.16180105529605,68.65076105330151,2163.4237442503454,1
-19.114367562802997,-40.25070955534532,-43.37292527920034,-122.32864832535887,125.52466581795034,-125.15708856386041,123.95220150733836,-8.396694214876026,-34.364705882352936,1.322916666666675,9.686440677966104,-0.49803921568627274,-0.49803921568627274,-2.490196078431371,-6.684210526315811,7.9926553097476845,126.76146391711745,34.24600079911622,174.16180105529605,68.65076105330151,2163.4237442503454,1
-19.05839576906126,-40.55108798486282,-43.263219596470655,-122.17673444976077,125.46403564608528,-125.0985834389036,123.95220150733836,-8.396694214876026,-34.364705882352936,1.322916666666675,9.686440677966104,-0.49803921568627274,-0.49803921568627274,-2.490196078431371,-6.684210526315811,7.9926553097476845,126.76146391711745,34.290901116798246,175.8608288462975,68.66368067703142,2149.5741075319384,1
-19.05839576906126,-40.55108798486282,-43.263219596470655,-122.17673444976077,125.46403564608528,-125.0985834389036,123.95220150733836,25.190082644628106,23.407843137254904,22.489583333333343,6.45762711864407,6.4745098039215705,2.4901960784313744,-2.490196078431371,8.740890688259086,12.217616110362977,95.21616333907868,34.290901116798246,175.8608288462975,68.66368067703142,2149.5741075319384,1
-19.05839576906126,-40.55108798486282,-43.263219596470655,-122.17673444976077,125.46403564608528,-125.0985834389036,123.95220150733836,1.0495867768595115,8.466666666666669,48.94791666666668,22.601694915254242,3.4862745098039234,-1.4941176470588218,7.4705882352941195,-2.570850202429172,12.010961952504141,271.74586236362387,34.290901116798246,175.8608288462975,68.66368067703142,2149.5741075319384,1
-18.694579109739976,-40.73131504257332,-43.2475473560807,-122.10077751196172,125.46403564608528,-125.01082575146839,123.92701309004364,1.0495867768595115,8.466666666666669,48.94791666666668,22.601694915254242,3.4862745098039234,-1.4941176470588218,7.4705882352941195,-2.570850202429172,12.010961952504141,271.74586236362387,34.224480502798,182.46623422246384,68.69321330353858,2140.858792271515,1
-18.694579109739976,-40.73131504257332,-43.2475473560807,-122.10077751196172,125.46403564608528,-125.01082575146839,123.92701309004364,3.1487603305785195,-11.454901960784312,-11.906249999999993,5.381355932203392,-12.450980392156861,-12.450980392156861,-20.419607843137253,-0.514170040485852,9.71587586143788,40.56284028471292,34.224480502798,182.46623422246384,68.69321330353858,2140.858792271515,1
-18.694579109739976,-40.73131504257332,-43.2475473560807,-122.10077751196172,125.46403564608528,-125.01082575146839,123.92701309004364,13.644628099173561,-9.462745098039214,7.105427357601002e-15,11.83898305084746,6.4745098039215705,-1.4941176470588218,-7.470588235294116,3.5991902834007874,6.748095277216942,23.500306498866447,34.224480502798,182.46623422246384,68.69321330353858,2140.858792271515,1
-18.890480387836053,-41.09176915799432,-43.32590855803048,-121.91088516746413,125.42361553150857,-124.92306806403317,123.87663625545419,13.644628099173561,-9.462745098039214,7.105427357601002e-15,11.83898305084746,6.4745098039215705,-1.4941176470588218,-7.470588235294116,3.5991902834007874,6.748095277216942,23.500306498866447,34.43605270128695,182.49645862924677,68.77618762782964,2118.719906686028,1
-18.890480387836053,-41.09176915799432,-43.32590855803048,-121.91088516746413,125.42361553150857,-124.92306806403317,123.87663625545419,7.105427357601002e-15,10.458823529411767,47.625000000000014,13.991525423728817,15.439215686274512,7.4705882352941195,10.458823529411767,-5.655870445344151,13.887480856183144,209.4211902511309,34.43605270128695,182.49645862924677,68.77618762782964,2118.719906686028,1
-18.890480387836053,-41.09176915799432,-43.32590855803048,-121.91088516746413,125.42361553150857,-124.92306806403317,123.87663625545419,16.793388429752074,35.36078431372549,25.135416666666675,3.2288135593220364,-1.4941176470588218,-0.49803921568627274,-7.470588235294116,-2.570850202429172,11.568999783741832,166.9689588886661,34.43605270128695,182.49645862924677,68.77618762782964,2118.719906686028,1
-18.554649625385633,-41.39214758751183,-43.2475473560807,-121.91088516746413,125.44382558879693,-124.92306806403317,123.85144783815947,16.793388429752074,35.36078431372549,25.135416666666675,3.2288135593220364,-1.4941176470588218,-0.49803921568627274,-7.470588235294116,-2.570850202429172,11.568999783741832,166.9689588886661,34.39811485632605,189.1221699683149,68.85019337035222,2112.4383875663757,1
-18.554649625385633,-41.39214758751183,-43.2475473560807,-121.91088516746413,125.44382558879693,-124.92306806403317,123.85144783815947,10.495867768595048,9.462745098039218,44.97916666666668,15.067796610169495,-6.474509803921567,-0.49803921568627274,0.4980392156862763,10.797570850202407,12.28421690362087,200.2368191178306,34.39811485632605,189.1221699683149,68.85019337035222,2112.4383875663757,1
-18.554649625385633,-41.39214758751183,-43.2475473560807,-121.91088516746413,125.44382558879693,-124.92306806403317,123.85144783815947,1.0495867768595115,24.403921568627453,52.91666666666668,4.305084745762715,2.4901960784313744,1.4941176470588253,6.4745098039215705,1.5425101214574677,11.8345741760982,335.3764710572556,34.39811485632605,189.1221699683149,68.85019337035222,2112.4383875663757,1
-18.050903481710005,-41.69252601702933,-43.09082495218115,-121.91088516746413,125.44382558879693,-124.89381550155477,123.82625942086473,1.0495867768595115,24.403921568627453,52.91666666666668,4.305084745762715,2.4901960784313744,1.4941176470588253,6.4745098039215705,1.5425101214574677,11.8345741760982,335.3764710572556,34.2780848169735,197.9798705436545,68.89807871222487,2108.257046173505,1
-18.050903481710005,-41.69252601702933,-43.09082495218115,-121.91088516746413,125.44382558879693,-124.89381550155477,123.82625942086473,8.39669421487604,1.4941176470588253,17.197916666666675,9.686440677966104,10.458823529411767,4.482352941176472,1.4941176470588253,2.5708502024291278,6.97266419083048,30.244014347609845,34.2780848169735,197.9798705436545,68.89807871222487,2108.257046173505,1
-17.9669457910974,-42.05298013245033,-43.15351391374097,-121.91088516746413,125.46403564608528,-124.89381550155477,123.80107100357002,8.39669421487604,1.4941176470588253,17.197916666666675,9.686440677966104,10.458823529411767,4.482352941176472,1.4941176470588253,2.5708502024291278,6.97266419083048,30.244014347609845,34.391146612429566,202.61857311552663,69.03912640455181,2096.8699496636373,1
-17.9669457910974,-42.05298013245033,-43.15351391374097,-121.91088516746413,125.46403564608528,-124.89381550155477,123.80107100357002,9.446280991735545,-7.470588235294116,15.875000000000009,8.610169491525426,-0.49803921568627274,3.4862745098039234,1.4941176470588253,5.655870445344107,6.567042567056028,24.686797609223934,34.391146612429566,202.61857311552663,69.03912640455181,2096.8699496636373,1
-17.9669457910974,-42.05298013245033,-43.15351391374097,-121.91088516746413,125.46403564608528,-124.89381550155477,123.80107100357002,-2.0991735537190017,-12.450980392156861,22.489583333333343,12.915254237288138,16.43529411764706,-8.466666666666665,-1.4941176470588218,2.5708502024291278,9.865240018787377,57.72570047336588,34.391146612429566,202.61857311552663,69.03912640455181,2096.8699496636373,1
-17.827016306743058,-42.413434247871336,-43.09082495218115,-121.91088516746413,125.46403564608528,-124.86456293907636,123.7758825862753,-2.0991735537190017,-12.450980392156861,22.489583333333343,12.915254237288138,16.43529411764706,-8.466666666666665,-1.4941176470588218,2.5708502024291278,9.865240018787377,57.72570047336588,34.44375850226518,207.2018054359054,69.13838145583888,2088.817575536698,1
-17.827016306743058,-42.413434247871336,-43.09082495218115,-121.91088516746413,125.46403564608528,-124.86456293907636,123.7758825862753,24.140495867768603,17.43137254901961,33.07291666666668,4.305084745762715,-7.470588235294116,-1.4941176470588218,3.4862745098039234,15.939271255060707,13.417515184554397,126.14095794223469,34.44375850226518,207.2018054359054,69.13838145583888,2088.817575536698,1
-17.827016306743058,-42.413434247871336,-43.09082495218115,-121.91088516746413,125.46403564608528,-124.86456293907636,123.7758825862753,2.099173553719015,-8.466666666666665,27.78125000000001,4.305084745762715,-1.4941176470588218,5.4784313725490215,2.4901960784313744,1.5425101214574677,6.707178773205637,78.19408790695296,34.44375850226518,207.2018054359054,69.13838145583888,2088.817575536698,1
-17.49118554429264,-42.413434247871336,-42.88708582711174,-122.02482057416267,125.54487587523869,-124.80605781411955,123.67512891709639,2.099173553719015,-8.466666666666665,27.78125000000001,4.305084745762715,-1.4941176470588218,5.4784313725490215,2.4901960784313744,1.5425101214574677,6.707178773205637,78.19408790695296,34.2639018730919,211.04909623940637,69.10844688304859,2100.163039917853,1
-17.49118554429264,-42.413434247871336,-42.88708582711174,-122.02482057416267,125.54487587523869,-124.80605781411955,123.67512891709639,6.297520661157032,-26.396078431372548,-9.260416666666657,15.067796610169495,5.4784313725490215,-5.478431372549018,3.4862745098039234,14.910931174089045,10.796985099794593,58.73183366295426,34.2639018730919,211.04909623940637,69.10844688304859,2100.163039917853,1
-17.49118554429264,-42.413434247871336,-42.88708582711174,-122.02482057416267,125.54487587523869,-124.80605781411955,123.67512891709639,14.694214876033065,-8.466666666666665,-14.552083333333329,19.372881355932208,10.458823529411767,4.482352941176472,-4.482352941176469,11.825910931174066,11.041910821863006,26.958262086423236,34.2639018730919,211.04909623940637,69.10844688304859,2100.163039917853,1
-17.18334067871309,-42.413434247871336,-42.74603566360214,-122.13875598086122,125.60550604710375,-124.77680525164115,123.62475208250696,14.694214876033065,-8.466666666666665,-14.552083333333329,19.372881355932208,10.458823529411767,4.482352941176472,-4.482352941176469,11.825910931174066,11.041910821863006,26.958262086423236,34.11427019672886,215.01993668344974,69.09940863077823,2109.906931417503,1
-17.18334067871309,-42.413434247871336,-42.74603566360214,-122.13875598086122,125.60550604710375,-124.77680525164115,123.62475208250696,7.105427357601002e-15,5.4784313725490215,43.656250000000014,10.762711864406782,-12.450980392156861,-6.474509803921567,-15.439215686274508,3.5991902834007874,12.232661175338693,186.12615531824957,34.11427019672886,215.01993668344974,69.09940863077823,2109.906931417503,1
-17.18334067871309,-42.413434247871336,-42.74603566360214,-122.13875598086122,125.60550604710375,-124.77680525164115,123.62475208250696,-7.347107438016522,-3.48627450980392,30.427083333333343,1.07627118644068,-3.48627450980392,1.4941176470588253,5.4784313725490215,-1.5425101214575117,6.7922587648079675,95.82866710834921,34.11427019672886,215.01993668344974,69.09940863077823,2109.906931417503,1
-17.519171441163508,-43.13434247871334,-42.77738014438205,-122.17673444976077,125.64592616168045,-124.74755268916273,123.54918683062279,-7.347107438016522,-3.48627450980392,30.427083333333343,1.07627118644068,-3.48627450980392,1.4941176470588253,5.4784313725490215,-1.5425101214575117,6.7922587648079675,95.82866710834921,34.4769646880863,215.70691938106802,69.36281902428539,2092.014102453983,1
-17.519171441163508,-43.13434247871334,-42.77738014438205,-122.17673444976077,125.64592616168045,-124.74755268916273,123.54918683062279,19.942148760330586,-21.415686274509802,7.937500000000009,17.22033898305085,10.458823529411767,0.4980392156862763,11.454901960784316,25.194331983805643,14.265221338447407,66.21382196721893,34.4769646880863,215.70691938106802,69.36281902428539,2092.014102453983,1
-17.519171441163508,-43.13434247871334,-42.77738014438205,-122.17673444976077,125.64592616168045,-124.74755268916273,123.54918683062279,12.595041322314056,14.443137254901963,41.01041666666668,8.610169491525426,12.450980392156865,-3.48627450980392,-6.474509803921567,1.5425101214574677,12.576629945343493,152.76217780338803,34.4769646880863,215.70691938106802,69.36281902428539,2092.014102453983,1
