Gyro 0,Gyro 1,Gyro 2,Orientation 0,Orientation 1,Orientation 2,Orientation 3,Sensor 0,Sensor 1,Sensor 2,Sensor 3,Sensor 4,Sensor 5,Sensor 6,Sensor 7,Sensor Mean,Sensor Variance,Gyro Mean,Gyro Variance,Orientation Mean,Orientation Variance,Label
-19.072134879419508,-84.75684089791906,-46.13361169102297,-120.75140267587398,127.00000000000001,47.61098852603706,-99.83040112596757,9.15315315315317,-0.49803921568627274,4.863829787234049,-10.762711864406782,-18.427450980392155,-10.0,-10.49586776859504,-23.142222222222223,10.917909373961212,50.74453443284718,49.98752915612051,1089.7596610550158,83.88061842160533,1392.529507235726,1
-18.945649854165186,-85.04817302965755,-46.13361169102297,-120.68562796719897,126.92481314289945,47.61098852603706,-99.56228008444748,9.15315315315317,-0.49803921568627274,4.863829787234049,-10.762711864406782,-18.427450980392155,-10.0,-10.49586776859504,-23.142222222222223,10.917909373961212,50.74453443284718,50.04247819161523,1103.8453205312155,83.95580422929316,1390.3957349078098,1
-18.945649854165186,-85.04817302965755,-46.13361169102297,-120.68562796719897,126.92481314289945,47.61098852603706,-99.56228008444748,5.7207207207207365,-10.458823529411763,-3.7829787234042493,-12.915254237288138,-5.478431372549018,-6.0,-10.49586776859504,-22.013333333333335,9.608176210662785,35.065035631745005,50.04247819161523,1103.8453205312155,83.95580422929316,1390.3957349078098,1
-18.945649854165186,-85.04817302965755,-46.13361169102297,-120.68562796719897,126.92481314289945,47.61098852603706,-99.56228008444748,14.87387387387389,-5.478431372549018,-7.025531914893611,-9.686440677966104,15.439215686274512,7.0,-6.297520661157023,-12.982222222222223,9.847904551117047,16.30671642049327,50.04247819161523,1103.8453205312155,83.95580422929316,1390.3957349078098,1
-18.945649854165186,-85.04817302965755,-46.13361169102297,-120.68562796719897,126.92481314289945,47.61098852603706,-99.56228008444748,10.297297297297312,-5.478431372549018,-8.1063829787234,-10.762711864406782,1.4941176470588253,0.0,-8.396694214876032,-20.884444444444444,8.177509977419477,41.645782742106526,50.04247819161523,1103.8453205312155,83.95580422929316,1390.3957349078098,1
-18.92758056484314,-84.7984597738817,-46.15254995526395,-120.61985325852396,126.84962628579886,47.61098852603706,-99.20478536242081,10.297297297297312,-5.478431372549018,-8.1063829787234,-10.762711864406782,1.4941176470588253,0.0,-8.396694214876032,-20.884444444444444,8.177509977419477,41.645782742106526,49.959530097996264,1095.6130052983058,83.8569543292232,1387.009639691671,1
-18.92758056484314,-84.7984597738817,-46.15254995526395,-120.61985325852396,126.84962628579886,47.61098852603706,-99.20478536242081,10.297297297297312,-10.458823529411763,-1.6212765957446749,-5.381355932203392,2.4901960784313744,2.0,-5.2479338842975185,-23.142222222222223,7.5798881924510315,51.52507808321632,49.959530097996264,1095.6130052983058,83.8569543292232,1387.009639691671,1
-18.92758056484314,-84.7984597738817,-46.15254995526395,-120.61985325852396,126.84962628579886,47.61098852603706,-99.20478536242081,11.441441441441459,-4.482352941176469,16.753191489361708,-4.305084745762714,-0.49803921568627274,1.0,-8.396694214876032,-15.24,7.764600506038082,38.842742649455296,49.959530097996264,1095.6130052983058,83.8569543292232,1387.009639691671,1
-19.144412036707692,-84.67360314599378,-46.05785863405906,-120.53215364695727,126.73684600014802,47.582965578111185,-98.57916959887393,11.441441441441459,-4.482352941176469,16.753191489361708,-4.305084745762714,-0.49803921568627274,1.0,-8.396694214876032,-15.24,7.764600506038082,38.842742649455296,49.95862460558684,1084.9307032328065,83.75453847567003,1387.2386643182267,1
-19.144412036707692,-84.67360314599378,-46.05785863405906,-120.53215364695727,126.73684600014802,47.582965578111185,-98.57916959887393,13.729729729729746,18.42745098039216,-4.863829787234037,-11.83898305084746,-3.48627450980392,-1.0,-7.347107438016527,-16.36888888888889,9.632783048114092,40.66361929537171,49.95862460558684,1084.9307032328065,83.75453847567003,1387.2386643182267,1
-19.144412036707692,-84.67360314599378,-46.05785863405906,-120.53215364695727,126.73684600014802,47.582965578111185,-98.57916959887393,3.4324324324324476,-18.427450980392155,-15.672340425531909,-10.762711864406782,6.4745098039215705,2.0,-8.396694214876032,-20.884444444444444,10.756323020750667,48.54380777234623,49.95862460558684,1084.9307032328065,83.75453847567003,1387.2386643182267,1
-19.216689193995876,-84.92331640176963,-45.98210557709514,-120.42252913249892,126.66165914304746,47.49889673433361,-98.04292751583387,3.4324324324324476,-18.427450980392155,-15.672340425531909,-10.762711864406782,6.4745098039215705,2.0,-8.396694214876032,-20.884444444444444,10.756323020750667,48.54380777234623,50.04070372428688,1091.6943789456295,83.7759837037879,1386.331444016872,1
-19.216689193995876,-84.92331640176963,-45.98210557709514,-120.42252913249892,126.66165914304746,47.49889673433361,-98.04292751583387,9.15315315315317,-13.44705882352941,21.07659574468086,-7.5338983050847474,-3.48627450980392,-6.0,-10.49586776859504,-17.497777777777777,11.086328260328116,35.26032835323316,50.04070372428688,1091.6943789456295,83.7759837037879,1386.331444016872,1
-19.216689193995876,-84.92331640176963,-45.98210557709514,-120.42252913249892,126.66165914304746,47.49889673433361,-98.04292751583387,12.585585585585601,1.4941176470588253,-11.34893617021276,1.0762711864406764,-11.454901960784312,-3.0,-7.347107438016527,-14.111111111111112,7.802253887401227,28.12899451099995,50.04070372428688,1091.6943789456295,83.7759837037879,1386.331444016872,1
-18.855303407554956,-85.0065541536949,-46.03892036981808,-120.40060422960725,126.62406571449718,47.49889673433361,-97.86418015482047,12.585585585585601,1.4941176470588253,-11.34893617021276,1.0762711864406764,-11.454901960784312,-3.0,-7.347107438016527,-14.111111111111112,7.802253887401227,28.12899451099995,49.96692597702265,1105.5689148573433,83.81535958437341,1383.4792149922932,1
-18.855303407554956,-85.0065541536949,-46.03892036981808,-120.40060422960725,126.62406571449718,47.49889673433361,-97.86418015482047,24.027027027027046,11.454901960784316,1.6212765957446869,-13.991525423728817,-8.466666666666665,-1.0,-5.2479338842975185,-6.20888888888889,9.002277555892242,56.764524908261215,49.96692597702265,1105.5689148573433,83.81535958437341,1383.4792149922932,1
-18.855303407554956,-85.0065541536949,-46.03892036981808,-120.40060422960725,126.62406571449718,47.49889673433361,-97.86418015482047,20.59459459459461,6.4745098039215705,-4.863829787234037,-13.991525423728817,-2.490196078431371,-9.0,-5.2479338842975185,-14.111111111111112,9.59671258541488,37.50949019649297,49.96692597702265,1105.5689148573433,83.81535958437341,1383.4792149922932,1
-19.144412036707692,-85.21464853350811,-46.07679689830003,-120.2909797151489,126.56767557167173,47.49889673433361,-97.5066854327938,20.59459459459461,6.4745098039215705,-4.863829787234037,-13.991525423728817,-2.490196078431371,-9.0,-5.2479338842975185,-14.111111111111112,9.59671258541488,37.50949019649297,50.145285822838616,1103.7334892826043,83.86080838231901,1378.310895159395,1
-19.144412036707692,-85.21464853350811,-46.07679689830003,-120.2909797151489,126.56767557167173,47.49889673433361,-97.5066854327938,14.87387387387389,3.4862745098039234,-7.025531914893611,-11.83898305084746,12.450980392156865,-1.0,-8.396694214876032,-18.62666666666667,9.712375577889807,34.53543356946496,50.145285822838616,1103.7334892826043,83.86080838231901,1378.310895159395,1
-19.144412036707692,-85.21464853350811,-46.07679689830003,-120.2909797151489,126.56767557167173,47.49889673433361,-97.5066854327938,11.441441441441459,-10.458823529411763,-18.91489361702127,-18.29661016949153,2.4901960784313744,5.0,-8.396694214876032,-17.497777777777777,11.562054603556401,38.7516628967982,50.145285822838616,1103.7334892826043,83.86080838231901,1378.310895159395,1
-19.5419364017927,-85.13141078158283,-46.07679689830003,-120.18135520069055,126.53008214312145,47.386804942630164,-96.97044334975362,11.441441441441459,-10.458823529411763,-18.91489361702127,-18.29661016949153,2.4901960784313744,5.0,-8.396694214876032,-17.497777777777777,11.562054603556401,38.7516628967982,50.25004802722518,1088.5568060930927,83.79652096019113,1374.2078384245401,1
-19.5419364017927,-85.13141078158283,-46.07679689830003,-120.18135520069055,126.53008214312145,47.386804942630164,-96.97044334975362,20.59459459459461,1.4941176470588253,-10.268085106382973,-16.144067796610173,-10.458823529411763,-5.0,-7.347107438016527,-14.111111111111112,10.677238402898247,38.27104080701214,50.25004802722518,1088.5568060930927,83.79652096019113,1374.2078384245401,1
-19.5419364017927,-85.13141078158283,-46.07679689830003,-120.18135520069055,126.53008214312145,47.386804942630164,-96.97044334975362,-1.1441441441441285,-5.478431372549018,27.56170212765958,-6.45762711864407,1.4941176470588253,0.0,-11.545454545454543,-28.78666666666667,10.308517952772103,135.2497707463971,50.25004802722518,1088.5568060930927,83.79652096019113,1374.2078384245401,1
-19.234758483317922,-84.96493527773227,-46.0199821055771,-120.09365558912387,126.45489528602089,47.30273609885259,-96.43420126671356,-1.1441441441441285,-5.478431372549018,27.56170212765958,-6.45762711864407,1.4941176470588253,0.0,-11.545454545454543,-28.78666666666667,10.308517952772103,135.2497707463971,50.07322528887576,1092.4356205834592,83.69285765747775,1372.9409119407392,1
-19.234758483317922,-84.96493527773227,-46.0199821055771,-120.09365558912387,126.45489528602089,47.30273609885259,-96.43420126671356,18.306306306306322,7.4705882352941195,-11.34893617021276,-13.991525423728817,1.4941176470588253,3.0,-5.2479338842975185,-10.724444444444446,8.947981513917851,32.67822798455715,50.07322528887576,1092.4356205834592,83.69285765747775,1372.9409119407392,1
-19.234758483317922,-84.96493527773227,-46.0199821055771,-120.09365558912387,126.45489528602089,47.30273609885259,-96.43420126671356,9.15315315315317,-10.458823529411763,2.702127659574474,-3.2288135593220364,20.419607843137257,2.0,-6.297520661157023,-15.24,8.687505800719466,42.8555182569845,50.07322528887576,1092.4356205834592,83.69285765747775,1372.9409119407392,1
-18.855303407554956,-84.88169752580698,-46.0199821055771,-120.04980578334053,126.39850514319546,47.30273609885259,-96.16608022519347,9.15315315315317,-10.458823529411763,2.702127659574474,-3.2288135593220364,20.419607843137257,2.0,-6.297520661157023,-15.24,8.687505800719466,42.8555182569845,49.91899434631301,1101.2729024047428,83.65049513824154,1371.240592929546,1
-18.855303407554956,-84.88169752580698,-46.0199821055771,-120.04980578334053,126.39850514319546,47.30273609885259,-96.16608022519347,21.738738738738753,23.407843137254904,5.944680851063836,-11.83898305084746,-6.474509803921567,2.0,-6.297520661157023,-18.62666666666667,12.041117863706276,66.94617598818385,49.91899434631301,1101.2729024047428,83.65049513824154,1371.240592929546,1
-18.855303407554956,-84.88169752580698,-46.0199821055771,-120.04980578334053,126.39850514319546,47.30273609885259,-96.16608022519347,20.59459459459461,7.4705882352941195,-30.80425531914893,-16.144067796610173,-3.48627450980392,1.0,-7.347107438016527,-11.853333333333335,12.337527653350202,97.05699798328733,49.91899434631301,1101.2729024047428,83.65049513824154,1371.240592929546,1
-18.764956960944726,-84.92331640176963,-46.09573516254101,-120.00595597755719,126.30452157181973,47.30273609885259,-95.80858550316668,20.59459459459461,7.4705882352941195,-30.80425531914893,-16.144067796610173,-3.48627450980392,1.0,-7.347107438016527,-11.853333333333335,12.337527653350202,97.05699798328733,49.928002841751784,1105.246837649189,83.67500251395595,1366.848900902994,1
-18.764956960944726,-84.92331640176963,-46.09573516254101,-120.00595597755719,126.30452157181973,47.30273609885259,-95.80858550316668,21.738738738738753,-9.462745098039214,-8.1063829787234,-24.754237288135595,-1.4941176470588218,-4.0,5.247933884297524,-5.080000000000002,9.985519454374163,73.49954612348526,49.928002841751784,1105.246837649189,83.67500251395595,1366.848900902994,1
-18.764956960944726,-84.92331640176963,-46.09573516254101,-120.00595597755719,126.30452157181973,47.30273609885259,-95.80858550316668,18.306306306306322,-10.458823529411763,-21.076595744680844,-9.686440677966104,5.4784313725490215,-3.0,-10.49586776859504,-16.36888888888889,11.858919286049748,39.229014614879034,49.928002841751784,1105.246837649189,83.67500251395595,1366.848900902994,1
-18.511986910436082,-84.88169752580698,-46.15254995526395,-119.96210617177384,126.22933471471917,47.41482789055604,-95.80858550316668,18.306306306306322,-10.458823529411763,-21.076595744680844,-9.686440677966104,5.4784313725490215,-3.0,-10.49586776859504,-16.36888888888889,11.858919286049748,39.229014614879034,49.84874479716901,1111.4810140240136,83.66545121761493,1363.0720885311766,1
-18.511986910436082,-84.88169752580698,-46.15254995526395,-119.96210617177384,126.22933471471917,47.41482789055604,-95.80858550316668,11.441441441441459,-20.419607843137253,-19.995744680851057,-6.45762711864407,3.4862745098039234,0.0,-6.297520661157023,-20.884444444444444,11.122832587434903,69.66162544490587,49.84874479716901,1111.4810140240136,83.66545121761493,1363.0720885311766,1
-18.511986910436082,-84.88169752580698,-46.15254995526395,-119.96210617177384,126.22933471471917,47.41482789055604,-95.80858550316668,17.16216216216218,10.458823529411767,10.268085106382985,-10.762711864406782,-4.482352941176469,1.0,-7.347107438016527,-16.36888888888889,9.7312664913057,30.089708140177585,49.84874479716901,1111.4810140240136,83.66545121761493,1363.0720885311766,1
-18.493917621114036,-84.7984597738817,-46.34193259767373,-119.9182563659905,126.13535114334347,47.52691968225949,-95.7192118226601,17.16216216216218,10.458823529411767,10.268085106382985,-10.762711864406782,-4.482352941176469,1.0,-7.347107438016527,-16.36888888888889,9.7312664913057,30.089708140177585,49.87810333088982,1108.4514551128766,83.68621624584864,1354.2966690642822,1
-18.493917621114036,-84.7984597738817,-46.34193259767373,-119.9182563659905,126.13535114334347,47.52691968225949,-95.7192118226601,1.1441441441441604,-27.392156862745097,-5.944680851063824,2.1525423728813546,16.43529411764706,3.0,-8.396694214876032,-26.52888888888889,11.374300181530803,115.71709538542905,49.87810333088982,1108.4514551128766,83.68621624584864,1354.2966690642822,1
-18.493917621114036,-84.7984597738817,-46.34193259767373,-119.9182563659905,126.13535114334347,47.52691968225949,-95.7192118226601,21.738738738738753,13.447058823529414,-8.1063829787234,-13.991525423728817,-13.44705882352941,-1.0,-4.198347107438014,-12.982222222222223,11.113916764738754,42.10097401028747,49.87810333088982,1108.4514551128766,83.68621624584864,1354.2966690642822,1
-18.16867041331721,-84.63198427003114,-46.417685654637644,-119.94018126888217,126.0225708576926,47.72308031774051,-95.89795918367338,21.738738738738753,13.447058823529414,-8.1063829787234,-13.991525423728817,-13.44705882352941,-1.0,-4.198347107438014,-12.982222222222223,11.113916764738754,42.10097401028747,49.73944677932866,1112.6185949311468,83.66328373118365,1352.093125887124,1
-18.16867041331721,-84.63198427003114,-46.417685654637644,-119.94018126888217,126.0225708576926,47.72308031774051,-95.89795918367338,1.1441441441441604,3.4862745098039234,23.238297872340432,-15.067796610169495,2.4901960784313744,3.0,-15.74380165289256,-12.982222222222223,9.644091636250522,66.86551305485501,49.73944677932866,1112.6185949311468,83.66328373118365,1352.093125887124,1
-18.16867041331721,-84.63198427003114,-46.417685654637644,-119.94018126888217,126.0225708576926,47.72308031774051,-95.89795918367338,11.441441441441459,0.4980392156862763,5.944680851063836,3.228813559322031,-4.482352941176469,-12.0,-4.198347107438014,-17.497777777777777,7.411431611738233,32.19633970581147,49.73944677932866,1112.6185949311468,83.66328373118365,1352.093125887124,1
-18.060254677384933,-84.7984597738817,-46.436623918878624,-119.89633146309883,125.89099385776662,47.91924095322153,-95.98733286418008,11.441441441441459,0.4980392156862763,5.944680851063836,3.228813559322031,-4.482352941176469,-12.0,-4.198347107438014,-17.497777777777777,7.411431611738233,32.19633970581147,49.76511279004842,1121.8061334996428,83.71047171861971,1349.9699466268853,1
-18.060254677384933,-84.7984597738817,-46.436623918878624,-119.89633146309883,125.89099385776662,47.91924095322153,-95.98733286418008,4.576576576576592,-13.44705882352941,-0.5404255319148876,-8.610169491525426,-4.482352941176469,-7.0,-14.694214876033056,-25.4,9.84384978009448,61.593704765835106,49.76511279004842,1121.8061334996428,83.71047171861971,1349.9699466268853,1
-18.060254677384933,-84.7984597738817,-46.436623918878624,-119.89633146309883,125.89099385776662,47.91924095322153,-95.98733286418008,10.297297297297312,-4.482352941176469,-0.5404255319148876,-17.22033898305085,-0.49803921568627274,2.0,-6.297520661157023,-18.62666666666667,7.495330162118686,52.05395438582419,49.76511279004842,1121.8061334996428,83.71047171861971,1349.9699466268853,1
-18.222878281283347,-84.75684089791906,-46.436623918878624,-119.87440656020716,125.7594168578406,48.08737864077668,-96.07670654468677,10.297297297297312,-4.482352941176469,-0.5404255319148876,-17.22033898305085,-0.49803921568627274,2.0,-6.297520661157023,-18.62666666666667,7.495330162118686,52.05395438582419,49.80544769936034,1115.203775615924,83.68929045900161,1349.1317277734784,1
-18.222878281283347,-84.75684089791906,-46.436623918878624,-119.87440656020716,125.7594168578406,48.08737864077668,-96.07670654468677,19.450450450450468,7.4705882352941195,5.944680851063836,-4.305084745762714,3.4862745098039234,2.0,-3.1487603305785106,-23.142222222222223,8.618507668146975,65.05779313550451,49.80544769936034,1115.203775615924,83.68929045900161,1349.1317277734784,1
-18.222878281283347,-84.75684089791906,-46.436623918878624,-119.87440656020716,125.7594168578406,48.08737864077668,-96.07670654468677,26.31531531531533,13.447058823529414,-10.268085106382973,-11.83898305084746,-4.482352941176469,0.0,-9.446280991735534,1.6933333333333316,9.686426195290064,68.64151047508142,49.80544769936034,1115.203775615924,83.68929045900161,1349.1317277734784,1
-18.56619477840222,-84.88169752580698,-46.34193259767373,-119.78670694864049,125.62783985791462,48.17144748455431,-95.7192118226601,26.31531531531533,13.447058823529414,-10.268085106382973,-11.83898305084746,-4.482352941176469,0.0,-9.446280991735534,1.6933333333333316,9.686426195290064,68.64151047508142,49.92994163396097,1109.0918327936213,83.67011235737374,1349.6346738313816,1
-18.56619477840222,-84.88169752580698,-46.34193259767373,-119.78670694864049,125.62783985791462,48.17144748455431,-95.7192118226601,17.16216216216218,9.462745098039218,-13.510638297872335,-20.449152542372886,24.403921568627453,1.0,-6.297520661157023,-14.111111111111112,13.299656430167776,57.86789481421505,49.92994163396097,1109.0918327936213,83.67011235737374,1349.6346738313816,1
-18.56619477840222,-84.88169752580698,-46.34193259767373,-119.78670694864049,125.62783985791462,48.17144748455431,-95.7192118226601,6.864864864864881,-18.427450980392155,-12.429787234042546,-12.915254237288138,-11.454901960784312,-11.0,-10.49586776859504,-29.915555555555557,14.187960325190328,50.70477996801613,49.92994163396097,1109.0918327936213,83.67011235737374,1349.6346738313816,1
-18.65654122501245,-85.0065541536949,-46.379809126155685,-119.67708243418213,125.49626285798861,48.2835392762577,-95.6298381421534,6.864864864864881,-18.427450980392155,-12.429787234042546,-12.915254237288138,-11.454901960784312,-11.0,-10.49586776859504,-29.915555555555557,14.187960325190328,50.70477996801613,50.01430150162101,1110.488205029569,83.68781523801091,1344.426872843686,1
-18.65654122501245,-85.0065541536949,-46.379809126155685,-119.67708243418213,125.49626285798861,48.2835392762577,-95.6298381421534,11.441441441441459,-1.4941176470588218,4.863829787234049,-8.610169491525426,-10.458823529411763,2.0,-9.446280991735534,-22.013333333333335,8.790999527717549,42.84050082016735,50.01430150162101,1110.488205029569,83.68781523801091,1344.426872843686,1
-18.65654122501245,-85.0065541536949,-46.379809126155685,-119.67708243418213,125.49626285798861,48.2835392762577,-95.6298381421534,10.297297297297312,7.4705882352941195,26.480851063829792,-7.5338983050847474,9.462745098039218,5.0,-6.297520661157023,-16.36888888888889,11.113973693698888,50.54552307963478,50.01430150162101,1110.488205029569,83.68781523801091,1344.426872843686,1
-18.963719143487232,-85.13141078158283,-46.379809126155685,-119.52360811394044,125.38348257233777,48.33958517210945,-95.27234342012662,10.297297297297312,7.4705882352941195,26.480851063829792,-7.5338983050847474,9.462745098039218,5.0,-6.297520661157023,-16.36888888888889,11.113973693698888,50.54552307963478,50.15831301707525,1105.2486729187972,83.67827600722632,1339.0875330956987,1
-18.963719143487232,-85.13141078158283,-46.379809126155685,-119.52360811394044,125.38348257233777,48.33958517210945,-95.27234342012662,52.63063063063065,63.25098039215686,-12.429787234042546,-15.067796610169495,-0.49803921568627274,2.0,-4.198347107438014,-9.595555555555556,19.958892093209922,582.7568236747653,50.15831301707525,1105.2486729187972,83.67827600722632,1339.0875330956987,1
-18.963719143487232,-85.13141078158283,-46.379809126155685,-119.52360811394044,125.38348257233777,48.33958517210945,-95.27234342012662,6.864864864864881,-10.458823529411763,-16.753191489361697,-17.22033898305085,-10.458823529411763,0.0,-6.297520661157023,-23.142222222222223,11.399473159935026,54.10673684139944,50.15831301707525,1105.2486729187972,83.67827600722632,1339.0875330956987,1
-19.180550615351784,-84.88169752580698,-46.360870861914705,-119.39205869659042,125.28949900096204,48.39563106796115,-95.00422237860653,6.864864864864881,-10.458823529411763,-16.753191489361697,-17.22033898305085,-10.458823529411763,0.0,-6.297520661157023,-23.142222222222223,11.399473159935026,54.10673684139944,50.14103966769115,1089.8774334874283,83.54487569477071,1334.728918591873,1
-19.180550615351784,-84.88169752580698,-46.360870861914705,-119.39205869659042,125.28949900096204,48.39563106796115,-95.00422237860653,-1.1441441441441285,-18.427450980392155,1.6212765957446869,1.0762711864406764,-11.454901960784312,-7.0,-6.297520661157023,-18.62666666666667,8.206029024416207,53.254552949644065,50.14103966769115,1089.8774334874283,83.54487569477071,1334.728918591873,1
-19.180550615351784,-84.88169752580698,-46.360870861914705,-119.39205869659042,125.28949900096204,48.39563106796115,-95.00422237860653,21.738738738738753,13.447058823529414,7.025531914893623,-24.754237288135595,1.4941176470588253,1.0,-4.198347107438014,-7.337777777777779,10.1244761621965,81.4554090831238,50.14103966769115,1089.8774334874283,83.54487569477071,1334.728918591873,1
-19.01792701145337,-85.04817302965755,-46.266179540709814,-119.28243418213206,125.23310885813662,48.4516769638129,-94.91484869809983,21.738738738738753,13.447058823529414,7.025531914893623,-24.754237288135595,1.4941176470588253,1.0,-4.198347107438014,-7.337777777777779,10.1244761621965,81.4554090831238,50.11075986060691,1101.0839456832473,83.53226225083314,1334.566849582271,1
-19.01792701145337,-85.04817302965755,-46.266179540709814,-119.28243418213206,125.23310885813662,48.4516769638129,-94.91484869809983,17.16216216216218,-28.388235294117646,-55.663829787234036,-12.915254237288138,0.4980392156862763,1.0,-7.347107438016527,-11.853333333333335,16.853495183479765,327.0149420673021,50.11075986060691,1101.0839456832473,83.53226225083314,1334.566849582271,1
-19.01792701145337,-85.04817302965755,-46.266179540709814,-119.28243418213206,125.23310885813662,48.4516769638129,-94.91484869809983,9.15315315315317,-14.44313725490196,-1.6212765957446749,-3.2288135593220364,-4.482352941176469,-8.0,-8.396694214876032,-31.044444444444444,10.04623402045235,88.05387853597662,50.11075986060691,1101.0839456832473,83.53226225083314,1334.566849582271,1
-19.01792701145337,-84.5903653940685,-46.24724127646884,-119.23858437634873,125.13912528676092,48.4516769638129,-94.55735397607316,9.15315315315317,-14.44313725490196,-1.6212765957446749,-3.2288135593220364,-4.482352941176469,-8.0,-8.396694214876032,-31.044444444444444,10.04623402045235,88.05387853597662,49.951844560663574,1085.2292329804143,83.35873034896203,1333.0717355443467,1
-19.01792701145337,-84.5903653940685,-46.24724127646884,-119.23858437634873,125.13912528676092,48.4516769638129,-94.55735397607316,11.441441441441459,-5.478431372549018,25.400000000000006,-9.686440677966104,-1.4941176470588218,0.0,-6.297520661157023,-17.497777777777777,9.661966197243776,71.59165433963074,49.951844560663574,1085.2292329804143,83.35873034896203,1333.0717355443467,1
-19.01792701145337,-84.5903653940685,-46.24724127646884,-119.23858437634873,125.13912528676092,48.4516769638129,-94.55735397607316,19.450450450450468,-5.478431372549018,-18.91489361702127,-7.5338983050847474,10.458823529411767,2.0,-6.297520661157023,-17.497777777777777,10.95397446418151,46.023941143685,49.951844560663574,1085.2292329804143,83.35873034896203,1333.0717355443467,1
-19.035996300775416,-84.21579551040473,-46.15254995526395,-119.21665947345706,125.04514171538518,48.4516769638129,-94.19985925404637,19.450450450450468,-5.478431372549018,-18.91489361702127,-7.5338983050847474,10.458823529411767,2.0,-6.297520661157023,-17.497777777777777,10.95397446418151,46.023941143685,49.80144725548136,1072.087394882549,83.19500164637525,1335.3725400062594,1
-19.035996300775416,-84.21579551040473,-46.15254995526395,-119.21665947345706,125.04514171538518,48.4516769638129,-94.19985925404637,10.297297297297312,0.4980392156862763,-1.6212765957446749,-1.7763568394002505e-15,2.4901960784313744,3.0,-6.297520661157023,-24.27111111111111,6.0594301199284715,65.58914900249461,49.80144725548136,1072.087394882549,83.19500164637525,1335.3725400062594,1
-19.035996300775416,-84.21579551040473,-46.15254995526395,-119.21665947345706,125.04514171538518,48.4516769638129,-94.19985925404637,8.009009009009025,8.466666666666669,9.187234042553197,-13.991525423728817,-24.40392156862745,0.0,-2.099173553719006,-19.755555555555556,10.739135727482465,69.08633232071472,49.80144725548136,1072.087394882549,83.19500164637525,1335.3725400062594,1
-18.74688767162268,-84.50712764214322,-46.266179540709814,-119.21665947345706,124.95115814400948,48.47969991173872,-93.93173821252628,8.009009009009025,8.466666666666669,9.187234042553197,-13.991525423728817,-24.40392156862745,0.0,-2.099173553719006,-19.755555555555556,10.739135727482465,69.08633232071472,49.84006495149191,1090.6817829421625,83.32998888543669,1331.482372343945,1
-18.74688767162268,-84.50712764214322,-46.266179540709814,-119.21665947345706,124.95115814400948,48.47969991173872,-93.93173821252628,24.027027027027046,22.411764705882355,-7.025531914893611,-9.686440677966104,-0.49803921568627274,-7.0,-11.545454545454543,-15.24,12.179282260863742,64.41346989820913,49.84006495149191,1090.6817829421625,83.32998888543669,1331.482372343945,1
-18.74688767162268,-84.50712764214322,-46.266179540709814,-119.21665947345706,124.95115814400948,48.47969991173872,-93.93173821252628,9.15315315315317,2.4901960784313744,21.07659574468086,-2.152542372881358,12.450980392156865,1.0,-1.0495867768595017,-9.595555555555556,7.371076259214835,50.48267511433762,49.84006495149191,1090.6817829421625,83.32998888543669,1331.482372343945,1
-18.855303407554956,-84.71522202195642,-46.266179540709814,-119.19473457056539,124.87597128690892,48.47969991173872,-93.57424349049961,9.15315315315317,2.4901960784313744,21.07659574468086,-2.152542372881358,12.450980392156865,1.0,-1.0495867768595017,-9.595555555555556,7.371076259214835,50.48267511433762,49.945568323407066,1094.535646334575,83.39204537774388,1330.9566320095105,1
-18.855303407554956,-84.71522202195642,-46.266179540709814,-119.19473457056539,124.87597128690892,48.47969991173872,-93.57424349049961,9.15315315315317,-9.462745098039214,8.10638297872341,-10.762711864406782,-3.48627450980392,3.0,-15.74380165289256,-17.497777777777777,9.651605879349605,26.405546901568606,49.945568323407066,1094.535646334575,83.39204537774388,1330.9566320095105,1
-18.855303407554956,-84.71522202195642,-46.266179540709814,-119.19473457056539,124.87597128690892,48.47969991173872,-93.57424349049961,17.16216216216218,-6.474509803921567,-28.642553191489355,-17.22033898305085,-7.470588235294116,-14.0,-7.347107438016527,-16.36888888888889,14.335768587852936,54.71587528685724,49.945568323407066,1094.535646334575,83.39204537774388,1330.9566320095105,1
-18.783026250266772,-84.92331640176963,-46.22830301222786,-119.15088476478205,124.80078442980836,48.53574580759047,-93.39549612948622,17.16216216216218,-6.474509803921567,-28.642553191489355,-17.22033898305085,-7.470588235294116,-14.0,-7.347107438016527,-16.36888888888889,14.335768587852936,54.71587528685724,49.978215221421415,1104.1808765137405,83.43416805959318,1331.0889044532423,1
-18.783026250266772,-84.92331640176963,-46.22830301222786,-119.15088476478205,124.80078442980836,48.53574580759047,-93.39549612948622,19.450450450450468,11.454901960784316,-23.238297872340418,-24.754237288135595,-44.325490196078434,-10.0,-5.2479338842975185,-15.24,19.213913956510844,147.63958976121987,49.978215221421415,1104.1808765137405,83.43416805959318,1331.0889044532423,1
-18.783026250266772,-84.92331640176963,-46.22830301222786,-119.15088476478205,124.80078442980836,48.53574580759047,-93.39549612948622,10.297297297297312,5.4784313725490215,19.995744680851068,-4.305084745762714,13.447058823529414,12.0,-3.1487603305785106,-23.142222222222223,11.476824934098783,52.9959356292325,49.978215221421415,1104.1808765137405,83.43416805959318,1331.0889044532423,1
-18.909511275521094,-84.88169752580698,-46.13361169102297,-119.10703495899871,124.76319100125805,48.56376875551635,-93.30612244897952,10.297297297297312,5.4784313725490215,19.995744680851068,-4.305084745762714,13.447058823529414,12.0,-3.1487603305785106,-23.142222222222223,11.476824934098783,52.9959356292325,49.974940164117015,1099.149192989255,83.37411472527621,1332.984730287128,1
-18.909511275521094,-84.88169752580698,-46.13361169102297,-119.10703495899871,124.76319100125805,48.56376875551635,-93.30612244897952,9.15315315315317,-5.478431372549018,0.5404255319148996,-16.144067796610173,14.443137254901963,0.0,-1.0495867768595017,-19.755555555555556,8.320544680193034,60.12178842856095,49.974940164117015,1099.149192989255,83.37411472527621,1332.984730287128,1
-18.909511275521094,-84.88169752580698,-46.13361169102297,-119.10703495899871,124.76319100125805,48.56376875551635,-93.30612244897952,26.31531531531533,-0.49803921568627274,-40.531914893617014,-7.5338983050847474,5.4784313725490215,5.0,-7.347107438016527,-14.111111111111112,13.351977206422504,182.03627200751495,49.974940164117015,1099.149192989255,83.37411472527621,1332.984730287128,1
-19.090204168741554,-84.92331640176963,-45.94422904861319,-119.06318515321536,124.72559757270777,48.53574580759047,-93.12737508796613,26.31531531531533,-0.49803921568627274,-40.531914893617014,-7.5338983050847474,5.4784313725490215,5.0,-7.347107438016527,-14.111111111111112,13.351977206422504,182.03627200751495,49.98591653970812,1095.7510949033726,83.31024353453272,1338.5469385129468,1
-19.090204168741554,-84.92331640176963,-45.94422904861319,-119.06318515321536,124.72559757270777,48.53574580759047,-93.12737508796613,6.864864864864881,-25.4,-12.429787234042546,-5.381355932203392,10.458823529411767,3.0,-9.446280991735534,-18.62666666666667,11.450972402365599,54.4741065132697,49.98591653970812,1095.7510949033726,83.31024353453272,1338.5469385129468,1
-19.090204168741554,-84.92331640176963,-45.94422904861319,-119.06318515321536,124.72559757270777,48.53574580759047,-93.12737508796613,20.59459459459461,7.4705882352941195,-7.025531914893611,-7.5338983050847474,14.443137254901963,0.0,-8.396694214876032,-19.755555555555556,10.652500009400079,49.66419266630429,49.98591653970812,1095.7510949033726,83.31024353453272,1338.5469385129468,1
-18.692679803656542,-85.04817302965755,-45.81166119892634,-119.06318515321536,124.70680085843263,48.56376875551635,-93.12737508796613,20.59459459459461,7.4705882352941195,-7.025531914893611,-7.5338983050847474,14.443137254901963,0.0,-8.396694214876032,-19.755555555555556,10.652500009400079,49.66419266630429,49.850838010746806,1112.9990823043274,83.30767312726641,1343.7184453391123,1
-18.692679803656542,-85.04817302965755,-45.81166119892634,-119.06318515321536,124.70680085843263,48.56376875551635,-93.12737508796613,9.15315315315317,-4.482352941176469,18.91489361702128,-6.45762711864407,10.458823529411767,5.0,-7.347107438016527,-15.24,9.63174472467791,25.972339267897116,49.850838010746806,1112.9990823043274,83.30767312726641,1343.7184453391123,1
-18.692679803656542,-85.04817302965755,-45.81166119892634,-119.06318515321536,124.70680085843263,48.56376875551635,-93.12737508796613,33.1801801801802,23.407843137254904,13.510638297872347,-15.067796610169495,-10.458823529411763,-10.0,-9.446280991735534,-8.466666666666669,15.442278676661363,74.4313159780298,49.850838010746806,1112.9990823043274,83.30767312726641,1343.7184453391123,1
-18.403571174503806,-84.96493527773227,-45.735908141962426,-119.10703495899871,124.68800414415749,48.619814651368046,-93.21674876847283,33.1801801801802,23.407843137254904,13.510638297872347,-15.067796610169495,-10.458823529411763,-10.0,-9.446280991735534,-8.466666666666669,15.442278676661363,74.4313159780298,49.7014715313995,1119.3980675673704,83.2692927928978,1347.986965177687,1
-18.403571174503806,-84.96493527773227,-45.735908141962426,-119.10703495899871,124.68800414415749,48.619814651368046,-93.21674876847283,1.1441441441441604,-12.450980392156861,-15.672340425531909,-13.991525423728817,9.462745098039218,-2.0,-9.446280991735534,-24.27111111111111,11.054890948305951,55.9855299352516,49.7014715313995,1119.3980675673704,83.2692927928978,1347.986965177687,1
-18.403571174503806,-84.96493527773227,-45.735908141962426,-119.10703495899871,124.68800414415749,48.619814651368046,-93.21674876847283,11.441441441441459,3.4862745098039234,18.91489361702128,3.228813559322031,12.450980392156865,2.0,-14.694214876033056,-16.36888888888889,10.323188410583438,43.085823583171305,49.7014715313995,1119.3980675673704,83.2692927928978,1347.986965177687,1
-17.89763107348652,-85.13141078158283,-45.716969877721446,-119.19473457056539,124.66920742988235,48.78795233892319,-93.752990851513,11.441441441441459,3.4862745098039234,18.91489361702128,3.228813559322031,12.450980392156865,2.0,-14.694214876033056,-16.36888888888889,10.323188410583438,43.085823583171305,49.58200391093027,1141.2991495176027,83.34770507662323,1352.1316805956649,1
-17.89763107348652,-85.13141078158283,-45.716969877721446,-119.19473457056539,124.66920742988235,48.78795233892319,-93.752990851513,18.306306306306322,-3.48627450980392,8.10638297872341,1.0762711864406764,7.4705882352941195,4.0,-12.595041322314048,-10.724444444444446,8.220663622915868,31.28153501822128,49.58200391093027,1141.2991495176027,83.34770507662323,1352.1316805956649,1
-17.89763107348652,-85.13141078158283,-45.716969877721446,-119.19473457056539,124.66920742988235,48.78795233892319,-93.752990851513,16.018018018018033,1.4941176470588253,11.348936170212772,-13.991525423728817,0.4980392156862763,-7.0,-6.297520661157023,-12.982222222222223,8.703797419760496,33.53808740265747,49.58200391093027,1141.2991495176027,83.34770507662323,1352.1316805956649,1
-18.11446254535107,-85.17302965754547,-45.660155084998514,-119.23858437634873,124.66920742988235,48.90004413062664,-94.02111189303298,16.018018018018033,1.4941176470588253,11.348936170212772,-13.991525423728817,0.4980392156862763,-7.0,-6.297520661157023,-12.982222222222223,8.703797419760496,33.53808740265747,49.649215762631684,1136.1473096025495,83.35725637296423,1355.919088711305,1
-18.11446254535107,-85.17302965754547,-45.660155084998514,-119.23858437634873,124.66920742988235,48.90004413062664,-94.02111189303298,2.288288288288303,-10.458823529411763,-8.1063829787234,-10.762711864406782,2.4901960784313744,5.0,-8.396694214876032,-25.4,9.112887119267207,54.09721737754167,49.649215762631684,1136.1473096025495,83.35725637296423,1355.919088711305,1
-18.11446254535107,-85.17302965754547,-45.660155084998514,-119.23858437634873,124.66920742988235,48.90004413062664,-94.02111189303298,11.441441441441459,-11.454901960784312,-22.15744680851063,-13.991525423728817,5.4784313725490215,-2.0,-8.396694214876032,-24.27111111111111,12.398944041625173,58.93865796784089,49.649215762631684,1136.1473096025495,83.35725637296423,1355.919088711305,1
-18.511986910436082,-85.25626740947077,-45.5844020280346,-119.21665947345706,124.65041071560721,48.90004413062664,-94.02111189303298,11.441441441441459,-11.454901960784312,-22.15744680851063,-13.991525423728817,5.4784313725490215,-2.0,-8.396694214876032,-24.27111111111111,12.398944041625173,58.93865796784089,49.784218782647145,1126.9285904126987,83.35244297032081,1358.1457447485711,1
-18.511986910436082,-85.25626740947077,-45.5844020280346,-119.21665947345706,124.65041071560721,48.90004413062664,-94.02111189303298,19.450450450450468,10.458823529411767,12.429787234042559,-10.762711864406782,-8.466666666666665,-4.0,-3.1487603305785106,-18.62666666666667,10.917983342777926,35.56793638488373,49.784218782647145,1126.9285904126987,83.35244297032081,1358.1457447485711,1
-18.511986910436082,-85.25626740947077,-45.5844020280346,-119.21665947345706,124.65041071560721,48.90004413062664,-94.02111189303298,16.018018018018033,-22.41176470588235,-53.50212765957446,-15.067796610169495,3.4862745098039234,3.0,-3.1487603305785106,-15.24,16.484342729253346,276.834031013922,49.784218782647145,1126.9285904126987,83.35244297032081,1358.1457447485711,1
-18.548125489080174,-85.04817302965755,-45.603340292275576,-119.23858437634873,124.63161400133207,48.90004413062664,-93.8423645320197,16.018018018018033,-22.41176470588235,-53.50212765957446,-15.067796610169495,3.4862745098039234,3.0,-3.1487603305785106,-15.24,16.484342729253346,276.834031013922,49.73321293700443,1118.3559667710224,83.29669923276062,1357.83803817617,1
-18.548125489080174,-85.04817302965755,-45.603340292275576,-119.23858437634873,124.63161400133207,48.90004413062664,-93.8423645320197,20.59459459459461,11.454901960784316,0.5404255319148996,-12.915254237288138,-2.490196078431371,-3.0,-5.2479338842975185,-17.497777777777777,9.217635508136079,55.94909086469985,49.73321293700443,1118.3559667710224,83.29669923276062,1357.83803817617,1
-18.548125489080174,-85.04817302965755,-45.603340292275576,-119.23858437634873,124.63161400133207,48.90004413062664,-93.8423645320197,19.450450450450468,26.39607843137255,26.480851063829792,-11.83898305084746,-4.482352941176469,-6.0,-12.595041322314048,-12.982222222222223,15.028247435276626,70.42126454909045,49.73321293700443,1118.3559667710224,83.29669923276062,1357.83803817617,1
-18.457779042469944,-85.54759954120925,-45.56546376379362,-119.21665947345706,124.61281728705693,48.90004413062664,-93.93173821252628,19.450450450450468,26.39607843137255,26.480851063829792,-11.83898305084746,-4.482352941176469,-6.0,-12.595041322314048,-12.982222222222223,15.028247435276626,70.42126454909045,49.85694744915761,1139.073627804574,83.44324092615331,1359.4459012513566,1
-18.457779042469944,-85.54759954120925,-45.56546376379362,-119.21665947345706,124.61281728705693,48.90004413062664,-93.93173821252628,16.018018018018033,1.4941176470588253,12.429787234042559,-4.305084745762714,9.462745098039218,1.0,1.7763568394002505e-15,-9.595555555555556,6.788163537309614,35.118224522387045,49.85694744915761,1139.073627804574,83.44324092615331,1359.4459012513566,1
-18.457779042469944,-85.54759954120925,-45.56546376379362,-119.21665947345706,124.61281728705693,48.90004413062664,-93.93173821252628,1.1441441441441604,-19.423529411764704,-9.187234042553186,-7.5338983050847474,-11.454901960784312,2.0,-5.2479338842975185,-25.4,10.173955218578579,71.36973204632497,49.85694744915761,1139.073627804574,83.44324092615331,1359.4459012513566,1
-18.53005619975813,-86.17188268064886,-45.546525499552644,-119.21665947345706,124.63161400133207,48.928067078552516,-93.93173821252628,1.1441441441441604,-19.423529411764704,-9.187234042553186,-7.5338983050847474,-11.454901960784312,2.0,-5.2479338842975185,-25.4,10.173955218578579,71.36973204632497,50.08282145998655,1159.2876581982193,83.64502255121953,1361.610926518531,1
-18.53005619975813,-86.17188268064886,-45.546525499552644,-119.21665947345706,124.63161400133207,48.928067078552516,-93.93173821252628,24.027027027027046,28.38823529411765,-1.6212765957446749,-19.372881355932208,-15.439215686274508,-9.0,-9.446280991735534,-16.36888888888889,15.457975729965064,75.15386005657396,50.08282145998655,1159.2876581982193,83.64502255121953,1361.610926518531,1
-18.53005619975813,-86.17188268064886,-45.546525499552644,-119.21665947345706,124.63161400133207,48.928067078552516,-93.93173821252628,13.729729729729746,1.4941176470588253,14.591489361702134,-7.5338983050847474,7.4705882352941195,8.0,-6.297520661157023,-10.724444444444446,8.73022354805888,17.87954136671977,50.08282145998655,1159.2876581982193,83.64502255121953,1361.610926518531,1
-18.692679803656542,-86.33835818449943,-45.527587235311664,-119.15088476478205,124.68800414415749,48.928067078552516,-94.19985925404637,13.729729729729746,1.4941176470588253,14.591489361702134,-7.5338983050847474,7.4705882352941195,8.0,-6.297520661157023,-10.724444444444446,8.73022354805888,17.87954136671977,50.18620840782254,1160.2615143228336,83.67227672819772,1360.428477526957,1
-18.692679803656542,-86.33835818449943,-45.527587235311664,-119.15088476478205,124.68800414415749,48.928067078552516,-94.19985925404637,5.7207207207207365,-6.474509803921567,0.5404255319148996,-5.381355932203392,-9.462745098039214,-4.0,-3.1487603305785106,-24.27111111111111,7.374953566061179,53.33178919364136,50.18620840782254,1160.2615143228336,83.67227672819772,1360.428477526957,1
-18.692679803656542,-86.33835818449943,-45.527587235311664,-119.15088476478205,124.68800414415749,48.928067078552516,-94.19985925404637,21.738738738738753,13.447058823529414,19.995744680851068,-22.60169491525424,-7.470588235294116,2.0,-11.545454545454543,-20.884444444444444,14.960465547945821,57.54365214914021,50.18620840782254,1160.2615143228336,83.67227672819772,1360.428477526957,1
-18.83723411823291,-86.58807144027529,-45.41395764986579,-119.08511005610704,124.76319100125805,48.87202118270082,-94.37860661505977,21.738738738738753,13.447058823529414,19.995744680851068,-22.60169491525424,-7.470588235294116,2.0,-11.545454545454543,-20.884444444444444,14.960465547945821,57.54365214914021,50.27975440279133,1165.300972990048,83.69571304874937,1363.1339770146792,1
-18.83723411823291,-86.58807144027529,-45.41395764986579,-119.08511005610704,124.76319100125805,48.87202118270082,-94.37860661505977,17.16216216216218,-16.435294117647057,-41.612765957446804,-11.83898305084746,4.482352941176472,0.0,-7.347107438016527,-14.111111111111112,14.123722097300952,159.11446263603847,50.27975440279133,1165.300972990048,83.69571304874937,1363.1339770146792,1
-18.83723411823291,-86.58807144027529,-45.41395764986579,-119.08511005610704,124.76319100125805,48.87202118270082,-94.37860661505977,9.15315315315317,-10.458823529411763,3.782978723404261,-10.762711864406782,-1.4941176470588218,0.0,-6.297520661157023,-19.755555555555556,7.713107641768422,39.93585576342422,50.27975440279133,1165.300972990048,83.69571304874937,1363.1339770146792,1
-18.56619477840222,-86.29673930853679,-45.33820459290188,-119.06318515321536,124.85717457263378,48.87202118270082,-94.73610133708655,9.15315315315317,-10.458823529411763,3.782978723404261,-10.762711864406782,-1.4941176470588218,0.0,-6.297520661157023,-19.755555555555556,7.713107641768422,39.93585576342422,50.06704622661363,1163.6281229846795,83.56604301821801,1364.4357163271206,1
-18.56619477840222,-86.29673930853679,-45.33820459290188,-119.06318515321536,124.85717457263378,48.87202118270082,-94.73610133708655,11.441441441441459,-7.470588235294116,-9.187234042553186,-12.915254237288138,9.462745098039218,2.0,-6.297520661157023,-12.982222222222223,8.96962574224942,13.718892807546267,50.06704622661363,1163.6281229846795,83.56604301821801,1364.4357163271206,1
-18.56619477840222,-86.29673930853679,-45.33820459290188,-119.06318515321536,124.85717457263378,48.87202118270082,-94.73610133708655,28.60360360360362,29.3843137254902,23.238297872340432,-13.991525423728817,-0.49803921568627274,-2.0,-5.2479338842975185,-11.853333333333335,14.352130882310023,134.54376874833756,50.06704622661363,1163.6281229846795,83.56604301821801,1364.4357163271206,1
-18.47584833179199,-86.58807144027529,-45.37608112138384,-119.01933534743202,124.93236142973434,48.84399823477494,-95.00422237860653,28.60360360360362,29.3843137254902,23.238297872340432,-13.991525423728817,-0.49803921568627274,-2.0,-5.2479338842975185,-11.853333333333335,14.352130882310023,134.54376874833756,50.14666696448371,1176.88760115974,83.66116263636371,1362.2573196104022,1
-18.47584833179199,-86.58807144027529,-45.37608112138384,-119.01933534743202,124.93236142973434,48.84399823477494,-95.00422237860653,35.46846846846849,4.482352941176472,-54.58297872340425,-21.525423728813564,-12.450980392156861,-6.0,-5.2479338842975185,-7.337777777777779,18.386989489511866,326.92983171558734,50.14666696448371,1176.88760115974,83.66116263636371,1362.2573196104022,1
-18.47584833179199,-86.58807144027529,-45.37608112138384,-119.01933534743202,124.93236142973434,48.84399823477494,-95.00422237860653,5.7207207207207365,-10.458823529411763,-2.702127659574462,-7.5338983050847474,2.4901960784313744,4.0,-11.545454545454543,-23.142222222222223,8.44918038261248,46.58951517048231,50.14666696448371,1176.88760115974,83.66116263636371,1362.2573196104022,1
-18.511986910436082,-86.25512043257415,-45.37608112138384,-118.99741044454035,125.0075482868349,48.87202118270082,-95.36171710063331,5.7207207207207365,-10.458823529411763,-2.702127659574462,-7.5338983050847474,2.4901960784313744,4.0,-11.545454545454543,-23.142222222222223,8.44918038261248,46.58951517048231,50.04772948813135,1163.6512586964575,83.54287066616611,1360.5422569237016,1
-18.511986910436082,-86.25512043257415,-45.37608112138384,-118.99741044454035,125.0075482868349,48.87202118270082,-95.36171710063331,1.1441441441441604,-2.490196078431371,31.885106382978726,-11.83898305084746,3.4862745098039234,2.0,-9.446280991735534,-23.142222222222223,10.679150922520424,127.56090565303377,50.04772948813135,1163.6512586964575,83.54287066616611,1360.5422569237016,1
-18.511986910436082,-86.25512043257415,-45.37608112138384,-118.99741044454035,125.0075482868349,48.87202118270082,-95.36171710063331,8.009009009009025,-6.474509803921567,-3.7829787234042493,3.228813559322031,1.4941176470588253,0.0,-3.1487603305785106,-17.497777777777777,5.454495856383998,30.158110496392133,50.04772948813135,1163.6512586964575,83.54287066616611,1360.5422569237016,1
-18.29515543857153,-86.25512043257415,-45.43289591410677,-118.99741044454035,125.06393842966035,48.928067078552516,-95.80858550316668,8.009009009009025,-6.474509803921567,-3.7829787234042493,3.228813559322031,1.4941176470588253,0.0,-3.1487603305785106,-17.497777777777777,5.454495856383998,30.158110496392133,49.99439059508415,1170.244635789954,83.5618089304071,1358.3748946603723,1
-18.29515543857153,-86.25512043257415,-45.43289591410677,-118.99741044454035,125.06393842966035,48.928067078552516,-95.80858550316668,16.018018018018033,-9.462745098039214,-8.1063829787234,-11.83898305084746,-8.466666666666665,-4.0,-7.347107438016527,-16.36888888888889,10.201099017400024,18.44299957094285,49.99439059508415,1170.244635789954,83.5618089304071,1358.3748946603723,1
-18.29515543857153,-86.25512043257415,-45.43289591410677,-118.99741044454035,125.06393842966035,48.928067078552516,-95.80858550316668,13.729729729729746,10.458823529411767,13.510638297872347,-11.83898305084746,2.4901960784313744,-5.0,-7.347107438016527,-16.36888888888889,10.093045876649764,22.679474584474143,49.99439059508415,1170.244635789954,83.5618089304071,1358.3748946603723,1
-18.331294017215622,-86.13026380468622,-45.56546376379362,-118.97548554164868,125.0827351439355,48.95609002647839,-95.89795918367338,13.729729729729746,10.458823529411767,13.510638297872347,-11.83898305084746,2.4901960784313744,-5.0,-7.347107438016527,-16.36888888888889,10.093045876649764,22.679474584474143,50.009007195231824,1163.983884730896,83.5570710367095,1352.223815122164,1
-18.331294017215622,-86.13026380468622,-45.56546376379362,-118.97548554164868,125.0827351439355,48.95609002647839,-95.89795918367338,9.15315315315317,0.4980392156862763,-0.5404255319148876,-10.762711864406782,3.4862745098039234,5.0,-6.297520661157023,-18.62666666666667,6.795598950348591,36.354364133130794,50.009007195231824,1163.983884730896,83.5570710367095,1352.223815122164,1
-18.331294017215622,-86.13026380468622,-45.56546376379362,-118.97548554164868,125.0827351439355,48.95609002647839,-95.89795918367338,2.288288288288303,-10.458823529411763,-4.863829787234037,-6.45762711864407,-0.49803921568627274,-2.0,1.7763568394002505e-15,-20.884444444444444,5.931381547963612,48.41982962651274,50.009007195231824,1163.983884730896,83.5570710367095,1352.223815122164,1
-18.25901685992744,-85.83893167294774,-45.69803161348047,-118.97548554164868,125.0827351439355,48.95609002647839,-95.89795918367338,2.288288288288303,-10.458823529411763,-4.863829787234037,-6.45762711864407,-0.49803921568627274,-2.0,1.7763568394002505e-15,-20.884444444444444,5.931381547963612,48.41982962651274,49.93199338211855,1155.2060457274868,83.50414960935895,1346.4847190120458,1
-18.25901685992744,-85.83893167294774,-45.69803161348047,-118.97548554164868,125.0827351439355,48.95609002647839,-95.89795918367338,11.441441441441459,-4.482352941176469,-10.268085106382973,-11.83898305084746,5.4784313725490215,5.0,-5.2479338842975185,-18.62666666666667,9.047986807920196,24.453052976542857,49.93199338211855,1155.2060457274868,83.50414960935895,1346.4847190120458,1
-18.25901685992744,-85.83893167294774,-45.69803161348047,-118.97548554164868,125.0827351439355,48.95609002647839,-95.89795918367338,8.009009009009025,-5.478431372549018,-3.7829787234042493,-17.22033898305085,-17.431372549019606,-6.0,-11.545454545454543,-18.62666666666667,11.011781481144245,36.43382399003411,49.93199338211855,1155.2060457274868,83.50414960935895,1346.4847190120458,1
-18.150601123995163,-85.50598066524661,-45.8495377274083,-118.99741044454035,125.04514171538518,49.06818181818184,-96.16608022519347,8.009009009009025,-5.478431372549018,-3.7829787234042493,-17.22033898305085,-17.431372549019606,-6.0,-11.545454545454543,-18.62666666666667,11.011781481144245,36.43382399003411,49.83537317221669,1146.1019514313266,83.45097627906507,1340.820103030857,1
-18.150601123995163,-85.50598066524661,-45.8495377274083,-118.99741044454035,125.04514171538518,49.06818181818184,-96.16608022519347,6.864864864864881,-0.49803921568627274,19.995744680851068,-1.7763568394002505e-15,-10.458823529411763,-4.0,-12.595041322314048,-20.884444444444444,9.41211975719656,65.52604381539784,49.83537317221669,1146.1019514313266,83.45097627906507,1340.820103030857,1
-18.150601123995163,-85.50598066524661,-45.8495377274083,-118.99741044454035,125.04514171538518,49.06818181818184,-96.16608022519347,12.585585585585601,-17.431372549019606,-16.753191489361697,-19.372881355932208,-1.4941176470588218,-1.0,-8.396694214876032,-16.36888888888889,11.675341466340356,52.77089549686627,49.83537317221669,1146.1019514313266,83.45097627906507,1340.820103030857,1
-18.060254677384933,-85.04817302965755,-45.8495377274083,-119.06318515321536,125.0075482868349,49.180273609885234,-96.34482758620686,12.585585585585601,-17.431372549019606,-16.753191489361697,-19.372881355932208,-1.4941176470588218,-1.0,-8.396694214876032,-16.36888888888889,11.675341466340356,52.77089549686627,49.652655144816926,1132.6930778606334,83.3202986367604,1342.2987047858185,1
-18.060254677384933,-85.04817302965755,-45.8495377274083,-119.06318515321536,125.0075482868349,49.180273609885234,-96.34482758620686,16.018018018018033,1.4941176470588253,2.702127659574474,-12.915254237288138,19.423529411764708,1.0,-6.297520661157023,-14.111111111111112,9.245209843246538,52.31129319763425,49.652655144816926,1132.6930778606334,83.3202986367604,1342.2987047858185,1
-18.060254677384933,-85.04817302965755,-45.8495377274083,-119.06318515321536,125.0075482868349,49.180273609885234,-96.34482758620686,16.018018018018033,-3.48627450980392,-16.753191489361697,-10.762711864406782,4.482352941176472,-2.0,-5.2479338842975185,-18.62666666666667,9.672143671716388,45.059786620354075,49.652655144816926,1132.6930778606334,83.3202986367604,1342.2987047858185,1
-17.969908230774703,-85.25626740947077,-46.00104384133612,-119.10703495899871,124.96995485828462,49.348411297440435,-96.79169598874023,16.018018018018033,-3.48627450980392,-16.753191489361697,-10.762711864406782,4.482352941176472,-2.0,-5.2479338842975185,-18.62666666666667,9.672143671716388,45.059786620354075,49.74240649386053,1142.3618787544024,83.4547820699352,1338.5554963953616,1
-17.969908230774703,-85.25626740947077,-46.00104384133612,-119.10703495899871,124.96995485828462,49.348411297440435,-96.79169598874023,-9.153153153153138,-38.34901960784313,7.025531914893623,-1.7763568394002505e-15,-0.49803921568627274,0.0,-6.297520661157023,-24.27111111111111,10.699296957980538,188.13994530865037,49.74240649386053,1142.3618787544024,83.4547820699352,1338.5554963953616,1
-17.969908230774703,-85.25626740947077,-46.00104384133612,-119.10703495899871,124.96995485828462,49.348411297440435,-96.79169598874023,8.009009009009025,-4.482352941176469,-14.591489361702122,1.0762711864406764,11.454901960784316,5.0,2.0991735537190106,-17.497777777777777,8.026371973826176,35.67399912251698,49.74240649386053,1142.3618787544024,83.4547820699352,1338.5554963953616,1
-18.25901685992744,-85.2978862854334,-45.96316731285417,-119.10703495899871,124.96995485828462,49.348411297440435,-96.79169598874023,8.009009009009025,-4.482352941176469,-14.591489361702122,1.0762711864406764,11.454901960784316,5.0,2.0991735537190106,-17.497777777777777,8.026371973826176,35.67399912251698,49.840023486071665,1134.825013803371,83.45602951909542,1340.0506708199564,1
-18.25901685992744,-85.2978862854334,-45.96316731285417,-119.10703495899871,124.96995485828462,49.348411297440435,-96.79169598874023,19.450450450450468,10.458823529411767,-3.7829787234042493,-11.83898305084746,-24.40392156862745,-9.0,-7.347107438016527,-16.36888888888889,12.831394206205852,46.213420133518845,49.840023486071665,1134.825013803371,83.45602951909542,1340.0506708199564,1
-18.25901685992744,-85.2978862854334,-45.96316731285417,-119.10703495899871,124.96995485828462,49.348411297440435,-96.79169598874023,14.87387387387389,-4.482352941176469,-15.672340425531909,-17.22033898305085,3.4862745098039234,1.0,-10.49586776859504,-16.36888888888889,10.449992173865121,43.01787473853096,49.840023486071665,1134.825013803371,83.45602951909542,1340.0506708199564,1
-18.25901685992744,-85.25626740947077,-45.81166119892634,-119.10703495899871,124.98875157255976,49.348411297440435,-96.88106966924693,14.87387387387389,-4.482352941176469,-15.672340425531909,-17.22033898305085,3.4862745098039234,1.0,-10.49586776859504,-16.36888888888889,10.449992173865121,43.01787473853096,49.775648489441515,1133.942791729095,83.39165452246527,1345.6605395709666,1
-18.25901685992744,-85.25626740947077,-45.81166119892634,-119.10703495899871,124.98875157255976,49.348411297440435,-96.88106966924693,16.018018018018033,-4.482352941176469,-15.672340425531909,-21.525423728813564,-4.482352941176469,4.0,-5.2479338842975185,-12.982222222222223,10.551330520154524,46.73718514851324,49.775648489441515,1133.942791729095,83.39165452246527,1345.6605395709666,1
-18.25901685992744,-85.25626740947077,-45.81166119892634,-119.10703495899871,124.98875157255976,49.348411297440435,-96.88106966924693,24.027027027027046,-1.4941176470588218,-56.744680851063826,-24.754237288135595,-1.4941176470588218,0.0,-13.644628099173552,-14.111111111111112,17.033739958828598,354.0866897607619,49.775648489441515,1133.942791729095,83.39165452246527,1345.6605395709666,1
-18.042185388062887,-85.25626740947077,-45.83059946316732,-119.17280966767372,124.96995485828462,49.460503089143884,-97.14919071076702,24.027027027027046,-1.4941176470588218,-56.744680851063826,-24.754237288135595,-1.4941176470588218,0.0,-13.644628099173552,-14.111111111111112,17.033739958828598,354.0866897607619,49.709684086900324,1140.718678633698,83.41989218010393,1347.2991549077747,1
-18.042185388062887,-85.25626740947077,-45.83059946316732,-119.17280966767372,124.96995485828462,49.460503089143884,-97.14919071076702,10.297297297297312,-5.478431372549018,-11.34893617021276,-1.7763568394002505e-15,6.4745098039215705,-2.0,-12.595041322314048,-19.755555555555556,8.493721440231283,40.36225447353994,49.709684086900324,1140.718678633698,83.41989218010393,1347.2991549077747,1
-18.042185388062887,-85.25626740947077,-45.83059946316732,-119.17280966767372,124.96995485828462,49.460503089143884,-97.14919071076702,17.16216216216218,-7.470588235294116,17.834042553191495,7.533898305084744,30.380392156862747,4.0,-2.099173553719006,-9.595555555555556,12.00947656523373,86.6844886840055,49.709684086900324,1140.718678633698,83.41989218010393,1347.2991549077747,1
-17.93376965213061,-85.33950516139605,-45.96316731285417,-119.19473457056539,124.9135647154592,49.62864077669903,-97.59605911330038,17.16216216216218,-7.470588235294116,17.834042553191495,7.533898305084744,30.380392156862747,4.0,-2.099173553719006,-9.595555555555556,12.00947656523373,86.6844886840055,49.745480708793615,1146.612715855089,83.4991356816052,1343.2558306217798,1
-17.93376965213061,-85.33950516139605,-45.96316731285417,-119.19473457056539,124.9135647154592,49.62864077669903,-97.59605911330038,5.7207207207207365,-23.4078431372549,-31.88510638297872,-7.5338983050847474,0.4980392156862763,-4.0,-8.396694214876032,-18.62666666666667,12.50862108040851,119.43625941024685,49.745480708793615,1146.612715855089,83.4991356816052,1343.2558306217798,1
-17.93376965213061,-85.33950516139605,-45.96316731285417,-119.19473457056539,124.9135647154592,49.62864077669903,-97.59605911330038,13.729729729729746,7.4705882352941195,17.834042553191495,-10.762711864406782,0.4980392156862763,3.0,-9.446280991735534,-8.466666666666669,8.901007407088827,30.649350955607975,49.745480708793615,1146.612715855089,83.4991356816052,1343.2558306217798,1
-17.861492494842427,-85.46436178928397,-45.90635252013123,-119.2605092792404,124.89476800118406,49.796778464254174,-97.95355383532717,13.729729729729746,7.4705882352941195,17.834042553191495,-10.762711864406782,0.4980392156862763,3.0,-9.446280991735534,-8.466666666666669,8.901007407088827,30.649350955607975,49.74406893475254,1153.583034669627,83.54374119621853,1347.9746660568703,1
-17.861492494842427,-85.46436178928397,-45.90635252013123,-119.2605092792404,124.89476800118406,49.796778464254174,-97.95355383532717,28.60360360360362,37.352941176470594,14.591489361702134,-12.915254237288138,-22.41176470588235,-3.0,-6.297520661157023,-16.36888888888889,17.692682829374093,129.6802841444438,49.74406893475254,1153.583034669627,83.54374119621853,1347.9746660568703,1
-17.861492494842427,-85.46436178928397,-45.90635252013123,-119.2605092792404,124.89476800118406,49.796778464254174,-97.95355383532717,18.306306306306322,6.4745098039215705,-23.238297872340418,-18.29661016949153,-8.466666666666665,-4.0,-10.49586776859504,-17.497777777777777,13.347004545637416,47.24346122428472,49.74406893475254,1153.583034669627,83.54374119621853,1347.9746660568703,1
-17.62659173365583,-85.38112403735869,-45.79272293468536,-119.3262839879154,124.85717457263378,49.992939099735196,-98.48979591836735,18.306306306306322,6.4745098039215705,-23.238297872340418,-18.29661016949153,-8.466666666666665,-4.0,-10.49586776859504,-17.497777777777777,13.347004545637416,47.24346122428472,49.6001462352333,1158.541516065545,83.50004365331982,1354.4499978506897,1
-17.62659173365583,-85.38112403735869,-45.79272293468536,-119.3262839879154,124.85717457263378,49.992939099735196,-98.48979591836735,18.306306306306322,-1.4941176470588218,-14.591489361702122,-16.144067796610173,11.454901960784316,2.0,-2.099173553719006,-11.853333333333335,9.742923744939262,47.37457711301278,49.6001462352333,1158.541516065545,83.50004365331982,1354.4499978506897,1
-17.62659173365583,-85.38112403735869,-45.79272293468536,-119.3262839879154,124.85717457263378,49.992939099735196,-98.48979591836735,2.288288288288303,-11.454901960784312,18.91489361702128,-4.305084745762714,-24.40392156862745,-5.0,-10.49586776859504,-16.36888888888889,11.653980854745999,60.69871299014016,49.6001462352333,1158.541516065545,83.50004365331982,1354.4499978506897,1
-17.789215337554243,-84.96493527773227,-45.735908141962426,-119.39205869659042,124.8195811440835,50.1610767872904,-98.84729064039402,2.288288288288303,-11.454901960784312,18.91489361702128,-4.305084745762714,-24.40392156862745,-5.0,-10.49586776859504,-16.36888888888889,11.653980854745999,60.69871299014016,49.49668625241631,1138.7519263673596,83.36430070542836,1358.2286519070476,1
-17.789215337554243,-84.96493527773227,-45.735908141962426,-119.39205869659042,124.8195811440835,50.1610767872904,-98.84729064039402,27.459459459459477,18.42745098039216,7.025531914893623,-16.144067796610173,-8.466666666666665,-6.0,-6.297520661157023,-17.497777777777777,13.414809407119611,59.634347685295445,49.49668625241631,1138.7519263673596,83.36430070542836,1358.2286519070476,1
-17.789215337554243,-84.96493527773227,-45.735908141962426,-119.39205869659042,124.8195811440835,50.1610767872904,-98.84729064039402,25.17117117117119,23.407843137254904,14.591489361702134,5.3813559322033875,8.466666666666669,6.0,-1.0495867768595017,-14.111111111111112,12.272403019621112,75.20000836530592,49.49668625241631,1138.7519263673596,83.36430070542836,1358.2286519070476,1
-18.042185388062887,-84.92331640176963,-45.641216820757535,-119.43590850237376,124.76319100125805,50.27316857899385,-99.11541168191411,25.17117117117119,23.407843137254904,14.591489361702134,5.3813559322033875,8.466666666666669,6.0,-1.0495867768595017,-14.111111111111112,12.272403019621112,75.20000836530592,49.53557287019669,1129.6459281980037,83.33348057496697,1363.3098135633388,1
-18.042185388062887,-84.92331640176963,-45.641216820757535,-119.43590850237376,124.76319100125805,50.27316857899385,-99.11541168191411,19.450450450450468,2.4901960784313744,-1.6212765957446749,-9.686440677966104,12.450980392156865,-1.0,-10.49586776859504,-15.24,9.054401495418066,46.223861637429344,49.53557287019669,1129.6459281980037,83.33348057496697,1363.3098135633388,1
-18.042185388062887,-84.92331640176963,-45.641216820757535,-119.43590850237376,124.76319100125805,50.27316857899385,-99.11541168191411,14.87387387387389,10.458823529411767,35.12765957446809,-13.991525423728817,-3.48627450980392,0.0,5.247933884297524,-20.884444444444444,13.008816905003556,126.05068087419396,49.53557287019669,1129.6459281980037,83.33348057496697,1363.3098135633388,1
-18.150601123995163,-84.71522202195642,-45.622278556516555,-119.4797583081571,124.70680085843263,50.38526037069724,-99.20478536242081,14.87387387387389,10.458823529411767,35.12765957446809,-13.991525423728817,-3.48627450980392,0.0,5.247933884297524,-20.884444444444444,13.008816905003556,126.05068087419396,49.49603390082271,1118.9666741729807,83.2724196288767,1365.2930878751058,1
-18.150601123995163,-84.71522202195642,-45.622278556516555,-119.4797583081571,124.70680085843263,50.38526037069724,-99.20478536242081,22.8828828828829,-5.478431372549018,-18.91489361702127,-7.5338983050847474,18.42745098039216,7.0,1.7763568394002505e-15,-12.982222222222223,11.65247242251904,62.72007122163398,49.49603390082271,1118.9666741729807,83.2724196288767,1365.2930878751058,1
-18.150601123995163,-84.71522202195642,-45.622278556516555,-119.4797583081571,124.70680085843263,50.38526037069724,-99.20478536242081,11.441441441441459,-8.466666666666665,-14.591489361702122,-17.22033898305085,-11.454901960784312,-1.0,-14.694214876033056,-20.884444444444444,12.469187216765363,36.07033913136646,49.49603390082271,1118.9666741729807,83.2724196288767,1365.2930878751058,1
-18.403571174503806,-84.42388989021794,-45.679093349239494,-119.56745791972378,124.66920742988235,50.413283318623115,-99.20478536242081,11.441441441441459,-8.466666666666665,-14.591489361702122,-17.22033898305085,-11.454901960784312,-1.0,-14.694214876033056,-20.884444444444444,12.469187216765363,36.07033913136646,49.502184804653744,1100.6326420384644,83.22348038639375,1365.953341957853,1
-18.403571174503806,-84.42388989021794,-45.679093349239494,-119.56745791972378,124.66920742988235,50.413283318623115,-99.20478536242081,3.4324324324324476,-16.435294117647057,-1.6212765957446749,-11.83898305084746,8.466666666666669,1.0,-11.545454545454543,-23.142222222222223,9.685291203876883,59.39943306744271,49.502184804653744,1100.6326420384644,83.22348038639375,1365.953341957853,1
-18.403571174503806,-84.42388989021794,-45.679093349239494,-119.56745791972378,124.66920742988235,50.413283318623115,-99.20478536242081,8.009009009009025,-5.478431372549018,2.702127659574474,-16.144067796610173,-16.435294117647057,-3.0,-16.793388429752063,-23.142222222222223,11.463067575920505,58.22482079830725,49.502184804653744,1100.6326420384644,83.22348038639375,1365.953341957853,1
-18.25901685992744,-84.29903326233001,-45.679093349239494,-119.67708243418213,124.63161400133207,50.525375110326564,-99.3835327234342,8.009009009009025,-5.478431372549018,2.702127659574474,-16.144067796610173,-16.435294117647057,-3.0,-16.793388429752063,-23.142222222222223,11.463067575920505,58.22482079830725,49.41238115716565,1100.7740200000078,83.21840301525054,1369.8014184519993,1
-18.25901685992744,-84.29903326233001,-45.679093349239494,-119.67708243418213,124.63161400133207,50.525375110326564,-99.3835327234342,25.17117117117119,12.450980392156865,-34.04680851063829,-11.83898305084746,-23.4078431372549,-6.0,-6.297520661157023,-5.080000000000002,15.536663365403216,115.17863983853309,49.41238115716565,1100.7740200000078,83.21840301525054,1369.8014184519993,1
-17.969908230774703,-83.84122562674095,-45.603340292275576,-119.8524816573155,124.5564271442315,50.60944395410414,-99.47290640394078,25.17117117117119,12.450980392156865,-34.04680851063829,-11.83898305084746,-23.4078431372549,-6.0,-6.297520661157023,-5.080000000000002,15.536663365403216,115.17863983853309,49.13815804993041,1094.1288163049053,83.09901585877735,1378.6469048661659,1
-17.969908230774703,-83.84122562674095,-45.603340292275576,-119.8524816573155,124.5564271442315,50.60944395410414,-99.47290640394078,12.585585585585601,-1.4941176470588218,4.863829787234049,-8.610169491525426,9.462745098039218,1.0,-5.2479338842975185,-19.755555555555556,7.877492131162024,38.62121184117736,49.13815804993041,1094.1288163049053,83.09901585877735,1378.6469048661659,1
-17.969908230774703,-83.84122562674095,-45.603340292275576,-119.8524816573155,124.5564271442315,50.60944395410414,-99.47290640394078,3.4324324324324476,-7.470588235294116,26.480851063829792,-5.381355932203392,4.482352941176472,0.0,-10.49586776859504,-19.755555555555556,9.687375491135851,81.08007112599944,49.13815804993041,1094.1288163049053,83.09901585877735,1378.6469048661659,1
-17.969908230774703,-83.84122562674095,-45.603340292275576,-119.8524816573155,124.5564271442315,50.60944395410414,-99.47290640394078,13.729729729729746,-6.474509803921567,-4.863829787234037,-13.991525423728817,-8.466666666666665,-2.0,-3.1487603305785106,-14.111111111111112,8.348266606621307,25.28836138667166,49.13815804993041,1094.1288163049053,83.09901585877735,1378.6469048661659,1
-17.71693818026606,-83.96608225462887,-45.47077244258873,-120.02788088044886,124.50003700140606,50.77758164165934,-99.74102744546087,13.729729729729746,-6.474509803921567,-4.863829787234037,-13.991525423728817,-8.466666666666665,-2.0,-3.1487603305785106,-14.111111111111112,8.348266606621307,25.28836138667166,49.05126429249455,1106.8522140618518,83.15491185922215,1390.1841027114967,1
-17.71693818026606,-83.96608225462887,-45.47077244258873,-120.02788088044886,124.50003700140606,50.77758164165934,-99.74102744546087,33.1801801801802,20.419607843137257,16.753191489361708,-9.686440677966104,25.400000000000002,3.0,1.0495867768595062,-3.9511111111111124,14.180014759826987,136.38166600670405,49.05126429249455,1106.8522140618518,83.15491185922215,1390.1841027114967,1
-18.11446254535107,-85.83893167294774,-45.754846406203406,-121.56262408286578,124.5188337156812,51.53420123565755,-102.69035890218152,33.1801801801802,20.419607843137257,16.753191489361708,-9.686440677966104,25.400000000000002,3.0,1.0495867768595062,-3.9511111111111124,14.180014759826987,136.38166600670405,49.90274687483407,1159.5547383769485,84.38546738733898,1438.289207890723,1
-18.11446254535107,-85.83893167294774,-45.754846406203406,-121.56262408286578,124.5188337156812,51.53420123565755,-102.69035890218152,14.87387387387389,-0.49803921568627274,-17.834042553191484,-8.610169491525426,-3.48627450980392,-5.0,-4.198347107438014,-16.36888888888889,8.858704455050987,44.08226491594568,49.90274687483407,1159.5547383769485,84.38546738733898,1438.289207890723,1
-18.11446254535107,-85.83893167294774,-45.754846406203406,-121.56262408286578,124.5188337156812,51.53420123565755,-102.69035890218152,9.15315315315317,0.4980392156862763,-9.187234042553186,-17.22033898305085,18.42745098039216,4.0,-13.644628099173552,-22.013333333333335,11.768022225917816,54.77378470223706,49.90274687483407,1159.5547383769485,84.38546738733898,1438.289207890723,1
-18.801095539588818,-85.88055054891038,-45.716969877721446,-121.49684937419076,124.5188337156812,51.50617828773167,-102.60098522167482,9.15315315315317,0.4980392156862763,-9.187234042553186,-17.22033898305085,18.42745098039216,4.0,-13.644628099173552,-22.013333333333335,11.768022225917816,54.77378470223706,50.13287198874021,1139.5384646774737,84.36478993360753,1437.37068180703,1
-18.801095539588818,-85.88055054891038,-45.716969877721446,-121.49684937419076,124.5188337156812,51.50617828773167,-102.60098522167482,10.297297297297312,-1.4941176470588218,-1.6212765957446749,-10.762711864406782,-1.4941176470588218,0.0,-5.2479338842975185,-20.884444444444444,6.475237422538547,51.03354908181127,50.13287198874021,1139.5384646774737,84.36478993360753,1437.37068180703,1
-18.801095539588818,-85.88055054891038,-45.716969877721446,-121.49684937419076,124.5188337156812,51.50617828773167,-102.60098522167482,26.31531531531533,30.380392156862747,-5.944680851063824,-15.067796610169495,-1.4941176470588218,1.0,-3.1487603305785106,-10.724444444444446,11.759438419436645,128.53248930516412,50.13287198874021,1139.5384646774737,84.36478993360753,1437.37068180703,1
-18.674610514334496,-85.92216942487302,-45.773784670444385,-121.49684937419076,124.5188337156812,51.50617828773167,-102.60098522167482,26.31531531531533,30.380392156862747,-5.944680851063824,-15.067796610169495,-1.4941176470588218,1.0,-3.1487603305785106,-10.724444444444446,11.759438419436645,128.53248930516412,50.12352153655064,1144.74870295986,84.39760115650273,1435.2388633356313,1
-18.674610514334496,-85.92216942487302,-45.773784670444385,-121.49684937419076,124.5188337156812,51.50617828773167,-102.60098522167482,44.62162162162164,43.32941176470588,15.672340425531921,-9.686440677966104,-6.474509803921567,7.0,-8.396694214876032,-5.080000000000002,17.532627313577894,276.58034489211315,50.12352153655064,1144.74870295986,84.39760115650273,1435.2388633356313,1
-18.674610514334496,-85.92216942487302,-45.773784670444385,-121.49684937419076,124.5188337156812,51.50617828773167,-102.60098522167482,1.1441441441441604,-20.419607843137253,-8.1063829787234,-12.915254237288138,-49.305882352941175,-9.0,-5.2479338842975185,-24.27111111111111,16.301289568955344,236.2325762340134,50.12352153655064,1144.74870295986,84.39760115650273,1435.2388633356313,1
-18.674610514334496,-85.7973127969851,-45.735908141962426,-121.47492447129909,124.50003700140606,51.53420123565755,-102.69035890218152,1.1441441441441604,-20.419607843137253,-8.1063829787234,-12.915254237288138,-49.305882352941175,-9.0,-5.2479338842975185,-24.27111111111111,16.301289568955344,236.2325762340134,50.069277151094006,1140.4478556583135,84.3360484700822,1435.7011187086907,1
-18.674610514334496,-85.7973127969851,-45.735908141962426,-121.47492447129909,124.50003700140606,51.53420123565755,-102.69035890218152,5.7207207207207365,1.4941176470588253,11.348936170212772,-8.610169491525426,4.482352941176472,2.0,-2.099173553719006,-24.27111111111111,7.503322704440544,57.8683490265885,50.069277151094006,1140.4478556583135,84.3360484700822,1435.7011187086907,1
-18.674610514334496,-85.7973127969851,-45.735908141962426,-121.47492447129909,124.50003700140606,51.53420123565755,-102.69035890218152,10.297297297297312,-5.478431372549018,-1.6212765957446749,-7.5338983050847474,18.42745098039216,4.0,-6.297520661157023,-25.4,9.881984401528117,64.9423562600028,50.069277151094006,1140.4478556583135,84.3360484700822,1435.7011187086907,1
-18.92758056484314,-85.46436178928397,-45.660155084998514,-121.43107466551575,124.5188337156812,51.47815533980585,-102.51161154116812,10.297297297297312,-5.478431372549018,-1.6212765957446749,-7.5338983050847474,18.42745098039216,4.0,-6.297520661157023,-25.4,9.881984401528117,64.9423562600028,50.01736581304187,1121.0247779237075,84.18519717993274,1436.5352600926649,1
-18.92758056484314,-85.46436178928397,-45.660155084998514,-121.43107466551575,124.5188337156812,51.47815533980585,-102.51161154116812,6.864864864864881,-24.40392156862745,-11.34893617021276,-15.067796610169495,-0.49803921568627274,4.0,-12.595041322314048,-18.62666666666667,11.675658302317697,61.39749288057212,50.01736581304187,1121.0247779237075,84.18519717993274,1436.5352600926649,1
-18.92758056484314,-85.46436178928397,-45.660155084998514,-121.43107466551575,124.5188337156812,51.47815533980585,-102.51161154116812,26.31531531531533,-4.482352941176469,-24.31914893617021,-18.29661016949153,-5.478431372549018,-17.0,-18.892561983471072,-3.9511111111111124,14.841941478660594,81.15168992502824,50.01736581304187,1121.0247779237075,84.18519717993274,1436.5352600926649,1
-18.457779042469944,-85.33950516139605,-45.527587235311664,-121.45299956840742,124.5188337156812,51.50617828773167,-102.69035890218152,26.31531531531533,-4.482352941176469,-24.31914893617021,-18.29661016949153,-5.478431372549018,-17.0,-18.892561983471072,-3.9511111111111124,14.841941478660594,81.15168992502824,49.77495714639255,1131.821435532927,84.10669732170504,1442.3069208648549,1
-18.457779042469944,-85.33950516139605,-45.527587235311664,-121.45299956840742,124.5188337156812,51.50617828773167,-102.69035890218152,8.009009009009025,-12.450980392156861,-16.753191489361697,-9.686440677966104,-2.490196078431371,-7.0,-7.347107438016527,-23.142222222222223,10.859893413395476,42.13041858775218,49.77495714639255,1131.821435532927,84.10669732170504,1442.3069208648549,1
-18.457779042469944,-85.33950516139605,-45.527587235311664,-121.45299956840742,124.5188337156812,51.50617828773167,-102.69035890218152,2.288288288288303,-1.4941176470588218,12.429787234042559,-10.762711864406782,-3.48627450980392,5.0,-6.297520661157023,-22.013333333333335,7.971504192261342,47.26355948218732,49.77495714639255,1131.821435532927,84.10669732170504,1442.3069208648549,1
-18.62040264636836,-85.75569392102246,-45.622278556516555,-121.45299956840742,124.5188337156812,51.50617828773167,-102.69035890218152,2.288288288288303,-1.4941176470588218,12.429787234042559,-10.762711864406782,-3.48627450980392,5.0,-6.297520661157023,-22.013333333333335,7.971504192261342,47.26355948218732,49.99945837463579,1141.1566110032745,84.27699068198216,1439.214484747668,1
-18.62040264636836,-85.75569392102246,-45.622278556516555,-121.45299956840742,124.5188337156812,51.50617828773167,-102.69035890218152,12.585585585585601,3.4862745098039234,-7.025531914893611,-10.762711864406782,-0.49803921568627274,-2.0,-6.297520661157023,-17.497777777777777,7.5191801911638745,33.35994436775216,49.99945837463579,1141.1566110032745,84.27699068198216,1439.214484747668,1
-18.62040264636836,-85.75569392102246,-45.622278556516555,-121.45299956840742,124.5188337156812,51.50617828773167,-102.69035890218152,12.585585585585601,1.4941176470588253,5.944680851063836,-8.610169491525426,2.4901960784313744,3.0,-4.198347107438014,-15.24,6.695387095137884,25.223247040401386,49.99945837463579,1141.1566110032745,84.27699068198216,1439.214484747668,1
-18.74688767162268,-85.25626740947077,-45.69803161348047,-121.43107466551575,124.5188337156812,51.53420123565755,-102.69035890218152,12.585585585585601,1.4941176470588253,5.944680851063836,-8.610169491525426,2.4901960784313744,3.0,-4.198347107438014,-15.24,6.695387095137884,25.223247040401386,49.900395564857966,1119.1192953631974,84.12845789615567,1434.8274182041005,1
-18.74688767162268,-85.25626740947077,-45.69803161348047,-121.43107466551575,124.5188337156812,51.53420123565755,-102.69035890218152,13.729729729729746,15.439215686274512,23.238297872340432,-6.45762711864407,10.458823529411767,3.0,2.0991735537190106,-3.9511111111111124,9.79674732515383,54.16986121184073,49.900395564857966,1119.1192953631974,84.12845789615567,1434.8274182041005,1
-18.74688767162268,-85.25626740947077,-45.69803161348047,-121.43107466551575,124.5188337156812,51.53420123565755,-102.69035890218152,28.60360360360362,8.466666666666669,-35.127659574468076,-12.915254237288138,-13.44705882352941,-5.0,-1.0495867768595017,-15.24,14.981228710301925,133.47025097037985,49.900395564857966,1119.1192953631974,84.12845789615567,1434.8274182041005,1
-18.65654122501245,-84.7984597738817,-45.641216820757535,-121.47492447129909,124.50003700140606,51.50617828773167,-102.51161154116812,28.60360360360362,8.466666666666669,-35.127659574468076,-12.915254237288138,-13.44705882352941,-5.0,-1.0495867768595017,-15.24,14.981228710301925,133.47025097037985,49.69873927321723,1106.0359636704748,83.97153368864612,1438.2006590697833,1
-18.65654122501245,-84.7984597738817,-45.641216820757535,-121.47492447129909,124.50003700140606,51.50617828773167,-102.51161154116812,9.15315315315317,-11.454901960784312,-17.834042553191484,-10.762711864406782,-2.490196078431371,-3.0,-11.545454545454543,-26.52888888888889,11.596168630538818,60.7707942325156,49.69873927321723,1106.0359636704748,83.97153368864612,1438.2006590697833,1
-18.65654122501245,-84.7984597738817,-45.641216820757535,-121.47492447129909,124.50003700140606,51.50617828773167,-102.51161154116812,6.864864864864881,-2.490196078431371,12.429787234042559,-7.5338983050847474,13.447058823529414,4.0,-6.297520661157023,-15.24,8.53791574588875,21.451199383831003,49.69873927321723,1106.0359636704748,83.97153368864612,1438.2006590697833,1
-18.83723411823291,-84.92331640176963,-45.679093349239494,-121.49684937419076,124.48124028713092,51.450132391879976,-102.24349049964803,6.864864864864881,-2.490196078431371,12.429787234042559,-7.5338983050847474,13.447058823529414,4.0,-6.297520661157023,-15.24,8.53791574588875,21.451199383831003,49.81321462308068,1104.6607869267161,84.03308637506662,1437.6774142900913,1
-18.83723411823291,-84.92331640176963,-45.679093349239494,-121.49684937419076,124.48124028713092,51.450132391879976,-102.24349049964803,9.15315315315317,3.4862745098039234,2.702127659574474,-13.991525423728817,-5.478431372549018,-4.0,-9.446280991735534,-27.657777777777778,9.48944636104034,68.39999553503877,49.81321462308068,1104.6607869267161,84.03308637506662,1437.6774142900913,1
-18.83723411823291,-84.92331640176963,-45.679093349239494,-121.49684937419076,124.48124028713092,51.450132391879976,-102.24349049964803,22.8828828828829,18.42745098039216,12.429787234042559,-7.5338983050847474,8.466666666666669,5.0,-6.297520661157023,-12.982222222222223,11.752553619056034,39.193955031489295,49.81321462308068,1104.6607869267161,84.03308637506662,1437.6774142900913,1
-18.981788432809278,-84.42388989021794,-45.716969877721446,-121.51877427708243,124.40605343003035,51.3660635481024,-101.70724841660797,22.8828828828829,18.42745098039216,12.429787234042559,-7.5338983050847474,8.466666666666669,5.0,-6.297520661157023,-12.982222222222223,11.752553619056034,39.193955031489295,49.707549400249555,1082.6107044846574,83.88654468167394,1436.6949424546044,1
-18.981788432809278,-84.42388989021794,-45.716969877721446,-121.51877427708243,124.40605343003035,51.3660635481024,-101.70724841660797,32.03603603603605,16.43529411764706,7.025531914893623,-23.677966101694917,8.466666666666669,0.0,8.396694214876035,-9.595555555555556,13.20421807592124,106.5547542380594,49.707549400249555,1082.6107044846574,83.88654468167394,1436.6949424546044,1
-18.981788432809278,-84.42388989021794,-45.716969877721446,-121.51877427708243,124.40605343003035,51.3660635481024,-101.70724841660797,3.4324324324324476,-15.439215686274508,4.863829787234049,-5.381355932203392,4.482352941176472,-3.0,-19.942148760330575,-29.915555555555557,10.807111386900875,98.59125747338042,49.707549400249555,1082.6107044846574,83.88654468167394,1436.6949424546044,1
-18.855303407554956,-84.5903653940685,-45.5844020280346,-121.51877427708243,124.36846000148007,51.31001765225065,-101.34975369458118,3.4324324324324476,-15.439215686274508,4.863829787234049,-5.381355932203392,4.482352941176472,-3.0,-19.942148760330575,-29.915555555555557,10.807111386900875,98.59125747338042,49.676690276552684,1092.834710924414,83.89784723306184,1441.8669082667343,1
-18.855303407554956,-84.5903653940685,-45.5844020280346,-121.51877427708243,124.36846000148007,51.31001765225065,-101.34975369458118,9.15315315315317,-33.36862745098039,-30.80425531914893,-12.915254237288138,4.482352941176472,2.0,-9.446280991735534,-17.497777777777777,14.958462733907552,134.62893273135538,49.676690276552684,1092.834710924414,83.89784723306184,1441.8669082667343,1
-18.855303407554956,-84.5903653940685,-45.5844020280346,-121.51877427708243,124.36846000148007,51.31001765225065,-101.34975369458118,16.018018018018033,22.411764705882355,19.995744680851068,3.228813559322031,14.443137254901963,8.0,-2.099173553719006,-10.724444444444446,12.115137027142362,55.275890189012635,49.676690276552684,1092.834710924414,83.89784723306184,1441.8669082667343,1
-19.035996300775416,-84.71522202195642,-45.679093349239494,-121.51877427708243,124.34966328720493,51.253971756398954,-101.0816326530612,16.018018018018033,22.411764705882355,19.995744680851068,3.228813559322031,14.443137254901963,8.0,-2.099173553719006,-10.724444444444446,12.115137027142362,55.275890189012635,49.8101038906571,1091.2391089034388,83.97102988275945,1438.3296672642878,1
-19.035996300775416,-84.71522202195642,-45.679093349239494,-121.51877427708243,124.34966328720493,51.253971756398954,-101.0816326530612,24.027027027027046,5.4784313725490215,-18.91489361702127,-8.610169491525426,-16.435294117647057,-13.0,2.0991735537190106,-10.724444444444446,12.41117920299166,52.2085192273194,49.8101038906571,1091.2391089034388,83.97102988275945,1438.3296672642878,1
-19.035996300775416,-84.71522202195642,-45.679093349239494,-121.51877427708243,124.34966328720493,51.253971756398954,-101.0816326530612,10.297297297297312,-10.458823529411763,-14.591489361702122,-13.991525423728817,-3.48627450980392,-3.0,-5.2479338842975185,-14.111111111111112,9.398056889669071,23.618036730565645,49.8101038906571,1091.2391089034388,83.97102988275945,1438.3296672642878,1
-18.981788432809278,-84.7984597738817,-45.660155084998514,-121.51877427708243,124.33086657292979,51.1979258605472,-100.81351161154112,10.297297297297312,-10.458823529411763,-14.591489361702122,-13.991525423728817,-3.48627450980392,-3.0,-5.2479338842975185,-14.111111111111112,9.398056889669071,23.618036730565645,49.813467763896504,1095.896061261207,83.99246304532089,1439.1197494772387,1
-18.981788432809278,-84.7984597738817,-45.660155084998514,-121.51877427708243,124.33086657292979,51.1979258605472,-100.81351161154112,8.009009009009025,-12.450980392156861,-11.34893617021276,4.305084745762709,2.4901960784313744,4.0,-11.545454545454543,-18.62666666666667,9.097040950961741,29.557902952789757,49.813467763896504,1095.896061261207,83.99246304532089,1439.1197494772387,1
-18.981788432809278,-84.7984597738817,-45.660155084998514,-121.51877427708243,124.33086657292979,51.1979258605472,-100.81351161154112,13.729729729729746,5.4784313725490215,24.31914893617022,-11.83898305084746,2.4901960784313744,0.0,-3.1487603305785106,-11.853333333333335,9.107322853954958,63.310265160463636,49.813467763896504,1095.896061261207,83.99246304532089,1439.1197494772387,1
-18.819164828910864,-84.7984597738817,-45.622278556516555,-121.5406991799741,124.31206985865465,51.16990291262138,-100.63476425052772,13.729729729729746,5.4784313725490215,24.31914893617022,-11.83898305084746,2.4901960784313744,0.0,-3.1487603305785106,-11.853333333333335,9.107322853954958,63.310265160463636,49.74663438643638,1101.0745736177087,83.98714583679079,1441.3953202184443,1
-18.819164828910864,-84.7984597738817,-45.622278556516555,-121.5406991799741,124.31206985865465,51.16990291262138,-100.63476425052772,13.729729729729746,26.39607843137255,50.25957446808511,-16.144067796610173,-10.458823529411763,-3.0,-7.347107438016527,-15.24,17.821922674153235,219.36733437689887,49.74663438643638,1101.0745736177087,83.98714583679079,1441.3953202184443,1
-18.819164828910864,-84.7984597738817,-45.622278556516555,-121.5406991799741,124.31206985865465,51.16990291262138,-100.63476425052772,33.1801801801802,13.447058823529414,-12.429787234042546,-9.686440677966104,-17.431372549019606,-7.0,-19.942148760330575,-9.595555555555556,15.339067972578,70.0564534123833,49.74663438643638,1101.0745736177087,83.98714583679079,1441.3953202184443,1
-18.71074909297859,-84.88169752580698,-45.56546376379362,-121.5406991799741,124.31206985865465,51.16990291262138,-100.63476425052772,33.1801801801802,13.447058823529414,-12.429787234042546,-9.686440677966104,-17.431372549019606,-7.0,-19.942148760330575,-9.595555555555556,15.339067972578,70.0564534123833,49.71930346085973,1107.5893922967005,83.99595348985822,1443.6475060089251,1
-18.71074909297859,-84.88169752580698,-45.56546376379362,-121.5406991799741,124.31206985865465,51.16990291262138,-100.63476425052772,6.864864864864881,-9.462745098039214,-21.076595744680844,-5.381355932203392,-0.49803921568627274,-5.0,-15.74380165289256,-20.884444444444444,10.61398086910145,59.69634691984834,49.71930346085973,1107.5893922967005,83.99595348985822,1443.6475060089251,1
-18.71074909297859,-84.88169752580698,-45.56546376379362,-121.5406991799741,124.31206985865465,51.16990291262138,-100.63476425052772,9.15315315315317,-7.470588235294116,-14.591489361702122,-11.83898305084746,9.462745098039218,4.0,1.7763568394002505e-15,-24.27111111111111,10.098508751268401,53.064904294303304,49.71930346085973,1107.5893922967005,83.99595348985822,1443.6475060089251,1
-18.638471935690404,-85.04817302965755,-45.56546376379362,-121.56262408286578,124.31206985865465,51.16990291262138,-100.63476425052772,9.15315315315317,-7.470588235294116,-14.591489361702122,-11.83898305084746,9.462745098039218,4.0,1.7763568394002505e-15,-24.27111111111111,10.098508751268401,53.064904294303304,49.75070290971386,1115.6992698789225,84.05875362543898,1444.626307208772,1
-18.638471935690404,-85.04817302965755,-45.56546376379362,-121.56262408286578,124.31206985865465,51.16990291262138,-100.63476425052772,12.585585585585601,-2.490196078431371,-23.238297872340418,-10.762711864406782,10.458823529411767,6.0,2.0991735537190106,-20.884444444444444,11.064904116042424,60.99274427491357,49.75070290971386,1115.6992698789225,84.05875362543898,1444.626307208772,1
-18.638471935690404,-85.04817302965755,-45.56546376379362,-121.56262408286578,124.31206985865465,51.16990291262138,-100.63476425052772,11.441441441441459,-20.419607843137253,-56.744680851063826,-20.449152542372886,-9.462745098039214,-1.0,-8.396694214876032,-26.52888888888889,19.305401359977445,295.60505745211856,49.75070290971386,1115.6992698789225,84.05875362543898,1444.626307208772,1
-18.65654122501245,-85.13141078158283,-45.56546376379362,-121.58454898575745,124.31206985865465,51.16990291262138,-100.63476425052772,11.441441441441459,-20.419607843137253,-56.744680851063826,-20.449152542372886,-9.462745098039214,-1.0,-8.396694214876032,-26.52888888888889,19.305401359977445,295.60505745211856,49.78447192346297,1118.0770930292792,84.0938078437113,1445.5327943885595,1
-18.65654122501245,-85.13141078158283,-45.56546376379362,-121.58454898575745,124.31206985865465,51.16990291262138,-100.63476425052772,32.03603603603605,8.466666666666669,-29.723404255319142,-2.152542372881358,-0.49803921568627274,3.0,-7.347107438016527,-9.595555555555556,11.602418942520197,152.0685661689542,49.78447192346297,1118.0770930292792,84.0938078437113,1445.5327943885595,1
-18.65654122501245,-85.13141078158283,-45.56546376379362,-121.58454898575745,124.31206985865465,51.16990291262138,-100.63476425052772,10.297297297297312,4.482352941176472,27.56170212765958,-6.45762711864407,-2.490196078431371,1.0,-4.198347107438014,-23.142222222222223,9.95371811160863,99.32168600840579,49.78447192346297,1118.0770930292792,84.0938078437113,1445.5327943885595,1
-18.65654122501245,-85.38112403735869,-45.48971070682971,-121.58454898575745,124.33086657292979,51.141879964695505,-100.63476425052772,10.297297297297312,4.482352941176472,27.56170212765958,-6.45762711864407,-2.490196078431371,1.0,-4.198347107438014,-23.142222222222223,9.95371811160863,99.32168600840579,49.84245865640028,1127.252298904781,84.15179457664863,1448.739541366269,1
-18.65654122501245,-85.38112403735869,-45.48971070682971,-121.58454898575745,124.33086657292979,51.141879964695505,-100.63476425052772,6.864864864864881,3.4862745098039234,11.348936170212772,-6.45762711864407,8.466666666666669,3.0,-5.2479338842975185,-15.24,7.514037901811229,16.939501364161842,49.84245865640028,1127.252298904781,84.15179457664863,1448.739541366269,1
-18.65654122501245,-85.38112403735869,-45.48971070682971,-121.58454898575745,124.33086657292979,51.141879964695505,-100.63476425052772,12.585585585585601,6.4745098039215705,10.268085106382985,-18.29661016949153,-11.454901960784312,-12.0,-18.892561983471072,-25.4,14.421531826204633,36.28211324229327,49.84245865640028,1127.252298904781,84.15179457664863,1448.739541366269,1
-18.4397097531479,-85.83893167294774,-45.603340292275576,-121.58454898575745,124.33086657292979,51.16990291262138,-100.72413793103442,12.585585585585601,6.4745098039215705,10.268085106382985,-18.29661016949153,-11.454901960784312,-12.0,-18.892561983471072,-25.4,14.421531826204633,36.28211324229327,49.9606605727904,1149.9034588688462,84.34227365032693,1444.9660075581178,1
-18.4397097531479,-85.83893167294774,-45.603340292275576,-121.58454898575745,124.33086657292979,51.16990291262138,-100.72413793103442,16.018018018018033,9.462745098039218,24.31914893617022,-3.2288135593220364,2.4901960784313744,-2.0,-10.49586776859504,-11.853333333333335,9.983515348988657,58.781126577792584,49.9606605727904,1149.9034588688462,84.34227365032693,1444.9660075581178,1
-18.4397097531479,-85.83893167294774,-45.603340292275576,-121.58454898575745,124.33086657292979,51.16990291262138,-100.72413793103442,21.738738738738753,15.439215686274512,10.268085106382985,-18.29661016949153,-7.470588235294116,-1.0,4.198347107438019,-9.595555555555556,11.000892574896934,49.92786461213315,49.9606605727904,1149.9034588688462,84.34227365032693,1444.9660075581178,1
-18.53005619975813,-85.67245616909717,-45.603340292275576,-121.58454898575745,124.33086657292979,51.16990291262138,-100.72413793103442,21.738738738738753,15.439215686274512,10.268085106382985,-18.29661016949153,-7.470588235294116,-1.0,4.198347107438019,-9.595555555555556,11.000892574896934,49.92786461213315,49.93528422037696,1141.099772057836,84.28678181571007,1444.7260886908375,1
-18.53005619975813,-85.67245616909717,-45.603340292275576,-121.58454898575745,124.33086657292979,51.16990291262138,-100.72413793103442,16.018018018018033,-20.419607843137253,-23.238297872340418,-21.525423728813564,-36.35686274509804,-10.0,-9.446280991735534,-17.497777777777777,19.312783622115077,72.89381013225412,49.93528422037696,1141.099772057836,84.28678181571007,1444.7260886908375,1
-18.53005619975813,-85.67245616909717,-45.603340292275576,-121.58454898575745,124.33086657292979,51.16990291262138,-100.72413793103442,6.864864864864881,-18.427450980392155,-17.834042553191484,-8.610169491525426,18.42745098039216,3.0,-10.49586776859504,-15.24,12.362480829870144,35.31853477268369,49.93528422037696,1141.099772057836,84.28678181571007,1444.7260886908375,1
-18.638471935690404,-85.58921841717189,-45.641216820757535,-121.56262408286578,124.33086657292979,51.16990291262138,-100.81351161154112,6.864864864864881,-18.427450980392155,-17.834042553191484,-8.610169491525426,18.42745098039216,3.0,-10.49586776859504,-15.24,12.362480829870144,35.31853477268369,49.95630239120661,1134.5655862171247,84.26435310693174,1442.331471232434,1
-18.638471935690404,-85.58921841717189,-45.641216820757535,-121.56262408286578,124.33086657292979,51.16990291262138,-100.81351161154112,9.15315315315317,4.482352941176472,-9.187234042553186,-19.372881355932208,5.4784313725490215,0.0,-11.545454545454543,-24.27111111111111,10.436327315241215,63.52109211485908,49.95630239120661,1134.5655862171247,84.26435310693174,1442.331471232434,1
-18.638471935690404,-85.58921841717189,-45.641216820757535,-121.56262408286578,124.33086657292979,51.16990291262138,-100.81351161154112,28.60360360360362,6.4745098039215705,-4.863829787234037,-10.762711864406782,-6.474509803921567,0.0,1.0495867768595062,-11.853333333333335,8.760260621660052,81.30904494681057,49.95630239120661,1134.5655862171247,84.26435310693174,1442.331471232434,1
-18.62040264636836,-85.96378830083566,-45.603340292275576,-121.56262408286578,124.33086657292979,51.1979258605472,-100.81351161154112,28.60360360360362,6.4745098039215705,-4.863829787234037,-10.762711864406782,-6.474509803921567,0.0,1.0495867768595062,-11.853333333333335,8.760260621660052,81.30904494681057,50.06251041315986,1148.6960464768183,84.37658422532566,1444.3426110778416,1
-18.62040264636836,-85.96378830083566,-45.603340292275576,-121.56262408286578,124.33086657292979,51.1979258605472,-100.81351161154112,10.297297297297312,-4.482352941176469,12.429787234042559,-11.83898305084746,14.443137254901963,2.0,-6.297520661157023,-20.884444444444444,10.334190360483404,36.40657523158269,50.06251041315986,1148.6960464768183,84.37658422532566,1444.3426110778416,1
-18.62040264636836,-85.96378830083566,-45.603340292275576,-121.56262408286578,124.33086657292979,51.1979258605472,-100.81351161154112,18.306306306306322,-5.478431372549018,-3.7829787234042493,-18.29661016949153,-3.48627450980392,3.0,-8.396694214876032,-17.497777777777777,9.780634134276106,49.53647298684425,50.06251041315986,1148.6960464768183,84.37658422532566,1444.3426110778416,1
-18.403571174503806,-86.17188268064886,-45.5844020280346,-121.5406991799741,124.33086657292979,51.1979258605472,-100.81351161154112,18.306306306306322,-5.478431372549018,-3.7829787234042493,-18.29661016949153,-3.48627450980392,3.0,-8.396694214876032,-17.497777777777777,9.780634134276106,49.53647298684425,50.05328529439576,1163.1141993347503,84.43232796288585,1444.6093072205017,1
-18.403571174503806,-86.17188268064886,-45.5844020280346,-121.5406991799741,124.33086657292979,51.1979258605472,-100.81351161154112,10.297297297297312,-8.466666666666665,-27.56170212765957,3.228813559322031,20.419607843137257,2.0,-10.49586776859504,-26.52888888888889,13.624855518945846,99.65764347331877,50.05328529439576,1163.1141993347503,84.43232796288585,1444.6093072205017,1
-18.403571174503806,-86.17188268064886,-45.5844020280346,-121.5406991799741,124.33086657292979,51.1979258605472,-100.81351161154112,4.576576576576592,0.4980392156862763,13.510638297872347,-4.305084745762714,-2.490196078431371,0.0,-5.2479338842975185,-24.27111111111111,6.862447488717241,66.90677642192092,50.05328529439576,1163.1141993347503,84.43232796288585,1444.6093072205017,1
-18.511986910436082,-86.33835818449943,-45.603340292275576,-121.5406991799741,124.31206985865465,51.22594880847308,-100.81351161154112,4.576576576576592,0.4980392156862763,13.510638297872347,-4.305084745762714,-2.490196078431371,0.0,-5.2479338842975185,-24.27111111111111,6.862447488717241,66.90677642192092,50.15122846240369,1165.616625157765,84.4941325522497,1444.1714948467666,1
-18.511986910436082,-86.33835818449943,-45.603340292275576,-121.5406991799741,124.31206985865465,51.22594880847308,-100.81351161154112,13.729729729729746,-2.490196078431371,26.480851063829792,-4.305084745762714,0.4980392156862763,1.0,-6.297520661157023,-11.853333333333335,8.331844353491283,77.21815152801854,50.15122846240369,1165.616625157765,84.4941325522497,1444.1714948467666,1
-18.511986910436082,-86.33835818449943,-45.603340292275576,-121.5406991799741,124.31206985865465,51.22594880847308,-100.81351161154112,6.864864864864881,-16.435294117647057,-3.7829787234042493,-2.152542372881358,15.439215686274512,-7.0,-6.297520661157023,-19.755555555555556,9.71599649772308,42.613578325529794,50.15122846240369,1165.616625157765,84.4941325522497,1444.1714948467666,1
-18.331294017215622,-86.13026380468622,-45.603340292275576,-121.51877427708243,124.31206985865465,51.22594880847308,-100.90288529204781,6.864864864864881,-16.435294117647057,-3.7829787234042493,-2.152542372881358,15.439215686274512,-7.0,-6.297520661157023,-19.755555555555556,9.71599649772308,42.613578325529794,50.02163270472581,1163.8160569420243,84.41745945801473,1442.9885533228744,1
-18.331294017215622,-86.13026380468622,-45.603340292275576,-121.51877427708243,124.31206985865465,51.22594880847308,-100.90288529204781,13.729729729729746,-9.462745098039214,-13.510638297872335,-15.067796610169495,-8.466666666666665,1.0,-4.198347107438014,-24.27111111111111,11.213379327628322,51.586179289697306,50.02163270472581,1163.8160569420243,84.41745945801473,1442.9885533228744,1
-18.331294017215622,-86.13026380468622,-45.603340292275576,-121.51877427708243,124.31206985865465,51.22594880847308,-100.90288529204781,29.747747747747766,-1.4941176470588218,-17.834042553191484,-5.381355932203392,19.423529411764708,-12.0,-10.49586776859504,20.88444444444444,14.657638188125707,83.28554940165556,50.02163270472581,1163.8160569420243,84.41745945801473,1442.9885533228744,1
-18.331294017215622,-86.2135015566115,-45.603340292275576,-121.51877427708243,124.31206985865465,51.22594880847308,-100.90288529204781,29.747747747747766,-1.4941176470588218,-17.834042553191484,-5.381355932203392,19.423529411764708,-12.0,-10.49586776859504,20.88444444444444,14.657638188125707,83.28554940165556,50.04937862203423,1166.823967727666,84.44520537532317,1443.133432813961,1
-18.331294017215622,-86.2135015566115,-45.603340292275576,-121.51877427708243,124.31206985865465,51.22594880847308,-100.90288529204781,2.288288288288303,-9.462745098039214,16.753191489361708,-41.97457627118644,-16.435294117647057,-8.0,-14.694214876033056,-31.044444444444444,17.581594323125028,168.31585559755817,50.04937862203423,1166.823967727666,84.44520537532317,1443.133432813961,1
-18.331294017215622,-86.2135015566115,-45.603340292275576,-121.51877427708243,124.31206985865465,51.22594880847308,-100.90288529204781,10.297297297297312,-13.44705882352941,-19.995744680851057,1.0762711864406764,5.4784313725490215,9.0,-15.74380165289256,-10.724444444444446,10.72038118225056,34.618216504320614,50.04937862203423,1166.823967727666,84.44520537532317,1443.133432813961,1
-17.771146048232197,-86.75454694412585,-45.96316731285417,-121.5406991799741,124.33086657292979,51.31001765225065,-101.1710063335679,10.297297297297312,-13.44705882352941,-19.995744680851057,1.0762711864406764,5.4784313725490215,9.0,-15.74380165289256,-10.724444444444446,10.72038118225056,34.618216504320614,50.16295343507073,1202.9060523951675,84.75280447898471,1430.9960604539442,1
-17.771146048232197,-86.75454694412585,-45.96316731285417,-121.5406991799741,124.33086657292979,51.31001765225065,-101.1710063335679,1.5987211554602254e-14,16.43529411764706,-21.076595744680844,-12.915254237288138,-4.482352941176469,10.0,-23.09090909090909,-35.56,15.445050766462703,127.22057114815324,50.16295343507073,1202.9060523951675,84.75280447898471,1430.9960604539442,1
-17.771146048232197,-86.75454694412585,-45.96316731285417,-121.5406991799741,124.33086657292979,51.31001765225065,-101.1710063335679,9.15315315315317,-2.490196078431371,5.944680851063836,-5.381355932203392,-33.36862745098039,-1.0,-23.09090909090909,-27.657777777777778,13.510837541814878,158.07795925793607,50.16295343507073,1202.9060523951675,84.75280447898471,1430.9960604539442,1
-16.05456356263783,-87.54530558741604,-47.099463167312855,-121.65032369443246,124.23688300155406,51.73036187113857,-102.24349049964803,9.15315315315317,-2.490196078431371,5.944680851063836,-5.381355932203392,-33.36862745098039,-1.0,-23.09090909090909,-27.657777777777778,13.510837541814878,158.07795925793607,50.233110772455575,1285.0963592982598,85.43169748305378,1392.8082057476292,1
-16.05456356263783,-87.54530558741604,-47.099463167312855,-121.65032369443246,124.23688300155406,51.73036187113857,-102.24349049964803,17.16216216216218,-4.482352941176469,-45.93617021276595,-16.144067796610173,-16.435294117647057,-9.0,-14.694214876033056,-12.982222222222223,17.10456054107714,154.3489948234496,50.233110772455575,1285.0963592982598,85.43169748305378,1392.8082057476292,1
-16.05456356263783,-87.54530558741604,-47.099463167312855,-121.65032369443246,124.23688300155406,51.73036187113857,-102.24349049964803,2.288288288288303,-4.482352941176469,45.936170212765965,-5.381355932203392,30.380392156862747,19.0,-8.396694214876032,-11.853333333333335,15.964823384938281,231.48400048867038,50.233110772455575,1285.0963592982598,85.43169748305378,1392.8082057476292,1
-14.807782599416662,-87.7117810912666,-50.887116015508504,-121.51877427708243,123.74816843040038,52.79523389232125,-103.85221674876846,2.288288288288303,-4.482352941176469,45.936170212765965,-5.381355932203392,30.380392156862747,19.0,-8.396694214876032,-11.853333333333335,15.964823384938281,231.48400048867038,51.135559902063925,1328.7945422984894,86.70589046128585,1247.9666491645535,1
-14.807782599416662,-87.7117810912666,-50.887116015508504,-121.51877427708243,123.74816843040038,52.79523389232125,-103.85221674876846,-4.57657657657656,-21.415686274509802,-14.591489361702122,-3.2288135593220364,26.39607843137255,-5.0,-1.0495867768595017,-28.78666666666667,13.130612205876155,125.01948886990014,51.135559902063925,1328.7945422984894,86.70589046128585,1247.9666491645535,1
-14.807782599416662,-87.7117810912666,-50.887116015508504,-121.51877427708243,123.74816843040038,52.79523389232125,-103.85221674876846,-21.738738738738725,-93.13333333333333,-68.63404255319148,-2.152542372881358,19.423529411764708,5.0,2.0991735537190106,-33.30222222222223,30.685447773231353,1120.6571663708837,51.135559902063925,1328.7945422984894,86.70589046128585,1247.9666491645535,1
-14.01273386924664,-87.87825659511716,-56.17089173874143,-120.37867932671558,122.43239843114038,54.89695498676079,-105.28219563687537,-21.738738738738725,-93.13333333333333,-68.63404255319148,-2.152542372881358,19.423529411764708,5.0,2.0991735537190106,-33.30222222222223,30.685447773231353,1120.6571663708837,52.68729406770175,1373.1304514417786,88.14260922019139,1030.7124084683896,1
-14.01273386924664,-87.87825659511716,-56.17089173874143,-120.37867932671558,122.43239843114038,54.89695498676079,-105.28219563687537,9.15315315315317,-45.32156862745098,-45.93617021276595,-22.60169491525424,-13.44705882352941,-14.0,-7.347107438016527,-37.81777777777778,24.45306636849351,262.30874264846807,52.68729406770175,1373.1304514417786,88.14260922019139,1030.7124084683896,1
-14.01273386924664,-87.87825659511716,-56.17089173874143,-120.37867932671558,122.43239843114038,54.89695498676079,-105.28219563687537,18.306306306306322,-20.419607843137253,14.591489361702134,20.44915254237288,-66.2392156862745,-8.0,-12.595041322314048,2.8222222222222193,20.427879410541173,380.4297539662897,52.68729406770175,1373.1304514417786,88.14260922019139,1030.7124084683896,1
-17.572383865689694,-87.9198754710798,-61.62511184014316,-117.79154078549848,120.30836971804929,57.27890556045898,-104.29908515130182,18.306306306306322,-20.419607843137253,14.591489361702134,20.44915254237288,-66.2392156862745,-8.0,-12.595041322314048,2.8222222222222193,20.427879410541173,380.4297539662897,55.70579039230423,1263.4711685947427,89.11217603224048,789.73312058952,1
-17.572383865689694,-87.9198754710798,-61.62511184014316,-117.79154078549848,120.30836971804929,57.27890556045898,-104.29908515130182,16.018018018018033,25.400000000000002,94.57446808510639,16.144067796610166,-18.427450980392155,4.0,-1.0495867768595017,-6.20888888888889,22.72781006823439,909.9277027310702,55.70579039230423,1263.4711685947427,89.11217603224048,789.73312058952,1
-17.572383865689694,-87.9198754710798,-61.62511184014316,-117.79154078549848,120.30836971804929,57.27890556045898,-104.29908515130182,4.576576576576592,-7.470588235294116,-42.69361702127659,-40.898305084745765,-26.396078431372548,-7.0,-17.84297520661157,-16.36888888888889,20.405878680595755,224.7196001893057,55.70579039230423,1263.4711685947427,89.11217603224048,789.73312058952,1
-23.04737853026962,-86.79616582008849,-66.17029525797793,-113.99853258523953,117.39487900540222,59.10039717563987,-98.48979591836735,4.576576576576592,-7.470588235294116,-42.69361702127659,-40.898305084745765,-26.396078431372548,-7.0,-17.84297520661157,-16.36888888888889,20.405878680595755,224.7196001893057,58.67127986944535,1058.1533940787294,88.98833122110197,575.4892633172656,1
-23.04737853026962,-86.79616582008849,-66.17029525797793,-113.99853258523953,117.39487900540222,59.10039717563987,-98.48979591836735,41.18918918918921,15.439215686274512,-39.45106382978723,-5.381355932203392,35.36078431372549,1.0,-2.099173553719006,-2.822222222222223,17.84287559089013,319.58213948390323,58.67127986944535,1058.1533940787294,88.98833122110197,575.4892633172656,1
-23.04737853026962,-86.79616582008849,-66.17029525797793,-113.99853258523953,117.39487900540222,59.10039717563987,-98.48979591836735,30.89189189189191,38.34901960784314,-15.672340425531909,-11.83898305084746,41.33725490196079,3.0,-1.0495867768595017,-24.27111111111111,20.801273470755724,236.7361927705003,58.67127986944535,1058.1533940787294,88.98833122110197,575.4892633172656,1
-30.022124208579356,-90.62510240865149,-69.78750372800478,-108.95580492015537,114.25582772145343,59.94108561341571,-89.01618578465866,30.89189189189191,38.34901960784314,-15.672340425531909,-11.83898305084746,41.33725490196079,3.0,-1.0495867768595017,-24.27111111111111,20.801273470755724,236.7361927705003,63.47824344841187,948.035315636341,89.78947035227054,384.062665269995,1
-30.022124208579356,-90.62510240865149,-69.78750372800478,-108.95580492015537,114.25582772145343,59.94108561341571,-89.01618578465866,33.1801801801802,33.3686274509804,12.429787234042559,-24.754237288135595,-11.454901960784312,-2.0,-5.2479338842975185,-0.5644444444444456,15.375014055358129,179.08675114982262,63.47824344841187,948.035315636341,89.78947035227054,384.062665269995,1
-30.022124208579356,-90.62510240865149,-69.78750372800478,-108.95580492015537,114.25582772145343,59.94108561341571,-89.01618578465866,11.441441441441459,22.411764705882355,27.56170212765958,-12.915254237288138,4.482352941176472,-5.0,3.148760330578515,-22.013333333333335,13.621826139669981,87.82926294219477,63.47824344841187,948.035315636341,89.78947035227054,384.062665269995,1
-30.85331151739347,-94.162706865476,-75.26066209364748,-103.0360811394044,110.64685858062607,60.97793468667257,-79.36382828993658,11.441441441441459,22.411764705882355,27.56170212765958,-12.915254237288138,4.482352941176472,-5.0,3.148760330578515,-22.013333333333335,13.621826139669981,87.82926294219477,66.75889349217232,1056.2299368497252,90.8198166995093,201.24966178813673,1
-30.85331151739347,-94.162706865476,-75.26066209364748,-103.0360811394044,110.64685858062607,60.97793468667257,-79.36382828993658,6.864864864864881,3.4862745098039234,21.07659574468086,-7.5338983050847474,-7.470588235294116,3.0,-9.446280991735534,-24.27111111111111,10.393701720321896,62.73706507749777,66.75889349217232,1056.2299368497252,90.8198166995093,201.24966178813673,1
-30.85331151739347,-94.162706865476,-75.26066209364748,-103.0360811394044,110.64685858062607,60.97793468667257,-79.36382828993658,24.027027027027046,8.466666666666669,7.025531914893623,-11.83898305084746,-6.474509803921567,-6.0,-2.099173553719006,-14.111111111111112,10.00537539102331,45.58443720640703,66.75889349217232,1056.2299368497252,90.8198166995093,201.24966178813673,1
-29.407768371629793,-98.40783221366542,-76.68103191172085,-96.9190332326284,107.35743358247613,62.827449249779335,-74.71639690358893,24.027027027027046,8.466666666666669,7.025531914893623,-11.83898305084746,-6.474509803921567,-6.0,-2.099173553719006,-14.111111111111112,10.00537539102331,45.58443720640703,68.16554416567202,1244.637351216079,90.66929911933823,147.3078452052618,1
-29.407768371629793,-98.40783221366542,-76.68103191172085,-96.9190332326284,107.35743358247613,62.827449249779335,-74.71639690358893,9.15315315315317,-2.490196078431371,18.91489361702128,2.1525423728813546,2.4901960784313744,1.0,-7.347107438016527,-11.853333333333335,6.925177758908551,38.6294011072065,68.16554416567202,1244.637351216079,90.66929911933823,147.3078452052618,1
-29.407768371629793,-98.40783221366542,-76.68103191172085,-96.9190332326284,107.35743358247613,62.827449249779335,-74.71639690358893,14.87387387387389,6.4745098039215705,-1.6212765957446749,-22.60169491525424,15.439215686274512,1.0,-5.2479338842975185,-27.657777777777778,11.864535317143023,97.47740405592172,68.16554416567202,1244.637351216079,90.66929911933823,147.3078452052618,1
-32.98548765739489,-101.27953465508767,-80.44974649567551,-89.57419076391886,103.5229038703471,64.36871138570169,-68.63898662913437,14.87387387387389,6.4745098039215705,-1.6212765957446749,-22.60169491525424,15.439215686274512,1.0,-5.2479338842975185,-27.657777777777778,11.864535317143023,97.47740405592172,71.57158960271936,1225.1354661927262,90.43449063822736,109.02510559679816,1
-32.98548765739489,-101.27953465508767,-80.44974649567551,-89.57419076391886,103.5229038703471,64.36871138570169,-68.63898662913437,26.31531531531533,19.423529411764708,-2.702127659574462,-5.381355932203392,1.4941176470588253,-1.0,-6.297520661157023,-12.982222222222223,9.449523606161996,86.1587253275238,71.57158960271936,1225.1354661927262,90.43449063822736,109.02510559679816,1
-32.98548765739489,-101.27953465508767,-80.44974649567551,-89.57419076391886,103.5229038703471,64.36871138570169,-68.63898662913437,59.49549549549552,-3.48627450980392,13.510638297872347,5.3813559322033875,3.4862745098039234,5.0,-2.099173553719006,-24.27111111111111,14.591290426251152,384.39512240082956,71.57158960271936,1225.1354661927262,90.43449063822736,109.02510559679816,1
-41.42384577079035,-103.56857283303295,-85.29794214136595,-80.49728096676736,98.9740990157626,64.87312444836718,-58.98662913441228,59.49549549549552,-3.48627450980392,13.510638297872347,5.3813559322033875,3.4862745098039234,5.0,-2.099173553719006,-24.27111111111111,14.591290426251152,384.39512240082956,76.76345358172975,1020.1198966410777,89.78793198038875,148.1911336604991,1
-41.42384577079035,-103.56857283303295,-85.29794214136595,-80.49728096676736,98.9740990157626,64.87312444836718,-58.98662913441228,57.207207207207226,-24.40392156862745,-16.753191489361697,-33.364406779661024,-4.482352941176469,-11.0,-7.347107438016527,11.853333333333332,20.80144009467297,305.1489594031388,76.76345358172975,1020.1198966410777,89.78793198038875,148.1911336604991,1
-41.42384577079035,-103.56857283303295,-85.29794214136595,-80.49728096676736,98.9740990157626,64.87312444836718,-58.98662913441228,45.765765765765785,7.4705882352941195,-2.702127659574462,-9.686440677966104,14.443137254901963,45.0,-9.446280991735534,-54.75111111111111,23.658181462043633,442.0411195881089,76.76345358172975,1020.1198966410777,89.78793198038875,148.1911336604991,1
-44.1161698797752,-106.1489431427167,-94.63450641216821,-70.63107466551574,93.89898616147416,65.68578993821714,-51.389866291344106,45.765765765765785,7.4705882352941195,-2.702127659574462,-9.686440677966104,14.443137254901963,45.0,-9.446280991735534,-54.75111111111111,23.658181462043633,442.0411195881089,81.63320647822003,1088.791589652238,90.4715080734669,328.377661666959,1
-44.1161698797752,-106.1489431427167,-94.63450641216821,-70.63107466551574,93.89898616147416,65.68578993821714,-51.389866291344106,-13.729729729729716,-30.380392156862744,-1.6212765957446749,-12.915254237288138,-6.474509803921567,8.0,-6.297520661157023,-20.884444444444444,12.537890953643538,86.43634611115725,81.63320647822003,1088.791589652238,90.4715080734669,328.377661666959,1
-44.1161698797752,-106.1489431427167,-94.63450641216821,-70.63107466551574,93.89898616147416,65.68578993821714,-51.389866291344106,-51.48648648648647,-30.380392156862744,-24.31914893617021,-10.762711864406782,-8.466666666666665,-20.0,-10.49586776859504,-18.62666666666667,21.817242568231823,200.27818564380667,81.63320647822003,1088.791589652238,90.4715080734669,328.377661666959,1
-56.07803941096962,-111.64263476978536,-110.78884580972263,-57.3226586102719,86.81262487974544,65.65776699029126,-40.57565095003508,-51.48648648648647,-30.380392156862744,-24.31914893617021,-10.762711864406782,-8.466666666666665,-20.0,-10.49586776859504,-18.62666666666667,21.817242568231823,200.27818564380667,92.83650666349256,1013.5709249631809,93.25137972992663,968.3369898675242,1
-56.07803941096962,-111.64263476978536,-110.78884580972263,-57.3226586102719,86.81262487974544,65.65776699029126,-40.57565095003508,36.61261261261263,87.15686274509804,11.348936170212772,-8.610169491525426,0.4980392156862763,2.0,1.7763568394002505e-15,5.079999999999998,18.913327529391893,901.1540391350562,92.83650666349256,1013.5709249631809,93.25137972992663,968.3369898675242,1
-56.07803941096962,-111.64263476978536,-110.78884580972263,-57.3226586102719,86.81262487974544,65.65776699029126,-40.57565095003508,-10.297297297297284,26.39607843137255,31.885106382978726,6.457627118644066,-1.4941176470588218,-9.0,-1.0495867768595017,-19.755555555555556,13.291921151220812,131.76612819618546,92.83650666349256,1013.5709249631809,93.25137972992663,968.3369898675242,1
-70.67802518318275,-127.0,-124.84103787652847,-40.13353474320242,78.18493302745506,63.50000000000003,-27.79521463757908,-10.297297297297284,26.39607843137255,31.885106382978726,6.457627118644066,-1.4941176470588218,-9.0,-1.0495867768595017,-19.755555555555556,13.291921151220812,131.76612819618546,107.50635435323709,1018.4096514560517,97.3248575399103,2454.300831790575,1
-70.67802518318275,-127.0,-124.84103787652847,-40.13353474320242,78.18493302745506,63.50000000000003,-27.79521463757908,1.5987211554602254e-14,-13.44705882352941,-18.91489361702127,-27.98305084745763,-2.490196078431371,-4.0,-8.396694214876032,-25.4,12.578986697664465,113.38086082930032,107.50635435323709,1018.4096514560517,97.3248575399103,2454.300831790575,1
-70.67802518318275,-127.0,-124.84103787652847,-40.13353474320242,78.18493302745506,63.50000000000003,-27.79521463757908,17.16216216216218,-0.49803921568627274,-27.56170212765957,-27.98305084745763,-5.478431372549018,-6.0,-8.396694214876032,-9.595555555555556,12.834454436993282,106.89900242078693,107.50635435323709,1018.4096514560517,97.3248575399103,2454.300831790575,1
-87.35597922743116,-126.12600360478454,-126.94318520727707,-21.650841605524377,68.27906460445499,57.559135039717575,-9.026741731175207,17.16216216216218,-0.49803921568627274,-27.56170212765957,-27.98305084745763,-5.478431372549018,-6.0,-8.396694214876032,-9.595555555555556,12.834454436993282,106.89900242078693,113.47505601316425,511.8215755471292,91.57334347252866,3667.0341469487767,1
-87.35597922743116,-126.12600360478454,-126.94318520727707,-21.650841605524377,68.27906460445499,57.559135039717575,-9.026741731175207,14.87387387387389,-13.44705882352941,14.591489361702134,20.44915254237288,3.4862745098039234,0.0,-5.2479338842975185,-17.497777777777777,11.199195096669692,53.660899597038124,113.47505601316425,511.8215755471292,91.57334347252866,3667.0341469487767,1
-87.35597922743116,-126.12600360478454,-126.94318520727707,-21.650841605524377,68.27906460445499,57.559135039717575,-9.026741731175207,27.459459459459477,16.43529411764706,-5.944680851063824,-90.40677966101696,-31.376470588235293,-8.0,-6.297520661157023,-8.466666666666669,24.29835900065579,809.9157088763534,113.47505601316425,511.8215755471292,91.57334347252866,3667.0341469487767,1
-104.41338834744255,-112.97443880058988,-126.31822248732477,-3.2339231765213583,56.53111818249094,47.554942630185366,16.80225193525689,27.459459459459477,16.43529411764706,-5.944680851063824,-90.40677966101696,-31.376470588235293,-8.0,-6.297520661157023,-8.466666666666669,24.29835900065579,809.9157088763534,114.56868321178574,121.8616511059094,80.84219482147867,4561.797011557706,1
-104.41338834744255,-112.97443880058988,-126.31822248732477,-3.2339231765213583,56.53111818249094,47.554942630185366,16.80225193525689,4.576576576576592,-8.466666666666665,-19.995744680851057,-12.915254237288138,-7.470588235294116,0.0,-6.297520661157023,-15.24,9.370293882229198,40.65284150079505,114.56868321178574,121.8616511059094,80.84219482147867,4561.797011557706,1
-104.41338834744255,-112.97443880058988,-126.31822248732477,-3.2339231765213583,56.53111818249094,47.554942630185366,16.80225193525689,13.729729729729746,11.454901960784316,10.268085106382985,-4.305084745762714,-1.4941176470588218,-4.0,-6.297520661157023,-17.497777777777777,8.630902203581673,30.25874031454947,114.56868321178574,121.8616511059094,80.84219482147867,4561.797011557706,1
-119.35669061677456,-97.5754546944126,-127.0,14.76642209753993,42.58395619033524,33.87974404236539,46.92118226600985,13.729729729729746,11.454901960784316,10.268085106382985,-4.305084745762714,-1.4941176470588218,-4.0,-6.297520661157023,-17.497777777777777,8.630902203581673,30.25874031454947,114.64404843706238,233.1077138456431,79.78062559731751,3386.58595914301,1
-119.35669061677456,-97.5754546944126,-127.0,14.76642209753993,42.58395619033524,33.87974404236539,46.92118226600985,18.306306306306322,2.4901960784313744,25.400000000000006,18.296610169491522,13.447058823529414,0.0,-10.49586776859504,-23.142222222222223,13.947282671071989,84.51191430448792,114.64404843706238,233.1077138456431,79.78062559731751,3386.58595914301,1
-119.35669061677456,-97.5754546944126,-127.0,14.76642209753993,42.58395619033524,33.87974404236539,46.92118226600985,32.03603603603605,-2.490196078431371,-28.642553191489355,-15.067796610169495,-1.4941176470588218,-3.0,-3.1487603305785106,-5.080000000000002,11.369932486720451,156.09908436657093,114.64404843706238,233.1077138456431,79.78062559731751,3386.58595914301,1
-127.0,-83.34179911518926,-125.71219803161348,30.859300820025894,27.64056834159699,18.327007943512797,75.16326530612253,32.03603603603605,-2.490196078431371,-28.642553191489355,-15.067796610169495,-1.4941176470588218,-3.0,-3.1487603305785106,-5.080000000000002,11.369932486720451,156.09908436657093,112.01799904893424,617.157940457532,79.9710993222762,2257.7892401784584,1
-127.0,-83.34179911518926,-125.71219803161348,30.859300820025894,27.64056834159699,18.327007943512797,75.16326530612253,12.585585585585601,2.4901960784313744,10.268085106382985,33.36440677966102,7.4705882352941195,5.0,-6.297520661157023,-18.62666666666667,12.01288113914735,99.45170180223116,112.01799904893424,617.157940457532,79.9710993222762,2257.7892401784584,1
