Gyro 0,Gyro 1,Gyro 2,Orientation 0,Orientation 1,Orientation 2,Orientation 3,Sensor 0,Sensor 1,Sensor 2,Sensor 3,Sensor 4,Sensor 5,Sensor 6,Sensor 7,Sensor Mean,Sensor Variance,Gyro Mean,Gyro Variance,Orientation Mean,Orientation Variance,Label
-6.456765412329875,-82.621908943841,-48.05966489579076,124.3643212508884,-125.35216134264158,122.38409876543209,-126.95367499544045,-6.474509803921567,-12.450980392156861,-3.848484848484847,-1.4941176470588218,-17.431372549019606,7.025531914893618,7.169354838709674,8.683760683760674,8.072264084750708,24.673718501947445,45.71277975065388,1454.4131747072713,85.01529836350672,1459.8963800530114,1
-6.456765412329875,-82.621908943841,-48.05966489579076,124.3643212508884,-125.35216134264158,122.38409876543209,-126.95367499544045,-10.458823529411763,-10.458823529411763,0.5497835497835519,6.4745098039215705,8.466666666666669,8.106382978723405,-4.09677419354839,5.427350427350417,6.754889334852191,11.372122839858601,45.71277975065388,1454.4131747072713,85.01529836350672,1459.8963800530114,1
-6.456765412329875,-82.621908943841,-48.05966489579076,124.3643212508884,-125.35216134264158,122.38409876543209,-126.95367499544045,-1.4941176470588218,7.4705882352941195,14.844155844155846,0.4980392156862763,7.4705882352941195,11.348936170212767,4.096774193548384,14.1111111111111,7.666788831545179,29.84527576719908,45.71277975065388,1454.4131747072713,85.01529836350672,1459.8963800530114,1
-6.456765412329875,-82.621908943841,-48.05966489579076,124.3643212508884,-125.35216134264158,122.38409876543209,-126.95367499544045,1.4941176470588253,24.403921568627453,50.03030303030304,19.423529411764708,4.482352941176472,15.672340425531916,4.096774193548384,11.94017094017093,16.442938769772717,248.5987988098736,45.71277975065388,1454.4131747072713,85.01529836350672,1459.8963800530114,1
-6.456765412329875,-82.621908943841,-48.05966489579076,124.3643212508884,-125.35216134264158,122.38409876543209,-126.95367499544045,12.450980392156865,18.42745098039216,-0.5497835497835477,0.4980392156862763,11.454901960784316,3.7829787234042556,14.338709677419352,18.45299145299144,9.994479494077277,55.38120003467993,45.71277975065388,1454.4131747072713,85.01529836350672,1459.8963800530114,1
-6.456765412329875,-82.621908943841,-48.05966489579076,124.3643212508884,-125.35216134264158,122.38409876543209,-126.95367499544045,-5.478431372549018,-11.454901960784312,4.94805194805195,-7.470588235294116,1.4941176470588253,5.944680851063831,-5.120967741935486,8.683760683760674,6.324437555062277,8.676634426402481,45.71277975065388,1454.4131747072713,85.01529836350672,1459.8963800530114,1
-6.482185748598891,-82.38710422925816,-48.00776460972619,124.29211087420043,-125.31633876313379,122.50953086419752,-127.0,-5.478431372549018,-11.454901960784312,4.94805194805195,-7.470588235294116,1.4941176470588253,5.944680851063831,-5.120967741935486,8.683760683760674,6.324437555062277,8.676634426402481,45.62568486252775,1444.6448903303917,84.89565990439493,1459.5450099309971,1
-6.482185748598891,-82.38710422925816,-48.00776460972619,124.29211087420043,-125.31633876313379,122.50953086419752,-127.0,-7.470588235294116,-6.474509803921567,-11.545454545454543,2.4901960784313744,3.4862745098039234,18.914893617021278,-9.217741935483874,2.1709401709401615,7.721324862043855,31.411965723824494,45.62568486252775,1444.6448903303917,84.89565990439493,1459.5450099309971,1
-6.482185748598891,-82.38710422925816,-48.00776460972619,124.29211087420043,-125.31633876313379,122.50953086419752,-127.0,14.443137254901963,15.439215686274512,-37.935064935064936,-4.482352941176469,-16.435294117647057,8.106382978723405,12.290322580645158,16.28205128205127,15.676727722060598,98.86363693344101,45.62568486252775,1444.6448903303917,84.89565990439493,1459.5450099309971,1
-6.583867093674951,-82.56320776519529,-48.02506470508105,124.29211087420043,-125.29842747337989,122.58479012345677,-127.0,14.443137254901963,15.439215686274512,-37.935064935064936,-4.482352941176469,-16.435294117647057,8.106382978723405,12.290322580645158,16.28205128205127,15.676727722060598,98.86363693344101,45.7240465213171,1447.1860657312452,84.96012778149225,1458.4745020140408,1
-6.583867093674951,-82.56320776519529,-48.02506470508105,124.29211087420043,-125.29842747337989,122.58479012345677,-127.0,10.458823529411767,29.3843137254902,-3.848484848484847,-18.427450980392155,14.443137254901963,7.025531914893618,2.048387096774191,6.512820512820503,11.518618732896154,81.47901158173495,45.7240465213171,1447.1860657312452,84.96012778149225,1458.4745020140408,1
-6.583867093674951,-82.56320776519529,-48.02506470508105,124.29211087420043,-125.29842747337989,122.58479012345677,-127.0,11.454901960784316,5.4784313725490215,-42.333333333333336,-7.470588235294116,3.4862745098039234,19.995744680851065,9.217741935483868,15.196581196581185,14.329199653085105,156.3468355852138,45.7240465213171,1447.1860657312452,84.96012778149225,1458.4745020140408,1
-6.405924739791844,-82.79801247977815,-48.042364800435905,124.29211087420043,-125.29842747337989,122.66004938271604,-126.97683749772023,11.454901960784316,5.4784313725490215,-42.333333333333336,-7.470588235294116,3.4862745098039234,19.995744680851065,9.217741935483868,15.196581196581185,14.329199653085105,156.3468355852138,45.74876734000196,1462.8832093013234,85.04416271813817,1457.289837248356,1
-6.405924739791844,-82.79801247977815,-48.042364800435905,124.29211087420043,-125.29842747337989,122.66004938271604,-126.97683749772023,-4.482352941176469,-6.474509803921567,-0.5497835497835477,-5.478431372549018,-30.380392156862744,3.7829787234042556,1.0241935483870943,10.854700854700845,7.878417868848192,93.13187873032821,45.74876734000196,1462.8832093013234,85.04416271813817,1457.289837248356,1
-6.405924739791844,-82.79801247977815,-48.042364800435905,124.29211087420043,-125.29842747337989,122.66004938271604,-126.97683749772023,-5.478431372549018,-21.415686274509802,-6.047619047619046,-8.466666666666665,3.4862745098039234,9.187234042553193,9.217741935483868,4.341880341880332,8.455191773883232,32.19412809130376,45.74876734000196,1462.8832093013234,85.04416271813817,1457.289837248356,1
-6.609287429943967,-82.85671365842386,-48.12886527721019,124.25600568585645,-125.28051618362599,122.7102222222222,-126.95367499544045,-5.478431372549018,-21.415686274509802,-6.047619047619046,-8.466666666666665,3.4862745098039234,9.187234042553193,9.217741935483868,4.341880341880332,8.455191773883232,32.19412809130376,45.86495545519267,1457.261467378541,85.08052820716351,1452.5443900598252,1
-6.609287429943967,-82.85671365842386,-48.12886527721019,124.25600568585645,-125.28051618362599,122.7102222222222,-126.95367499544045,-1.4941176470588218,-19.423529411764704,-7.1471861471861455,5.4784313725490215,4.482352941176472,12.429787234042553,-2.0483870967741957,14.1111111111111,8.326862870207876,40.545520780917464,45.86495545519267,1457.261467378541,85.08052820716351,1452.5443900598252,1
-6.609287429943967,-82.85671365842386,-48.12886527721019,124.25600568585645,-125.28051618362599,122.7102222222222,-126.95367499544045,1.4941176470588253,-7.470588235294116,-12.645021645021643,12.450980392156865,2.4901960784313744,15.672340425531916,8.193548387096772,16.28205128205127,9.587355511580348,31.669890807986842,45.86495545519267,1457.261467378541,85.08052820716351,1452.5443900598252,1
-6.43134507606086,-83.0915183730067,-48.180765563274754,124.29211087420043,-125.28051618362599,122.78548148148147,-126.93051249316068,1.4941176470588253,-7.470588235294116,-12.645021645021643,12.450980392156865,2.4901960784313744,15.672340425531916,8.193548387096772,16.28205128205127,9.587355511580348,31.669890807986842,45.90120967078078,1473.0928237796952,85.18813160349396,1451.5310615384328,1
-6.43134507606086,-83.0915183730067,-48.180765563274754,124.29211087420043,-125.28051618362599,122.78548148148147,-126.93051249316068,-3.48627450980392,0.4980392156862763,10.445887445887449,-1.4941176470588218,-7.470588235294116,10.26808510638298,-4.09677419354839,11.94017094017093,6.21249216172911,19.369305060538814,45.90120967078078,1473.0928237796952,85.18813160349396,1451.5310615384328,1
-6.43134507606086,-83.0915183730067,-48.180765563274754,124.29211087420043,-125.28051618362599,122.78548148148147,-126.93051249316068,-2.490196078431371,-3.48627450980392,21.441558441558445,-2.490196078431371,8.466666666666669,11.348936170212767,-4.09677419354839,9.76923076923076,7.948729113485461,41.64893721105585,45.90120967078078,1473.0928237796952,85.18813160349396,1451.5310615384328,1
-6.5330264211369204,-83.032817194361,-48.1634654679199,124.25600568585645,-125.28051618362599,122.86074074074072,-126.9073499908809,-2.490196078431371,-3.48627450980392,21.441558441558445,-2.490196078431371,8.466666666666669,11.348936170212767,-4.09677419354839,9.76923076923076,7.948729113485461,41.64893721105585,45.90976969447261,1466.8638555662058,85.15076278271245,1450.882939340986,1
-6.5330264211369204,-83.032817194361,-48.1634654679199,124.25600568585645,-125.28051618362599,122.86074074074072,-126.9073499908809,18.42745098039216,30.380392156862747,6.04761904761905,14.443137254901963,17.43137254901961,18.914893617021278,7.169354838709674,20.62393162393161,16.679769008557262,60.05309823369282,45.90976969447261,1466.8638555662058,85.15076278271245,1450.882939340986,1
-6.5330264211369204,-83.032817194361,-48.1634654679199,124.25600568585645,-125.28051618362599,122.86074074074072,-126.9073499908809,-4.482352941176469,-1.4941176470588218,14.844155844155846,2.4901960784313744,-12.450980392156861,7.025531914893618,13.314516129032254,9.76923076923076,8.233885214517,26.228315692317455,45.90976969447261,1466.8638555662058,85.15076278271245,1450.882939340986,1
-6.685548438751012,-82.85671365842386,-48.042364800435905,124.18379530916843,-125.2626048938721,122.93599999999998,-126.88418748860113,-4.482352941176469,-1.4941176470588218,14.844155844155846,2.4901960784313744,-12.450980392156861,7.025531914893618,13.314516129032254,9.76923076923076,8.233885214517,26.228315692317455,45.86154229920359,1454.0785928170856,85.02762458934274,1452.9140006815232,1
-6.685548438751012,-82.85671365842386,-48.042364800435905,124.18379530916843,-125.2626048938721,122.93599999999998,-126.88418748860113,-11.454901960784312,-11.454901960784312,6.04761904761905,-1.4941176470588218,-19.423529411764704,10.26808510638298,6.145161290322578,3.2564102564102466,8.693090835140875,32.53589957291443,45.86154229920359,1454.0785928170856,85.02762458934274,1452.9140006815232,1
-6.685548438751012,-82.85671365842386,-48.042364800435905,124.18379530916843,-125.2626048938721,122.93599999999998,-126.88418748860113,1.4941176470588253,7.4705882352941195,8.246753246753249,2.4901960784313744,-3.48627450980392,8.106382978723405,2.048387096774191,13.025641025641015,5.7960426023100124,16.461425963805027,45.86154229920359,1454.0785928170856,85.02762458934274,1452.9140006815232,1
-6.990592473979195,-83.032817194361,-48.05966489579076,124.07547974413643,-125.2088710246104,123.06143209876541,-126.88418748860113,1.4941176470588253,7.4705882352941195,8.246753246753249,2.4901960784313744,-3.48627450980392,8.106382978723405,2.048387096774191,13.025641025641015,5.7960426023100124,16.461425963805027,46.02769152137699,1448.7016719520063,85.05598727809605,1447.6709396552828,1
-6.990592473979195,-83.032817194361,-48.05966489579076,124.07547974413643,-125.2088710246104,123.06143209876541,-126.88418748860113,-4.482352941176469,-23.4078431372549,-39.03463203463203,-13.44705882352941,-3.48627450980392,17.83404255319149,6.145161290322578,13.025641025641015,15.107875789443977,140.59981793082017,46.02769152137699,1448.7016719520063,85.05598727809605,1447.6709396552828,1
-6.990592473979195,-83.032817194361,-48.05966489579076,124.07547974413643,-125.2088710246104,123.06143209876541,-126.88418748860113,0.4980392156862763,1.4941176470588253,9.346320346320349,-4.482352941176469,-26.396078431372548,4.863829787234043,-2.0483870967741957,7.598290598290588,7.090927007989162,70.00219461664949,46.02769152137699,1448.7016719520063,85.05598727809605,1447.6709396552828,1
-7.270216172938362,-82.91541483706958,-48.05966489579076,123.89495380241647,-125.13722586559481,123.18686419753084,-126.86102498632135,0.4980392156862763,1.4941176470588253,9.346320346320349,-4.482352941176469,-26.396078431372548,4.863829787234043,-2.0483870967741957,7.598290598290588,7.090927007989162,70.00219461664949,46.0817653019329,1433.4830853365072,84.95667784509227,1440.8728268887885,1
-7.270216172938362,-82.91541483706958,-48.05966489579076,123.89495380241647,-125.13722586559481,123.18686419753084,-126.86102498632135,-12.450980392156861,-27.392156862745097,34.63636363636364,21.415686274509806,10.458823529411767,12.429787234042553,-8.193548387096776,7.598290598290588,16.821954614327137,98.37086771380066,46.0817653019329,1433.4830853365072,84.95667784509227,1440.8728268887885,1
-7.270216172938362,-82.91541483706958,-48.05966489579076,123.89495380241647,-125.13722586559481,123.18686419753084,-126.86102498632135,-3.48627450980392,-3.48627450980392,10.445887445887449,7.4705882352941195,21.415686274509806,14.591489361702129,2.048387096774191,10.854700854700845,9.224911036059547,43.14374354104908,46.0817653019329,1433.4830853365072,84.95667784509227,1440.8728268887885,1
-6.761809447558058,-82.621908943841,-48.146165372565044,123.85884861407249,-125.11931457584092,123.2621234567901,-126.86102498632135,-3.48627450980392,-3.48627450980392,10.445887445887449,7.4705882352941195,21.415686274509806,14.591489361702129,2.048387096774191,10.854700854700845,9.224911036059547,43.14374354104908,45.843294587988034,1442.666084284331,84.87564097682618,1436.9120819645882,1
-6.761809447558058,-82.621908943841,-48.146165372565044,123.85884861407249,-125.11931457584092,123.2621234567901,-126.86102498632135,14.443137254901963,48.30980392156863,29.13852813852814,1.4941176470588253,15.439215686274512,10.26808510638298,9.217741935483868,19.538461538461526,18.481136403582553,210.2613649461637,45.843294587988034,1442.666084284331,84.87564097682618,1436.9120819645882,1
-6.761809447558058,-82.621908943841,-48.146165372565044,123.85884861407249,-125.11931457584092,123.2621234567901,-126.86102498632135,1.4941176470588253,0.4980392156862763,8.246753246753249,-10.458823529411763,5.4784313725490215,15.672340425531916,2.048387096774191,8.683760683760674,6.57258165219074,27.07496810952307,45.843294587988034,1442.666084284331,84.87564097682618,1436.9120819645882,1
-6.6601281024819965,-82.50450658654958,-48.19806565862961,123.85884861407249,-125.10140328608702,123.33738271604938,-126.88418748860113,1.4941176470588253,0.4980392156862763,8.246753246753249,-10.458823529411763,5.4784313725490215,15.672340425531916,2.048387096774191,8.683760683760674,6.57258165219074,27.07496810952307,45.78756678255373,1442.4503155322955,84.85380695308389,1435.2779285168076,1
-6.6601281024819965,-82.50450658654958,-48.19806565862961,123.85884861407249,-125.10140328608702,123.33738271604938,-126.88418748860113,-3.48627450980392,2.4901960784313744,26.939393939393945,-1.4941176470588218,4.482352941176472,7.025531914893618,7.169354838709674,6.512820512820503,7.450005297786041,66.50913639250545,45.78756678255373,1442.4503155322955,84.85380695308389,1435.2779285168076,1
-6.6601281024819965,-82.50450658654958,-48.19806565862961,123.85884861407249,-125.10140328608702,123.33738271604938,-126.88418748860113,-1.4941176470588218,-8.466666666666665,-24.740259740259738,-0.49803921568627274,-10.458823529411763,11.348936170212767,4.096774193548384,13.025641025641015,9.26615727356068,60.56974097905866,45.78756678255373,1442.4503155322955,84.85380695308389,1435.2779285168076,1
-6.558446757405936,-82.50450658654958,-48.12886527721019,123.85884861407249,-125.10140328608702,123.41264197530862,-126.88418748860113,-1.4941176470588218,-8.466666666666665,-24.740259740259738,-0.49803921568627274,-10.458823529411763,11.348936170212767,4.096774193548384,13.025641025641015,9.26615727356068,60.56974097905866,45.73060620705524,1446.2647358186516,84.83074015927743,1437.816116026525,1
-6.558446757405936,-82.50450658654958,-48.12886527721019,123.85884861407249,-125.10140328608702,123.41264197530862,-126.88418748860113,3.4862745098039234,-0.49803921568627274,2.7489177489177514,12.450980392156865,10.458823529411767,10.26808510638298,4.096774193548384,11.94017094017093,6.993508204509858,22.55488010380194,45.73060620705524,1446.2647358186516,84.83074015927743,1437.816116026525,1
-6.558446757405936,-82.50450658654958,-48.12886527721019,123.85884861407249,-125.10140328608702,123.41264197530862,-126.88418748860113,-16.435294117647057,-35.36078431372549,9.346320346320349,5.4784313725490215,-1.4941176470588218,10.26808510638298,-2.0483870967741957,5.427350427350417,10.732346303476042,122.53182836684732,45.73060620705524,1446.2647358186516,84.83074015927743,1437.816116026525,1
-6.2534027221777535,-82.21100069332101,-48.26726604004904,123.85884861407249,-125.10140328608702,123.38755555555554,-126.86102498632135,-16.435294117647057,-35.36078431372549,9.346320346320349,5.4784313725490215,-1.4941176470588218,10.26808510638298,-2.0483870967741957,5.427350427350417,10.732346303476042,122.53182836684732,45.57722315184927,1447.8164204417224,84.7790384491475,1433.4679524478643,1
-6.2534027221777535,-82.21100069332101,-48.26726604004904,123.85884861407249,-125.10140328608702,123.38755555555554,-126.86102498632135,0.4980392156862763,-15.439215686274508,-22.541125541125542,-2.490196078431371,-4.482352941176469,7.025531914893618,2.048387096774191,9.76923076923076,8.036759905449092,57.89830130171269,45.57722315184927,1447.8164204417224,84.7790384491475,1433.4679524478643,1
-6.2534027221777535,-82.21100069332101,-48.26726604004904,123.85884861407249,-125.10140328608702,123.38755555555554,-126.86102498632135,-0.49803921568627274,-11.454901960784312,-17.043290043290042,-11.454901960784312,3.4862745098039234,4.863829787234043,2.048387096774191,16.28205128205127,8.391459482051047,42.132947473952626,45.57722315184927,1447.8164204417224,84.7790384491475,1433.4679524478643,1
-6.329663730984799,-81.97619597873816,-48.33646642146846,123.85884861407249,-125.11931457584092,123.38755555555554,-126.86102498632135,-0.49803921568627274,-11.454901960784312,-17.043290043290042,-11.454901960784312,3.4862745098039234,4.863829787234043,2.048387096774191,16.28205128205127,8.391459482051047,42.132947473952626,45.54744204373048,1436.4334530123099,84.7238370047597,1431.569701417346,1
-6.329663730984799,-81.97619597873816,-48.33646642146846,123.85884861407249,-125.11931457584092,123.38755555555554,-126.86102498632135,-0.49803921568627274,-8.466666666666665,-15.943722943722943,-0.49803921568627274,-8.466666666666665,1.621276595744682,9.217741935483868,15.196581196581185,7.488591804529819,38.28094326431598,45.54744204373048,1436.4334530123099,84.7238370047597,1431.569701417346,1
-6.329663730984799,-81.97619597873816,-48.33646642146846,123.85884861407249,-125.11931457584092,123.38755555555554,-126.86102498632135,0.4980392156862763,11.454901960784316,8.246753246753249,8.466666666666669,9.462745098039218,10.26808510638298,-3.0725806451612927,16.28205128205127,8.468977902690659,23.84151059049665,45.54744204373048,1436.4334530123099,84.7238370047597,1431.569701417346,1
-6.355084067253815,-82.32840305061244,-48.35376651682331,123.89495380241647,-125.11931457584092,123.38755555555554,-126.83786248404158,0.4980392156862763,11.454901960784316,8.246753246753249,8.466666666666669,9.462745098039218,10.26808510638298,-3.0725806451612927,16.28205128205127,8.468977902690659,23.84151059049665,45.67908454489652,1448.3517420750024,84.85904112328409,1431.4208409204066,1
-6.355084067253815,-82.32840305061244,-48.35376651682331,123.89495380241647,-125.11931457584092,123.38755555555554,-126.83786248404158,-11.454901960784312,-3.48627450980392,17.043290043290046,5.4784313725490215,4.482352941176472,19.995744680851065,-2.6645352591003757e-15,6.512820512820503,8.556727002659418,48.63619185303911,45.67908454489652,1448.3517420750024,84.85904112328409,1431.4208409204066,1
-6.3805044035228295,-82.56320776519529,-48.474867184307314,123.85884861407249,-125.11931457584092,123.36246913580246,-126.81469998176182,-11.454901960784312,-3.48627450980392,17.043290043290046,5.4784313725490215,4.482352941176472,19.995744680851065,-2.6645352591003757e-15,6.512820512820503,8.556727002659418,48.63619185303911,45.80619311767515,1456.2924388285815,84.96564118785835,1425.0149288135415,1
-6.3805044035228295,-82.56320776519529,-48.474867184307314,123.85884861407249,-125.11931457584092,123.36246913580246,-126.81469998176182,10.458823529411767,-8.466666666666665,-43.43290043290043,-5.478431372549018,-2.490196078431371,15.672340425531916,7.169354838709674,14.1111111111111,13.409978056913992,165.88968985753215,45.80619311767515,1456.2924388285815,84.96564118785835,1425.0149288135415,1
-6.3805044035228295,-82.56320776519529,-48.474867184307314,123.85884861407249,-125.11931457584092,123.36246913580246,-126.81469998176182,2.4901960784313744,3.4862745098039234,-13.744588744588743,3.4862745098039234,1.4941176470588253,1.621276595744682,-3.0725806451612927,15.196581196581185,5.573986240896744,30.872313214449246,45.80619311767515,1456.2924388285815,84.96564118785835,1425.0149288135415,1
-6.43134507606086,-82.1522995146753,-48.474867184307314,123.85884861407249,-125.13722586559481,123.36246913580246,-126.81469998176182,2.4901960784313744,3.4862745098039234,-13.744588744588743,3.4862745098039234,1.4941176470588253,1.621276595744682,-3.0725806451612927,15.196581196581185,5.573986240896744,30.872313214449246,45.68617059168116,1439.2483567879751,84.82867177101836,1426.0583903916872,1
-6.43134507606086,-82.1522995146753,-48.474867184307314,123.85884861407249,-125.13722586559481,123.36246913580246,-126.81469998176182,-1.4941176470588218,5.4784313725490215,24.740259740259745,4.482352941176472,-0.49803921568627274,13.51063829787234,2.048387096774191,5.427350427350417,7.20994709234091,66.42689339895989,45.68617059168116,1439.2483567879751,84.82867177101836,1426.0583903916872,1
-6.43134507606086,-82.1522995146753,-48.474867184307314,123.85884861407249,-125.13722586559481,123.36246913580246,-126.81469998176182,-1.4941176470588218,-1.4941176470588218,8.246753246753249,-3.48627450980392,20.419607843137257,14.591489361702129,5.120967741935481,8.683760683760674,7.9421360851512945,44.501653697642965,45.68617059168116,1439.2483567879751,84.82867177101836,1426.0583903916872,1
-6.685548438751012,-82.38710422925816,-48.474867184307314,123.75053304904048,-125.11931457584092,123.33738271604938,-126.7452124749225,-1.4941176470588218,-1.4941176470588218,8.246753246753249,-3.48627450980392,20.419607843137257,14.591489361702129,5.120967741935481,8.683760683760674,7.9421360851512945,44.501653697642965,45.8491732841055,1437.8520886189842,84.87083482086865,1421.233156083515,1
-6.685548438751012,-82.38710422925816,-48.474867184307314,123.75053304904048,-125.11931457584092,123.33738271604938,-126.7452124749225,10.458823529411767,2.4901960784313744,-33.53679653679654,-9.462745098039214,2.4901960784313744,13.51063829787234,10.241935483870964,19.538461538461526,12.716224080164388,101.65951992634713,45.8491732841055,1437.8520886189842,84.87083482086865,1421.233156083515,1
-6.685548438751012,-82.38710422925816,-48.474867184307314,123.75053304904048,-125.11931457584092,123.33738271604938,-126.7452124749225,2.4901960784313744,0.4980392156862763,-11.545454545454543,-0.49803921568627274,-13.44705882352941,10.26808510638298,11.26612903225806,10.854700854700845,7.60846285901622,29.6988833495137,45.8491732841055,1437.8520886189842,84.87083482086865,1421.233156083515,1
-6.990592473979195,-82.56320776519529,-48.474867184307314,123.64221748400854,-125.10140328608702,123.33738271604938,-126.67572496808317,2.4901960784313744,0.4980392156862763,-11.545454545454543,-0.49803921568627274,-13.44705882352941,10.26808510638298,11.26612903225806,10.854700854700845,7.60846285901622,29.6988833495137,46.00955580782727,1432.3633656257887,84.89343081117038,1416.6050923524936,1
-6.990592473979195,-82.56320776519529,-48.474867184307314,123.64221748400854,-125.10140328608702,123.33738271604938,-126.67572496808317,-7.470588235294116,-5.478431372549018,21.441558441558445,-6.474509803921567,-9.462745098039214,10.26808510638298,5.120967741935481,10.854700854700845,9.571448331797708,27.65822527772543,46.00955580782727,1432.3633656257887,84.89343081117038,1416.6050923524936,1
-6.990592473979195,-82.56320776519529,-48.474867184307314,123.64221748400854,-125.10140328608702,123.33738271604938,-126.67572496808317,4.482352941176472,-3.48627450980392,-7.1471861471861455,13.447058823529414,7.4705882352941195,16.753191489361704,6.145161290322578,14.1111111111111,9.13036556847318,24.37260472800363,46.00955580782727,1432.3633656257887,84.89343081117038,1416.6050923524936,1
-6.914331465172149,-82.97411601571528,-48.42296689824274,123.53390191897654,-125.08349199633312,123.38755555555554,-126.62939996352362,4.482352941176472,-3.48627450980392,-7.1471861471861455,13.447058823529414,7.4705882352941195,16.753191489361704,6.145161290322578,14.1111111111111,9.13036556847318,24.37260472800363,46.103804793043395,1450.3065911214046,84.97699494431153,1413.4217829241848,1
-6.914331465172149,-82.97411601571528,-48.42296689824274,123.53390191897654,-125.08349199633312,123.38755555555554,-126.62939996352362,-2.490196078431371,-4.482352941176469,-6.047619047619046,-3.48627450980392,-16.435294117647057,2.7021276595744688,-1.0241935483870996,2.1709401709401615,4.854874759197449,24.23489133625178,46.103804793043395,1450.3065911214046,84.97699494431153,1413.4217829241848,1
-6.914331465172149,-82.97411601571528,-48.42296689824274,123.53390191897654,-125.08349199633312,123.38755555555554,-126.62939996352362,7.4705882352941195,21.415686274509806,7.14718614718615,-8.466666666666665,-22.41176470588235,12.429787234042553,13.314516129032254,15.196581196581185,13.481597073649386,35.454224562372744,46.103804793043395,1450.3065911214046,84.97699494431153,1413.4217829241848,1
-6.888911128903134,-82.97411601571528,-48.38836670753303,123.42558635394454,-125.06558070657923,123.41264197530862,-126.5599124566843,7.4705882352941195,21.415686274509806,7.14718614718615,-8.466666666666665,-22.41176470588235,12.429787234042553,13.314516129032254,15.196581196581185,13.481597073649386,35.454224562372744,46.08379795071715,1451.2228785332147,84.92935635906429,1410.513306666146,1
-6.888911128903134,-82.97411601571528,-48.38836670753303,123.42558635394454,-125.06558070657923,123.41264197530862,-126.5599124566843,-0.49803921568627274,11.454901960784316,17.043290043290046,1.4941176470588253,-4.482352941176469,8.106382978723405,-1.0241935483870996,13.025641025641015,7.141114920093431,38.960856579869414,46.08379795071715,1451.2228785332147,84.92935635906429,1410.513306666146,1
-6.888911128903134,-82.97411601571528,-48.38836670753303,123.42558635394454,-125.06558070657923,123.41264197530862,-126.5599124566843,-10.458823529411763,-18.427450980392155,-31.337662337662337,15.439215686274512,18.42745098039216,12.429787234042553,-5.120967741935486,-1.0854700854700958,14.090853571947633,86.06175460013442,46.08379795071715,1451.2228785332147,84.92935635906429,1410.513306666146,1
-6.863490792634119,-83.32632308758956,-48.42296689824274,123.3172707889126,-125.06558070657923,123.43772839506171,-126.44409994528543,-10.458823529411763,-18.427450980392155,-31.337662337662337,15.439215686274512,18.42745098039216,12.429787234042553,-5.120967741935486,-1.0854700854700958,14.090853571947633,86.06175460013442,46.20426025948881,1465.3331750032582,85.02218692491498,1404.4461544330625,1
-6.863490792634119,-83.32632308758956,-48.42296689824274,123.3172707889126,-125.06558070657923,123.43772839506171,-126.44409994528543,-1.4941176470588218,-3.48627450980392,-28.038961038961038,-9.462745098039214,2.4901960784313744,10.26808510638298,10.241935483870964,7.598290598290588,9.135075695104863,70.96891793232028,46.20426025948881,1465.3331750032582,85.02218692491498,1404.4461544330625,1
-6.863490792634119,-83.32632308758956,-48.42296689824274,123.3172707889126,-125.06558070657923,123.43772839506171,-126.44409994528543,1.4941176470588253,-4.482352941176469,-0.5497835497835477,-2.490196078431371,-3.48627450980392,12.429787234042553,4.096774193548384,9.76923076923076,4.849814615384479,17.07667838872616,46.20426025948881,1465.3331750032582,85.02218692491498,1404.4461544330625,1
-6.990592473979195,-83.032817194361,-48.371066612178176,123.2089552238806,-125.04766941682533,123.48790123456789,-126.3746124384461,1.4941176470588253,-4.482352941176469,-0.5497835497835477,-2.490196078431371,-3.48627450980392,12.429787234042553,4.096774193548384,9.76923076923076,4.849814615384479,17.07667838872616,46.131492093506125,1449.3667556247756,84.87094634347325,1402.7114320410067,1
-6.990592473979195,-83.032817194361,-48.371066612178176,123.2089552238806,-125.04766941682533,123.48790123456789,-126.3746124384461,6.4745098039215705,-13.44705882352941,-33.53679653679654,-18.427450980392155,-0.49803921568627274,12.429787234042553,-8.193548387096776,17.367521367521356,13.79683904362333,98.24584091307482,46.131492093506125,1449.3667556247756,84.87094634347325,1402.7114320410067,1
-6.990592473979195,-83.032817194361,-48.371066612178176,123.2089552238806,-125.04766941682533,123.48790123456789,-126.3746124384461,3.4862745098039234,19.423529411764708,-4.948051948051946,-3.48627450980392,10.458823529411767,11.348936170212767,2.048387096774191,15.196581196581185,8.799607296550551,39.98821939930537,46.131492093506125,1449.3667556247756,84.87094634347325,1402.7114320410067,1
-6.965172137710179,-83.15021955165243,-48.371066612178176,123.06453447050461,-125.02975812707143,123.53807407407406,-126.28196242932701,3.4862745098039234,19.423529411764708,-4.948051948051946,-3.48627450980392,10.458823529411767,11.348936170212767,2.048387096774191,15.196581196581185,8.799607296550551,39.98821939930537,46.16215276718026,1454.699837647125,84.86194021144506,1396.9760258885817,1
-6.965172137710179,-83.15021955165243,-48.371066612178176,123.06453447050461,-125.02975812707143,123.53807407407406,-126.28196242932701,1.4941176470588253,12.450980392156865,28.03896103896104,7.4705882352941195,-4.482352941176469,15.672340425531916,5.120967741935481,20.62393162393161,11.919280005755791,82.85472095650354,46.16215276718026,1454.699837647125,84.86194021144506,1396.9760258885817,1
-6.965172137710179,-83.15021955165243,-48.371066612178176,123.06453447050461,-125.02975812707143,123.53807407407406,-126.28196242932701,-3.48627450980392,-16.435294117647057,-20.341991341991342,-2.490196078431371,-13.44705882352941,5.944680851063831,6.145161290322578,8.683760683760674,9.621802212068772,41.567342401993976,46.16215276718026,1454.699837647125,84.86194021144506,1396.9760258885817,1
-6.990592473979195,-82.97411601571528,-48.28456613540389,122.99232409381665,-125.01184683731753,123.61333333333332,-126.23563742476746,-3.48627450980392,-16.435294117647057,-20.341991341991342,-2.490196078431371,-13.44705882352941,5.944680851063831,6.145161290322578,8.683760683760674,9.621802212068772,41.567342401993976,46.08309154169945,1447.008830244435,84.75033541497861,1397.6784913089355,1
-6.990592473979195,-82.97411601571528,-48.28456613540389,122.99232409381665,-125.01184683731753,123.61333333333332,-126.23563742476746,-5.478431372549018,-7.470588235294116,19.242424242424246,5.4784313725490215,4.482352941176472,9.187234042553193,12.290322580645158,8.683760683760674,9.039193183868989,23.34391122612099,46.08309154169945,1447.008830244435,84.75033541497861,1397.6784913089355,1
-6.990592473979195,-82.97411601571528,-48.28456613540389,122.99232409381665,-125.01184683731753,123.61333333333332,-126.23563742476746,-2.490196078431371,-5.478431372549018,18.142857142857146,0.4980392156862763,1.4941176470588253,1.621276595744682,-4.09677419354839,11.94017094017093,5.72023289825583,38.29560658764721,46.08309154169945,1447.008830244435,84.75033541497861,1397.6784913089355,1
-7.168534827862301,-82.79801247977815,-48.3191663261136,122.81179815209669,-124.97602425780974,123.66350617283949,-126.18931242020791,-2.490196078431371,-5.478431372549018,18.142857142857146,0.4980392156862763,1.4941176470588253,1.621276595744682,-4.09677419354839,11.94017094017093,5.72023289825583,38.29560658764721,46.09523787791802,1433.6638657824299,84.64299231932948,1389.84101204663,1
-7.168534827862301,-82.79801247977815,-48.3191663261136,122.81179815209669,-124.97602425780974,123.66350617283949,-126.18931242020791,0.4980392156862763,9.462745098039218,6.04761904761905,-1.4941176470588218,8.466666666666669,12.429787234042553,-2.6645352591003757e-15,16.28205128205127,6.835128273895483,35.16215606481709,46.09523787791802,1433.6638657824299,84.64299231932948,1389.84101204663,1
-7.168534827862301,-82.79801247977815,-48.3191663261136,122.81179815209669,-124.97602425780974,123.66350617283949,-126.18931242020791,-8.466666666666665,0.4980392156862763,20.341991341991346,-11.454901960784312,-0.49803921568627274,11.348936170212767,5.120967741935481,9.76923076923076,8.437346635274235,42.591701133686165,46.09523787791802,1433.6638657824299,84.64299231932948,1389.84101204663,1
-7.092273819055255,-82.79801247977815,-48.30186623075875,122.70348258706468,-124.94020167830197,123.73876543209875,-126.1198249133686,-8.466666666666665,0.4980392156862763,20.341991341991346,-11.454901960784312,-0.49803921568627274,11.348936170212767,5.120967741935481,9.76923076923076,8.437346635274235,42.591701133686165,46.06405084319738,1436.595579823023,84.60112043253386,1386.338527824701,1
-7.092273819055255,-82.79801247977815,-48.30186623075875,122.70348258706468,-124.94020167830197,123.73876543209875,-126.1198249133686,-10.458823529411763,-17.431372549019606,9.346320346320349,2.4901960784313744,-7.470588235294116,5.944680851063831,-2.0483870967741957,4.341880341880332,7.441531128524446,25.425738342362767,46.06405084319738,1436.595579823023,84.60112043253386,1386.338527824701,1
-7.092273819055255,-82.79801247977815,-48.30186623075875,122.70348258706468,-124.94020167830197,123.73876543209875,-126.1198249133686,16.43529411764706,62.254901960784316,40.134199134199136,-3.48627450980392,-10.458823529411763,8.106382978723405,-10.24193548387097,18.45299145299144,21.196350395929002,399.27545296610833,46.06405084319738,1436.595579823023,84.60112043253386,1386.338527824701,1
-6.6601281024819965,-82.97411601571528,-48.45756708895245,122.70348258706468,-124.94020167830197,123.73876543209875,-126.1198249133686,16.43529411764706,62.254901960784316,40.134199134199136,-3.48627450980392,-10.458823529411763,8.106382978723405,-10.24193548387097,18.45299145299144,21.196350395929002,399.27545296610833,46.030603735716575,1460.3738011437415,84.71172189724415,1380.3784476878484,1
-6.6601281024819965,-82.97411601571528,-48.45756708895245,122.70348258706468,-124.94020167830197,123.73876543209875,-126.1198249133686,-4.482352941176469,-7.470588235294116,7.14718614718615,25.400000000000002,1.4941176470588253,9.187234042553193,6.145161290322578,4.341880341880332,8.20856508068396,53.76452998653036,46.030603735716575,1460.3738011437415,84.71172189724415,1380.3784476878484,1
-6.6601281024819965,-82.97411601571528,-48.45756708895245,122.70348258706468,-124.94020167830197,123.73876543209875,-126.1198249133686,-3.48627450980392,-6.474509803921567,-1.6493506493506471,0.4980392156862763,0.4980392156862763,10.26808510638298,6.145161290322578,4.341880341880332,4.170167516629322,11.459422549889743,46.030603735716575,1460.3738011437415,84.71172189724415,1380.3784476878484,1
-6.6601281024819965,-82.97411601571528,-48.45756708895245,122.70348258706468,-124.94020167830197,123.73876543209875,-126.1198249133686,4.482352941176472,-11.454901960784312,-23.64069264069264,-6.474509803921567,8.466666666666669,16.753191489361704,7.169354838709674,17.367521367521356,11.976148963604299,44.29529390628761,46.030603735716575,1460.3738011437415,84.71172189724415,1380.3784476878484,1
-6.6601281024819965,-82.97411601571528,-48.45756708895245,122.70348258706468,-124.94020167830197,123.73876543209875,-126.1198249133686,-2.490196078431371,-15.439215686274508,10.445887445887449,7.4705882352941195,19.423529411764708,13.51063829787234,7.169354838709674,9.76923076923076,10.714830095433115,28.240628498464016,46.030603735716575,1460.3738011437415,84.71172189724415,1380.3784476878484,1
-6.202562049639723,-82.73931130113243,-48.682468328565584,122.73958777540867,-124.95811296805584,123.71367901234566,-126.09666241108883,-2.490196078431371,-15.439215686274508,10.445887445887449,7.4705882352941195,19.423529411764708,13.51063829787234,7.169354838709674,9.76923076923076,10.714830095433115,28.240628498464016,45.874780559779246,1470.3808294517119,84.72045580170223,1374.0579353400994,1
-6.202562049639723,-82.73931130113243,-48.682468328565584,122.73958777540867,-124.95811296805584,123.71367901234566,-126.09666241108883,-10.458823529411763,-17.431372549019606,-2.748917748917747,-9.462745098039214,-4.482352941176469,4.863829787234043,-3.0725806451612927,2.1709401709401615,6.836445308737536,27.763716800467964,45.874780559779246,1470.3808294517119,84.72045580170223,1374.0579353400994,1
-6.202562049639723,-82.73931130113243,-48.682468328565584,122.73958777540867,-124.95811296805584,123.71367901234566,-126.09666241108883,13.447058823529414,11.454901960784316,-20.341991341991342,-8.466666666666665,-0.49803921568627274,15.672340425531916,8.193548387096772,21.709401709401696,12.47299356633605,48.173904759406376,45.874780559779246,1470.3808294517119,84.72045580170223,1374.0579353400994,1
-6.304243394715784,-82.91541483706958,-48.699768423920446,122.73958777540867,-124.95811296805584,123.71367901234566,-126.07349990880905,13.447058823529414,11.454901960784316,-20.341991341991342,-8.466666666666665,-0.49803921568627274,15.672340425531916,8.193548387096772,21.709401709401696,12.47299356633605,48.173904759406376,45.973142218568604,1472.8937652902148,84.78492367879956,1373.0950098822323,1
-6.304243394715784,-82.91541483706958,-48.699768423920446,122.73958777540867,-124.95811296805584,123.71367901234566,-126.07349990880905,12.450980392156865,18.42745098039216,-12.645021645021643,-3.48627450980392,-0.49803921568627274,12.429787234042553,-10.24193548387097,10.854700854700845,10.129273789459404,31.900067364502593,45.973142218568604,1472.8937652902148,84.78492367879956,1373.0950098822323,1
-6.304243394715784,-82.91541483706958,-48.699768423920446,122.73958777540867,-124.95811296805584,123.71367901234566,-126.07349990880905,1.4941176470588253,-14.44313725490196,-10.445887445887445,4.482352941176472,9.462745098039218,12.429787234042553,10.241935483870964,13.025641025641015,9.503200516327308,19.452259337013295,45.973142218568604,1472.8937652902148,84.78492367879956,1373.0950098822323,1
-6.2534027221777535,-83.20892073029813,-48.699768423920446,122.73958777540867,-124.97602425780974,123.71367901234566,-126.07349990880905,1.4941176470588253,-14.44313725490196,-10.445887445887445,4.482352941176472,9.462745098039218,12.429787234042553,10.241935483870964,13.025641025641015,9.503200516327308,19.452259337013295,46.05403062546545,1485.787884348165,84.8827589765424,1372.575013256195,1
-6.2534027221777535,-83.20892073029813,-48.699768423920446,122.73958777540867,-124.97602425780974,123.71367901234566,-126.07349990880905,0.4980392156862763,9.462745098039218,2.7489177489177514,0.4980392156862763,13.447058823529414,12.429787234042553,-5.120967741935486,9.76923076923076,6.746848230883467,27.203096202908075,46.05403062546545,1485.787884348165,84.8827589765424,1372.575013256195,1
-6.2534027221777535,-83.20892073029813,-48.699768423920446,122.73958777540867,-124.97602425780974,123.71367901234566,-126.07349990880905,22.411764705882355,38.34901960784314,-25.839826839826838,-2.490196078431371,-40.34117647058824,2.7021276595744688,10.241935483870964,18.45299145299144,20.1036297873761,213.3867048075095,46.05403062546545,1485.787884348165,84.8827589765424,1372.575013256195,1
-6.482185748598891,-83.56112780217241,-48.64786813785587,122.73958777540867,-124.97602425780974,123.68859259259258,-126.05033740652928,22.411764705882355,38.34901960784314,-25.839826839826838,-2.490196078431371,-40.34117647058824,2.7021276595744688,10.241935483870964,18.45299145299144,20.1036297873761,213.3867048075095,46.23039389620906,1489.6739633063055,84.98286123847897,1373.9117241853655,1
-6.482185748598891,-83.56112780217241,-48.64786813785587,122.73958777540867,-124.97602425780974,123.68859259259258,-126.05033740652928,-4.482352941176469,-3.48627450980392,20.341991341991346,3.4862745098039234,-11.454901960784312,10.26808510638298,5.120967741935481,11.94017094017093,8.82262738150617,34.41809023381034,46.23039389620906,1489.6739633063055,84.98286123847897,1373.9117241853655,1
-6.482185748598891,-83.56112780217241,-48.64786813785587,122.73958777540867,-124.97602425780974,123.68859259259258,-126.05033740652928,-8.466666666666665,-22.41176470588235,7.14718614718615,-2.490196078431371,-3.48627450980392,10.26808510638298,7.169354838709674,10.854700854700845,9.036778613470494,37.82284392783239,46.23039389620906,1489.6739633063055,84.98286123847897,1373.9117241853655,1
-6.812650120096088,-83.61982898081813,-48.56136766108159,122.63127221037666,-124.97602425780974,123.73876543209875,-125.95768739741018,-8.466666666666665,-22.41176470588235,7.14718614718615,-2.490196078431371,-3.48627450980392,10.26808510638298,7.169354838709674,10.854700854700845,9.036778613470494,37.82284392783239,46.33128225399861,1478.5656418279,84.93748961742546,1372.889862150369,1
-6.812650120096088,-83.61982898081813,-48.56136766108159,122.63127221037666,-124.97602425780974,123.73876543209875,-125.95768739741018,-10.458823529411763,-0.49803921568627274,32.43722943722944,5.4784313725490215,-19.423529411764704,3.7829787234042556,8.193548387096772,3.2564102564102466,10.441123791694059,112.71549057718028,46.33128225399861,1478.5656418279,84.93748961742546,1372.889862150369,1
-6.812650120096088,-83.61982898081813,-48.56136766108159,122.63127221037666,-124.97602425780974,123.73876543209875,-125.95768739741018,-6.474509803921567,-16.435294117647057,10.445887445887449,-3.48627450980392,-3.48627450980392,16.753191489361704,11.26612903225806,9.76923076923076,9.764598959739304,26.530967128437958,46.33128225399861,1478.5656418279,84.93748961742546,1372.889862150369,1
-6.863490792634119,-83.73723133810955,-48.45756708895245,122.52295664534472,-124.97602425780974,123.78893827160492,-125.81871238373154,-6.474509803921567,-16.435294117647057,10.445887445887449,-3.48627450980392,-3.48627450980392,16.753191489361704,11.26612903225806,9.76923076923076,9.764598959739304,26.530967128437958,46.35276307323204,1480.7156463217132,84.9059183574689,1372.4448545469495,1
-6.863490792634119,-83.73723133810955,-48.45756708895245,122.52295664534472,-124.97602425780974,123.78893827160492,-125.81871238373154,15.439215686274512,35.36078431372549,14.844155844155846,1.4941176470588253,4.482352941176472,10.26808510638298,17.41129032258064,23.880341880341867,15.397542967712079,116.22999738257688,46.35276307323204,1480.7156463217132,84.9059183574689,1372.4448545469495,1
-6.863490792634119,-83.73723133810955,-48.45756708895245,122.52295664534472,-124.97602425780974,123.78893827160492,-125.81871238373154,-4.482352941176469,-16.435294117647057,-1.6493506493506471,-8.466666666666665,8.466666666666669,12.429787234042553,-2.6645352591003757e-15,5.427350427350417,7.1696835878625595,29.860066917220227,46.35276307323204,1480.7156463217132,84.9059183574689,1372.4448545469495,1
-7.168534827862301,-83.44372544488098,-48.42296689824274,122.41464108031272,-124.95811296805584,123.86419753086417,-125.74922487689221,-4.482352941176469,-16.435294117647057,-1.6493506493506471,-8.466666666666665,8.466666666666669,12.429787234042553,-2.6645352591003757e-15,5.427350427350417,7.1696835878625595,29.860066917220227,46.345075723662006,1457.7143997156838,84.76044447447882,1369.9922738185792,1
-7.168534827862301,-83.44372544488098,-48.42296689824274,122.41464108031272,-124.95811296805584,123.86419753086417,-125.74922487689221,-1.4941176470588218,1.4941176470588253,-4.948051948051946,-16.435294117647057,-12.450980392156861,9.187234042553193,11.26612903225806,8.683760683760674,8.24496068881818,28.142488126038725,46.345075723662006,1457.7143997156838,84.76044447447882,1369.9922738185792,1
-7.168534827862301,-83.44372544488098,-48.42296689824274,122.41464108031272,-124.95811296805584,123.86419753086417,-125.74922487689221,8.466666666666669,27.3921568627451,6.04761904761905,3.4862745098039234,3.4862745098039234,13.51063829787234,4.096774193548384,22.79487179487178,11.160159485366396,86.49006090588735,46.345075723662006,1457.7143997156838,84.76044447447882,1369.9922738185792,1
-6.863490792634119,-83.32632308758956,-48.28456613540389,122.34243070362476,-124.94020167830197,123.96454320987652,-125.67973737005289,8.466666666666669,27.3921568627451,6.04761904761905,3.4862745098039234,3.4862745098039234,13.51063829787234,4.096774193548384,22.79487179487178,11.160159485366396,86.49006090588735,46.158126671875856,1465.0324892356573,84.65110664220607,1372.4581147011727,1
-6.863490792634119,-83.32632308758956,-48.28456613540389,122.34243070362476,-124.94020167830197,123.96454320987652,-125.67973737005289,1.4941176470588253,-0.49803921568627274,-9.346320346320345,15.439215686274512,16.43529411764706,15.672340425531916,6.145161290322578,6.512820512820503,8.94291365520775,40.61698056208157,46.158126671875856,1465.0324892356573,84.65110664220607,1372.4581147011727,1
-6.863490792634119,-83.32632308758956,-48.28456613540389,122.34243070362476,-124.94020167830197,123.96454320987652,-125.67973737005289,-17.431372549019606,-25.4,7.14718614718615,0.4980392156862763,-5.478431372549018,8.106382978723405,-4.09677419354839,-2.170940170940181,8.791140828456628,71.32757151710575,46.158126671875856,1465.0324892356573,84.65110664220607,1372.4581147011727,1
-6.710968775020027,-83.9133348740467,-48.215365753984464,122.37853589196874,-124.95811296805584,124.08997530864195,-125.61024986321357,-17.431372549019606,-25.4,7.14718614718615,0.4980392156862763,-5.478431372549018,8.106382978723405,-4.09677419354839,-2.170940170940181,8.791140828456628,71.32757151710575,46.279889801017056,1492.8608831954218,84.83574550666664,1375.6820822602783,1
-6.710968775020027,-83.9133348740467,-48.215365753984464,122.37853589196874,-124.95811296805584,124.08997530864195,-125.61024986321357,6.4745098039215705,-2.490196078431371,-43.43290043290043,3.4862745098039234,7.4705882352941195,10.26808510638298,-2.0483870967741957,10.854700854700845,10.81570526477618,184.87416305178837,46.279889801017056,1492.8608831954218,84.83574550666664,1375.6820822602783,1
-6.710968775020027,-83.9133348740467,-48.215365753984464,122.37853589196874,-124.95811296805584,124.08997530864195,-125.61024986321357,5.4784313725490215,28.38823529411765,36.83549783549784,-2.490196078431371,5.4784313725490215,15.672340425531916,3.0725806451612874,8.683760683760674,13.262434213449849,164.61524524836793,46.279889801017056,1492.8608831954218,84.83574550666664,1375.6820822602783,1
-6.456765412329875,-83.73723133810955,-48.180765563274754,122.41464108031272,-124.97602425780974,124.21540740740738,-125.56392485865402,5.4784313725490215,28.38823529411765,36.83549783549784,-2.490196078431371,5.4784313725490215,15.672340425531916,3.0725806451612874,8.683760683760674,13.262434213449849,164.61524524836793,46.12492077123806,1496.2374767831068,84.77754599389901,1378.47875950706,1
-6.456765412329875,-83.73723133810955,-48.180765563274754,122.41464108031272,-124.97602425780974,124.21540740740738,-125.56392485865402,14.443137254901963,12.450980392156865,-7.1471861471861455,-13.44705882352941,15.439215686274512,4.863829787234043,6.145161290322578,24.965811965811955,12.362797668427184,42.27252191355729,46.12492077123806,1496.2374767831068,84.77754599389901,1378.47875950706,1
-6.456765412329875,-83.73723133810955,-48.180765563274754,122.41464108031272,-124.97602425780974,124.21540740740738,-125.56392485865402,7.4705882352941195,24.403921568627453,1.6493506493506516,3.4862745098039234,-16.435294117647057,8.106382978723405,5.120967741935481,20.62393162393161,10.912088928164213,71.57846711368511,46.12492077123806,1496.2374767831068,84.77754599389901,1378.47875950706,1
-6.075460368294647,-83.26762190894385,-48.19806565862961,122.5590618336887,-125.02975812707143,124.26558024691357,-125.49443735181471,7.4705882352941195,24.403921568627453,1.6493506493506516,3.4862745098039234,-16.435294117647057,8.106382978723405,5.120967741935481,20.62393162393161,10.912088928164213,71.57846711368511,45.847049311956035,1493.8029092261652,84.67491646708739,1383.8747965168236,1
-6.075460368294647,-83.26762190894385,-48.19806565862961,122.5590618336887,-125.02975812707143,124.26558024691357,-125.49443735181471,-21.415686274509802,-48.30980392156863,2.7489177489177514,3.4862745098039234,7.4705882352941195,19.995744680851065,4.096774193548384,1.0854700854700763,13.576157456245468,258.7549028721395,45.847049311956035,1493.8029092261652,84.67491646708739,1383.8747965168236,1
-6.075460368294647,-83.26762190894385,-48.19806565862961,122.5590618336887,-125.02975812707143,124.26558024691357,-125.49443735181471,-5.478431372549018,-15.439215686274508,-19.242424242424242,13.447058823529414,8.466666666666669,5.944680851063831,-4.09677419354839,10.854700854700845,10.371244086344614,28.658143736434607,45.847049311956035,1493.8029092261652,84.67491646708739,1383.8747965168236,1
-5.821257005604495,-83.56112780217241,-48.215365753984464,122.70348258706468,-125.08349199633312,124.29066666666665,-125.44811234725516,-5.478431372549018,-15.439215686274508,-19.242424242424242,13.447058823529414,8.466666666666669,5.944680851063831,-4.09677419354839,10.854700854700845,10.371244086344614,28.658143736434607,45.86591685392045,1515.0118104672772,84.82665871440717,1388.3210637020184,1
-5.821257005604495,-83.56112780217241,-48.215365753984464,122.70348258706468,-125.08349199633312,124.29066666666665,-125.44811234725516,-10.458823529411763,-9.462745098039214,12.645021645021648,22.411764705882355,7.4705882352941195,14.591489361702129,9.217741935483868,10.854700854700845,12.139109420691993,21.96614731895429,45.86591685392045,1515.0118104672772,84.82665871440717,1388.3210637020184,1
-5.821257005604495,-83.56112780217241,-48.215365753984464,122.70348258706468,-125.08349199633312,124.29066666666665,-125.44811234725516,-6.474509803921567,-8.466666666666665,29.13852813852814,-4.482352941176469,10.458823529411767,10.26808510638298,4.096774193548384,4.341880341880332,9.715952590189538,68.28674268621945,45.86591685392045,1515.0118104672772,84.82665871440717,1388.3210637020184,1
-5.79583666933548,-83.38502426623528,-48.26726604004904,122.88400852878465,-125.15513715534871,124.34083950617281,-125.40178734269561,-6.474509803921567,-8.466666666666665,29.13852813852814,-4.482352941176469,10.458823529411767,10.26808510638298,4.096774193548384,4.341880341880332,9.715952590189538,68.28674268621945,45.8160423252066,1509.526881261882,84.84543294502299,1393.5141600393795,1
-5.79583666933548,-83.38502426623528,-48.26726604004904,122.88400852878465,-125.15513715534871,124.34083950617281,-125.40178734269561,20.419607843137257,18.42745098039216,-57.72727272727273,-6.474509803921567,-0.49803921568627274,14.591489361702129,10.241935483870964,19.538461538461526,18.489845869305576,299.3859646093718,45.8160423252066,1509.526881261882,84.84543294502299,1393.5141600393795,1
-5.79583666933548,-83.38502426623528,-48.26726604004904,122.88400852878465,-125.15513715534871,124.34083950617281,-125.40178734269561,-6.474509803921567,-1.4941176470588218,52.22943722943724,14.443137254901963,-7.470588235294116,4.863829787234043,4.096774193548384,10.854700854700845,12.740886875762124,270.8718604261026,45.8160423252066,1509.526881261882,84.84543294502299,1393.5141600393795,1
-5.89751801441154,-83.5024266235267,-48.28456613540389,122.88400852878465,-125.15513715534871,124.31575308641973,-125.37862484041584,-6.474509803921567,-1.4941176470588218,52.22943722943724,14.443137254901963,-7.470588235294116,4.863829787234043,4.096774193548384,10.854700854700845,12.740886875762124,270.8718604261026,45.89483692444738,1509.9135643335535,84.89033376257174,1392.7139160207926,1
-5.89751801441154,-83.5024266235267,-48.28456613540389,122.88400852878465,-125.15513715534871,124.31575308641973,-125.37862484041584,-6.474509803921567,1.4941176470588253,24.740259740259745,-5.478431372549018,-1.4941176470588218,9.187234042553193,9.217741935483868,8.683760683760674,8.346271609080715,53.71077882587253,45.89483692444738,1509.9135643335535,84.89033376257174,1392.7139160207926,1
-5.89751801441154,-83.5024266235267,-48.28456613540389,122.88400852878465,-125.15513715534871,124.31575308641973,-125.37862484041584,14.443137254901963,29.3843137254902,-48.930735930735935,-5.478431372549018,-17.431372549019606,10.26808510638298,-7.16935483870968,22.79487179487178,19.48753782158264,205.4930489672582,45.89483692444738,1509.9135643335535,84.89033376257174,1392.7139160207926,1
-5.872097678142525,-83.44372544488098,-48.35376651682331,123.10063965884859,-125.2626048938721,124.31575308641973,-125.28597483129674,14.443137254901963,29.3843137254902,-48.930735930735935,-5.478431372549018,-17.431372549019606,10.26808510638298,-7.16935483870968,22.79487179487178,19.48753782158264,205.4930489672582,45.889863213282275,1508.8924732122575,84.96604387351762,1398.5118511761302,1
-5.872097678142525,-83.44372544488098,-48.35376651682331,123.10063965884859,-125.2626048938721,124.31575308641973,-125.28597483129674,-10.458823529411763,-11.454901960784312,-21.441558441558442,-19.423529411764704,-10.458823529411763,9.187234042553193,7.169354838709674,7.598290598290588,12.149064544060554,28.53478074120628,45.889863213282275,1508.8924732122575,84.96604387351762,1398.5118511761302,1
-5.872097678142525,-83.44372544488098,-48.35376651682331,123.10063965884859,-125.2626048938721,124.31575308641973,-125.28597483129674,-11.454901960784312,-14.44313725490196,33.536796536796544,2.4901960784313744,14.443137254901963,9.187234042553193,-2.6645352591003757e-15,-3.256410256410266,11.101476673097451,112.62974392038073,45.889863213282275,1508.8924732122575,84.96604387351762,1398.5118511761302,1
-5.948358686949571,-83.73723133810955,-48.076964991145616,123.28116560056856,-125.31633876313379,124.41609876543208,-125.21648732445742,-11.454901960784312,-14.44313725490196,33.536796536796544,2.4901960784313744,14.443137254901963,9.187234042553193,-2.6645352591003757e-15,-3.256410256410266,11.101476673097451,112.62974392038073,45.920851672068245,1516.2637955681237,85.03178730994124,1415.1748536987361,1
-5.948358686949571,-83.73723133810955,-48.076964991145616,123.28116560056856,-125.31633876313379,124.41609876543208,-125.21648732445742,-4.482352941176469,-8.466666666666665,21.441558441558445,13.447058823529414,10.458823529411767,12.429787234042553,1.0241935483870943,10.854700854700845,10.325642754934156,37.44980981318512,45.920851672068245,1516.2637955681237,85.03178730994124,1415.1748536987361,1
-5.948358686949571,-83.73723133810955,-48.1634654679199,123.46169154228858,-125.38798392214937,124.51644444444443,-125.17016231989787,-4.482352941176469,-8.466666666666665,21.441558441558445,13.447058823529414,10.458823529411767,12.429787234042553,1.0241935483870943,10.854700854700845,10.325642754934156,37.44980981318512,45.94968516432635,1516.4527945090306,85.120796116106,1418.891401107868,1
-5.948358686949571,-83.73723133810955,-48.1634654679199,123.46169154228858,-125.38798392214937,124.51644444444443,-125.17016231989787,-6.474509803921567,-18.427450980392155,-20.341991341991342,-6.474509803921567,-7.470588235294116,-1.6212765957446802,3.0725806451612874,-8.881784197001252e-15,7.985363425803341,56.422408808506034,45.94968516432635,1516.4527945090306,85.120796116106,1418.891401107868,1
-5.948358686949571,-83.73723133810955,-48.1634654679199,123.46169154228858,-125.38798392214937,124.51644444444443,-125.17016231989787,10.458823529411767,-2.490196078431371,4.94805194805195,5.4784313725490215,11.454901960784316,8.106382978723405,2.048387096774191,10.854700854700845,6.979984477428358,14.181667477689533,45.94968516432635,1516.4527945090306,85.120796116106,1418.891401107868,1
-6.177141713370708,-83.79593251675527,-48.076964991145616,123.60611229566456,-125.42380650165717,124.61679012345678,-125.12383731533832,10.458823529411767,-2.490196078431371,4.94805194805195,5.4784313725490215,11.454901960784316,8.106382978723405,2.048387096774191,10.854700854700845,6.979984477428358,14.181667477689533,46.01667974042386,1509.3527529306502,85.15966993452182,1427.5578579453927,1
-6.177141713370708,-83.79593251675527,-48.076964991145616,123.60611229566456,-125.42380650165717,124.61679012345678,-125.12383731533832,0.4980392156862763,-4.482352941176469,-18.142857142857142,7.4705882352941195,-4.482352941176469,13.51063829787234,5.120967741935481,7.598290598290588,7.663260889286111,31.72787298774256,46.01667974042386,1509.3527529306502,85.15966993452182,1427.5578579453927,1
-6.177141713370708,-83.79593251675527,-48.076964991145616,123.60611229566456,-125.42380650165717,124.61679012345678,-125.12383731533832,-5.478431372549018,-7.470588235294116,4.94805194805195,4.482352941176472,11.454901960784316,7.025531914893618,1.0241935483870943,15.196581196581185,7.135079139714721,19.382957188887524,46.01667974042386,1509.3527529306502,85.15966993452182,1427.5578579453927,1
-5.8466773418735105,-83.61982898081813,-47.86936384688734,123.75053304904048,-125.45962908116493,124.74222222222221,-125.12383731533832,-5.478431372549018,-7.470588235294116,4.94805194805195,4.482352941176472,11.454901960784316,7.025531914893618,1.0241935483870943,15.196581196581185,7.135079139714721,19.382957188887524,45.77862338985966,1515.4441757075576,85.07990862558198,1441.0868342982392,1
-5.8466773418735105,-83.61982898081813,-47.86936384688734,123.75053304904048,-125.45962908116493,124.74222222222221,-125.12383731533832,13.447058823529414,-13.44705882352941,-11.545454545454543,-16.435294117647057,2.4901960784313744,18.914893617021278,17.41129032258064,21.709401709401696,14.425081004699427,34.11784711345006,45.77862338985966,1515.4441757075576,85.07990862558198,1441.0868342982392,1
-5.8466773418735105,-83.61982898081813,-47.86936384688734,123.75053304904048,-125.45962908116493,124.74222222222221,-125.12383731533832,0.4980392156862763,0.4980392156862763,-13.744588744588743,-3.48627450980392,13.447058823529414,17.83404255319149,6.145161290322578,16.28205128205127,8.991906954357496,50.92477949395099,45.77862338985966,1515.4441757075576,85.07990862558198,1441.0868342982392,1
-5.8466773418735105,-83.61982898081813,-47.86936384688734,123.75053304904048,-125.45962908116493,124.74222222222221,-125.12383731533832,-6.474509803921567,-18.427450980392155,-13.744588744588743,-7.470588235294116,20.419607843137257,17.83404255319149,-2.6645352591003757e-15,5.427350427350417,11.22476732348447,54.67428776598907,45.77862338985966,1515.4441757075576,85.07990862558198,1441.0868342982392,1
-5.8466773418735105,-83.15021955165243,-47.83476365617763,124.03937455579245,-125.47754037091883,125.01817283950615,-125.23964982673719,-6.474509803921567,-18.427450980392155,-13.744588744588743,-7.470588235294116,20.419607843137257,17.83404255319149,-2.6645352591003757e-15,5.427350427350417,11.22476732348447,54.67428776598907,45.610553516567855,1497.6697426036249,85.00811925454083,1454.3745240699182,1
-5.8466773418735105,-83.15021955165243,-47.83476365617763,124.03937455579245,-125.47754037091883,125.01817283950615,-125.23964982673719,-4.482352941176469,-4.482352941176469,25.839826839826845,7.4705882352941195,41.33725490196079,23.238297872340425,7.169354838709674,8.683760683760674,15.337973656780683,179.6080439361103,45.610553516567855,1497.6697426036249,85.00811925454083,1454.3745240699182,1
-5.8466773418735105,-83.15021955165243,-47.83476365617763,124.03937455579245,-125.47754037091883,125.01817283950615,-125.23964982673719,-4.482352941176469,23.407843137254904,80.81818181818183,-10.458823529411763,-14.44313725490196,7.025531914893618,7.169354838709674,7.598290598290588,19.4254395041026,651.0426417276865,45.610553516567855,1497.6697426036249,85.00811925454083,1454.3745240699182,1
-5.516212970376312,-82.50450658654958,-47.7655632747582,124.29211087420043,-125.49545166067273,125.1185185185185,-125.35546233813606,-4.482352941176469,23.407843137254904,80.81818181818183,-10.458823529411763,-14.44313725490196,7.025531914893618,7.169354838709674,7.598290598290588,19.4254395041026,651.0426417276865,45.26209427722804,1486.4998562487226,84.8540602451694,1468.2184236684748,1
-5.516212970376312,-82.50450658654958,-47.7655632747582,124.29211087420043,-125.49545166067273,125.1185185185185,-125.35546233813606,-5.478431372549018,1.4941176470588253,19.242424242424246,3.4862745098039234,-37.35294117647059,8.106382978723405,-2.6645352591003757e-15,6.512820512820503,10.209174054981313,154.88931571624602,45.26209427722804,1486.4998562487226,84.8540602451694,1468.2184236684748,1
-5.516212970376312,-82.50450658654958,-47.7655632747582,124.29211087420043,-125.49545166067273,125.1185185185185,-125.35546233813606,2.4901960784313744,-14.44313725490196,-12.645021645021643,7.4705882352941195,-4.482352941176469,5.944680851063831,-2.0483870967741957,21.709401709401696,8.90422072650816,46.73644398214502,45.26209427722804,1486.4998562487226,84.8540602451694,1468.2184236684748,1
-5.7195756605284345,-82.09359833602959,-47.83476365617763,124.40042643923243,-125.49545166067273,125.16869135802467,-125.47127484953494,2.4901960784313744,-14.44313725490196,-12.645021645021643,7.4705882352941195,-4.482352941176469,5.944680851063831,-2.0483870967741957,21.709401709401696,8.90422072650816,46.73644398214502,45.21597921757856,1463.3913588613775,84.77626281047988,1470.9726958639742,1
-5.7195756605284345,-82.09359833602959,-47.83476365617763,124.40042643923243,-125.49545166067273,125.16869135802467,-125.47127484953494,5.4784313725490215,22.411764705882355,-34.63636363636363,-8.466666666666665,16.43529411764706,16.753191489361704,-8.193548387096776,13.025641025641015,15.675112675151027,89.36845085918875,45.21597921757856,1463.3913588613775,84.77626281047988,1470.9726958639742,1
-5.7195756605284345,-82.09359833602959,-47.83476365617763,124.40042643923243,-125.49545166067273,125.16869135802467,-125.47127484953494,2.4901960784313744,13.447058823529414,34.63636363636364,-2.490196078431371,-41.33725490196078,7.025531914893618,2.048387096774191,8.683760683760674,14.019843651768133,236.88363323424088,45.21597921757856,1463.3913588613775,84.77626281047988,1470.9726958639742,1
-5.592473979183358,-81.44788537092674,-47.748263179403345,124.54484719260836,-125.49545166067273,125.19377777777777,-125.61024986321357,2.4901960784313744,13.447058823529414,34.63636363636364,-2.490196078431371,-41.33725490196078,7.025531914893618,2.048387096774191,8.683760683760674,14.019843651768133,236.88363323424088,44.92954084317115,1444.4697560592385,84.58033191431282,1481.7879950346924,1
-5.592473979183358,-81.44788537092674,-47.748263179403345,124.54484719260836,-125.49545166067273,125.19377777777777,-125.61024986321357,4.482352941176472,3.4862745098039234,1.6493506493506516,-2.490196078431371,-5.478431372549018,11.348936170212767,12.290322580645158,16.28205128205127,7.188489448027579,28.96296759317946,44.92954084317115,1444.4697560592385,84.58033191431282,1481.7879950346924,1
-5.592473979183358,-81.44788537092674,-47.748263179403345,124.54484719260836,-125.49545166067273,125.19377777777777,-125.61024986321357,-7.470588235294116,-3.48627450980392,17.043290043290046,4.482352941176472,-2.490196078431371,4.863829787234043,-1.0241935483870996,9.76923076923076,6.328744489105977,26.34996091659357,44.92954084317115,1444.4697560592385,84.58033191431282,1481.7879950346924,1
-5.694155324259419,-81.21308065634389,-47.93856422830677,124.65316275764036,-125.49545166067273,125.16869135802467,-125.72606237461244,-7.470588235294116,-3.48627450980392,17.043290043290046,4.482352941176472,-2.490196078431371,4.863829787234043,-1.0241935483870996,9.76923076923076,6.328744489105977,26.34996091659357,44.94860006963669,1432.4819350808361,84.60160254743035,1479.893967333987,1
-5.694155324259419,-81.21308065634389,-47.93856422830677,124.65316275764036,-125.49545166067273,125.16869135802467,-125.72606237461244,2.4901960784313744,33.3686274509804,30.23809523809524,0.4980392156862763,9.462745098039218,13.51063829787234,3.0725806451612874,-8.881784197001252e-15,11.580115253033268,177.56941582842668,44.94860006963669,1432.4819350808361,84.60160254743035,1479.893967333987,1
-5.694155324259419,-81.21308065634389,-47.93856422830677,124.65316275764036,-125.49545166067273,125.16869135802467,-125.72606237461244,-1.4941176470588218,1.4941176470588253,-3.848484848484847,7.4705882352941195,-1.4941176470588218,5.944680851063831,3.0725806451612874,10.854700854700845,4.459173546985175,11.549767135728482,44.94860006963669,1432.4819350808361,84.60160254743035,1479.893967333987,1
-5.922938350680556,-81.03697712040676,-47.95586432366162,124.72537313432838,-125.47754037091883,125.16869135802467,-125.84187488601131,-1.4941176470588218,1.4941176470588253,-3.848484848484847,7.4705882352941195,-1.4941176470588218,5.944680851063831,3.0725806451612874,10.854700854700845,4.459173546985175,11.549767135728482,44.971926598249645,1417.2076183368356,84.57273819279892,1482.765575528543,1
-5.922938350680556,-81.03697712040676,-47.95586432366162,124.72537313432838,-125.47754037091883,125.16869135802467,-125.84187488601131,-11.454901960784312,-9.462745098039214,-3.848484848484847,-14.44313725490196,9.462745098039218,13.51063829787234,16.387096774193544,7.598290598290588,10.771004991325754,16.344119662648744,44.971926598249645,1417.2076183368356,84.57273819279892,1482.765575528543,1
-5.922938350680556,-81.03697712040676,-47.95586432366162,124.72537313432838,-125.47754037091883,125.16869135802467,-125.84187488601131,-0.49803921568627274,1.4941176470588253,10.445887445887449,-17.431372549019606,-20.419607843137253,4.863829787234043,7.169354838709674,15.196581196581185,9.689848815414289,55.322476726872004,44.971926598249645,1417.2076183368356,84.57273819279892,1482.765575528543,1
-5.694155324259419,-81.15437947769819,-48.05966489579076,124.83368869936032,-125.47754037091883,125.14360493827158,-125.98084989968996,-0.49803921568627274,1.4941176470588253,10.445887445887449,-17.431372549019606,-20.419607843137253,4.863829787234043,7.169354838709674,15.196581196581185,9.689848815414289,55.322476726872004,44.96939989924945,1430.7236606334423,84.68257769094976,1482.89881972176,1
-5.694155324259419,-81.15437947769819,-48.05966489579076,124.83368869936032,-125.47754037091883,125.14360493827158,-125.98084989968996,11.454901960784316,17.43137254901961,11.545454545454549,-5.478431372549018,3.4862745098039234,2.7021276595744688,8.193548387096772,16.28205128205127,9.571770283291741,31.017571565616556,44.96939989924945,1430.7236606334423,84.68257769094976,1482.89881972176,1
-5.694155324259419,-81.15437947769819,-48.05966489579076,124.83368869936032,-125.47754037091883,125.14360493827158,-125.98084989968996,3.4862745098039234,-9.462745098039214,-73.12121212121212,-3.48627450980392,-2.490196078431371,14.591489361702129,2.048387096774191,13.025641025641015,15.214027475175985,571.6866032552426,44.96939989924945,1430.7236606334423,84.68257769094976,1482.89881972176,1
-5.465372297838282,-81.44788537092674,-48.12886527721019,125.05031982942432,-125.51336295042663,125.1185185185185,-126.09666241108883,3.4862745098039234,-9.462745098039214,-73.12121212121212,-3.48627450980392,-2.490196078431371,14.591489361702129,2.048387096774191,13.025641025641015,15.214027475175985,571.6866032552426,45.01404098199174,1450.6121710180769,84.87569015918709,1488.0399268569015,1
-5.465372297838282,-81.44788537092674,-48.12886527721019,125.05031982942432,-125.51336295042663,125.1185185185185,-126.09666241108883,-6.474509803921567,-14.44313725490196,19.242424242424246,8.466666666666669,14.443137254901963,11.348936170212767,-1.0241935483870996,10.854700854700845,10.78721322451464,31.12044885069252,45.01404098199174,1450.6121710180769,84.87569015918709,1488.0399268569015,1
-5.465372297838282,-81.44788537092674,-48.12886527721019,125.05031982942432,-125.51336295042663,125.1185185185185,-126.09666241108883,-1.4941176470588218,11.454901960784316,10.445887445887449,-0.49803921568627274,16.43529411764706,13.51063829787234,9.217741935483868,5.427350427350417,8.560496380971319,31.94773239398523,45.01404098199174,1450.6121710180769,84.87569015918709,1488.0399268569015,1
-5.643314651721388,-81.44788537092674,-48.28456613540389,125.1947405828003,-125.54918552993442,125.06834567901234,-126.14298741564838,-1.4941176470588218,11.454901960784316,10.445887445887449,-0.49803921568627274,16.43529411764706,13.51063829787234,9.217741935483868,5.427350427350417,8.560496380971319,31.94773239398523,45.125255386017336,1444.0691687891435,84.97573069637697,1488.1280028624628,1
-5.643314651721388,-81.44788537092674,-48.28456613540389,125.1947405828003,-125.54918552993442,125.06834567901234,-126.14298741564838,14.443137254901963,54.286274509803924,15.943722943722946,-3.48627450980392,-14.44313725490196,11.348936170212767,7.169354838709674,18.45299145299144,17.446728616881074,245.16694543712285,45.125255386017336,1444.0691687891435,84.97573069637697,1488.1280028624628,1
-5.643314651721388,-81.44788537092674,-48.28456613540389,125.1947405828003,-125.54918552993442,125.06834567901234,-126.14298741564838,-4.482352941176469,-17.431372549019606,-40.134199134199136,3.4862745098039234,-2.490196078431371,8.106382978723405,1.0241935483870943,9.76923076923076,10.86552531362147,167.25378970849565,45.125255386017336,1444.0691687891435,84.97573069637697,1488.1280028624628,1
-5.821257005604495,-81.56528772821817,-48.405666802887886,125.30305614783225,-125.58500810944221,124.96799999999999,-126.14298741564838,-4.482352941176469,-17.431372549019606,-40.134199134199136,3.4862745098039234,-2.490196078431371,8.106382978723405,1.0241935483870943,9.76923076923076,10.86552531362147,167.25378970849565,45.26407051223685,1441.6917679671355,85.09133689297943,1487.626889051226,1
-5.821257005604495,-81.56528772821817,-48.405666802887886,125.30305614783225,-125.58500810944221,124.96799999999999,-126.14298741564838,11.454901960784316,27.3921568627451,-18.142857142857142,13.447058823529414,8.466666666666669,16.753191489361704,19.459677419354836,26.05128205128204,17.645974052072653,44.31295745244142,45.26407051223685,1441.6917679671355,85.09133689297943,1487.626889051226,1
-7.01601281024821,-82.44580540790386,-48.63056804250102,126.49452736318409,-127.0,124.06488888888887,-123.0160496078789,11.454901960784316,27.3921568627451,-18.142857142857142,13.447058823529414,8.466666666666669,16.753191489361704,19.459677419354836,26.05128205128204,17.645974052072653,44.31295745244142,46.03079542021769,1427.4825160970174,85.85696693786299,1524.426057510852,1
-7.01601281024821,-82.44580540790386,-48.63056804250102,126.49452736318409,-127.0,124.06488888888887,-123.0160496078789,-5.478431372549018,-20.419607843137253,-15.943722943722943,-14.44313725490196,-6.474509803921567,11.348936170212767,7.169354838709674,4.341880341880332,10.702447571129438,33.487177263193914,46.03079542021769,1427.4825160970174,85.85696693786299,1524.426057510852,1
-7.01601281024821,-82.44580540790386,-48.63056804250102,126.49452736318409,-127.0,124.06488888888887,-123.0160496078789,0.4980392156862763,26.39607843137255,43.43290043290044,2.4901960784313744,1.4941176470588253,9.187234042553193,-2.0483870967741957,5.427350427350417,11.37178792151591,239.3383015912461,46.03079542021769,1427.4825160970174,85.85696693786299,1524.426057510852,1
-6.710968775020027,-82.56320776519529,-48.509467375017024,126.38621179815209,-127.0,124.06488888888887,-122.96972460331935,0.4980392156862763,26.39607843137255,43.43290043290044,2.4901960784313744,1.4941176470588253,9.187234042553193,-2.0483870967741957,5.427350427350417,11.37178792151591,239.3383015912461,45.92788130507745,1443.3889799330454,85.8196289794548,1524.150039830084,1
-6.710968775020027,-82.56320776519529,-48.509467375017024,126.38621179815209,-127.0,124.06488888888887,-122.96972460331935,13.447058823529414,18.42745098039216,14.844155844155846,-9.462745098039214,7.4705882352941195,22.157446808510638,24.58064516129032,22.79487179487178,16.648120343260437,40.511999255430155,45.92788130507745,1443.3889799330454,85.8196289794548,1524.150039830084,1
-6.710968775020027,-82.56320776519529,-48.509467375017024,126.38621179815209,-127.0,124.06488888888887,-122.96972460331935,-12.450980392156861,-36.35686274509804,-15.943722943722943,3.4862745098039234,12.450980392156865,13.51063829787234,15.362903225806448,-2.170940170940181,13.9666628346947,108.70849477777803,45.92788130507745,1443.3889799330454,85.8196289794548,1524.150039830084,1
-6.990592473979195,-82.621908943841,-48.26726604004904,126.24179104477611,-126.94626613073831,124.11506172839505,-122.9233995987598,-12.450980392156861,-36.35686274509804,-15.943722943722943,3.4862745098039234,12.450980392156865,13.51063829787234,15.362903225806448,-2.170940170940181,13.9666628346947,108.70849477777803,45.95992248595641,1434.016883448557,85.71032200955538,1527.1603588765583,1
-6.990592473979195,-82.621908943841,-48.26726604004904,126.24179104477611,-126.94626613073831,124.11506172839505,-122.9233995987598,14.443137254901963,57.274509803921575,78.61904761904762,2.4901960784313744,-7.470588235294116,7.025531914893618,-2.0483870967741957,27.136752136752126,24.563518767502075,813.5663959493429,45.95992248595641,1434.016883448557,85.71032200955538,1527.1603588765583,1
-6.990592473979195,-82.621908943841,-48.26726604004904,126.24179104477611,-126.94626613073831,124.11506172839505,-122.9233995987598,-5.478431372549018,-2.490196078431371,8.246753246753249,5.4784313725490215,-3.48627450980392,10.26808510638298,-13.31451612903226,3.2564102564102466,6.502387258989009,14.493763560053539,45.95992248595641,1434.016883448557,85.71032200955538,1527.1603588765583,1
-7.270216172938362,-82.26970187196673,-48.215365753984464,126.06126510305614,-126.89253226147662,124.16523456790122,-122.9233995987598,-5.478431372549018,-2.490196078431371,8.246753246753249,5.4784313725490215,-3.48627450980392,10.26808510638298,-13.31451612903226,3.2564102564102466,6.502387258989009,14.493763560053539,45.91842793296319,1410.1876562949187,85.51544424300245,1522.897144020802,1
-7.270216172938362,-82.26970187196673,-48.215365753984464,126.06126510305614,-126.89253226147662,124.16523456790122,-122.9233995987598,7.4705882352941195,18.42745098039216,-0.5497835497835477,7.4705882352941195,-0.49803921568627274,16.753191489361704,10.241935483870964,17.367521367521356,9.84738731965053,51.88140022999353,45.91842793296319,1410.1876562949187,85.51544424300245,1522.897144020802,1
-7.270216172938362,-82.26970187196673,-48.215365753984464,126.06126510305614,-126.89253226147662,124.16523456790122,-122.9233995987598,-3.48627450980392,-27.392156862745097,-19.242424242424242,1.4941176470588253,-18.427450980392155,9.187234042553193,4.096774193548384,10.854700854700845,11.772641666653332,83.54445996480354,45.91842793296319,1410.1876562949187,85.51544424300245,1522.897144020802,1
-7.117694155324271,-81.74139126415531,-48.076964991145616,125.95294953802414,-126.85670968196885,124.24049382716048,-122.94656210103958,-3.48627450980392,-27.392156862745097,-19.242424242424242,1.4941176470588253,-18.427450980392155,9.187234042553193,4.096774193548384,10.854700854700845,11.772641666653332,83.54445996480354,45.64535013687507,1396.6086056472714,85.25710193110835,1525.4374084067113,1
-7.117694155324271,-81.74139126415531,-48.076964991145616,125.95294953802414,-126.85670968196885,124.24049382716048,-122.94656210103958,0.4980392156862763,-9.462745098039214,-28.038961038961038,2.4901960784313744,11.454901960784316,10.26808510638298,-6.145161290322584,7.598290598290588,9.494547548362295,70.4499876146559,45.64535013687507,1396.6086056472714,85.25710193110835,1525.4374084067113,1
-7.117694155324271,-81.74139126415531,-48.076964991145616,125.95294953802414,-126.85670968196885,124.24049382716048,-122.94656210103958,-15.439215686274508,-40.34117647058824,-44.532467532467535,-7.470588235294116,2.4901960784313744,14.591489361702129,8.193548387096772,23.880341880341867,19.61737795402457,240.3593875167216,45.64535013687507,1396.6086056472714,85.25710193110835,1525.4374084067113,1
-7.295636509207377,-80.86087358446962,-47.99046451437133,125.7363184079602,-126.74924194344547,124.31575308641973,-123.03921211015867,-15.439215686274508,-40.34117647058824,-44.532467532467535,-7.470588235294116,2.4901960784313744,14.591489361702129,8.193548387096772,23.880341880341867,19.61737795402457,240.3593875167216,45.38232486934944,1358.0628207908355,84.86255216893372,1523.1145230308357,1
-7.295636509207377,-80.86087358446962,-47.99046451437133,125.7363184079602,-126.74924194344547,124.31575308641973,-123.03921211015867,17.43137254901961,38.34901960784314,-14.844155844155843,-0.49803921568627274,-29.384313725490195,15.672340425531916,11.26612903225806,10.854700854700845,17.287508906835733,136.86338393261784,45.38232486934944,1358.0628207908355,84.86255216893372,1523.1145230308357,1
-7.295636509207377,-80.86087358446962,-47.99046451437133,125.7363184079602,-126.74924194344547,124.31575308641973,-123.03921211015867,-11.454901960784312,-18.427450980392155,21.441558441558445,3.4862745098039234,4.482352941176472,-8.106382978723403,-7.16935483870968,-5.4273504273504365,9.999453384812353,44.2040624739614,45.38232486934944,1358.0628207908355,84.86255216893372,1523.1145230308357,1
-7.143114491593286,-80.68477004853247,-47.92126413295191,125.6280028429282,-126.67759678442988,124.36592592592591,-123.15502462155754,-11.454901960784312,-18.427450980392155,21.441558441558445,3.4862745098039234,4.482352941176472,-8.106382978723403,-7.16935483870968,-5.4273504273504365,9.999453384812353,44.2040624739614,45.24971622435922,1357.4466516848004,84.74467900813752,1521.9464558053428,1
-7.143114491593286,-80.68477004853247,-47.92126413295191,125.6280028429282,-126.67759678442988,124.36592592592591,-123.15502462155754,-1.4941176470588218,-19.423529411764704,6.04761904761905,5.4784313725490215,21.415686274509806,13.51063829787234,4.096774193548384,5.427350427350417,9.611768334034068,56.34467457471744,45.24971622435922,1357.4466516848004,84.74467900813752,1521.9464558053428,1
-7.143114491593286,-80.68477004853247,-47.92126413295191,125.6280028429282,-126.67759678442988,124.36592592592591,-123.15502462155754,-3.48627450980392,0.4980392156862763,12.645021645021648,7.4705882352941195,7.4705882352941195,16.753191489361704,-4.09677419354839,2.1709401709401615,6.823927211868792,30.508029562663694,45.24971622435922,1357.4466516848004,84.74467900813752,1521.9464558053428,1
-7.270216172938362,-80.50866651259534,-47.81746356082277,125.48358208955221,-126.5880403356604,124.46627160493826,-123.29399963523619,-3.48627450980392,0.4980392156862763,12.645021645021648,7.4705882352941195,7.4705882352941195,16.753191489361704,-4.09677419354839,2.1709401709401615,6.823927211868792,30.508029562663694,45.19878208211882,1346.1107715537808,84.60323738765678,1520.5806248178387,1
-7.270216172938362,-80.50866651259534,-47.81746356082277,125.48358208955221,-126.5880403356604,124.46627160493826,-123.29399963523619,1.4941176470588253,8.466666666666669,40.134199134199136,4.482352941176472,0.4980392156862763,12.429787234042553,4.096774193548384,5.427350427350417,9.628660932466092,166.2943877713492,45.19878208211882,1346.1107715537808,84.60323738765678,1520.5806248178387,1
-7.270216172938362,-80.50866651259534,-47.81746356082277,125.48358208955221,-126.5880403356604,124.46627160493826,-123.29399963523619,6.4745098039215705,10.458823529411767,-1.6493506493506471,-13.44705882352941,-6.474509803921567,12.429787234042553,-2.6645352591003757e-15,17.367521367521356,8.537695151462358,35.68025624713584,45.19878208211882,1346.1107715537808,84.60323738765678,1520.5806248178387,1
-7.3210568454763925,-80.21516061936677,-47.81746356082277,125.41137171286425,-126.48057259713701,124.59170370370369,-123.47929965347438,6.4745098039215705,10.458823529411767,-1.6493506493506471,-13.44705882352941,-6.474509803921567,12.429787234042553,-2.6645352591003757e-15,17.367521367521356,8.537695151462358,35.68025624713584,45.11789367522198,1333.8533494251067,84.48133196435127,1518.8538090354373,1
-7.3210568454763925,-80.21516061936677,-47.81746356082277,125.41137171286425,-126.48057259713701,124.59170370370369,-123.47929965347438,-6.474509803921567,-2.490196078431371,-8.246753246753245,-7.470588235294116,0.4980392156862763,11.348936170212767,-8.193548387096776,1.0854700854700763,5.726005152858274,15.285825293408148,45.11789367522198,1333.8533494251067,84.48133196435127,1518.8538090354373,1
-7.3210568454763925,-80.21516061936677,-47.81746356082277,125.41137171286425,-126.48057259713701,124.59170370370369,-123.47929965347438,-0.49803921568627274,3.4862745098039234,-2.748917748917747,2.4901960784313744,-13.44705882352941,13.51063829787234,9.217741935483868,10.854700854700845,7.031695933053222,28.107690287385463,45.11789367522198,1333.8533494251067,84.48133196435127,1518.8538090354373,1
-7.01601281024821,-80.21516061936677,-47.852063751532484,125.33916133617623,-126.39101614836756,124.66696296296294,-123.64143716943279,-0.49803921568627274,3.4862745098039234,-2.748917748917747,2.4901960784313744,-13.44705882352941,13.51063829787234,9.217741935483868,10.854700854700845,7.031695933053222,28.107690287385463,45.02774572704916,1345.5113892228628,84.46879523569183,1514.6326286099247,1
-7.01601281024821,-80.21516061936677,-47.852063751532484,125.33916133617623,-126.39101614836756,124.66696296296294,-123.64143716943279,5.4784313725490215,-12.450980392156861,4.94805194805195,2.4901960784313744,12.450980392156865,3.7829787234042556,7.169354838709674,22.79487179487178,8.945730692541472,45.122758046715184,45.02774572704916,1345.5113892228628,84.46879523569183,1514.6326286099247,1
-7.01601281024821,-80.21516061936677,-47.852063751532484,125.33916133617623,-126.39101614836756,124.66696296296294,-123.64143716943279,13.447058823529414,14.443137254901963,-1.6493506493506471,5.4784313725490215,-4.482352941176469,-3.7829787234042556,-4.09677419354839,19.538461538461526,8.36481818711521,42.19102288593712,45.02774572704916,1345.5113892228628,84.46879523569183,1514.6326286099247,1
-7.117694155324271,-80.3325629766582,-47.92126413295191,125.26695095948827,-126.31937098935197,124.76730864197529,-123.80357468539121,13.447058823529414,14.443137254901963,-1.6493506493506471,5.4784313725490215,-4.482352941176469,-3.7829787234042556,-4.09677419354839,19.538461538461526,8.36481818711521,42.19102288593712,45.12384042164479,1345.9734386967211,84.50692602303279,1508.6577977993634,1
-7.117694155324271,-80.3325629766582,-47.92126413295191,125.26695095948827,-126.31937098935197,124.76730864197529,-123.80357468539121,-12.450980392156861,-9.462745098039214,34.63636363636364,2.4901960784313744,0.4980392156862763,8.106382978723405,9.217741935483868,5.427350427350417,10.286224970279383,112.05460199581889,45.12384042164479,1345.9734386967211,84.50692602303279,1508.6577977993634,1
-7.117694155324271,-80.3325629766582,-47.92126413295191,125.26695095948827,-126.31937098935197,124.76730864197529,-123.80357468539121,-1.4941176470588218,-7.470588235294116,-4.948051948051946,7.4705882352941195,9.462745098039218,17.83404255319149,3.0725806451612874,18.45299145299144,8.775713226885305,39.96858651813864,45.12384042164479,1345.9734386967211,84.50692602303279,1508.6577977993634,1
-6.965172137710179,-80.3325629766582,-47.95586432366162,125.1947405828003,-126.22981454058248,124.84256790123456,-123.9888747036294,-1.4941176470588218,-7.470588235294116,-4.948051948051946,7.4705882352941195,9.462745098039218,17.83404255319149,3.0725806451612874,18.45299145299144,8.775713226885305,39.96858651813864,45.084533146009996,1351.8769166775542,84.49438929437338,1504.4516001677543,1
-6.965172137710179,-80.3325629766582,-47.95586432366162,125.1947405828003,-126.22981454058248,124.84256790123456,-123.9888747036294,2.4901960784313744,-0.49803921568627274,-14.844155844155843,1.4941176470588253,-6.474509803921567,12.429787234042553,2.048387096774191,10.854700854700845,6.391736721846434,31.519341642135917,45.084533146009996,1351.8769166775542,84.49438929437338,1504.4516001677543,1
-6.965172137710179,-80.3325629766582,-47.95586432366162,125.1947405828003,-126.22981454058248,124.84256790123456,-123.9888747036294,4.482352941176472,14.443137254901963,4.94805194805195,-6.474509803921567,3.4862745098039234,14.591489361702129,5.120967741935481,15.196581196581185,8.592920594759335,26.659712082971193,45.084533146009996,1351.8769166775542,84.49438929437338,1504.4516001677543,1
-6.761809447558058,-80.62606886988677,-47.93856422830677,125.12253020611229,-126.15816938156689,124.86765432098764,-124.15101221958783,4.482352941176472,14.443137254901963,4.94805194805195,-6.474509803921567,3.4862745098039234,14.591489361702129,5.120967741935481,15.196581196581185,8.592920594759335,26.659712082971193,45.108814181917204,1369.98781899605,84.56238776810194,1500.9621058670946,1
-6.761809447558058,-80.62606886988677,-47.93856422830677,125.12253020611229,-126.15816938156689,124.86765432098764,-124.15101221958783,-9.462745098039214,-1.4941176470588218,-28.038961038961038,-16.435294117647057,-11.454901960784312,8.106382978723405,-8.193548387096776,4.341880341880332,10.94097894627387,67.6217689704303,45.108814181917204,1369.98781899605,84.56238776810194,1500.9621058670946,1
-6.761809447558058,-80.62606886988677,-47.93856422830677,125.12253020611229,-126.15816938156689,124.86765432098764,-124.15101221958783,4.482352941176472,-8.466666666666665,17.043290043290046,9.462745098039218,5.4784313725490215,13.51063829787234,-9.217741935483874,5.427350427350417,9.136152097803507,18.716066851485746,45.108814181917204,1369.98781899605,84.56238776810194,1500.9621058670946,1
-6.812650120096088,-81.09567829905247,-47.86936384688734,125.0864250177683,-126.0865242225513,124.96799999999999,-124.28998723326646,4.482352941176472,-8.466666666666665,17.043290043290046,9.462745098039218,5.4784313725490215,13.51063829787234,-9.217741935483874,5.427350427350417,9.136152097803507,18.716066851485746,45.2592307553453,1384.6016649255787,84.6838223879027,1500.2747174686565,1
-6.812650120096088,-81.09567829905247,-47.86936384688734,125.0864250177683,-126.0865242225513,124.96799999999999,-124.28998723326646,-6.474509803921567,-17.431372549019606,-41.23376623376623,-9.462745098039214,3.4862745098039234,14.591489361702129,5.120967741935481,7.598290598290588,13.174926987059841,150.847634602952,45.2592307553453,1384.6016649255787,84.6838223879027,1500.2747174686565,1
-6.812650120096088,-81.09567829905247,-47.86936384688734,125.0864250177683,-126.0865242225513,124.96799999999999,-124.28998723326646,3.4862745098039234,6.4745098039215705,-21.441558441558442,-8.466666666666665,-28.388235294117646,-1.6212765957446802,10.241935483870964,3.2564102564102466,10.422108381511766,91.50820088658546,45.2592307553453,1384.6016649255787,84.6838223879027,1500.2747174686565,1
-6.482185748598891,-81.03697712040676,-47.78286337011306,125.0864250177683,-126.05070164304351,125.06834567901234,-124.4289622469451,3.4862745098039234,6.4745098039215705,-21.441558441558442,-8.466666666666665,-28.388235294117646,-1.6212765957446802,10.241935483870964,3.2564102564102466,10.422108381511766,91.50820088658546,45.100675413039575,1394.9998283012517,84.63542183609604,1503.6717641321127,1
-6.482185748598891,-81.03697712040676,-47.78286337011306,125.0864250177683,-126.05070164304351,125.06834567901234,-124.4289622469451,4.482352941176472,10.458823529411767,30.23809523809524,-0.49803921568627274,-0.49803921568627274,12.429787234042553,7.169354838709674,23.880341880341867,11.206854261643764,116.5340422189449,45.100675413039575,1394.9998283012517,84.63542183609604,1503.6717641321127,1
-6.482185748598891,-81.03697712040676,-47.78286337011306,125.0864250177683,-126.05070164304351,125.06834567901234,-124.4289622469451,0.4980392156862763,12.450980392156865,35.735930735930744,6.4745098039215705,15.439215686274512,17.83404255319149,16.387096774193544,14.1111111111111,14.866365784058264,104.3233111172091,45.100675413039575,1394.9998283012517,84.63542183609604,1503.6717641321127,1
-6.3805044035228295,-81.56528772821817,-47.713662988693635,125.15863539445627,-126.01487906353572,125.16869135802467,-124.54477475834398,0.4980392156862763,12.450980392156865,35.735930735930744,6.4745098039215705,15.439215686274512,17.83404255319149,16.387096774193544,14.1111111111111,14.866365784058264,104.3233111172091,45.21981837347821,1417.852356618976,84.81252870378935,1507.3393681974053,1
-6.3805044035228295,-81.56528772821817,-47.713662988693635,125.15863539445627,-126.01487906353572,125.16869135802467,-124.54477475834398,2.4901960784313744,-25.4,-44.532467532467535,2.4901960784313744,13.447058823529414,10.26808510638298,4.096774193548384,17.367521367521356,15.011537397539051,206.086299606608,45.21981837347821,1417.852356618976,84.81252870378935,1507.3393681974053,1
-6.3805044035228295,-81.56528772821817,-47.713662988693635,125.15863539445627,-126.01487906353572,125.16869135802467,-124.54477475834398,-6.474509803921567,8.466666666666669,10.445887445887449,3.4862745098039234,-17.431372549019606,7.025531914893618,7.169354838709674,4.341880341880332,8.105184758847855,18.969236810191695,45.21981837347821,1417.852356618976,84.81252870378935,1507.3393681974053,1
-6.227982385908739,-81.97619597873816,-47.78286337011306,125.26695095948827,-125.99696777378182,125.26903703703702,-124.63742476746307,-6.474509803921567,8.466666666666669,10.445887445887449,3.4862745098039234,-17.431372549019606,7.025531914893618,7.169354838709674,4.341880341880332,8.105184758847855,18.969236810191695,45.32901391158666,1438.9639985000597,85.00867010277983,1507.8428818742289,1
-6.227982385908739,-81.97619597873816,-47.78286337011306,125.26695095948827,-125.99696777378182,125.26903703703702,-124.63742476746307,2.4901960784313744,-11.454901960784312,1.6493506493506516,-1.4941176470588218,7.4705882352941195,9.187234042553193,3.0725806451612874,15.196581196581185,6.501943806901869,26.39402917462466,45.32901391158666,1438.9639985000597,85.00867010277983,1507.8428818742289,1
-6.227982385908739,-81.97619597873816,-47.78286337011306,125.26695095948827,-125.99696777378182,125.26903703703702,-124.63742476746307,-1.4941176470588218,12.450980392156865,29.13852813852814,-12.450980392156861,1.4941176470588253,16.753191489361704,-10.24193548387097,1.0854700854700763,10.638665159457783,92.12396635128724,45.32901391158666,1438.9639985000597,85.00867010277983,1507.8428818742289,1
-6.100880704563663,-82.44580540790386,-47.86936384688734,125.30305614783225,-125.99696777378182,125.3192098765432,-124.68374977202262,-1.4941176470588218,12.450980392156865,29.13852813852814,-12.450980392156861,1.4941176470588253,16.753191489361704,-10.24193548387097,1.0854700854700763,10.638665159457783,92.12396635128724,45.47201665311829,1461.4473371652755,85.20607513420782,1504.7084925608165,1
-6.100880704563663,-82.44580540790386,-47.86936384688734,125.30305614783225,-125.99696777378182,125.3192098765432,-124.68374977202262,18.42745098039216,44.325490196078434,6.04761904761905,1.4941176470588253,22.411764705882355,13.51063829787234,5.120967741935481,20.62393162393161,16.495247530096282,186.110856643274,45.47201665311829,1461.4473371652755,85.20607513420782,1504.7084925608165,1
-6.100880704563663,-82.44580540790386,-47.86936384688734,125.30305614783225,-125.99696777378182,125.3192098765432,-124.68374977202262,-21.415686274509802,-31.376470588235293,1.6493506493506516,-4.482352941176469,-11.454901960784312,11.348936170212767,14.338709677419352,2.1709401709401615,12.2796685540786,104.27557140257986,45.47201665311829,1461.4473371652755,85.20607513420782,1504.7084925608165,1
-6.050040032025632,-83.26762190894385,-47.852063751532484,125.44747690120823,-126.03279035328961,125.44464197530863,-124.68374977202262,-21.415686274509802,-31.376470588235293,1.6493506493506516,-4.482352941176469,-11.454901960784312,11.348936170212767,14.338709677419352,2.1709401709401615,12.2796685540786,104.27557140257986,45.72324189750066,1494.0376495942946,85.52238752056151,1509.0750114397183,1
-6.050040032025632,-83.26762190894385,-47.852063751532484,125.44747690120823,-126.03279035328961,125.44464197530863,-124.68374977202262,12.450980392156865,43.32941176470588,-6.047619047619046,-3.48627450980392,6.4745098039215705,14.591489361702129,9.217741935483868,11.94017094017093,13.442274719445527,159.7142761576013,45.72324189750066,1494.0376495942946,85.52238752056151,1509.0750114397183,1
-6.050040032025632,-83.26762190894385,-47.852063751532484,125.44747690120823,-126.03279035328961,125.44464197530863,-124.68374977202262,5.4784313725490215,-0.49803921568627274,-10.445887445887445,3.4862745098039234,2.4901960784313744,12.429787234042553,7.169354838709674,27.136752136752126,8.6418403539828,71.79776325022814,45.72324189750066,1494.0376495942946,85.52238752056151,1509.0750114397183,1
-5.439951961569267,-83.73723133810955,-47.97316441901648,125.7363184079602,-126.1223468020591,125.51990123456788,-124.6142622651833,5.4784313725490215,-0.49803921568627274,-10.445887445887445,3.4862745098039234,2.4901960784313744,12.429787234042553,7.169354838709674,27.136752136752126,8.6418403539828,71.79776325022814,45.71678257289843,1536.4344337186185,85.81557138836207,1515.0166526004061,1
-5.439951961569267,-83.73723133810955,-47.97316441901648,125.7363184079602,-126.1223468020591,125.51990123456788,-124.6142622651833,-13.44705882352941,-34.364705882352936,3.848484848484851,9.462745098039218,-4.482352941176469,11.348936170212767,6.145161290322578,-1.0854700854700958,10.52311439244854,109.72205462092441,45.71678257289843,1536.4344337186185,85.81557138836207,1515.0166526004061,1
-5.439951961569267,-83.73723133810955,-47.97316441901648,125.7363184079602,-126.1223468020591,125.51990123456788,-124.6142622651833,2.4901960784313744,-4.482352941176469,-18.142857142857142,-5.478431372549018,6.4745098039215705,13.51063829787234,17.41129032258064,11.94017094017093,9.991305862444936,36.719547786778826,45.71678257289843,1536.4344337186185,85.81557138836207,1515.0166526004061,1
-4.906124899919948,-84.50034666050382,-47.99046451437133,126.09737029140013,-126.24772583033638,125.59516049382714,-124.54477475834398,2.4901960784313744,-4.482352941176469,-18.142857142857142,-5.478431372549018,6.4745098039215705,13.51063829787234,17.41129032258064,11.94017094017093,9.991305862444936,36.719547786778826,45.798978691598364,1587.4119920018122,86.19606048875842,1527.328766555914,1
-4.906124899919948,-84.50034666050382,-47.99046451437133,126.09737029140013,-126.24772583033638,125.59516049382714,-124.54477475834398,-2.490196078431371,-7.470588235294116,10.445887445887449,-0.49803921568627274,-9.462745098039214,9.187234042553193,-2.6645352591003757e-15,-6.512820512820522,5.758438828589018,17.4948679881966,45.798978691598364,1587.4119920018122,86.19606048875842,1527.328766555914,1
-4.906124899919948,-84.50034666050382,-47.99046451437133,126.09737029140013,-126.24772583033638,125.59516049382714,-124.54477475834398,-5.478431372549018,-19.423529411764704,-6.047619047619046,-1.4941176470588218,16.43529411764706,13.51063829787234,3.0725806451612874,15.196581196581185,10.082348967031683,46.556539298937125,45.798978691598364,1587.4119920018122,86.19606048875842,1527.328766555914,1
-4.753602882305856,-84.55904783914953,-48.00776460972619,126.49452736318409,-126.39101614836756,125.62024691358023,-124.45212474922488,-5.478431372549018,-19.423529411764704,-6.047619047619046,-1.4941176470588218,16.43529411764706,13.51063829787234,3.0725806451612874,15.196581196581185,10.082348967031683,46.556539298937125,45.77347177706053,1595.971309536527,86.35377993735325,1542.4587793576388,1
-4.753602882305856,-84.55904783914953,-48.00776460972619,126.49452736318409,-126.39101614836756,125.62024691358023,-124.45212474922488,-6.474509803921567,5.4784313725490215,34.63636363636364,3.4862745098039234,3.4862745098039234,10.26808510638298,-1.0241935483870996,15.196581196581185,10.006339210474167,118.90320320726009,45.77347177706053,1595.971309536527,86.35377993735325,1542.4587793576388,1
-4.753602882305856,-84.55904783914953,-48.00776460972619,126.49452736318409,-126.39101614836756,125.62024691358023,-124.45212474922488,-0.49803921568627274,-5.478431372549018,-33.53679653679654,4.482352941176472,-10.458823529411763,7.025531914893618,-1.0241935483870996,10.854700854700845,9.169858739200203,111.42822574356123,45.77347177706053,1595.971309536527,86.35377993735325,1542.4587793576388,1
-5.363690952762221,-84.79385255373239,-47.886663942242194,126.78336886993606,-126.49848388689091,125.72059259259257,-124.31314973554623,-0.49803921568627274,-5.478431372549018,-33.53679653679654,4.482352941176472,-10.458823529411763,7.025531914893618,-1.0241935483870996,10.854700854700845,9.169858739200203,111.42822574356123,46.014735816245604,1579.915729170732,86.48796178863688,1558.3250166867397,1
-5.363690952762221,-84.79385255373239,-47.886663942242194,126.78336886993606,-126.49848388689091,125.72059259259257,-124.31314973554623,-4.482352941176469,-16.435294117647057,0.5497835497835519,-12.450980392156861,15.439215686274512,10.26808510638298,1.0241935483870943,14.1111111111111,9.345127056614952,41.551962805717075,46.014735816245604,1579.915729170732,86.48796178863688,1558.3250166867397,1
-5.363690952762221,-84.79385255373239,-47.886663942242194,126.78336886993606,-126.49848388689091,125.72059259259257,-124.31314973554623,-8.466666666666665,-18.427450980392155,31.33766233766234,2.4901960784313744,-15.439215686274508,11.348936170212767,-11.266129032258068,1.0854700854700763,12.482715879670994,92.60451819966566,46.014735816245604,1579.915729170732,86.48796178863688,1558.3250166867397,1
-5.872097678142525,-84.4416454818581,-47.64446260727421,126.92778962331204,-126.5701290459065,125.87111111111109,-124.22049972642714,-8.466666666666665,-18.427450980392155,31.33766233766234,2.4901960784313744,-15.439215686274508,11.348936170212767,-11.266129032258068,1.0854700854700763,12.482715879670994,92.60451819966566,45.98606858909161,1545.356163559745,86.33796590414812,1574.158509040994,1
-5.872097678142525,-84.4416454818581,-47.64446260727421,126.92778962331204,-126.5701290459065,125.87111111111109,-124.22049972642714,-1.4941176470588218,1.4941176470588253,14.844155844155846,9.462745098039218,-3.48627450980392,9.187234042553193,-1.0241935483870996,14.1111111111111,6.887993681021003,33.07620507561603,45.98606858909161,1545.356163559745,86.33796590414812,1574.158509040994,1
-5.872097678142525,-84.4416454818581,-47.64446260727421,126.92778962331204,-126.5701290459065,125.87111111111109,-124.22049972642714,17.43137254901961,53.29019607843138,41.23376623376624,7.4705882352941195,17.43137254901961,18.914893617021278,7.169354838709674,4.341880341880332,20.91042805539278,304.8057749909995,45.98606858909161,1545.356163559745,86.33796590414812,1574.158509040994,1
-6.405924739791844,-85.3221631615438,-47.45416155837079,127.0,-126.5880403356604,126.12197530864196,-124.12784971730805,17.43137254901961,53.29019607843138,41.23376623376624,7.4705882352941195,17.43137254901961,18.914893617021278,7.169354838709674,4.341880341880332,20.91042805539278,304.8057749909995,46.39408315323548,1557.7859963284754,86.59210823997154,1583.0946737221107,1
-6.405924739791844,-85.3221631615438,-47.45416155837079,127.0,-126.5880403356604,126.12197530864196,-124.12784971730805,-1.4941176470588218,4.482352941176472,-20.341991341991342,4.482352941176472,-25.4,3.7829787234042556,17.41129032258064,29.307692307692296,13.337847028135037,122.08449363332723,46.39408315323548,1557.7859963284754,86.59210823997154,1583.0946737221107,1
-6.405924739791844,-85.3221631615438,-47.45416155837079,127.0,-126.5880403356604,126.12197530864196,-124.12784971730805,-0.49803921568627274,-3.48627450980392,-10.445887445887445,-9.462745098039214,-7.470588235294116,5.944680851063831,2.048387096774191,5.427350427350417,5.597994109987425,12.166128465552053,46.39408315323548,1557.7859963284754,86.59210823997154,1583.0946737221107,1
-6.558446757405936,-85.55696787612665,-47.64446260727421,126.96389481165602,-126.5880403356604,126.34775308641974,-124.01203720590918,-0.49803921568627274,-3.48627450980392,-10.445887445887445,-9.462745098039214,-7.470588235294116,5.944680851063831,2.048387096774191,5.427350427350417,5.597994109987425,12.166128465552053,46.586625746935596,1561.0308488535588,86.72177509835228,1573.9106632050925,1
-6.558446757405936,-85.55696787612665,-47.64446260727421,126.96389481165602,-126.5880403356604,126.34775308641974,-124.01203720590918,-3.48627450980392,-2.490196078431371,-6.047619047619046,-0.49803921568627274,8.466666666666669,17.83404255319149,9.217741935483868,-8.881784197001252e-15,6.00507250086033,34.484863481455044,46.586625746935596,1561.0308488535588,86.72177509835228,1573.9106632050925,1
-6.558446757405936,-85.55696787612665,-47.64446260727421,126.96389481165602,-126.5880403356604,126.34775308641974,-124.01203720590918,2.4901960784313744,4.482352941176472,25.839826839826845,3.4862745098039234,9.462745098039218,12.429787234042553,1.0241935483870943,15.196581196581185,9.301494680786083,70.00415815108478,46.586625746935596,1561.0308488535588,86.72177509835228,1573.9106632050925,1
-6.914331465172149,-85.20476080425237,-47.713662988693635,126.85557924662402,-126.5343064663987,126.5986172839506,-123.91938719679008,2.4901960784313744,4.482352941176472,25.839826839826845,3.4862745098039234,9.462745098039218,12.429787234042553,1.0241935483870943,15.196581196581185,9.301494680786083,70.00415815108478,46.61091841937272,1533.2598657132535,86.59133434652334,1567.3026668854109,1
-6.914331465172149,-85.20476080425237,-47.713662988693635,126.85557924662402,-126.5343064663987,126.5986172839506,-123.91938719679008,-8.466666666666665,-11.454901960784312,-14.844155844155843,9.462745098039218,-0.49803921568627274,5.944680851063831,-10.24193548387097,3.2564102564102466,8.02119192208467,21.30918511136295,46.61091841937272,1533.2598657132535,86.59133434652334,1567.3026668854109,1
-6.914331465172149,-85.20476080425237,-47.713662988693635,126.85557924662402,-126.5343064663987,126.5986172839506,-123.91938719679008,-0.49803921568627274,-15.439215686274508,-15.943722943722943,-2.490196078431371,19.423529411764708,14.591489361702129,6.145161290322578,20.62393162393161,11.894410701479515,60.07133913059655,46.61091841937272,1533.2598657132535,86.59133434652334,1567.3026668854109,1
-6.914331465172149,-84.50034666050382,-47.95586432366162,126.74726368159202,-126.5163951766448,126.7742222222222,-123.84989968995076,-0.49803921568627274,-15.439215686274508,-15.943722943722943,-2.490196078431371,19.423529411764708,14.591489361702129,6.145161290322578,20.62393162393161,11.894410701479515,60.07133913059655,46.45684748311253,1506.5827270887467,86.40115822191916,1554.7309666392262,1
-6.914331465172149,-84.50034666050382,-47.95586432366162,126.74726368159202,-126.5163951766448,126.7742222222222,-123.84989968995076,-4.482352941176469,3.4862745098039234,6.04761904761905,-3.48627450980392,-9.462745098039214,13.51063829787234,4.096774193548384,-8.881784197001252e-15,5.571584824732914,17.356770725083784,46.45684748311253,1506.5827270887467,86.40115822191916,1554.7309666392262,1
-6.914331465172149,-84.50034666050382,-47.95586432366162,126.74726368159202,-126.5163951766448,126.7742222222222,-123.84989968995076,23.407843137254904,31.376470588235296,20.341991341991346,1.4941176470588253,3.4862745098039234,8.106382978723405,-7.16935483870968,29.307692307692296,15.586265918683708,141.88479658162856,46.45684748311253,1506.5827270887467,86.40115822191916,1554.7309666392262,1
-7.143114491593286,-83.9720360526924,-48.1634654679199,126.49452736318409,-126.44475001762922,126.89965432098764,-123.78041218311144,23.407843137254904,31.376470588235296,20.341991341991346,1.4941176470588253,3.4862745098039234,8.106382978723405,-7.16935483870968,29.307692307692296,15.586265918683708,141.88479658162856,46.42620533740186,1477.934351631196,86.21000962793214,1537.695208702531,1
-7.143114491593286,-83.9720360526924,-48.1634654679199,126.49452736318409,-126.44475001762922,126.89965432098764,-123.78041218311144,13.447058823529414,19.423529411764708,19.242424242424246,-5.478431372549018,-11.454901960784312,7.025531914893618,9.217741935483868,14.1111111111111,12.425091346567536,26.854418267943576,46.42620533740186,1477.934351631196,86.21000962793214,1537.695208702531,1
-7.143114491593286,-83.9720360526924,-48.1634654679199,126.49452736318409,-126.44475001762922,126.89965432098764,-123.78041218311144,-21.415686274509802,-24.40392156862745,-4.948051948051946,-3.48627450980392,-1.4941176470588218,3.7829787234042556,6.145161290322578,-2.170940170940181,8.48089151658987,82.06221018854448,46.42620533740186,1477.934351631196,86.21000962793214,1537.695208702531,1
-6.710968775020027,-83.9720360526924,-48.38836670753303,126.42231698649607,-126.42683872787532,126.97491358024689,-123.71092467627211,-21.415686274509802,-24.40392156862745,-4.948051948051946,-3.48627450980392,-1.4941176470588218,3.7829787234042556,6.145161290322578,-2.170940170940181,8.48089151658987,82.06221018854448,46.357123845081816,1495.4125898959487,86.26090658224051,1526.2535452606944,1
-6.710968775020027,-83.9720360526924,-48.38836670753303,126.42231698649607,-126.42683872787532,126.97491358024689,-123.71092467627211,-5.478431372549018,-12.450980392156861,-9.346320346320345,0.4980392156862763,12.450980392156865,17.83404255319149,-2.6645352591003757e-15,2.1709401709401615,7.528716805375128,42.4260319946322,46.357123845081816,1495.4125898959487,86.26090658224051,1526.2535452606944,1
-6.710968775020027,-83.9720360526924,-48.38836670753303,126.42231698649607,-126.42683872787532,126.97491358024689,-123.71092467627211,3.4862745098039234,9.462745098039218,21.441558441558445,-8.466666666666665,-27.392156862745097,2.7021276595744688,5.120967741935481,14.1111111111111,11.5229510114293,79.12497805527514,46.357123845081816,1495.4125898959487,86.26090658224051,1526.2535452606944,1
-6.812650120096088,-83.20892073029813,-48.544067565726735,126.27789623312009,-126.39101614836756,126.99999999999999,-123.66459967171257,3.4862745098039234,9.462745098039218,21.441558441558445,-8.466666666666665,-27.392156862745097,2.7021276595744688,5.120967741935481,14.1111111111111,11.5229510114293,79.12497805527514,46.18854613870699,1463.258901681667,86.01029484304831,1516.5228025126064,1
-6.812650120096088,-83.20892073029813,-48.544067565726735,126.27789623312009,-126.39101614836756,126.99999999999999,-123.66459967171257,7.4705882352941195,-0.49803921568627274,-3.848484848484847,0.4980392156862763,-26.396078431372548,8.106382978723405,4.096774193548384,18.45299145299144,8.670922321473412,84.20004471440787,46.18854613870699,1463.258901681667,86.01029484304831,1516.5228025126064,1
-6.812650120096088,-83.20892073029813,-48.544067565726735,126.27789623312009,-126.39101614836756,126.99999999999999,-123.66459967171257,-10.458823529411763,-22.41176470588235,-25.839826839826838,12.450980392156865,9.462745098039218,8.106382978723405,1.0241935483870943,3.2564102564102466,11.626390918604724,74.27488490320277,46.18854613870699,1463.258901681667,86.01029484304831,1516.5228025126064,1
-7.041433146517225,-82.26970187196673,-48.66516823321073,126.09737029140013,-126.35519356885976,126.97491358024689,-123.61827466715302,-10.458823529411763,-22.41176470588235,-25.839826839826838,12.450980392156865,9.462745098039218,8.106382978723405,1.0241935483870943,3.2564102564102466,11.626390918604724,74.27488490320277,45.99210108389823,1420.1820698456613,85.67741346552587,1507.6458526237257,1
-7.041433146517225,-82.26970187196673,-48.66516823321073,126.09737029140013,-126.35519356885976,126.97491358024689,-123.61827466715302,-20.419607843137253,-20.419607843137253,2.7489177489177514,-5.478431372549018,2.4901960784313744,7.025531914893618,2.048387096774191,15.196581196581185,9.478407636802705,63.351426050372865,45.99210108389823,1420.1820698456613,85.67741346552587,1507.6458526237257,1
-7.041433146517225,-82.26970187196673,-48.66516823321073,126.09737029140013,-126.35519356885976,126.97491358024689,-123.61827466715302,21.415686274509806,28.38823529411765,-1.6493506493506471,-23.4078431372549,-12.450980392156861,12.429787234042553,6.145161290322578,23.880341880341867,16.220923269012108,89.6834921496232,45.99210108389823,1420.1820698456613,85.67741346552587,1507.6458526237257,1
-7.168534827862301,-81.85879362144674,-48.64786813785587,125.80852878464816,-126.28354840984417,126.94982716049381,-123.64143716943279,21.415686274509806,28.38823529411765,-1.6493506493506471,-23.4078431372549,-12.450980392156861,12.429787234042553,6.145161290322578,23.880341880341867,16.220923269012108,89.6834921496232,45.89173219572164,1400.3559036617971,85.4383968479836,1498.0520573069348,1
-7.168534827862301,-81.85879362144674,-48.64786813785587,125.80852878464816,-126.28354840984417,126.94982716049381,-123.64143716943279,-5.478431372549018,-4.482352941176469,1.6493506493506516,-7.470588235294116,-17.431372549019606,8.106382978723405,4.096774193548384,11.94017094017093,7.581927982479073,25.381017671530667,45.89173219572164,1400.3559036617971,85.4383968479836,1498.0520573069348,1
-7.168534827862301,-81.85879362144674,-48.64786813785587,125.80852878464816,-126.28354840984417,126.94982716049381,-123.64143716943279,-12.450980392156861,-11.454901960784312,-40.134199134199136,-0.49803921568627274,3.4862745098039234,7.025531914893618,3.0725806451612874,11.94017094017093,11.257834839107044,156.6933650414983,45.89173219572164,1400.3559036617971,85.4383968479836,1498.0520573069348,1
-7.193955164131316,-81.74139126415531,-48.682468328565584,125.55579246624023,-126.19399196107469,126.92474074074073,-123.66459967171257,-12.450980392156861,-11.454901960784312,-40.134199134199136,-0.49803921568627274,3.4862745098039234,7.025531914893618,3.0725806451612874,11.94017094017093,11.257834839107044,156.6933650414983,45.872604918950735,1395.2515565573094,85.32655068632037,1487.0170170557521,1
-7.193955164131316,-81.74139126415531,-48.682468328565584,125.55579246624023,-126.19399196107469,126.92474074074073,-123.66459967171257,-1.4941176470588218,10.458823529411767,24.740259740259745,2.4901960784313744,6.4745098039215705,13.51063829787234,-1.0241935483870996,11.94017094017093,9.016613698189207,63.9399434214668,45.872604918950735,1395.2515565573094,85.32655068632037,1487.0170170557521,1
-7.193955164131316,-81.74139126415531,-48.682468328565584,125.55579246624023,-126.19399196107469,126.92474074074073,-123.66459967171257,7.4705882352941195,9.462745098039218,21.441558441558445,-11.454901960784312,5.4784313725490215,18.914893617021278,20.483870967741932,27.136752136752126,15.230467728717556,60.62142286046497,45.872604918950735,1395.2515565573094,85.32655068632037,1487.0170170557521,1
-7.346477181745407,-82.56320776519529,-48.66516823321073,125.26695095948827,-126.0865242225513,126.94982716049381,-123.66459967171257,7.4705882352941195,9.462745098039218,21.441558441558445,-11.454901960784312,5.4784313725490215,18.914893617021278,20.483870967741932,27.136752136752126,15.230467728717556,60.62142286046497,46.19161772671714,1418.977978996952,85.49844231929809,1473.4199806266574,1
-7.346477181745407,-82.56320776519529,-48.66516823321073,125.26695095948827,-126.0865242225513,126.94982716049381,-123.66459967171257,-0.49803921568627274,-7.470588235294116,-15.943722943722943,1.4941176470588253,6.4745098039215705,-2.702127659574467,-1.0241935483870996,9.76923076923076,5.672066227859506,28.688764497441134,46.19161772671714,1418.977978996952,85.49844231929809,1473.4199806266574,1
-7.346477181745407,-82.56320776519529,-48.66516823321073,125.26695095948827,-126.0865242225513,126.94982716049381,-123.66459967171257,4.482352941176472,-2.490196078431371,-4.948051948051946,6.4745098039215705,1.4941176470588253,12.429787234042553,4.096774193548384,18.45299145299144,6.85859766240282,32.91437358659787,46.19161772671714,1418.977978996952,85.49844231929809,1473.4199806266574,1
-7.219375500400331,-84.08943840998383,-48.95926985424329,124.86979388770436,-125.99696777378182,126.92474074074073,-123.57194966259347,4.482352941176472,-2.490196078431371,-4.948051948051946,6.4745098039215705,1.4941176470588253,12.429787234042553,4.096774193548384,18.45299145299144,6.85859766240282,32.91437358659787,46.75602792154248,1480.8923491913397,85.97283405064383,1443.2622991131107,1
-7.219375500400331,-84.08943840998383,-48.95926985424329,124.86979388770436,-125.99696777378182,126.92474074074073,-123.57194966259347,8.466666666666669,19.423529411764708,13.744588744588748,5.4784313725490215,13.447058823529414,10.26808510638298,8.193548387096772,10.854700854700845,11.234576170909895,18.482140566864334,46.75602792154248,1480.8923491913397,85.97283405064383,1443.2622991131107,1
-7.219375500400331,-84.08943840998383,-48.95926985424329,124.86979388770436,-125.99696777378182,126.92474074074073,-123.57194966259347,-17.431372549019606,-27.392156862745097,-21.441558441558442,-2.490196078431371,-24.40392156862745,3.7829787234042556,10.241935483870964,-5.4273504273504365,14.076433766875953,97.02461453832426,46.75602792154248,1480.8923491913397,85.97283405064383,1443.2622991131107,1
-6.7872297838270725,-85.3221631615438,-49.59937338237297,124.3643212508884,-125.94323390452013,126.74913580246911,-123.34032463979574,-17.431372549019606,-27.392156862745097,-21.441558441558442,-2.490196078431371,-24.40392156862745,3.7829787234042556,10.241935483870964,-5.4273504273504365,14.076433766875953,97.02461453832426,47.236255442581275,1546.1221849586252,86.42861926493505,1398.3675412770062,1
-6.7872297838270725,-85.3221631615438,-49.59937338237297,124.3643212508884,-125.94323390452013,126.74913580246911,-123.34032463979574,0.4980392156862763,-30.380392156862744,-22.541125541125542,10.458823529411767,0.4980392156862763,16.753191489361704,25.604838709677416,4.341880341880332,13.884541274961506,136.26269542968504,47.236255442581275,1546.1221849586252,86.42861926493505,1398.3675412770062,1
-6.7872297838270725,-85.3221631615438,-49.59937338237297,124.3643212508884,-125.94323390452013,126.74913580246911,-123.34032463979574,9.462745098039218,15.439215686274512,6.04761904761905,-11.454901960784312,-14.44313725490196,21.07659574468085,-7.16935483870968,-1.0854700854700958,10.77237996455996,38.9647194465241,47.236255442581275,1546.1221849586252,86.42861926493505,1398.3675412770062,1
-5.643314651721388,-86.37878437716664,-50.27407710121236,123.7144278606965,-125.94323390452013,126.2474074074074,-122.90023709648003,9.462745098039218,15.439215686274512,6.04761904761905,-11.454901960784312,-14.44313725490196,21.07659574468085,-7.16935483870968,-1.0854700854700958,10.77237996455996,38.9647194465241,47.43205871003346,1635.611819348921,86.7890964463585,1348.497546914609,1
-5.643314651721388,-86.37878437716664,-50.27407710121236,123.7144278606965,-125.94323390452013,126.2474074074074,-122.90023709648003,-7.470588235294116,-19.423529411764704,-37.935064935064936,6.4745098039215705,-22.41176470588235,21.07659574468085,6.145161290322578,28.22222222222221,18.644929543644167,130.538764368734,47.43205871003346,1635.611819348921,86.7890964463585,1348.497546914609,1
-5.643314651721388,-86.37878437716664,-50.27407710121236,123.7144278606965,-125.94323390452013,126.2474074074074,-122.90023709648003,-0.49803921568627274,-8.466666666666665,23.640692640692645,0.4980392156862763,-6.474509803921567,12.429787234042553,-10.24193548387097,21.709401709401696,10.494883996246081,74.64805875145171,47.43205871003346,1635.611819348921,86.7890964463585,1348.497546914609,1
-5.490792634107297,-86.26138201987521,-50.793079961858055,122.81179815209669,-125.92532261476623,125.49481481481479,-122.29801203720591,-0.49803921568627274,-8.466666666666665,23.640692640692645,0.4980392156862763,-6.474509803921567,12.429787234042553,-10.24193548387097,21.709401709401696,10.494883996246081,74.64805875145171,47.51508487194686,1639.0309662881925,86.62208671127665,1296.7715233470515,1
-5.490792634107297,-86.26138201987521,-50.793079961858055,122.81179815209669,-125.92532261476623,125.49481481481479,-122.29801203720591,19.423529411764708,0.4980392156862763,-21.441558441558442,-12.450980392156861,10.458823529411767,38.37021276595745,38.91935483870967,44.50427350427349,23.258346512439832,248.812882512244,47.51508487194686,1639.0309662881925,86.62208671127665,1296.7715233470515,1
-5.490792634107297,-86.26138201987521,-50.793079961858055,122.81179815209669,-125.92532261476623,125.49481481481479,-122.29801203720591,-43.32941176470588,-64.24705882352941,24.740259740259745,-4.482352941176469,-84.1686274509804,-5.944680851063829,-26.62903225806452,-31.478632478632484,35.6275070385516,757.4924440181027,47.51508487194686,1639.0309662881925,86.62208671127665,1296.7715233470515,1
-4.829863891112902,-83.15021955165243,-52.22898787631112,121.80085287846481,-125.94323390452013,124.29066666666665,-121.71894948021156,-43.32941176470588,-64.24705882352941,24.740259740259745,-4.482352941176469,-84.1686274509804,-5.944680851063829,-26.62903225806452,-31.478632478632484,35.6275070385516,757.4924440181027,46.73635710635882,1556.1462722796214,85.72668676880944,1215.039737460288,1
-4.829863891112902,-83.15021955165243,-52.22898787631112,121.80085287846481,-125.94323390452013,124.29066666666665,-121.71894948021156,-10.458823529411763,-54.28627450980392,-6.047619047619046,33.3686274509804,-39.345098039215685,-14.591489361702127,-46.08870967741936,23.880341880341867,28.508372937061772,308.57073618449465,46.73635710635882,1556.1462722796214,85.72668676880944,1215.039737460288,1
-4.829863891112902,-83.15021955165243,-52.22898787631112,121.80085287846481,-125.94323390452013,124.29066666666665,-121.71894948021156,7.4705882352941195,-7.470588235294116,-76.41991341991343,21.415686274509806,88.15294117647059,30.804255319148936,-11.266129032258068,14.1111111111111,32.13890160050002,1027.5534997394502,46.73635710635882,1556.1462722796214,85.72668676880944,1215.039737460288,1
-2.2878302642113804,-77.80841229489255,-54.893202560959,120.46496090973704,-125.97905648402792,121.9827160493827,-121.09356191865767,7.4705882352941195,-7.470588235294116,-76.41991341991343,21.415686274509806,88.15294117647059,30.804255319148936,-11.266129032258068,14.1111111111111,32.13890160050002,1027.5534997394502,44.99648170668764,1499.298390313738,84.38885858852953,1107.3905783052164,1
-2.2878302642113804,-77.80841229489255,-54.893202560959,120.46496090973704,-125.97905648402792,121.9827160493827,-121.09356191865767,0.4980392156862763,59.266666666666666,119.30303030303031,39.345098039215685,-29.384313725490195,-4.863829787234042,-17.411290322580648,-8.881784197001252e-15,33.759033507487985,1623.8435167394632,44.99648170668764,1499.298390313738,84.38885858852953,1107.3905783052164,1
-2.2878302642113804,-77.80841229489255,-54.893202560959,120.46496090973704,-125.97905648402792,121.9827160493827,-121.09356191865767,0.4980392156862763,-17.431372549019606,-40.134199134199136,-25.4,28.38823529411765,31.885106382978723,-12.290322580645164,9.76923076923076,20.724563240734664,170.42805301711448,44.99648170668764,1499.298390313738,84.38885858852953,1107.3905783052164,1
-1.8302642113691068,-72.87751328865265,-58.12832039231712,118.2264392324094,-125.97905648402792,118.44553086419751,-120.07441181834763,0.4980392156862763,-17.431372549019606,-40.134199134199136,-25.4,28.38823529411765,31.885106382978723,-12.290322580645164,9.76923076923076,20.724563240734664,170.42805301711448,44.2786992974463,1405.7869037160103,83.07742430445973,980.9746105772506,1
