Gyro 0,Gyro 1,Gyro 2,Orientation 0,Orientation 1,Orientation 2,Orientation 3,Sensor 0,Sensor 1,Sensor 2,Sensor 3,Sensor 4,Sensor 5,Sensor 6,Sensor 7,Sensor Mean,Sensor Variance,Gyro Mean,Gyro Variance,Orientation Mean,Orientation Variance,Label
-20.20866571500547,-85.9130287648054,-69.68506493506493,-126.56718597857832,94.03300681431006,-122.71356898517672,119.53427780491779,-7.71255060728747,-8.466666666666665,-5.5657370517928335,-0.49803921568627274,2.4901960784313744,3.4862745098039234,-3.097560975609766,-3.48627450980392,4.350412451885278,7.298403673485795,58.60225313829193,1171.3873689369968,94.05509322614955,858.6138338717399,1
-20.20866571500547,-85.9130287648054,-69.68506493506493,-126.56718597857832,94.03300681431006,-122.71356898517672,119.53427780491779,5.655870445344107,-2.490196078431371,12.649402390438242,8.466666666666669,13.447058823529414,3.4862745098039234,-3.097560975609766,3.4862745098039234,6.597413049953427,19.485913655164694,58.60225313829193,1171.3873689369968,94.05509322614955,858.6138338717399,1
-19.014274918129157,-85.82707275803722,-69.85374852420307,-125.82521908471267,93.81665247018742,-122.59771949828962,119.82380719752484,5.655870445344107,-2.490196078431371,12.649402390438242,8.466666666666669,13.447058823529414,3.4862745098039234,-3.097560975609766,3.4862745098039234,6.597413049953427,19.485913655164694,58.23169873345648,1217.2915198030503,93.83534678898432,831.3007188925545,1
-19.014274918129157,-85.82707275803722,-69.85374852420307,-125.82521908471267,93.81665247018742,-122.59771949828962,119.82380719752484,9.769230769230747,1.4941176470588253,-11.637450199203192,-5.478431372549018,-6.474509803921567,-5.478431372549018,-15.48780487804879,0.4980392156862763,7.039751907280929,25.528784283650907,58.23169873345648,1217.2915198030503,93.83534678898432,831.3007188925545,1
-19.014274918129157,-85.82707275803722,-69.85374852420307,-125.82521908471267,93.81665247018742,-122.59771949828962,119.82380719752484,0.5141700404858076,-1.4941176470588218,-8.601593625498012,-1.4941176470588218,-3.48627450980392,-2.490196078431371,-3.097560975609766,0.4980392156862763,2.7095087174540997,6.883310345756255,58.23169873345648,1217.2915198030503,93.83534678898432,831.3007188925545,1
-19.014274918129157,-85.82707275803722,-69.85374852420307,-125.82521908471267,93.81665247018742,-122.59771949828962,119.82380719752484,-2.570850202429172,-17.431372549019606,-0.5059760956175348,-1.4941176470588218,15.439215686274512,-4.482352941176469,-23.747967479674806,-3.48627450980392,8.644765888881855,78.52507702000142,58.23169873345648,1217.2915198030503,93.83534678898432,831.3007188925545,1
-19.014274918129157,-85.82707275803722,-69.85374852420307,-125.82521908471267,93.81665247018742,-122.59771949828962,119.82380719752484,4.627530364372447,-5.478431372549018,-5.5657370517928335,-0.49803921568627274,5.4784313725490215,1.4941176470588253,-6.195121951219521,-4.482352941176469,4.227470239550551,4.342472040490258,58.23169873345648,1217.2915198030503,93.83534678898432,831.3007188925545,1
-16.58283651020238,-86.55769881556682,-69.74129279811098,-125.82521908471267,93.8977853492334,-122.36602052451539,120.71307604624656,4.627530364372447,-5.478431372549018,-5.5657370517928335,-0.49803921568627274,5.4784313725490215,1.4941176470588253,-6.195121951219521,-4.482352941176469,4.227470239550551,4.342472040490258,57.62727604129339,1334.1823901520213,94.04140356613016,828.3560745254463,1
-16.58283651020238,-86.55769881556682,-69.74129279811098,-125.82521908471267,93.8977853492334,-122.36602052451539,120.71307604624656,1.5425101214574677,10.458823529411767,12.649402390438242,2.4901960784313744,5.4784313725490215,10.458823529411767,9.292682926829258,-0.49803921568627274,6.608613645526896,22.08382698196189,57.62727604129339,1334.1823901520213,94.04140356613016,828.3560745254463,1
-16.58283651020238,-86.55769881556682,-69.74129279811098,-125.82521908471267,93.8977853492334,-122.36602052451539,120.71307604624656,-1.5425101214575117,-7.470588235294116,-1.5179282868525945,-4.482352941176469,-14.44313725490196,-9.462745098039214,-18.585365853658544,-3.48627450980392,7.623862787648042,38.759434602397924,57.62727604129339,1334.1823901520213,94.04140356613016,828.3560745254463,1
-16.92409102359561,-86.94450084602369,-69.4414108618654,-125.70155793573508,93.87074105621804,-122.2694792854428,121.10600879335615,-1.5425101214575117,-7.470588235294116,-1.5179282868525945,-4.482352941176469,-14.44313725490196,-9.462745098039214,-18.585365853658544,-3.48627450980392,7.623862787648042,38.759434602397924,57.7700009104949,1327.8808056149085,94.02915654787472,828.9452970036896,1
-16.92409102359561,-86.94450084602369,-69.4414108618654,-125.70155793573508,93.87074105621804,-122.2694792854428,121.10600879335615,13.882591093117385,10.458823529411767,-1.5179282868525945,-2.490196078431371,-3.48627450980392,0.4980392156862763,-3.097560975609766,2.4901960784313744,4.740201220918056,22.722937211074687,57.7700009104949,1327.8808056149085,94.02915654787472,828.9452970036896,1
-16.92409102359561,-86.94450084602369,-69.4414108618654,-125.70155793573508,93.87074105621804,-122.2694792854428,121.10600879335615,-0.514170040485852,9.462745098039218,2.5298804780876445,-1.4941176470588218,-4.482352941176469,-1.4941176470588218,-2.0650406504065137,-2.490196078431371,3.066577572593089,7.99982273674356,57.7700009104949,1327.8808056149085,94.02915654787472,828.9452970036896,1
-17.585271643295,-87.46023688663281,-68.87913223140495,-125.57789678675749,93.73551959114138,-122.2887875332573,121.47826086956523,-0.514170040485852,9.462745098039218,2.5298804780876445,-1.4941176470588218,-4.482352941176469,-1.4941176470588218,-2.0650406504065137,-2.490196078431371,3.066577572593089,7.99982273674356,57.97488025377759,1309.80472533311,93.9724219682651,835.4938914289008,1
-17.585271643295,-87.46023688663281,-68.87913223140495,-125.57789678675749,93.73551959114138,-122.2887875332573,121.47826086956523,-0.514170040485852,-0.49803921568627274,21.75697211155378,5.4784313725490215,-9.462745098039214,-5.478431372549018,-10.32520325203253,-4.482352941176469,7.24954317550902,47.10035925832124,57.97488025377759,1309.80472533311,93.9724219682651,835.4938914289008,1
-17.585271643295,-87.46023688663281,-68.87913223140495,-125.57789678675749,93.73551959114138,-122.2887875332573,121.47826086956523,-2.570850202429172,0.4980392156862763,-10.625498007968133,-3.48627450980392,-2.490196078431371,0.4980392156862763,-2.0650406504065137,-1.4941176470588218,2.96600694093381,10.640136329982122,57.97488025377759,1309.80472533311,93.9724219682651,835.4938914289008,1
-17.926526156688233,-87.67512690355329,-68.41056670602124,-125.39240506329111,93.49212095400344,-122.3853287723299,121.85051294577431,-2.570850202429172,0.4980392156862763,-10.625498007968133,-3.48627450980392,-2.490196078431371,0.4980392156862763,-2.0650406504065137,-1.4941176470588218,2.96600694093381,10.640136329982122,58.00407325542093,1297.4381559894368,93.82603289095522,840.1077089929004,1
-17.926526156688233,-87.67512690355329,-68.41056670602124,-125.39240506329111,93.49212095400344,-122.3853287723299,121.85051294577431,8.740890688259086,-4.482352941176469,-19.733067729083672,-0.49803921568627274,-15.439215686274508,-2.490196078431371,8.260162601626007,-2.490196078431371,7.7667651273710945,46.079622693575196,58.00407325542093,1297.4381559894368,93.82603289095522,840.1077089929004,1
-17.926526156688233,-87.67512690355329,-68.41056670602124,-125.39240506329111,93.49212095400344,-122.3853287723299,121.85051294577431,6.684210526315767,-8.466666666666665,-14.673306772908372,-1.4941176470588218,-9.462745098039214,-0.49803921568627274,-13.422764227642286,1.4941176470588253,7.024495975172028,30.19252275185352,58.00407325542093,1297.4381559894368,93.82603289095522,840.1077089929004,1
-17.990511377949463,-88.14788494077834,-68.03571428571428,-125.26874391431352,93.22167802385007,-122.53979475484604,122.2227650219834,6.684210526315767,-8.466666666666665,-14.673306772908372,-1.4941176470588218,-9.462745098039214,-0.49803921568627274,-13.422764227642286,1.4941176470588253,7.024495975172028,30.19252275185352,58.05803686814736,1305.1798012953484,93.81744771360205,843.0128766432709,1
-17.990511377949463,-88.14788494077834,-68.03571428571428,-125.26874391431352,93.22167802385007,-122.53979475484604,122.2227650219834,11.825910931174066,19.423529411764708,6.5776892430278835,-0.49803921568627274,14.443137254901963,-0.49803921568627274,-4.130081300813018,7.4705882352941195,8.108376851043538,45.199002669798,58.05803686814736,1305.1798012953484,93.81744771360205,843.0128766432709,1
-17.990511377949463,-88.14788494077834,-68.03571428571428,-125.26874391431352,93.22167802385007,-122.53979475484604,122.2227650219834,1.5425101214574677,3.4862745098039234,0.505976095617525,1.4941176470588253,1.4941176470588253,3.4862745098039234,1.032520325203242,0.4980392156862763,1.692478758961251,1.400944396013791,58.05803686814736,1305.1798012953484,93.81744771360205,843.0128766432709,1
-18.56637836930054,-88.27681895093062,-67.8108028335301,-125.02142161635823,92.87010221465079,-122.75218548080576,122.574336427292,1.5425101214574677,3.4862745098039234,0.505976095617525,1.4941176470588253,1.4941176470588253,3.4862745098039234,1.032520325203242,0.4980392156862763,1.692478758961251,1.400944396013791,58.21800005125376,1283.902780435981,93.70301446693965,840.3464237119888,1
-18.56637836930054,-88.27681895093062,-67.8108028335301,-125.02142161635823,92.87010221465079,-122.75218548080576,122.574336427292,7.712550607287427,-4.482352941176469,4.553784860557764,0.4980392156862763,-1.4941176470588218,4.482352941176472,-9.769962616701378e-15,0.4980392156862763,2.9651546785786898,7.542100675080017,58.21800005125376,1283.902780435981,93.70301446693965,840.3464237119888,1
-18.56637836930054,-88.27681895093062,-67.8108028335301,-125.02142161635823,92.87010221465079,-122.75218548080576,122.574336427292,5.655870445344107,4.482352941176472,5.565737051792824,1.4941176470588253,5.4784313725490215,4.482352941176472,4.130081300812998,1.4941176470588253,4.097882668371193,2.9062418906324035,58.21800005125376,1283.902780435981,93.70301446693965,840.3464237119888,1
-18.28910907716854,-88.79255499153976,-67.8482880755608,-124.89776046738064,92.49148211243613,-122.98388445458,122.94658850350108,5.655870445344107,4.482352941176472,5.565737051792824,1.4941176470588253,5.4784313725490215,4.482352941176472,4.130081300812998,1.4941176470588253,4.097882668371193,2.9062418906324035,58.30998404808971,1310.9184042405207,93.8462011781604,832.8150798809123,1
-18.28910907716854,-88.79255499153976,-67.8482880755608,-124.89776046738064,92.49148211243613,-122.98388445458,122.94658850350108,-6.684210526315811,-18.427450980392155,-13.661354581673312,0.4980392156862763,-20.419607843137253,-12.450980392156861,-12.390243902439034,-3.48627450980392,11.002270243950578,48.62717414387079,58.30998404808971,1310.9184042405207,93.8462011781604,832.8150798809123,1
-18.28910907716854,-88.79255499153976,-67.8482880755608,-124.89776046738064,92.49148211243613,-122.98388445458,122.94658850350108,-2.570850202429172,-3.48627450980392,-0.5059760956175348,2.4901960784313744,1.4941176470588253,1.4941176470588253,-7.227642276422774,-3.48627450980392,2.8444311208282933,4.193122821495082,58.30998404808971,1310.9184042405207,93.8462011781604,832.8150798809123,1
-18.07582500629777,-89.00744500846022,-68.05445690672963,-124.83592989289184,92.19399488926746,-123.19627518053971,123.29815990880965,-2.570850202429172,-3.48627450980392,-0.5059760956175348,2.4901960784313744,1.4941176470588253,1.4941176470588253,-7.227642276422774,-3.48627450980392,2.8444311208282933,4.193122821495082,58.37924230716254,1328.0310121935502,93.96594393602724,824.4739523305797,1
-18.07582500629777,-89.00744500846022,-68.05445690672963,-124.83592989289184,92.19399488926746,-123.19627518053971,123.29815990880965,20.052631578947345,27.3921568627451,-7.589641434262953,0.4980392156862763,-3.48627450980392,6.4745098039215705,12.390243902439014,14.443137254901963,11.540829320338517,80.13697209577711,58.37924230716254,1328.0310121935502,93.96594393602724,824.4739523305797,1
-18.07582500629777,-89.00744500846022,-68.05445690672963,-124.83592989289184,92.19399488926746,-123.19627518053971,123.29815990880965,11.825910931174066,12.450980392156865,-3.541832669322714,-0.49803921568627274,-25.4,-4.482352941176469,-8.260162601626025,4.482352941176472,8.86770396153986,61.736511054792864,58.37924230716254,1328.0310121935502,93.96594393602724,824.4739523305797,1
-17.563943236207923,-88.79255499153976,-68.33559622195986,-124.89776046738064,92.00468483816013,-123.35074116305586,123.67041198501875,11.825910931174066,12.450980392156865,-3.541832669322714,-0.49803921568627274,-25.4,-4.482352941176469,-8.260162601626025,4.482352941176472,8.86770396153986,61.736511054792864,58.230698149902516,1344.9605069329505,94.00863722696009,820.2252414464897,1
-17.563943236207923,-88.79255499153976,-68.33559622195986,-124.89776046738064,92.00468483816013,-123.35074116305586,123.67041198501875,-10.797570850202451,-15.439215686274508,-0.5059760956175348,-1.4941176470588218,8.466666666666669,-2.490196078431371,-14.455284552845537,-8.466666666666665,7.7644617804704446,33.382228514800566,58.230698149902516,1344.9605069329505,94.00863722696009,820.2252414464897,1
-17.563943236207923,-88.79255499153976,-68.33559622195986,-124.89776046738064,92.00468483816013,-123.35074116305586,123.67041198501875,-0.514170040485852,-4.482352941176469,-4.553784860557774,2.4901960784313744,14.443137254901963,1.4941176470588253,-4.130081300813018,-0.49803921568627274,4.075734917388943,20.363312395625066,58.230698149902516,1344.9605069329505,94.00863722696009,820.2252414464897,1
-17.052061466118076,-88.96446700507613,-68.74793388429752,-125.14508276533593,91.92355195911415,-123.42797415431394,123.98062204852631,-0.514170040485852,-4.482352941176469,-4.553784860557774,2.4901960784313744,14.443137254901963,1.4941176470588253,-4.130081300813018,-0.49803921568627274,4.075734917388943,20.363312395625066,58.25482078516391,1375.4275844832982,94.2858278849032,816.3972616875183,1
-17.052061466118076,-88.96446700507613,-68.74793388429752,-125.14508276533593,91.92355195911415,-123.42797415431394,123.98062204852631,-21.08097165991905,-26.396078431372548,3.5418326693227042,4.482352941176472,7.4705882352941195,7.4705882352941195,-7.227642276422774,-15.439215686274508,11.638658766884538,70.33670530546833,58.25482078516391,1375.4275844832982,94.2858278849032,816.3972616875183,1
-17.052061466118076,-88.96446700507613,-68.74793388429752,-125.14508276533593,91.92355195911415,-123.42797415431394,123.98062204852631,24.165991902833984,36.35686274509804,-17.70916334661355,-0.49803921568627274,-3.48627450980392,-14.44313725490196,-5.1626016260162695,10.458823529411767,14.03511176629572,142.94314476597222,58.25482078516391,1375.4275844832982,94.2858278849032,816.3972616875183,1
-17.030733059030997,-88.87851099830795,-68.95410271546635,-125.26874391431352,91.86946337308348,-123.46659064994299,124.29083211203388,24.165991902833984,36.35686274509804,-17.70916334661355,-0.49803921568627274,-3.48627450980392,-14.44313725490196,-5.1626016260162695,10.458823529411767,14.03511176629572,142.94314476597222,58.28778225760177,1375.8535927853081,94.36711920936261,815.4283184095661,1
-17.030733059030997,-88.87851099830795,-68.95410271546635,-125.26874391431352,91.86946337308348,-123.46659064994299,124.29083211203388,5.655870445344107,1.4941176470588253,-18.72111553784861,-0.49803921568627274,5.4784313725490215,-3.48627450980392,-19.617886178861795,-4.482352941176469,7.429260981041128,55.7883406516763,58.28778225760177,1375.8535927853081,94.36711920936261,815.4283184095661,1
-17.030733059030997,-88.87851099830795,-68.95410271546635,-125.26874391431352,91.86946337308348,-123.46659064994299,124.29083211203388,-8.740890688259132,-20.419607843137253,1.5179282868525847,-0.49803921568627274,2.4901960784313744,5.4784313725490215,1.032520325203242,-6.474509803921567,5.831515451755056,43.294683765618736,58.28778225760177,1375.8535927853081,94.36711920936261,815.4283184095661,1
-16.86010580233438,-89.39424703891709,-69.16027154663519,-125.5160662122687,91.86946337308348,-123.4858988977575,124.53900016283995,-8.740890688259132,-20.419607843137253,1.5179282868525847,-0.49803921568627274,2.4901960784313744,5.4784313725490215,1.032520325203242,-6.474509803921567,5.831515451755056,43.294683765618736,58.471541462628885,1400.987124338688,94.69019493260699,815.0291961682706,1
-16.86010580233438,-89.39424703891709,-69.16027154663519,-125.5160662122687,91.86946337308348,-123.4858988977575,124.53900016283995,-5.655870445344151,1.4941176470588253,-12.64940239043825,-7.470588235294116,-4.482352941176469,-0.49803921568627274,-5.1626016260162695,-0.49803921568627274,4.7388764645875785,16.80325083432504,58.471541462628885,1400.987124338688,94.69019493260699,815.0291961682706,1
-16.86010580233438,-89.39424703891709,-69.16027154663519,-125.5160662122687,91.86946337308348,-123.4858988977575,124.53900016283995,3.5991902834007874,-0.49803921568627274,9.613545816733062,2.4901960784313744,6.4745098039215705,-1.4941176470588218,-16.520325203252042,-2.490196078431371,5.397515015864412,28.86172753409472,58.471541462628885,1400.987124338688,94.69019493260699,815.0291961682706,1
-17.329330758250077,-89.05042301184432,-69.27272727272727,-125.5160662122687,91.8153747870528,-123.505207145572,124.787168213646,3.5991902834007874,-0.49803921568627274,9.613545816733062,2.4901960784313744,6.4745098039215705,-1.4941176470588218,-16.520325203252042,-2.490196078431371,5.397515015864412,28.86172753409472,58.550827014273885,1372.198127376311,94.61307216561342,814.0355929729806,1
-17.329330758250077,-89.05042301184432,-69.27272727272727,-125.5160662122687,91.8153747870528,-123.505207145572,124.787168213646,33.421052631578924,32.372549019607845,22.76892430278884,4.482352941176472,0.4980392156862763,-0.49803921568627274,3.0975609756097464,11.454901960784316,13.574177532864837,195.81478204639237,58.550827014273885,1372.198127376311,94.61307216561342,814.0355929729806,1
-17.329330758250077,-89.05042301184432,-69.27272727272727,-125.5160662122687,91.8153747870528,-123.505207145572,124.787168213646,2.5708502024291278,-5.478431372549018,6.5776892430278835,-1.4941176470588218,-0.49803921568627274,2.4901960784313744,3.0975609756097464,4.482352941176472,3.3361547094960895,4.173847125557598,58.550827014273885,1372.198127376311,94.61307216561342,814.0355929729806,1
-16.753463766898996,-89.2653130287648,-69.25398465171192,-125.88704965920147,91.84241908006817,-123.54382364120104,125.09737827715358,2.5708502024291278,-5.478431372549018,6.5776892430278835,-1.4941176470588218,-0.49803921568627274,2.4901960784313744,3.0975609756097464,4.482352941176472,3.3361547094960895,4.173847125557598,58.42425381579191,1402.4543733277444,94.80211577989273,824.8181515643078,1
-16.753463766898996,-89.2653130287648,-69.25398465171192,-125.88704965920147,91.84241908006817,-123.54382364120104,125.09737827715358,-9.769230769230791,-14.44313725490196,-5.5657370517928335,-5.478431372549018,13.447058823529414,-0.49803921568627274,-9.769962616701378e-15,-7.470588235294116,7.084027840373052,28.635177417077724,58.42425381579191,1402.4543733277444,94.80211577989273,824.8181515643078,1
-16.753463766898996,-89.2653130287648,-69.25398465171192,-125.88704965920147,91.84241908006817,-123.54382364120104,125.09737827715358,-1.5425101214575117,3.4862745098039234,4.553784860557764,3.4862745098039234,21.415686274509806,8.466666666666669,-15.48780487804879,-4.482352941176469,7.865169345253106,48.97386488469215,58.42425381579191,1402.4543733277444,94.80211577989273,824.8181515643078,1
-17.15870350155346,-89.60913705583755,-69.29146989374262,-126.07254138266796,91.8153747870528,-123.58244013683009,125.34554632795962,-1.5425101214575117,3.4862745098039234,4.553784860557764,3.4862745098039234,21.415686274509806,8.466666666666669,-15.48780487804879,-4.482352941176469,7.865169345253106,48.97386488469215,58.686436817044545,1396.6163754693287,94.9910494440827,827.7462555736729,1
-17.15870350155346,-89.60913705583755,-69.29146989374262,-126.07254138266796,91.8153747870528,-123.58244013683009,125.34554632795962,8.740890688259086,14.443137254901963,10.625498007968122,1.4941176470588253,-9.462745098039214,-2.490196078431371,-3.097560975609766,3.4862745098039234,6.730052532509034,22.183676825828247,58.686436817044545,1396.6163754693287,94.9910494440827,827.7462555736729,1
-17.15870350155346,-89.60913705583755,-69.29146989374262,-126.07254138266796,91.8153747870528,-123.58244013683009,125.34554632795962,2.5708502024291278,-4.482352941176469,2.5298804780876445,0.4980392156862763,12.450980392156865,-0.49803921568627274,2.0650406504064946,-4.482352941176469,3.6971920046007023,14.803729108378208,58.686436817044545,1396.6163754693287,94.9910494440827,827.7462555736729,1
-17.478629607859613,-89.48020304568527,-69.34769775678866,-126.19620253164555,91.73424190800682,-123.64036488027364,125.5937143787657,2.5708502024291278,-4.482352941176469,2.5298804780876445,0.4980392156862763,12.450980392156865,-0.49803921568627274,2.0650406504064946,-4.482352941176469,3.6971920046007023,14.803729108378208,58.768843470111186,1379.9907628947165,95.0080344447065,830.8558137662353,1
-17.478629607859613,-89.48020304568527,-69.34769775678866,-126.19620253164555,91.73424190800682,-123.64036488027364,125.5937143787657,12.854251012145726,14.443137254901963,-4.553784860557774,0.4980392156862763,-12.450980392156861,-0.49803921568627274,-2.0650406504065137,12.450980392156865,7.476781624212282,37.45273374492394,58.768843470111186,1379.9907628947165,95.0080344447065,830.8558137662353,1
-17.478629607859613,-89.48020304568527,-69.34769775678866,-126.19620253164555,91.73424190800682,-123.64036488027364,125.5937143787657,-2.570850202429172,-10.458823529411763,-4.553784860557774,0.4980392156862763,-0.49803921568627274,1.4941176470588253,-3.097560975609766,-0.49803921568627274,2.9586568577657655,11.325059206410659,58.768843470111186,1379.9907628947165,95.0080344447065,830.8558137662353,1
-16.92409102359561,-90.0818950930626,-69.16027154663519,-126.56718597857832,91.73424190800682,-123.73690611934626,125.84188242957174,-2.570850202429172,-10.458823529411763,-4.553784860557774,0.4980392156862763,-0.49803921568627274,1.4941176470588253,-3.097560975609766,-0.49803921568627274,2.9586568577657655,11.325059206410659,58.72208588776446,1419.7328639534207,95.26978420609203,844.0741012359273,1
-16.92409102359561,-90.0818950930626,-69.16027154663519,-126.56718597857832,91.73424190800682,-123.73690611934626,125.84188242957174,-3.599190283400832,-8.466666666666665,-4.553784860557774,-1.4941176470588218,2.4901960784313744,0.4980392156862763,-8.260162601626025,-3.48627450980392,4.106053982903961,8.509148641186211,58.72208588776446,1419.7328639534207,95.26978420609203,844.0741012359273,1
-16.92409102359561,-90.0818950930626,-69.16027154663519,-126.56718597857832,91.73424190800682,-123.73690611934626,125.84188242957174,-5.655870445344151,-11.454901960784312,-6.577689243027893,-3.48627450980392,-4.482352941176469,1.4941176470588253,-1.0325203252032615,-4.482352941176469,4.833260001696912,10.745999821854623,58.72208588776446,1419.7328639534207,95.26978420609203,844.0741012359273,1
-17.22268872281469,-90.0389170896785,-69.06655844155844,-126.7526777020447,91.65310902896084,-123.81413911060432,126.09005048037781,-5.655870445344151,-11.454901960784312,-6.577689243027893,-3.48627450980392,-4.482352941176469,1.4941176470588253,-1.0325203252032615,-4.482352941176469,4.833260001696912,10.745999821854623,58.77605475135055,1404.9716280424525,95.28605107776055,852.5714001504255,1
-17.22268872281469,-90.0389170896785,-69.06655844155844,-126.7526777020447,91.65310902896084,-123.81413911060432,126.09005048037781,1.5425101214574677,-14.44313725490196,-35.92430278884463,-0.49803921568627274,13.447058823529414,-5.478431372549018,-9.292682926829277,-3.48627450980392,10.514054626700243,132.39557640875356,58.77605475135055,1404.9716280424525,95.28605107776055,852.5714001504255,1
-17.22268872281469,-90.0389170896785,-69.06655844155844,-126.7526777020447,91.65310902896084,-123.81413911060432,126.09005048037781,34.44939271255058,45.321568627450986,-1.5179282868525945,-3.48627450980392,-17.431372549019606,-5.478431372549018,-3.097560975609766,14.443137254901963,15.653208286092305,263.87786816910136,58.77605475135055,1404.9716280424525,95.28605107776055,852.5714001504255,1
-17.22268872281469,-89.90998307952621,-68.99158795749705,-126.8145082765335,91.5719761499148,-123.8913721018624,126.29685718938285,34.44939271255058,45.321568627450986,-1.5179282868525945,-3.48627450980392,-17.431372549019606,-5.478431372549018,-3.097560975609766,14.443137254901963,15.653208286092305,263.87786816910136,58.70808658661266,1400.1734905585427,95.23869310451892,857.1688914532531,1
-17.22268872281469,-89.90998307952621,-68.99158795749705,-126.8145082765335,91.5719761499148,-123.8913721018624,126.29685718938285,-6.684210526315811,-9.462745098039214,-1.5179282868525945,-0.49803921568627274,11.454901960784316,6.4745098039215705,-3.097560975609766,-2.490196078431371,5.210011493205114,15.50723186560603,58.70808658661266,1400.1734905585427,95.23869310451892,857.1688914532531,1
-17.22268872281469,-89.90998307952621,-68.99158795749705,-126.8145082765335,91.5719761499148,-123.8913721018624,126.29685718938285,-9.769230769230791,-20.419607843137253,-3.541832669322714,-0.49803921568627274,-2.490196078431371,0.4980392156862763,-5.1626016260162695,-6.474509803921567,6.106757152679064,43.124552136126354,58.70808658661266,1400.1734905585427,95.23869310451892,857.1688914532531,1
-17.116046687379306,-90.55465313028763,-68.95410271546635,-127.0,91.49084327086882,-123.96860509312049,126.4829832274874,-9.769230769230791,-20.419607843137253,-3.541832669322714,-0.49803921568627274,-2.490196078431371,0.4980392156862763,-5.1626016260162695,-6.474509803921567,6.106757152679064,43.124552136126354,58.87493417771109,1424.4994578784508,95.50291861525132,860.69554637392,1
-17.116046687379306,-90.55465313028763,-68.95410271546635,-127.0,91.49084327086882,-123.96860509312049,126.4829832274874,-5.655870445344151,-1.4941176470588218,12.649402390438242,1.4941176470588253,-19.423529411764704,-3.48627450980392,-6.195121951219521,-9.462745098039214,7.482647387590925,37.98451664977447,58.87493417771109,1424.4994578784508,95.50291861525132,860.69554637392,1
-17.116046687379306,-90.55465313028763,-68.95410271546635,-127.0,91.49084327086882,-123.96860509312049,126.4829832274874,8.740890688259086,7.4705882352941195,-14.673306772908372,-3.48627450980392,11.454901960784316,-1.4941176470588218,-20.65040650406505,1.4941176470588253,8.683075495654064,45.51790607285568,58.87493417771109,1424.4994578784508,95.50291861525132,860.69554637392,1
-17.542614829120843,-90.25380710659897,-68.84164698937425,-127.0,91.38266609880748,-124.04583808437854,126.64842859469144,8.740890688259086,7.4705882352941195,-14.673306772908372,-3.48627450980392,11.454901960784316,-1.4941176470588218,-20.65040650406505,1.4941176470588253,8.683075495654064,45.51790607285568,58.87935630836469,1396.1647973127963,95.3651513653244,865.1928863255444,1
-17.542614829120843,-90.25380710659897,-68.84164698937425,-127.0,91.38266609880748,-124.04583808437854,126.64842859469144,8.740890688259086,14.443137254901963,2.5298804780876445,3.4862745098039234,-9.462745098039214,5.4784313725490215,3.0975609756097464,3.4862745098039234,6.340649360881815,17.605266212494957,58.87935630836469,1396.1647973127963,95.3651513653244,865.1928863255444,1
-17.542614829120843,-90.25380710659897,-68.84164698937425,-127.0,91.38266609880748,-124.04583808437854,126.64842859469144,-9.769230769230791,-1.4941176470588218,10.625498007968122,2.4901960784313744,-1.4941176470588218,-1.4941176470588218,-25.81300813008131,-5.478431372549018,7.332339662429635,69.63661092915375,58.87935630836469,1396.1647973127963,95.3651513653244,865.1928863255444,1
-17.905197749601154,-89.90998307952621,-68.69170602125148,-126.8763388510223,91.24744463373082,-124.12307107563663,126.75183194919396,-9.769230769230791,-1.4941176470588218,10.625498007968122,2.4901960784313744,-1.4941176470588218,-1.4941176470588218,-25.81300813008131,-5.478431372549018,7.332339662429635,69.63661092915375,58.835628950126285,1369.0289690261177,95.15934265060001,867.029706313629,1
-17.905197749601154,-89.90998307952621,-68.69170602125148,-126.8763388510223,91.24744463373082,-124.12307107563663,126.75183194919396,4.627530364372447,-3.48627450980392,-17.70916334661355,-6.474509803921567,-8.466666666666665,3.4862745098039234,11.357723577235761,6.4745098039215705,7.760331572792425,23.15366262452998,58.835628950126285,1369.0289690261177,95.15934265060001,867.029706313629,1
-17.905197749601154,-89.90998307952621,-68.69170602125148,-126.8763388510223,91.24744463373082,-124.12307107563663,126.75183194919396,8.740890688259086,-4.482352941176469,-3.541832669322714,6.4745098039215705,2.4901960784313744,0.4980392156862763,1.032520325203242,2.4901960784313744,3.7188172250540132,7.719713663635383,58.835628950126285,1369.0289690261177,95.15934265060001,867.029706313629,1
-17.969182970862384,-89.9529610829103,-68.65422077922078,-126.8145082765335,91.0581345826235,-124.23892056252373,126.8965966454975,8.740890688259086,-4.482352941176469,-3.541832669322714,6.4745098039215705,2.4901960784313744,0.4980392156862763,1.032520325203242,2.4901960784313744,3.7188172250540132,7.719713663635383,58.858788277664495,1367.3789512405463,95.14056337955486,865.8381736336315,1
-17.969182970862384,-89.9529610829103,-68.65422077922078,-126.8145082765335,91.0581345826235,-124.23892056252373,126.8965966454975,5.655870445344107,-8.466666666666665,-3.541832669322714,-2.490196078431371,-5.478431372549018,-4.482352941176469,-23.747967479674806,-4.482352941176469,7.2932088242927025,47.293422280788384,58.858788277664495,1367.3789512405463,95.14056337955486,865.8381736336315,1
-17.969182970862384,-89.9529610829103,-68.65422077922078,-126.8145082765335,91.0581345826235,-124.23892056252373,126.8965966454975,-7.71255060728747,-23.4078431372549,-12.64940239043825,-4.482352941176469,-4.482352941176469,-4.482352941176469,-3.097560975609766,-2.490196078431371,7.850576501568895,50.06227870887377,58.858788277664495,1367.3789512405463,95.14056337955486,865.8381736336315,1
-17.691913678730383,-90.51167512690354,-68.69170602125148,-126.8145082765335,90.9499574105622,-124.33546180159635,126.97931932909951,-7.71255060728747,-23.4078431372549,-12.64940239043825,-4.482352941176469,-4.482352941176469,-4.482352941176469,-3.097560975609766,-2.490196078431371,7.850576501568895,50.06227870887377,58.96509827562846,1396.6345880201213,95.33929647489617,862.0444814113499,1
-17.691913678730383,-90.51167512690354,-68.69170602125148,-126.8145082765335,90.9499574105622,-124.33546180159635,126.97931932909951,8.740890688259086,9.462745098039218,4.553784860557764,-1.4941176470588218,4.482352941176472,-0.49803921568627274,-2.0650406504065137,0.4980392156862763,3.974376289608803,12.486098668663967,58.96509827562846,1396.6345880201213,95.33929647489617,862.0444814113499,1
-17.691913678730383,-90.51167512690354,-68.69170602125148,-126.8145082765335,90.9499574105622,-124.33546180159635,126.97931932909951,3.5991902834007874,-16.435294117647057,-21.75697211155379,-1.4941176470588218,-12.450980392156861,-2.490196078431371,14.45528455284552,-3.48627450980392,9.521038711612267,59.40103027829574,58.96509827562846,1396.6345880201213,95.33929647489617,862.0444814113499,1
-18.07582500629777,-91.07038917089677,-68.67296340023613,-126.8763388510223,90.81473594548555,-124.47061953629799,126.97931932909951,3.5991902834007874,-16.435294117647057,-21.75697211155379,-1.4941176470588218,-12.450980392156861,-2.490196078431371,14.45528455284552,-3.48627450980392,9.521038711612267,59.40103027829574,59.273059192476886,1398.3202487312276,95.5398971407184,861.8906045855188,1
-18.07582500629777,-91.07038917089677,-68.67296340023613,-126.8763388510223,90.81473594548555,-124.47061953629799,126.97931932909951,3.5991902834007874,-12.450980392156861,-5.5657370517928335,-0.49803921568627274,-5.478431372549018,4.482352941176472,2.0650406504064946,8.466666666666669,5.325804821729426,14.049502134869924,59.273059192476886,1398.3202487312276,95.5398971407184,861.8906045855188,1
-18.07582500629777,-91.07038917089677,-68.67296340023613,-126.8763388510223,90.81473594548555,-124.47061953629799,126.97931932909951,4.627530364372447,4.482352941176472,22.76892430278884,3.4862745098039234,15.439215686274512,-1.4941176470588218,-13.422764227642286,1.4941176470588253,8.401912165772016,61.47875432860004,59.273059192476886,1398.3202487312276,95.5398971407184,861.8906045855188,1
-18.417079519691,-91.02741116751268,-68.71044864226683,-126.7526777020447,90.65247018739353,-124.62508551881413,127.00000000000003,4.627530364372447,4.482352941176472,22.76892430278884,3.4862745098039234,15.439215686274512,-1.4941176470588218,-13.422764227642286,1.4941176470588253,8.401912165772016,61.47875432860004,59.38497977649016,1383.2883426765911,95.49684583727475,857.2069732573843,1
-18.417079519691,-91.02741116751268,-68.71044864226683,-126.7526777020447,90.65247018739353,-124.62508551881413,127.00000000000003,0.5141700404858076,1.4941176470588253,4.553784860557764,7.4705882352941195,-0.49803921568627274,-4.482352941176469,-9.769962616701378e-15,-3.48627450980392,2.8124159312578985,6.894225350791889,59.38497977649016,1383.2883426765911,95.49684583727475,857.2069732573843,1
-18.417079519691,-91.02741116751268,-68.71044864226683,-126.7526777020447,90.65247018739353,-124.62508551881413,127.00000000000003,0.5141700404858076,1.4941176470588253,-15.685258964143431,-1.4941176470588218,12.450980392156865,1.4941176470588253,-7.227642276422774,0.4980392156862763,5.107305478758953,35.97515669540185,59.38497977649016,1383.2883426765911,95.49684583727475,857.2069732573843,1
-18.43840792677808,-91.6720812182741,-68.71044864226683,-126.8145082765335,90.49020442930151,-124.77955150133027,126.9379579872985,0.5141700404858076,1.4941176470588253,-15.685258964143431,-1.4941176470588218,12.450980392156865,1.4941176470588253,-7.227642276422774,0.4980392156862763,5.107305478758953,35.97515669540185,59.606979262439665,1402.9475920034824,95.73234604569149,856.3847493471765,1
-18.43840792677808,-91.6720812182741,-68.71044864226683,-126.8145082765335,90.49020442930151,-124.77955150133027,126.9379579872985,3.5991902834007874,-3.48627450980392,-5.5657370517928335,-2.490196078431371,-5.478431372549018,-3.48627450980392,-17.552845528455293,-0.49803921568627274,5.2696235687404265,27.236153587197897,59.606979262439665,1402.9475920034824,95.73234604569149,856.3847493471765,1
-18.43840792677808,-91.6720812182741,-68.71044864226683,-126.8145082765335,90.49020442930151,-124.77955150133027,126.9379579872985,2.5708502024291278,-1.4941176470588218,-2.5298804780876543,-0.49803921568627274,4.482352941176472,1.4941176470588253,-5.1626016260162695,2.4901960784313744,2.5902694794931023,2.4273480399588507,59.606979262439665,1402.9475920034824,95.73234604569149,856.3847493471765,1
-18.800990847258387,-92.01590524534686,-68.76667650531286,-126.56718597857832,90.24680579216357,-124.95332573166095,126.83455463279597,2.5708502024291278,-1.4941176470588218,-2.5298804780876543,-0.49803921568627274,4.482352941176472,1.4941176470588253,-5.1626016260162695,2.4901960784313744,2.5902694794931023,2.4273480399588507,59.8611908659727,1399.5866784342259,95.783255909746,845.8694221136742,1
-18.800990847258387,-92.01590524534686,-68.76667650531286,-126.56718597857832,90.24680579216357,-124.95332573166095,126.83455463279597,-10.797570850202451,-11.454901960784312,-3.541832669322714,1.4941176470588253,14.443137254901963,-0.49803921568627274,-3.097560975609766,-2.490196078431371,5.97716958149971,28.77357843999527,59.8611908659727,1399.5866784342259,95.783255909746,845.8694221136742,1
-18.800990847258387,-92.01590524534686,-68.76667650531286,-126.56718597857832,90.24680579216357,-124.95332573166095,126.83455463279597,12.854251012145726,2.4901960784313744,5.565737051792824,-1.4941176470588218,-9.462745098039214,0.4980392156862763,-5.1626016260162695,3.4862745098039234,5.126745279871804,17.567525443602133,59.8611908659727,1399.5866784342259,95.783255909746,845.8694221136742,1
-19.035603325216236,-92.14483925549915,-68.87913223140495,-126.38169425511194,90.00340715502557,-125.14640820980614,126.73115127829345,12.854251012145726,2.4901960784313744,5.565737051792824,-1.4941176470588218,-9.462745098039214,0.4980392156862763,-5.1626016260162695,3.4862745098039234,5.126745279871804,17.567525443602133,60.01985827070678,1395.1051459104708,95.80188858067201,836.6666671476278,1
-19.035603325216236,-92.14483925549915,-68.87913223140495,-126.38169425511194,90.00340715502557,-125.14640820980614,126.73115127829345,14.910931174089045,5.4784313725490215,-18.72111553784861,-4.482352941176469,-1.4941176470588218,1.4941176470588253,-3.097560975609766,1.4941176470588253,6.396593117806173,44.55450745173654,60.01985827070678,1395.1051459104708,95.80188858067201,836.6666671476278,1
-19.035603325216236,-92.14483925549915,-68.87913223140495,-126.38169425511194,90.00340715502557,-125.14640820980614,126.73115127829345,-7.71255060728747,-2.490196078431371,4.553784860557764,-0.49803921568627274,-6.474509803921567,-0.49803921568627274,-1.0325203252032615,-3.48627450980392,3.3432393270722374,7.5198639788652395,60.01985827070678,1395.1051459104708,95.80188858067201,836.6666671476278,1
-19.099588546477467,-92.01590524534686,-69.02907319952774,-126.25803310613435,89.78705281090288,-125.33949068795133,126.62774792379093,-7.71255060728747,-2.490196078431371,4.553784860557764,-0.49803921568627274,-6.474509803921567,-0.49803921568627274,-1.0325203252032615,-3.48627450980392,3.3432393270722374,7.5198639788652395,60.04818899711736,1389.689521025283,95.76767051700297,829.3452699882002,1
-19.099588546477467,-92.01590524534686,-69.02907319952774,-126.25803310613435,89.78705281090288,-125.33949068795133,126.62774792379093,3.5991902834007874,-2.490196078431371,-4.553784860557774,1.4941176470588253,4.482352941176472,-1.4941176470588218,-3.097560975609766,-0.49803921568627274,2.7136699561225113,2.1970509641530955,60.04818899711736,1389.689521025283,95.76767051700297,829.3452699882002,1
-19.099588546477467,-92.01590524534686,-69.02907319952774,-126.25803310613435,89.78705281090288,-125.33949068795133,126.62774792379093,-3.599190283400832,0.4980392156862763,-8.601593625498012,-3.48627450980392,-4.482352941176469,1.4941176470588253,-1.0325203252032615,-3.48627450980392,3.335045382203939,6.558228373388393,60.04818899711736,1389.689521025283,95.76767051700297,829.3452699882002,1
-19.184902174825773,-91.92994923857867,-69.0103305785124,-126.07254138266796,89.54365417376493,-125.53257316609654,126.52434456928842,-3.599190283400832,0.4980392156862763,-8.601593625498012,-3.48627450980392,-4.482352941176469,1.4941176470588253,-1.0325203252032615,-3.48627450980392,3.335045382203939,6.558228373388393,60.04172733063894,1383.2873512402307,95.67094039991969,824.5202366163958,1
-19.184902174825773,-91.92994923857867,-69.0103305785124,-126.07254138266796,89.54365417376493,-125.53257316609654,126.52434456928842,38.56275303643722,45.321568627450986,10.625498007968122,-3.48627450980392,6.4745098039215705,5.4784313725490215,-24.780487804878057,10.458823529411767,18.148543336552585,260.9458390770166,60.04172733063894,1383.2873512402307,95.67094039991969,824.5202366163958,1
-19.184902174825773,-91.92994923857867,-69.0103305785124,-126.07254138266796,89.54365417376493,-125.53257316609654,126.52434456928842,17.995951417004026,12.450980392156865,-4.553784860557774,-5.478431372549018,-29.384313725490195,-7.470588235294116,-1.0325203252032615,1.4941176470588253,9.98258599691426,93.56588985246653,60.04172733063894,1383.2873512402307,95.67094039991969,824.5202366163958,1
-18.50239314803931,-91.92994923857867,-69.0478158205431,-126.07254138266796,89.38138841567292,-125.70634739642719,126.4829832274874,17.995951417004026,12.450980392156865,-4.553784860557774,-5.478431372549018,-29.384313725490195,-7.470588235294116,-1.0325203252032615,1.4941176470588253,9.98258599691426,93.56588985246653,59.82671940238703,1411.672962722024,95.68343548059659,823.5213255856777,1
-18.50239314803931,-91.92994923857867,-69.0478158205431,-126.07254138266796,89.38138841567292,-125.70634739642719,126.4829832274874,-12.85425101214577,-11.454901960784312,-1.5179282868525945,3.4862745098039234,-2.490196078431371,-0.49803921568627274,-3.097560975609766,-10.458823529411763,5.732246946090722,24.78093100497564,59.82671940238703,1411.672962722024,95.68343548059659,823.5213255856777,1
-18.50239314803931,-91.92994923857867,-69.0478158205431,-126.07254138266796,89.38138841567292,-125.70634739642719,126.4829832274874,1.5425101214574677,-2.490196078431371,-7.589641434262953,3.4862745098039234,11.454901960784316,3.4862745098039234,5.162601626016251,2.4901960784313744,4.712824539873948,10.981982977141174,59.82671940238703,1411.672962722024,95.68343548059659,823.5213255856777,1
-18.395751112603925,-91.97292724196276,-69.12278630460449,-126.07254138266796,89.24616695059626,-125.86081337894336,126.42094121478588,1.5425101214574677,-2.490196078431371,-7.589641434262953,3.4862745098039234,11.454901960784316,3.4862745098039234,5.162601626016251,2.4901960784313744,4.712824539873948,10.981982977141174,59.830488219723726,1418.160314566382,95.72275164307841,821.3645381422559,1
-18.395751112603925,-91.97292724196276,-69.12278630460449,-126.07254138266796,89.24616695059626,-125.86081337894336,126.42094121478588,-2.570850202429172,-10.458823529411763,-3.541832669322714,-1.4941176470588218,-1.4941176470588218,0.4980392156862763,-7.227642276422774,-2.490196078431371,3.7219524082277142,11.552872677018225,59.830488219723726,1418.160314566382,95.72275164307841,821.3645381422559,1
-18.395751112603925,-91.97292724196276,-69.12278630460449,-126.07254138266796,89.24616695059626,-125.86081337894336,126.42094121478588,-20.052631578947388,-9.462745098039214,17.70916334661354,8.466666666666669,2.4901960784313744,-2.490196078431371,-5.1626016260162695,-6.474509803921567,9.038588784633424,43.479382419918785,59.830488219723726,1418.160314566382,95.72275164307841,821.3645381422559,1
-18.822319254345466,-91.50016920473773,-69.0478158205431,-125.88704965920147,89.02981260647363,-125.995971113645,126.35889920208436,-20.052631578947388,-9.462745098039214,17.70916334661354,8.466666666666669,2.4901960784313744,-2.490196078431371,-5.1626016260162695,-6.474509803921567,9.038588784633424,43.479382419918785,59.790101426542094,1384.7964252036031,95.47834489482743,819.5440372073372,1
-18.822319254345466,-91.50016920473773,-69.0478158205431,-125.88704965920147,89.02981260647363,-125.995971113645,126.35889920208436,10.797570850202407,20.419607843137257,10.625498007968122,1.4941176470588253,4.482352941176472,-1.4941176470588218,-9.769962616701378e-15,15.439215686274512,8.094060077859552,55.037757754438985,59.790101426542094,1384.7964252036031,95.47834489482743,819.5440372073372,1
-18.822319254345466,-91.50016920473773,-69.0478158205431,-125.88704965920147,89.02981260647363,-125.995971113645,126.35889920208436,10.797570850202407,2.4901960784313744,-15.685258964143431,2.4901960784313744,17.43137254901961,6.4745098039215705,10.32520325203251,2.4901960784313744,8.523062956826706,36.065592225115495,59.790101426542094,1384.7964252036031,95.47834489482743,819.5440372073372,1
-18.28910907716854,-91.54314720812182,-68.9728453364817,-125.94888023369026,88.89459114139692,-126.15043709616114,126.35889920208436,10.797570850202407,2.4901960784313744,-15.685258964143431,2.4901960784313744,17.43137254901961,6.4745098039215705,10.32520325203251,2.4901960784313744,8.523062956826706,36.065592225115495,59.601700540590684,1407.4022917119557,95.48829092609792,823.2402573685968,1
-18.28910907716854,-91.54314720812182,-68.9728453364817,-125.94888023369026,88.89459114139692,-126.15043709616114,126.35889920208436,-7.71255060728747,-9.462745098039214,5.565737051792824,-0.49803921568627274,-13.44705882352941,-11.454901960784312,-9.292682926829277,-11.454901960784312,8.611077205591636,16.66487905280321,59.601700540590684,1407.4022917119557,95.48829092609792,823.2402573685968,1
-18.28910907716854,-91.54314720812182,-68.9728453364817,-125.94888023369026,88.89459114139692,-126.15043709616114,126.35889920208436,-10.797570850202451,-9.462745098039214,13.6613545816733,-1.4941176470588218,-4.482352941176469,1.4941176470588253,-11.357723577235781,-7.470588235294116,7.527571322217373,21.258983769606953,59.601700540590684,1407.4022917119557,95.48829092609792,823.2402573685968,1
-18.35309429842977,-91.19932318104907,-68.9728453364817,-125.88704965920147,88.73232538330495,-126.28559483086278,126.33821853118386,-10.797570850202451,-9.462745098039214,13.6613545816733,-1.4941176470588218,-4.482352941176469,1.4941176470588253,-11.357723577235781,-7.470588235294116,7.527571322217373,21.258983769606953,59.50842093865351,1393.8247624913936,95.3530727255774,822.7468898810755,1
-18.35309429842977,-91.19932318104907,-68.9728453364817,-125.88704965920147,88.73232538330495,-126.28559483086278,126.33821853118386,5.655870445344107,-8.466666666666665,-22.76892430278885,-1.4941176470588218,-5.478431372549018,-0.49803921568627274,1.032520325203242,0.4980392156862763,5.736576148872906,56.091223391458925,59.50842093865351,1393.8247624913936,95.3530727255774,822.7468898810755,1
-18.35309429842977,-91.19932318104907,-68.9728453364817,-125.88704965920147,88.73232538330495,-126.28559483086278,126.33821853118386,16.967611336032366,6.4745098039215705,-10.625498007968133,-2.490196078431371,-2.490196078431371,2.4901960784313744,6.195121951219502,8.466666666666669,7.0249995001377945,25.22608367365806,59.50842093865351,1393.8247624913936,95.3530727255774,822.7468898810755,1
-18.35309429842977,-90.8984771573604,-69.0103305785124,-125.82521908471267,88.62414821124361,-126.36282782212086,126.29685718938285,16.967611336032366,6.4745098039215705,-10.625498007968133,-2.490196078431371,-2.490196078431371,2.4901960784313744,6.195121951219502,8.466666666666669,7.0249995001377945,25.22608367365806,59.420634011434196,1384.6798537236803,95.2446756068618,821.1499697148284,1
-18.35309429842977,-90.8984771573604,-69.0103305785124,-125.82521908471267,88.62414821124361,-126.36282782212086,126.29685718938285,-7.71255060728747,-15.439215686274508,-20.74501992031873,-4.482352941176469,1.4941176470588253,3.4862745098039234,-4.130081300813018,-5.478431372549018,7.871005498160245,44.87651660006212,59.420634011434196,1384.6798537236803,95.2446756068618,821.1499697148284,1
-18.35309429842977,-90.8984771573604,-69.0103305785124,-125.82521908471267,88.62414821124361,-126.36282782212086,126.29685718938285,0.5141700404858076,-7.470588235294116,-16.69721115537849,2.4901960784313744,11.454901960784316,-2.490196078431371,-23.747967479674806,-6.474509803921567,8.91746760405023,64.02903722726856,59.420634011434196,1384.6798537236803,95.2446756068618,821.1499697148284,1
-18.50239314803931,-90.8554991539763,-68.99158795749705,-125.63972736124629,88.46188245315165,-126.47867730900796,126.27617651848234,0.5141700404858076,-7.470588235294116,-16.69721115537849,2.4901960784313744,11.454901960784316,-2.490196078431371,-23.747967479674806,-6.474509803921567,8.91746760405023,64.02903722726856,59.44982675317089,1377.0268923368767,95.16227149090655,816.1641404482625,1
-18.50239314803931,-90.8554991539763,-68.99158795749705,-125.63972736124629,88.46188245315165,-126.47867730900796,126.27617651848234,0.5141700404858076,2.4901960784313744,7.589641434262944,-0.49803921568627274,-25.4,-6.474509803921567,-6.195121951219521,5.4784313725490215,6.830013737069564,63.799352829632376,59.44982675317089,1377.0268923368767,95.16227149090655,816.1641404482625,1
-18.50239314803931,-90.8554991539763,-68.99158795749705,-125.63972736124629,88.46188245315165,-126.47867730900796,126.27617651848234,10.797570850202407,2.4901960784313744,-13.661354581673312,-4.482352941176469,2.4901960784313744,3.4862745098039234,-9.769962616701378e-15,5.4784313725490215,5.360797051533487,21.139420888326775,59.44982675317089,1377.0268923368767,95.16227149090655,816.1641404482625,1
-18.481064740952235,-90.68358714043993,-69.0103305785124,-125.4542356377799,88.29961669505963,-126.55591030026605,126.25549584758184,10.797570850202407,2.4901960784313744,-13.661354581673312,-4.482352941176469,2.4901960784313744,3.4862745098039234,-9.769962616701378e-15,5.4784313725490215,5.360797051533487,21.139420888326775,59.39166081996819,1372.69016615508,95.04938445224407,810.7737442107184,1
-18.481064740952235,-90.68358714043993,-69.0103305785124,-125.4542356377799,88.29961669505963,-126.55591030026605,126.25549584758184,-0.514170040485852,1.4941176470588253,-1.5179282868525945,0.4980392156862763,15.439215686274512,1.4941176470588253,-1.0325203252032615,-3.48627450980392,3.184547919803008,25.391445831460725,59.39166081996819,1372.69016615508,95.04938445224407,810.7737442107184,1
-18.481064740952235,-90.68358714043993,-69.0103305785124,-125.4542356377799,88.29961669505963,-126.55591030026605,126.25549584758184,2.5708502024291278,10.458823529411767,18.7211155378486,-0.49803921568627274,-4.482352941176469,-0.49803921568627274,-6.195121951219521,-3.48627450980392,5.863827137907744,37.50312824232335,59.39166081996819,1372.69016615508,95.04938445224407,810.7737442107184,1
-18.459736333865155,-90.55465313028763,-69.02907319952774,-125.26874391431352,88.16439522998297,-126.63314329152414,126.23481517668134,2.5708502024291278,10.458823529411767,18.7211155378486,-0.49803921568627274,-4.482352941176469,-0.49803921568627274,-6.195121951219521,-3.48627450980392,5.863827137907744,37.50312824232335,59.34782088789351,1369.7142417119123,94.95082341470963,805.2198754041094,1
-18.459736333865155,-90.55465313028763,-69.02907319952774,-125.26874391431352,88.16439522998297,-126.63314329152414,126.23481517668134,16.967611336032366,2.4901960784313744,-22.76892430278885,-0.49803921568627274,12.450980392156865,1.4941176470588253,-1.0325203252032615,4.482352941176472,7.773092779816786,72.54599762820271,59.34782088789351,1369.7142417119123,94.95082341470963,805.2198754041094,1
-18.459736333865155,-90.55465313028763,-69.02907319952774,-125.26874391431352,88.16439522998297,-126.63314329152414,126.23481517668134,-0.514170040485852,-7.470588235294116,-15.685258964143431,-2.490196078431371,7.4705882352941195,1.4941176470588253,-1.0325203252032615,-3.48627450980392,4.955464254464362,26.15882302559522,59.34782088789351,1369.7142417119123,94.95082341470963,805.2198754041094,1
-18.267780670081464,-90.21082910321488,-69.02907319952774,-125.14508276533593,88.05621805792163,-126.69106803496769,126.23481517668134,-0.514170040485852,-7.470588235294116,-15.685258964143431,-2.490196078431371,7.4705882352941195,1.4941176470588253,-1.0325203252032615,-3.48627450980392,4.955464254464362,26.15882302559522,59.169227657608026,1366.8629700459305,94.79499502269285,803.0125652804463,1
-18.267780670081464,-90.21082910321488,-69.02907319952774,-125.14508276533593,88.05621805792163,-126.69106803496769,126.23481517668134,-5.655870445344151,-0.49803921568627274,5.565737051792824,-0.49803921568627274,0.4980392156862763,0.4980392156862763,3.0975609756097464,-4.482352941176469,2.599209784583536,5.656815931193989,59.169227657608026,1366.8629700459305,94.79499502269285,803.0125652804463,1
-18.267780670081464,-90.21082910321488,-69.02907319952774,-125.14508276533593,88.05621805792163,-126.69106803496769,126.23481517668134,7.712550607287427,4.482352941176472,7.589641434262944,4.482352941176472,7.4705882352941195,-1.4941176470588218,-8.260162601626025,0.4980392156862763,5.24872570294607,9.056643300184811,59.169227657608026,1366.8629700459305,94.79499502269285,803.0125652804463,1
-18.246452262994385,-90.38274111675126,-69.12278630460449,-125.02142161635823,87.97508517887564,-126.74899277841124,126.19345383488033,7.712550607287427,4.482352941176472,7.589641434262944,4.482352941176472,7.4705882352941195,-1.4941176470588218,-8.260162601626025,0.4980392156862763,5.24872570294607,9.056643300184811,59.25065989478338,1374.0052022867778,94.84231634590465,796.0802158474694,1
-18.246452262994385,-90.38274111675126,-69.12278630460449,-125.02142161635823,87.97508517887564,-126.74899277841124,126.19345383488033,4.627530364372447,12.450980392156865,7.589641434262944,-0.49803921568627274,-25.4,-3.48627450980392,-2.0650406504065137,3.4862745098039234,7.45047263456161,66.27827473379186,59.25065989478338,1374.0052022867778,94.84231634590465,796.0802158474694,1
-18.246452262994385,-90.38274111675126,-69.12278630460449,-125.02142161635823,87.97508517887564,-126.74899277841124,126.19345383488033,0.5141700404858076,8.466666666666669,7.589641434262944,-1.4941176470588218,-17.431372549019606,-0.49803921568627274,-5.1626016260162695,0.4980392156862763,5.206831049360334,35.12806198837591,59.25065989478338,1374.0052022867778,94.84231634590465,796.0802158474694,1
-18.28910907716854,-90.8125211505922,-69.17901416765052,-125.02142161635823,87.89395229982966,-126.82622576966932,126.15209249307932,0.5141700404858076,8.466666666666669,7.589641434262944,-1.4941176470588218,-17.431372549019606,-0.49803921568627274,-5.1626016260162695,0.4980392156862763,5.206831049360334,35.12806198837591,59.42688146513709,1386.2393938784771,95.00431897820032,792.7719941875265,1
-18.28910907716854,-90.8125211505922,-69.17901416765052,-125.02142161635823,87.89395229982966,-126.82622576966932,126.15209249307932,-2.570850202429172,-9.462745098039214,-5.5657370517928335,0.4980392156862763,21.415686274509806,-1.4941176470588218,-27.878048780487813,-7.470588235294116,9.544476563162256,98.92304616655437,59.42688146513709,1386.2393938784771,95.00431897820032,792.7719941875265,1
-18.28910907716854,-90.8125211505922,-69.17901416765052,-125.02142161635823,87.89395229982966,-126.82622576966932,126.15209249307932,1.5425101214574677,-9.462745098039214,-9.613545816733073,-0.49803921568627274,4.482352941176472,-1.4941176470588218,-4.130081300813018,3.4862745098039234,4.338708331346033,12.218803651668479,59.42688146513709,1386.2393938784771,95.00431897820032,792.7719941875265,1
-18.331765891342695,-91.11336717428087,-69.38518299881936,-124.95959104186943,87.83986371379899,-126.88415051311287,126.0486891385768,1.5425101214574677,-9.462745098039214,-9.613545816733073,-0.49803921568627274,4.482352941176472,-1.4941176470588218,-4.130081300813018,3.4862745098039234,4.338708331346033,12.218803651668479,59.6101053548143,1395.9544785368926,95.15271373832321,784.3659478321877,1
-18.331765891342695,-91.11336717428087,-69.38518299881936,-124.95959104186943,87.83986371379899,-126.88415051311287,126.0486891385768,-0.514170040485852,-6.474509803921567,-1.5179282868525945,-4.482352941176469,-5.478431372549018,2.4901960784313744,2.0650406504064946,-1.4941176470588218,3.0645933526102738,4.593778587693407,59.6101053548143,1395.9544785368926,95.15271373832321,784.3659478321877,1
-18.331765891342695,-91.11336717428087,-69.38518299881936,-124.95959104186943,87.83986371379899,-126.88415051311287,126.0486891385768,15.939271255060707,15.439215686274512,11.637450199203183,-0.49803921568627274,0.4980392156862763,-2.490196078431371,1.032520325203242,3.4862745098039234,6.377625810668686,46.05492560725837,59.6101053548143,1395.9544785368926,95.15271373832321,784.3659478321877,1
-18.267780670081464,-91.24230118443316,-69.49763872491145,-124.95959104186943,87.81281942078363,-126.94207525655642,125.94528578407427,15.939271255060707,15.439215686274512,11.637450199203183,-0.49803921568627274,0.4980392156862763,-2.490196078431371,1.032520325203242,3.4862745098039234,6.377625810668686,46.05492560725837,59.66924019314202,1403.7682243493498,95.23317698373802,780.9523559362378,1
-18.267780670081464,-91.24230118443316,-69.49763872491145,-124.95959104186943,87.81281942078363,-126.94207525655642,125.94528578407427,7.712550607287427,5.4784313725490215,8.601593625498003,1.4941176470588253,10.458823529411767,2.4901960784313744,5.162601626016251,3.4862745098039234,5.610573624507074,9.75468401173005,59.66924019314202,1403.7682243493498,95.23317698373802,780.9523559362378,1
-18.267780670081464,-91.24230118443316,-69.49763872491145,-124.95959104186943,87.81281942078363,-126.94207525655642,125.94528578407427,-9.769230769230791,-12.450980392156861,-7.589641434262953,-1.4941176470588218,-5.478431372549018,-2.490196078431371,-11.357723577235781,-9.462745098039214,7.511633296120602,16.236923635617096,59.66924019314202,1403.7682243493498,95.23317698373802,780.9523559362378,1
-17.990511377949463,-91.32825719120135,-69.62883707201888,-125.02142161635823,87.81281942078363,-126.92276700874191,125.92460511317377,-9.769230769230791,-12.450980392156861,-7.589641434262953,-1.4941176470588218,-5.478431372549018,-2.490196078431371,-11.357723577235781,-9.462745098039214,7.511633296120602,16.236923635617096,59.64920188038989,1419.3010791607855,95.3261719598595,779.0720974985366,1
-17.990511377949463,-91.32825719120135,-69.62883707201888,-125.02142161635823,87.81281942078363,-126.92276700874191,125.92460511317377,7.712550607287427,-4.482352941176469,-0.5059760956175348,2.4901960784313744,1.4941176470588253,1.4941176470588253,-9.769962616701378e-15,2.4901960784313744,2.58368838688273,6.184899889864728,59.64920188038989,1419.3010791607855,95.3261719598595,779.0720974985366,1
-17.990511377949463,-91.32825719120135,-69.62883707201888,-125.02142161635823,87.81281942078363,-126.92276700874191,125.92460511317377,-5.655870445344151,-8.466666666666665,14.673306772908361,2.4901960784313744,-10.458823529411763,-6.474509803921567,-9.769962616701378e-15,-4.482352941176469,6.587715779732545,21.342012036186407,59.64920188038989,1419.3010791607855,95.3261719598595,779.0720974985366,1
-17.819884121252848,-91.37123519458544,-69.66632231404958,-125.02142161635823,87.83986371379899,-126.92276700874191,125.90392444227327,-5.655870445344151,-8.466666666666665,14.673306772908361,2.4901960784313744,-10.458823529411763,-6.474509803921567,-9.769962616701378e-15,-4.482352941176469,6.587715779732545,21.342012036186407,59.61914720996262,1428.1596068572944,95.35299304166442,777.937551356694,1
-17.819884121252848,-91.37123519458544,-69.66632231404958,-125.02142161635823,87.83986371379899,-126.92276700874191,125.90392444227327,-1.5425101214575117,0.4980392156862763,-5.5657370517928335,2.4901960784313744,4.482352941176472,5.4784313725490215,-1.0325203252032615,-1.4941176470588218,2.8229880941694465,4.207853670504066,59.61914720996262,1428.1596068572944,95.35299304166442,777.937551356694,1
-17.819884121252848,-91.37123519458544,-69.66632231404958,-125.02142161635823,87.83986371379899,-126.92276700874191,125.90392444227327,1.5425101214574677,-4.482352941176469,-14.673306772908372,-1.4941176470588218,1.4941176470588253,4.482352941176472,-6.195121951219521,-7.470588235294116,5.2293085321687585,19.679557538088915,59.61914720996262,1428.1596068572944,95.35299304166442,777.937551356694,1
-17.819884121252848,-91.45719120135362,-69.68506493506493,-125.08325219084713,87.89395229982966,-126.94207525655642,125.77984041687023,1.5425101214574677,-4.482352941176469,-14.673306772908372,-1.4941176470588218,1.4941176470588253,4.482352941176472,-6.195121951219521,-7.470588235294116,5.2293085321687585,19.679557538088915,59.65404675255713,1431.0792428356165,95.40850277575522,778.9494351751775,1
-17.819884121252848,-91.45719120135362,-69.68506493506493,-125.08325219084713,87.89395229982966,-126.94207525655642,125.77984041687023,8.740890688259086,5.4784313725490215,-16.69721115537849,-2.490196078431371,-3.48627450980392,-4.482352941176469,-11.357723577235781,4.482352941176472,7.151929158001327,23.36408033553585,59.65404675255713,1431.0792428356165,95.40850277575522,778.9494351751775,1
-17.819884121252848,-91.45719120135362,-69.68506493506493,-125.08325219084713,87.89395229982966,-126.94207525655642,125.77984041687023,1.5425101214574677,13.447058823529414,4.553784860557764,-3.48627450980392,-23.4078431372549,-3.48627450980392,-19.617886178861795,-0.49803921568627274,8.754958919619433,78.29858300022855,59.65404675255713,1431.0792428356165,95.40850277575522,778.9494351751775,1
-17.841212528339923,-91.32825719120135,-69.74129279811098,-125.14508276533593,87.89395229982966,-126.92276700874191,125.75915974596973,1.5425101214574677,13.447058823529414,4.553784860557764,-3.48627450980392,-23.4078431372549,-3.48627450980392,-19.617886178861795,-0.49803921568627274,8.754958919619433,78.29858300022855,59.63692083921742,1426.6601828331031,95.40487758488275,779.8591110587284,1
-17.841212528339923,-91.32825719120135,-69.74129279811098,-125.14508276533593,87.89395229982966,-126.92276700874191,125.75915974596973,1.5425101214574677,-10.458823529411763,6.5776892430278835,2.4901960784313744,-3.48627450980392,-1.4941176470588218,-5.1626016260162695,-1.4941176470588218,4.08829130028329,10.113104846634126,59.63692083921742,1426.6601828331031,95.40487758488275,779.8591110587284,1
-17.841212528339923,-91.32825719120135,-69.74129279811098,-125.14508276533593,87.89395229982966,-126.92276700874191,125.75915974596973,9.769230769230747,11.454901960784316,-14.673306772908372,-8.466666666666665,7.4705882352941195,1.4941176470588253,-1.0325203252032615,5.4784313725490215,7.479970468711916,22.166391971117726,59.63692083921742,1426.6601828331031,95.40487758488275,779.8591110587284,1
-17.755898899991614,-91.37123519458544,-69.76003541912632,-125.14508276533593,87.92099659284497,-126.92276700874191,125.73847907506922,9.769230769230747,11.454901960784316,-14.673306772908372,-8.466666666666665,7.4705882352941195,1.4941176470588253,-1.0325203252032615,5.4784313725490215,7.479970468711916,22.166391971117726,59.62905650456779,1431.7819847669577,95.42545112634923,779.2033675014953,1
-17.755898899991614,-91.37123519458544,-69.76003541912632,-125.14508276533593,87.92099659284497,-126.92276700874191,125.73847907506922,-4.627530364372491,-0.49803921568627274,11.637450199203183,3.4862745098039234,1.4941176470588253,1.4941176470588253,-8.260162601626025,-2.490196078431371,4.248486032905115,14.820786665245183,59.62905650456779,1431.7819847669577,95.42545112634923,779.2033675014953,1
-17.755898899991614,-91.37123519458544,-69.76003541912632,-125.14508276533593,87.92099659284497,-126.92276700874191,125.73847907506922,-1.5425101214575117,-8.466666666666665,0.505976095617525,-0.49803921568627274,-7.470588235294116,-2.490196078431371,-6.195121951219521,-2.490196078431371,3.707411805350544,10.171428003312453,59.62905650456779,1431.7819847669577,95.42545112634923,779.2033675014953,1
-17.94785456377531,-91.19932318104907,-69.77877804014167,-125.14508276533593,87.92099659284497,-126.92276700874191,125.71779840416872,-1.5425101214575117,-8.466666666666665,0.505976095617525,-0.49803921568627274,-7.470588235294116,-2.490196078431371,-6.195121951219521,-2.490196078431371,3.707411805350544,10.171428003312453,59.64198526165535,1418.5103395223398,95.37439466217556,779.4303411351536,1
-17.94785456377531,-91.19932318104907,-69.77877804014167,-125.14508276533593,87.92099659284497,-126.92276700874191,125.71779840416872,8.740890688259086,7.4705882352941195,-8.601593625498012,-7.470588235294116,1.4941176470588253,0.4980392156862763,-4.130081300813018,2.4901960784313744,5.112011878291852,11.241102171218644,59.64198526165535,1418.5103395223398,95.37439466217556,779.4303411351536,1
-17.94785456377531,-91.19932318104907,-69.77877804014167,-125.14508276533593,87.92099659284497,-126.92276700874191,125.71779840416872,7.712550607287427,5.4784313725490215,12.649402390438242,7.4705882352941195,6.4745098039215705,5.4784313725490215,-5.1626016260162695,-2.490196078431371,6.61458893581088,8.582491690715946,59.64198526165535,1418.5103395223398,95.37439466217556,779.4303411351536,1
-18.35309429842977,-91.02741116751268,-69.76003541912632,-124.95959104186943,87.92099659284497,-126.9034587609274,125.55235303696469,7.712550607287427,5.4784313725490215,12.649402390438242,7.4705882352941195,6.4745098039215705,5.4784313725490215,-5.1626016260162695,-2.490196078431371,6.61458893581088,8.582491690715946,59.71351362835626,1396.0885331662805,95.24901254283616,775.1141738661772,1
-18.35309429842977,-91.02741116751268,-69.76003541912632,-124.95959104186943,87.92099659284497,-126.9034587609274,125.55235303696469,1.5425101214574677,-7.470588235294116,-1.5179282868525945,-1.4941176470588218,-27.392156862745097,-3.48627450980392,-10.32520325203253,-1.4941176470588218,6.840362070287921,79.96109587890025,59.71351362835626,1396.0885331662805,95.24901254283616,775.1141738661772,1
-18.35309429842977,-91.02741116751268,-69.76003541912632,-124.95959104186943,87.92099659284497,-126.9034587609274,125.55235303696469,1.5425101214574677,-6.474509803921567,3.5418326693227042,2.4901960784313744,6.4745098039215705,-0.49803921568627274,-5.1626016260162695,-0.49803921568627274,3.3352798168054374,6.159908151717039,59.71351362835626,1396.0885331662805,95.24901254283616,775.1141738661772,1
-18.56637836930054,-91.07038917089677,-69.66632231404958,-124.77409931840305,87.8669080068143,-126.92276700874191,125.40758834066115,1.5425101214574677,-6.474509803921567,3.5418326693227042,2.4901960784313744,6.4745098039215705,-0.49803921568627274,-5.1626016260162695,-0.49803921568627274,3.3352798168054374,6.159908151717039,59.76769661808229,1387.6949885811434,95.17027026778312,771.8235403468418,1
-18.56637836930054,-91.07038917089677,-69.66632231404958,-124.77409931840305,87.8669080068143,-126.92276700874191,125.40758834066115,2.5708502024291278,2.4901960784313744,9.613545816733062,5.4784313725490215,18.42745098039216,2.4901960784313744,10.32520325203251,-0.49803921568627274,6.486739124585613,35.89306234043104,59.76769661808229,1387.6949885811434,95.17027026778312,771.8235403468418,1
-18.56637836930054,-91.07038917089677,-69.66632231404958,-124.77409931840305,87.8669080068143,-126.92276700874191,125.40758834066115,4.627530364372447,5.4784313725490215,7.589641434262944,1.4941176470588253,-8.466666666666665,-7.470588235294116,-12.390243902439034,0.4980392156862763,6.001907354791166,14.905639586418545,59.76769661808229,1387.6949885811434,95.17027026778312,771.8235403468418,1
-18.63036359056177,-90.8554991539763,-69.62883707201888,-124.52677702044787,87.75873083475301,-126.94207525655642,125.30418498615862,4.627530364372447,5.4784313725490215,7.589641434262944,1.4941176470588253,-8.466666666666665,-7.470588235294116,-12.390243902439034,0.4980392156862763,6.001907354791166,14.905639586418545,59.704899938852314,1377.980947955683,95.00370441548102,766.3516578140103,1
-18.63036359056177,-90.8554991539763,-69.62883707201888,-124.52677702044787,87.75873083475301,-126.94207525655642,125.30418498615862,5.655870445344107,-4.482352941176469,-14.673306772908372,-6.474509803921567,-12.450980392156861,-2.490196078431371,-4.130081300813018,-1.4941176470588218,6.481426922726323,21.964622275585725,59.704899938852314,1377.980947955683,95.00370441548102,766.3516578140103,1
-18.63036359056177,-90.8554991539763,-69.62883707201888,-124.52677702044787,87.75873083475301,-126.94207525655642,125.30418498615862,4.627530364372447,6.4745098039215705,-0.5059760956175348,0.4980392156862763,-1.4941176470588218,-0.49803921568627274,-2.0650406504065137,2.4901960784313744,2.331681133897601,4.755624866150228,59.704899938852314,1377.980947955683,95.00370441548102,766.3516578140103,1
-18.694348811823005,-90.76954314720811,-69.61009445100353,-124.27945472249269,87.67759795570697,-126.98069175218546,125.1801009607556,4.627530364372447,6.4745098039215705,-0.5059760956175348,0.4980392156862763,-1.4941176470588218,-0.49803921568627274,-2.0650406504065137,2.4901960784313744,2.331681133897601,4.755624866150228,59.69132880334488,1372.4948436007624,94.88636410690144,759.895899234097,1
-18.694348811823005,-90.76954314720811,-69.61009445100353,-124.27945472249269,87.67759795570697,-126.98069175218546,125.1801009607556,-5.655870445344151,-12.450980392156861,4.553784860557764,4.482352941176472,0.4980392156862763,1.4941176470588253,-4.130081300813018,-2.490196078431371,4.469427860153092,13.396717593283379,59.69132880334488,1372.4948436007624,94.88636410690144,759.895899234097,1
-18.694348811823005,-90.76954314720811,-69.61009445100353,-124.27945472249269,87.67759795570697,-126.98069175218546,125.1801009607556,3.5991902834007874,-3.48627450980392,-14.673306772908372,-2.490196078431371,-12.450980392156861,-4.482352941176469,-10.32520325203253,3.4862745098039234,6.874222342464279,23.208308439186844,59.69132880334488,1372.4948436007624,94.88636410690144,759.895899234097,1
-18.58770677638762,-90.46869712351945,-69.61009445100353,-124.0321324245374,87.6235093696763,-126.98069175218546,125.07669760625308,3.5991902834007874,-3.48627450980392,-14.673306772908372,-2.490196078431371,-12.450980392156861,-4.482352941176469,-10.32520325203253,3.4862745098039234,6.874222342464279,23.208308439186844,59.555499450303536,1367.5403537921907,94.70364133302013,753.8906186413778,1
-18.58770677638762,-90.46869712351945,-69.61009445100353,-124.0321324245374,87.6235093696763,-126.98069175218546,125.07669760625308,3.5991902834007874,8.466666666666669,0.505976095617525,-2.490196078431371,5.4784313725490215,0.4980392156862763,-9.769962616701378e-15,-2.490196078431371,2.941086973847879,8.336870375738116,59.555499450303536,1367.5403537921907,94.70364133302013,753.8906186413778,1
-18.58770677638762,-90.46869712351945,-69.61009445100353,-124.0321324245374,87.6235093696763,-126.98069175218546,125.07669760625308,-0.514170040485852,-6.474509803921567,-14.673306772908372,3.4862745098039234,-1.4941176470588218,-1.4941176470588218,-3.097560975609766,4.482352941176472,4.464551292252949,20.619584383619465,59.555499450303536,1367.5403537921907,94.70364133302013,753.8906186413778,1
-18.37442270551685,-90.33976311336717,-69.59135182998818,-123.9703018500486,87.56942078364568,-127.0,125.01465559355157,-0.514170040485852,-6.474509803921567,-14.673306772908372,3.4862745098039234,-1.4941176470588218,-1.4941176470588218,-3.097560975609766,4.482352941176472,4.464551292252949,20.619584383619465,59.43517921629073,1372.113436623857,94.63380559780131,753.0966519646512,1
-18.37442270551685,-90.33976311336717,-69.59135182998818,-123.9703018500486,87.56942078364568,-127.0,125.01465559355157,9.769230769230747,9.462745098039218,-2.5298804780876543,-0.49803921568627274,1.4941176470588253,1.4941176470588253,-8.260162601626025,3.4862745098039234,4.624320995823936,15.057738110984397,59.43517921629073,1372.113436623857,94.63380559780131,753.0966519646512,1
-18.37442270551685,-90.33976311336717,-69.59135182998818,-123.9703018500486,87.56942078364568,-127.0,125.01465559355157,-5.655870445344151,-7.470588235294116,12.649402390438242,1.4941176470588253,12.450980392156865,1.4941176470588253,-15.48780487804879,-4.482352941176469,7.648154322072035,28.47244275419842,59.43517921629073,1372.113436623857,94.63380559780131,753.0966519646512,1
-17.94785456377531,-90.12487309644669,-69.68506493506493,-123.9703018500486,87.56942078364568,-127.0,125.01465559355157,-5.655870445344151,-7.470588235294116,12.649402390438242,1.4941176470588253,12.450980392156865,1.4941176470588253,-15.48780487804879,-4.482352941176469,7.648154322072035,28.47244275419842,59.25259753176231,1384.007783157126,94.5934132938534,751.6976253508562,1
-17.94785456377531,-90.12487309644669,-69.68506493506493,-123.9703018500486,87.56942078364568,-127.0,125.01465559355157,19.024291497975685,15.439215686274512,17.70916334661354,-3.48627450980392,-1.4941176470588218,-6.474509803921567,-20.65040650406505,3.4862745098039234,10.970531688189627,63.71230910208452,59.25259753176231,1384.007783157126,94.5934132938534,751.6976253508562,1
-17.94785456377531,-90.12487309644669,-69.68506493506493,-123.9703018500486,87.56942078364568,-127.0,125.01465559355157,3.5991902834007874,2.4901960784313744,-6.577689243027893,-0.49803921568627274,12.450980392156865,2.4901960784313744,-4.130081300813018,-3.48627450980392,4.465330887718938,13.370788184682445,59.25259753176231,1384.007783157126,94.5934132938534,751.6976253508562,1
-17.905197749601154,-89.86700507614212,-69.70380755608028,-124.0321324245374,87.6235093696763,-126.98069175218546,124.99397492265105,3.5991902834007874,2.4901960784313744,-6.577689243027893,-0.49803921568627274,12.450980392156865,2.4901960784313744,-4.130081300813018,-3.48627450980392,4.465330887718938,13.370788184682445,59.15867012727452,1378.0253709698513,94.53431501891993,754.2295573296184,1
-17.905197749601154,-89.86700507614212,-69.70380755608028,-124.0321324245374,87.6235093696763,-126.98069175218546,124.99397492265105,-3.599190283400832,-12.450980392156861,2.5298804780876445,7.4705882352941195,6.4745098039215705,6.4745098039215705,-1.0325203252032615,-2.490196078431371,5.315296925052154,13.611106451160042,59.15867012727452,1378.0253709698513,94.53431501891993,754.2295573296184,1
-17.905197749601154,-89.86700507614212,-69.70380755608028,-124.0321324245374,87.6235093696763,-126.98069175218546,124.99397492265105,10.797570850202407,-1.4941176470588218,-9.613545816733073,-4.482352941176469,-1.4941176470588218,-0.49803921568627274,-2.0650406504065137,5.4784313725490215,4.490402017608925,15.254289489328126,59.15867012727452,1378.0253709698513,94.53431501891993,754.2295573296184,1
-17.841212528339923,-89.82402707275803,-69.72255017709563,-123.9084712755598,87.6235093696763,-126.94207525655642,124.99397492265105,10.797570850202407,-1.4941176470588218,-9.613545816733073,-4.482352941176469,-1.4941176470588218,-0.49803921568627274,-2.0650406504065137,5.4784313725490215,4.490402017608925,15.254289489328126,59.12926325939785,1379.5446932245227,94.48501617513783,750.3221258816237,1
-17.841212528339923,-89.82402707275803,-69.72255017709563,-123.9084712755598,87.6235093696763,-126.94207525655642,124.99397492265105,-5.655870445344151,-9.462745098039214,-18.72111553784861,-1.4941176470588218,-4.482352941176469,-3.48627450980392,2.0650406504064946,-2.490196078431371,5.982214113513631,32.95156449345522,59.12926325939785,1379.5446932245227,94.48501617513783,750.3221258816237,1
-17.841212528339923,-89.82402707275803,-69.72255017709563,-123.9084712755598,87.6235093696763,-126.94207525655642,124.99397492265105,6.684210526315767,-0.49803921568627274,-31.876494023904385,-3.48627450980392,5.4784313725490215,2.4901960784313744,4.130081300812998,2.4901960784313744,7.14174038824189,103.5184261889934,59.12926325939785,1379.5446932245227,94.48501617513783,750.3221258816237,1
-17.691913678730383,-89.82402707275803,-69.66632231404958,-123.84664070107101,87.65055366269166,-126.9034587609274,125.01465559355157,6.684210526315767,-0.49803921568627274,-31.876494023904385,-3.48627450980392,5.4784313725490215,2.4901960784313744,4.130081300812998,2.4901960784313744,7.14174038824189,103.5184261889934,59.060754355179334,1385.118999469877,94.4456633626262,749.896366626623,1
-17.691913678730383,-89.82402707275803,-69.66632231404958,-123.84664070107101,87.65055366269166,-126.9034587609274,125.01465559355157,6.684210526315767,-2.490196078431371,-2.5298804780876543,0.4980392156862763,-18.427450980392155,-9.462745098039214,-4.130081300813018,0.4980392156862763,5.590080361681467,36.279458085624185,59.060754355179334,1385.118999469877,94.4456633626262,749.896366626623,1
-17.691913678730383,-89.82402707275803,-69.66632231404958,-123.84664070107101,87.65055366269166,-126.9034587609274,125.01465559355157,1.5425101214574677,-3.48627450980392,-3.541832669322714,-0.49803921568627274,-3.48627450980392,-0.49803921568627274,3.0975609756097464,1.4941176470588253,2.205581108053642,1.8055413593811793,59.060754355179334,1385.118999469877,94.4456633626262,749.896366626623,1
-17.73457049290454,-89.82402707275803,-69.70380755608028,-123.84664070107101,87.70464224872234,-126.84553401748383,124.99397492265105,1.5425101214574677,-3.48627450980392,-3.541832669322714,-0.49803921568627274,-3.48627450980392,-0.49803921568627274,3.0975609756097464,1.4941176470588253,2.205581108053642,1.8055413593811793,59.087468373914284,1383.7524307177403,94.4581584433031,748.9679754111792,1
-17.73457049290454,-89.82402707275803,-69.70380755608028,-123.84664070107101,87.70464224872234,-126.84553401748383,124.99397492265105,-1.5425101214575117,-12.450980392156861,-17.70916334661355,2.4901960784313744,15.439215686274512,6.4745098039215705,-6.195121951219521,1.4941176470588253,7.974476878391715,41.34058900240467,59.087468373914284,1383.7524307177403,94.4581584433031,748.9679754111792,1
-17.73457049290454,-89.82402707275803,-69.70380755608028,-123.84664070107101,87.70464224872234,-126.84553401748383,124.99397492265105,9.769230769230747,-18.427450980392155,-29.852589641434268,-7.470588235294116,5.4784313725490215,-6.474509803921567,-7.227642276422774,-1.4941176470588218,10.774320090787935,82.81593098748058,59.087468373914284,1383.7524307177403,94.4581584433031,748.9679754111792,1
-17.627928457469153,-89.86700507614212,-69.72255017709563,-123.84664070107101,87.73168654173764,-126.78760927404028,125.01465559355157,9.769230769230747,-18.427450980392155,-29.852589641434268,-7.470588235294116,5.4784313725490215,-6.474509803921567,-7.227642276422774,-1.4941176470588218,10.774320090787935,82.81593098748058,59.07249457023564,1389.6888110015334,94.47873198476958,748.3053125716895,1
-17.627928457469153,-89.86700507614212,-69.72255017709563,-123.84664070107101,87.73168654173764,-126.78760927404028,125.01465559355157,3.5991902834007874,-6.474509803921567,-9.613545816733073,-1.4941176470588218,3.4862745098039234,-1.4941176470588218,-11.357723577235781,0.4980392156862763,4.752189812612381,16.07029427261808,59.07249457023564,1389.6888110015334,94.47873198476958,748.3053125716895,1
-17.627928457469153,-89.86700507614212,-69.72255017709563,-123.84664070107101,87.73168654173764,-126.78760927404028,125.01465559355157,2.5708502024291278,4.482352941176472,6.5776892430278835,1.4941176470588253,7.4705882352941195,4.482352941176472,-3.097560975609766,-0.49803921568627274,3.8341939251823676,5.762128722146834,59.07249457023564,1389.6888110015334,94.47873198476958,748.3053125716895,1
-17.88386934251408,-89.9529610829103,-69.76003541912632,-123.72297955209342,87.75873083475301,-126.74899277841124,124.97329425175054,2.5708502024291278,4.482352941176472,6.5776892430278835,1.4941176470588253,7.4705882352941195,4.482352941176472,-3.097560975609766,-0.49803921568627274,3.8341939251823676,5.762128722146834,59.1989552815169,1382.1408063261683,94.47865868471001,743.3612889616337,1
-17.88386934251408,-89.9529610829103,-69.76003541912632,-123.72297955209342,87.75873083475301,-126.74899277841124,124.97329425175054,2.5708502024291278,0.4980392156862763,1.5179282868525847,-0.49803921568627274,9.462745098039218,9.462745098039218,2.0650406504064946,-1.4941176470588218,3.4461881767747515,14.283375654593938,59.1989552815169,1382.1408063261683,94.47865868471001,743.3612889616337,1
-17.88386934251408,-89.9529610829103,-69.76003541912632,-123.72297955209342,87.75873083475301,-126.74899277841124,124.97329425175054,-0.514170040485852,7.4705882352941195,12.649402390438242,1.4941176470588253,-7.470588235294116,2.4901960784313744,-8.260162601626025,-3.48627450980392,5.479437467304059,17.2164441969887,59.1989552815169,1382.1408063261683,94.47865868471001,743.3612889616337,1
-17.585271643295,-89.99593908629441,-69.77877804014167,-123.72297955209342,87.83986371379899,-126.69106803496769,124.97329425175054,-0.514170040485852,7.4705882352941195,12.649402390438242,1.4941176470588253,-7.470588235294116,2.4901960784313744,-8.260162601626025,-3.48627450980392,5.479437467304059,17.2164441969887,59.11999625657703,1396.0334117174011,94.4992322261765,742.7039560182961,1
-17.585271643295,-89.99593908629441,-69.77877804014167,-123.72297955209342,87.83986371379899,-126.69106803496769,124.97329425175054,4.627530364372447,11.454901960784316,11.637450199203183,1.4941176470588253,6.4745098039215705,1.4941176470588253,4.130081300812998,1.4941176470588253,5.350853321283874,17.81143208547225,59.11999625657703,1396.0334117174011,94.4992322261765,742.7039560182961,1
-17.585271643295,-89.99593908629441,-69.77877804014167,-123.72297955209342,87.83986371379899,-126.69106803496769,124.97329425175054,4.627530364372447,5.4784313725490215,-27.82868525896415,-7.470588235294116,-14.44313725490196,0.4980392156862763,1.032520325203242,5.4784313725490215,8.35717042494003,80.4094063798241,59.11999625657703,1396.0334117174011,94.4992322261765,742.7039560182961,1
-17.521286422033768,-90.21082910321488,-69.77877804014167,-123.78481012658222,87.83986371379899,-126.69106803496769,124.95261358085004,4.627530364372447,5.4784313725490215,-27.82868525896415,-7.470588235294116,-14.44313725490196,0.4980392156862763,1.032520325203242,5.4784313725490215,8.35717042494003,80.4094063798241,59.17029785513011,1405.3472926766499,94.59147242331294,743.555402353851,1
-17.521286422033768,-90.21082910321488,-69.77877804014167,-123.78481012658222,87.83986371379899,-126.69106803496769,124.95261358085004,5.655870445344107,4.482352941176472,-0.5059760956175348,-0.49803921568627274,0.4980392156862763,-6.474509803921567,-16.520325203252042,-2.490196078431371,4.640663624889456,28.798269115741213,59.17029785513011,1405.3472926766499,94.59147242331294,743.555402353851,1
-17.521286422033768,-90.21082910321488,-69.77877804014167,-123.78481012658222,87.83986371379899,-126.69106803496769,124.95261358085004,5.655870445344107,12.450980392156865,11.637450199203183,6.4745098039215705,9.462745098039218,6.4745098039215705,8.260162601626007,-2.490196078431371,7.863303052830486,10.801030437293443,59.17029785513011,1405.3472926766499,94.59147242331294,743.555402353851,1
-17.457301200772537,-89.99593908629441,-69.81626328217237,-123.84664070107101,87.94804088586034,-126.63314329152414,124.95261358085004,5.655870445344107,12.450980392156865,11.637450199203183,6.4745098039215705,9.462745098039218,6.4745098039215705,8.260162601626007,-2.490196078431371,7.863303052830486,10.801030437293443,59.089834523079766,1401.755702014634,94.55294768984594,745.3951665667898,1
-17.457301200772537,-89.99593908629441,-69.81626328217237,-123.84664070107101,87.94804088586034,-126.63314329152414,124.95261358085004,-0.514170040485852,8.466666666666669,7.589641434262944,-1.4941176470588218,-1.4941176470588218,-6.474509803921567,-6.195121951219521,-1.4941176470588218,4.215307854716627,10.628126530955608,59.089834523079766,1401.755702014634,94.55294768984594,745.3951665667898,1
-17.457301200772537,-89.99593908629441,-69.81626328217237,-123.84664070107101,87.94804088586034,-126.63314329152414,124.95261358085004,-0.514170040485852,-14.44313725490196,-11.637450199203192,-2.490196078431371,-0.49803921568627274,-2.490196078431371,-17.552845528455293,-2.490196078431371,6.514528809253335,47.391400801992916,59.089834523079766,1401.755702014634,94.55294768984594,745.3951665667898,1
-17.457301200772537,-90.12487309644669,-69.83500590318772,-123.9084712755598,87.94804088586034,-126.63314329152414,124.93193290994954,-0.514170040485852,-14.44313725490196,-11.637450199203192,-2.490196078431371,-0.49803921568627274,-2.490196078431371,-17.552845528455293,-2.490196078431371,6.514528809253335,47.391400801992916,59.13906006680232,1405.9464443044105,94.62278342506472,746.1583123374974,1
-17.457301200772537,-90.12487309644669,-69.83500590318772,-123.9084712755598,87.94804088586034,-126.63314329152414,124.93193290994954,10.797570850202407,4.482352941176472,-11.637450199203192,1.4941176470588253,7.4705882352941195,2.4901960784313744,-9.292682926829277,1.4941176470588253,6.144884565656811,17.551702406687074,59.13906006680232,1405.9464443044105,94.62278342506472,746.1583123374974,1
-17.457301200772537,-90.12487309644669,-69.83500590318772,-123.9084712755598,87.94804088586034,-126.63314329152414,124.93193290994954,14.910931174089045,24.403921568627453,9.613545816733062,0.4980392156862763,-9.462745098039214,-1.4941176470588218,1.032520325203242,5.4784313725490215,8.361781527248267,67.72224014584141,59.13906006680232,1405.9464443044105,94.62278342506472,746.1583123374974,1
-17.308002351162997,-90.12487309644669,-69.81626328217237,-123.9703018500486,88.05621805792163,-126.57521854808056,124.93193290994954,14.910931174089045,24.403921568627453,9.613545816733062,0.4980392156862763,-9.462745098039214,-1.4941176470588218,1.032520325203242,5.4784313725490215,8.361781527248267,67.72224014584141,59.08304624326069,1411.9756272871261,94.63714607622255,748.435428885768,1
-17.308002351162997,-90.12487309644669,-69.81626328217237,-123.9703018500486,88.05621805792163,-126.57521854808056,124.93193290994954,-5.655870445344151,-17.431372549019606,-18.72111553784861,-3.48627450980392,2.4901960784313744,3.4862745098039234,-7.227642276422774,-4.482352941176469,7.872637355981354,41.904861728289006,59.08304624326069,1411.9756272871261,94.63714607622255,748.435428885768,1
-17.201360315727612,-90.0389170896785,-69.96620425029515,-124.09396299902619,88.19143952299828,-126.47867730900796,124.93193290994954,-5.655870445344151,-17.431372549019606,-18.72111553784861,-3.48627450980392,2.4901960784313744,3.4862745098039234,-7.227642276422774,-4.482352941176469,7.872637355981354,41.904861728289006,59.068827218567094,1415.3920388283557,94.69969477966661,748.7457032968256,1
-17.201360315727612,-90.0389170896785,-69.96620425029515,-124.09396299902619,88.19143952299828,-126.47867730900796,124.93193290994954,1.5425101214574677,2.4901960784313744,6.5776892430278835,4.482352941176472,3.4862745098039234,-1.4941176470588218,-16.520325203252042,-2.490196078431371,4.88545772782992,24.92929125697828,59.068827218567094,1415.3920388283557,94.69969477966661,748.7457032968256,1
-17.201360315727612,-90.0389170896785,-69.96620425029515,-124.09396299902619,88.19143952299828,-126.47867730900796,124.93193290994954,0.5141700404858076,13.447058823529414,-4.553784860557774,3.4862745098039234,-0.49803921568627274,-2.490196078431371,-9.292682926829277,-1.4941176470588218,4.472040512797832,21.28873152204853,59.068827218567094,1415.3920388283557,94.69969477966661,748.7457032968256,1
-17.393315979511307,-90.12487309644669,-69.90997638724912,-124.1557935735151,88.29961669505963,-126.4014443177499,124.91125223904903,0.5141700404858076,13.447058823529414,-4.553784860557774,3.4862745098039234,-0.49803921568627274,-2.490196078431371,-9.292682926829277,-1.4941176470588218,4.472040512797832,21.28873152204853,59.14272182106904,1409.4201783332028,94.73021435240362,751.5590466143117,1
-17.393315979511307,-90.12487309644669,-69.90997638724912,-124.1557935735151,88.29961669505963,-126.4014443177499,124.91125223904903,12.854251012145726,-6.474509803921567,-25.80478087649403,-4.482352941176469,11.454901960784316,-2.490196078431371,-4.130081300813018,8.466666666666669,9.519717580054145,56.32670560878868,59.14272182106904,1409.4201783332028,94.73021435240362,751.5590466143117,1
-17.393315979511307,-90.12487309644669,-69.90997638724912,-124.1557935735151,88.29961669505963,-126.4014443177499,124.91125223904903,2.5708502024291278,-13.44705882352941,-12.64940239043825,-2.490196078431371,-27.392156862745097,-3.48627450980392,1.032520325203242,-0.49803921568627274,7.945812301033336,87.47888042261279,59.14272182106904,1409.4201783332028,94.73021435240362,751.5590466143117,1
-17.393315979511307,-90.12487309644669,-69.94746162927981,-124.27945472249269,88.40779386712097,-126.34351957430633,124.91125223904903,2.5708502024291278,-13.44705882352941,-12.64940239043825,-2.490196078431371,-27.392156862745097,-3.48627450980392,1.032520325203242,-0.49803921568627274,7.945812301033336,87.47888042261279,59.15521690174594,1409.8242598577456,94.78392981607306,754.2714755077545,1
-17.393315979511307,-90.12487309644669,-69.94746162927981,-124.27945472249269,88.40779386712097,-126.34351957430633,124.91125223904903,-0.514170040485852,-6.474509803921567,1.5179282868525847,2.4901960784313744,6.4745098039215705,1.4941176470588253,1.032520325203242,-0.49803921568627274,2.561998900195161,6.234847133501508,59.15521690174594,1409.8242598577456,94.78392981607306,754.2714755077545,1
-17.393315979511307,-90.12487309644669,-69.94746162927981,-124.27945472249269,88.40779386712097,-126.34351957430633,124.91125223904903,0.5141700404858076,1.4941176470588253,8.601593625498003,0.4980392156862763,6.4745098039215705,-3.48627450980392,-18.585365853658544,-1.4941176470588218,5.143523542896471,38.11530535115537,59.15521690174594,1409.8242598577456,94.78392981607306,754.2714755077545,1
-17.478629607859613,-90.0389170896785,-69.92871900826447,-124.34128529698148,88.51597103918226,-126.26628658304827,124.89057156814853,0.5141700404858076,1.4941176470588253,8.601593625498003,0.4980392156862763,6.4745098039215705,-3.48627450980392,-18.585365853658544,-1.4941176470588218,5.143523542896471,38.11530535115537,59.14875523526754,1403.4045440713958,94.76964046497483,756.9666502711871,1
-17.478629607859613,-90.0389170896785,-69.92871900826447,-124.34128529698148,88.51597103918226,-126.26628658304827,124.89057156814853,-5.655870445344151,-3.48627450980392,-13.661354581673312,-0.49803921568627274,-13.44705882352941,1.4941176470588253,5.162601626016251,-4.482352941176469,5.9859587237860765,24.881391394394353,59.14875523526754,1403.4045440713958,94.76964046497483,756.9666502711871,1
-17.478629607859613,-90.0389170896785,-69.92871900826447,-124.34128529698148,88.51597103918226,-126.26628658304827,124.89057156814853,12.854251012145726,12.450980392156865,-1.5179282868525945,-1.4941176470588218,1.4941176470588253,0.4980392156862763,-7.227642276422774,3.4862745098039234,5.127918873398226,25.900587613775787,59.14875523526754,1403.4045440713958,94.76964046497483,756.9666502711871,1
-17.329330758250077,-90.12487309644669,-69.92871900826447,-124.46494644595907,88.62414821124361,-126.20836183960469,124.89057156814853,12.854251012145726,12.450980392156865,-1.5179282868525945,-1.4941176470588218,1.4941176470588253,0.4980392156862763,-7.227642276422774,3.4862745098039234,5.127918873398226,25.900587613775787,59.12764095432041,1412.2952114235877,94.8395128502234,760.2208967899073,1
-17.329330758250077,-90.12487309644669,-69.92871900826447,-124.46494644595907,88.62414821124361,-126.20836183960469,124.89057156814853,3.5991902834007874,4.482352941176472,16.697211155378483,3.4862745098039234,-23.4078431372549,-7.470588235294116,-22.715447154471555,-3.48627450980392,10.66814774082302,77.91486820787578,59.12764095432041,1412.2952114235877,94.8395128502234,760.2208967899073,1
-17.329330758250077,-90.12487309644669,-69.92871900826447,-124.46494644595907,88.62414821124361,-126.20836183960469,124.89057156814853,2.5708502024291278,-3.48627450980392,-6.577689243027893,2.4901960784313744,-3.48627450980392,-5.478431372549018,-6.195121951219521,6.4745098039215705,4.594918458898293,3.112911615645795,59.12764095432041,1412.2952114235877,94.8395128502234,760.2208967899073,1
-17.308002351162997,-90.21082910321488,-69.92871900826447,-124.58860759493666,88.73232538330495,-126.13112884834663,124.89057156814853,2.5708502024291278,-3.48627450980392,-6.577689243027893,2.4901960784313744,-3.48627450980392,-5.478431372549018,-6.195121951219521,6.4745098039215705,4.594918458898293,3.112911615645795,59.14918348754745,1415.8543266417228,94.90938523547202,763.4831773728326,1
-17.308002351162997,-90.21082910321488,-69.92871900826447,-124.58860759493666,88.73232538330495,-126.13112884834663,124.89057156814853,-6.684210526315811,-13.44705882352941,-1.5179282868525945,-2.490196078431371,11.454901960784316,1.4941176470588253,-12.390243902439034,-7.470588235294116,7.118655682588184,24.482881908049787,59.14918348754745,1415.8543266417228,94.90938523547202,763.4831773728326,1
-17.308002351162997,-90.21082910321488,-69.92871900826447,-124.58860759493666,88.73232538330495,-126.13112884834663,124.89057156814853,5.655870445344107,3.4862745098039234,-4.553784860557774,-1.4941176470588218,3.4862745098039234,3.4862745098039234,-13.422764227642286,0.4980392156862763,4.510424990712629,15.583959751945017,59.14918348754745,1415.8543266417228,94.90938523547202,763.4831773728326,1
-17.691913678730383,-90.0389170896785,-69.89123376623377,-124.58860759493666,88.81345826235093,-126.07320410490306,124.84921022634751,5.655870445344107,3.4862745098039234,-4.553784860557774,-1.4941176470588218,3.4862745098039234,3.4862745098039234,-13.422764227642286,0.4980392156862763,4.510424990712629,15.583959751945017,59.20735484488089,1394.131177240531,94.83958615028298,765.2354935113019,1
-17.691913678730383,-90.0389170896785,-69.89123376623377,-124.58860759493666,88.81345826235093,-126.07320410490306,124.84921022634751,-3.599190283400832,3.4862745098039234,12.649402390438242,6.4745098039215705,11.454901960784316,0.4980392156862763,5.162601626016251,-3.48627450980392,5.851399287481916,17.627619602283104,59.20735484488089,1394.131177240531,94.83958615028298,765.2354935113019,1
-17.691913678730383,-90.0389170896785,-69.89123376623377,-124.58860759493666,88.81345826235093,-126.07320410490306,124.84921022634751,8.740890688259086,15.439215686274512,9.613545816733062,-3.48627450980392,-1.4941176470588218,5.4784313725490215,8.260162601626007,3.4862745098039234,6.999864104013544,19.998876910323776,59.20735484488089,1394.131177240531,94.83958615028298,765.2354935113019,1
-17.499958014946692,-90.25380710659897,-69.94746162927981,-124.58860759493666,88.81345826235093,-126.07320410490306,124.84921022634751,8.740890688259086,15.439215686274512,9.613545816733062,-3.48627450980392,-1.4941176470588218,5.4784313725490215,8.260162601626007,3.4862745098039234,6.999864104013544,19.998876910323776,59.23374225027516,1409.3684766117733,94.92995877693848,762.8135039430686,1
-17.499958014946692,-90.25380710659897,-69.94746162927981,-124.58860759493666,88.81345826235093,-126.07320410490306,124.84921022634751,3.5991902834007874,-9.462745098039214,-14.673306772908372,0.4980392156862763,12.450980392156865,3.4862745098039234,-12.390243902439034,0.4980392156862763,7.132352423765093,33.14789873291455,59.23374225027516,1409.3684766117733,94.92995877693848,762.8135039430686,1
-17.499958014946692,-90.25380710659897,-69.94746162927981,-124.58860759493666,88.81345826235093,-126.07320410490306,124.84921022634751,-2.570850202429172,3.4862745098039234,1.5179282868525847,1.4941176470588253,-5.478431372549018,-2.490196078431371,-3.097560975609766,-4.482352941176469,3.0772140017388914,1.9209378782848059,59.23374225027516,1409.3684766117733,94.92995877693848,762.8135039430686,1
-17.22268872281469,-90.51167512690354,-70.00368949232585,-124.83592989289184,88.94867972742759,-126.0152793614595,124.84921022634751,-2.570850202429172,3.4862745098039234,1.5179282868525847,1.4941176470588253,-5.478431372549018,-2.490196078431371,-3.097560975609766,-4.482352941176469,3.0772140017388914,1.9209378782848059,59.24601778068136,1429.6145075263173,95.11709817070708,767.5510878956629,1
-17.22268872281469,-90.51167512690354,-70.00368949232585,-124.83592989289184,88.94867972742759,-126.0152793614595,124.84921022634751,9.769230769230747,10.458823529411767,6.5776892430278835,-1.4941176470588218,10.458823529411767,1.4941176470588253,-2.0650406504065137,5.4784313725490215,5.974534298519418,15.80853463481007,59.24601778068136,1429.6145075263173,95.11709817070708,767.5510878956629,1
-17.22268872281469,-90.51167512690354,-70.00368949232585,-124.83592989289184,88.94867972742759,-126.0152793614595,124.84921022634751,-3.599190283400832,-13.44705882352941,-4.553784860557774,6.4745098039215705,-2.490196078431371,2.4901960784313744,-3.097560975609766,-0.49803921568627274,4.5813170149460465,15.824450114498218,59.24601778068136,1429.6145075263173,95.11709817070708,767.5510878956629,1
-17.393315979511307,-90.46869712351945,-69.89123376623377,-124.95959104186943,89.02981260647363,-125.97666286583046,124.84921022634751,-3.599190283400832,-13.44705882352941,-4.553784860557774,6.4745098039215705,-2.490196078431371,2.4901960784313744,-3.097560975609766,-0.49803921568627274,4.5813170149460465,15.824450114498218,59.25108228975484,1419.9124499173276,95.10650731054089,774.2629557573937,1
-17.393315979511307,-90.46869712351945,-69.89123376623377,-124.95959104186943,89.02981260647363,-125.97666286583046,124.84921022634751,1.5425101214574677,8.466666666666669,28.840637450199196,1.4941176470588253,-0.49803921568627274,4.482352941176472,-13.422764227642286,-2.490196078431371,7.654660543539821,92.2913029530384,59.25108228975484,1419.9124499173276,95.10650731054089,774.2629557573937,1
-17.393315979511307,-90.46869712351945,-69.89123376623377,-124.95959104186943,89.02981260647363,-125.97666286583046,124.84921022634751,7.712550607287427,-4.482352941176469,11.637450199203183,2.4901960784313744,14.443137254901963,3.4862745098039234,-1.0325203252032615,-6.474509803921567,6.469873964991146,21.43939922413287,59.25108228975484,1419.9124499173276,95.10650731054089,774.2629557573937,1
-17.350659165337152,-90.51167512690354,-69.77877804014167,-125.14508276533593,89.11094548551961,-125.95735461801596,124.86989089724801,7.712550607287427,-4.482352941176469,11.637450199203183,2.4901960784313744,14.443137254901963,3.4862745098039234,-1.0325203252032615,-6.474509803921567,6.469873964991146,21.43939922413287,59.21370411079412,1421.8491544815774,95.14517864412704,782.4589408638589,1
-17.350659165337152,-90.51167512690354,-69.77877804014167,-125.14508276533593,89.11094548551961,-125.95735461801596,124.86989089724801,6.684210526315767,5.4784313725490215,-13.661354581673312,-7.470588235294116,-24.40392156862745,-6.474509803921567,-4.130081300813018,-0.49803921568627274,8.600142075610066,54.315844032345076,59.21370411079412,1421.8491544815774,95.14517864412704,782.4589408638589,1
-17.350659165337152,-90.51167512690354,-69.77877804014167,-125.14508276533593,89.11094548551961,-125.95735461801596,124.86989089724801,-0.514170040485852,-6.474509803921567,-9.613545816733073,-1.4941176470588218,14.443137254901963,3.4862745098039234,-10.32520325203253,3.4862745098039234,6.229654104342707,23.698547506056304,59.21370411079412,1421.8491544815774,95.14517864412704,782.4589408638589,1
-17.030733059030997,-90.8984771573604,-69.87249114521842,-125.39240506329111,89.24616695059626,-125.93804637020142,124.89057156814853,-0.514170040485852,-6.474509803921567,-9.613545816733073,-1.4941176470588218,14.443137254901963,3.4862745098039234,-10.32520325203253,3.4862745098039234,6.229654104342707,23.698547506056304,59.267233787203274,1448.4645172663704,95.38779112195664,785.7306652720895,1
-17.030733059030997,-90.8984771573604,-69.87249114521842,-125.39240506329111,89.24616695059626,-125.93804637020142,124.89057156814853,1.5425101214574677,-13.44705882352941,16.697211155378483,4.482352941176472,2.4901960784313744,-4.482352941176469,-3.097560975609766,0.4980392156862763,5.842160281555715,35.02569630686014,59.267233787203274,1448.4645172663704,95.38779112195664,785.7306652720895,1
-17.030733059030997,-90.8984771573604,-69.87249114521842,-125.39240506329111,89.24616695059626,-125.93804637020142,124.89057156814853,-1.5425101214575117,-7.470588235294116,-17.70916334661355,-4.482352941176469,-5.478431372549018,-6.474509803921567,-14.455284552845537,-2.490196078431371,7.512879556536142,32.49098886455055,59.267233787203274,1448.4645172663704,95.38779112195664,785.7306652720895,1
-16.902762616508536,-91.41421319796953,-70.17237308146399,-125.63972736124629,89.40843270868822,-125.88012162675787,124.828529555447,-1.5425101214575117,-7.470588235294116,-17.70916334661355,-4.482352941176469,-5.478431372549018,-6.474509803921567,-14.455284552845537,-2.490196078431371,7.512879556536142,32.49098886455055,59.49644963198068,1473.4705730627963,95.74210454689326,783.2048303457877,1
-16.902762616508536,-91.41421319796953,-70.17237308146399,-125.63972736124629,89.40843270868822,-125.88012162675787,124.828529555447,5.655870445344107,21.415686274509806,0.505976095617525,4.482352941176472,1.4941176470588253,7.4705882352941195,-6.195121951219521,-6.474509803921567,6.711777924267743,41.27502498285397,59.49644963198068,1473.4705730627963,95.74210454689326,783.2048303457877,1
-16.902762616508536,-91.41421319796953,-70.17237308146399,-125.63972736124629,89.40843270868822,-125.88012162675787,124.828529555447,5.655870445344107,-7.470588235294116,-10.625498007968133,1.4941176470588253,4.482352941176472,-2.490196078431371,-2.0650406504065137,4.482352941176472,4.845752118357002,9.390012995905904,59.49644963198068,1473.4705730627963,95.74210454689326,783.2048303457877,1
-16.66815013855069,-92.18781725888324,-70.43476977567886,-126.01071080817917,89.67887563884159,-125.78358038768528,124.68376485914348,5.655870445344107,-7.470588235294116,-10.625498007968133,1.4941176470588253,4.482352941176472,-2.490196078431371,-2.0650406504065137,4.482352941176472,4.845752118357002,9.390012995905904,59.76357905770427,1511.2107639959997,96.21109928091376,784.3114040835834,1
-16.66815013855069,-92.18781725888324,-70.43476977567886,-126.01071080817917,89.67887563884159,-125.78358038768528,124.68376485914348,-5.655870445344151,-16.435294117647057,-8.601593625498012,2.4901960784313744,15.439215686274512,3.4862745098039234,-1.0325203252032615,-14.44313725490196,8.448012755388032,38.7912427806631,59.76357905770427,1511.2107639959997,96.21109928091376,784.3114040835834,1
-16.66815013855069,-92.18781725888324,-70.43476977567886,-126.01071080817917,89.67887563884159,-125.78358038768528,124.68376485914348,7.712550607287427,10.458823529411767,-1.5179282868525945,-5.478431372549018,-11.454901960784312,-1.4941176470588218,-8.260162601626025,3.4862745098039234,6.232898814421736,14.88958352399815,59.76357905770427,1511.2107639959997,96.21109928091376,784.3114040835834,1
-17.265345536988843,-93.17631133671742,-70.7159090909091,-126.25803310613435,89.92227427597959,-125.66773090079818,124.37355479563591,7.712550607287427,10.458823529411767,-1.5179282868525945,-5.478431372549018,-11.454901960784312,-1.4941176470588218,-8.260162601626025,3.4862745098039234,6.232898814421736,14.88958352399815,60.38585532153845,1520.651190320457,96.71675117792029,780.632920732548,1
-17.265345536988843,-93.17631133671742,-70.7159090909091,-126.25803310613435,89.92227427597959,-125.66773090079818,124.37355479563591,0.5141700404858076,-2.490196078431371,0.505976095617525,-2.490196078431371,3.4862745098039234,-4.482352941176469,-11.357723577235781,-2.490196078431371,3.477135674951702,11.949044979239899,60.38585532153845,1520.651190320457,96.71675117792029,780.632920732548,1
-17.265345536988843,-93.17631133671742,-70.7159090909091,-126.25803310613435,89.92227427597959,-125.66773090079818,124.37355479563591,6.684210526315767,6.4745098039215705,0.505976095617525,3.4862745098039234,-1.4941176470588218,-2.490196078431371,-6.195121951219521,0.4980392156862763,3.478555728506847,7.038044682962929,60.38585532153845,1520.651190320457,96.71675117792029,780.632920732548,1
-17.94785456377531,-93.56311336717427,-70.7159090909091,-126.25803310613435,90.08454003407155,-125.6098061573546,123.98062204852631,6.684210526315767,6.4745098039215705,0.505976095617525,3.4862745098039234,-1.4941176470588218,-2.490196078431371,-6.195121951219521,0.4980392156862763,3.478555728506847,7.038044682962929,60.742292340619564,1504.0216142874929,96.84568518807255,779.3133433501822,1
-17.94785456377531,-93.56311336717427,-70.7159090909091,-126.25803310613435,90.08454003407155,-125.6098061573546,123.98062204852631,-5.655870445344151,-6.474509803921567,-11.637450199203192,-4.482352941176469,-3.48627450980392,-1.4941176470588218,1.032520325203242,2.4901960784313744,4.594161493767842,11.747570901314612,60.742292340619564,1504.0216142874929,96.84568518807255,779.3133433501822,1
-17.94785456377531,-93.56311336717427,-70.7159090909091,-126.25803310613435,90.08454003407155,-125.6098061573546,123.98062204852631,-4.627530364372491,-19.423529411764704,-24.792828685258968,-7.470588235294116,0.4980392156862763,-5.478431372549018,-6.195121951219521,-6.474509803921567,9.370072380008333,68.19365574052595,60.742292340619564,1504.0216142874929,96.84568518807255,779.3133433501822,1
-18.07582500629777,-94.07884940778341,-70.5284828807556,-126.25803310613435,90.2197614991482,-125.57118966172555,123.54632795961572,-4.627530364372491,-19.423529411764704,-24.792828685258968,-7.470588235294116,0.4980392156862763,-5.478431372549018,-6.195121951219521,-6.474509803921567,9.370072380008333,68.19365574052595,60.89438576494559,1513.7267999708495,96.95512179822447,782.650399228763,1
-18.07582500629777,-94.07884940778341,-70.5284828807556,-126.25803310613435,90.2197614991482,-125.57118966172555,123.54632795961572,13.882591093117385,-3.48627450980392,-4.553784860557774,3.4862745098039234,5.4784313725490215,3.4862745098039234,2.0650406504064946,10.458823529411767,5.862186879431776,16.952619231993484,60.89438576494559,1513.7267999708495,96.95512179822447,782.650399228763,1
-18.07582500629777,-94.07884940778341,-70.5284828807556,-126.25803310613435,90.2197614991482,-125.57118966172555,123.54632795961572,1.5425101214574677,3.4862745098039234,-0.5059760956175348,3.4862745098039234,-1.4941176470588218,-1.4941176470588218,-2.0650406504065137,-4.482352941176469,2.319583015297934,1.817214592041841,60.89438576494559,1513.7267999708495,96.95512179822447,782.650399228763,1
-18.950289696867927,-94.2507614213198,-70.11614521841794,-126.01071080817917,90.1927172061329,-125.6098061573546,123.07067252890411,1.5425101214574677,3.4862745098039234,-0.5059760956175348,3.4862745098039234,-1.4941176470588218,-1.4941176470588218,-2.0650406504065137,-4.482352941176469,2.319583015297934,1.817214592041841,61.105732112201885,1478.4309187397464,96.79253914930564,785.8960911308936,1
-18.950289696867927,-94.2507614213198,-70.11614521841794,-126.01071080817917,90.1927172061329,-125.6098061573546,123.07067252890411,-1.5425101214575117,-3.48627450980392,-3.541832669322714,-0.49803921568627274,-21.415686274509802,-2.490196078431371,-8.260162601626025,2.4901960784313744,5.4656121936586235,46.80097053859864,61.105732112201885,1478.4309187397464,96.79253914930564,785.8960911308936,1
-18.950289696867927,-94.2507614213198,-70.11614521841794,-126.01071080817917,90.1927172061329,-125.6098061573546,123.07067252890411,7.712550607287427,4.482352941176472,-22.76892430278885,1.4941176470588253,13.447058823529414,7.4705882352941195,-9.769962616701378e-15,-0.49803921568627274,7.234203971602674,59.77752743310653,61.105732112201885,1478.4309187397464,96.79253914930564,785.8960911308936,1
-19.355529431522392,-94.33671742808798,-69.77877804014167,-125.76338851022388,90.00340715502557,-125.74496389205623,122.69842045269502,7.712550607287427,4.482352941176472,-22.76892430278885,1.4941176470588253,13.447058823529414,7.4705882352941195,-9.769962616701378e-15,-0.49803921568627274,7.234203971602674,59.77752743310653,61.15700829991735,1461.2958234341638,96.62629465948451,787.5007752956064,1
-19.355529431522392,-94.33671742808798,-69.77877804014167,-125.76338851022388,90.00340715502557,-125.74496389205623,122.69842045269502,6.684210526315767,-7.470588235294116,-7.589641434262953,-0.49803921568627274,-2.490196078431371,-0.49803921568627274,-2.0650406504065137,4.482352941176472,3.9722635371574677,8.987576939988978,61.15700829991735,1461.2958234341638,96.62629465948451,787.5007752956064,1
-19.355529431522392,-94.33671742808798,-69.77877804014167,-125.76338851022388,90.00340715502557,-125.74496389205623,122.69842045269502,9.769230769230747,2.4901960784313744,16.697211155378483,3.4862745098039234,-6.474509803921567,3.4862745098039234,-1.0325203252032615,4.482352941176472,5.989821261618719,25.828174279631856,61.15700829991735,1461.2958234341638,96.62629465948451,787.5007752956064,1
-20.251322529179625,-94.76649746192892,-69.38518299881936,-125.20691333982472,89.67887563884159,-125.97666286583046,122.26412636378441,9.769230769230747,2.4901960784313744,16.697211155378483,3.4862745098039234,-6.474509803921567,3.4862745098039234,-1.0325203252032615,4.482352941176472,5.989821261618719,25.828174279631856,61.46766766330931,1435.1431106305852,96.45286460019099,781.1492701597374,1
-20.251322529179625,-94.76649746192892,-69.38518299881936,-125.20691333982472,89.67887563884159,-125.97666286583046,122.26412636378441,-3.599190283400832,-18.427450980392155,-7.589641434262953,0.4980392156862763,-10.458823529411763,1.4941176470588253,-6.195121951219521,-1.4941176470588218,6.219562836061393,36.16334660208016,61.46766766330931,1435.1431106305852,96.45286460019099,781.1492701597374,1
-20.251322529179625,-94.76649746192892,-69.38518299881936,-125.20691333982472,89.67887563884159,-125.97666286583046,122.26412636378441,-6.684210526315811,-11.454901960784312,-18.72111553784861,-5.478431372549018,-6.474509803921567,0.4980392156862763,-4.130081300813018,1.4941176470588253,6.8669259206221795,34.372390448287284,61.46766766330931,1435.1431106305852,96.45286460019099,781.1492701597374,1
-19.86741120161224,-94.76649746192892,-70.19111570247934,-124.58860759493666,89.43547700170359,-126.07320410490306,121.8091516039733,-6.684210526315811,-11.454901960784312,-18.72111553784861,-5.478431372549018,-6.474509803921567,0.4980392156862763,-4.130081300813018,1.4941176470588253,6.8669259206221795,34.372390448287284,61.60834145534017,1457.716290990606,96.51540691978164,742.0657942663152,1
-19.86741120161224,-94.76649746192892,-70.19111570247934,-124.58860759493666,89.43547700170359,-126.07320410490306,121.8091516039733,17.995951417004026,11.454901960784316,-6.577689243027893,-6.474509803921567,-5.478431372549018,-1.4941176470588218,-19.617886178861795,0.4980392156862763,8.698940854861714,50.31954891090469,61.60834145534017,1457.716290990606,96.51540691978164,742.0657942663152,1
-19.86741120161224,-94.76649746192892,-70.19111570247934,-124.58860759493666,89.43547700170359,-126.07320410490306,121.8091516039733,-4.627530364372491,-14.44313725490196,12.649402390438242,2.4901960784313744,-2.490196078431371,4.482352941176472,1.032520325203242,-5.478431372549018,5.961720850688021,24.18023675616501,61.60834145534017,1457.716290990606,96.51540691978164,742.0657942663152,1
-20.592577042572856,-93.99289340101522,-70.4909976387249,-123.84664070107101,89.13798977853492,-126.16974534397568,121.3541768441622,-4.627530364372491,-14.44313725490196,12.649402390438242,2.4901960784313744,-2.490196078431371,4.482352941176472,1.032520325203242,-5.478431372549018,5.961720850688021,24.18023675616501,61.69215602743767,1404.9663206552452,96.11017724693704,715.0683298122716,1
-20.592577042572856,-93.99289340101522,-70.4909976387249,-123.84664070107101,89.13798977853492,-126.16974534397568,121.3541768441622,6.684210526315767,4.482352941176472,-3.541832669322714,0.4980392156862763,-9.462745098039214,-5.478431372549018,4.130081300812998,5.4784313725490215,4.9695155620564355,6.660233934901039,61.69215602743767,1404.9663206552452,96.11017724693704,715.0683298122716,1
-20.592577042572856,-93.99289340101522,-70.4909976387249,-123.84664070107101,89.13798977853492,-126.16974534397568,121.3541768441622,-2.570850202429172,-3.48627450980392,-5.5657370517928335,-1.4941176470588218,22.411764705882355,0.4980392156862763,-8.260162601626025,0.4980392156862763,5.59812314374571,53.18212927021686,61.69215602743767,1404.9663206552452,96.11017724693704,715.0683298122716,1
-20.102023679570085,-94.20778341793569,-70.69716646989374,-123.22833495618306,88.97572402044295,-126.20836183960469,120.85784074255008,-2.570850202429172,-3.48627450980392,-5.5657370517928335,-1.4941176470588218,22.411764705882355,0.4980392156862763,-8.260162601626025,0.4980392156862763,5.59812314374571,53.18212927021686,61.66899118913317,1434.0468682751941,96.04442828133749,692.4108638994242,1
-20.102023679570085,-94.20778341793569,-70.69716646989374,-123.22833495618306,88.97572402044295,-126.20836183960469,120.85784074255008,7.712550607287427,9.462745098039218,6.5776892430278835,-4.482352941176469,-1.4941176470588218,-9.462745098039214,-1.0325203252032615,0.4980392156862763,5.090345021939822,14.02594848635569,61.66899118913317,1434.0468682751941,96.04442828133749,692.4108638994242,1
-20.102023679570085,-94.20778341793569,-70.69716646989374,-123.22833495618306,88.97572402044295,-126.20836183960469,120.85784074255008,8.740890688259086,12.450980392156865,12.649402390438242,3.4862745098039234,-9.462745098039214,-1.4941176470588218,7.227642276422754,0.4980392156862763,7.001261527233148,22.24472257588497,61.66899118913317,1434.0468682751941,96.04442828133749,692.4108638994242,1
-20.76320429926947,-93.64906937394247,-70.95956316410862,-122.42453748782862,88.78641396933563,-126.22767008741923,120.29946262823645,8.740890688259086,12.450980392156865,12.649402390438242,3.4862745098039234,-9.462745098039214,-1.4941176470588218,7.227642276422754,0.4980392156862763,7.001261527233148,22.24472257588497,61.79061227910685,1391.13957716954,95.6777233419599,665.2474732267544,1
-20.76320429926947,-93.64906937394247,-70.95956316410862,-122.42453748782862,88.78641396933563,-126.22767008741923,120.29946262823645,-7.71255060728747,-5.478431372549018,-10.625498007968133,-4.482352941176469,-6.474509803921567,-1.4941176470588218,-16.520325203252042,-5.478431372549018,7.283277119470318,20.743765436796004,61.79061227910685,1391.13957716954,95.6777233419599,665.2474732267544,1
-20.76320429926947,-93.64906937394247,-70.95956316410862,-122.42453748782862,88.78641396933563,-126.22767008741923,120.29946262823645,3.5991902834007874,-0.49803921568627274,3.5418326693227042,-3.48627450980392,-5.478431372549018,-0.49803921568627274,-6.195121951219521,3.4862745098039234,3.3479004659340523,4.146900206506842,61.79061227910685,1391.13957716954,95.6777233419599,665.2474732267544,1
-20.33663615752793,-93.77800338409475,-70.99704840613931,-122.05355404089573,88.73232538330495,-126.24697833523373,119.69972317212182,3.5991902834007874,-0.49803921568627274,3.5418326693227042,-3.48627450980392,-5.478431372549018,-0.49803921568627274,-6.195121951219521,3.4862745098039234,3.3479004659340523,4.146900206506842,61.70389598258733,1413.1806165023881,95.60953527704326,654.2075737141442,1
-20.33663615752793,-93.77800338409475,-70.99704840613931,-122.05355404089573,88.73232538330495,-126.24697833523373,119.69972317212182,4.627530364372447,9.462745098039218,7.589641434262944,4.482352941176472,9.462745098039218,-3.48627450980392,-2.0650406504065137,-0.49803921568627274,5.2092961639733755,11.109669365439032,61.70389598258733,1413.1806165023881,95.60953527704326,654.2075737141442,1
-20.33663615752793,-93.77800338409475,-70.99704840613931,-122.05355404089573,88.73232538330495,-126.24697833523373,119.69972317212182,1.5425101214574677,0.4980392156862763,-2.5298804780876543,-1.4941176470588218,-7.470588235294116,2.4901960784313744,-5.1626016260162695,-6.474509803921567,3.457805400744193,6.598745090981174,61.70389598258733,1413.1806165023881,95.60953527704326,654.2075737141442,1
-20.29397934335378,-93.77800338409475,-70.79087957497048,-121.62074001947417,88.67823679727428,-126.26628658304827,119.07930304510668,1.5425101214574677,0.4980392156862763,-2.5298804780876543,-1.4941176470588218,-7.470588235294116,2.4901960784313744,-5.1626016260162695,-6.474509803921567,3.457805400744193,6.598745090981174,61.62095410080633,1413.041097206342,95.39654099284645,647.8834261951381,1
-20.29397934335378,-93.77800338409475,-70.79087957497048,-121.62074001947417,88.67823679727428,-126.26628658304827,119.07930304510668,12.854251012145726,21.415686274509806,7.589641434262944,3.4862745098039234,9.462745098039218,8.466666666666669,10.32520325203251,8.466666666666669,10.258391864265933,27.32365449975766,61.62095410080633,1413.041097206342,95.39654099284645,647.8834261951381,1
-20.29397934335378,-93.77800338409475,-70.79087957497048,-121.62074001947417,88.67823679727428,-126.26628658304827,119.07930304510668,-7.71255060728747,-8.466666666666665,1.5179282868525847,-1.4941176470588218,-24.40392156862745,-5.478431372549018,-9.292682926829277,-4.482352941176469,7.856081502130969,53.42432638514377,61.62095410080633,1413.041097206342,95.39654099284645,647.8834261951381,1
-21.211100848098088,-93.43417935702199,-70.28482880755608,-120.87877312560852,88.43483816013628,-126.32421132649182,118.43820224719103,-7.71255060728747,-8.466666666666665,1.5179282868525847,-1.4941176470588218,-24.40392156862745,-5.478431372549018,-9.292682926829277,-4.482352941176469,7.856081502130969,53.42432638514377,61.64336967089205,1360.049379334522,94.86592709672887,641.4742266071644,1
-21.211100848098088,-93.43417935702199,-70.28482880755608,-120.87877312560852,88.43483816013628,-126.32421132649182,118.43820224719103,9.769230769230747,15.439215686274512,-7.589641434262953,-8.466666666666665,6.4745098039215705,-2.490196078431371,-19.617886178861795,3.4862745098039234,9.166702640931693,33.71468224448564,61.64336967089205,1360.049379334522,94.86592709672887,641.4742266071644,1
-21.211100848098088,-93.43417935702199,-70.28482880755608,-120.87877312560852,88.43483816013628,-126.32421132649182,118.43820224719103,7.712550607287427,0.4980392156862763,13.6613545816733,1.4941176470588253,7.4705882352941195,-1.4941176470588218,-7.227642276422774,1.4941176470588253,5.131565982192546,21.492285369539655,61.64336967089205,1360.049379334522,94.86592709672887,641.4742266071644,1
-21.744311025275014,-93.52013536379017,-70.00368949232585,-119.95131450827648,88.1103066439523,-126.44006081337892,117.75574010747437,7.712550607287427,0.4980392156862763,13.6613545816733,1.4941176470588253,7.4705882352941195,-1.4941176470588218,-7.227642276422774,1.4941176470588253,5.131565982192546,21.492285369539655,61.75604529379701,1338.9599659874912,94.49171312146417,624.3992836879095,1
-21.744311025275014,-93.52013536379017,-70.00368949232585,-119.95131450827648,88.1103066439523,-126.44006081337892,117.75574010747437,-8.740890688259132,-7.470588235294116,1.5179282868525847,4.482352941176472,8.466666666666669,6.4745098039215705,-4.130081300813018,-2.490196078431371,5.471651750176866,7.422719926126207,61.75604529379701,1338.9599659874912,94.49171312146417,624.3992836879095,1
-21.744311025275014,-93.52013536379017,-70.00368949232585,-119.95131450827648,88.1103066439523,-126.44006081337892,117.75574010747437,-1.5425101214575117,-3.48627450980392,-9.613545816733073,4.482352941176472,1.4941176470588253,2.4901960784313744,-3.097560975609766,-7.470588235294116,4.209643290695633,8.444923149177104,61.75604529379701,1338.9599659874912,94.49171312146417,624.3992836879095,1
-22.06423713158117,-93.47715736040608,-69.90997638724912,-118.90019474196686,87.70464224872234,-126.55591030026605,117.09395863865822,-1.5425101214575117,-3.48627450980392,-9.613545816733073,4.482352941176472,1.4941176470588253,2.4901960784313744,-3.097560975609766,-7.470588235294116,4.209643290695633,8.444923149177104,61.817123626412126,1324.071993258568,94.09577616320735,600.2973905281151,1
-22.06423713158117,-93.47715736040608,-69.90997638724912,-118.90019474196686,87.70464224872234,-126.55591030026605,117.09395863865822,-1.5425101214575117,-5.478431372549018,-15.685258964143431,2.4901960784313744,10.458823529411767,-3.48627450980392,-5.1626016260162695,0.4980392156862763,5.6002669271874455,26.022664857171694,61.817123626412126,1324.071993258568,94.09577616320735,600.2973905281151,1
-22.06423713158117,-93.47715736040608,-69.90997638724912,-118.90019474196686,87.70464224872234,-126.55591030026605,117.09395863865822,-2.570850202429172,-2.490196078431371,-22.76892430278885,-5.478431372549018,-10.458823529411763,1.4941176470588253,-5.1626016260162695,-0.49803921568627274,6.365247996796443,53.66232725262728,61.817123626412126,1324.071993258568,94.09577616320735,600.2973905281151,1
-22.320178016626095,-93.3482233502538,-70.13488783943329,-117.60175267770205,87.21784497444634,-126.67175978715315,116.47353851164307,-2.570850202429172,-2.490196078431371,-22.76892430278885,-5.478431372549018,-10.458823529411763,1.4941176470588253,-5.1626016260162695,-0.49803921568627274,6.365247996796443,53.66232725262728,61.93442973543773,1311.681440815508,93.69495462246306,563.3659813249648,1
