Gyro 0,Gyro 1,Gyro 2,Orientation 0,Orientation 1,Orientation 2,Orientation 3,Sensor 0,Sensor 1,Sensor 2,Sensor 3,Sensor 4,Sensor 5,Sensor 6,Sensor 7,Sensor Mean,Sensor Variance,Gyro Mean,Gyro Variance,Orientation Mean,Orientation Variance,Label
-22.062005773817003,-61.615838082137955,-56.92170863084054,-121.83039348710992,124.94275516507653,25.256361922714404,35.71875,-1.032520325203258,-12.867841409691625,11.454901960784316,6.5256916996047405,4.482352941176472,-3.097560975609766,-12.450980392156861,1.5179282868525883,6.678722248884953,24.374516533027368,46.86651749559851,466.95656414338123,80.1226467333628,1310.1608172824112,1
-22.062005773817003,-61.615838082137955,-56.92170863084054,-121.83039348710992,124.94275516507653,25.256361922714404,35.71875,3.0975609756097504,-18.46255506607929,-6.474509803921567,3.5138339920948587,-2.490196078431371,-7.227642276422774,1.4941176470588253,0.5059760956175285,5.408298991904496,33.09397642022636,46.86651749559851,466.95656414338123,80.1226467333628,1310.1608172824112,1
-22.062005773817003,-61.615838082137955,-56.92170863084054,-121.83039348710992,124.94275516507653,25.256361922714404,35.71875,8.26016260162601,-8.392070484581494,28.38823529411765,8.53359683794466,17.43137254901961,-3.097560975609766,-0.49803921568627274,2.529880478087648,9.64136480458414,84.83142288625231,46.86651749559851,466.95656414338123,80.1226467333628,1310.1608172824112,1
-21.631605372160166,-61.91530752603656,-57.03307027433296,-121.92229760289462,124.97762372160068,25.096764059063787,35.927631578947285,8.26016260162601,-8.392070484581494,28.38823529411765,8.53359683794466,17.43137254901961,-3.097560975609766,-0.49803921568627274,2.529880478087648,9.64136480458414,84.83142288625231,46.859994390843234,483.3127695039866,80.29022513442136,1305.8811536606363,1
-21.631605372160166,-61.91530752603656,-57.03307027433296,-121.92229760289462,124.97762372160068,25.096764059063787,35.927631578947285,5.162601626016254,-1.6784140969162955,20.419607843137257,3.5138339920948587,-9.462745098039214,-6.195121951219521,-10.458823529411763,2.529880478087648,7.427628576865352,37.30428266399796,46.859994390843234,483.3127695039866,80.29022513442136,1305.8811536606363,1
-21.53596083845865,-61.36628021222245,-57.08079669297257,-122.0601537765717,124.99505799986272,24.897266729500473,36.20614035087715,5.162601626016254,-1.6784140969162955,20.419607843137257,3.5138339920948587,-9.462745098039214,-6.195121951219521,-10.458823529411763,2.529880478087648,7.427628576865352,37.30428266399796,46.66101258121788,478.04251105568744,80.16907689392224,1320.7380840394765,1
-21.53596083845865,-61.36628021222245,-57.08079669297257,-122.0601537765717,124.99505799986272,24.897266729500473,36.20614035087715,2.065040650406498,-27.414096916299556,-10.458823529411763,-0.5019762845849831,8.466666666666669,-3.097560975609766,1.4941176470588253,-1.517928286852591,6.877026369611332,81.84342302806671,46.66101258121788,478.04251105568744,80.16907689392224,1320.7380840394765,1
-21.53596083845865,-61.36628021222245,-57.08079669297257,-122.0601537765717,124.99505799986272,24.897266729500473,36.20614035087715,14.455284552845523,-2.797356828193827,7.4705882352941195,-0.5019762845849831,-4.482352941176469,-7.227642276422774,6.4745098039215705,4.5537848605577675,5.9954369728746295,17.180934865201383,46.66101258121788,478.04251105568744,80.16907689392224,1320.7380840394765,1
-21.344671771055612,-61.51601493417175,-57.17624953025179,-122.22098597919494,124.99505799986272,24.817467797675135,36.34539473684208,14.455284552845523,-2.797356828193827,7.4705882352941195,-0.5019762845849831,-4.482352941176469,-7.227642276422774,6.4745098039215705,4.5537848605577675,5.9954369728746295,17.180934865201383,46.67897874515972,486.0787233338701,80.3044168145395,1322.4574688417729,1
-21.344671771055612,-61.51601493417175,-57.17624953025179,-122.22098597919494,124.99505799986272,24.817467797675135,36.34539473684208,-1.032520325203258,-24.057268722466958,-8.466666666666665,-2.509881422924904,1.4941176470588253,-4.130081300813018,-3.48627450980392,6.577689243027887,6.469312479745679,56.813751279131225,46.67897874515972,486.0787233338701,80.3044168145395,1322.4574688417729,1
-21.344671771055612,-61.51601493417175,-57.17624953025179,-122.22098597919494,124.99505799986272,24.817467797675135,36.34539473684208,1.0325203252032464,-25.17621145374449,-16.435294117647057,-6.525691699604746,-5.478431372549018,-10.32520325203253,-7.470588235294116,-3.5418326693227105,9.498221640674739,61.551264476102965,46.67897874515972,486.0787233338701,80.3044168145395,1322.4574688417729,1
-20.866449102548017,-61.96521910001966,-57.2557935613178,-122.42777023971054,125.04736083464891,24.857367263587832,36.275767543859615,1.0325203252032464,-25.17621145374449,-16.435294117647057,-6.525691699604746,-5.478431372549018,-10.32520325203253,-7.470588235294116,-3.5418326693227105,9.498221640674739,61.551264476102965,46.695820587961826,505.9119957247753,80.54959430034934,1320.8808872322134,1
-20.866449102548017,-61.96521910001966,-57.2557935613178,-122.42777023971054,125.04736083464891,24.857367263587832,36.275767543859615,7.227642276422758,-15.105726872246692,3.4862745098039234,-0.5019762845849831,4.482352941176472,-1.0325203252032615,-1.4941176470588218,-0.5059760956175312,4.229573369014306,24.765649393666244,46.695820587961826,505.9119957247753,80.54959430034934,1320.8808872322134,1
-20.866449102548017,-61.96521910001966,-57.2557935613178,-122.42777023971054,125.04736083464891,24.857367263587832,36.275767543859615,5.162601626016254,-33.008810572687224,0.4980392156862763,0.5019762845849773,-3.48627450980392,-9.769962616701378e-15,-6.474509803921567,3.541832669322708,6.584255585252867,119.50466387770553,46.695820587961826,505.9119957247753,80.54959430034934,1320.8808872322134,1
-20.149115099786627,-61.615838082137955,-57.335337592383816,-122.72645861601086,125.08222939117306,25.176562990889124,35.99725877192975,5.162601626016254,-33.008810572687224,0.4980392156862763,0.5019762845849773,-3.48627450980392,-9.769962616701378e-15,-6.474509803921567,3.541832669322708,6.584255585252867,119.50466387770553,46.36676359143613,520.1044904344651,80.55921143017754,1338.1382225340722,1
-20.149115099786627,-61.615838082137955,-57.335337592383816,-122.72645861601086,125.08222939117306,25.176562990889124,35.99725877192975,1.0325203252032464,-17.343612334801758,6.4745098039215705,0.5019762845849773,17.43137254901961,-7.227642276422774,-5.478431372549018,-0.5059760956175312,6.99950513026506,48.350635973723776,46.36676359143613,520.1044904344651,80.55921143017754,1338.1382225340722,1
-20.149115099786627,-61.615838082137955,-57.335337592383816,-122.72645861601086,125.08222939117306,25.176562990889124,35.99725877192975,5.162601626016254,-15.105726872246692,-13.44705882352941,5.52173913043478,4.482352941176472,-6.195121951219521,-6.474509803921567,-2.5298804780876507,7.3648739533290435,19.85829763467722,46.36676359143613,520.1044904344651,80.55921143017754,1338.1382225340722,1
-19.766536964980553,-61.56592650815485,-57.430790429663034,-123.07109905020353,125.11709794769718,25.615457115928393,35.57949561403507,5.162601626016254,-15.105726872246692,-13.44705882352941,5.52173913043478,4.482352941176472,-6.195121951219521,-6.474509803921567,-2.5298804780876507,7.3648739533290435,19.85829763467722,46.25441796759949,530.4807176035866,80.68927199600714,1351.4392859357708,1
-19.766536964980553,-61.56592650815485,-57.430790429663034,-123.07109905020353,125.11709794769718,25.615457115928393,35.57949561403507,10.325203252032514,-9.511013215859027,7.4705882352941195,2.5098814229248982,3.4862745098039234,-2.0650406504065137,-3.48627450980392,5.565737051792827,5.552501605989717,10.298033854755305,46.25441796759949,530.4807176035866,80.68927199600714,1351.4392859357708,1
-19.766536964980553,-61.56592650815485,-57.430790429663034,-123.07109905020353,125.11709794769718,25.615457115928393,35.57949561403507,-2.0650406504065097,-38.603524229074885,-46.317647058823525,-9.537549407114627,-23.4078431372549,-9.292682926829277,3.4862745098039234,7.589641434262947,17.537525419196324,282.0436020421638,46.25441796759949,530.4807176035866,80.68927199600714,1351.4392859357708,1
-20.324463411572744,-61.86539595205346,-57.41488162344983,-123.25490728177296,125.11709794769718,25.974552309142325,35.23135964912274,-2.0650406504065097,-38.603524229074885,-46.317647058823525,-9.537549407114627,-23.4078431372549,-9.292682926829277,3.4862745098039234,7.589641434262947,17.537525419196324,282.0436020421638,46.53491366235867,520.1925462089699,80.84506161909208,1353.8980262965854,1
-20.324463411572744,-61.86539595205346,-57.41488162344983,-123.25490728177296,125.11709794769718,25.974552309142325,35.23135964912274,8.26016260162601,-5.035242290748894,-11.454901960784312,3.5138339920948587,2.4901960784313744,-1.0325203252032615,0.4980392156862763,3.541832669322708,4.478341141737212,13.823034397379335,46.53491366235867,520.1925462089699,80.84506161909208,1353.8980262965854,1
-20.324463411572744,-61.86539595205346,-57.41488162344983,-123.25490728177296,125.11709794769718,25.974552309142325,35.23135964912274,5.162601626016254,-3.9162995594713603,11.454901960784316,-2.509881422924904,4.482352941176472,-10.32520325203253,1.4941176470588253,-1.517928286852591,5.107910837039657,14.573702919420596,46.53491366235867,520.1925462089699,80.84506161909208,1353.8980262965854,1
-20.069411321702027,-64.111416781293,-56.96943504948015,-123.50764360018091,125.29144073031782,26.21394910461828,34.465460526315724,5.162601626016254,-3.9162995594713603,11.454901960784316,-2.509881422924904,4.482352941176472,-10.32520325203253,1.4941176470588253,-1.517928286852591,5.107910837039657,14.573702919420596,47.05008771749173,558.7196498451297,81.52949847698468,1334.3754767524795,1
-20.069411321702027,-64.111416781293,-56.96943504948015,-123.50764360018091,125.29144073031782,26.21394910461828,34.465460526315724,4.130081300813003,-10.629955947136558,4.482352941176472,-3.513833992094865,-13.44705882352941,-5.1626016260162695,13.447058823529414,0.5059760956175285,6.9148649437391905,24.074920578091557,47.05008771749173,558.7196498451297,81.52949847698468,1334.3754767524795,1
-20.069411321702027,-64.111416781293,-56.96943504948015,-123.50764360018091,125.29144073031782,26.21394910461828,34.465460526315724,4.130081300813003,-18.46255506607929,-5.478431372549018,4.517786561264819,18.42745098039216,-8.260162601626025,-13.44705882352941,0.5059760956175285,9.153687850233908,46.7011064875578,47.05008771749173,558.7196498451297,81.52949847698468,1334.3754767524795,1
-20.196937366637385,-65.10964826095501,-57.001252661906555,-123.7374038896427,125.51808634772462,26.413446434181594,33.421052631578846,4.130081300813003,-18.46255506607929,-5.478431372549018,4.517786561264819,18.42745098039216,-8.260162601626025,-13.44705882352941,0.5059760956175285,9.153687850233908,46.7011064875578,47.435946096499656,572.9092172368016,81.94943493750144,1326.1122816565098,1
-20.196937366637385,-65.10964826095501,-57.001252661906555,-123.7374038896427,125.51808634772462,26.413446434181594,33.421052631578846,-5.329070518200751e-15,-12.867841409691625,11.454901960784316,7.5296442687747005,-19.423529411764704,-13.422764227642286,-0.49803921568627274,5.565737051792827,8.845307193267093,45.17793655070985,47.435946096499656,572.9092172368016,81.94943493750144,1326.1122816565098,1
-20.196937366637385,-65.10964826095501,-57.001252661906555,-123.7374038896427,125.51808634772462,26.413446434181594,33.421052631578846,11.357723577235767,-6.154185022026427,-3.48627450980392,-3.513833992094865,-9.462745098039214,-9.769962616701378e-15,11.454901960784316,6.577689243027887,6.50091917537655,16.757390846457657,47.435946096499656,572.9092172368016,81.94943493750144,1326.1122816565098,1
-20.6113970126773,-64.66044409510711,-56.90579982462734,-123.92121212121212,125.69242913034526,26.453345900094234,32.7247807017543,11.357723577235767,-6.154185022026427,-3.48627450980392,-3.513833992094865,-9.462745098039214,-9.769962616701378e-15,11.454901960784316,6.577689243027887,6.50091917537655,16.757390846457657,47.39254697747058,552.9561220179816,81.82915201364885,1343.8397700144603,1
-20.6113970126773,-64.66044409510711,-56.90579982462734,-123.92121212121212,125.69242913034526,26.453345900094234,32.7247807017543,3.0975609756097504,-25.17621145374449,18.42745098039216,0.5019762845849773,-0.49803921568627274,-5.1626016260162695,7.4705882352941195,-0.5059760956175312,7.605050608368196,86.21875399136344,47.39254697747058,552.9561220179816,81.82915201364885,1343.8397700144603,1
-20.6113970126773,-64.66044409510711,-56.90579982462734,-123.92121212121212,125.69242913034526,26.453345900094234,32.7247807017543,3.0975609756097504,-22.938325991189423,-6.474509803921567,-3.513833992094865,4.482352941176472,-9.769962616701378e-15,9.462745098039218,-0.5059760956175312,6.309413112206105,54.49278338943184,47.39254697747058,552.9561220179816,81.82915201364885,1343.8397700144603,1
-20.73892305761266,-64.111416781293,-57.208067142678196,-124.03609226594301,125.83190335644176,26.57304429783227,32.09813596491222,3.0975609756097504,-22.938325991189423,-6.474509803921567,-3.513833992094865,4.482352941176472,-9.769962616701378e-15,9.462745098039218,-0.5059760956175312,6.309413112206105,54.49278338943184,47.35280232719462,543.1379863901541,81.78519206330473,1350.7679850082152,1
-20.73892305761266,-64.111416781293,-57.208067142678196,-124.03609226594301,125.83190335644176,26.57304429783227,32.09813596491222,5.162601626016254,3.916299559471369,11.454901960784316,-0.5019762845849831,-6.474509803921567,-6.195121951219521,-5.478431372549018,-1.517928286852591,5.087721355674953,11.284782563616375,47.35280232719462,543.1379863901541,81.78519206330473,1350.7679850082152,1
-20.73892305761266,-64.111416781293,-57.208067142678196,-124.03609226594301,125.83190335644176,26.57304429783227,32.09813596491222,-5.329070518200751e-15,-17.343612334801758,12.450980392156865,4.517786561264819,-11.454901960784312,-9.292682926829277,0.4980392156862763,6.577689243027887,7.766961579318901,36.38791904427866,47.35280232719462,543.1379863901541,81.78519206330473,1350.7679850082152,1
-20.72298230199574,-63.76203576341129,-57.03307027433296,-124.19692446856627,125.93650902601414,26.61294376374491,31.680372807017534,-5.329070518200751e-15,-17.343612334801758,12.450980392156865,4.517786561264819,-11.454901960784312,-9.292682926829277,0.4980392156862763,6.577689243027887,7.766961579318901,36.38791904427866,47.172696113246666,536.0102646611102,81.66401016877018,1368.106343263651,1
-20.72298230199574,-63.76203576341129,-57.03307027433296,-124.19692446856627,125.93650902601414,26.61294376374491,31.680372807017534,2.065040650406498,-31.88986784140969,-12.450980392156861,-4.517786561264825,3.4862745098039234,-9.769962616701378e-15,-4.482352941176469,1.5179282868525883,7.551278897883858,110.72008173591823,47.172696113246666,536.0102646611102,81.66401016877018,1368.106343263651,1
-20.72298230199574,-63.76203576341129,-57.03307027433296,-124.19692446856627,125.93650902601414,26.61294376374491,31.680372807017534,5.162601626016254,-10.629955947136558,5.4784313725490215,-0.5019762845849831,-17.431372549019606,-11.357723577235781,18.42745098039216,-1.517928286852591,8.813430077973369,46.175271612116326,47.172696113246666,536.0102646611102,81.66401016877018,1368.106343263651,1
-20.770804568846497,-64.3110630772254,-56.84216459977452,-124.33478064224333,126.07598325211066,26.57304429783227,31.19298245614027,5.162601626016254,-10.629955947136558,5.4784313725490215,-0.5019762845849831,-17.431372549019606,-11.357723577235781,18.42745098039216,-1.517928286852591,8.813430077973369,46.175271612116326,47.30801074861548,542.1135949872935,81.82933610641442,1368.980722507938,1
-20.770804568846497,-64.3110630772254,-56.84216459977452,-124.33478064224333,126.07598325211066,26.57304429783227,31.19298245614027,1.0325203252032464,-24.057268722466958,-4.482352941176469,1.5059288537549378,2.4901960784313744,-7.227642276422774,-12.450980392156861,-1.517928286852591,6.845602234558152,63.29290499619429,47.30801074861548,542.1135949872935,81.82933610641442,1368.980722507938,1
-20.770804568846497,-64.3110630772254,-56.84216459977452,-124.33478064224333,126.07598325211066,26.57304429783227,31.19298245614027,9.292682926829261,-7.27312775330396,4.482352941176472,3.5138339920948587,17.43137254901961,-3.097560975609766,7.4705882352941195,0.5059760956175285,6.6334369336181975,27.026329917200762,47.30801074861548,542.1135949872935,81.82933610641442,1368.980722507938,1
-21.37655328228945,-63.76203576341129,-56.82625579356132,-124.3807327001357,126.18058892168304,26.373546968268954,31.05372807017534,9.292682926829261,-7.27312775330396,4.482352941176472,3.5138339920948587,17.43137254901961,-3.097560975609766,7.4705882352941195,0.5059760956175285,6.6334369336181975,27.026329917200762,47.32161494642069,516.8859295142223,81.65634141903611,1381.0564687029173,1
-21.37655328228945,-63.76203576341129,-56.82625579356132,-124.3807327001357,126.18058892168304,26.373546968268954,31.05372807017534,5.162601626016254,-18.46255506607929,-3.48627450980392,4.517786561264819,1.4941176470588253,-9.769962616701378e-15,6.4745098039215705,2.529880478087648,5.265965711529042,32.684528780792974,47.32161494642069,516.8859295142223,81.65634141903611,1381.0564687029173,1
-21.37655328228945,-63.76203576341129,-56.82625579356132,-124.3807327001357,126.18058892168304,26.373546968268954,31.05372807017534,-3.0975609756097615,-22.938325991189423,-4.482352941176469,5.52173913043478,5.4784313725490215,-3.097560975609766,17.43137254901961,-0.5059760956175312,7.819165003900794,62.992128339589996,47.32161494642069,516.8859295142223,81.65634141903611,1381.0564687029173,1
-21.217145726120254,-63.961682059343694,-56.794438181134915,-124.54156490275894,126.30262886951749,26.094250706880302,30.91447368421052,-3.0975609756097615,-22.938325991189423,-4.482352941176469,5.52173913043478,5.4784313725490215,-3.097560975609766,17.43137254901961,-0.5059760956175312,7.819165003900794,62.992128339589996,47.324421988866284,524.0347515969372,81.76589504774584,1385.1607948612368,1
-21.217145726120254,-63.961682059343694,-56.794438181134915,-124.54156490275894,126.30262886951749,26.094250706880302,30.91447368421052,8.26016260162601,-5.035242290748894,-9.462745098039214,-0.5019762845849831,-14.44313725490196,-12.390243902439034,-0.49803921568627274,0.5059760956175285,6.3871903429554875,31.3766121272871,47.324421988866284,524.0347515969372,81.76589504774584,1385.1607948612368,1
-21.217145726120254,-63.961682059343694,-56.794438181134915,-124.54156490275894,126.30262886951749,26.094250706880302,30.91447368421052,4.130081300813003,-17.343612334801758,10.458823529411767,0.5019762845849773,1.4941176470588253,-9.769962616701378e-15,0.4980392156862763,2.529880478087648,4.619566348805534,37.95071571568099,47.324421988866284,524.0347515969372,81.76589504774584,1385.1607948612368,1
-20.978034391866455,-64.0115936333268,-56.92170863084054,-124.70239710538218,126.44210309561399,25.934652843229685,30.705592105263122,4.130081300813003,-17.343612334801758,10.458823529411767,0.5019762845849773,1.4941176470588253,-9.769962616701378e-15,0.4980392156862763,2.529880478087648,4.619566348805534,37.95071571568099,47.3037788853446,532.3502346890409,81.87856645651651,1387.976970919165,1
-20.978034391866455,-64.0115936333268,-56.92170863084054,-124.70239710538218,126.44210309561399,25.934652843229685,30.705592105263122,6.195121951219506,-7.27312775330396,18.42745098039216,0.5019762845849773,4.482352941176472,-10.32520325203253,1.4941176470588253,-0.5059760956175312,6.150665863173245,36.806434012258826,47.3037788853446,532.3502346890409,81.87856645651651,1387.976970919165,1
-20.978034391866455,-64.0115936333268,-56.92170863084054,-124.70239710538218,126.44210309561399,25.934652843229685,30.705592105263122,6.195121951219506,-21.819383259911888,-25.4,-1.5059288537549436,2.4901960784313744,-1.0325203252032615,-10.458823529411763,3.541832669322708,9.05547583340693,90.72549228549894,47.3037788853446,532.3502346890409,81.87856645651651,1387.976970919165,1
-20.6113970126773,-63.21300844959718,-57.16034072403858,-124.90918136589778,126.51184020866225,26.014451775054965,30.427083333333258,6.195121951219506,-21.819383259911888,-25.4,-1.5059288537549436,2.4901960784313744,-1.0325203252032615,-10.458823529411763,3.541832669322708,9.05547583340693,90.72549228549894,46.99491539543769,531.2262283390961,81.76084351317785,1405.4929912383525,1
-20.6113970126773,-63.21300844959718,-57.16034072403858,-124.90918136589778,126.51184020866225,26.014451775054965,30.427083333333258,10.325203252032514,-10.629955947136558,4.482352941176472,1.5059288537549378,2.4901960784313744,2.0650406504064946,12.450980392156865,9.613545816733065,6.695400491478535,20.17866265693292,46.99491539543769,531.2262283390961,81.76084351317785,1405.4929912383525,1
-20.6113970126773,-63.21300844959718,-57.16034072403858,-124.90918136589778,126.51184020866225,26.014451775054965,30.427083333333258,6.195121951219506,-13.986784140969158,-0.49803921568627274,-1.5059288537549436,5.4784313725490215,-13.422764227642286,-6.474509803921567,3.541832669322708,6.387926529383183,24.961193469180326,46.99491539543769,531.2262283390961,81.76084351317785,1405.4929912383525,1
-20.228818877871227,-63.412654745529586,-57.08079669297257,-125.13894165535956,126.61644587823463,26.21394910461828,29.93969298245611,6.195121951219506,-13.986784140969158,-0.49803921568627274,-1.5059288537549436,5.4784313725490215,-13.422764227642286,-6.474509803921567,3.541832669322708,6.387926529383183,24.961193469180326,46.907423438791135,543.8340625878849,81.87746436462056,1413.6896696322767,1
-20.228818877871227,-63.412654745529586,-57.08079669297257,-125.13894165535956,126.61644587823463,26.21394910461828,29.93969298245611,2.065040650406498,-22.938325991189423,-1.4941176470588218,3.5138339920948587,-7.470588235294116,-9.292682926829277,-1.4941176470588218,1.5179282868525883,6.22332942209805,54.55315923610434,46.907423438791135,543.8340625878849,81.87746436462056,1413.6896696322767,1
-20.228818877871227,-63.412654745529586,-57.08079669297257,-125.13894165535956,126.61644587823463,26.21394910461828,29.93969298245611,-1.032520325203258,-17.343612334801758,7.4705882352941195,10.541501976284582,-0.49803921568627274,-1.0325203252032615,-2.490196078431371,-1.517928286852591,5.240863347219652,36.983724945815815,46.907423438791135,543.8340625878849,81.87746436462056,1413.6896696322767,1
-20.340404167189664,-63.46256631951268,-57.2557935613178,-125.29977385798281,126.68618299128286,26.453345900094234,29.382675438596493,-1.032520325203258,-17.343612334801758,7.4705882352941195,10.541501976284582,-0.49803921568627274,-1.0325203252032615,-2.490196078431371,-1.517928286852591,5.240863347219652,36.983724945815815,47.019588016006715,543.465145147203,82.00604457960443,1415.3912531401058,1
-20.340404167189664,-63.46256631951268,-57.2557935613178,-125.29977385798281,126.68618299128286,26.453345900094234,29.382675438596493,4.130081300813003,-25.17621145374449,-37.35294117647059,-3.513833992094865,0.4980392156862763,-3.097560975609766,-2.490196078431371,2.529880478087648,9.84859308386725,186.42492164564243,47.019588016006715,543.465145147203,82.00604457960443,1415.3912531401058,1
-20.340404167189664,-63.46256631951268,-57.2557935613178,-125.29977385798281,126.68618299128286,26.453345900094234,29.382675438596493,5.162601626016254,-6.154185022026427,2.4901960784313744,-0.5019762845849831,13.447058823529414,-2.0650406504065137,-0.49803921568627274,3.541832669322708,4.232616296250493,17.934226493207643,47.019588016006715,543.465145147203,82.00604457960443,1415.3912531401058,1
-21.249027237354092,-62.86362743171548,-57.2398847551046,-125.29977385798281,126.72105154780701,26.53314483191957,29.173793859649095,5.162601626016254,-6.154185022026427,2.4901960784313744,-0.5019762845849831,13.447058823529414,-2.0650406504065137,-0.49803921568627274,3.541832669322708,4.232616296250493,17.934226493207643,47.117513141391385,509.7905426487159,81.80109534826762,1427.0078944918519,1
-21.249027237354092,-62.86362743171548,-57.2398847551046,-125.29977385798281,126.72105154780701,26.53314483191957,29.173793859649095,3.0975609756097504,-18.46255506607929,2.4901960784313744,-4.517786561264825,-1.4941176470588218,-9.292682926829277,-12.450980392156861,-1.517928286852591,6.665475991785349,38.22301377757346,47.117513141391385,509.7905426487159,81.80109534826762,1427.0078944918519,1
-21.249027237354092,-62.86362743171548,-57.2398847551046,-125.29977385798281,126.72105154780701,26.53314483191957,29.173793859649095,-3.0975609756097615,-24.057268722466958,5.4784313725490215,2.5098814229248982,1.4941176470588253,-9.769962616701378e-15,1.4941176470588253,3.541832669322708,5.209151307123876,60.65529606619772,47.117513141391385,509.7905426487159,81.80109534826762,1427.0078944918519,1
-21.48813857160789,-62.913539005698574,-57.31942878617061,-125.27679782903664,126.72105154780701,26.453345900094234,29.24342105263156,-3.0975609756097615,-24.057268722466958,5.4784313725490215,2.5098814229248982,1.4941176470588253,-9.769962616701378e-15,1.4941176470588253,3.541832669322708,5.209151307123876,60.65529606619772,47.240368787825695,505.2065381188676,81.83658854030195,1423.112354573861,1
-21.48813857160789,-62.913539005698574,-57.31942878617061,-125.27679782903664,126.72105154780701,26.453345900094234,29.24342105263156,6.195121951219506,-16.224669603524223,-7.470588235294116,4.517786561264819,6.4745098039215705,-1.0325203252032615,1.4941176470588253,7.589641434262947,6.374869445218659,22.221180035253262,47.240368787825695,505.2065381188676,81.83658854030195,1423.112354573861,1
-21.48813857160789,-62.913539005698574,-57.31942878617061,-125.27679782903664,126.72105154780701,26.453345900094234,29.24342105263156,5.162601626016254,-21.819383259911888,-4.482352941176469,1.5059288537549378,-5.478431372549018,-5.1626016260162695,14.443137254901963,1.5179282868525883,7.446545652647424,49.866128519807894,47.240368787825695,505.2065381188676,81.83658854030195,1423.112354573861,1
-21.009915903100296,-63.362743171546484,-57.35124639859702,-125.34572591587516,126.7733543825932,26.49324536600693,29.034539473684163,5.162601626016254,-21.819383259911888,-4.482352941176469,1.5059288537549378,-5.478431372549018,-5.1626016260162695,14.443137254901963,1.5179282868525883,7.446545652647424,49.866128519807894,47.2413018244146,525.0987288774901,82.01990516200622,1416.8795813600811,1
-21.009915903100296,-63.362743171546484,-57.35124639859702,-125.34572591587516,126.7733543825932,26.49324536600693,29.034539473684163,2.065040650406498,-25.17621145374449,-15.439215686274508,-7.529644268774707,-23.4078431372549,-10.32520325203253,-5.478431372549018,-1.517928286852591,11.367439763486155,83.75367211186641,47.2413018244146,525.0987288774901,82.01990516200622,1416.8795813600811,1
-21.009915903100296,-63.362743171546484,-57.35124639859702,-125.34572591587516,126.7733543825932,26.49324536600693,29.034539473684163,3.0975609756097504,-15.105726872246692,-7.470588235294116,-7.529644268774707,-2.490196078431371,-1.0325203252032615,-5.478431372549018,-1.517928286852591,5.465324551870188,21.5584873418131,47.2413018244146,525.0987288774901,82.01990516200622,1416.8795813600811,1
-20.834567591314176,-63.31283159756338,-57.335337592383816,-125.4146540027137,126.82565721737939,26.65284322965755,28.686403508771832,3.0975609756097504,-15.105726872246692,-7.470588235294116,-7.529644268774707,-2.490196078431371,-1.0325203252032615,-5.478431372549018,-1.517928286852591,5.465324551870188,21.5584873418131,47.16091226042045,528.739926372925,82.0209410642203,1421.1933505867669,1
-20.834567591314176,-63.31283159756338,-57.335337592383816,-125.4146540027137,126.82565721737939,26.65284322965755,28.686403508771832,7.227642276422758,-19.581497797356825,-12.450980392156861,-1.5059288537549436,7.4705882352941195,-3.097560975609766,1.4941176470588253,6.577689243027887,7.425750677585247,37.53391059957723,47.16091226042045,528.739926372925,82.0209410642203,1421.1933505867669,1
-20.834567591314176,-63.31283159756338,-57.335337592383816,-125.4146540027137,126.82565721737939,26.65284322965755,28.686403508771832,9.292682926829261,-9.511013215859027,7.4705882352941195,1.5059288537549378,-1.4941176470588218,-3.097560975609766,-1.4941176470588218,5.565737051792827,4.928968319157198,12.224299592642609,47.16091226042045,528.739926372925,82.0209410642203,1421.1933505867669,1
-21.61566461654325,-62.663981135783075,-57.430790429663034,-125.34572591587516,126.80822293911731,26.61294376374491,28.686403508771832,9.292682926829261,-9.511013215859027,7.4705882352941195,1.5059288537549378,-1.4941176470588218,-3.097560975609766,-1.4941176470588218,5.565737051792827,4.928968319157198,12.224299592642609,47.23681206066312,499.1789685066529,81.81349916044043,1428.1376459565965,1
-21.61566461654325,-62.663981135783075,-57.430790429663034,-125.34572591587516,126.80822293911731,26.61294376374491,28.686403508771832,6.195121951219506,2.7973568281938377,34.36470588235294,3.5138339920948587,-16.435294117647057,-9.292682926829277,-5.478431372549018,8.601593625498007,10.834877587048062,108.68595346041467,47.23681206066312,499.1789685066529,81.81349916044043,1428.1376459565965,1
-21.61566461654325,-62.663981135783075,-57.430790429663034,-125.34572591587516,126.80822293911731,26.61294376374491,28.686403508771832,8.26016260162601,-25.17621145374449,-37.35294117647059,-4.517786561264825,4.482352941176472,-1.0325203252032615,-10.458823529411763,-1.517928286852591,11.59984085946875,167.73181965851472,47.23681206066312,499.1789685066529,81.81349916044043,1428.1376459565965,1
-21.583783105309408,-63.16309687561408,-57.38306401102343,-125.32274988692899,126.84309149564143,26.53314483191957,28.61677631578948,8.26016260162601,-25.17621145374449,-37.35294117647059,-4.517786561264825,4.482352941176472,-1.0325203252032615,-10.458823529411763,-1.517928286852591,11.59984085946875,167.73181965851472,47.376647997315644,507.3061044819027,81.95630359118884,1418.8386932199232,1
-21.583783105309408,-63.16309687561408,-57.38306401102343,-125.32274988692899,126.84309149564143,26.53314483191957,28.61677631578948,-2.0650406504065097,-25.17621145374449,-4.482352941176469,1.5059288537549378,6.4745098039215705,-1.0325203252032615,6.4745098039215705,-3.5418326693227105,6.34411331268144,62.27605244882703,47.376647997315644,507.3061044819027,81.95630359118884,1418.8386932199232,1
-21.583783105309408,-63.16309687561408,-57.38306401102343,-125.32274988692899,126.84309149564143,26.53314483191957,28.61677631578948,-5.162601626016265,-20.700440528634356,11.454901960784316,5.52173913043478,-2.490196078431371,-5.1626016260162695,-6.474509803921567,-0.5059760956175312,7.184120856232057,39.857308119576416,47.376647997315644,507.3061044819027,81.95630359118884,1418.8386932199232,1
-21.40843479352329,-63.46256631951268,-57.54215207315546,-125.32274988692899,126.8605257739035,26.53314483191957,28.547149122807014,-5.162601626016265,-20.700440528634356,11.454901960784316,5.52173913043478,-2.490196078431371,-5.1626016260162695,-6.474509803921567,-0.5059760956175312,7.184120856232057,39.857308119576416,47.471051062063815,518.207801283012,82.10915609319905,1409.323842639239,1
-21.40843479352329,-63.46256631951268,-57.54215207315546,-125.32274988692899,126.8605257739035,26.53314483191957,28.547149122807014,15.487804878048774,11.7488986784141,-0.49803921568627274,-1.5059288537549436,19.423529411764708,-9.769962616701378e-15,5.4784313725490215,6.577689243027887,7.590040206655715,52.87251472159219,47.471051062063815,518.207801283012,82.10915609319905,1409.323842639239,1
-21.40843479352329,-63.46256631951268,-57.54215207315546,-125.32274988692899,126.8605257739035,26.53314483191957,28.547149122807014,4.130081300813003,-17.343612334801758,5.4784313725490215,-0.5019762845849831,9.462745098039218,-10.32520325203253,6.4745098039215705,2.529880478087648,7.030804990603716,28.162691394110986,47.471051062063815,518.207801283012,82.10915609319905,1409.323842639239,1
-21.31279025982177,-63.512477893495785,-57.65351371664788,-125.32274988692899,126.8605257739035,26.57304429783227,28.477521929824547,4.130081300813003,-17.343612334801758,5.4784313725490215,-0.5019762845849831,9.462745098039218,-10.32520325203253,6.4745098039215705,2.529880478087648,7.030804990603716,28.162691394110986,47.49292728998847,522.6315464951264,82.16291383235755,1405.6604514995101,1
-21.31279025982177,-63.512477893495785,-57.65351371664788,-125.32274988692899,126.8605257739035,26.57304429783227,28.477521929824547,-1.032520325203258,-25.17621145374449,2.4901960784313744,8.53359683794466,-7.470588235294116,-12.390243902439034,-10.458823529411763,-3.5418326693227105,8.886751628973926,59.05651965525181,47.49292728998847,522.6315464951264,82.16291383235755,1405.6604514995101,1
-21.31279025982177,-63.512477893495785,-57.65351371664788,-125.32274988692899,126.8605257739035,26.57304429783227,28.477521929824547,-2.0650406504065097,-19.581497797356825,-2.490196078431371,2.5098814229248982,-2.490196078431371,-1.0325203252032615,0.4980392156862763,0.5059760956175285,3.8966684580072553,40.928437024223065,47.49292728998847,522.6315464951264,82.16291383235755,1405.6604514995101,1
-21.29684950420485,-63.71212418942819,-57.52624326694225,-125.32274988692899,126.87796005216558,26.61294376374491,28.40789473684208,-2.0650406504065097,-19.581497797356825,-2.490196078431371,2.5098814229248982,-2.490196078431371,-1.0325203252032615,0.4980392156862763,0.5059760956175285,3.8966684580072553,40.928437024223065,47.51173898685843,524.9816036375998,82.18703911443315,1405.0834385831045,1
-21.29684950420485,-63.71212418942819,-57.52624326694225,-125.32274988692899,126.87796005216558,26.61294376374491,28.40789473684208,1.0325203252032464,-24.057268722466958,-3.48627450980392,3.5138339920948587,1.4941176470588253,-1.0325203252032615,1.4941176470588253,4.5537848605577675,5.083054753680957,60.55538296028774,47.51173898685843,524.9816036375998,82.18703911443315,1405.0834385831045,1
-21.29684950420485,-63.71212418942819,-57.52624326694225,-125.32274988692899,126.87796005216558,26.61294376374491,28.40789473684208,10.325203252032514,-26.29515418502202,-7.470588235294116,1.5059288537549378,0.4980392156862763,-5.1626016260162695,0.4980392156862763,3.541832669322708,6.91217340660189,73.37006525820367,47.51173898685843,524.9816036375998,82.18703911443315,1405.0834385831045,1
-21.47219781599097,-63.31283159756338,-57.44669923587624,-125.29977385798281,126.87796005216558,26.61294376374491,28.40789473684208,10.325203252032514,-26.29515418502202,-7.470588235294116,1.5059288537549378,0.4980392156862763,-5.1626016260162695,0.4980392156862763,3.541832669322708,6.91217340660189,73.37006525820367,47.41057621647686,513.2024827563032,82.01976823047414,1413.472042559095,1
-21.47219781599097,-63.31283159756338,-57.44669923587624,-125.29977385798281,126.87796005216558,26.61294376374491,28.40789473684208,6.195121951219506,-31.88986784140969,-21.415686274509802,-0.5019762845849831,11.454901960784316,-5.1626016260162695,8.466666666666669,2.529880478087648,10.95208788540986,112.94184964165989,47.41057621647686,513.2024827563032,82.01976823047414,1413.472042559095,1
-21.47219781599097,-63.31283159756338,-57.44669923587624,-125.29977385798281,126.87796005216558,26.61294376374491,28.40789473684208,6.195121951219506,-2.797356828193827,18.42745098039216,-0.5019762845849831,-9.462745098039214,-8.260162601626025,-6.474509803921567,0.5059760956175285,6.578162455449351,34.257002960525405,47.41057621647686,513.2024827563032,82.01976823047414,1413.472042559095,1
-21.53596083845865,-63.26292002358028,-57.49442565451585,-125.29977385798281,126.87796005216558,26.65284322965755,28.338267543859615,6.195121951219506,-2.797356828193827,18.42745098039216,-0.5019762845849831,-9.462745098039214,-8.260162601626025,-6.474509803921567,0.5059760956175285,6.578162455449351,34.257002960525405,47.43110217218492,511.2376403417263,82.01903984535964,1413.2353343250588,1
-21.53596083845865,-63.26292002358028,-57.49442565451585,-125.29977385798281,126.87796005216558,26.65284322965755,28.338267543859615,14.455284552845523,-3.9162995594713603,21.415686274509806,6.5256916996047405,9.462745098039218,1.032520325203242,3.4862745098039234,5.565737051792827,8.232529883908828,45.29338858485479,47.43110217218492,511.2376403417263,82.01903984535964,1413.2353343250588,1
-21.53596083845865,-63.26292002358028,-57.49442565451585,-125.29977385798281,126.87796005216558,26.65284322965755,28.338267543859615,12.390243902439018,-9.511013215859027,6.4745098039215705,1.5059288537549378,-9.462745098039214,-5.1626016260162695,0.4980392156862763,-0.5059760956175312,5.68888222641673,20.851088941229698,47.43110217218492,511.2376403417263,82.01903984535964,1413.2353343250588,1
-21.583783105309408,-63.46256631951268,-57.49442565451585,-125.27679782903664,126.87796005216558,26.692742695570246,28.26864035087715,12.390243902439018,-9.511013215859027,6.4745098039215705,1.5059288537549378,-9.462745098039214,-5.1626016260162695,0.4980392156862763,-0.5059760956175312,5.68888222641673,20.851088941229698,47.51359169311265,513.1709057993833,82.07792993435505,1408.5113162859107,1
-21.583783105309408,-63.46256631951268,-57.49442565451585,-125.27679782903664,126.87796005216558,26.692742695570246,28.26864035087715,5.162601626016254,-24.057268722466958,-8.466666666666665,-0.5019762845849831,3.4862745098039234,-9.769962616701378e-15,10.458823529411767,-3.5418326693227105,6.959430501034159,60.56533623049053,47.51359169311265,513.1709057993833,82.07792993435505,1408.5113162859107,1
-21.583783105309408,-63.46256631951268,-57.49442565451585,-125.27679782903664,126.87796005216558,26.692742695570246,28.26864035087715,9.292682926829261,1.6784140969163062,-15.439215686274508,-5.521739130434785,-4.482352941176469,-10.32520325203253,-7.470588235294116,1.5179282868525883,6.966015569476321,22.091733646871067,47.51359169311265,513.1709057993833,82.07792993435505,1408.5113162859107,1
-21.504079327224808,-63.71212418942819,-57.49442565451585,-125.27679782903664,126.87796005216558,26.692742695570246,28.26864035087715,9.292682926829261,1.6784140969163062,-15.439215686274508,-5.521739130434785,-4.482352941176469,-10.32520325203253,-7.470588235294116,1.5179282868525883,6.966015569476321,22.091733646871067,47.57020972372295,519.2473091531959,82.16111589099356,1403.8864655046336,1
-21.504079327224808,-63.71212418942819,-57.49442565451585,-125.27679782903664,126.87796005216558,26.692742695570246,28.26864035087715,-6.195121951219518,-24.057268722466958,9.462745098039218,-3.513833992094865,-4.482352941176469,-11.357723577235781,-12.450980392156861,0.5059760956175285,9.0032503462509,53.560921627597395,47.57020972372295,519.2473091531959,82.16111589099356,1403.8864655046336,1
-21.504079327224808,-63.71212418942819,-57.49442565451585,-125.27679782903664,126.87796005216558,26.692742695570246,28.26864035087715,-1.032520325203258,-28.533039647577088,-5.478431372549018,0.5019762845849773,4.482352941176472,-1.0325203252032615,6.4745098039215705,1.5179282868525883,6.13165987338353,87.15265534566002,47.57020972372295,519.2473091531959,82.16111589099356,1403.8864655046336,1
-21.759131417095524,-63.412654745529586,-57.637604910434675,-125.13894165535956,126.89539433042762,26.65284322965755,28.129385964912217,-1.032520325203258,-28.533039647577088,-5.478431372549018,0.5019762845849773,4.482352941176472,-1.0325203252032615,6.4745098039215705,1.5179282868525883,6.13165987338353,87.15265534566002,47.60313035768659,509.27201108041174,82.0630671037746,1399.9860264373706,1
-21.759131417095524,-63.412654745529586,-57.637604910434675,-125.13894165535956,126.89539433042762,26.65284322965755,28.129385964912217,-5.329070518200751e-15,-11.748898678414093,-10.458823529411763,5.52173913043478,9.462745098039218,7.227642276422754,5.4784313725490215,4.5537848605577675,6.806508118228675,14.259616459694644,47.60313035768659,509.27201108041174,82.0630671037746,1399.9860264373706,1
-21.759131417095524,-63.412654745529586,-57.637604910434675,-125.13894165535956,126.89539433042762,26.65284322965755,28.129385964912217,10.325203252032514,-12.867841409691625,-5.478431372549018,-1.5059288537549436,-13.44705882352941,-15.48780487804879,-16.435294117647057,2.529880478087648,9.759680398167625,34.23942626756918,47.60313035768659,509.27201108041174,82.0630671037746,1399.9860264373706,1
-22.15765030751852,-62.96345057968168,-57.58987849179507,-124.97810945273632,126.87796005216558,26.53314483191957,28.26864035087715,10.325203252032514,-12.867841409691625,-5.478431372549018,-1.5059288537549436,-13.44705882352941,-15.48780487804879,-16.435294117647057,2.529880478087648,9.759680398167625,34.23942626756918,47.57032645966509,491.57190115633773,81.84381284140436,1402.6444773617015,1
-22.15765030751852,-62.96345057968168,-57.58987849179507,-124.97810945273632,126.87796005216558,26.53314483191957,28.26864035087715,18.58536585365853,3.916299559471369,15.439215686274512,2.5098814229248982,-3.48627450980392,-9.292682926829277,-1.4941176470588218,3.541832669322708,7.2832087844180045,42.04944321084843,47.57032645966509,491.57190115633773,81.84381284140436,1402.6444773617015,1
-22.15765030751852,-62.96345057968168,-57.58987849179507,-124.97810945273632,126.87796005216558,26.53314483191957,28.26864035087715,11.357723577235767,-24.057268722466958,-20.419607843137253,1.5059288537549378,6.4745098039215705,-9.769962616701378e-15,4.482352941176472,9.613545816733065,9.738867194803253,74.66357482551771,47.57032645966509,491.57190115633773,81.84381284140436,1402.6444773617015,1
-21.934479728881644,-63.362743171546484,-57.55806087936866,-124.86322930800543,126.89539433042762,26.373546968268954,28.26864035087715,11.357723577235767,-24.057268722466958,-20.419607843137253,1.5059288537549378,6.4745098039215705,-9.769962616701378e-15,4.482352941176472,9.613545816733065,9.738867194803253,74.66357482551771,47.61842792659893,503.1724803955494,81.92801111964019,1390.9983047901774,1
-21.934479728881644,-63.362743171546484,-57.55806087936866,-124.86322930800543,126.89539433042762,26.373546968268954,28.26864035087715,-5.162601626016265,-20.700440528634356,-18.427450980392155,-3.513833992094865,-2.490196078431371,-8.260162601626025,-6.474509803921567,-9.613545816733069,9.330342678481209,45.6296028128523,47.61842792659893,503.1724803955494,81.92801111964019,1390.9983047901774,1
-21.934479728881644,-63.362743171546484,-57.55806087936866,-124.86322930800543,126.89539433042762,26.373546968268954,28.26864035087715,8.26016260162601,8.392070484581502,20.419607843137257,6.5256916996047405,0.4980392156862763,-2.0650406504065137,4.482352941176472,3.541832669322708,6.773099763192685,38.335947018135585,47.61842792659893,503.1724803955494,81.92801111964019,1390.9983047901774,1
-21.806953683946286,-63.31283159756338,-57.54215207315546,-124.7943012211669,126.93026288695177,26.293748036443617,28.129385964912217,8.26016260162601,8.392070484581502,20.419607843137257,6.5256916996047405,0.4980392156862763,-2.0650406504065137,4.482352941176472,3.541832669322708,6.773099763192685,38.335947018135585,47.55397911822171,505.50717457827426,81.88309496396191,1389.3539023796468,1
-21.806953683946286,-63.31283159756338,-57.54215207315546,-124.7943012211669,126.93026288695177,26.293748036443617,28.129385964912217,-5.162601626016265,-39.72246696035242,0.4980392156862763,-0.5019762845849831,11.454901960784316,-7.227642276422774,-15.439215686274508,0.5059760956175285,10.064102513217385,173.8309385238929,47.55397911822171,505.50717457827426,81.88309496396191,1389.3539023796468,1
-21.806953683946286,-63.31283159756338,-57.54215207315546,-124.7943012211669,126.93026288695177,26.293748036443617,28.129385964912217,-1.032520325203258,-24.057268722466958,-10.458823529411763,-9.537549407114627,-34.364705882352936,-8.260162601626025,3.4862745098039234,0.5059760956175285,11.462910134199628,141.5081519020787,47.55397911822171,505.50717457827426,81.88309496396191,1389.3539023796468,1
-21.886657462030886,-63.16309687561408,-57.44669923587624,-124.70239710538218,126.96513144347588,26.17404963870564,28.129385964912217,-1.032520325203258,-24.057268722466958,-10.458823529411763,-9.537549407114627,-34.364705882352936,-8.260162601626025,3.4862745098039234,0.5059760956175285,11.462910134199628,141.5081519020787,47.4988178578404,500.1563705994052,81.77073107229084,1390.5152617765668,1
-21.886657462030886,-63.16309687561408,-57.44669923587624,-124.70239710538218,126.96513144347588,26.17404963870564,28.129385964912217,5.162601626016254,-13.986784140969158,-4.482352941176469,3.5138339920948587,-10.458823529411763,-5.1626016260162695,6.4745098039215705,1.5179282868525883,6.344929493307366,16.131269974482855,47.4988178578404,500.1563705994052,81.77073107229084,1390.5152617765668,1
-21.886657462030886,-63.16309687561408,-57.44669923587624,-124.70239710538218,126.96513144347588,26.17404963870564,28.129385964912217,-5.329070518200751e-15,-19.581497797356825,-5.478431372549018,8.53359683794466,6.4745098039215705,-9.769962616701378e-15,10.458823529411767,2.529880478087648,6.632092477408939,41.72855690097536,47.4988178578404,500.1563705994052,81.77073107229084,1390.5152617765668,1
-21.966361240115482,-63.16309687561408,-57.54215207315546,-124.5875169606513,126.98256572173796,26.054351240967662,28.129385964912217,-5.329070518200751e-15,-19.581497797356825,-5.478431372549018,8.53359683794466,6.4745098039215705,-9.769962616701378e-15,10.458823529411767,2.529880478087648,6.632092477408939,41.72855690097536,47.557203396295,499.067156814943,81.76425530314027,1383.2725593588118,1
-21.966361240115482,-63.16309687561408,-57.54215207315546,-124.5875169606513,126.98256572173796,26.054351240967662,28.129385964912217,8.26016260162601,-12.867841409691625,1.4941176470588253,-0.5019762845849831,13.447058823529414,1.032520325203242,8.466666666666669,2.529880478087648,6.0750280295560515,28.717500129707414,47.557203396295,499.067156814943,81.76425530314027,1383.2725593588118,1
-21.966361240115482,-63.16309687561408,-57.54215207315546,-124.5875169606513,126.98256572173796,26.054351240967662,28.129385964912217,-5.329070518200751e-15,-29.65198237885462,-17.431372549019606,-4.517786561264825,-7.470588235294116,-12.390243902439034,-6.474509803921567,-5.56573705179283,10.437777560323324,87.73573411935278,47.557203396295,499.067156814943,81.76425530314027,1383.2725593588118,1
-21.966361240115482,-62.913539005698574,-57.367155204810224,-124.51858887381276,127.0,25.854853911404348,28.199013157894683,-5.329070518200751e-15,-29.65198237885462,-17.431372549019606,-4.517786561264825,-7.470588235294116,-12.390243902439034,-6.474509803921567,-5.56573705179283,10.437777560323324,87.73573411935278,47.4156851502081,493.44165892729785,81.59976102810718,1389.2099310536735,1
-21.966361240115482,-62.913539005698574,-57.367155204810224,-124.51858887381276,127.0,25.854853911404348,28.199013157894683,11.357723577235767,-19.581497797356825,14.443137254901963,1.5059288537549378,-3.48627450980392,-9.769962616701378e-15,0.4980392156862763,9.613545816733065,7.560768378184095,52.972234965914765,47.4156851502081,493.44165892729785,81.59976102810718,1389.2099310536735,1
-21.966361240115482,-62.913539005698574,-57.367155204810224,-124.51858887381276,127.0,25.854853911404348,28.199013157894683,3.0975609756097504,-17.343612334801758,32.372549019607845,9.537549407114621,19.423529411764708,5.162601626016251,12.450980392156865,0.5059760956175285,12.486794907836167,108.74157855264475,47.4156851502081,493.44165892729785,81.59976102810718,1389.2099310536735,1
-22.077946529433923,-62.51424641383377,-57.38306401102343,-124.42668475802805,127.0,25.615457115928393,28.40789473684208,3.0975609756097504,-17.343612334801758,32.372549019607845,9.537549407114621,19.423529411764708,5.162601626016251,12.450980392156865,0.5059760956175285,12.486794907836167,108.74157855264475,47.32508565143038,484.64578359681036,81.44133172762842,1392.3876895737926,1
-22.077946529433923,-62.51424641383377,-57.38306401102343,-124.42668475802805,127.0,25.615457115928393,28.40789473684208,1.0325203252032464,-20.700440528634356,0.4980392156862763,-0.5019762845849831,-29.384313725490195,-16.520325203252042,-19.423529411764704,-2.5298804780876507,11.323878146587933,132.0379224720418,47.32508565143038,484.64578359681036,81.44133172762842,1392.3876895737926,1
-22.077946529433923,-62.51424641383377,-57.38306401102343,-124.42668475802805,127.0,25.615457115928393,28.40789473684208,-3.0975609756097615,-20.700440528634356,-1.4941176470588218,-4.517786561264825,-1.4941176470588218,-7.227642276422774,-9.462745098039214,-2.5298804780876507,6.315536401522028,41.724706452144005,47.32508565143038,484.64578359681036,81.44133172762842,1392.3876895737926,1
-21.982301995732403,-62.56415798781687,-57.38306401102343,-124.3807327001357,127.0,25.45585925227772,28.547149122807014,-3.0975609756097615,-20.700440528634356,-1.4941176470588218,-4.517786561264825,-1.4941176470588218,-7.227642276422774,-9.462745098039214,-2.5298804780876507,6.315536401522028,41.724706452144005,47.30984133152423,487.82412030365316,81.44265156632534,1389.4700422893525,1
-21.982301995732403,-62.56415798781687,-57.38306401102343,-124.3807327001357,127.0,25.45585925227772,28.547149122807014,12.390243902439018,11.7488986784141,17.43137254901961,2.5098814229248982,10.458823529411767,1.032520325203242,11.454901960784316,7.589641434262947,9.327035475307486,29.289830804209593,47.30984133152423,487.82412030365316,81.44265156632534,1389.4700422893525,1
-21.982301995732403,-62.56415798781687,-57.38306401102343,-124.3807327001357,127.0,25.45585925227772,28.547149122807014,2.065040650406498,-13.986784140969158,-1.4941176470588218,2.5098814229248982,7.4705882352941195,-3.097560975609766,-8.466666666666665,1.5179282868525883,5.076071003222815,20.241080637660726,47.30984133152423,487.82412030365316,81.44265156632534,1389.4700422893525,1
-21.934479728881644,-62.51424641383377,-57.51033446072905,-124.31180461329716,126.98256572173796,25.2962613886271,28.756030701754298,2.065040650406498,-13.986784140969158,-1.4941176470588218,2.5098814229248982,7.4705882352941195,-3.097560975609766,-8.466666666666665,1.5179282868525883,5.076071003222815,20.241080637660726,47.31968686781482,489.566339823514,81.44546182928666,1384.4022914658228,1
-21.934479728881644,-62.51424641383377,-57.51033446072905,-124.31180461329716,126.98256572173796,25.2962613886271,28.756030701754298,6.195121951219506,-6.154185022026427,-8.466666666666665,1.5059288537549378,2.4901960784313744,-4.130081300813018,1.4941176470588253,4.5537848605577675,4.373760297566065,6.199364924024112,47.31968686781482,489.566339823514,81.44546182928666,1384.4022914658228,1
-21.934479728881644,-62.51424641383377,-57.51033446072905,-124.31180461329716,126.98256572173796,25.2962613886271,28.756030701754298,10.325203252032514,-21.819383259911888,2.4901960784313744,0.5019762845849773,-10.458823529411763,-6.195121951219521,4.482352941176472,0.5059760956175285,7.097379174048255,50.6114372749692,47.31968686781482,489.566339823514,81.44546182928666,1384.4022914658228,1
-21.727249905861687,-62.41442326586757,-57.573969685581865,-124.26585255540479,126.98256572173796,25.256361922714404,28.756030701754298,10.325203252032514,-21.819383259911888,2.4901960784313744,0.5019762845849773,-10.458823529411763,-6.195121951219521,4.482352941176472,0.5059760956175285,7.097379174048255,50.6114372749692,47.238547619103706,493.97723097597583,81.41808183561807,1382.806089457284,1
-21.727249905861687,-62.41442326586757,-57.573969685581865,-124.26585255540479,126.98256572173796,25.256361922714404,28.756030701754298,4.130081300813003,-18.46255506607929,-1.4941176470588218,0.5019762845849773,-8.466666666666665,-7.227642276422774,-3.48627450980392,0.5059760956175285,5.534411230880872,35.95765665147058,47.238547619103706,493.97723097597583,81.41808183561807,1382.806089457284,1
-21.727249905861687,-62.41442326586757,-57.573969685581865,-124.26585255540479,126.98256572173796,25.256361922714404,28.756030701754298,-5.329070518200751e-15,-21.819383259911888,-9.462745098039214,3.5138339920948587,10.458823529411767,-9.769962616701378e-15,2.4901960784313744,3.541832669322708,6.410851828401478,53.90236220250497,47.238547619103706,493.97723097597583,81.41808183561807,1382.806089457284,1
-21.966361240115482,-62.663981135783075,-57.55806087936866,-124.15097241067392,126.98256572173796,25.176562990889124,28.825657894736764,-5.329070518200751e-15,-21.819383259911888,-9.462745098039214,3.5138339920948587,10.458823529411767,-9.769962616701378e-15,2.4901960784313744,3.541832669322708,6.410851828401478,53.90236220250497,47.396134418422406,491.52262834131943,81.45767147527522,1373.5560639866023,1
-21.966361240115482,-62.663981135783075,-57.55806087936866,-124.15097241067392,126.98256572173796,25.176562990889124,28.825657894736764,-5.329070518200751e-15,-20.700440528634356,-10.458823529411763,-3.513833992094865,2.4901960784313744,-6.195121951219521,0.4980392156862763,-0.5059760956175312,5.545303923886961,49.90339421798741,47.396134418422406,491.52262834131943,81.45767147527522,1373.5560639866023,1
-21.966361240115482,-62.663981135783075,-57.55806087936866,-124.15097241067392,126.98256572173796,25.176562990889124,28.825657894736764,14.455284552845523,2.7973568281938377,-1.4941176470588218,-2.509881422924904,-17.431372549019606,-8.260162601626025,-5.478431372549018,5.565737051792827,7.2490430032513204,33.999575386560316,47.396134418422406,491.52262834131943,81.45767147527522,1373.5560639866023,1
-21.966361240115482,-62.51424641383377,-57.52624326694225,-124.01311623699684,126.93026288695177,25.01696512723845,29.173793859649095,14.455284552845523,2.7973568281938377,-1.4941176470588218,-2.509881422924904,-17.431372549019606,-8.260162601626025,-5.478431372549018,5.565737051792827,7.2490430032513204,33.999575386560316,47.3356169736305,488.91939620271336,81.35120197259096,1371.2492403759888,1
-21.966361240115482,-62.51424641383377,-57.52624326694225,-124.01311623699684,126.93026288695177,25.01696512723845,29.173793859649095,-2.0650406504065097,-25.17621145374449,-13.44705882352941,-0.5019762845849831,7.4705882352941195,-5.1626016260162695,1.4941176470588253,-2.5298804780876507,7.230934399840281,70.2835593991152,47.3356169736305,488.91939620271336,81.35120197259096,1371.2492403759888,1
-21.966361240115482,-62.51424641383377,-57.52624326694225,-124.01311623699684,126.93026288695177,25.01696512723845,29.173793859649095,6.195121951219506,-13.986784140969158,8.466666666666669,-0.5019762845849831,8.466666666666669,-7.227642276422774,-1.4941176470588218,9.613545816733065,6.994065181290206,19.026631026321006,47.3356169736305,488.91939620271336,81.35120197259096,1371.2492403759888,1
-22.046065018200082,-62.26468854391827,-57.47851684830265,-123.89823609226595,126.89539433042762,24.857367263587832,29.382675438596493,6.195121951219506,-13.986784140969158,8.466666666666669,-0.5019762845849831,8.466666666666669,-7.227642276422774,-1.4941176470588218,9.613545816733065,6.994065181290206,19.026631026321006,47.263090136807,482.65062674931715,81.21381382816229,1372.1967878902092,1
-22.046065018200082,-62.26468854391827,-57.47851684830265,-123.89823609226595,126.89539433042762,24.857367263587832,29.382675438596493,5.162601626016254,-20.700440528634356,22.411764705882355,-0.5019762845849831,-3.48627450980392,-6.195121951219521,-0.49803921568627274,1.5179282868525883,7.559268388585031,79.09219396826927,47.263090136807,482.65062674931715,81.21381382816229,1372.1967878902092,1
-22.046065018200082,-62.26468854391827,-57.47851684830265,-123.89823609226595,126.89539433042762,24.857367263587832,29.382675438596493,-1.032520325203258,-15.105726872246692,0.4980392156862763,2.5098814229248982,10.458823529411767,-9.769962616701378e-15,2.4901960784313744,-2.5298804780876507,4.328133490248991,29.703296523554354,47.263090136807,482.65062674931715,81.21381382816229,1372.1967878902092,1
-22.15765030751852,-62.364511691884466,-57.55806087936866,-123.76037991858888,126.8605257739035,24.697769399937158,29.661184210526244,-1.032520325203258,-15.105726872246692,0.4980392156862763,2.5098814229248982,10.458823529411767,-9.769962616701378e-15,2.4901960784313744,-2.5298804780876507,4.328133490248991,29.703296523554354,47.36007429292388,482.14712340838514,81.22765082994734,1362.5502751491144,1
-22.15765030751852,-62.364511691884466,-57.55806087936866,-123.76037991858888,126.8605257739035,24.697769399937158,29.661184210526244,12.390243902439018,-11.748898678414093,-5.478431372549018,1.5059288537549378,-2.490196078431371,1.032520325203242,7.4705882352941195,6.577689243027887,6.0868120861392105,19.112057749751166,47.36007429292388,482.14712340838514,81.22765082994734,1362.5502751491144,1
-22.15765030751852,-62.364511691884466,-57.55806087936866,-123.76037991858888,126.8605257739035,24.697769399937158,29.661184210526244,4.130081300813003,-2.797356828193827,28.38823529411765,6.5256916996047405,12.450980392156865,-3.097560975609766,-2.490196078431371,0.5059760956175285,7.548259833068094,84.08977214711976,47.36007429292388,482.14712340838514,81.22765082994734,1362.5502751491144,1
-22.12576879628468,-62.46433483985067,-57.55806087936866,-123.64549977385798,126.82565721737939,24.53817153628654,29.870065789473642,4.130081300813003,-2.797356828193827,28.38823529411765,6.5256916996047405,12.450980392156865,-3.097560975609766,-2.490196078431371,0.5059760956175285,7.548259833068094,84.08977214711976,47.38272150516801,484.4531261479024,81.22263183102577,1355.7926744150614,1
-22.12576879628468,-62.46433483985067,-57.55806087936866,-123.64549977385798,126.82565721737939,24.53817153628654,29.870065789473642,6.195121951219506,-10.629955947136558,-0.49803921568627274,2.5098814229248982,0.4980392156862763,-7.227642276422774,4.482352941176472,1.5179282868525883,4.194870157138168,13.147144610522735,47.38272150516801,484.4531261479024,81.22263183102577,1355.7926744150614,1
-22.12576879628468,-62.46433483985067,-57.55806087936866,-123.64549977385798,126.82565721737939,24.53817153628654,29.870065789473642,1.0325203252032464,-22.938325991189423,-1.4941176470588218,1.5059288537549378,-6.474509803921567,-5.1626016260162695,3.4862745098039234,4.5537848605577675,5.831007952188244,51.59866801599628,47.38272150516801,484.4531261479024,81.22263183102577,1355.7926744150614,1
-22.046065018200082,-62.11495382196896,-57.62169610422147,-123.5306196291271,126.80822293911731,24.498272070373844,29.870065789473642,1.0325203252032464,-22.938325991189423,-1.4941176470588218,1.5059288537549378,-6.474509803921567,-5.1626016260162695,3.4862745098039234,4.5537848605577675,5.831007952188244,51.59866801599628,47.26090498146351,481.8884570092639,81.0890898517725,1356.0099286110817,1
-22.046065018200082,-62.11495382196896,-57.62169610422147,-123.5306196291271,126.80822293911731,24.498272070373844,29.870065789473642,18.58536585365853,3.916299559471369,5.4784313725490215,-0.5019762845849831,-0.49803921568627274,-9.769962616701378e-15,15.439215686274512,9.613545816733065,6.754109223619721,51.01602466418279,47.26090498146351,481.8884570092639,81.0890898517725,1356.0099286110817,1
-22.046065018200082,-62.11495382196896,-57.62169610422147,-123.5306196291271,126.80822293911731,24.498272070373844,29.870065789473642,8.26016260162601,-15.105726872246692,-8.466666666666665,1.5059288537549378,-21.415686274509802,-19.617886178861795,-24.40392156862745,-0.5059760956175312,12.410244388988861,82.50752668826536,47.26090498146351,481.8884570092639,81.0890898517725,1356.0099286110817,1
-21.822894439563207,-62.214776969935166,-57.780784166353506,-123.4157394843962,126.79078866085524,24.53817153628654,29.870065789473642,8.26016260162601,-15.105726872246692,-8.466666666666665,1.5059288537549378,-21.415686274509802,-19.617886178861795,-24.40392156862745,-0.5059760956175312,12.410244388988861,82.50752668826536,47.27281852528396,490.6890500222654,81.13710020689496,1345.5275774133565,1
-21.822894439563207,-62.214776969935166,-57.780784166353506,-123.4157394843962,126.79078866085524,24.53817153628654,29.870065789473642,-4.130081300813014,-30.770925110132154,-12.450980392156861,0.5019762845849773,-1.4941176470588218,-6.195121951219521,-6.474509803921567,-1.517928286852591,7.941955097092438,99.91777107226072,47.27281852528396,490.6890500222654,81.13710020689496,1345.5275774133565,1
-21.822894439563207,-62.214776969935166,-57.780784166353506,-123.4157394843962,126.79078866085524,24.53817153628654,29.870065789473642,5.162601626016254,-18.46255506607929,2.4901960784313744,1.5059288537549378,13.447058823529414,2.0650406504064946,15.439215686274512,3.541832669322708,7.764303681726873,47.101963371145814,47.27281852528396,490.6890500222654,81.13710020689496,1345.5275774133565,1
-21.711309150244766,-62.51424641383377,-57.908054616059125,-123.3238353686115,126.75592010433112,24.617970468111878,29.800438596491176,5.162601626016254,-18.46255506607929,2.4901960784313744,1.5059288537549378,13.447058823529414,2.0650406504064946,15.439215686274512,3.541832669322708,7.764303681726873,47.101963371145814,47.377870060045886,499.38351242186974,81.2487121328348,1333.0412471988188,1
-21.711309150244766,-62.51424641383377,-57.908054616059125,-123.3238353686115,126.75592010433112,24.617970468111878,29.800438596491176,-1.032520325203258,-21.819383259911888,1.4941176470588253,3.5138339920948587,-3.48627450980392,-1.0325203252032615,-0.49803921568627274,-5.56573705179283,4.805303290844389,50.20702333798041,47.377870060045886,499.38351242186974,81.2487121328348,1333.0412471988188,1
-21.711309150244766,-62.51424641383377,-57.908054616059125,-123.3238353686115,126.75592010433112,24.617970468111878,29.800438596491176,5.162601626016254,-30.770925110132154,-23.4078431372549,0.5019762845849773,-8.466666666666665,-7.227642276422774,-8.466666666666665,2.529880478087648,10.816775280729004,112.5240522026908,47.377870060045886,499.38351242186974,81.2487121328348,1333.0412471988188,1
-21.201204970503333,-62.913539005698574,-57.97168984091194,-123.27788331071913,126.75592010433112,24.817467797675135,29.52192982456131,5.162601626016254,-30.770925110132154,-23.4078431372549,0.5019762845849773,-8.466666666666665,-7.227642276422774,-8.466666666666665,2.529880478087648,10.816775280729004,112.5240522026908,47.36214460570462,519.4015402393596,81.38770405244323,1322.1958070097428,1
-21.201204970503333,-62.913539005698574,-57.97168984091194,-123.27788331071913,126.75592010433112,24.817467797675135,29.52192982456131,-4.130081300813014,-24.057268722466958,4.482352941176472,0.5019762845849773,-9.462745098039214,-10.32520325203253,-6.474509803921567,-2.5298804780876507,7.745502235140298,54.383388348585484,47.36214460570462,519.4015402393596,81.38770405244323,1322.1958070097428,1
-21.201204970503333,-62.913539005698574,-57.97168984091194,-123.27788331071913,126.75592010433112,24.817467797675135,29.52192982456131,7.227642276422758,-12.867841409691625,-40.34117647058824,-9.537549407114627,5.4784313725490215,-2.0650406504065137,-0.49803921568627274,5.565737051792827,10.447682231781487,161.20944088522342,47.36214460570462,519.4015402393596,81.38770405244323,1322.1958070097428,1
-21.264967992971012,-62.71389270976617,-58.051233871977956,-123.23193125282677,126.73848582606905,25.056864593151147,29.382675438596493,7.227642276422758,-12.867841409691625,-40.34117647058824,-9.537549407114627,5.4784313725490215,-2.0650406504065137,-0.49803921568627274,5.565737051792827,10.447682231781487,161.20944088522342,47.343364858238374,515.4971841561913,81.33235261152363,1322.1161145984606,1
-21.264967992971012,-62.71389270976617,-58.051233871977956,-123.23193125282677,126.73848582606905,25.056864593151147,29.382675438596493,7.227642276422758,-0.5594713656387622,25.400000000000002,1.5059288537549378,1.4941176470588253,-7.227642276422774,-3.48627450980392,5.565737051792827,6.55835174761185,64.78379442012032,47.343364858238374,515.4971841561913,81.33235261152363,1322.1161145984606,1
-21.264967992971012,-62.71389270976617,-58.051233871977956,-123.23193125282677,126.73848582606905,25.056864593151147,29.382675438596493,6.195121951219506,-19.581497797356825,20.419607843137257,7.5296442687747005,6.4745098039215705,-3.097560975609766,6.4745098039215705,4.5537848605577675,9.29077966306237,45.584602890801186,47.343364858238374,515.4971841561913,81.33235261152363,1322.1161145984606,1
-21.424375549140212,-62.813715857732376,-58.06714267819116,-123.14002713704207,126.72105154780701,25.216462456801764,29.10416666666663,6.195121951219506,-19.581497797356825,20.419607843137257,7.5296442687747005,6.4745098039215705,-3.097560975609766,6.4745098039215705,4.5537848605577675,9.29077966306237,45.584602890801186,47.43507802835458,513.0499718338415,81.34029522432188,1316.0456802186447,1
-21.424375549140212,-62.813715857732376,-58.06714267819116,-123.14002713704207,126.72105154780701,25.216462456801764,29.10416666666663,-1.032520325203258,-13.986784140969158,-11.454901960784312,0.5019762845849773,2.4901960784313744,-4.130081300813018,0.4980392156862763,-0.5059760956175312,4.325059425261238,28.89665408903139,47.43507802835458,513.0499718338415,81.34029522432188,1316.0456802186447,1
-21.424375549140212,-62.813715857732376,-58.06714267819116,-123.14002713704207,126.72105154780701,25.216462456801764,29.10416666666663,3.0975609756097504,-19.581497797356825,-6.474509803921567,-2.509881422924904,-1.4941176470588218,-5.1626016260162695,-15.439215686274508,-7.5896414342629495,7.6686282991781995,42.23467474518015,47.43507802835458,513.0499718338415,81.34029522432188,1316.0456802186447,1
-21.169323459269492,-63.31283159756338,-57.97168984091194,-123.1170511080959,126.73848582606905,25.45585925227772,28.756030701754298,3.0975609756097504,-19.581497797356825,-6.474509803921567,-2.509881422924904,-1.4941176470588218,-5.1626016260162695,-15.439215686274508,-7.5896414342629495,7.6686282991781995,42.23467474518015,47.48461496591494,526.5028741259559,81.46719084885707,1308.1650935267523,1
-21.169323459269492,-63.31283159756338,-57.97168984091194,-123.1170511080959,126.73848582606905,25.45585925227772,28.756030701754298,11.357723577235767,-24.057268722466958,-14.44313725490196,-1.5059288537549436,-1.4941176470588218,-8.260162601626025,-1.4941176470588218,0.5059760956175285,7.889804049965103,70.51158689210993,47.48461496591494,526.5028741259559,81.46719084885707,1308.1650935267523,1
-21.169323459269492,-63.31283159756338,-57.97168984091194,-123.1170511080959,126.73848582606905,25.45585925227772,28.756030701754298,9.292682926829261,-9.511013215859027,-0.49803921568627274,0.5019762845849773,12.450980392156865,-3.097560975609766,10.458823529411767,8.601593625498007,6.801583770704493,22.17388807761009,47.48461496591494,526.5028741259559,81.46719084885707,1308.1650935267523,1
-21.105560436801813,-63.01336215366478,-58.03532506576475,-123.09407507914972,126.75592010433112,25.695256047753674,28.338267543859615,9.292682926829261,-9.511013215859027,-0.49803921568627274,0.5019762845849773,12.450980392156865,-3.097560975609766,10.458823529411767,8.601593625498007,6.801583770704493,22.17388807761009,47.384749218743785,524.1420355898356,81.38092076619309,1311.1856453645264,1
-21.105560436801813,-63.01336215366478,-58.03532506576475,-123.09407507914972,126.75592010433112,25.695256047753674,28.338267543859615,2.065040650406498,-12.867841409691625,8.466666666666669,1.5059288537549378,-0.49803921568627274,1.032520325203242,-6.474509803921567,4.5537848605577675,4.683041473236072,18.903051015581443,47.384749218743785,524.1420355898356,81.38092076619309,1311.1856453645264,1
-21.105560436801813,-63.01336215366478,-58.03532506576475,-123.09407507914972,126.75592010433112,25.695256047753674,28.338267543859615,-5.162601626016265,-25.17621145374449,20.419607843137257,4.517786561264819,-6.474509803921567,-5.1626016260162695,-5.478431372549018,-5.56573705179283,9.744685917305315,66.82228593732596,47.384749218743785,524.1420355898356,81.38092076619309,1311.1856453645264,1
-21.23308648173717,-63.063273727647875,-58.051233871977956,-123.02514699231116,126.75592010433112,25.934652843229685,28.05975877192975,-5.162601626016265,-25.17621145374449,20.419607843137257,4.517786561264819,-6.474509803921567,-5.1626016260162695,-5.478431372549018,-5.56573705179283,9.744685917305315,66.82228593732596,47.44919802712101,521.7435142987115,81.379884863979,1307.026029181829,1
-21.23308648173717,-63.063273727647875,-58.051233871977956,-123.02514699231116,126.75592010433112,25.934652843229685,28.05975877192975,3.0975609756097504,-27.414096916299556,10.458823529411767,5.52173913043478,0.4980392156862763,-13.422764227642286,2.4901960784313744,3.541832669322708,8.305631592854812,78.32862212368069,47.44919802712101,521.7435142987115,81.379884863979,1307.026029181829,1
-21.23308648173717,-63.063273727647875,-58.051233871977956,-123.02514699231116,126.75592010433112,25.934652843229685,28.05975877192975,4.130081300813003,-9.511013215859027,26.39607843137255,-2.509881422924904,4.482352941176472,-1.0325203252032615,4.482352941176472,4.5537848605577675,7.137258179885433,66.43311445741466,47.44919802712101,521.7435142987115,81.379884863979,1307.026029181829,1
-21.37655328228945,-63.01336215366478,-58.06714267819116,-122.93324287652646,126.72105154780701,26.094250706880302,27.92050438596482,4.130081300813003,-9.511013215859027,26.39607843137255,-2.509881422924904,4.482352941176472,-1.0325203252032615,4.482352941176472,4.5537848605577675,7.137258179885433,66.43311445741466,47.48568603804847,517.3813817182748,81.33791590279414,1303.7446913136666,1
-21.37655328228945,-63.01336215366478,-58.06714267819116,-122.93324287652646,126.72105154780701,26.094250706880302,27.92050438596482,-5.329070518200751e-15,-24.057268722466958,-24.40392156862745,-2.509881422924904,-0.49803921568627274,-6.195121951219521,-6.474509803921567,-1.517928286852591,8.207083871462409,103.5148897457215,47.48568603804847,517.3813817182748,81.33791590279414,1303.7446913136666,1
-21.37655328228945,-63.01336215366478,-58.06714267819116,-122.93324287652646,126.72105154780701,26.094250706880302,27.92050438596482,10.325203252032514,-1.6784140969162955,14.443137254901963,1.5059288537549378,-2.490196078431371,-5.1626016260162695,7.4705882352941195,1.5179282868525883,5.574249710525007,23.241168542005248,47.48568603804847,517.3813817182748,81.33791590279414,1303.7446913136666,1
-20.770804568846497,-62.41442326586757,-57.95578103469874,-123.02514699231116,126.72105154780701,26.373546968268954,27.641995614035068,10.325203252032514,-1.6784140969162955,14.443137254901963,1.5059288537549378,-2.490196078431371,-5.1626016260162695,7.4705882352941195,1.5179282868525883,5.574249710525007,23.241168542005248,47.04700295647094,522.7988239157384,81.13178376429248,1321.2602845524211,1
-20.770804568846497,-62.41442326586757,-57.95578103469874,-123.02514699231116,126.72105154780701,26.373546968268954,27.641995614035068,-3.0975609756097615,-25.17621145374449,-3.48627450980392,1.5059288537549378,1.4941176470588253,-5.1626016260162695,-0.49803921568627274,-0.5059760956175312,5.115838797161501,68.26755485787278,47.04700295647094,522.7988239157384,81.13178376429248,1321.2602845524211,1
-20.770804568846497,-62.41442326586757,-57.95578103469874,-123.02514699231116,126.72105154780701,26.373546968268954,27.641995614035068,3.0975609756097504,-19.581497797356825,1.4941176470588253,5.52173913043478,6.4745098039215705,2.0650406504064946,7.4705882352941195,4.5537848605577675,6.282354887580016,33.248340330257356,47.04700295647094,522.7988239157384,81.13178376429248,1321.2602845524211,1
-20.6113970126773,-62.71389270976617,-57.89214580984593,-123.09407507914972,126.72105154780701,26.732642161482886,27.293859649122737,3.0975609756097504,-19.581497797356825,1.4941176470588253,5.52173913043478,6.4745098039215705,2.0650406504064946,7.4705882352941195,4.5537848605577675,6.282354887580016,33.248340330257356,47.07247851076314,530.9539363279779,81.23337119958728,1320.0512077610335,1
-20.6113970126773,-62.71389270976617,-57.89214580984593,-123.09407507914972,126.72105154780701,26.732642161482886,27.293859649122737,16.52032520325203,29.651982378854633,18.42745098039216,-5.521739130434785,-2.490196078431371,-7.227642276422774,-15.439215686274508,5.565737051792827,12.605536098231886,82.68744760111376,47.07247851076314,530.9539363279779,81.23337119958728,1320.0512077610335,1
-20.6113970126773,-62.71389270976617,-57.89214580984593,-123.09407507914972,126.72105154780701,26.732642161482886,27.293859649122737,7.227642276422758,-9.511013215859027,2.4901960784313744,-0.5019762845849831,-2.490196078431371,-13.422764227642286,-12.450980392156861,-0.5059760956175312,6.075093081143274,27.935970709454242,47.07247851076314,530.9539363279779,81.23337119958728,1320.0512077610335,1
-20.707041546378818,-62.76380428374927,-57.780784166353506,-123.18597919493442,126.73848582606905,26.97203895695884,27.015350877192986,7.227642276422758,-9.511013215859027,2.4901960784313744,-0.5019762845849831,-2.490196078431371,-13.422764227642286,-12.450980392156861,-0.5059760956175312,6.075093081143274,27.935970709454242,47.08387666549387,528.0106955483284,81.24352254834572,1325.5848745358212,1
-20.707041546378818,-62.76380428374927,-57.780784166353506,-123.18597919493442,126.73848582606905,26.97203895695884,27.015350877192986,1.0325203252032464,-30.770925110132154,-7.470588235294116,3.5138339920948587,4.482352941176472,-2.0650406504065137,9.462745098039218,3.541832669322708,7.7924798777086615,93.81924447567599,47.08387666549387,528.0106955483284,81.24352254834572,1325.5848745358212,1
-20.707041546378818,-62.76380428374927,-57.780784166353506,-123.18597919493442,126.73848582606905,26.97203895695884,27.015350877192986,4.130081300813003,-28.533039647577088,-1.4941176470588218,7.5296442687747005,-0.49803921568627274,-3.097560975609766,2.4901960784313744,2.529880478087648,6.287819951504833,85.18153061416618,47.08387666549387,528.0106955483284,81.24352254834572,1325.5848745358212,1
-20.978034391866455,-62.364511691884466,-57.637604910434675,-123.25490728177296,126.72105154780701,27.131636820609515,26.876096491228054,4.130081300813003,-28.533039647577088,-1.4941176470588218,7.5296442687747005,-0.49803921568627274,-3.097560975609766,2.4901960784313744,2.529880478087648,6.287819951504833,85.18153061416618,46.993383664728526,513.1847102718831,81.0856746280307,1339.2690488842109,1
-20.978034391866455,-62.364511691884466,-57.637604910434675,-123.25490728177296,126.72105154780701,27.131636820609515,26.876096491228054,13.42276422764227,-11.748898678414093,4.482352941176472,1.5059288537549378,5.4784313725490215,-5.1626016260162695,5.4784313725490215,9.613545816733065,7.111619361104394,16.437804156758553,46.993383664728526,513.1847102718831,81.0856746280307,1339.2690488842109,1
-20.978034391866455,-62.364511691884466,-57.637604910434675,-123.25490728177296,126.72105154780701,27.131636820609515,26.876096491228054,-5.329070518200751e-15,-21.819383259911888,-31.376470588235293,-10.541501976284588,-17.431372549019606,-13.422764227642286,-6.474509803921567,-2.5298804780876507,12.949485360387861,108.93160120431521,46.993383664728526,513.1847102718831,81.0856746280307,1339.2690488842109,1
-20.882389858164938,-62.364511691884466,-57.47851684830265,-123.39276345545002,126.73848582606905,27.211435752434795,26.876096491228054,-5.329070518200751e-15,-21.819383259911888,-31.376470588235293,-10.541501976284588,-17.431372549019606,-13.422764227642286,-6.474509803921567,-2.5298804780876507,12.949485360387861,108.93160120431521,46.908472799450685,513.9859813528907,81.07859733187905,1348.8347274527482,1
-20.882389858164938,-62.364511691884466,-57.47851684830265,-123.39276345545002,126.73848582606905,27.211435752434795,26.876096491228054,-2.0650406504065097,-28.533039647577088,-1.4941176470588218,0.5019762845849773,10.458823529411767,-3.097560975609766,3.4862745098039234,-2.5298804780876507,6.520839215317563,88.32123405478629,46.908472799450685,513.9859813528907,81.07859733187905,1348.8347274527482,1
-20.882389858164938,-62.364511691884466,-57.47851684830265,-123.39276345545002,126.73848582606905,27.211435752434795,26.876096491228054,4.130081300813003,-8.392070484581494,26.39607843137255,7.5296442687747005,9.462745098039218,-4.130081300813018,8.466666666666669,-1.517928286852591,8.753161979739154,58.368546837260794,46.908472799450685,513.9859813528907,81.07859733187905,1348.8347274527482,1
-20.483870967741943,-62.314600117901364,-57.430790429663034,-123.55359565807328,126.72105154780701,27.41093308199811,26.806469298245588,4.130081300813003,-8.392070484581494,26.39607843137255,7.5296442687747005,9.462745098039218,-4.130081300813018,8.466666666666669,-1.517928286852591,8.753161979739154,58.368546837260794,46.743087171768785,523.1227260051019,81.0996620685459,1357.7152571857337,1
-20.483870967741943,-62.314600117901364,-57.430790429663034,-123.55359565807328,126.72105154780701,27.41093308199811,26.806469298245588,10.325203252032514,-16.224669603524223,-15.439215686274508,-3.513833992094865,-1.4941176470588218,-3.097560975609766,1.4941176470588253,3.541832669322708,6.891318934122029,38.178308685415566,46.743087171768785,523.1227260051019,81.0996620685459,1357.7152571857337,1
-20.483870967741943,-62.314600117901364,-57.430790429663034,-123.55359565807328,126.72105154780701,27.41093308199811,26.806469298245588,3.0975609756097504,-12.867841409691625,-7.470588235294116,-2.509881422924904,6.4745098039215705,4.130081300812998,0.4980392156862763,4.5537848605577675,5.200285903062376,14.414782923049634,46.743087171768785,523.1227260051019,81.0996620685459,1357.7152571857337,1
-20.404167189657343,-61.765572804087256,-57.39897281723663,-123.71442786069652,126.70361726954494,27.69022934338676,26.59758771929819,3.0975609756097504,-12.867841409691625,-7.470588235294116,-2.509881422924904,6.4745098039215705,4.130081300812998,0.4980392156862763,4.5537848605577675,5.200285903062376,14.414782923049634,46.522904270327075,516.408118878155,80.95965782734014,1375.7445693151826,1
-20.404167189657343,-61.765572804087256,-57.39897281723663,-123.71442786069652,126.70361726954494,27.69022934338676,26.59758771929819,-5.329070518200751e-15,-19.581497797356825,-0.49803921568627274,-2.509881422924904,-25.4,-22.715447154471555,-33.36862745098039,1.5179282868525883,13.198927666034066,181.88714503053401,46.522904270327075,516.408118878155,80.95965782734014,1375.7445693151826,1
-20.404167189657343,-61.765572804087256,-57.39897281723663,-123.71442786069652,126.70361726954494,27.69022934338676,26.59758771929819,3.0975609756097504,-20.700440528634356,-9.462745098039214,2.5098814229248982,-10.458823529411763,-7.227642276422774,-5.478431372549018,1.5179282868525883,7.556681686305545,38.72311226323706,46.522904270327075,516.408118878155,80.95965782734014,1375.7445693151826,1
-20.770804568846497,-62.01513067400276,-57.28761117374421,-123.82930800542741,126.68618299128286,27.84982720703738,26.527960526315724,3.0975609756097504,-20.700440528634356,-9.462745098039214,2.5098814229248982,-10.458823529411763,-7.227642276422774,-5.478431372549018,1.5179282868525883,7.556681686305545,38.72311226323706,46.69118213886449,509.4868401855501,81.0440166177248,1378.5232295042956,1
-20.770804568846497,-62.01513067400276,-57.28761117374421,-123.82930800542741,126.68618299128286,27.84982720703738,26.527960526315724,13.42276422764227,-10.629955947136558,36.35686274509804,0.5019762845849773,2.4901960784313744,-9.769962616701378e-15,12.450980392156865,2.529880478087648,9.797827019142218,144.9841402710247,46.69118213886449,509.4868401855501,81.0440166177248,1378.5232295042956,1
-20.770804568846497,-62.01513067400276,-57.28761117374421,-123.82930800542741,126.68618299128286,27.84982720703738,26.527960526315724,13.42276422764227,-16.224669603524223,-6.474509803921567,-0.5019762845849831,-2.490196078431371,-3.097560975609766,3.4862745098039234,5.565737051792827,6.407961066913867,30.859077108450077,46.69118213886449,509.4868401855501,81.0440166177248,1378.5232295042956,1
-21.057738169951055,-62.214776969935166,-57.39897281723663,-123.89823609226595,126.68618299128286,27.929626138862716,26.59758771929819,13.42276422764227,-16.224669603524223,-6.474509803921567,-0.5019762845849831,-2.490196078431371,-3.097560975609766,3.4862745098039234,5.565737051792827,6.407961066913867,30.859077108450077,46.89049598570762,506.29652468493595,81.17066195981258,1375.0321858425107,1
-21.057738169951055,-62.214776969935166,-57.39897281723663,-123.89823609226595,126.68618299128286,27.929626138862716,26.59758771929819,-8.260162601626021,-27.414096916299556,-4.482352941176469,3.5138339920948587,-0.49803921568627274,-4.130081300813018,2.4901960784313744,-3.5418326693227105,6.791324464431285,74.18229701194014,46.89049598570762,506.29652468493595,81.17066195981258,1375.0321858425107,1
-21.057738169951055,-62.214776969935166,-57.39897281723663,-123.89823609226595,126.68618299128286,27.929626138862716,26.59758771929819,-4.130081300813014,-31.88986784140969,-11.454901960784312,1.5059288537549378,8.466666666666669,-5.1626016260162695,6.4745098039215705,-4.55378486055777,9.204792864240527,92.95304049996832,46.89049598570762,506.29652468493595,81.17066195981258,1375.0321858425107,1
-21.217145726120254,-62.364511691884466,-57.38306401102343,-123.92121212121212,126.68618299128286,28.009425070688053,26.527960526315724,-4.130081300813014,-31.88986784140969,-11.454901960784312,1.5059288537549378,8.466666666666669,-5.1626016260162695,6.4745098039215705,-4.55378486055777,9.204792864240527,92.95304049996832,46.98824047634272,504.3156987179968,81.22292927470667,1373.561223779425,1
-21.217145726120254,-62.364511691884466,-57.38306401102343,-123.92121212121212,126.68618299128286,28.009425070688053,26.527960526315724,24.780487804878042,-27.414096916299556,-60.26274509803922,-4.517786561264825,-1.4941176470588218,6.195121951219502,32.372549019607845,15.685258964143426,21.590270495313902,374.73101279924015,46.98824047634272,504.3156987179968,81.22292927470667,1373.561223779425,1
-21.217145726120254,-62.364511691884466,-57.38306401102343,-123.92121212121212,126.68618299128286,28.009425070688053,26.527960526315724,4.130081300813003,-15.105726872246692,-15.439215686274508,-3.513833992094865,2.4901960784313744,-6.195121951219521,-4.482352941176469,2.529880478087648,6.7358011625430105,29.15160334760291,46.98824047634272,504.3156987179968,81.22292927470667,1373.561223779425,1
-21.32873101543869,-61.96521910001966,-57.39897281723663,-123.96716417910449,126.66874871302082,28.009425070688053,26.59758771929819,4.130081300813003,-15.105726872246692,-15.439215686274508,-3.513833992094865,2.4901960784313744,-6.195121951219521,-4.482352941176469,2.529880478087648,6.7358011625430105,29.15160334760291,46.897640977565,495.53951876724875,81.11045203212025,1382.7359833158564,1
-21.32873101543869,-61.96521910001966,-57.39897281723663,-123.96716417910449,126.66874871302082,28.009425070688053,26.59758771929819,-1.032520325203258,-11.748898678414093,28.38823529411765,4.517786561264819,3.4862745098039234,-2.0650406504065137,-6.474509803921567,-5.56573705179283,7.909875359365582,79.17017146795084,46.897640977565,495.53951876724875,81.11045203212025,1382.7359833158564,1
-21.32873101543869,-61.96521910001966,-57.39897281723663,-123.96716417910449,126.66874871302082,28.009425070688053,26.59758771929819,-8.260162601626021,-29.65198237885462,12.450980392156865,7.5296442687747005,-0.49803921568627274,-3.097560975609766,3.4862745098039234,-0.5059760956175312,8.185077554766211,92.21169899229974,46.897640977565,495.53951876724875,81.11045203212025,1382.7359833158564,1
-21.137441948035654,-62.41442326586757,-57.38306401102343,-124.05906829488919,126.68618299128286,28.049324536600693,26.527960526315724,-8.260162601626021,-29.65198237885462,12.450980392156865,7.5296442687747005,-0.49803921568627274,-3.097560975609766,3.4862745098039234,-0.5059760956175312,8.185077554766211,92.21169899229974,46.97830974164222,507.14148023281615,81.28551852392674,1378.5110639945785,1
-21.137441948035654,-62.41442326586757,-57.38306401102343,-124.05906829488919,126.68618299128286,28.049324536600693,26.527960526315724,6.195121951219506,-11.748898678414093,30.380392156862747,9.537549407114621,12.450980392156865,-3.097560975609766,-5.478431372549018,5.565737051792827,10.55683399821493,74.91253083914759,46.97830974164222,507.14148023281615,81.28551852392674,1378.5110639945785,1
-21.137441948035654,-62.41442326586757,-57.38306401102343,-124.05906829488919,126.68618299128286,28.049324536600693,26.527960526315724,10.325203252032514,-1.6784140969162955,16.43529411764706,-0.5019762845849831,-11.454901960784312,-8.260162601626025,-3.48627450980392,-0.5059760956175312,6.58102536487658,35.024828154099275,46.97830974164222,507.14148023281615,81.28551852392674,1378.5110639945785,1
-20.993975147483376,-62.065042247985865,-57.46260804208944,-124.15097241067392,126.68618299128286,28.16902293433867,26.527960526315724,10.325203252032514,-1.6784140969162955,16.43529411764706,-0.5019762845849831,-11.454901960784312,-8.260162601626025,-3.48627450980392,-0.5059760956175312,6.58102536487658,35.024828154099275,46.840541812519554,506.3293564325212,81.22620756691641,1387.1971778238117,1
-20.993975147483376,-62.065042247985865,-57.46260804208944,-124.15097241067392,126.68618299128286,28.16902293433867,26.527960526315724,-2.0650406504065097,-27.414096916299556,-18.427450980392155,0.5019762845849773,-13.44705882352941,-9.292682926829277,-0.49803921568627274,-0.5059760956175312,9.01904023666821,101.79381999653694,46.840541812519554,506.3293564325212,81.22620756691641,1387.1971778238117,1
-20.993975147483376,-62.065042247985865,-57.46260804208944,-124.15097241067392,126.68618299128286,28.16902293433867,26.527960526315724,8.26016260162601,-17.343612334801758,-4.482352941176469,1.5059288537549378,1.4941176470588253,-3.097560975609766,1.4941176470588253,5.565737051792827,5.405448756609927,28.953794651167488,46.840541812519554,506.3293564325212,81.22620756691641,1387.1971778238117,1
-20.914271369398776,-62.51424641383377,-57.41488162344983,-124.26585255540479,126.70361726954494,28.208922400251367,26.38870614035079,8.26016260162601,-17.343612334801758,-4.482352941176469,1.5059288537549378,1.4941176470588253,-3.097560975609766,1.4941176470588253,5.565737051792827,5.405448756609927,28.953794651167488,46.94779980222745,514.8093323135264,81.39832686422947,1384.7194494790347,1
-20.914271369398776,-62.51424641383377,-57.41488162344983,-124.26585255540479,126.70361726954494,28.208922400251367,26.38870614035079,-3.0975609756097615,-9.511013215859027,7.4705882352941195,3.5138339920948587,4.482352941176472,-3.097560975609766,1.4941176470588253,-4.55378486055777,4.652601605407575,6.81329667034918,46.94779980222745,514.8093323135264,81.39832686422947,1384.7194494790347,1
-20.914271369398776,-62.51424641383377,-57.41488162344983,-124.26585255540479,126.70361726954494,28.208922400251367,26.38870614035079,19.61788617886178,25.1762114537445,24.403921568627453,0.5019762845849773,3.4862745098039234,1.032520325203242,22.411764705882355,15.685258964143426,14.039476748856455,114.16942064839019,46.94779980222745,514.8093323135264,81.39832686422947,1384.7194494790347,1
-21.073678925567975,-62.314600117901364,-57.55806087936866,-124.31180461329716,126.70361726954494,28.368520263901985,26.319078947368325,19.61788617886178,25.1762114537445,24.403921568627453,0.5019762845849773,3.4862745098039234,1.032520325203242,22.411764705882355,15.685258964143426,14.039476748856455,114.16942064839019,46.98211330761267,509.09139547846195,81.39482187018906,1387.056722211104,1
-21.073678925567975,-62.314600117901364,-57.55806087936866,-124.31180461329716,126.70361726954494,28.368520263901985,26.319078947368325,4.130081300813003,-9.511013215859027,-5.478431372549018,-6.525691699604746,-12.450980392156861,-12.390243902439034,-3.48627450980392,-0.5059760956175312,6.809836561105392,18.58271327838505,46.98211330761267,509.09139547846195,81.39482187018906,1387.056722211104,1
-21.073678925567975,-62.314600117901364,-57.55806087936866,-124.31180461329716,126.70361726954494,28.368520263901985,26.319078947368325,-2.0650406504065097,-28.533039647577088,0.4980392156862763,2.5098814229248982,-3.48627450980392,-5.1626016260162695,-4.482352941176469,-5.56573705179283,6.5378708831730314,81.8388184401194,46.98211330761267,509.09139547846195,81.39482187018906,1387.056722211104,1
-21.057738169951055,-62.214776969935166,-57.55806087936866,-124.3807327001357,126.68618299128286,28.488218661639962,26.249451754385973,-2.0650406504065097,-28.533039647577088,0.4980392156862763,2.5098814229248982,-3.48627450980392,-5.1626016260162695,-4.482352941176469,-5.56573705179283,6.5378708831730314,81.8388184401194,46.94352533975163,507.9767342371942,81.38452351647985,1391.9267543105543,1
-21.057738169951055,-62.214776969935166,-57.55806087936866,-124.3807327001357,126.68618299128286,28.488218661639962,26.249451754385973,5.162601626016254,-11.748898678414093,-15.439215686274508,-0.5019762845849831,3.4862745098039234,-2.0650406504065137,-3.48627450980392,4.5537848605577675,5.805508350732746,26.141226939749885,46.94352533975163,507.9767342371942,81.38452351647985,1391.9267543105543,1
-21.057738169951055,-62.214776969935166,-57.55806087936866,-124.3807327001357,126.68618299128286,28.488218661639962,26.249451754385973,2.065040650406498,-8.392070484581494,0.4980392156862763,1.5059288537549378,0.4980392156862763,-1.0325203252032615,10.458823529411767,2.529880478087648,3.37254284410227,14.759452704515748,46.94352533975163,507.9767342371942,81.38452351647985,1391.9267543105543,1
-20.770804568846497,-62.364511691884466,-57.41488162344983,-124.4726368159204,126.70361726954494,28.687715991203277,26.040570175438575,2.065040650406498,-8.392070484581494,0.4980392156862763,1.5059288537549378,0.4980392156862763,-1.0325203252032615,10.458823529411767,2.529880478087648,3.37254284410227,14.759452704515748,46.8500659613936,516.2206155391864,81.41734337708489,1396.4434292817614,1
-20.770804568846497,-62.364511691884466,-57.41488162344983,-124.4726368159204,126.70361726954494,28.687715991203277,26.040570175438575,2.065040650406498,-25.17621145374449,-18.427450980392155,-3.513833992094865,-24.40392156862745,-10.32520325203253,12.450980392156865,-2.5298804780876507,12.361565345942811,90.16371866813094,46.8500659613936,516.2206155391864,81.41734337708489,1396.4434292817614,1
-20.770804568846497,-62.364511691884466,-57.41488162344983,-124.4726368159204,126.70361726954494,28.687715991203277,26.040570175438575,6.195121951219506,-9.511013215859027,-31.376470588235293,-5.521739130434785,5.4784313725490215,-10.32520325203253,-23.4078431372549,5.565737051792827,12.172694962422234,96.27756836625738,46.8500659613936,516.2206155391864,81.41734337708489,1396.4434292817614,1
-20.930212125015697,-62.26468854391827,-57.39897281723663,-124.54156490275894,126.70361726954494,28.88721332076659,25.831688596491176,6.195121951219506,-9.511013215859027,-31.376470588235293,-5.521739130434785,5.4784313725490215,-10.32520325203253,-23.4078431372549,5.565737051792827,12.172694962422234,96.27756836625738,46.864624495390196,510.3641061306948,81.40174208797127,1401.7020317516744,1
-20.930212125015697,-62.26468854391827,-57.39897281723663,-124.54156490275894,126.70361726954494,28.88721332076659,25.831688596491176,7.227642276422758,-3.9162995594713603,12.450980392156865,3.5138339920948587,8.466666666666669,3.0975609756097464,12.450980392156865,1.5179282868525883,6.580236567678964,18.16634261776236,46.864624495390196,510.3641061306948,81.40174208797127,1401.7020317516744,1
-20.930212125015697,-62.26468854391827,-57.39897281723663,-124.54156490275894,126.70361726954494,28.88721332076659,25.831688596491176,9.292682926829261,-18.46255506607929,10.458823529411767,1.5059288537549378,5.4784313725490215,-5.1626016260162695,3.4862745098039234,0.5059760956175285,6.79415924750775,34.09509935061464,46.864624495390196,510.3641061306948,81.40174208797127,1401.7020317516744,1
-21.153382703652575,-62.26468854391827,-57.55806087936866,-124.51858887381276,126.70361726954494,28.88721332076659,25.831688596491176,9.292682926829261,-18.46255506607929,10.458823529411767,1.5059288537549378,5.4784313725490215,-5.1626016260162695,3.4862745098039234,0.5059760956175285,6.79415924750775,34.09509935061464,46.992044042313175,506.2654008236712,81.4471127656999,1396.9021265919787,1
-21.153382703652575,-62.26468854391827,-57.55806087936866,-124.51858887381276,126.70361726954494,28.88721332076659,25.831688596491176,7.227642276422758,-25.17621145374449,-11.454901960784312,-0.5019762845849831,21.415686274509806,6.195121951219502,-9.462745098039214,0.5059760956175285,10.242532674365325,80.72601452514793,46.992044042313175,506.2654008236712,81.4471127656999,1396.9021265919787,1
-21.153382703652575,-62.26468854391827,-57.55806087936866,-124.51858887381276,126.70361726954494,28.88721332076659,25.831688596491176,2.065040650406498,-24.057268722466958,5.4784313725490215,1.5059288537549378,6.4745098039215705,-3.097560975609766,12.450980392156865,9.613545816733065,8.092908323449835,55.75680276142969,46.992044042313175,506.2654008236712,81.4471127656999,1396.9021265919787,1
-20.770804568846497,-62.76380428374927,-57.66942252286108,-124.5875169606513,126.68618299128286,29.126610116242546,25.622807017543778,2.065040650406498,-24.057268722466958,5.4784313725490215,1.5059288537549378,6.4745098039215705,-3.097560975609766,12.450980392156865,9.613545816733065,8.092908323449835,55.75680276142969,47.06801045848562,525.1454595829704,81.67358125575389,1387.6925896444693,1
-20.770804568846497,-62.76380428374927,-57.66942252286108,-124.5875169606513,126.68618299128286,29.126610116242546,25.622807017543778,5.162601626016254,-13.986784140969158,0.4980392156862763,4.517786561264819,-14.44313725490196,-6.195121951219521,-0.49803921568627274,4.5537848605577675,6.2319118532877535,28.602281603193802,47.06801045848562,525.1454595829704,81.67358125575389,1387.6925896444693,1
-20.770804568846497,-62.76380428374927,-57.66942252286108,-124.5875169606513,126.68618299128286,29.126610116242546,25.622807017543778,6.195121951219506,-24.057268722466958,-7.470588235294116,0.5019762845849773,3.4862745098039234,-10.32520325203253,-11.454901960784312,-2.5298804780876507,8.252651924284248,54.96032559971578,47.06801045848562,525.1454595829704,81.67358125575389,1387.6925896444693,1
-20.6113970126773,-62.913539005698574,-57.844419391206316,-124.61049298959747,126.66874871302082,29.445805843543837,25.344298245614027,6.195121951219506,-24.057268722466958,-7.470588235294116,0.5019762845849773,3.4862745098039234,-10.32520325203253,-11.454901960784312,-2.5298804780876507,8.252651924284248,54.96032559971578,47.123118469860735,533.5775243839677,81.78948379550079,1381.6531147171922,1
-20.6113970126773,-62.913539005698574,-57.844419391206316,-124.61049298959747,126.66874871302082,29.445805843543837,25.344298245614027,-1.032520325203258,-12.867841409691625,-2.490196078431371,-2.509881422924904,8.466666666666669,2.0650406504064946,3.4862745098039234,2.529880478087648,4.431037692651987,16.6540720409833,47.123118469860735,533.5775243839677,81.78948379550079,1381.6531147171922,1
-20.6113970126773,-62.913539005698574,-57.844419391206316,-124.61049298959747,126.66874871302082,29.445805843543837,25.344298245614027,8.26016260162601,-13.986784140969158,4.482352941176472,0.5019762845849773,-22.41176470588235,-10.32520325203253,-3.48627450980392,5.565737051792827,8.62753193598353,48.67971210780367,47.123118469860735,533.5775243839677,81.78948379550079,1381.6531147171922,1
-21.009915903100296,-63.01336215366478,-58.16259551547038,-124.54156490275894,126.59901159997256,29.685202639019792,25.205043859649095,8.26016260162601,-13.986784140969158,4.482352941176472,0.5019762845849773,-22.41176470588235,-10.32520325203253,-3.48627450980392,5.565737051792827,8.62753193598353,48.67971210780367,47.395291190745155,528.0235060469498,81.90584085729803,1369.236207905075,1
-21.009915903100296,-63.01336215366478,-58.16259551547038,-124.54156490275894,126.59901159997256,29.685202639019792,25.205043859649095,-1.032520325203258,-17.343612334801758,5.4784313725490215,2.5098814229248982,9.462745098039218,-3.097560975609766,-10.458823529411763,-1.517928286852591,6.362687918174034,32.16269234879799,47.395291190745155,528.0235060469498,81.90584085729803,1369.236207905075,1
-21.009915903100296,-63.01336215366478,-58.16259551547038,-124.54156490275894,126.59901159997256,29.685202639019792,25.205043859649095,-8.260162601626021,-24.057268722466958,9.462745098039218,-4.517786561264825,-12.450980392156861,-9.292682926829277,-5.478431372549018,-4.55378486055777,9.759230316936243,41.01811847518171,47.395291190745155,528.0235060469498,81.90584085729803,1369.236207905075,1
-20.499811723358864,-62.314600117901364,-58.7989477639985,-124.51858887381276,126.49440593040018,30.24379516179704,25.065789473684163,-8.260162601626021,-24.057268722466958,9.462745098039218,-4.517786561264825,-12.450980392156861,-9.292682926829277,-5.478431372549018,-4.55378486055777,9.759230316936243,41.01811847518171,47.204453201752905,537.9433602355484,81.87737891857087,1366.7945427036404,1
-20.499811723358864,-62.314600117901364,-58.7989477639985,-124.51858887381276,126.49440593040018,30.24379516179704,25.065789473684163,8.26016260162601,6.154185022026436,19.423529411764708,3.5138339920948587,3.4862745098039234,-3.097560975609766,9.462745098039218,6.577689243027887,7.496997606749101,28.663364746164376,47.204453201752905,537.9433602355484,81.87737891857087,1366.7945427036404,1
-20.499811723358864,-62.314600117901364,-58.7989477639985,-124.51858887381276,126.49440593040018,30.24379516179704,25.065789473684163,-4.130081300813014,-11.748898678414093,5.4784313725490215,4.517786561264819,1.4941176470588253,-3.097560975609766,-0.49803921568627274,-0.5059760956175312,3.933861480876668,13.43528494694423,47.204453201752905,537.9433602355484,81.87737891857087,1366.7945427036404,1
-19.30425505208988,-62.26468854391827,-59.64211449329826,-124.56454093170511,126.32006314777954,31.360980207351588,24.43914473684208,-4.130081300813014,-11.748898678414093,5.4784313725490215,4.517786561264819,1.4941176470588253,-3.097560975609766,-0.49803921568627274,-0.5059760956175312,3.933861480876668,13.43528494694423,47.07035269643547,579.9366074592466,82.15711465630721,1350.5118261402274,1
-19.30425505208988,-62.26468854391827,-59.64211449329826,-124.56454093170511,126.32006314777954,31.360980207351588,24.43914473684208,11.357723577235767,-13.986784140969158,-16.435294117647057,-1.5059288537549436,11.454901960784316,-4.130081300813018,28.38823529411765,8.601593625498007,11.982567858852489,68.07299092399455,47.07035269643547,579.9366074592466,82.15711465630721,1350.5118261402274,1
-19.30425505208988,-62.26468854391827,-59.64211449329826,-124.56454093170511,126.32006314777954,31.360980207351588,24.43914473684208,19.61788617886178,-17.343612334801758,24.403921568627453,6.5256916996047405,-2.490196078431371,-4.130081300813018,-4.482352941176469,4.5537848605577675,10.443440870359296,73.62311740528939,47.07035269643547,579.9366074592466,82.15711465630721,1350.5118261402274,1
-17.965231580268615,-63.412654745529586,-61.185268695978955,-124.5875169606513,126.11085180863478,33.196355639333945,23.046600877192986,19.61788617886178,-17.343612334801758,24.403921568627453,6.5256916996047405,-2.490196078431371,-4.130081300813018,-4.482352941176469,4.5537848605577675,10.443440870359296,73.62311740528939,47.52105167392572,656.4001882099019,83.06181346738661,1294.5283501113345,1
-17.965231580268615,-63.412654745529586,-61.185268695978955,-124.5875169606513,126.11085180863478,33.196355639333945,23.046600877192986,-8.260162601626021,-48.67400881057269,-17.431372549019606,-10.541501976284588,-28.388235294117646,-34.07317073170732,-13.44705882352941,-6.577689243027891,20.924150003735647,220.10960847609417,47.52105167392572,656.4001882099019,83.06181346738661,1294.5283501113345,1
-17.965231580268615,-63.412654745529586,-61.185268695978955,-124.5875169606513,126.11085180863478,33.196355639333945,23.046600877192986,3.0975609756097504,-21.819383259911888,-8.466666666666665,3.5138339920948587,15.439215686274512,10.32520325203251,28.38823529411765,5.565737051792827,12.076979522312584,83.53327197101483,47.52105167392572,656.4001882099019,83.06181346738661,1294.5283501113345,1
-16.291452240492035,-65.30929455688741,-63.07841663535012,-124.63346901854365,125.84933763470383,35.78982092365692,21.027412280701697,3.0975609756097504,-21.819383259911888,-8.466666666666665,3.5138339920948587,15.439215686274512,10.32520325203251,28.38823529411765,5.565737051792827,12.076979522312584,83.53327197101483,48.22638781090986,766.1242864902538,84.34039340359372,1218.8931609592546,1
-16.291452240492035,-65.30929455688741,-63.07841663535012,-124.63346901854365,125.84933763470383,35.78982092365692,21.027412280701697,10.325203252032514,-1.6784140969162955,22.411764705882355,-20.58102766798419,11.454901960784316,-9.769962616701378e-15,-8.466666666666665,3.541832669322708,9.807476377448632,68.74912172258254,48.22638781090986,766.1242864902538,84.34039340359372,1218.8931609592546,1
-16.291452240492035,-65.30929455688741,-63.07841663535012,-124.63346901854365,125.84933763470383,35.78982092365692,21.027412280701697,5.162601626016254,-36.36563876651982,-59.266666666666666,-38.652173913043484,-72.2156862745098,-42.33333333333334,0.4980392156862763,7.589641434262947,32.760472653754825,690.6741531170184,48.22638781090986,766.1242864902538,84.34039340359372,1218.8931609592546,1
-15.127777080456891,-65.55885242680291,-66.21245145935113,-124.49561284486657,125.36117784336605,39.38077285579641,18.520833333333258,5.162601626016254,-36.36563876651982,-59.266666666666666,-38.652173913043484,-72.2156862745098,-42.33333333333334,0.4980392156862763,7.589641434262947,32.760472653754825,690.6741531170184,48.96636032220365,858.8940847803054,85.42230557700687,1145.1493035602703,1
-15.127777080456891,-65.55885242680291,-66.21245145935113,-124.49561284486657,125.36117784336605,39.38077285579641,18.520833333333258,8.26016260162601,-24.057268722466958,47.31372549019608,36.644268774703555,54.286274509803924,-29.943089430894318,-48.30980392156863,8.601593625498007,32.17702338459468,313.8428028430778,48.96636032220365,858.8940847803054,85.42230557700687,1145.1493035602703,1
-15.127777080456891,-65.55885242680291,-66.21245145935113,-124.49561284486657,125.36117784336605,39.38077285579641,18.520833333333258,38.20325203252032,30.77092511013216,-2.490196078431371,6.5256916996047405,24.403921568627453,6.195121951219502,7.4705882352941195,33.9003984063745,18.745011885275524,211.87112666263232,48.96636032220365,858.8940847803054,85.42230557700687,1145.1493035602703,1
-12.91201204970504,-66.35743761053253,-70.42828510584994,-124.15097241067392,124.6289381563594,44.687401822180334,14.482456140350791,38.20325203252032,30.77092511013216,-2.490196078431371,6.5256916996047405,24.403921568627453,6.195121951219502,7.4705882352941195,33.9003984063745,18.745011885275524,211.87112666263232,49.89924492202917,1030.1844964961838,86.97889837568546,1040.4652658795303,1
-12.91201204970504,-66.35743761053253,-70.42828510584994,-124.15097241067392,124.6289381563594,44.687401822180334,14.482456140350791,-17.55284552845529,-28.533039647577088,46.31764705882353,21.58498023715415,20.419607843137257,24.78048780487804,-9.462745098039214,-10.62549800796813,22.409606403254088,135.63236834471243,49.89924492202917,1030.1844964961838,86.97889837568546,1040.4652658795303,1
-12.91201204970504,-66.35743761053253,-70.42828510584994,-124.15097241067392,124.6289381563594,44.687401822180334,14.482456140350791,23.74796747967479,-7.27312775330396,-26.396078431372548,-20.58102766798419,-19.423529411764704,-16.520325203252042,-6.474509803921567,3.541832669322708,15.494799802574565,74.44913303880097,49.89924492202917,1030.1844964961838,86.97889837568546,1040.4652658795303,1
-13.390234718212634,-70.9493024169778,-76.09182011775022,-122.28991406603348,123.30393300844258,51.62990889098336,9.538925438596493,23.74796747967479,-7.27312775330396,-26.396078431372548,-20.58102766798419,-19.423529411764704,-16.520325203252042,-6.474509803921567,3.541832669322708,15.494799802574565,74.44913303880097,53.47711908431355,1211.830095711549,89.77701220025382,799.4279628760523,1
-13.390234718212634,-70.9493024169778,-76.09182011775022,-122.28991406603348,123.30393300844258,51.62990889098336,9.538925438596493,52.658536585365844,82.24229074889868,-35.36078431372549,-33.63241106719368,-3.48627450980392,-2.0650406504065137,11.454901960784316,31.87649402390438,31.597091732510354,727.8535014035064,53.47711908431355,1211.830095711549,89.77701220025382,799.4279628760523,1
-13.390234718212634,-70.9493024169778,-76.09182011775022,-122.28991406603348,123.30393300844258,51.62990889098336,9.538925438596493,-23.747967479674802,-65.45814977973568,-65.24313725490197,10.541501976284582,1.4941176470588253,22.715447154471534,-8.466666666666665,-15.68525896414343,26.669030865367183,623.223373797751,53.47711908431355,1211.830095711549,89.77701220025382,799.4279628760523,1
-16.291452240492035,-75.29160935350757,-82.58261305273707,-118.26910900045229,121.15951678220881,59.80929940307885,4.456140350877149,-23.747967479674802,-65.45814977973568,-65.24313725490197,10.541501976284582,1.4941176470588253,22.715447154471534,-8.466666666666665,-15.68525896414343,26.669030865367183,623.223373797751,58.05522488224556,1321.4492126896046,92.04777713556564,528.9583673119345,1
-16.291452240492035,-75.29160935350757,-82.58261305273707,-118.26910900045229,121.15951678220881,59.80929940307885,4.456140350877149,-11.357723577235777,-49.792951541850215,-20.419607843137253,2.5098814229248982,-21.415686274509802,-1.0325203252032615,15.439215686274512,-22.768924302788847,18.09206387174057,232.7863725658704,58.05522488224556,1321.4492126896046,92.04777713556564,528.9583673119345,1
-16.291452240492035,-75.29160935350757,-82.58261305273707,-118.26910900045229,121.15951678220881,59.80929940307885,4.456140350877149,9.292682926829261,6.154185022026436,25.400000000000002,8.53359683794466,18.42745098039216,4.130081300812998,2.4901960784313744,4.5537848605577675,9.872747250874333,63.71538175295507,58.05522488224556,1321.4492126896046,92.04777713556564,528.9583673119345,1
-23.432910756872104,-81.23108665749658,-84.2689465113366,-112.89271822704659,119.0674033907612,66.51240967640592,-0.8355263157894797,9.292682926829261,6.154185022026436,25.400000000000002,8.53359683794466,18.42745098039216,4.130081300812998,2.4901960784313744,4.5537848605577675,9.872747250874333,63.71538175295507,62.977647975235094,1175.1468293749303,92.79758379862659,305.16796889509635,1
-23.432910756872104,-81.23108665749658,-84.2689465113366,-112.89271822704659,119.0674033907612,66.51240967640592,-0.8355263157894797,-5.162601626016265,-48.67400881057269,-38.34901960784313,12.549407114624502,-19.423529411764704,-7.227642276422774,-4.482352941176469,-1.517928286852591,17.17331125940914,302.3533511443588,62.977647975235094,1175.1468293749303,92.79758379862659,305.16796889509635,1
-23.432910756872104,-81.23108665749658,-84.2689465113366,-112.89271822704659,119.0674033907612,66.51240967640592,-0.8355263157894797,-15.487804878048784,-16.224669603524223,21.415686274509806,10.541501976284582,32.372549019607845,-9.769962616701378e-15,-12.450980392156861,-11.637450199203188,15.016330292916912,86.7692246246004,62.977647975235094,1175.1468293749303,92.79758379862659,305.16796889509635,1
-29.697627714321584,-88.46826488504618,-84.41212576725542,-106.11478968792402,116.88811860800331,71.42004398366322,-5.222039473684276,-15.487804878048784,-16.224669603524223,21.415686274509806,10.541501976284582,32.372549019607845,-9.769962616701378e-15,-12.450980392156861,-11.637450199203188,15.016330292916912,86.7692246246004,67.52600612220773,1077.352725863388,92.99839344674187,133.14295390249094,1
-29.697627714321584,-88.46826488504618,-84.41212576725542,-106.11478968792402,116.88811860800331,71.42004398366322,-5.222039473684276,8.26016260162601,-9.511013215859027,1.4941176470588253,-9.537549407114627,-19.423529411764704,-12.390243902439034,-2.490196078431371,4.5537848605577675,8.45757464060642,33.91028803705955,67.52600612220773,1077.352725863388,92.99839344674187,133.14295390249094,1
-29.697627714321584,-88.46826488504618,-84.41212576725542,-106.11478968792402,116.88811860800331,71.42004398366322,-5.222039473684276,-4.130081300813014,-31.88986784140969,25.400000000000002,10.541501976284582,5.4784313725490215,-6.195121951219521,0.4980392156862763,-6.577689243027891,11.33884161262375,124.80809408756956,67.52600612220773,1077.352725863388,92.99839344674187,133.14295390249094,1
-33.921927952805326,-90.16525840047161,-84.3484905424026,-98.4407960199005,114.44731965131444,75.13069431354069,-8.633771929824661,-4.130081300813014,-31.88986784140969,25.400000000000002,10.541501976284582,5.4784313725490215,-6.195121951219521,0.4980392156862763,-6.577689243027891,11.33884161262375,124.80809408756956,69.47855896522651,956.6642037937703,90.98484832092491,50.15206414606082,1
-33.921927952805326,-90.16525840047161,-84.3484905424026,-98.4407960199005,114.44731965131444,75.13069431354069,-8.633771929824661,-12.390243902439028,-35.24669603524229,-67.23529411764706,-10.541501976284588,-12.450980392156861,-3.097560975609766,2.4901960784313744,-2.5298804780876507,18.247794244487327,505.84613921685565,69.47855896522651,956.6642037937703,90.98484832092491,50.15206414606082,1
-33.921927952805326,-90.16525840047161,-84.3484905424026,-98.4407960199005,114.44731965131444,75.13069431354069,-8.633771929824661,3.0975609756097504,-20.700440528634356,12.450980392156865,6.5256916996047405,-5.478431372549018,-6.195121951219521,-3.48627450980392,4.5537848605577675,7.811035786266992,35.55717990496132,69.47855896522651,956.6642037937703,90.98484832092491,50.15206414606082,1
-37.54047947784612,-83.2275496168206,-84.44394337968183,-90.30728177295342,111.41375523371542,78.16305372290293,-10.095942982456222,3.0975609756097504,-20.700440528634356,12.450980392156865,6.5256916996047405,-5.478431372549018,-6.195121951219521,-3.48627450980392,4.5537848605577675,7.811035786266992,35.55717990496132,68.40399082478285,714.787152943451,85.99292492315196,14.330159717153576,1
-37.54047947784612,-83.2275496168206,-84.44394337968183,-90.30728177295342,111.41375523371542,78.16305372290293,-10.095942982456222,-5.162601626016265,-24.057268722466958,11.454901960784316,10.541501976284582,3.4862745098039234,-6.195121951219521,-1.4941176470588218,-1.517928286852591,7.988714585060872,56.03661868344011,68.40399082478285,714.787152943451,85.99292492315196,14.330159717153576,1
-37.54047947784612,-83.2275496168206,-84.44394337968183,-90.30728177295342,111.41375523371542,78.16305372290293,-10.095942982456222,15.487804878048774,-22.938325991189423,-7.470588235294116,1.5059288537549378,-1.4941176470588218,-9.292682926829277,1.4941176470588253,6.577689243027887,8.282656927782757,58.48312715551811,68.40399082478285,714.787152943451,85.99292492315196,14.330159717153576,1
-43.342914522404925,-84.97445470622912,-89.69384943003884,-80.35866123925825,107.45617406822706,80.87621740496388,-10.931469298245702,15.487804878048774,-22.938325991189423,-7.470588235294116,1.5059288537549378,-1.4941176470588218,-9.292682926829277,1.4941176470588253,6.577689243027887,8.282656927782757,58.48312715551811,72.67040621955762,650.6444985747013,85.00898845850874,21.787329074357203,1
-43.342914522404925,-84.97445470622912,-89.69384943003884,-80.35866123925825,107.45617406822706,80.87621740496388,-10.931469298245702,34.07317073170731,-45.31718061674009,31.376470588235296,0.5019762845849773,-3.48627450980392,-3.097560975609766,10.458823529411767,6.577689243027887,16.861143309890128,299.9113513066186,72.67040621955762,650.6444985747013,85.00898845850874,21.787329074357203,1
-43.342914522404925,-84.97445470622912,-89.69384943003884,-80.35866123925825,107.45617406822706,80.87621740496388,-10.931469298245702,40.26829268292682,58.744493392070495,27.3921568627451,3.5138339920948587,-1.4941176470588218,-6.195121951219521,-2.490196078431371,15.685258964143426,19.4729339463363,442.05818334201496,72.67040621955762,650.6444985747013,85.00898845850874,21.787329074357203,1
-47.74256307267479,-93.45942228335628,-96.2641863960917,-69.46802351876978,103.27194728533189,83.11058749607292,-13.507675438596493,40.26829268292682,58.744493392070495,27.3921568627451,3.5138339920948587,-1.4941176470588218,-6.195121951219521,-2.490196078431371,15.685258964143426,19.4729339463363,442.05818334201496,79.15539058404092,742.0409746261528,86.39721073273925,216.91471022624268,1
-47.74256307267479,-93.45942228335628,-96.2641863960917,-69.46802351876978,103.27194728533189,83.11058749607292,-13.507675438596493,4.130081300813003,-8.392070484581494,16.43529411764706,4.517786561264819,-2.490196078431371,-1.0325203252032615,-0.49803921568627274,-0.5059760956175312,4.750245522405601,29.323753733119002,79.15539058404092,742.0409746261528,86.39721073273925,216.91471022624268,1
-47.74256307267479,-93.45942228335628,-96.2641863960917,-69.46802351876978,103.27194728533189,83.11058749607292,-13.507675438596493,-5.162601626016265,-18.46255506607929,-6.474509803921567,-17.569169960474312,4.482352941176472,-5.1626016260162695,-2.490196078431371,-12.649402390438247,9.056673686569225,39.26844286865446,79.15539058404092,742.0409746261528,86.39721073273925,216.91471022624268,1
-54.24639136437806,-108.0835134604048,-106.33446072904923,-55.65943012211669,98.00679525018876,85.18535972353129,-18.72971491228077,-5.162601626016265,-18.46255506607929,-6.474509803921567,-17.569169960474312,4.482352941176472,-5.1626016260162695,-2.490196078431371,-12.649402390438247,9.056673686569225,39.26844286865446,89.55478851794403,935.7769785297246,90.02580143719024,886.5504043883982,1
-54.24639136437806,-108.0835134604048,-106.33446072904923,-55.65943012211669,98.00679525018876,85.18535972353129,-18.72971491228077,-22.715447154471548,-13.986784140969158,-10.458823529411763,-3.513833992094865,-7.470588235294116,-12.390243902439034,0.4980392156862763,-1.517928286852591,9.068961057152418,55.32389051649836,89.55478851794403,935.7769785297246,90.02580143719024,886.5504043883982,1
-54.24639136437806,-108.0835134604048,-106.33446072904923,-55.65943012211669,98.00679525018876,85.18535972353129,-18.72971491228077,-10.325203252032525,-24.057268722466958,5.4784313725490215,-8.533596837944668,-5.478431372549018,-11.357723577235781,-1.4941176470588218,-5.56573705179283,9.036313729203702,46.73981014427071,89.55478851794403,935.7769785297246,90.02580143719024,886.5504043883982,1
-68.768419731392,-123.35645509923364,-117.34335462858576,-37.80705563093622,90.87617544100488,84.90606346214264,-24.717653508771946,-10.325203252032525,-24.057268722466958,5.4784313725490215,-8.533596837944668,-5.478431372549018,-11.357723577235781,-1.4941176470588218,-5.56573705179283,9.036313729203702,46.73981014427071,103.15607648640379,895.9225471429079,92.83562178625186,2280.14666414999,1
-68.768419731392,-123.35645509923364,-117.34335462858576,-37.80705563093622,90.87617544100488,84.90606346214264,-24.717653508771946,9.292682926829261,-30.770925110132154,17.43137254901961,-27.608695652173914,-6.474509803921567,-2.0650406504065137,0.4980392156862763,0.5059760956175285,11.830905250473352,146.60311218031555,103.15607648640379,895.9225471429079,92.83562178625186,2280.14666414999,1
-68.768419731392,-123.35645509923364,-117.34335462858576,-37.80705563093622,90.87617544100488,84.90606346214264,-24.717653508771946,8.26016260162601,13.986784140969167,22.411764705882355,23.592885375494067,3.4862745098039234,-1.0325203252032615,0.4980392156862763,3.541832669322708,9.60128294299847,87.32965872425795,103.15607648640379,895.9225471429079,92.83562178625186,2280.14666414999,1
-84.99610894941634,-127.0,-123.70687711386697,-17.19755766621438,81.49653373601484,80.7565190072259,-28.825657894736878,8.26016260162601,13.986784140969167,22.411764705882355,23.592885375494067,3.4862745098039234,-1.0325203252032615,0.4980392156862763,3.541832669322708,9.60128294299847,87.32965872425795,111.90099535442778,545.6158489357199,89.30147826002712,3901.9426883349324,1
-84.99610894941634,-127.0,-123.70687711386697,-17.19755766621438,81.49653373601484,80.7565190072259,-28.825657894736878,11.357723577235767,-10.629955947136558,1.4941176470588253,15.561264822134383,5.4784313725490215,3.0975609756097464,1.4941176470588253,3.541832669322708,6.581875582263229,27.742224251678756,111.90099535442778,545.6158489357199,89.30147826002712,3901.9426883349324,1
-84.99610894941634,-127.0,-123.70687711386697,-17.19755766621438,81.49653373601484,80.7565190072259,-28.825657894736878,-14.455284552845534,-34.12775330396475,-1.4941176470588218,20.581027667984188,-2.490196078431371,-10.32520325203253,-4.482352941176469,-3.5418326693227105,11.437221014102047,128.34809336311835,111.90099535442778,545.6158489357199,89.30147826002712,3901.9426883349324,1
-100.96874607756999,-119.71291019846728,-127.0,4.882406151062867,69.53661884823941,72.29783223374176,-29.870065789473756,-14.455284552845534,-34.12775330396475,-1.4941176470588218,20.581027667984188,-2.490196078431371,-10.32520325203253,-4.482352941176469,-3.5418326693227105,11.437221014102047,128.34809336311835,115.89388542534577,180.34525785679392,83.86510544984338,4691.975510835089,1
-100.96874607756999,-119.71291019846728,-127.0,4.882406151062867,69.53661884823941,72.29783223374176,-29.870065789473756,19.61788617886178,15.105726872246702,13.447058823529414,39.65612648221344,-0.49803921568627274,-6.195121951219521,3.4862745098039234,12.649402390438246,13.831954552999914,149.52593383374276,115.89388542534577,180.34525785679392,83.86510544984338,4691.975510835089,1
-100.96874607756999,-119.71291019846728,-127.0,4.882406151062867,69.53661884823941,72.29783223374176,-29.870065789473756,5.162601626016254,-15.105726872246692,-27.392156862745097,-26.604743083003953,-11.454901960784312,-7.227642276422774,-2.490196078431371,-3.5418326693227105,12.372475178621645,98.65030894321464,115.89388542534577,180.34525785679392,83.86510544984338,4691.975510835089,1
-114.74155893058868,-112.82511298879938,-124.59777026180635,26.870465852555412,55.467156290754346,58.532516493873686,-27.64199561403518,5.162601626016254,-15.105726872246692,-27.392156862745097,-26.604743083003953,-11.454901960784312,-7.227642276422774,-2.490196078431371,-3.5418326693227105,12.372475178621645,98.65030894321464,117.38814739373147,39.90218768685135,88.09778303438706,2846.237141780382,1
-114.74155893058868,-112.82511298879938,-124.59777026180635,26.870465852555412,55.467156290754346,58.532516493873686,-27.64199561403518,10.325203252032514,8.392070484581502,27.3921568627451,32.62845849802371,2.4901960784313744,-8.260162601626025,2.4901960784313744,4.5537848605577675,12.066528589553672,132.64910413199195,117.38814739373147,39.90218768685135,88.09778303438706,2846.237141780382,1
-114.74155893058868,-112.82511298879938,-124.59777026180635,26.870465852555412,55.467156290754346,58.532516493873686,-27.64199561403518,2.065040650406498,-21.819383259911888,8.466666666666669,7.5296442687747005,3.4862745098039234,-1.0325203252032615,0.4980392156862763,4.5537848605577675,6.181419219626373,48.17936074794757,117.38814739373147,39.90218768685135,88.09778303438706,2846.237141780382,1
-122.66411447219782,-108.5826292002358,-117.66153075284981,47.20425146992312,40.2993342027593,39.939365378573655,-23.18585526315792,2.065040650406498,-21.819383259911888,8.466666666666669,7.5296442687747005,3.4862745098039234,-1.0325203252032615,0.4980392156862763,4.5537848605577675,6.181419219626373,48.17936074794757,116.30275814176116,50.95675412260438,91.14947047433624,1468.9933183598885,1
-122.66411447219782,-108.5826292002358,-117.66153075284981,47.20425146992312,40.2993342027593,39.939365378573655,-23.18585526315792,-7.22764227642277,-20.700440528634356,-13.44705882352941,-11.545454545454549,-2.490196078431371,-9.769962616701378e-15,0.4980392156862763,1.5179282868525883,7.178344969376416,55.91315663978984,116.30275814176116,50.95675412260438,91.14947047433624,1468.9933183598885,1
