,Gyro 0,Gyro 1,Gyro 2,Label,Orientation 0,Orientation 1,Orientation 2,Orientation 3,Sensor 0,Sensor 1,Sensor 2,Sensor 3,Sensor 4,Sensor 5,Sensor 6,Sensor 7,Timestamp
0,-61.0,-3.0,11.0,0.0,-9082.0,-12398.0,4505.0,-3458.0,-1.0,-12.0,-6.0,3.0,-11.0,2.0,1.0,-1.0,2.384185791015625e-06
1,-61.0,-3.0,11.0,0.0,-9082.0,-12398.0,4505.0,-3458.0,3.0,-2.0,-18.0,-4.0,9.0,0.0,1.0,1.0,0.0029397010803222656
2,-61.0,-3.0,11.0,0.0,-9082.0,-12398.0,4505.0,-3458.0,6.0,5.0,3.0,0.0,22.0,4.0,0.0,1.0,0.00549006462097168
3,-46.0,4.0,18.0,0.0,-9086.0,-12393.0,4509.0,-3458.0,6.0,5.0,3.0,0.0,22.0,4.0,0.0,1.0,0.007853031158447266
4,-46.0,4.0,18.0,0.0,-9086.0,-12393.0,4509.0,-3458.0,-5.0,-9.0,-1.0,-5.0,-5.0,-2.0,-2.0,-5.0,0.010218620300292969
5,-46.0,4.0,18.0,0.0,-9086.0,-12393.0,4509.0,-3458.0,-11.0,4.0,28.0,4.0,-11.0,-4.0,-4.0,-8.0,0.012529134750366211
6,-32.0,-6.0,19.0,0.0,-9088.0,-12391.0,4514.0,-3457.0,-11.0,4.0,28.0,4.0,-11.0,-4.0,-4.0,-8.0,0.01484227180480957
7,-32.0,-6.0,19.0,0.0,-9088.0,-12391.0,4514.0,-3457.0,6.0,17.0,2.0,0.0,-3.0,-1.0,2.0,4.0,0.017266035079956055
8,-32.0,-6.0,19.0,0.0,-9088.0,-12391.0,4514.0,-3457.0,-2.0,-5.0,-2.0,3.0,7.0,1.0,-1.0,-3.0,0.019694089889526367
9,-49.0,11.0,24.0,0.0,-9093.0,-12387.0,4516.0,-3455.0,-2.0,-5.0,-2.0,3.0,7.0,1.0,-1.0,-3.0,0.022293567657470703
10,-49.0,11.0,24.0,0.0,-9093.0,-12387.0,4516.0,-3455.0,-4.0,-5.0,3.0,-1.0,-13.0,-5.0,2.0,1.0,0.02501845359802246
11,-49.0,11.0,24.0,0.0,-9093.0,-12387.0,4516.0,-3455.0,3.0,-5.0,-23.0,-5.0,-2.0,-5.0,-6.0,0.0,0.02736043930053711
12,-59.0,6.0,34.0,0.0,-9099.0,-12381.0,4522.0,-3454.0,3.0,-5.0,-23.0,-5.0,-2.0,-5.0,-6.0,0.0,0.029656410217285156
13,-59.0,6.0,34.0,0.0,-9099.0,-12381.0,4522.0,-3454.0,6.0,20.0,0.0,2.0,7.0,3.0,-2.0,2.0,0.03197073936462402
14,-59.0,6.0,34.0,0.0,-9099.0,-12381.0,4522.0,-3454.0,2.0,14.0,-15.0,-6.0,-2.0,-2.0,1.0,1.0,0.03421139717102051
15,-66.0,15.0,34.0,0.0,-9106.0,-12374.0,4527.0,-3453.0,2.0,14.0,-15.0,-6.0,-2.0,-2.0,1.0,1.0,0.03647303581237793
16,-66.0,15.0,34.0,0.0,-9106.0,-12374.0,4527.0,-3453.0,-8.0,-17.0,-1.0,3.0,10.0,4.0,-1.0,-7.0,0.0389251708984375
17,-66.0,15.0,34.0,0.0,-9106.0,-12374.0,4527.0,-3453.0,31.0,50.0,-9.0,-4.0,4.0,3.0,9.0,15.0,0.04120326042175293
18,-54.0,10.0,36.0,0.0,-9113.0,-12367.0,4531.0,-3454.0,31.0,50.0,-9.0,-4.0,4.0,3.0,9.0,15.0,0.043548583984375
19,-54.0,10.0,36.0,0.0,-9113.0,-12367.0,4531.0,-3454.0,-2.0,-9.0,-18.0,-8.0,-35.0,-9.0,-4.0,-3.0,0.045912981033325195
20,-54.0,10.0,36.0,0.0,-9113.0,-12367.0,4531.0,-3454.0,-13.0,-24.0,-5.0,-1.0,6.0,1.0,-4.0,-6.0,0.04815101623535156
21,-53.0,-2.0,33.0,0.0,-9119.0,-12362.0,4536.0,-3452.0,-13.0,-24.0,-5.0,-1.0,6.0,1.0,-4.0,-6.0,0.05042529106140137
22,-53.0,-2.0,33.0,0.0,-9119.0,-12362.0,4536.0,-3452.0,0.0,-1.0,3.0,1.0,9.0,3.0,1.0,0.0,0.053174734115600586
23,-53.0,-2.0,33.0,0.0,-9119.0,-12362.0,4536.0,-3452.0,-5.0,-11.0,5.0,1.0,-8.0,-2.0,-2.0,-3.0,0.055802106857299805
24,-61.0,-3.0,21.0,0.0,-9127.0,-12355.0,4541.0,-3449.0,-5.0,-11.0,5.0,1.0,-8.0,-2.0,-2.0,-3.0,0.05815553665161133
25,-61.0,-3.0,21.0,0.0,-9127.0,-12355.0,4541.0,-3449.0,13.0,22.0,-13.0,-3.0,2.0,3.0,2.0,9.0,0.06054997444152832
26,-61.0,-3.0,21.0,0.0,-9127.0,-12355.0,4541.0,-3449.0,-7.0,0.0,7.0,-3.0,2.0,-5.0,-5.0,-2.0,0.06280803680419922
27,-59.0,9.0,17.0,0.0,-9133.0,-12349.0,4544.0,-3448.0,-7.0,0.0,7.0,-3.0,2.0,-5.0,-5.0,-2.0,0.06526350975036621
28,-59.0,9.0,17.0,0.0,-9133.0,-12349.0,4544.0,-3448.0,-3.0,-2.0,9.0,4.0,7.0,-1.0,-2.0,0.0,0.06761407852172852
29,-59.0,9.0,17.0,0.0,-9133.0,-12349.0,4544.0,-3448.0,1.0,4.0,2.0,2.0,-5.0,2.0,0.0,-2.0,0.06988096237182617
30,-53.0,5.0,7.0,0.0,-9138.0,-12346.0,4546.0,-3445.0,1.0,4.0,2.0,2.0,-5.0,2.0,0.0,-2.0,0.07212042808532715
31,-53.0,5.0,7.0,0.0,-9138.0,-12346.0,4546.0,-3445.0,-11.0,-7.0,20.0,0.0,-1.0,-1.0,-4.0,-5.0,0.07450318336486816
32,-53.0,5.0,7.0,0.0,-9138.0,-12346.0,4546.0,-3445.0,0.0,0.0,20.0,0.0,-4.0,-3.0,-2.0,2.0,0.0768282413482666
33,-44.0,2.0,-5.0,0.0,-9142.0,-12344.0,4547.0,-3441.0,0.0,0.0,20.0,0.0,-4.0,-3.0,-2.0,2.0,0.07910823822021484
34,-44.0,2.0,-5.0,0.0,-9142.0,-12344.0,4547.0,-3441.0,4.0,-1.0,12.0,3.0,8.0,4.0,3.0,2.0,0.08145570755004883
35,-44.0,2.0,-5.0,0.0,-9142.0,-12344.0,4547.0,-3441.0,-9.0,-10.0,0.0,0.0,-2.0,-9.0,-4.0,-9.0,0.08414840698242188
36,-43.0,0.0,-7.0,0.0,-9147.0,-12341.0,4547.0,-3436.0,-9.0,-10.0,0.0,0.0,-2.0,-9.0,-4.0,-9.0,0.08677148818969727
37,-43.0,0.0,-7.0,0.0,-9147.0,-12341.0,4547.0,-3436.0,-4.0,-10.0,-4.0,-2.0,-10.0,-5.0,-6.0,-5.0,0.08913111686706543
38,-43.0,0.0,-7.0,0.0,-9147.0,-12341.0,4547.0,-3436.0,-4.0,-11.0,-2.0,3.0,14.0,5.0,1.0,-3.0,0.09140396118164062
39,-29.0,-2.0,-16.0,0.0,-9150.0,-12342.0,4545.0,-3430.0,-4.0,-11.0,-2.0,3.0,14.0,5.0,1.0,-3.0,0.09367990493774414
40,-29.0,-2.0,-16.0,0.0,-9150.0,-12342.0,4545.0,-3430.0,-5.0,-5.0,-3.0,-1.0,-8.0,2.0,-2.0,-1.0,0.09600687026977539
41,-29.0,-2.0,-16.0,0.0,-9150.0,-12342.0,4545.0,-3430.0,-4.0,-9.0,-23.0,-1.0,16.0,-9.0,2.0,3.0,0.09831118583679199
42,-13.0,-1.0,-11.0,0.0,-9150.0,-12342.0,4544.0,-3429.0,-4.0,-9.0,-23.0,-1.0,16.0,-9.0,2.0,3.0,0.10059261322021484
43,-13.0,-1.0,-11.0,0.0,-9150.0,-12342.0,4544.0,-3429.0,-5.0,3.0,6.0,-1.0,0.0,-3.0,-5.0,-7.0,0.10293245315551758
44,-13.0,-1.0,-11.0,0.0,-9150.0,-12342.0,4544.0,-3429.0,-5.0,-15.0,-6.0,-3.0,-4.0,2.0,3.0,4.0,0.10520339012145996
45,-31.0,4.0,-10.0,0.0,-9155.0,-12341.0,4542.0,-3423.0,-5.0,-15.0,-6.0,-3.0,-4.0,2.0,3.0,4.0,0.1074373722076416
46,-31.0,4.0,-10.0,0.0,-9155.0,-12341.0,4542.0,-3423.0,2.0,6.0,11.0,7.0,11.0,3.0,2.0,1.0,0.10975909233093262
47,-31.0,4.0,-10.0,0.0,-9155.0,-12341.0,4542.0,-3423.0,-1.0,5.0,7.0,-1.0,1.0,2.0,-1.0,-2.0,0.1120145320892334
48,-46.0,-2.0,-10.0,0.0,-9161.0,-12338.0,4541.0,-3417.0,-1.0,5.0,7.0,-1.0,1.0,2.0,-1.0,-2.0,0.11447715759277344
49,-46.0,-2.0,-10.0,0.0,-9161.0,-12338.0,4541.0,-3417.0,-3.0,4.0,9.0,-2.0,-37.0,-7.0,0.0,-3.0,0.1171419620513916
50,-46.0,-2.0,-10.0,0.0,-9161.0,-12338.0,4541.0,-3417.0,3.0,4.0,-9.0,-4.0,-6.0,-4.0,-2.0,-5.0,0.11950802803039551
51,-34.0,-11.0,-6.0,0.0,-9164.0,-12338.0,4541.0,-3411.0,3.0,4.0,-9.0,-4.0,-6.0,-4.0,-2.0,-5.0,0.12180495262145996
52,-34.0,-11.0,-6.0,0.0,-9164.0,-12338.0,4541.0,-3411.0,0.0,-3.0,-1.0,1.0,11.0,4.0,2.0,-2.0,0.12412238121032715
53,-34.0,-11.0,-6.0,0.0,-9164.0,-12338.0,4541.0,-3411.0,2.0,9.0,7.0,-1.0,-6.0,4.0,0.0,2.0,0.1263723373413086
54,-45.0,-6.0,-7.0,0.0,-9168.0,-12337.0,4541.0,-3403.0,2.0,9.0,7.0,-1.0,-6.0,4.0,0.0,2.0,0.12864184379577637
55,-45.0,-6.0,-7.0,0.0,-9168.0,-12337.0,4541.0,-3403.0,4.0,1.0,-10.0,-2.0,-6.0,-7.0,-8.0,-1.0,0.13095903396606445
56,-45.0,-6.0,-7.0,0.0,-9168.0,-12337.0,4541.0,-3403.0,-9.0,-14.0,-4.0,-3.0,1.0,3.0,-3.0,-5.0,0.13324737548828125
57,-49.0,0.0,-4.0,0.0,-9173.0,-12335.0,4541.0,-3397.0,-9.0,-14.0,-4.0,-3.0,1.0,3.0,-3.0,-5.0,0.13551878929138184
58,-49.0,0.0,-4.0,0.0,-9173.0,-12335.0,4541.0,-3397.0,3.0,-1.0,0.0,1.0,-1.0,-2.0,3.0,1.0,0.13791489601135254
59,-49.0,0.0,-4.0,0.0,-9173.0,-12335.0,4541.0,-3397.0,-2.0,-6.0,7.0,2.0,-17.0,-6.0,-1.0,-1.0,0.1401510238647461
60,-34.0,5.0,-3.0,0.0,-9178.0,-12333.0,4540.0,-3393.0,-2.0,-6.0,7.0,2.0,-17.0,-6.0,-1.0,-1.0,0.14240288734436035
61,-34.0,5.0,-3.0,0.0,-9178.0,-12333.0,4540.0,-3393.0,0.0,4.0,17.0,0.0,24.0,9.0,3.0,-1.0,0.14479470252990723
62,-34.0,5.0,-3.0,0.0,-9178.0,-12333.0,4540.0,-3393.0,0.0,8.0,6.0,-3.0,-7.0,-4.0,-2.0,-1.0,0.14731669425964355
63,-41.0,4.0,2.0,0.0,-9183.0,-12331.0,4539.0,-3388.0,0.0,8.0,6.0,-3.0,-7.0,-4.0,-2.0,-1.0,0.14986395835876465
64,-41.0,4.0,2.0,0.0,-9183.0,-12331.0,4539.0,-3388.0,-2.0,-5.0,-16.0,-4.0,2.0,0.0,-3.0,4.0,0.15221524238586426
65,-41.0,4.0,2.0,0.0,-9183.0,-12331.0,4539.0,-3388.0,6.0,-1.0,3.0,-1.0,-4.0,3.0,5.0,5.0,0.1544630527496338
66,-67.0,6.0,10.0,0.0,-9194.0,-12324.0,4539.0,-3381.0,6.0,-1.0,3.0,-1.0,-4.0,3.0,5.0,5.0,0.156691312789917
67,-67.0,6.0,10.0,0.0,-9194.0,-12324.0,4539.0,-3381.0,-3.0,3.0,2.0,0.0,-3.0,-12.0,-1.0,-3.0,0.15923237800598145
68,-67.0,6.0,10.0,0.0,-9194.0,-12324.0,4539.0,-3381.0,-5.0,-14.0,-19.0,0.0,-4.0,0.0,-5.0,-1.0,0.16145825386047363
69,-75.0,-5.0,20.0,0.0,-9204.0,-12317.0,4542.0,-3376.0,-5.0,-14.0,-19.0,0.0,-4.0,0.0,-5.0,-1.0,0.16368794441223145
70,-75.0,-5.0,20.0,0.0,-9204.0,-12317.0,4542.0,-3376.0,6.0,-1.0,-18.0,-3.0,22.0,11.0,1.0,5.0,0.1660017967224121
71,-75.0,-5.0,20.0,0.0,-9204.0,-12317.0,4542.0,-3376.0,-5.0,-3.0,2.0,1.0,-9.0,-2.0,1.0,-2.0,0.16858530044555664
72,-89.0,-8.0,13.0,0.0,-9216.0,-12309.0,4546.0,-3369.0,-5.0,-3.0,2.0,1.0,-9.0,-2.0,1.0,-2.0,0.17091989517211914
73,-89.0,-8.0,13.0,0.0,-9216.0,-12309.0,4546.0,-3369.0,-1.0,14.0,5.0,-2.0,8.0,-4.0,-1.0,-3.0,0.17331862449645996
74,-89.0,-8.0,13.0,0.0,-9216.0,-12309.0,4546.0,-3369.0,4.0,8.0,14.0,2.0,4.0,2.0,1.0,2.0,0.17560696601867676
75,-68.0,-9.0,15.0,0.0,-9223.0,-12303.0,4551.0,-3365.0,4.0,8.0,14.0,2.0,4.0,2.0,1.0,2.0,0.17812752723693848
76,-68.0,-9.0,15.0,0.0,-9223.0,-12303.0,4551.0,-3365.0,-8.0,-14.0,-9.0,-3.0,-10.0,-2.0,-2.0,-6.0,0.180769681930542
77,-68.0,-9.0,15.0,0.0,-9223.0,-12303.0,4551.0,-3365.0,-6.0,-15.0,-8.0,0.0,6.0,1.0,-2.0,-7.0,0.1830754280090332
78,-50.0,-5.0,14.0,0.0,-9229.0,-12298.0,4555.0,-3362.0,-6.0,-15.0,-8.0,0.0,6.0,1.0,-2.0,-7.0,0.18534016609191895
79,-50.0,-5.0,14.0,0.0,-9229.0,-12298.0,4555.0,-3362.0,9.0,20.0,9.0,0.0,-4.0,1.0,3.0,7.0,0.1876533031463623
80,-50.0,-5.0,14.0,0.0,-9229.0,-12298.0,4555.0,-3362.0,-1.0,-4.0,2.0,-3.0,-6.0,-2.0,-4.0,0.0,0.18993878364562988
81,-46.0,-2.0,10.0,0.0,-9233.0,-12294.0,4558.0,-3360.0,-1.0,-4.0,2.0,-3.0,-6.0,-2.0,-4.0,0.0,0.19216704368591309
82,-46.0,-2.0,10.0,0.0,-9233.0,-12294.0,4558.0,-3360.0,2.0,-1.0,-22.0,-4.0,-5.0,-2.0,-2.0,-1.0,0.19453668594360352
83,-46.0,-2.0,10.0,0.0,-9233.0,-12294.0,4558.0,-3360.0,-2.0,2.0,-10.0,-1.0,0.0,6.0,0.0,-1.0,0.19683337211608887
84,-24.0,4.0,4.0,0.0,-9234.0,-12293.0,4559.0,-3358.0,-2.0,2.0,-10.0,-1.0,0.0,6.0,0.0,-1.0,0.19910049438476562
85,-24.0,4.0,4.0,0.0,-9234.0,-12293.0,4559.0,-3358.0,-7.0,-12.0,10.0,2.0,-12.0,-10.0,-5.0,-4.0,0.20141148567199707
86,-24.0,4.0,4.0,0.0,-9234.0,-12293.0,4559.0,-3358.0,-4.0,-9.0,-3.0,-5.0,-16.0,-5.0,-3.0,2.0,0.20363950729370117
87,-23.0,6.0,8.0,0.0,-9237.0,-12293.0,4559.0,-3355.0,-4.0,-9.0,-3.0,-5.0,-16.0,-5.0,-3.0,2.0,0.20590615272521973
88,-23.0,6.0,8.0,0.0,-9237.0,-12293.0,4559.0,-3355.0,-3.0,5.0,14.0,0.0,10.0,2.0,1.0,-1.0,0.20840692520141602
89,-23.0,6.0,8.0,0.0,-9237.0,-12293.0,4559.0,-3355.0,-1.0,0.0,-7.0,-1.0,4.0,0.0,3.0,0.0,0.21098852157592773
90,-29.0,-4.0,0.0,0.0,-9240.0,-12292.0,4558.0,-3349.0,-1.0,0.0,-7.0,-1.0,4.0,0.0,3.0,0.0,0.21335887908935547
91,-29.0,-4.0,0.0,0.0,-9240.0,-12292.0,4558.0,-3349.0,3.0,-4.0,-10.0,-5.0,-3.0,0.0,-1.0,-5.0,0.21567940711975098
92,-29.0,-4.0,0.0,0.0,-9240.0,-12292.0,4558.0,-3349.0,5.0,0.0,5.0,1.0,4.0,0.0,-2.0,-4.0,0.21795272827148438
93,-58.0,-3.0,9.0,0.0,-9246.0,-12289.0,4559.0,-3342.0,5.0,0.0,5.0,1.0,4.0,0.0,-2.0,-4.0,0.2202005386352539
94,-58.0,-3.0,9.0,0.0,-9246.0,-12289.0,4559.0,-3342.0,-7.0,-24.0,-28.0,0.0,0.0,2.0,-4.0,-3.0,0.22255897521972656
95,-58.0,-3.0,9.0,0.0,-9246.0,-12289.0,4559.0,-3342.0,-15.0,-23.0,-19.0,-6.0,-10.0,-8.0,-2.0,-1.0,0.22482872009277344
96,-50.0,0.0,21.0,0.0,-9251.0,-12284.0,4562.0,-3339.0,-15.0,-23.0,-19.0,-6.0,-10.0,-8.0,-2.0,-1.0,0.22710275650024414
97,-50.0,0.0,21.0,0.0,-9251.0,-12284.0,4562.0,-3339.0,-5.0,-2.0,2.0,6.0,2.0,5.0,-3.0,-2.0,0.22945809364318848
98,-50.0,0.0,21.0,0.0,-9251.0,-12284.0,4562.0,-3339.0,4.0,3.0,-13.0,3.0,-10.0,-11.0,-7.0,-1.0,0.23170828819274902
99,-39.0,-4.0,24.0,0.0,-9254.0,-12281.0,4567.0,-3337.0,4.0,3.0,-13.0,3.0,-10.0,-11.0,-7.0,-1.0,0.2341153621673584
100,-39.0,-4.0,24.0,0.0,-9254.0,-12281.0,4567.0,-3337.0,4.0,-2.0,-1.0,1.0,8.0,5.0,5.0,7.0,0.2364518642425537
101,-39.0,-4.0,24.0,0.0,-9254.0,-12281.0,4567.0,-3337.0,-1.0,-1.0,-12.0,-6.0,-1.0,2.0,2.0,-1.0,0.2388300895690918
102,-37.0,-9.0,26.0,0.0,-9256.0,-12278.0,4573.0,-3335.0,-1.0,-1.0,-12.0,-6.0,-1.0,2.0,2.0,-1.0,0.24136114120483398
103,-37.0,-9.0,26.0,0.0,-9256.0,-12278.0,4573.0,-3335.0,0.0,-9.0,-8.0,-2.0,-3.0,-2.0,2.0,6.0,0.24399089813232422
104,-37.0,-9.0,26.0,0.0,-9256.0,-12278.0,4573.0,-3335.0,4.0,0.0,2.0,-6.0,3.0,-2.0,-2.0,3.0,0.2462599277496338
105,-35.0,-19.0,36.0,0.0,-9255.0,-12276.0,4581.0,-3333.0,4.0,0.0,2.0,-6.0,3.0,-2.0,-2.0,3.0,0.24850010871887207
106,-35.0,-19.0,36.0,0.0,-9255.0,-12276.0,4581.0,-3333.0,-7.0,-4.0,30.0,8.0,-5.0,-4.0,-1.0,-7.0,0.2508218288421631
107,-35.0,-19.0,36.0,0.0,-9255.0,-12276.0,4581.0,-3333.0,4.0,9.0,-11.0,-2.0,9.0,10.0,2.0,2.0,0.25315070152282715
108,-33.0,-35.0,38.0,0.0,-9252.0,-12276.0,4592.0,-3329.0,4.0,9.0,-11.0,-2.0,9.0,10.0,2.0,2.0,0.2554619312286377
109,-33.0,-35.0,38.0,0.0,-9252.0,-12276.0,4592.0,-3329.0,6.0,11.0,23.0,1.0,-26.0,-14.0,-6.0,1.0,0.25792741775512695
110,-33.0,-35.0,38.0,0.0,-9252.0,-12276.0,4592.0,-3329.0,5.0,19.0,13.0,0.0,2.0,0.0,3.0,-3.0,0.2601969242095947
111,-52.0,-43.0,41.0,0.0,-9252.0,-12273.0,4604.0,-3323.0,5.0,19.0,13.0,0.0,2.0,0.0,3.0,-3.0,0.26244163513183594
112,-52.0,-43.0,41.0,0.0,-9252.0,-12273.0,4604.0,-3323.0,-7.0,-11.0,-7.0,-2.0,10.0,12.0,0.0,-2.0,0.26475071907043457
113,-52.0,-43.0,41.0,0.0,-9252.0,-12273.0,4604.0,-3323.0,4.0,0.0,2.0,6.0,-14.0,-15.0,-10.0,-5.0,0.26700544357299805
114,-45.0,-46.0,43.0,0.0,-9250.0,-12270.0,4618.0,-3319.0,4.0,0.0,2.0,6.0,-14.0,-15.0,-10.0,-5.0,0.26929378509521484
115,-45.0,-46.0,43.0,0.0,-9250.0,-12270.0,4618.0,-3319.0,7.0,16.0,-10.0,-2.0,7.0,3.0,0.0,3.0,0.2718517780303955
116,-45.0,-46.0,43.0,0.0,-9250.0,-12270.0,4618.0,-3319.0,-4.0,-6.0,19.0,1.0,12.0,3.0,8.0,2.0,0.2744414806365967
117,-37.0,-30.0,31.0,0.0,-9248.0,-12268.0,4629.0,-3317.0,-4.0,-6.0,19.0,1.0,12.0,3.0,8.0,2.0,0.2768430709838867
118,-37.0,-30.0,31.0,0.0,-9248.0,-12268.0,4629.0,-3317.0,0.0,-7.0,-25.0,-1.0,-5.0,3.0,-3.0,-2.0,0.2792394161224365
119,-37.0,-30.0,31.0,0.0,-9248.0,-12268.0,4629.0,-3317.0,3.0,-2.0,12.0,2.0,-16.0,-8.0,-4.0,6.0,0.2814631462097168
120,-22.0,-22.0,45.0,0.0,-9244.0,-12268.0,4639.0,-3315.0,3.0,-2.0,12.0,2.0,-16.0,-8.0,-4.0,6.0,0.2837345600128174
121,-22.0,-22.0,45.0,0.0,-9244.0,-12268.0,4639.0,-3315.0,-2.0,2.0,-3.0,-5.0,5.0,0.0,-1.0,-2.0,0.2860531806945801
122,-22.0,-22.0,45.0,0.0,-9244.0,-12268.0,4639.0,-3315.0,-4.0,2.0,7.0,1.0,11.0,1.0,4.0,-1.0,0.28829216957092285
123,40.0,-27.0,42.0,0.0,-9236.0,-12271.0,4645.0,-3317.0,-4.0,2.0,7.0,1.0,11.0,1.0,4.0,-1.0,0.29518985748291016
124,40.0,-27.0,42.0,0.0,-9236.0,-12271.0,4645.0,-3317.0,-5.0,2.0,22.0,-1.0,-8.0,-7.0,-1.0,-5.0,0.29752063751220703
125,40.0,-27.0,42.0,0.0,-9236.0,-12271.0,4645.0,-3317.0,-5.0,-13.0,-23.0,-1.0,9.0,5.0,2.0,0.0,0.30169129371643066
126,3.0,-15.0,21.0,0.0,-9234.0,-12272.0,4647.0,-3314.0,-5.0,-13.0,-23.0,-1.0,9.0,5.0,2.0,0.0,0.3183445930480957
127,3.0,-15.0,21.0,0.0,-9234.0,-12272.0,4647.0,-3314.0,-5.0,3.0,1.0,-2.0,16.0,-2.0,-3.0,-5.0,0.32065773010253906
128,3.0,-15.0,21.0,0.0,-9234.0,-12272.0,4647.0,-3314.0,10.0,13.0,6.0,5.0,9.0,-3.0,4.0,14.0,0.32292723655700684
129,54.0,-38.0,-14.0,0.0,-9226.0,-12281.0,4646.0,-3308.0,10.0,13.0,6.0,5.0,9.0,-3.0,4.0,14.0,0.3409874439239502
130,54.0,-38.0,-14.0,0.0,-9226.0,-12281.0,4646.0,-3308.0,6.0,-3.0,-36.0,-6.0,-10.0,-2.0,-2.0,0.0,0.34331297874450684
131,54.0,-38.0,-14.0,0.0,-9226.0,-12281.0,4646.0,-3308.0,0.0,8.0,5.0,-2.0,-1.0,5.0,-1.0,-5.0,0.3455772399902344
132,20.0,-27.0,37.0,0.0,-9223.0,-12282.0,4649.0,-3306.0,0.0,8.0,5.0,-2.0,-1.0,5.0,-1.0,-5.0,0.3551521301269531
133,20.0,-27.0,37.0,0.0,-9223.0,-12282.0,4649.0,-3306.0,5.0,-8.0,-17.0,3.0,2.0,-1.0,3.0,3.0,0.357494592666626
134,20.0,-27.0,37.0,0.0,-9223.0,-12282.0,4649.0,-3306.0,-8.0,-9.0,4.0,0.0,18.0,5.0,-4.0,-9.0,0.3621218204498291
135,1.0,-23.0,5.0,0.0,-9223.0,-12284.0,4650.0,-3300.0,-8.0,-9.0,4.0,0.0,18.0,5.0,-4.0,-9.0,0.37941646575927734
136,1.0,-23.0,5.0,0.0,-9223.0,-12284.0,4650.0,-3300.0,-5.0,6.0,27.0,-2.0,-2.0,-4.0,-2.0,-7.0,0.3835020065307617
137,1.0,-23.0,5.0,0.0,-9223.0,-12284.0,4650.0,-3300.0,-1.0,12.0,29.0,-3.0,5.0,4.0,-2.0,-6.0,0.3883066177368164
138,-11.0,-32.0,21.0,0.0,-9223.0,-12284.0,4654.0,-3294.0,-1.0,12.0,29.0,-3.0,5.0,4.0,-2.0,-6.0,0.4017033576965332
139,-11.0,-32.0,21.0,0.0,-9223.0,-12284.0,4654.0,-3294.0,2.0,-12.0,-12.0,0.0,11.0,-4.0,-1.0,3.0,0.4061131477355957
140,-11.0,-32.0,21.0,0.0,-9223.0,-12284.0,4654.0,-3294.0,0.0,3.0,-3.0,-1.0,0.0,2.0,-3.0,-5.0,0.41029906272888184
141,-24.0,-25.0,12.0,0.0,-9224.0,-12283.0,4658.0,-3289.0,0.0,3.0,-3.0,-1.0,0.0,2.0,-3.0,-5.0,0.41571712493896484
142,-24.0,-25.0,12.0,0.0,-9224.0,-12283.0,4658.0,-3289.0,-7.0,-14.0,11.0,-4.0,-5.0,-1.0,0.0,0.0,0.41806507110595703
143,-24.0,-25.0,12.0,0.0,-9224.0,-12283.0,4658.0,-3289.0,-2.0,-4.0,-6.0,3.0,9.0,1.0,-2.0,-3.0,0.4296596050262451
144,-31.0,-19.0,21.0,0.0,-9226.0,-12280.0,4662.0,-3285.0,-2.0,-4.0,-6.0,3.0,9.0,1.0,-2.0,-3.0,0.43860411643981934
145,-31.0,-19.0,21.0,0.0,-9226.0,-12280.0,4662.0,-3285.0,-8.0,-4.0,9.0,1.0,0.0,0.0,0.0,-2.0,0.4409360885620117
146,-31.0,-19.0,21.0,0.0,-9226.0,-12280.0,4662.0,-3285.0,4.0,16.0,-12.0,-7.0,-11.0,4.0,4.0,2.0,0.4431638717651367
147,-16.0,-11.0,25.0,0.0,-9227.0,-12278.0,4667.0,-3284.0,4.0,16.0,-12.0,-7.0,-11.0,4.0,4.0,2.0,0.4607508182525635
148,-16.0,-11.0,25.0,0.0,-9227.0,-12278.0,4667.0,-3284.0,0.0,3.0,-3.0,-7.0,-18.0,-5.0,-1.0,1.0,0.4635014533996582
149,-16.0,-11.0,25.0,0.0,-9227.0,-12278.0,4667.0,-3284.0,3.0,4.0,-15.0,-4.0,-19.0,-3.0,-4.0,-2.0,0.46591854095458984
150,-15.0,-5.0,27.0,0.0,-9227.0,-12277.0,4670.0,-3283.0,3.0,4.0,-15.0,-4.0,-19.0,-3.0,-4.0,-2.0,0.4838435649871826
151,-15.0,-5.0,27.0,0.0,-9227.0,-12277.0,4670.0,-3283.0,12.0,7.0,-13.0,-3.0,8.0,4.0,10.0,7.0,0.48623037338256836
152,-15.0,-5.0,27.0,0.0,-9227.0,-12277.0,4670.0,-3283.0,-10.0,0.0,21.0,4.0,4.0,-6.0,4.0,-6.0,0.48847270011901855
153,-10.0,-11.0,19.0,0.0,-9227.0,-12276.0,4674.0,-3282.0,-10.0,0.0,21.0,4.0,4.0,-6.0,4.0,-6.0,0.5059826374053955
154,-10.0,-11.0,19.0,0.0,-9227.0,-12276.0,4674.0,-3282.0,-1.0,2.0,-2.0,1.0,1.0,-3.0,-11.0,-6.0,0.5083138942718506
155,-10.0,-11.0,19.0,0.0,-9227.0,-12276.0,4674.0,-3282.0,0.0,3.0,-5.0,2.0,-4.0,-1.0,-2.0,0.0,0.5105447769165039
156,-17.0,-11.0,23.0,0.0,-9227.0,-12275.0,4678.0,-3281.0,0.0,3.0,-5.0,2.0,-4.0,-1.0,-2.0,0.0,0.5213830471038818
157,-17.0,-11.0,23.0,0.0,-9227.0,-12275.0,4678.0,-3281.0,-10.0,-15.0,5.0,2.0,8.0,4.0,-4.0,-4.0,0.5240681171417236
158,-17.0,-11.0,23.0,0.0,-9227.0,-12275.0,4678.0,-3281.0,5.0,7.0,19.0,-4.0,-9.0,-19.0,-1.0,1.0,0.52659010887146
159,-21.0,-9.0,19.0,0.0,-9229.0,-12272.0,4682.0,-3280.0,5.0,7.0,19.0,-4.0,-9.0,-19.0,-1.0,1.0,0.5435090065002441
160,-21.0,-9.0,19.0,0.0,-9229.0,-12272.0,4682.0,-3280.0,8.0,9.0,19.0,3.0,-4.0,-2.0,3.0,8.0,0.5458829402923584
161,-21.0,-9.0,19.0,0.0,-9229.0,-12272.0,4682.0,-3280.0,-8.0,0.0,2.0,-4.0,8.0,7.0,-4.0,-7.0,0.5481622219085693
162,-1.0,-4.0,23.0,0.0,-9227.0,-12271.0,4686.0,-3282.0,-8.0,0.0,2.0,-4.0,8.0,7.0,-4.0,-7.0,0.5659856796264648
163,-1.0,-4.0,23.0,0.0,-9227.0,-12271.0,4686.0,-3282.0,3.0,7.0,0.0,-6.0,-4.0,-3.0,0.0,0.0,0.5683140754699707
164,-1.0,-4.0,23.0,0.0,-9227.0,-12271.0,4686.0,-3282.0,-1.0,-10.0,-14.0,-6.0,3.0,-6.0,-1.0,-3.0,0.5706043243408203
165,-2.0,-2.0,26.0,0.0,-9226.0,-12271.0,4689.0,-3282.0,-1.0,-10.0,-14.0,-6.0,3.0,-6.0,-1.0,-3.0,0.5805096626281738
166,-2.0,-2.0,26.0,0.0,-9226.0,-12271.0,4689.0,-3282.0,-4.0,-13.0,-2.0,7.0,-7.0,4.0,5.0,-3.0,0.5828647613525391
167,-2.0,-2.0,26.0,0.0,-9226.0,-12271.0,4689.0,-3282.0,-1.0,-21.0,-4.0,4.0,-8.0,10.0,-1.0,4.0,0.5872769355773926
168,-20.0,1.0,25.0,0.0,-9228.0,-12269.0,4691.0,-3282.0,-1.0,-21.0,-4.0,4.0,-8.0,10.0,-1.0,4.0,0.6031644344329834
169,-20.0,1.0,25.0,0.0,-9228.0,-12269.0,4691.0,-3282.0,8.0,8.0,-7.0,-6.0,-25.0,-11.0,-1.0,2.0,0.6054782867431641
170,-20.0,1.0,25.0,0.0,-9228.0,-12269.0,4691.0,-3282.0,-8.0,-9.0,3.0,5.0,7.0,2.0,-2.0,3.0,0.6077358722686768
171,-19.0,4.0,22.0,0.0,-9230.0,-12266.0,4694.0,-3282.0,-8.0,-9.0,3.0,5.0,7.0,2.0,-2.0,3.0,0.6267275810241699
172,-19.0,4.0,22.0,0.0,-9230.0,-12266.0,4694.0,-3282.0,7.0,34.0,23.0,-4.0,9.0,-3.0,-2.0,3.0,0.6307868957519531
173,-19.0,4.0,22.0,0.0,-9230.0,-12266.0,4694.0,-3282.0,2.0,-3.0,-2.0,2.0,-7.0,5.0,4.0,1.0,0.6346900463104248
174,4.0,-1.0,10.0,0.0,-9230.0,-12266.0,4693.0,-3282.0,2.0,-3.0,-2.0,2.0,-7.0,5.0,4.0,1.0,0.649383544921875
175,4.0,-1.0,10.0,0.0,-9230.0,-12266.0,4693.0,-3282.0,-8.0,-23.0,-10.0,5.0,9.0,11.0,-3.0,-3.0,0.6521222591400146
176,4.0,-1.0,10.0,0.0,-9230.0,-12266.0,4693.0,-3282.0,-12.0,-19.0,-18.0,-6.0,-19.0,-9.0,-6.0,-9.0,0.6546995639801025
177,31.0,-21.0,-12.0,0.0,-9228.0,-12269.0,4691.0,-3278.0,-12.0,-19.0,-18.0,-6.0,-19.0,-9.0,-6.0,-9.0,0.6631345748901367
178,31.0,-21.0,-12.0,0.0,-9228.0,-12269.0,4691.0,-3278.0,1.0,-7.0,-23.0,-3.0,-1.0,-7.0,-16.0,3.0,0.6654622554779053
179,31.0,-21.0,-12.0,0.0,-9228.0,-12269.0,4691.0,-3278.0,-4.0,4.0,-8.0,0.0,-9.0,1.0,-10.0,-5.0,0.669731616973877
180,57.0,-22.0,-47.0,0.0,-9225.0,-12276.0,4684.0,-3275.0,-4.0,4.0,-8.0,0.0,-9.0,1.0,-10.0,-5.0,0.6868002414703369
181,57.0,-22.0,-47.0,0.0,-9225.0,-12276.0,4684.0,-3275.0,18.0,31.0,-8.0,-1.0,-25.0,4.0,31.0,9.0,0.6893925666809082
182,57.0,-22.0,-47.0,0.0,-9225.0,-12276.0,4684.0,-3275.0,25.0,55.0,27.0,-11.0,34.0,0.0,5.0,18.0,0.6917252540588379
183,125.0,-39.0,-127.0,0.0,-9212.0,-12295.0,4665.0,-3264.0,25.0,55.0,27.0,-11.0,34.0,0.0,5.0,18.0,0.708176851272583
184,125.0,-39.0,-127.0,0.0,-9212.0,-12295.0,4665.0,-3264.0,-9.0,-3.0,22.0,-11.0,-22.0,-3.0,0.0,-3.0,0.710533857345581
185,125.0,-39.0,-127.0,0.0,-9212.0,-12295.0,4665.0,-3264.0,-6.0,-21.0,-5.0,3.0,8.0,5.0,22.0,6.0,0.712813138961792
186,123.0,-41.0,-211.0,0.0,-9204.0,-12317.0,4636.0,-3244.0,-6.0,-21.0,-5.0,3.0,8.0,5.0,22.0,6.0,0.7233409881591797
187,123.0,-41.0,-211.0,0.0,-9204.0,-12317.0,4636.0,-3244.0,-5.0,-10.0,-66.0,-32.0,-3.0,-24.0,7.0,-6.0,0.7256731986999512
188,123.0,-41.0,-211.0,0.0,-9204.0,-12317.0,4636.0,-3244.0,6.0,17.0,33.0,9.0,30.0,-13.0,-17.0,3.0,0.72792649269104
189,116.0,2.0,-337.0,0.0,-9204.0,-12344.0,4584.0,-3216.0,6.0,17.0,33.0,9.0,30.0,-13.0,-17.0,3.0,0.7467241287231445
190,116.0,2.0,-337.0,0.0,-9204.0,-12344.0,4584.0,-3216.0,37.0,107.0,52.0,-53.0,24.0,12.0,0.0,9.0,0.7511680126190186
191,116.0,2.0,-337.0,0.0,-9204.0,-12344.0,4584.0,-3216.0,-9.0,0.0,-37.0,10.0,34.0,8.0,-14.0,-12.0,0.7551488876342773
192,74.0,-11.0,-507.0,0.0,-9218.0,-12372.0,4512.0,-3170.0,-9.0,0.0,-37.0,10.0,34.0,8.0,-14.0,-12.0,0.7596604824066162
193,74.0,-11.0,-507.0,0.0,-9218.0,-12372.0,4512.0,-3170.0,-1.0,-36.0,-53.0,-3.0,-29.0,8.0,-3.0,-2.0,0.767878532409668
194,74.0,-11.0,-507.0,0.0,-9218.0,-12372.0,4512.0,-3170.0,3.0,-13.0,40.0,-6.0,-21.0,-27.0,-13.0,-2.0,0.7702460289001465
195,38.0,-36.0,-703.0,0.0,-9240.0,-12408.0,4419.0,-3099.0,3.0,-13.0,40.0,-6.0,-21.0,-27.0,-13.0,-2.0,0.7848398685455322
196,38.0,-36.0,-703.0,0.0,-9240.0,-12408.0,4419.0,-3099.0,-15.0,-31.0,17.0,11.0,9.0,2.0,-6.0,-9.0,0.7894308567047119
197,38.0,-36.0,-703.0,0.0,-9240.0,-12408.0,4419.0,-3099.0,-10.0,-47.0,-61.0,5.0,0.0,15.0,-6.0,-1.0,0.7936491966247559
198,-28.0,-78.0,-794.0,0.0,-9287.0,-12435.0,4308.0,-3003.0,-10.0,-47.0,-61.0,5.0,0.0,15.0,-6.0,-1.0,0.8069117069244385
199,-28.0,-78.0,-794.0,0.0,-9287.0,-12435.0,4308.0,-3003.0,-20.0,-47.0,8.0,26.0,0.0,-19.0,-22.0,-8.0,0.8123888969421387
200,-28.0,-78.0,-794.0,0.0,-9287.0,-12435.0,4308.0,-3003.0,-11.0,-30.0,-19.0,-22.0,-7.0,-5.0,4.0,-6.0,0.8171226978302002
201,-176.0,-156.0,-808.0,0.0,-9364.0,-12445.0,4196.0,-2877.0,-11.0,-30.0,-19.0,-22.0,-7.0,-5.0,4.0,-6.0,0.8200130462646484
202,-176.0,-156.0,-808.0,0.0,-9364.0,-12445.0,4196.0,-2877.0,-10.0,-23.0,7.0,13.0,34.0,9.0,3.0,-3.0,0.8279988765716553
203,-176.0,-156.0,-808.0,0.0,-9364.0,-12445.0,4196.0,-2877.0,3.0,4.0,-6.0,-1.0,15.0,4.0,3.0,-1.0,0.8302268981933594
204,-570.0,-136.0,-834.0,0.0,-9516.0,-12407.0,4073.0,-2717.0,3.0,4.0,-6.0,-1.0,15.0,4.0,3.0,-1.0,0.8449726104736328
205,-570.0,-136.0,-834.0,0.0,-9516.0,-12407.0,4073.0,-2717.0,-19.0,-33.0,-8.0,25.0,5.0,14.0,1.0,-3.0,0.8490595817565918
206,-570.0,-136.0,-834.0,0.0,-9516.0,-12407.0,4073.0,-2717.0,3.0,-1.0,1.0,8.0,-30.0,-7.0,1.0,1.0,0.8529441356658936
207,-741.0,-56.0,-810.0,0.0,-9712.0,-12338.0,3928.0,-2545.0,3.0,-1.0,1.0,8.0,-30.0,-7.0,1.0,1.0,0.8662338256835938
208,-741.0,-56.0,-810.0,0.0,-9712.0,-12338.0,3928.0,-2545.0,-1.0,10.0,1.0,-7.0,-7.0,4.0,-1.0,-3.0,0.8685531616210938
209,-741.0,-56.0,-810.0,0.0,-9712.0,-12338.0,3928.0,-2545.0,5.0,6.0,-1.0,7.0,-39.0,-28.0,0.0,0.0,0.8709630966186523
210,-918.0,124.0,-676.0,0.0,-9947.0,-12236.0,3762.0,-2374.0,5.0,6.0,-1.0,7.0,-39.0,-28.0,0.0,0.0,0.8794276714324951
211,-918.0,124.0,-676.0,0.0,-9947.0,-12236.0,3762.0,-2374.0,-9.0,-11.0,8.0,6.0,14.0,-2.0,-3.0,-6.0,0.887676477432251
212,-918.0,124.0,-676.0,0.0,-9947.0,-12236.0,3762.0,-2374.0,2.0,-10.0,11.0,4.0,7.0,15.0,5.0,3.0,0.8899507522583008
213,-1265.0,152.0,-830.0,0.0,-10269.0,-12079.0,3537.0,-2143.0,2.0,-10.0,11.0,4.0,7.0,15.0,5.0,3.0,0.9056999683380127
214,-1265.0,152.0,-830.0,0.0,-10269.0,-12079.0,3537.0,-2143.0,7.0,9.0,12.0,0.0,-12.0,-6.0,1.0,16.0,0.9104666709899902
215,-1265.0,152.0,-830.0,0.0,-10269.0,-12079.0,3537.0,-2143.0,-19.0,-11.0,-17.0,-17.0,-13.0,3.0,1.0,-14.0,0.9142630100250244
216,-1609.0,-18.0,-1112.0,0.0,-10504.0,-11939.0,3429.0,-1954.0,-19.0,-11.0,-17.0,-17.0,-13.0,3.0,1.0,-14.0,0.9270122051239014
217,-1609.0,-18.0,-1112.0,0.0,-10504.0,-11939.0,3429.0,-1954.0,17.0,45.0,77.0,8.0,-2.0,0.0,8.0,28.0,0.931654691696167
218,-1609.0,-18.0,-1112.0,0.0,-10504.0,-11939.0,3429.0,-1954.0,24.0,25.0,6.0,0.0,0.0,8.0,0.0,15.0,0.9368863105773926
219,-1773.0,-95.0,-1589.0,0.0,-10762.0,-11794.0,3270.0,-1693.0,24.0,25.0,6.0,0.0,0.0,8.0,0.0,15.0,0.9401454925537109
220,-1773.0,-95.0,-1589.0,0.0,-10762.0,-11794.0,3270.0,-1693.0,-28.0,11.0,12.0,-7.0,-4.0,-5.0,-7.0,-20.0,0.9480242729187012
221,-1773.0,-95.0,-1589.0,0.0,-10762.0,-11794.0,3270.0,-1693.0,-11.0,-8.0,-10.0,-5.0,-11.0,1.0,-1.0,-12.0,0.9503424167633057
222,-1857.0,-53.0,-2230.0,0.0,-11046.0,-11646.0,3002.0,-1338.0,-11.0,-8.0,-10.0,-5.0,-11.0,1.0,-1.0,-12.0,0.963552713394165
223,-1857.0,-53.0,-2230.0,0.0,-11046.0,-11646.0,3002.0,-1338.0,-1.0,-1.0,-7.0,4.0,-2.0,-1.0,-3.0,2.0,0.9660639762878418
224,-1857.0,-53.0,-2230.0,0.0,-11046.0,-11646.0,3002.0,-1338.0,12.0,17.0,0.0,-2.0,17.0,4.0,1.0,4.0,0.9687795639038086
225,-2295.0,21.0,-3042.0,0.0,-11371.0,-11464.0,2634.0,-887.0,12.0,17.0,0.0,-2.0,17.0,4.0,1.0,4.0,0.9860460758209229
226,-2295.0,21.0,-3042.0,0.0,-11371.0,-11464.0,2634.0,-887.0,-4.0,-16.0,-21.0,4.0,0.0,1.0,7.0,-4.0,0.9883923530578613
227,-2295.0,21.0,-3042.0,0.0,-11371.0,-11464.0,2634.0,-887.0,0.0,0.0,11.0,13.0,11.0,-3.0,-17.0,2.0,0.9906899929046631
228,-3003.0,31.0,-3424.0,0.0,-11751.0,-11193.0,2225.0,-373.0,0.0,0.0,11.0,13.0,11.0,-3.0,-17.0,2.0,1.0000560283660889
229,-3003.0,31.0,-3424.0,0.0,-11751.0,-11193.0,2225.0,-373.0,6.0,3.0,-7.0,38.0,14.0,4.0,-1.0,-1.0,1.0077471733093262
230,-3003.0,31.0,-3424.0,0.0,-11751.0,-11193.0,2225.0,-373.0,-10.0,1.0,2.0,-4.0,-44.0,-14.0,5.0,-9.0,1.010026216506958
231,-3582.0,132.0,-3628.0,0.0,-12167.0,-10826.0,1787.0,156.0,-10.0,1.0,2.0,-4.0,-44.0,-14.0,5.0,-9.0,1.0235495567321777
232,-3582.0,132.0,-3628.0,0.0,-12167.0,-10826.0,1787.0,156.0,-1.0,-7.0,-14.0,1.0,5.0,12.0,7.0,-8.0,1.025907278060913
233,-3582.0,132.0,-3628.0,0.0,-12167.0,-10826.0,1787.0,156.0,2.0,4.0,13.0,42.0,-2.0,4.0,-5.0,7.0,1.0281932353973389
234,-3752.0,290.0,-3946.0,0.0,-12567.0,-10410.0,1291.0,704.0,2.0,4.0,13.0,42.0,-2.0,4.0,-5.0,7.0,1.045799732208252
235,-3752.0,290.0,-3946.0,0.0,-12567.0,-10410.0,1291.0,704.0,-3.0,-15.0,-25.0,-24.0,-3.0,38.0,28.0,-4.0,1.0481505393981934
236,-3752.0,290.0,-3946.0,0.0,-12567.0,-10410.0,1291.0,704.0,-3.0,0.0,-1.0,-34.0,-15.0,57.0,10.0,-6.0,1.0504307746887207
237,-3470.0,463.0,-4012.0,0.0,-12897.0,-10001.0,763.0,1233.0,-3.0,0.0,-1.0,-34.0,-15.0,57.0,10.0,-6.0,1.0595812797546387
238,-3470.0,463.0,-4012.0,0.0,-12897.0,-10001.0,763.0,1233.0,5.0,3.0,-1.0,-1.0,14.0,-23.0,-22.0,4.0,1.067601203918457
239,-3470.0,463.0,-4012.0,0.0,-12897.0,-10001.0,763.0,1233.0,-4.0,1.0,-7.0,8.0,13.0,-54.0,57.0,1.0,1.0698621273040771
240,-3329.0,531.0,-3900.0,0.0,-13175.0,-9582.0,236.0,1734.0,-4.0,1.0,-7.0,8.0,13.0,-54.0,57.0,1.0,1.0846827030181885
241,-3329.0,531.0,-3900.0,0.0,-13175.0,-9582.0,236.0,1734.0,1.0,3.0,3.0,-1.0,-17.0,59.0,-66.0,20.0,1.088831901550293
242,-3329.0,531.0,-3900.0,0.0,-13175.0,-9582.0,236.0,1734.0,0.0,-4.0,-1.0,6.0,-4.0,-20.0,53.0,11.0,1.0927860736846924
243,-3265.0,701.0,-3894.0,0.0,-13410.0,-9147.0,-314.0,2209.0,0.0,-4.0,-1.0,6.0,-4.0,-20.0,53.0,11.0,1.107478141784668
244,-3265.0,701.0,-3894.0,0.0,-13410.0,-9147.0,-314.0,2209.0,-4.0,-1.0,6.0,31.0,-12.0,33.0,56.0,-29.0,1.1119647026062012
245,-3265.0,701.0,-3894.0,0.0,-13410.0,-9147.0,-314.0,2209.0,10.0,14.0,38.0,49.0,-29.0,-25.0,-25.0,-2.0,1.116530418395996
246,-3264.0,881.0,-4011.0,0.0,-13605.0,-8682.0,-900.0,2677.0,10.0,14.0,38.0,49.0,-29.0,-25.0,-25.0,-2.0,1.1194543838500977
247,-3264.0,881.0,-4011.0,0.0,-13605.0,-8682.0,-900.0,2677.0,-2.0,-10.0,-19.0,18.0,21.0,7.0,-28.0,-3.0,1.128352403640747
248,-3264.0,881.0,-4011.0,0.0,-13605.0,-8682.0,-900.0,2677.0,-8.0,-5.0,-11.0,-65.0,55.0,7.0,-17.0,-10.0,1.1306793689727783
249,-3166.0,1072.0,-4079.0,0.0,-13747.0,-8206.0,-1520.0,3132.0,-8.0,-5.0,-11.0,-65.0,55.0,7.0,-17.0,-10.0,1.1444880962371826
250,-3166.0,1072.0,-4079.0,0.0,-13747.0,-8206.0,-1520.0,3132.0,6.0,7.0,16.0,29.0,-24.0,-88.0,-45.0,-18.0,1.1486012935638428
251,-3166.0,1072.0,-4079.0,0.0,-13747.0,-8206.0,-1520.0,3132.0,3.0,1.0,-8.0,-2.0,-15.0,-19.0,-15.0,12.0,1.152588129043579
252,-2879.0,1178.0,-3748.0,0.0,-13834.0,-7754.0,-2122.0,3530.0,3.0,1.0,-8.0,-2.0,-15.0,-19.0,-15.0,12.0,1.1668310165405273
253,-2879.0,1178.0,-3748.0,0.0,-13834.0,-7754.0,-2122.0,3530.0,-2.0,1.0,-5.0,-39.0,-4.0,-31.0,-4.0,-26.0,1.1714773178100586
254,-2879.0,1178.0,-3748.0,0.0,-13834.0,-7754.0,-2122.0,3530.0,-1.0,-1.0,29.0,-11.0,28.0,12.0,-67.0,-22.0,1.1759638786315918
255,-2288.0,1108.0,-3106.0,0.0,-13865.0,-7377.0,-2644.0,3850.0,-1.0,-1.0,29.0,-11.0,28.0,12.0,-67.0,-22.0,1.179314136505127
256,-2288.0,1108.0,-3106.0,0.0,-13865.0,-7377.0,-2644.0,3850.0,1.0,-4.0,-4.0,4.0,-37.0,8.0,25.0,-4.0,1.1883926391601562
257,-2288.0,1108.0,-3106.0,0.0,-13865.0,-7377.0,-2644.0,3850.0,-4.0,-4.0,-3.0,-14.0,30.0,24.0,-89.0,-4.0,1.1911005973815918
258,-1712.0,1093.0,-2233.0,0.0,-13867.0,-7096.0,-3067.0,4051.0,-4.0,-4.0,-3.0,-14.0,30.0,24.0,-89.0,-4.0,1.2028236389160156
259,-1712.0,1093.0,-2233.0,0.0,-13867.0,-7096.0,-3067.0,4051.0,3.0,3.0,7.0,-15.0,36.0,-41.0,-24.0,-2.0,1.2051975727081299
260,-1712.0,1093.0,-2233.0,0.0,-13867.0,-7096.0,-3067.0,4051.0,-1.0,4.0,0.0,19.0,-29.0,-7.0,-34.0,-37.0,1.2095744609832764
261,-1630.0,1259.0,-1166.0,0.0,-13893.0,-6859.0,-3429.0,4080.0,-1.0,4.0,0.0,19.0,-29.0,-7.0,-34.0,-37.0,1.226914405822754
262,-1630.0,1259.0,-1166.0,0.0,-13893.0,-6859.0,-3429.0,4080.0,2.0,-3.0,-4.0,-17.0,43.0,10.0,23.0,7.0,1.2315778732299805
263,-1630.0,1259.0,-1166.0,0.0,-13893.0,-6859.0,-3429.0,4080.0,5.0,-2.0,-54.0,-27.0,3.0,6.0,26.0,0.0,1.2360508441925049
264,-1078.0,1208.0,-339.0,0.0,-13886.0,-6690.0,-3796.0,4059.0,5.0,-2.0,-54.0,-27.0,3.0,6.0,26.0,0.0,1.2485268115997314
265,-1078.0,1208.0,-339.0,0.0,-13886.0,-6690.0,-3796.0,4059.0,-5.0,-5.0,-3.0,-14.0,4.0,7.0,24.0,40.0,1.253368616104126
266,-1078.0,1208.0,-339.0,0.0,-13886.0,-6690.0,-3796.0,4059.0,4.0,1.0,4.0,8.0,-4.0,20.0,54.0,17.0,1.2580976486206055
267,336.0,1124.0,585.0,0.0,-13839.0,-6814.0,-3909.0,3901.0,4.0,1.0,4.0,8.0,-4.0,20.0,54.0,17.0,1.2637746334075928
268,336.0,1124.0,585.0,0.0,-13839.0,-6814.0,-3909.0,3901.0,-4.0,-3.0,-11.0,-6.0,-20.0,-39.0,-111.0,-51.0,1.266162633895874
269,336.0,1124.0,585.0,0.0,-13839.0,-6814.0,-3909.0,3901.0,-3.0,-2.0,3.0,-4.0,-18.0,13.0,39.0,20.0,1.2685787677764893
270,1087.0,1114.0,1136.0,0.0,-13756.0,-7073.0,-3945.0,3693.0,-3.0,-2.0,3.0,-4.0,-18.0,13.0,39.0,20.0,1.2866401672363281
271,1087.0,1114.0,1136.0,0.0,-13756.0,-7073.0,-3945.0,3693.0,-1.0,-1.0,5.0,4.0,9.0,-9.0,19.0,6.0,1.289144515991211
272,1087.0,1114.0,1136.0,0.0,-13756.0,-7073.0,-3945.0,3693.0,-2.0,-2.0,-1.0,7.0,38.0,22.0,-49.0,-24.0,1.291440725326538
273,1337.0,1164.0,1472.0,0.0,-13679.0,-7338.0,-3947.0,3454.0,-2.0,-2.0,-1.0,7.0,38.0,22.0,-49.0,-24.0,1.299431324005127
274,1337.0,1164.0,1472.0,0.0,-13679.0,-7338.0,-3947.0,3454.0,10.0,8.0,11.0,15.0,-14.0,56.0,112.0,24.0,1.3077926635742188
275,1337.0,1164.0,1472.0,0.0,-13679.0,-7338.0,-3947.0,3454.0,-20.0,-7.0,2.0,14.0,10.0,-63.0,-73.0,-40.0,1.3100709915161133
276,1311.0,955.0,2383.0,0.0,-13623.0,-7659.0,-3841.0,3077.0,-20.0,-7.0,2.0,14.0,10.0,-63.0,-73.0,-40.0,1.3242731094360352
277,1311.0,955.0,2383.0,0.0,-13623.0,-7659.0,-3841.0,3077.0,-4.0,-5.0,-9.0,-28.0,-88.0,-94.0,-7.0,-34.0,1.3289611339569092
278,1311.0,955.0,2383.0,0.0,-13623.0,-7659.0,-3841.0,3077.0,13.0,10.0,15.0,14.0,98.0,65.0,110.0,31.0,1.3333837985992432
279,1689.0,562.0,3504.0,0.0,-13567.0,-8065.0,-3566.0,2576.0,13.0,10.0,15.0,14.0,98.0,65.0,110.0,31.0,1.3483564853668213
280,1689.0,562.0,3504.0,0.0,-13567.0,-8065.0,-3566.0,2576.0,14.0,8.0,-9.0,-64.0,85.0,100.0,-23.0,7.0,1.3542461395263672
281,1689.0,562.0,3504.0,0.0,-13567.0,-8065.0,-3566.0,2576.0,-26.0,-19.0,-5.0,-34.0,2.0,-39.0,-128.0,-100.0,1.3586599826812744
282,2142.0,327.0,4426.0,0.0,-13472.0,-8555.0,-3150.0,1965.0,-26.0,-19.0,-5.0,-34.0,2.0,-39.0,-128.0,-100.0,1.3611948490142822
283,2142.0,327.0,4426.0,0.0,-13472.0,-8555.0,-3150.0,1965.0,3.0,-4.0,-6.0,3.0,44.0,96.0,-33.0,-21.0,1.3767578601837158
284,2142.0,327.0,4426.0,0.0,-13472.0,-8555.0,-3150.0,1965.0,21.0,8.0,1.0,9.0,17.0,127.0,44.0,62.0,1.3817167282104492
285,2499.0,500.0,5411.0,0.0,-13303.0,-9115.0,-2643.0,1191.0,21.0,8.0,1.0,9.0,17.0,127.0,44.0,62.0,1.3856563568115234
286,2499.0,500.0,5411.0,0.0,-13303.0,-9115.0,-2643.0,1191.0,-15.0,-3.0,11.0,52.0,-13.0,-66.0,-82.0,-76.0,1.388592004776001
287,2499.0,500.0,5411.0,0.0,-13303.0,-9115.0,-2643.0,1191.0,5.0,-5.0,-14.0,-22.0,15.0,41.0,-49.0,54.0,1.3909235000610352
288,2513.0,558.0,6074.0,0.0,-13069.0,-9662.0,-2054.0,301.0,5.0,-5.0,-14.0,-22.0,15.0,41.0,-49.0,54.0,1.4062323570251465
289,2513.0,558.0,6074.0,0.0,-13069.0,-9662.0,-2054.0,301.0,-21.0,-18.0,-8.0,4.0,60.0,115.0,78.0,28.0,1.4087233543395996
290,2513.0,558.0,6074.0,0.0,-13069.0,-9662.0,-2054.0,301.0,-2.0,-5.0,-10.0,-4.0,1.0,-27.0,23.0,8.0,1.4114952087402344
291,2666.0,491.0,6132.0,0.0,-12746.0,-10179.0,-1422.0,-600.0,-2.0,-5.0,-10.0,-4.0,1.0,-27.0,23.0,8.0,1.436410903930664
292,2666.0,491.0,6132.0,0.0,-12746.0,-10179.0,-1422.0,-600.0,14.0,9.0,7.0,-1.0,96.0,-5.0,-47.0,50.0,1.4388320446014404
293,2666.0,491.0,6132.0,0.0,-12746.0,-10179.0,-1422.0,-600.0,-10.0,-20.0,-3.0,31.0,-26.0,0.0,-36.0,5.0,1.4415199756622314
294,2983.0,600.0,5691.0,0.0,-12338.0,-10652.0,-891.0,-1408.0,-10.0,-20.0,-3.0,31.0,-26.0,0.0,-36.0,5.0,1.451244831085205
295,2983.0,600.0,5691.0,0.0,-12338.0,-10652.0,-891.0,-1408.0,15.0,7.0,37.0,24.0,54.0,56.0,86.0,49.0,1.4536471366882324
296,2983.0,600.0,5691.0,0.0,-12338.0,-10652.0,-891.0,-1408.0,1.0,20.0,75.0,6.0,43.0,-128.0,10.0,16.0,1.455909013748169
297,3192.0,1076.0,5127.0,0.0,-11851.0,-11090.0,-488.0,-2187.0,1.0,20.0,75.0,6.0,43.0,-128.0,10.0,16.0,1.4659934043884277
298,3192.0,1076.0,5127.0,0.0,-11851.0,-11090.0,-488.0,-2187.0,-7.0,80.0,119.0,-42.0,-105.0,-90.0,13.0,-19.0,1.468489408493042
299,3192.0,1076.0,5127.0,0.0,-11851.0,-11090.0,-488.0,-2187.0,23.0,25.0,31.0,-59.0,81.0,25.0,94.0,23.0,1.4707777500152588
300,3174.0,1523.0,4062.0,0.0,-11342.0,-11466.0,-269.0,-2875.0,23.0,25.0,31.0,-59.0,81.0,25.0,94.0,23.0,1.488262414932251
301,3174.0,1523.0,4062.0,0.0,-11342.0,-11466.0,-269.0,-2875.0,-3.0,11.0,-76.0,58.0,55.0,1.0,-34.0,-14.0,1.4906315803527832
302,3174.0,1523.0,4062.0,0.0,-11342.0,-11466.0,-269.0,-2875.0,38.0,94.0,4.0,15.0,-29.0,-4.0,32.0,-23.0,1.4929137229919434
303,3472.0,952.0,3948.0,0.0,-10763.0,-11857.0,-1.0,-3467.0,38.0,94.0,4.0,15.0,-29.0,-4.0,32.0,-23.0,1.5022330284118652
304,3472.0,952.0,3948.0,0.0,-10763.0,-11857.0,-1.0,-3467.0,-6.0,-30.0,22.0,-123.0,-117.0,-63.0,51.0,0.0,1.5103142261505127
305,3472.0,952.0,3948.0,0.0,-10763.0,-11857.0,-1.0,-3467.0,-6.0,-31.0,-61.0,-45.0,-31.0,-16.0,10.0,-32.0,1.5125887393951416
306,2145.0,-55.0,1975.0,0.0,-10406.0,-12105.0,179.0,-3690.0,-6.0,-31.0,-61.0,-45.0,-31.0,-16.0,10.0,-32.0,1.5270123481750488
307,2145.0,-55.0,1975.0,0.0,-10406.0,-12105.0,179.0,-3690.0,-48.0,-48.0,-103.0,21.0,89.0,29.0,3.0,-45.0,1.5318870544433594
308,2145.0,-55.0,1975.0,0.0,-10406.0,-12105.0,179.0,-3690.0,-25.0,-113.0,29.0,-37.0,-128.0,-76.0,9.0,7.0,1.5364396572113037
309,1056.0,-1001.0,-209.0,0.0,-10271.0,-12264.0,223.0,-3535.0,-25.0,-113.0,29.0,-37.0,-128.0,-76.0,9.0,7.0,1.5485377311706543
310,1056.0,-1001.0,-209.0,0.0,-10271.0,-12264.0,223.0,-3535.0,-26.0,-69.0,39.0,29.0,24.0,37.0,47.0,-7.0,1.5525290966033936
311,1056.0,-1001.0,-209.0,0.0,-10271.0,-12264.0,223.0,-3535.0,1.0,-32.0,-5.0,25.0,36.0,-43.0,-40.0,10.0,1.5564875602722168
312,519.0,-681.0,181.0,0.0,-10207.0,-12333.0,305.0,-3474.0,1.0,-32.0,-5.0,25.0,36.0,-43.0,-40.0,10.0,1.5627577304840088
313,519.0,-681.0,181.0,0.0,-10207.0,-12333.0,305.0,-3474.0,48.0,-81.0,-96.0,-25.0,-1.0,-85.0,-99.0,8.0,1.5706534385681152
314,519.0,-681.0,181.0,0.0,-10207.0,-12333.0,305.0,-3474.0,27.0,99.0,-19.0,-11.0,-31.0,-18.0,19.0,-114.0,1.5733857154846191
315,49.0,332.0,1620.0,0.0,-10152.0,-12307.0,484.0,-3703.0,27.0,99.0,-19.0,-11.0,-31.0,-18.0,19.0,-114.0,1.5872421264648438
316,49.0,332.0,1620.0,0.0,-10152.0,-12307.0,484.0,-3703.0,-20.0,-1.0,47.0,90.0,40.0,55.0,-70.0,-95.0,1.5918028354644775
317,49.0,332.0,1620.0,0.0,-10152.0,-12307.0,484.0,-3703.0,17.0,14.0,-7.0,-7.0,-63.0,-20.0,-51.0,-32.0,1.5966460704803467
318,522.0,163.0,1440.0,0.0,-10077.0,-12290.0,653.0,-3931.0,17.0,14.0,-7.0,-7.0,-63.0,-20.0,-51.0,-32.0,1.6083884239196777
319,522.0,163.0,1440.0,0.0,-10077.0,-12290.0,653.0,-3931.0,2.0,80.0,72.0,31.0,-25.0,-55.0,-72.0,-74.0,1.6107192039489746
320,522.0,163.0,1440.0,0.0,-10077.0,-12290.0,653.0,-3931.0,-13.0,-79.0,5.0,-26.0,-29.0,9.0,87.0,69.0,1.6131985187530518
321,801.0,25.0,1087.0,0.0,-9993.0,-12308.0,743.0,-4069.0,-13.0,-79.0,5.0,-26.0,-29.0,9.0,87.0,69.0,1.6223607063293457
322,801.0,25.0,1087.0,0.0,-9993.0,-12308.0,743.0,-4069.0,35.0,-8.0,5.0,-38.0,-87.0,18.0,127.0,127.0,1.6307203769683838
323,801.0,25.0,1087.0,0.0,-9993.0,-12308.0,743.0,-4069.0,-54.0,-50.0,-4.0,14.0,89.0,56.0,98.0,0.0,1.6333222389221191
324,17.0,-134.0,969.0,0.0,-10017.0,-12252.0,859.0,-4156.0,-54.0,-50.0,-4.0,14.0,89.0,56.0,98.0,0.0,1.6469409465789795
325,17.0,-134.0,969.0,0.0,-10017.0,-12252.0,859.0,-4156.0,17.0,61.0,20.0,-26.0,10.0,0.0,84.0,41.0,1.65126633644104
326,17.0,-134.0,969.0,0.0,-10017.0,-12252.0,859.0,-4156.0,-24.0,-24.0,14.0,37.0,22.0,27.0,-38.0,-18.0,1.6554350852966309
327,-481.0,-191.0,765.0,0.0,-10047.0,-12195.0,1008.0,-4217.0,-24.0,-24.0,14.0,37.0,22.0,27.0,-38.0,-18.0,1.66860032081604
328,-481.0,-191.0,765.0,0.0,-10047.0,-12195.0,1008.0,-4217.0,21.0,56.0,26.0,20.0,-26.0,-11.0,-23.0,24.0,1.6718735694885254
329,-481.0,-191.0,765.0,0.0,-10047.0,-12195.0,1008.0,-4217.0,16.0,42.0,-41.0,-15.0,-17.0,10.0,-15.0,18.0,1.67413330078125
330,-400.0,-24.0,440.0,0.0,-10035.0,-12175.0,1120.0,-4276.0,16.0,42.0,-41.0,-15.0,-17.0,10.0,-15.0,18.0,1.681929111480713
331,-400.0,-24.0,440.0,0.0,-10035.0,-12175.0,1120.0,-4276.0,-10.0,1.0,-19.0,40.0,-47.0,-34.0,-36.0,-9.0,1.6902892589569092
332,-400.0,-24.0,440.0,0.0,-10035.0,-12175.0,1120.0,-4276.0,7.0,-1.0,9.0,33.0,-28.0,24.0,11.0,15.0,1.6925544738769531
333,-170.0,69.0,239.0,0.0,-10015.0,-12174.0,1168.0,-4311.0,7.0,-1.0,9.0,33.0,-28.0,24.0,11.0,15.0,1.7073538303375244
334,-170.0,69.0,239.0,0.0,-10015.0,-12174.0,1168.0,-4311.0,-15.0,-39.0,-30.0,-29.0,-36.0,-6.0,-23.0,4.0,1.7124173641204834
335,-170.0,69.0,239.0,0.0,-10015.0,-12174.0,1168.0,-4311.0,3.0,52.0,7.0,5.0,10.0,12.0,-49.0,5.0,1.7171547412872314
336,-113.0,94.0,67.0,0.0,-10016.0,-12170.0,1170.0,-4320.0,3.0,52.0,7.0,5.0,10.0,12.0,-49.0,5.0,1.7287709712982178
337,-113.0,94.0,67.0,0.0,-10016.0,-12170.0,1170.0,-4320.0,-2.0,-14.0,-19.0,-25.0,13.0,-4.0,-21.0,-25.0,1.7333412170410156
338,-113.0,94.0,67.0,0.0,-10016.0,-12170.0,1170.0,-4320.0,-16.0,3.0,34.0,18.0,-3.0,5.0,29.0,-16.0,1.737349033355713
339,-165.0,134.0,-69.0,0.0,-10041.0,-12146.0,1159.0,-4333.0,-16.0,3.0,34.0,18.0,-3.0,5.0,29.0,-16.0,1.742799997329712
340,-165.0,134.0,-69.0,0.0,-10041.0,-12146.0,1159.0,-4333.0,-6.0,-18.0,-24.0,-22.0,49.0,-16.0,-6.0,18.0,1.7505924701690674
341,-165.0,134.0,-69.0,0.0,-10041.0,-12146.0,1159.0,-4333.0,2.0,27.0,34.0,44.0,-35.0,-25.0,-21.0,0.0,1.752873420715332
342,-94.0,172.0,-116.0,0.0,-10059.0,-12125.0,1139.0,-4354.0,2.0,27.0,34.0,44.0,-35.0,-25.0,-21.0,0.0,1.7665481567382812
343,-94.0,172.0,-116.0,0.0,-10059.0,-12125.0,1139.0,-4354.0,0.0,21.0,4.0,21.0,33.0,21.0,45.0,20.0,1.7709643840789795
344,-94.0,172.0,-116.0,0.0,-10059.0,-12125.0,1139.0,-4354.0,2.0,-22.0,14.0,-7.0,38.0,-12.0,-43.0,16.0,1.7752773761749268
345,-56.0,136.0,-181.0,0.0,-10068.0,-12115.0,1119.0,-4367.0,2.0,-22.0,14.0,-7.0,38.0,-12.0,-43.0,16.0,1.7887940406799316
346,-56.0,136.0,-181.0,0.0,-10068.0,-12115.0,1119.0,-4367.0,4.0,0.0,-13.0,-1.0,-44.0,2.0,-8.0,6.0,1.7945332527160645
347,-56.0,136.0,-181.0,0.0,-10068.0,-12115.0,1119.0,-4367.0,-3.0,-20.0,-48.0,18.0,24.0,-17.0,-21.0,-20.0,1.7991085052490234
348,0.0,130.0,-200.0,0.0,-10063.0,-12119.0,1095.0,-4375.0,-3.0,-20.0,-48.0,18.0,24.0,-17.0,-21.0,-20.0,1.8031699657440186
349,0.0,130.0,-200.0,0.0,-10063.0,-12119.0,1095.0,-4375.0,-15.0,-21.0,-15.0,-10.0,11.0,-25.0,43.0,4.0,1.8055434226989746
350,0.0,130.0,-200.0,0.0,-10063.0,-12119.0,1095.0,-4375.0,21.0,6.0,31.0,30.0,28.0,24.0,12.0,26.0,1.8094396591186523
351,-74.0,101.0,-167.0,0.0,-10069.0,-12117.0,1072.0,-4371.0,21.0,6.0,31.0,30.0,28.0,24.0,12.0,26.0,1.826514720916748
352,-74.0,101.0,-167.0,0.0,-10069.0,-12117.0,1072.0,-4371.0,12.0,11.0,-12.0,-64.0,18.0,4.0,19.0,6.0,1.8289289474487305
353,-74.0,101.0,-167.0,0.0,-10069.0,-12117.0,1072.0,-4371.0,-5.0,14.0,-18.0,-22.0,-33.0,-1.0,42.0,16.0,1.831200361251831
354,-142.0,69.0,-103.0,0.0,-10079.0,-12107.0,1071.0,-4376.0,-5.0,14.0,-18.0,-22.0,-33.0,-1.0,42.0,16.0,1.848268985748291
355,-142.0,69.0,-103.0,0.0,-10079.0,-12107.0,1071.0,-4376.0,7.0,8.0,40.0,6.0,-10.0,-2.0,-14.0,10.0,1.8506436347961426
356,-142.0,69.0,-103.0,0.0,-10079.0,-12107.0,1071.0,-4376.0,-5.0,-16.0,-16.0,-2.0,5.0,-1.0,-15.0,0.0,1.8530075550079346
357,-78.0,51.0,-73.0,0.0,-10077.0,-12104.0,1077.0,-4387.0,-5.0,-16.0,-16.0,-2.0,5.0,-1.0,-15.0,0.0,1.862182855606079
358,-78.0,51.0,-73.0,0.0,-10077.0,-12104.0,1077.0,-4387.0,-7.0,-16.0,-29.0,18.0,-21.0,-14.0,-2.0,-10.0,1.870431661605835
359,-78.0,51.0,-73.0,0.0,-10077.0,-12104.0,1077.0,-4387.0,0.0,-12.0,-12.0,-6.0,4.0,13.0,45.0,23.0,1.8727004528045654
360,-18.0,25.0,-58.0,0.0,-10068.0,-12108.0,1081.0,-4394.0,0.0,-12.0,-12.0,-6.0,4.0,13.0,45.0,23.0,1.8874554634094238
361,-18.0,25.0,-58.0,0.0,-10068.0,-12108.0,1081.0,-4394.0,1.0,-19.0,-10.0,11.0,-10.0,-5.0,0.0,-20.0,1.8922145366668701
362,-18.0,25.0,-58.0,0.0,-10068.0,-12108.0,1081.0,-4394.0,8.0,28.0,2.0,10.0,18.0,-2.0,-9.0,-4.0,1.896439552307129
363,8.0,13.0,-29.0,0.0,-10058.0,-12114.0,1085.0,-4399.0,8.0,28.0,2.0,10.0,18.0,-2.0,-9.0,-4.0,1.9083266258239746
364,8.0,13.0,-29.0,0.0,-10058.0,-12114.0,1085.0,-4399.0,-5.0,-23.0,10.0,-20.0,27.0,14.0,0.0,11.0,1.9121513366699219
365,8.0,13.0,-29.0,0.0,-10058.0,-12114.0,1085.0,-4399.0,-9.0,-7.0,3.0,-4.0,22.0,-5.0,5.0,11.0,1.916536569595337
366,-31.0,12.0,7.0,0.0,-10052.0,-12117.0,1093.0,-4405.0,-9.0,-7.0,3.0,-4.0,22.0,-5.0,5.0,11.0,1.9227347373962402
367,-31.0,12.0,7.0,0.0,-10052.0,-12117.0,1093.0,-4405.0,4.0,-16.0,5.0,24.0,28.0,6.0,-26.0,-5.0,1.930433750152588
368,-31.0,12.0,7.0,0.0,-10052.0,-12117.0,1093.0,-4405.0,0.0,-13.0,-24.0,-36.0,-2.0,-4.0,-3.0,-2.0,1.932732343673706
369,-56.0,7.0,9.0,0.0,-10047.0,-12119.0,1103.0,-4408.0,0.0,-13.0,-24.0,-36.0,-2.0,-4.0,-3.0,-2.0,1.9459598064422607
370,-56.0,7.0,9.0,0.0,-10047.0,-12119.0,1103.0,-4408.0,-8.0,4.0,-7.0,10.0,-21.0,-7.0,-6.0,-11.0,1.9485602378845215
371,-56.0,7.0,9.0,0.0,-10047.0,-12119.0,1103.0,-4408.0,5.0,1.0,-10.0,35.0,12.0,12.0,8.0,0.0,1.9511914253234863
372,-11.0,-17.0,-3.0,0.0,-10039.0,-12126.0,1109.0,-4405.0,5.0,1.0,-10.0,35.0,12.0,12.0,8.0,0.0,1.9686448574066162
373,-11.0,-17.0,-3.0,0.0,-10039.0,-12126.0,1109.0,-4405.0,-3.0,10.0,20.0,-1.0,-16.0,9.0,12.0,-2.0,1.9710156917572021
374,-11.0,-17.0,-3.0,0.0,-10039.0,-12126.0,1109.0,-4405.0,-1.0,6.0,15.0,2.0,20.0,-4.0,-12.0,-10.0,1.973285436630249
375,2.0,-48.0,-13.0,0.0,-10030.0,-12138.0,1113.0,-4393.0,-1.0,6.0,15.0,2.0,20.0,-4.0,-12.0,-10.0,1.9820103645324707
376,2.0,-48.0,-13.0,0.0,-10030.0,-12138.0,1113.0,-4393.0,5.0,-10.0,-9.0,-19.0,-68.0,-11.0,27.0,11.0,1.9907417297363281
377,2.0,-48.0,-13.0,0.0,-10030.0,-12138.0,1113.0,-4393.0,0.0,-6.0,0.0,0.0,33.0,18.0,-21.0,1.0,1.9930248260498047
378,22.0,-52.0,-17.0,0.0,-10016.0,-12153.0,1118.0,-4382.0,0.0,-6.0,0.0,0.0,33.0,18.0,-21.0,1.0,2.007446765899658
379,22.0,-52.0,-17.0,0.0,-10016.0,-12153.0,1118.0,-4382.0,-15.0,-27.0,-21.0,-17.0,-32.0,-20.0,-28.0,-10.0,2.0118579864501953
380,22.0,-52.0,-17.0,0.0,-10016.0,-12153.0,1118.0,-4382.0,-4.0,-12.0,2.0,-17.0,-9.0,-1.0,1.0,4.0,2.016554832458496
381,46.0,-48.0,-29.0,0.0,-9997.0,-12172.0,1122.0,-4372.0,-4.0,-12.0,2.0,-17.0,-9.0,-1.0,1.0,4.0,2.028327703475952
382,46.0,-48.0,-29.0,0.0,-9997.0,-12172.0,1122.0,-4372.0,6.0,36.0,41.0,6.0,18.0,8.0,7.0,12.0,2.0306763648986816
383,46.0,-48.0,-29.0,0.0,-9997.0,-12172.0,1122.0,-4372.0,5.0,13.0,-15.0,-5.0,-42.0,-5.0,41.0,23.0,2.032963752746582
384,44.0,-50.0,-21.0,0.0,-9977.0,-12189.0,1130.0,-4366.0,5.0,13.0,-15.0,-5.0,-42.0,-5.0,41.0,23.0,2.042346477508545
385,44.0,-50.0,-21.0,0.0,-9977.0,-12189.0,1130.0,-4366.0,-9.0,-4.0,-11.0,39.0,-12.0,2.0,-6.0,-7.0,2.0504398345947266
386,44.0,-50.0,-21.0,0.0,-9977.0,-12189.0,1130.0,-4366.0,-7.0,-14.0,-17.0,2.0,0.0,1.0,-1.0,-9.0,2.0527029037475586
387,29.0,-61.0,4.0,0.0,-9960.0,-12204.0,1142.0,-4360.0,-7.0,-14.0,-17.0,2.0,0.0,1.0,-1.0,-9.0,2.0755374431610107
388,29.0,-61.0,4.0,0.0,-9960.0,-12204.0,1142.0,-4360.0,7.0,22.0,-2.0,-2.0,34.0,16.0,24.0,9.0,2.080902338027954
389,29.0,-61.0,4.0,0.0,-9960.0,-12204.0,1142.0,-4360.0,-6.0,0.0,-1.0,-13.0,15.0,-12.0,-21.0,-7.0,2.0854878425598145
390,22.0,-58.0,12.0,0.0,-9948.0,-12215.0,1154.0,-4356.0,-6.0,0.0,-1.0,-13.0,15.0,-12.0,-21.0,-7.0,2.088117837905884
391,22.0,-58.0,12.0,0.0,-9948.0,-12215.0,1154.0,-4356.0,-3.0,0.0,-6.0,-14.0,-17.0,4.0,-21.0,-7.0,2.090430736541748
392,22.0,-58.0,12.0,0.0,-9948.0,-12215.0,1154.0,-4356.0,2.0,-2.0,1.0,-7.0,-38.0,-5.0,-2.0,0.0,2.0926554203033447
393,28.0,-53.0,37.0,0.0,-9934.0,-12227.0,1165.0,-4351.0,2.0,-2.0,1.0,-7.0,-38.0,-5.0,-2.0,0.0,2.102243185043335
394,28.0,-53.0,37.0,0.0,-9934.0,-12227.0,1165.0,-4351.0,-2.0,-8.0,-30.0,7.0,-6.0,-2.0,-1.0,-1.0,2.1110033988952637
395,28.0,-53.0,37.0,0.0,-9934.0,-12227.0,1165.0,-4351.0,12.0,12.0,21.0,4.0,-2.0,2.0,6.0,-3.0,2.1132829189300537
396,-29.0,-57.0,48.0,0.0,-9928.0,-12232.0,1179.0,-4345.0,12.0,12.0,21.0,4.0,-2.0,2.0,6.0,-3.0,2.1271023750305176
397,-29.0,-57.0,48.0,0.0,-9928.0,-12232.0,1179.0,-4345.0,-2.0,11.0,12.0,-16.0,11.0,-4.0,-31.0,-2.0,2.1317100524902344
398,-29.0,-57.0,48.0,0.0,-9928.0,-12232.0,1179.0,-4345.0,-3.0,1.0,-22.0,10.0,13.0,14.0,20.0,-2.0,2.1361196041107178
399,-43.0,-80.0,42.0,0.0,-9922.0,-12237.0,1199.0,-4339.0,-3.0,1.0,-22.0,10.0,13.0,14.0,20.0,-2.0,2.1483843326568604
400,-43.0,-80.0,42.0,0.0,-9922.0,-12237.0,1199.0,-4339.0,-4.0,-6.0,-12.0,0.0,-40.0,-51.0,-22.0,-8.0,2.1521406173706055
401,-43.0,-80.0,42.0,0.0,-9922.0,-12237.0,1199.0,-4339.0,-10.0,-21.0,0.0,5.0,-11.0,-3.0,-2.0,0.0,2.1560611724853516
402,-27.0,-81.0,34.0,0.0,-9916.0,-12243.0,1216.0,-4330.0,-10.0,-21.0,0.0,5.0,-11.0,-3.0,-2.0,0.0,2.1626956462860107
403,-27.0,-81.0,34.0,0.0,-9916.0,-12243.0,1216.0,-4330.0,-8.0,-1.0,-5.0,0.0,25.0,10.0,10.0,-6.0,2.1705901622772217
404,-27.0,-81.0,34.0,0.0,-9916.0,-12243.0,1216.0,-4330.0,5.0,-1.0,-12.0,9.0,-15.0,-12.0,-19.0,4.0,2.173428773880005
405,-53.0,-75.0,5.0,0.0,-9917.0,-12246.0,1229.0,-4320.0,5.0,-1.0,-12.0,9.0,-15.0,-12.0,-19.0,4.0,2.18719482421875
406,-53.0,-75.0,5.0,0.0,-9917.0,-12246.0,1229.0,-4320.0,2.0,6.0,2.0,4.0,31.0,11.0,-18.0,0.0,2.191779375076294
407,-53.0,-75.0,5.0,0.0,-9917.0,-12246.0,1229.0,-4320.0,-5.0,-11.0,-6.0,12.0,30.0,10.0,35.0,-2.0,2.1962037086486816
408,-15.0,-77.0,10.0,0.0,-9912.0,-12250.0,1244.0,-4314.0,-5.0,-11.0,-6.0,12.0,30.0,10.0,35.0,-2.0,2.2084567546844482
409,-15.0,-77.0,10.0,0.0,-9912.0,-12250.0,1244.0,-4314.0,0.0,-16.0,-25.0,-28.0,12.0,4.0,3.0,5.0,2.2122766971588135
410,-15.0,-77.0,10.0,0.0,-9912.0,-12250.0,1244.0,-4314.0,7.0,5.0,24.0,-11.0,-9.0,-17.0,-1.0,-3.0,2.216543197631836
411,-5.0,-71.0,-1.0,0.0,-9907.0,-12255.0,1256.0,-4307.0,7.0,5.0,24.0,-11.0,-9.0,-17.0,-1.0,-3.0,2.2327640056610107
412,-5.0,-71.0,-1.0,0.0,-9907.0,-12255.0,1256.0,-4307.0,5.0,6.0,27.0,10.0,-8.0,5.0,18.0,5.0,2.237790107727051
413,-5.0,-71.0,-1.0,0.0,-9907.0,-12255.0,1256.0,-4307.0,-22.0,-16.0,-6.0,-5.0,45.0,9.0,-17.0,-21.0,2.2420194149017334
414,-38.0,-58.0,9.0,0.0,-9905.0,-12257.0,1269.0,-4301.0,-22.0,-16.0,-6.0,-5.0,45.0,9.0,-17.0,-21.0,2.244495391845703
415,-38.0,-58.0,9.0,0.0,-9905.0,-12257.0,1269.0,-4301.0,6.0,7.0,12.0,5.0,9.0,4.0,16.0,6.0,2.2468512058258057
416,-38.0,-58.0,9.0,0.0,-9905.0,-12257.0,1269.0,-4301.0,2.0,1.0,-7.0,-22.0,-5.0,5.0,-16.0,0.0,2.2522029876708984
417,-74.0,-38.0,26.0,0.0,-9908.0,-12254.0,1283.0,-4299.0,2.0,1.0,-7.0,-22.0,-5.0,5.0,-16.0,0.0,2.2691025733947754
418,-74.0,-38.0,26.0,0.0,-9908.0,-12254.0,1283.0,-4299.0,6.0,19.0,11.0,-8.0,0.0,-4.0,0.0,-5.0,2.27388072013855
419,-74.0,-38.0,26.0,0.0,-9908.0,-12254.0,1283.0,-4299.0,-1.0,4.0,4.0,5.0,-24.0,-6.0,-15.0,-1.0,2.2785024642944336
420,-68.0,-27.0,45.0,0.0,-9909.0,-12250.0,1300.0,-4303.0,-1.0,4.0,4.0,5.0,-24.0,-6.0,-15.0,-1.0,2.291667938232422
421,-68.0,-27.0,45.0,0.0,-9909.0,-12250.0,1300.0,-4303.0,1.0,-3.0,21.0,36.0,25.0,13.0,-1.0,8.0,2.294171094894409
422,-68.0,-27.0,45.0,0.0,-9909.0,-12250.0,1300.0,-4303.0,3.0,-4.0,3.0,-15.0,-9.0,-6.0,27.0,-1.0,2.296931028366089
423,-18.0,-42.0,42.0,0.0,-9907.0,-12251.0,1313.0,-4303.0,3.0,-4.0,3.0,-15.0,-9.0,-6.0,27.0,-1.0,2.3053336143493652
424,-18.0,-42.0,42.0,0.0,-9907.0,-12251.0,1313.0,-4303.0,6.0,-5.0,-17.0,8.0,8.0,10.0,12.0,4.0,2.307685375213623
425,-18.0,-42.0,42.0,0.0,-9907.0,-12251.0,1313.0,-4303.0,-6.0,1.0,-4.0,24.0,-1.0,-5.0,-18.0,-3.0,2.3125576972961426
426,-31.0,-39.0,46.0,0.0,-9907.0,-12249.0,1324.0,-4302.0,-6.0,1.0,-4.0,24.0,-1.0,-5.0,-18.0,-3.0,2.329251527786255
427,-31.0,-39.0,46.0,0.0,-9907.0,-12249.0,1324.0,-4302.0,-5.0,-2.0,6.0,-6.0,-7.0,-6.0,17.0,-3.0,2.3319990634918213
428,-31.0,-39.0,46.0,0.0,-9907.0,-12249.0,1324.0,-4302.0,-7.0,-12.0,-17.0,-10.0,27.0,2.0,-14.0,0.0,2.334296226501465
429,-41.0,-38.0,44.0,0.0,-9907.0,-12249.0,1337.0,-4300.0,-7.0,-12.0,-17.0,-10.0,27.0,2.0,-14.0,0.0,2.351316452026367
430,-41.0,-38.0,44.0,0.0,-9907.0,-12249.0,1337.0,-4300.0,7.0,21.0,-10.0,-9.0,22.0,-3.0,-14.0,-5.0,2.3536980152130127
431,-41.0,-38.0,44.0,0.0,-9907.0,-12249.0,1337.0,-4300.0,-5.0,-3.0,14.0,-6.0,-3.0,-5.0,-10.0,-4.0,2.3559579849243164
432,-18.0,-29.0,52.0,0.0,-9904.0,-12250.0,1348.0,-4300.0,-5.0,-3.0,14.0,-6.0,-3.0,-5.0,-10.0,-4.0,2.3650872707366943
433,-18.0,-29.0,52.0,0.0,-9904.0,-12250.0,1348.0,-4300.0,3.0,5.0,-4.0,11.0,18.0,9.0,6.0,2.0,2.373080015182495
434,-18.0,-29.0,52.0,0.0,-9904.0,-12250.0,1348.0,-4300.0,4.0,1.0,-24.0,-38.0,-31.0,7.0,19.0,4.0,2.3753790855407715
435,-39.0,-15.0,39.0,0.0,-9902.0,-12251.0,1356.0,-4298.0,4.0,1.0,-24.0,-38.0,-31.0,7.0,19.0,4.0,2.388460874557495
436,-39.0,-15.0,39.0,0.0,-9902.0,-12251.0,1356.0,-4298.0,-4.0,-21.0,-4.0,-2.0,-6.0,-2.0,-12.0,0.0,2.3930623531341553
437,-39.0,-15.0,39.0,0.0,-9902.0,-12251.0,1356.0,-4298.0,0.0,9.0,10.0,19.0,17.0,2.0,-6.0,1.0,2.397385835647583
438,-29.0,-15.0,19.0,0.0,-9900.0,-12254.0,1362.0,-4295.0,0.0,9.0,10.0,19.0,17.0,2.0,-6.0,1.0,2.4122066497802734
439,-29.0,-15.0,19.0,0.0,-9900.0,-12254.0,1362.0,-4295.0,-5.0,-11.0,-8.0,-14.0,0.0,2.0,-15.0,-3.0,2.4163172245025635
440,-29.0,-15.0,19.0,0.0,-9900.0,-12254.0,1362.0,-4295.0,-6.0,-5.0,-16.0,-1.0,-35.0,-21.0,-15.0,-1.0,2.420269727706909
441,14.0,-14.0,9.0,0.0,-9900.0,-12254.0,1361.0,-4295.0,-6.0,-5.0,-16.0,-1.0,-35.0,-21.0,-15.0,-1.0,2.4265711307525635
442,14.0,-14.0,9.0,0.0,-9900.0,-12254.0,1361.0,-4295.0,1.0,6.0,7.0,14.0,-8.0,0.0,-8.0,-1.0,2.4290149211883545
443,14.0,-14.0,9.0,0.0,-9900.0,-12254.0,1361.0,-4295.0,-2.0,3.0,3.0,4.0,29.0,5.0,-3.0,-10.0,2.431286573410034
444,-5.0,-21.0,2.0,0.0,-9899.0,-12257.0,1362.0,-4289.0,-2.0,3.0,3.0,4.0,29.0,5.0,-3.0,-10.0,2.448599338531494
445,-5.0,-21.0,2.0,0.0,-9899.0,-12257.0,1362.0,-4289.0,-3.0,-25.0,-8.0,-6.0,-26.0,-15.0,-9.0,-9.0,2.453242301940918
446,-5.0,-21.0,2.0,0.0,-9899.0,-12257.0,1362.0,-4289.0,3.0,10.0,0.0,8.0,-1.0,4.0,-3.0,7.0,2.4588608741760254
447,20.0,-26.0,-14.0,0.0,-9894.0,-12264.0,1360.0,-4281.0,3.0,10.0,0.0,8.0,-1.0,4.0,-3.0,7.0,2.4711596965789795
448,20.0,-26.0,-14.0,0.0,-9894.0,-12264.0,1360.0,-4281.0,-6.0,-4.0,1.0,-13.0,-11.0,-1.0,0.0,1.0,2.4735348224639893
449,20.0,-26.0,-14.0,0.0,-9894.0,-12264.0,1360.0,-4281.0,11.0,16.0,17.0,-6.0,49.0,6.0,0.0,4.0,2.475839376449585
450,0.0,-3.0,-17.0,0.0,-9890.0,-12269.0,1356.0,-4273.0,11.0,16.0,17.0,-6.0,49.0,6.0,0.0,4.0,2.4859583377838135
451,0.0,-3.0,-17.0,0.0,-9890.0,-12269.0,1356.0,-4273.0,-3.0,-1.0,-1.0,16.0,-8.0,-18.0,-2.0,0.0,2.4888532161712646
452,0.0,-3.0,-17.0,0.0,-9890.0,-12269.0,1356.0,-4273.0,-9.0,-21.0,-2.0,11.0,-17.0,4.0,-30.0,-4.0,2.491351842880249
453,3.0,0.0,-13.0,0.0,-9889.0,-12271.0,1356.0,-4272.0,-9.0,-21.0,-2.0,11.0,-17.0,4.0,-30.0,-4.0,2.5083491802215576
454,3.0,0.0,-13.0,0.0,-9889.0,-12271.0,1356.0,-4272.0,9.0,33.0,7.0,-1.0,-8.0,-1.0,-11.0,1.0,2.51072359085083
455,3.0,0.0,-13.0,0.0,-9889.0,-12271.0,1356.0,-4272.0,4.0,-7.0,1.0,2.0,8.0,1.0,2.0,1.0,2.513007879257202
456,-6.0,5.0,-16.0,0.0,-9888.0,-12273.0,1355.0,-4270.0,4.0,-7.0,1.0,2.0,8.0,1.0,2.0,1.0,2.5311169624328613
457,-6.0,5.0,-16.0,0.0,-9888.0,-12273.0,1355.0,-4270.0,1.0,14.0,28.0,7.0,39.0,6.0,1.0,3.0,2.533479928970337
458,-6.0,5.0,-16.0,0.0,-9888.0,-12273.0,1355.0,-4270.0,2.0,15.0,19.0,-5.0,-15.0,-12.0,4.0,-8.0,2.535752773284912
459,-12.0,9.0,-13.0,0.0,-9886.0,-12274.0,1355.0,-4269.0,2.0,15.0,19.0,-5.0,-15.0,-12.0,4.0,-8.0,2.5453732013702393
460,-12.0,9.0,-13.0,0.0,-9886.0,-12274.0,1355.0,-4269.0,-10.0,-22.0,-15.0,-2.0,-7.0,-7.0,-24.0,-6.0,2.547839879989624
461,-12.0,9.0,-13.0,0.0,-9886.0,-12274.0,1355.0,-4269.0,2.0,-8.0,-26.0,-5.0,3.0,6.0,4.0,1.0,2.5525951385498047
462,2.0,8.0,-11.0,0.0,-9886.0,-12275.0,1354.0,-4268.0,2.0,-8.0,-26.0,-5.0,3.0,6.0,4.0,1.0,2.568591594696045
463,2.0,8.0,-11.0,0.0,-9886.0,-12275.0,1354.0,-4268.0,3.0,1.0,4.0,-8.0,-23.0,21.0,17.0,3.0,2.571103572845459
464,2.0,8.0,-11.0,0.0,-9886.0,-12275.0,1354.0,-4268.0,0.0,6.0,4.0,-3.0,-83.0,-13.0,8.0,-3.0,2.5734593868255615
465,1.0,17.0,-15.0,0.0,-9884.0,-12278.0,1349.0,-4266.0,0.0,6.0,4.0,-3.0,-83.0,-13.0,8.0,-3.0,2.5920608043670654
466,1.0,17.0,-15.0,0.0,-9884.0,-12278.0,1349.0,-4266.0,-18.0,-27.0,-20.0,-2.0,-23.0,0.0,6.0,-7.0,2.596276044845581
467,1.0,17.0,-15.0,0.0,-9884.0,-12278.0,1349.0,-4266.0,19.0,26.0,5.0,-2.0,21.0,20.0,10.0,8.0,2.6006674766540527
468,0.0,19.0,-8.0,0.0,-9882.0,-12281.0,1345.0,-4265.0,19.0,26.0,5.0,-2.0,21.0,20.0,10.0,8.0,2.605198621749878
469,0.0,19.0,-8.0,0.0,-9882.0,-12281.0,1345.0,-4265.0,-7.0,-8.0,-3.0,-6.0,-29.0,-23.0,-2.0,-3.0,2.6075432300567627
470,0.0,19.0,-8.0,0.0,-9882.0,-12281.0,1345.0,-4265.0,-2.0,-12.0,11.0,6.0,18.0,6.0,18.0,0.0,2.612236261367798
471,3.0,10.0,-4.0,0.0,-9881.0,-12281.0,1345.0,-4264.0,-2.0,-12.0,11.0,6.0,18.0,6.0,18.0,0.0,2.6284732818603516
472,3.0,10.0,-4.0,0.0,-9881.0,-12281.0,1345.0,-4264.0,4.0,1.0,-5.0,13.0,49.0,8.0,10.0,7.0,2.6325502395629883
473,3.0,10.0,-4.0,0.0,-9881.0,-12281.0,1345.0,-4264.0,-8.0,-6.0,5.0,2.0,5.0,4.0,3.0,-1.0,2.6367228031158447
474,-16.0,15.0,-18.0,0.0,-9882.0,-12282.0,1340.0,-4261.0,-8.0,-6.0,5.0,2.0,5.0,4.0,3.0,-1.0,2.6524696350097656
475,-16.0,15.0,-18.0,0.0,-9882.0,-12282.0,1340.0,-4261.0,0.0,2.0,-2.0,-3.0,-6.0,-5.0,12.0,-6.0,2.65677547454834
476,-16.0,15.0,-18.0,0.0,-9882.0,-12282.0,1340.0,-4261.0,-4.0,-12.0,1.0,-4.0,3.0,-12.0,-2.0,-1.0,2.6609411239624023
477,2.0,14.0,-9.0,0.0,-9882.0,-12283.0,1339.0,-4259.0,-4.0,-12.0,1.0,-4.0,3.0,-12.0,-2.0,-1.0,2.665163278579712
478,2.0,14.0,-9.0,0.0,-9882.0,-12283.0,1339.0,-4259.0,3.0,6.0,0.0,14.0,13.0,17.0,-3.0,5.0,2.667510747909546
479,2.0,14.0,-9.0,0.0,-9882.0,-12283.0,1339.0,-4259.0,-2.0,-1.0,-19.0,-27.0,-41.0,-21.0,-21.0,-2.0,2.6724908351898193
480,-5.0,20.0,4.0,0.0,-9881.0,-12285.0,1335.0,-4257.0,-2.0,-1.0,-19.0,-27.0,-41.0,-21.0,-21.0,-2.0,2.6884374618530273
481,-5.0,20.0,4.0,0.0,-9881.0,-12285.0,1335.0,-4257.0,0.0,7.0,2.0,-21.0,-2.0,0.0,-14.0,2.0,2.6924498081207275
482,-5.0,20.0,4.0,0.0,-9881.0,-12285.0,1335.0,-4257.0,-8.0,1.0,8.0,13.0,2.0,3.0,-3.0,-7.0,2.6965885162353516
483,-18.0,35.0,9.0,0.0,-9880.0,-12286.0,1331.0,-4258.0,-8.0,1.0,8.0,13.0,2.0,3.0,-3.0,-7.0,2.7130210399627686
484,-18.0,35.0,9.0,0.0,-9880.0,-12286.0,1331.0,-4258.0,19.0,15.0,-9.0,-14.0,-3.0,8.0,-13.0,10.0,2.7173736095428467
485,-18.0,35.0,9.0,0.0,-9880.0,-12286.0,1331.0,-4258.0,-4.0,-4.0,-23.0,1.0,5.0,-10.0,-17.0,-3.0,2.721447467803955
486,-3.0,36.0,7.0,0.0,-9878.0,-12287.0,1326.0,-4260.0,-4.0,-4.0,-23.0,1.0,5.0,-10.0,-17.0,-3.0,2.725145101547241
487,-3.0,36.0,7.0,0.0,-9878.0,-12287.0,1326.0,-4260.0,-11.0,-19.0,5.0,0.0,10.0,-8.0,14.0,-7.0,2.7274820804595947
488,-3.0,36.0,7.0,0.0,-9878.0,-12287.0,1326.0,-4260.0,7.0,21.0,15.0,-12.0,25.0,6.0,0.0,-1.0,2.732018232345581
489,17.0,27.0,5.0,0.0,-9874.0,-12291.0,1320.0,-4260.0,7.0,21.0,15.0,-12.0,25.0,6.0,0.0,-1.0,2.7483153343200684
490,17.0,27.0,5.0,0.0,-9874.0,-12291.0,1320.0,-4260.0,-6.0,-14.0,-8.0,-8.0,-18.0,-11.0,-8.0,-11.0,2.7506566047668457
491,17.0,27.0,5.0,0.0,-9874.0,-12291.0,1320.0,-4260.0,-4.0,-12.0,-8.0,-3.0,-5.0,-7.0,-6.0,7.0,2.7529103755950928
492,30.0,20.0,6.0,0.0,-9869.0,-12296.0,1316.0,-4261.0,-4.0,-12.0,-8.0,-3.0,-5.0,-7.0,-6.0,7.0,2.771667718887329
493,30.0,20.0,6.0,0.0,-9869.0,-12296.0,1316.0,-4261.0,1.0,6.0,2.0,16.0,14.0,0.0,1.0,-5.0,2.7744553089141846
494,30.0,20.0,6.0,0.0,-9869.0,-12296.0,1316.0,-4261.0,-3.0,-14.0,12.0,13.0,63.0,18.0,5.0,6.0,2.77675724029541
495,11.0,16.0,0.0,0.0,-9865.0,-12299.0,1312.0,-4260.0,-3.0,-14.0,12.0,13.0,63.0,18.0,5.0,6.0,2.7855160236358643
496,11.0,16.0,0.0,0.0,-9865.0,-12299.0,1312.0,-4260.0,3.0,14.0,9.0,-18.0,-11.0,-3.0,-2.0,0.0,2.7878551483154297
497,11.0,16.0,0.0,0.0,-9865.0,-12299.0,1312.0,-4260.0,-5.0,-3.0,-12.0,4.0,-20.0,-6.0,3.0,-1.0,2.792357921600342
498,13.0,4.0,-6.0,0.0,-9865.0,-12300.0,1312.0,-4260.0,-5.0,-3.0,-12.0,4.0,-20.0,-6.0,3.0,-1.0,2.808523416519165
499,13.0,4.0,-6.0,0.0,-9865.0,-12300.0,1312.0,-4260.0,-2.0,-28.0,-36.0,6.0,37.0,14.0,-8.0,0.0,2.8109097480773926
