,Gyro 0,Gyro 1,Gyro 2,Label,Orientation 0,Orientation 1,Orientation 2,Orientation 3,Sensor 0,Sensor 1,Sensor 2,Sensor 3,Sensor 4,Sensor 5,Sensor 6,Sensor 7,Timestamp
0,2.0,14.0,-9.0,0.0,-9334.0,-11195.0,7292.0,-1679.0,6.0,10.0,19.0,-1.0,-27.0,0.0,2.0,7.0,1.9073486328125e-06
1,8.0,15.0,-3.0,0.0,-9333.0,-11195.0,7293.0,-1680.0,6.0,10.0,19.0,-1.0,-27.0,0.0,2.0,7.0,0.002916574478149414
2,8.0,15.0,-3.0,0.0,-9333.0,-11195.0,7293.0,-1680.0,2.0,11.0,0.0,-2.0,1.0,-1.0,-8.0,0.0,0.0055713653564453125
3,8.0,15.0,-3.0,0.0,-9333.0,-11195.0,7293.0,-1680.0,-8.0,-9.0,11.0,2.0,11.0,12.0,11.0,-5.0,0.00807046890258789
4,8.0,15.0,-3.0,0.0,-9333.0,-11195.0,7293.0,-1680.0,-9.0,-21.0,-19.0,-3.0,3.0,-6.0,-20.0,-9.0,0.010392427444458008
5,31.0,15.0,-11.0,0.0,-9328.0,-11199.0,7292.0,-1686.0,-9.0,-21.0,-19.0,-3.0,3.0,-6.0,-20.0,-9.0,0.01266622543334961
6,31.0,15.0,-11.0,0.0,-9328.0,-11199.0,7292.0,-1686.0,-1.0,0.0,-5.0,1.0,11.0,-3.0,-8.0,-3.0,0.014999151229858398
7,31.0,15.0,-11.0,0.0,-9328.0,-11199.0,7292.0,-1686.0,-3.0,-4.0,9.0,3.0,-2.0,-3.0,5.0,10.0,0.017374277114868164
8,18.0,21.0,-1.0,0.0,-9325.0,-11201.0,7292.0,-1691.0,-3.0,-4.0,9.0,3.0,-2.0,-3.0,5.0,10.0,0.01967334747314453
9,18.0,21.0,-1.0,0.0,-9325.0,-11201.0,7292.0,-1691.0,-15.0,-23.0,-10.0,-1.0,-11.0,-2.0,3.0,-12.0,0.02264404296875
10,18.0,21.0,-1.0,0.0,-9325.0,-11201.0,7292.0,-1691.0,14.0,4.0,-30.0,-9.0,-11.0,5.0,1.0,0.0,0.02543926239013672
11,29.0,19.0,6.0,0.0,-9322.0,-11203.0,7291.0,-1698.0,14.0,4.0,-30.0,-9.0,-11.0,5.0,1.0,0.0,0.027788400650024414
12,29.0,19.0,6.0,0.0,-9322.0,-11203.0,7291.0,-1698.0,-5.0,-12.0,-13.0,-1.0,5.0,-2.0,-1.0,0.0,0.030119895935058594
13,29.0,19.0,6.0,0.0,-9322.0,-11203.0,7291.0,-1698.0,-2.0,2.0,-3.0,-3.0,7.0,5.0,9.0,4.0,0.03237485885620117
14,14.0,28.0,13.0,0.0,-9321.0,-11203.0,7291.0,-1704.0,-2.0,2.0,-3.0,-3.0,7.0,5.0,9.0,4.0,0.03465080261230469
15,14.0,28.0,13.0,0.0,-9321.0,-11203.0,7291.0,-1704.0,-4.0,2.0,1.0,-9.0,2.0,-11.0,-7.0,-5.0,0.03698897361755371
16,14.0,28.0,13.0,0.0,-9321.0,-11203.0,7291.0,-1704.0,4.0,11.0,17.0,-4.0,-19.0,-7.0,-4.0,6.0,0.039254188537597656
17,21.0,31.0,10.0,0.0,-9318.0,-11205.0,7290.0,-1711.0,4.0,11.0,17.0,-4.0,-19.0,-7.0,-4.0,6.0,0.04151630401611328
18,21.0,31.0,10.0,0.0,-9318.0,-11205.0,7290.0,-1711.0,-8.0,-11.0,-4.0,-2.0,-10.0,3.0,-6.0,-2.0,0.04384613037109375
19,21.0,31.0,10.0,0.0,-9318.0,-11205.0,7290.0,-1711.0,2.0,-16.0,-31.0,-8.0,4.0,4.0,8.0,5.0,0.04610490798950195
20,17.0,31.0,23.0,0.0,-9314.0,-11206.0,7291.0,-1719.0,2.0,-16.0,-31.0,-8.0,4.0,4.0,8.0,5.0,0.048482656478881836
21,17.0,31.0,23.0,0.0,-9314.0,-11206.0,7291.0,-1719.0,25.0,20.0,-16.0,-1.0,15.0,11.0,5.0,14.0,0.05080008506774902
22,17.0,31.0,23.0,0.0,-9314.0,-11206.0,7291.0,-1719.0,-5.0,-3.0,-4.0,1.0,-12.0,-8.0,-4.0,-7.0,0.05363917350769043
23,25.0,34.0,29.0,0.0,-9309.0,-11207.0,7293.0,-1729.0,-5.0,-3.0,-4.0,1.0,-12.0,-8.0,-4.0,-7.0,0.05635213851928711
24,25.0,34.0,29.0,0.0,-9309.0,-11207.0,7293.0,-1729.0,0.0,-10.0,-13.0,1.0,2.0,-1.0,-12.0,2.0,0.058716535568237305
25,25.0,34.0,29.0,0.0,-9309.0,-11207.0,7293.0,-1729.0,0.0,-3.0,-10.0,2.0,16.0,-2.0,-8.0,2.0,0.061006784439086914
26,36.0,37.0,31.0,0.0,-9304.0,-11208.0,7295.0,-1743.0,0.0,-3.0,-10.0,2.0,16.0,-2.0,-8.0,2.0,0.06330442428588867
27,36.0,37.0,31.0,0.0,-9304.0,-11208.0,7295.0,-1743.0,-6.0,4.0,16.0,-1.0,-1.0,-1.0,-3.0,-13.0,0.06570839881896973
28,36.0,37.0,31.0,0.0,-9304.0,-11208.0,7295.0,-1743.0,-6.0,-6.0,8.0,-3.0,-11.0,-5.0,5.0,-5.0,0.06802487373352051
29,60.0,43.0,31.0,0.0,-9295.0,-11212.0,7297.0,-1759.0,-6.0,-6.0,8.0,-3.0,-11.0,-5.0,5.0,-5.0,0.0702829360961914
30,60.0,43.0,31.0,0.0,-9295.0,-11212.0,7297.0,-1759.0,-2.0,-7.0,1.0,1.0,2.0,0.0,-4.0,0.0,0.07266116142272949
31,60.0,43.0,31.0,0.0,-9295.0,-11212.0,7297.0,-1759.0,8.0,15.0,12.0,-1.0,-2.0,1.0,15.0,2.0,0.0749349594116211
32,90.0,46.0,31.0,0.0,-9283.0,-11219.0,7298.0,-1777.0,8.0,15.0,12.0,-1.0,-2.0,1.0,15.0,2.0,0.07722878456115723
33,90.0,46.0,31.0,0.0,-9283.0,-11219.0,7298.0,-1777.0,-5.0,-11.0,-7.0,1.0,-4.0,-17.0,-6.0,-14.0,0.07959127426147461
34,90.0,46.0,31.0,0.0,-9283.0,-11219.0,7298.0,-1777.0,3.0,11.0,16.0,4.0,18.0,6.0,0.0,2.0,0.08193683624267578
35,86.0,46.0,39.0,0.0,-9273.0,-11225.0,7297.0,-1793.0,3.0,11.0,16.0,4.0,18.0,6.0,0.0,2.0,0.08484077453613281
36,86.0,46.0,39.0,0.0,-9273.0,-11225.0,7297.0,-1793.0,9.0,32.0,23.0,-1.0,-13.0,0.0,14.0,3.0,0.08764100074768066
37,86.0,46.0,39.0,0.0,-9273.0,-11225.0,7297.0,-1793.0,-7.0,-10.0,-4.0,2.0,-11.0,-7.0,-8.0,-7.0,0.09000301361083984
38,74.0,37.0,40.0,0.0,-9266.0,-11230.0,7296.0,-1806.0,-7.0,-10.0,-4.0,2.0,-11.0,-7.0,-8.0,-7.0,0.09227871894836426
39,74.0,37.0,40.0,0.0,-9266.0,-11230.0,7296.0,-1806.0,-10.0,-1.0,22.0,6.0,5.0,-1.0,-1.0,0.0,0.09464406967163086
40,74.0,37.0,40.0,0.0,-9266.0,-11230.0,7296.0,-1806.0,-4.0,-2.0,-3.0,2.0,16.0,3.0,-2.0,-5.0,0.09691929817199707
41,59.0,30.0,25.0,0.0,-9262.0,-11233.0,7293.0,-1815.0,-4.0,-2.0,-3.0,2.0,16.0,3.0,-2.0,-5.0,0.0991969108581543
42,59.0,30.0,25.0,0.0,-9262.0,-11233.0,7293.0,-1815.0,3.0,15.0,13.0,-2.0,-8.0,5.0,15.0,10.0,0.10160970687866211
43,59.0,30.0,25.0,0.0,-9262.0,-11233.0,7293.0,-1815.0,-9.0,-7.0,-7.0,-2.0,-41.0,-14.0,-10.0,-8.0,0.10389256477355957
44,2.0,-17.0,43.0,0.0,-9270.0,-11226.0,7293.0,-1815.0,-9.0,-7.0,-7.0,-2.0,-41.0,-14.0,-10.0,-8.0,0.10616278648376465
45,2.0,-17.0,43.0,0.0,-9270.0,-11226.0,7293.0,-1815.0,2.0,-3.0,5.0,-1.0,13.0,6.0,-7.0,1.0,0.10851430892944336
46,2.0,-17.0,43.0,0.0,-9270.0,-11226.0,7293.0,-1815.0,-8.0,-4.0,16.0,6.0,16.0,1.0,2.0,-3.0,0.11079955101013184
47,-206.0,-96.0,98.0,0.0,-9314.0,-11188.0,7302.0,-1790.0,-8.0,-4.0,16.0,6.0,16.0,1.0,2.0,-3.0,0.11307191848754883
48,-206.0,-96.0,98.0,0.0,-9314.0,-11188.0,7302.0,-1790.0,6.0,-4.0,-11.0,-2.0,2.0,2.0,5.0,2.0,0.11586999893188477
49,-206.0,-96.0,98.0,0.0,-9314.0,-11188.0,7302.0,-1790.0,-2.0,-11.0,-11.0,-2.0,16.0,-6.0,2.0,1.0,0.1184990406036377
50,-565.0,-204.0,232.0,0.0,-9406.0,-11097.0,7335.0,-1735.0,-2.0,-11.0,-11.0,-2.0,16.0,-6.0,2.0,1.0,0.12088489532470703
51,-565.0,-204.0,232.0,0.0,-9406.0,-11097.0,7335.0,-1735.0,2.0,-3.0,-27.0,-5.0,12.0,3.0,1.0,1.0,0.12324285507202148
52,-565.0,-204.0,232.0,0.0,-9406.0,-11097.0,7335.0,-1735.0,-1.0,-1.0,12.0,1.0,-12.0,9.0,0.0,-1.0,0.12553000450134277
53,-1024.0,-299.0,476.0,0.0,-9535.0,-10944.0,7417.0,-1655.0,-1.0,-1.0,12.0,1.0,-12.0,9.0,0.0,-1.0,0.1278078556060791
54,-1024.0,-299.0,476.0,0.0,-9535.0,-10944.0,7417.0,-1655.0,-4.0,-4.0,4.0,-1.0,-21.0,-10.0,-1.0,0.0,0.1301589012145996
55,-1024.0,-299.0,476.0,0.0,-9535.0,-10944.0,7417.0,-1655.0,-5.0,-35.0,-14.0,16.0,46.0,15.0,-1.0,-2.0,0.13245129585266113
56,-1376.0,-353.0,704.0,0.0,-9679.0,-10737.0,7550.0,-1575.0,-5.0,-35.0,-14.0,16.0,46.0,15.0,-1.0,-2.0,0.13471627235412598
57,-1376.0,-353.0,704.0,0.0,-9679.0,-10737.0,7550.0,-1575.0,-2.0,-12.0,-12.0,12.0,-33.0,-10.0,-7.0,-2.0,0.1370863914489746
58,-1376.0,-353.0,704.0,0.0,-9679.0,-10737.0,7550.0,-1575.0,1.0,-1.0,12.0,10.0,24.0,4.0,0.0,2.0,0.13934683799743652
59,-1382.0,-482.0,866.0,0.0,-9786.0,-10519.0,7731.0,-1509.0,1.0,-1.0,12.0,10.0,24.0,4.0,0.0,2.0,0.14162874221801758
60,-1382.0,-482.0,866.0,0.0,-9786.0,-10519.0,7731.0,-1509.0,-1.0,-14.0,-39.0,-11.0,10.0,-1.0,-4.0,-3.0,0.14397788047790527
61,-1382.0,-482.0,866.0,0.0,-9786.0,-10519.0,7731.0,-1509.0,24.0,41.0,8.0,5.0,16.0,13.0,10.0,8.0,0.14626598358154297
62,-1375.0,-527.0,1060.0,0.0,-9866.0,-10286.0,7948.0,-1465.0,24.0,41.0,8.0,5.0,16.0,13.0,10.0,8.0,0.14911484718322754
63,-1375.0,-527.0,1060.0,0.0,-9866.0,-10286.0,7948.0,-1465.0,4.0,33.0,33.0,-10.0,-59.0,-9.0,5.0,-1.0,0.15173840522766113
64,-1375.0,-527.0,1060.0,0.0,-9866.0,-10286.0,7948.0,-1465.0,-15.0,0.0,7.0,8.0,-2.0,3.0,-2.0,-7.0,0.15400457382202148
65,-1190.0,-672.0,1151.0,0.0,-9900.0,-10079.0,8178.0,-1409.0,-15.0,0.0,7.0,8.0,-2.0,3.0,-2.0,-7.0,0.15633583068847656
66,-1190.0,-672.0,1151.0,0.0,-9900.0,-10079.0,8178.0,-1409.0,-12.0,-29.0,-2.0,6.0,-3.0,-19.0,-2.0,-6.0,0.15869832038879395
67,-1190.0,-672.0,1151.0,0.0,-9900.0,-10079.0,8178.0,-1409.0,2.0,5.0,18.0,-5.0,-23.0,-7.0,1.0,-1.0,0.1611311435699463
68,-1269.0,-873.0,1174.0,0.0,-9912.0,-9868.0,8431.0,-1318.0,2.0,5.0,18.0,-5.0,-23.0,-7.0,1.0,-1.0,0.16346454620361328
69,-1269.0,-873.0,1174.0,0.0,-9912.0,-9868.0,8431.0,-1318.0,-11.0,-14.0,31.0,0.0,16.0,2.0,-4.0,-3.0,0.16585183143615723
70,-1269.0,-873.0,1174.0,0.0,-9912.0,-9868.0,8431.0,-1318.0,1.0,0.0,-15.0,-5.0,-9.0,2.0,-1.0,2.0,0.1681373119354248
71,-1001.0,-1014.0,1089.0,0.0,-9891.0,-9681.0,8682.0,-1235.0,1.0,0.0,-15.0,-5.0,-9.0,2.0,-1.0,2.0,0.1704404354095459
72,-1001.0,-1014.0,1089.0,0.0,-9891.0,-9681.0,8682.0,-1235.0,-1.0,-6.0,-20.0,-1.0,9.0,-3.0,3.0,-2.0,0.17283058166503906
73,-1001.0,-1014.0,1089.0,0.0,-9891.0,-9681.0,8682.0,-1235.0,8.0,20.0,1.0,-10.0,1.0,-6.0,-3.0,3.0,0.17516636848449707
74,-808.0,-951.0,881.0,0.0,-9868.0,-9522.0,8892.0,-1157.0,8.0,20.0,1.0,-10.0,1.0,-6.0,-3.0,3.0,0.17749547958374023
75,-808.0,-951.0,881.0,0.0,-9868.0,-9522.0,8892.0,-1157.0,7.0,10.0,14.0,-3.0,21.0,11.0,-3.0,2.0,0.18045377731323242
76,-808.0,-951.0,881.0,0.0,-9868.0,-9522.0,8892.0,-1157.0,-12.0,-28.0,-20.0,-9.0,0.0,-10.0,-3.0,-5.0,0.18300557136535645
77,-593.0,-840.0,534.0,0.0,-9837.0,-9416.0,9048.0,-1073.0,-12.0,-28.0,-20.0,-9.0,0.0,-10.0,-3.0,-5.0,0.1852879524230957
78,-593.0,-840.0,534.0,0.0,-9837.0,-9416.0,9048.0,-1073.0,13.0,38.0,9.0,0.0,21.0,16.0,-12.0,5.0,0.1876676082611084
79,-593.0,-840.0,534.0,0.0,-9837.0,-9416.0,9048.0,-1073.0,0.0,0.0,-5.0,-12.0,-20.0,-6.0,-6.0,-4.0,0.18991422653198242
80,-444.0,-720.0,227.0,0.0,-9812.0,-9348.0,9155.0,-987.0,0.0,0.0,-5.0,-12.0,-20.0,-6.0,-6.0,-4.0,0.1921703815460205
81,-444.0,-720.0,227.0,0.0,-9812.0,-9348.0,9155.0,-987.0,3.0,2.0,-8.0,-1.0,25.0,4.0,7.0,1.0,0.1945500373840332
82,-444.0,-720.0,227.0,0.0,-9812.0,-9348.0,9155.0,-987.0,3.0,1.0,-7.0,-4.0,-4.0,-3.0,-9.0,-1.0,0.19684767723083496
83,-274.0,-473.0,-70.0,0.0,-9795.0,-9318.0,9210.0,-925.0,3.0,1.0,-7.0,-4.0,-4.0,-3.0,-9.0,-1.0,0.19910264015197754
84,-274.0,-473.0,-70.0,0.0,-9795.0,-9318.0,9210.0,-925.0,-5.0,-14.0,-17.0,-1.0,0.0,1.0,0.0,-1.0,0.20143556594848633
85,-274.0,-473.0,-70.0,0.0,-9795.0,-9318.0,9210.0,-925.0,-1.0,2.0,-2.0,-8.0,-25.0,-7.0,4.0,1.0,0.20375370979309082
86,-37.0,-95.0,-186.0,0.0,-9784.0,-9326.0,9216.0,-911.0,-1.0,2.0,-2.0,-8.0,-25.0,-7.0,4.0,1.0,0.20600628852844238
87,-37.0,-95.0,-186.0,0.0,-9784.0,-9326.0,9216.0,-911.0,-4.0,-12.0,-2.0,8.0,26.0,-2.0,-4.0,-4.0,0.2083454132080078
88,-37.0,-95.0,-186.0,0.0,-9784.0,-9326.0,9216.0,-911.0,1.0,2.0,-23.0,-7.0,-10.0,-3.0,-4.0,-3.0,0.2111525535583496
89,203.0,311.0,-309.0,0.0,-9781.0,-9377.0,9163.0,-940.0,1.0,2.0,-23.0,-7.0,-10.0,-3.0,-4.0,-3.0,0.21373677253723145
90,203.0,311.0,-309.0,0.0,-9781.0,-9377.0,9163.0,-940.0,-4.0,-5.0,-13.0,2.0,-7.0,-12.0,-8.0,0.0,0.21609854698181152
91,203.0,311.0,-309.0,0.0,-9781.0,-9377.0,9163.0,-940.0,0.0,-2.0,10.0,-1.0,12.0,1.0,5.0,1.0,0.2183852195739746
92,544.0,647.0,-461.0,0.0,-9760.0,-9495.0,9056.0,-1004.0,0.0,-2.0,10.0,-1.0,12.0,1.0,5.0,1.0,0.22072386741638184
93,544.0,647.0,-461.0,0.0,-9760.0,-9495.0,9056.0,-1004.0,-2.0,-4.0,-2.0,-2.0,-2.0,4.0,7.0,0.0,0.22309660911560059
94,544.0,647.0,-461.0,0.0,-9760.0,-9495.0,9056.0,-1004.0,-2.0,0.0,8.0,1.0,-5.0,-2.0,-5.0,-3.0,0.22544169425964355
95,842.0,820.0,-548.0,0.0,-9715.0,-9667.0,8913.0,-1086.0,-2.0,0.0,8.0,1.0,-5.0,-2.0,-5.0,-3.0,0.22771024703979492
96,842.0,820.0,-548.0,0.0,-9715.0,-9667.0,8913.0,-1086.0,3.0,6.0,4.0,-3.0,5.0,3.0,0.0,1.0,0.23003149032592773
97,842.0,820.0,-548.0,0.0,-9715.0,-9667.0,8913.0,-1086.0,6.0,14.0,-3.0,0.0,-8.0,-1.0,-1.0,1.0,0.2323157787322998
98,973.0,892.0,-701.0,0.0,-9660.0,-9871.0,8738.0,-1160.0,6.0,14.0,-3.0,0.0,-8.0,-1.0,-1.0,1.0,0.23466730117797852
99,973.0,892.0,-701.0,0.0,-9660.0,-9871.0,8738.0,-1160.0,0.0,-2.0,-17.0,-3.0,-3.0,-3.0,-5.0,-2.0,0.23724079132080078
100,973.0,892.0,-701.0,0.0,-9660.0,-9871.0,8738.0,-1160.0,-2.0,-7.0,-2.0,-5.0,8.0,1.0,4.0,-2.0,0.23984265327453613
101,988.0,905.0,-880.0,0.0,-9599.0,-10093.0,8541.0,-1218.0,-2.0,-7.0,-2.0,-5.0,8.0,1.0,4.0,-2.0,0.24286818504333496
102,988.0,905.0,-880.0,0.0,-9599.0,-10093.0,8541.0,-1218.0,0.0,3.0,6.0,-1.0,-7.0,1.0,0.0,-1.0,0.24556207656860352
103,988.0,905.0,-880.0,0.0,-9599.0,-10093.0,8541.0,-1218.0,2.0,-1.0,0.0,3.0,-3.0,3.0,-1.0,1.0,0.2479405403137207
104,919.0,874.0,-895.0,0.0,-9540.0,-10303.0,8347.0,-1272.0,2.0,-1.0,0.0,3.0,-3.0,3.0,-1.0,1.0,0.25025057792663574
105,919.0,874.0,-895.0,0.0,-9540.0,-10303.0,8347.0,-1272.0,3.0,2.0,-2.0,-4.0,-7.0,2.0,1.0,1.0,0.2526254653930664
106,919.0,874.0,-895.0,0.0,-9540.0,-10303.0,8347.0,-1272.0,-1.0,-9.0,-12.0,0.0,-6.0,0.0,0.0,0.0,0.25490808486938477
107,897.0,858.0,-885.0,0.0,-9492.0,-10495.0,8151.0,-1332.0,-1.0,-9.0,-12.0,0.0,-6.0,0.0,0.0,0.0,0.25728273391723633
108,897.0,858.0,-885.0,0.0,-9492.0,-10495.0,8151.0,-1332.0,-3.0,-3.0,-5.0,-1.0,0.0,-1.0,2.0,-3.0,0.2596597671508789
109,897.0,858.0,-885.0,0.0,-9492.0,-10495.0,8151.0,-1332.0,0.0,4.0,7.0,1.0,4.0,0.0,-1.0,0.0,0.26194334030151367
110,1055.0,752.0,-838.0,0.0,-9421.0,-10692.0,7963.0,-1401.0,0.0,4.0,7.0,1.0,4.0,0.0,-1.0,0.0,0.26429200172424316
111,1055.0,752.0,-838.0,0.0,-9421.0,-10692.0,7963.0,-1401.0,0.0,-1.0,-2.0,-2.0,-12.0,-2.0,-1.0,-2.0,0.26665306091308594
112,1055.0,752.0,-838.0,0.0,-9421.0,-10692.0,7963.0,-1401.0,0.0,-1.0,5.0,21.0,6.0,-3.0,5.0,1.0,0.2689347267150879
113,1149.0,541.0,-658.0,0.0,-9334.0,-10871.0,7807.0,-1478.0,0.0,-1.0,5.0,21.0,6.0,-3.0,5.0,1.0,0.27120423316955566
114,1149.0,541.0,-658.0,0.0,-9334.0,-10871.0,7807.0,-1478.0,-1.0,0.0,0.0,1.0,-7.0,1.0,-3.0,0.0,0.2742154598236084
115,1149.0,541.0,-658.0,0.0,-9334.0,-10871.0,7807.0,-1478.0,-4.0,0.0,1.0,11.0,14.0,10.0,5.0,0.0,0.27680325508117676
116,1089.0,358.0,-492.0,0.0,-9259.0,-11014.0,7680.0,-1553.0,-4.0,0.0,1.0,11.0,14.0,10.0,5.0,0.0,0.27911972999572754
117,1089.0,358.0,-492.0,0.0,-9259.0,-11014.0,7680.0,-1553.0,-5.0,-7.0,-3.0,-10.0,-34.0,-11.0,-5.0,-3.0,0.28156590461730957
118,1089.0,358.0,-492.0,0.0,-9259.0,-11014.0,7680.0,-1553.0,1.0,3.0,6.0,-6.0,7.0,3.0,-4.0,0.0,0.2838592529296875
119,839.0,184.0,-332.0,0.0,-9213.0,-11106.0,7591.0,-1613.0,1.0,3.0,6.0,-6.0,7.0,3.0,-4.0,0.0,0.2862212657928467
120,839.0,184.0,-332.0,0.0,-9213.0,-11106.0,7591.0,-1613.0,1.0,-5.0,-13.0,-9.0,27.0,4.0,-1.0,1.0,0.2886219024658203
121,839.0,184.0,-332.0,0.0,-9213.0,-11106.0,7591.0,-1613.0,-6.0,-17.0,-8.0,-16.0,-12.0,11.0,0.0,-2.0,0.2908952236175537
122,626.0,103.0,-216.0,0.0,-9189.0,-11155.0,7535.0,-1675.0,-6.0,-17.0,-8.0,-16.0,-12.0,11.0,0.0,-2.0,0.29317355155944824
123,626.0,103.0,-216.0,0.0,-9189.0,-11155.0,7535.0,-1675.0,2.0,5.0,16.0,5.0,4.0,2.0,2.0,1.0,0.2956218719482422
124,626.0,103.0,-216.0,0.0,-9189.0,-11155.0,7535.0,-1675.0,4.0,10.0,6.0,1.0,16.0,3.0,2.0,4.0,0.2978975772857666
125,543.0,25.0,-151.0,0.0,-9164.0,-11193.0,7496.0,-1729.0,4.0,10.0,6.0,1.0,16.0,3.0,2.0,4.0,0.30018019676208496
126,543.0,25.0,-151.0,0.0,-9164.0,-11193.0,7496.0,-1729.0,14.0,30.0,-7.0,2.0,-7.0,9.0,24.0,8.0,0.30258774757385254
127,543.0,25.0,-151.0,0.0,-9164.0,-11193.0,7496.0,-1729.0,4.0,18.0,6.0,-5.0,24.0,8.0,-6.0,-1.0,0.3055119514465332
128,411.0,1.0,-122.0,0.0,-9148.0,-11223.0,7464.0,-1763.0,4.0,18.0,6.0,-5.0,24.0,8.0,-6.0,-1.0,0.30809855461120605
129,411.0,1.0,-122.0,0.0,-9148.0,-11223.0,7464.0,-1763.0,-6.0,1.0,6.0,-5.0,12.0,6.0,-7.0,-4.0,0.3104984760284424
130,411.0,1.0,-122.0,0.0,-9148.0,-11223.0,7464.0,-1763.0,3.0,0.0,-11.0,4.0,-23.0,-4.0,12.0,1.0,0.3127903938293457
131,268.0,-24.0,-140.0,0.0,-9134.0,-11250.0,7438.0,-1772.0,3.0,0.0,-11.0,4.0,-23.0,-4.0,12.0,1.0,0.3150622844696045
132,268.0,-24.0,-140.0,0.0,-9134.0,-11250.0,7438.0,-1772.0,-14.0,-27.0,12.0,10.0,49.0,2.0,-3.0,-4.0,0.31749558448791504
133,268.0,-24.0,-140.0,0.0,-9134.0,-11250.0,7438.0,-1772.0,8.0,23.0,13.0,-13.0,-8.0,-3.0,-3.0,3.0,0.3197934627532959
134,136.0,-72.0,-164.0,0.0,-9123.0,-11275.0,7417.0,-1757.0,8.0,23.0,13.0,-13.0,-8.0,-3.0,-3.0,3.0,0.3220813274383545
135,136.0,-72.0,-164.0,0.0,-9123.0,-11275.0,7417.0,-1757.0,22.0,53.0,20.0,-14.0,-32.0,-5.0,-1.0,7.0,0.32453298568725586
136,136.0,-72.0,-164.0,0.0,-9123.0,-11275.0,7417.0,-1757.0,-13.0,-4.0,15.0,-3.0,-30.0,-38.0,-26.0,-10.0,0.32683825492858887
137,114.0,-164.0,-207.0,0.0,-9097.0,-11310.0,7404.0,-1721.0,-13.0,-4.0,15.0,-3.0,-30.0,-38.0,-26.0,-10.0,0.32912445068359375
138,114.0,-164.0,-207.0,0.0,-9097.0,-11310.0,7404.0,-1721.0,-20.0,-31.0,8.0,10.0,17.0,3.0,-5.0,-9.0,0.33148670196533203
139,114.0,-164.0,-207.0,0.0,-9097.0,-11310.0,7404.0,-1721.0,-13.0,-14.0,1.0,4.0,30.0,22.0,13.0,-1.0,0.3423728942871094
140,74.0,-280.0,-242.0,0.0,-9067.0,-11346.0,7399.0,-1661.0,-13.0,-14.0,1.0,4.0,30.0,22.0,13.0,-1.0,0.34474778175354004
141,74.0,-280.0,-242.0,0.0,-9067.0,-11346.0,7399.0,-1661.0,-8.0,-13.0,-12.0,-6.0,-84.0,-28.0,-42.0,-10.0,0.3490614891052246
142,74.0,-280.0,-242.0,0.0,-9067.0,-11346.0,7399.0,-1661.0,12.0,-6.0,2.0,-1.0,-12.0,1.0,-12.0,3.0,0.3570411205291748
143,-4.0,-313.0,-312.0,0.0,-9050.0,-11376.0,7390.0,-1590.0,12.0,-6.0,2.0,-1.0,-12.0,1.0,-12.0,3.0,0.3593475818634033
144,-4.0,-313.0,-312.0,0.0,-9050.0,-11376.0,7390.0,-1590.0,19.0,23.0,-38.0,-8.0,8.0,-4.0,4.0,4.0,0.3639209270477295
145,-4.0,-313.0,-312.0,0.0,-9050.0,-11376.0,7390.0,-1590.0,-6.0,-12.0,-11.0,-3.0,-6.0,3.0,-12.0,-5.0,0.38024282455444336
146,16.0,-289.0,-425.0,0.0,-9030.0,-11417.0,7367.0,-1516.0,-6.0,-12.0,-11.0,-3.0,-6.0,3.0,-12.0,-5.0,0.3844923973083496
147,16.0,-289.0,-425.0,0.0,-9030.0,-11417.0,7367.0,-1516.0,5.0,3.0,2.0,5.0,40.0,-1.0,40.0,7.0,0.388901948928833
148,107.0,-176.0,-443.0,0.0,-9018.0,-11454.0,7331.0,-1475.0,5.0,3.0,2.0,5.0,40.0,-1.0,40.0,7.0,0.4022409915924072
149,107.0,-176.0,-443.0,0.0,-9018.0,-11454.0,7331.0,-1475.0,-5.0,-16.0,-16.0,5.0,30.0,3.0,28.0,-1.0,0.4184131622314453
150,107.0,-176.0,-443.0,0.0,-9018.0,-11454.0,7331.0,-1475.0,-16.0,-34.0,17.0,2.0,-46.0,2.0,-7.0,-6.0,0.42241573333740234
151,254.0,52.0,-342.0,0.0,-9009.0,-11489.0,7285.0,-1491.0,-16.0,-34.0,17.0,2.0,-46.0,2.0,-7.0,-6.0,0.4255197048187256
152,254.0,52.0,-342.0,0.0,-9009.0,-11489.0,7285.0,-1491.0,0.0,14.0,16.0,-3.0,-9.0,2.0,5.0,4.0,0.42792296409606934
153,254.0,52.0,-342.0,0.0,-9009.0,-11489.0,7285.0,-1491.0,12.0,15.0,-19.0,-2.0,26.0,9.0,1.0,5.0,0.4302690029144287
154,304.0,208.0,-207.0,0.0,-9005.0,-11518.0,7234.0,-1535.0,12.0,15.0,-19.0,-2.0,26.0,9.0,1.0,5.0,0.44769763946533203
155,304.0,208.0,-207.0,0.0,-9005.0,-11518.0,7234.0,-1535.0,1.0,-7.0,-12.0,-4.0,6.0,-5.0,-12.0,-2.0,0.4500865936279297
156,304.0,208.0,-207.0,0.0,-9005.0,-11518.0,7234.0,-1535.0,-2.0,-11.0,12.0,5.0,1.0,1.0,0.0,3.0,0.452434778213501
157,202.0,259.0,-98.0,0.0,-9019.0,-11531.0,7188.0,-1579.0,-2.0,-11.0,12.0,5.0,1.0,1.0,0.0,3.0,0.4613206386566162
158,202.0,259.0,-98.0,0.0,-9019.0,-11531.0,7188.0,-1579.0,0.0,7.0,-6.0,-3.0,-29.0,-9.0,-5.0,-1.0,0.46938085556030273
159,202.0,259.0,-98.0,0.0,-9019.0,-11531.0,7188.0,-1579.0,-6.0,-10.0,9.0,3.0,-3.0,4.0,-3.0,-1.0,0.4716951847076416
160,41.0,221.0,7.0,0.0,-9042.0,-11524.0,7162.0,-1612.0,-6.0,-10.0,9.0,3.0,-3.0,4.0,-3.0,-1.0,0.485994815826416
161,41.0,221.0,7.0,0.0,-9042.0,-11524.0,7162.0,-1612.0,3.0,14.0,8.0,-1.0,-18.0,-21.0,-2.0,-1.0,0.49033570289611816
162,41.0,221.0,7.0,0.0,-9042.0,-11524.0,7162.0,-1612.0,-5.0,-10.0,-20.0,-3.0,-4.0,-2.0,10.0,0.0,0.4952073097229004
163,-126.0,154.0,90.0,0.0,-9074.0,-11499.0,7158.0,-1631.0,-5.0,-10.0,-20.0,-3.0,-4.0,-2.0,10.0,0.0,0.5078470706939697
164,-126.0,154.0,90.0,0.0,-9074.0,-11499.0,7158.0,-1631.0,-5.0,-13.0,-15.0,1.0,17.0,4.0,-10.0,-1.0,0.512284517288208
165,-126.0,154.0,90.0,0.0,-9074.0,-11499.0,7158.0,-1631.0,2.0,18.0,2.0,-4.0,-18.0,-8.0,-6.0,-5.0,0.5165972709655762
166,-209.0,116.0,127.0,0.0,-9106.0,-11467.0,7166.0,-1641.0,2.0,18.0,2.0,-4.0,-18.0,-8.0,-6.0,-5.0,0.5228180885314941
167,-209.0,116.0,127.0,0.0,-9106.0,-11467.0,7166.0,-1641.0,-2.0,8.0,6.0,-6.0,-9.0,-2.0,3.0,1.0,0.5303373336791992
168,-209.0,116.0,127.0,0.0,-9106.0,-11467.0,7166.0,-1641.0,6.0,2.0,-27.0,-2.0,6.0,4.0,-15.0,8.0,0.5326766967773438
169,-219.0,76.0,119.0,0.0,-9132.0,-11440.0,7176.0,-1638.0,6.0,2.0,-27.0,-2.0,6.0,4.0,-15.0,8.0,0.5454416275024414
170,-219.0,76.0,119.0,0.0,-9132.0,-11440.0,7176.0,-1638.0,-2.0,-11.0,-13.0,-2.0,0.0,1.0,-2.0,-3.0,0.5478050708770752
171,-219.0,76.0,119.0,0.0,-9132.0,-11440.0,7176.0,-1638.0,-4.0,-7.0,3.0,2.0,16.0,1.0,3.0,-1.0,0.5502369403839111
172,-181.0,19.0,111.0,0.0,-9143.0,-11422.0,7193.0,-1631.0,-4.0,-7.0,3.0,2.0,16.0,1.0,3.0,-1.0,0.5666074752807617
173,-181.0,19.0,111.0,0.0,-9143.0,-11422.0,7193.0,-1631.0,-7.0,-7.0,15.0,4.0,9.0,10.0,12.0,-2.0,0.575875997543335
174,-181.0,19.0,111.0,0.0,-9143.0,-11422.0,7193.0,-1631.0,3.0,2.0,9.0,0.0,-6.0,-5.0,7.0,-1.0,0.5799224376678467
175,-89.0,18.0,51.0,0.0,-9140.0,-11419.0,7203.0,-1626.0,3.0,2.0,9.0,0.0,-6.0,-5.0,7.0,-1.0,0.5838465690612793
176,-89.0,18.0,51.0,0.0,-9140.0,-11419.0,7203.0,-1626.0,-4.0,-9.0,-7.0,1.0,-5.0,-1.0,-11.0,-7.0,0.5864698886871338
177,-89.0,18.0,51.0,0.0,-9140.0,-11419.0,7203.0,-1626.0,1.0,0.0,1.0,0.0,-7.0,1.0,-3.0,-3.0,0.5889692306518555
178,-5.0,7.0,10.0,0.0,-9136.0,-11422.0,7203.0,-1623.0,1.0,0.0,1.0,0.0,-7.0,1.0,-3.0,-3.0,0.6052427291870117
179,-5.0,7.0,10.0,0.0,-9136.0,-11422.0,7203.0,-1623.0,0.0,-7.0,-5.0,-1.0,-1.0,-1.0,8.0,3.0,0.6076123714447021
180,-5.0,7.0,10.0,0.0,-9136.0,-11422.0,7203.0,-1623.0,30.0,62.0,4.0,-6.0,2.0,4.0,5.0,11.0,0.6098952293395996
181,53.0,11.0,-32.0,0.0,-9120.0,-11438.0,7199.0,-1620.0,30.0,62.0,4.0,-6.0,2.0,4.0,5.0,11.0,0.6277577877044678
182,53.0,11.0,-32.0,0.0,-9120.0,-11438.0,7199.0,-1620.0,1.0,3.0,-3.0,1.0,-2.0,-17.0,3.0,-1.0,0.6306591033935547
183,53.0,11.0,-32.0,0.0,-9120.0,-11438.0,7199.0,-1620.0,-16.0,-18.0,0.0,1.0,-7.0,-3.0,-5.0,-9.0,0.63466477394104
184,105.0,20.0,-59.0,0.0,-9101.0,-11460.0,7189.0,-1618.0,-16.0,-18.0,0.0,1.0,-7.0,-3.0,-5.0,-9.0,0.6420724391937256
185,105.0,20.0,-59.0,0.0,-9101.0,-11460.0,7189.0,-1618.0,3.0,1.0,-13.0,0.0,10.0,4.0,0.0,2.0,0.6444323062896729
186,105.0,20.0,-59.0,0.0,-9101.0,-11460.0,7189.0,-1618.0,-16.0,-3.0,61.0,6.0,0.0,2.0,-2.0,-6.0,0.6490192413330078
187,125.0,22.0,-70.0,0.0,-9088.0,-11479.0,7174.0,-1620.0,-16.0,-3.0,61.0,6.0,0.0,2.0,-2.0,-6.0,0.6652095317840576
188,125.0,22.0,-70.0,0.0,-9088.0,-11479.0,7174.0,-1620.0,0.0,-12.0,13.0,1.0,-2.0,13.0,3.0,2.0,0.6676714420318604
189,125.0,22.0,-70.0,0.0,-9088.0,-11479.0,7174.0,-1620.0,-12.0,-17.0,2.0,-11.0,-73.0,-22.0,-10.0,-9.0,0.6699376106262207
190,133.0,25.0,-82.0,0.0,-9079.0,-11498.0,7154.0,-1620.0,-12.0,-17.0,2.0,-11.0,-73.0,-22.0,-10.0,-9.0,0.6876537799835205
191,133.0,25.0,-82.0,0.0,-9079.0,-11498.0,7154.0,-1620.0,-17.0,-22.0,-16.0,2.0,11.0,-1.0,-1.0,-6.0,0.6902146339416504
192,133.0,25.0,-82.0,0.0,-9079.0,-11498.0,7154.0,-1620.0,-8.0,-16.0,-8.0,10.0,30.0,-9.0,-1.0,2.0,0.6924970149993896
193,120.0,17.0,-81.0,0.0,-9076.0,-11514.0,7134.0,-1620.0,-8.0,-16.0,-8.0,10.0,30.0,-9.0,-1.0,2.0,0.7023293972015381
194,120.0,17.0,-81.0,0.0,-9076.0,-11514.0,7134.0,-1620.0,5.0,4.0,-13.0,-1.0,-38.0,-8.0,-31.0,-5.0,0.7047345638275146
195,120.0,17.0,-81.0,0.0,-9076.0,-11514.0,7134.0,-1620.0,-16.0,-43.0,-36.0,-4.0,37.0,2.0,-7.0,-8.0,0.7085559368133545
196,73.0,-27.0,-56.0,0.0,-9076.0,-11522.0,7121.0,-1612.0,-16.0,-43.0,-36.0,-4.0,37.0,2.0,-7.0,-8.0,0.7261371612548828
197,73.0,-27.0,-56.0,0.0,-9076.0,-11522.0,7121.0,-1612.0,-1.0,-28.0,-28.0,1.0,0.0,17.0,10.0,9.0,0.730288028717041
198,73.0,-27.0,-56.0,0.0,-9076.0,-11522.0,7121.0,-1612.0,-1.0,-32.0,-34.0,-5.0,-26.0,4.0,-9.0,-1.0,0.7342419624328613
199,13.0,-116.0,-75.0,0.0,-9080.0,-11529.0,7112.0,-1583.0,-1.0,-32.0,-34.0,-5.0,-26.0,4.0,-9.0,-1.0,0.7467970848083496
200,13.0,-116.0,-75.0,0.0,-9080.0,-11529.0,7112.0,-1583.0,6.0,8.0,-21.0,1.0,47.0,3.0,1.0,2.0,0.7558648586273193
201,13.0,-116.0,-75.0,0.0,-9080.0,-11529.0,7112.0,-1583.0,59.0,109.0,17.0,-8.0,43.0,11.0,-22.0,11.0,0.7603166103363037
202,-92.0,-150.0,-160.0,0.0,-9096.0,-11532.0,7097.0,-1531.0,59.0,109.0,17.0,-8.0,43.0,11.0,-22.0,11.0,0.7628939151763916
203,-92.0,-150.0,-160.0,0.0,-9096.0,-11532.0,7097.0,-1531.0,-13.0,-5.0,42.0,-2.0,-15.0,24.0,14.0,-3.0,0.7652561664581299
204,-92.0,-150.0,-160.0,0.0,-9096.0,-11532.0,7097.0,-1531.0,-3.0,25.0,89.0,14.0,-75.0,-31.0,-22.0,-9.0,0.767784595489502
205,-228.0,-136.0,-287.0,0.0,-9130.0,-11533.0,7069.0,-1457.0,-3.0,25.0,89.0,14.0,-75.0,-31.0,-22.0,-9.0,0.7854404449462891
206,-228.0,-136.0,-287.0,0.0,-9130.0,-11533.0,7069.0,-1457.0,13.0,27.0,61.0,5.0,-27.0,-17.0,0.0,3.0,0.7878170013427734
207,-228.0,-136.0,-287.0,0.0,-9130.0,-11533.0,7069.0,-1457.0,81.0,80.0,68.0,31.0,-67.0,15.0,64.0,69.0,0.7900979518890381
208,-415.0,-136.0,-491.0,0.0,-9187.0,-11535.0,7015.0,-1342.0,81.0,80.0,68.0,31.0,-67.0,15.0,64.0,69.0,0.807546854019165
209,-415.0,-136.0,-491.0,0.0,-9187.0,-11535.0,7015.0,-1342.0,-19.0,-25.0,55.0,10.0,-39.0,-31.0,-1.0,-7.0,0.8099203109741211
210,-415.0,-136.0,-491.0,0.0,-9187.0,-11535.0,7015.0,-1342.0,-51.0,-27.0,-9.0,-3.0,49.0,13.0,-2.0,-36.0,0.8124926090240479
211,-679.0,-136.0,-634.0,0.0,-9288.0,-11515.0,6940.0,-1191.0,-51.0,-27.0,-9.0,-3.0,49.0,13.0,-2.0,-36.0,0.8217034339904785
212,-679.0,-136.0,-634.0,0.0,-9288.0,-11515.0,6940.0,-1191.0,4.0,-6.0,27.0,-11.0,-24.0,-10.0,11.0,2.0,0.8296732902526855
213,-679.0,-136.0,-634.0,0.0,-9288.0,-11515.0,6940.0,-1191.0,-37.0,-83.0,-52.0,-9.0,-19.0,-22.0,-18.0,-16.0,0.831956148147583
214,-691.0,-220.0,-1014.0,0.0,-9395.0,-11520.0,6820.0,-985.0,-37.0,-83.0,-52.0,-9.0,-19.0,-22.0,-18.0,-16.0,0.8534290790557861
215,-691.0,-220.0,-1014.0,0.0,-9395.0,-11520.0,6820.0,-985.0,-28.0,-23.0,42.0,3.0,34.0,-3.0,-13.0,-16.0,0.8575243949890137
216,-691.0,-220.0,-1014.0,0.0,-9395.0,-11520.0,6820.0,-985.0,-53.0,-103.0,39.0,12.0,44.0,17.0,4.0,-14.0,0.8615212440490723
217,-649.0,-280.0,-1505.0,0.0,-9507.0,-11559.0,6629.0,-712.0,-53.0,-103.0,39.0,12.0,44.0,17.0,4.0,-14.0,0.8676846027374268
218,-649.0,-280.0,-1505.0,0.0,-9507.0,-11559.0,6629.0,-712.0,5.0,0.0,-19.0,-9.0,7.0,13.0,-3.0,4.0,0.8700978755950928
219,-649.0,-280.0,-1505.0,0.0,-9507.0,-11559.0,6629.0,-712.0,-4.0,-17.0,-64.0,-11.0,14.0,-1.0,1.0,-4.0,0.872384786605835
220,-570.0,-219.0,-1568.0,0.0,-9629.0,-11606.0,6393.0,-410.0,-4.0,-17.0,-64.0,-11.0,14.0,-1.0,1.0,-4.0,0.8811140060424805
221,-570.0,-219.0,-1568.0,0.0,-9629.0,-11606.0,6393.0,-410.0,21.0,23.0,-40.0,-9.0,4.0,2.0,-1.0,8.0,0.8907632827758789
222,-570.0,-219.0,-1568.0,0.0,-9629.0,-11606.0,6393.0,-410.0,21.0,23.0,-40.0,-9.0,4.0,2.0,-1.0,8.0,0.8947598934173584
223,-570.0,-219.0,-1568.0,0.0,-9629.0,-11606.0,6393.0,-410.0,-7.0,-5.0,-1.0,0.0,16.0,1.0,-2.0,-11.0,0.9058964252471924
224,-841.0,-40.0,-1647.0,0.0,-9756.0,-11627.0,6169.0,-149.0,-7.0,-5.0,-1.0,0.0,16.0,1.0,-2.0,-11.0,0.9085824489593506
225,-841.0,-40.0,-1647.0,0.0,-9756.0,-11627.0,6169.0,-149.0,15.0,-4.0,-32.0,22.0,28.0,5.0,5.0,6.0,0.9109737873077393
226,-841.0,-40.0,-1647.0,0.0,-9756.0,-11627.0,6169.0,-149.0,0.0,2.0,-15.0,-8.0,4.0,1.0,0.0,-2.0,0.9132554531097412
227,-1282.0,152.0,-1812.0,0.0,-9948.0,-11605.0,5898.0,138.0,0.0,2.0,-15.0,-8.0,4.0,1.0,0.0,-2.0,0.9285600185394287
228,-1282.0,152.0,-1812.0,0.0,-9948.0,-11605.0,5898.0,138.0,-4.0,-24.0,-19.0,-1.0,-2.0,-5.0,-1.0,2.0,0.9334442615509033
229,-1282.0,152.0,-1812.0,0.0,-9948.0,-11605.0,5898.0,138.0,14.0,22.0,0.0,-1.0,8.0,3.0,3.0,5.0,0.9387035369873047
230,-1669.0,237.0,-2137.0,0.0,-10186.0,-11552.0,5571.0,475.0,14.0,22.0,0.0,-1.0,8.0,3.0,3.0,5.0,0.9422042369842529
231,-1669.0,237.0,-2137.0,0.0,-10186.0,-11552.0,5571.0,475.0,-7.0,13.0,-8.0,-4.0,-8.0,-5.0,-5.0,-1.0,0.9494650363922119
232,-1669.0,237.0,-2137.0,0.0,-10186.0,-11552.0,5571.0,475.0,23.0,6.0,-28.0,2.0,5.0,9.0,3.0,1.0,0.9517521858215332
233,-1837.0,238.0,-2599.0,0.0,-10428.0,-11494.0,5182.0,868.0,23.0,6.0,-28.0,2.0,5.0,9.0,3.0,1.0,0.9669883251190186
234,-1837.0,238.0,-2599.0,0.0,-10428.0,-11494.0,5182.0,868.0,12.0,12.0,-8.0,4.0,-9.0,-11.0,-2.0,4.0,0.9739816188812256
235,-1837.0,238.0,-2599.0,0.0,-10428.0,-11494.0,5182.0,868.0,-6.0,-23.0,-22.0,-20.0,6.0,-20.0,-8.0,-5.0,0.9793381690979004
236,-2192.0,296.0,-3280.0,0.0,-10678.0,-11422.0,4712.0,1326.0,-6.0,-23.0,-22.0,-20.0,6.0,-20.0,-8.0,-5.0,0.987903356552124
237,-2192.0,296.0,-3280.0,0.0,-10678.0,-11422.0,4712.0,1326.0,-7.0,3.0,-11.0,8.0,5.0,27.0,4.0,-4.0,0.9902575016021729
238,-2192.0,296.0,-3280.0,0.0,-10678.0,-11422.0,4712.0,1326.0,-19.0,-7.0,-19.0,-58.0,-7.0,11.0,-4.0,-18.0,0.9925768375396729
239,-2565.0,189.0,-3761.0,0.0,-10939.0,-11306.0,4179.0,1870.0,-19.0,-7.0,-19.0,-58.0,-7.0,11.0,-4.0,-18.0,1.0016343593597412
240,-2565.0,189.0,-3761.0,0.0,-10939.0,-11306.0,4179.0,1870.0,53.0,26.0,-4.0,14.0,7.0,2.0,9.0,1.0,1.0095412731170654
241,-2565.0,189.0,-3761.0,0.0,-10939.0,-11306.0,4179.0,1870.0,8.0,0.0,11.0,19.0,8.0,-3.0,4.0,0.0,1.011826992034912
242,-3174.0,73.0,-4146.0,0.0,-11231.0,-11099.0,3589.0,2496.0,8.0,0.0,11.0,19.0,8.0,-3.0,4.0,0.0,1.0261802673339844
243,-3174.0,73.0,-4146.0,0.0,-11231.0,-11099.0,3589.0,2496.0,-45.0,-27.0,-20.0,-22.0,-21.0,-3.0,-9.0,-12.0,1.0303244590759277
244,-3174.0,73.0,-4146.0,0.0,-11231.0,-11099.0,3589.0,2496.0,38.0,36.0,8.0,-14.0,6.0,15.0,8.0,17.0,1.0348639488220215
245,-3571.0,71.0,-4406.0,0.0,-11524.0,-10816.0,2944.0,3161.0,38.0,36.0,8.0,-14.0,6.0,15.0,8.0,17.0,1.0482580661773682
246,-3571.0,71.0,-4406.0,0.0,-11524.0,-10816.0,2944.0,3161.0,-18.0,-12.0,-8.0,4.0,0.0,-12.0,-4.0,-8.0,1.0529446601867676
247,-3571.0,71.0,-4406.0,0.0,-11524.0,-10816.0,2944.0,3161.0,-20.0,6.0,0.0,30.0,14.0,-2.0,1.0,0.0,1.057429552078247
248,-3692.0,75.0,-4527.0,0.0,-11766.0,-10499.0,2290.0,3812.0,-20.0,6.0,0.0,30.0,14.0,-2.0,1.0,0.0,1.061326026916504
249,-3692.0,75.0,-4527.0,0.0,-11766.0,-10499.0,2290.0,3812.0,-7.0,4.0,-21.0,-77.0,-19.0,-32.0,-6.0,-3.0,1.070289134979248
250,-3692.0,75.0,-4527.0,0.0,-11766.0,-10499.0,2290.0,3812.0,7.0,0.0,-2.0,10.0,8.0,-4.0,4.0,5.0,1.0728645324707031
251,-4160.0,114.0,-4641.0,0.0,-12006.0,-10094.0,1598.0,4458.0,7.0,0.0,-2.0,10.0,8.0,-4.0,4.0,5.0,1.0853137969970703
252,-4160.0,114.0,-4641.0,0.0,-12006.0,-10094.0,1598.0,4458.0,0.0,6.0,5.0,6.0,-26.0,0.0,-5.0,2.0,1.0879242420196533
253,-4160.0,114.0,-4641.0,0.0,-12006.0,-10094.0,1598.0,4458.0,-9.0,-3.0,0.0,21.0,4.0,13.0,3.0,1.0,1.0919139385223389
254,-4440.0,249.0,-4634.0,0.0,-12225.0,-9620.0,876.0,5068.0,-9.0,-3.0,0.0,21.0,4.0,13.0,3.0,1.0,1.1087586879730225
255,-4440.0,249.0,-4634.0,0.0,-12225.0,-9620.0,876.0,5068.0,-4.0,2.0,-9.0,-46.0,13.0,-5.0,-5.0,-3.0,1.1111962795257568
256,-4440.0,249.0,-4634.0,0.0,-12225.0,-9620.0,876.0,5068.0,-6.0,-1.0,-2.0,-1.0,-18.0,-5.0,-4.0,0.0,1.1134717464447021
257,-4370.0,457.0,-4541.0,0.0,-12393.0,-9125.0,134.0,5620.0,-6.0,-1.0,-2.0,-1.0,-18.0,-5.0,-4.0,0.0,1.1217985153198242
258,-4370.0,457.0,-4541.0,0.0,-12393.0,-9125.0,134.0,5620.0,8.0,6.0,8.0,37.0,-4.0,17.0,9.0,7.0,1.1303210258483887
259,-4370.0,457.0,-4541.0,0.0,-12393.0,-9125.0,134.0,5620.0,-2.0,-3.0,-6.0,-17.0,-10.0,-16.0,-8.0,5.0,1.1329741477966309
260,-3916.0,725.0,-4682.0,0.0,-12460.0,-8662.0,-636.0,6144.0,-2.0,-3.0,-6.0,-17.0,-10.0,-16.0,-8.0,5.0,1.1443908214569092
261,-3916.0,725.0,-4682.0,0.0,-12460.0,-8662.0,-636.0,6144.0,2.0,2.0,3.0,12.0,-1.0,-9.0,-43.0,6.0,1.1467461585998535
262,-3916.0,725.0,-4682.0,0.0,-12460.0,-8662.0,-636.0,6144.0,-4.0,-2.0,-2.0,20.0,6.0,14.0,-5.0,-7.0,1.1516203880310059
263,-3425.0,939.0,-4905.0,0.0,-12417.0,-8232.0,-1435.0,6666.0,-4.0,-2.0,-2.0,20.0,6.0,14.0,-5.0,-7.0,1.175067663192749
264,-3425.0,939.0,-4905.0,0.0,-12417.0,-8232.0,-1435.0,6666.0,3.0,6.0,5.0,-15.0,-22.0,-12.0,45.0,-1.0,1.179257869720459
265,-3425.0,939.0,-4905.0,0.0,-12417.0,-8232.0,-1435.0,6666.0,3.0,1.0,-1.0,0.0,24.0,-3.0,15.0,16.0,1.1834800243377686
266,-2878.0,738.0,-4856.0,0.0,-12284.0,-7821.0,-2168.0,7188.0,3.0,1.0,-1.0,0.0,24.0,-3.0,15.0,16.0,1.1874797344207764
267,-2878.0,738.0,-4856.0,0.0,-12284.0,-7821.0,-2168.0,7188.0,6.0,10.0,14.0,59.0,-42.0,-24.0,-10.0,-13.0,1.1902570724487305
268,-2878.0,738.0,-4856.0,0.0,-12284.0,-7821.0,-2168.0,7188.0,-4.0,-7.0,-13.0,-54.0,-69.0,56.0,98.0,31.0,1.192887783050537
269,-2588.0,427.0,-4443.0,0.0,-12125.0,-7409.0,-2795.0,7664.0,-4.0,-7.0,-13.0,-54.0,-69.0,56.0,98.0,31.0,1.212587594985962
270,-2588.0,427.0,-4443.0,0.0,-12125.0,-7409.0,-2795.0,7664.0,-5.0,-3.0,2.0,-10.0,4.0,3.0,-15.0,-17.0,1.214965581893921
271,-2588.0,427.0,-4443.0,0.0,-12125.0,-7409.0,-2795.0,7664.0,-10.0,-6.0,-7.0,-11.0,-5.0,-76.0,-11.0,-10.0,1.217235803604126
272,-2580.0,86.0,-3845.0,0.0,-11992.0,-6965.0,-3325.0,8068.0,-10.0,-6.0,-7.0,-11.0,-5.0,-76.0,-11.0,-10.0,1.228217363357544
273,-2580.0,86.0,-3845.0,0.0,-11992.0,-6965.0,-3325.0,8068.0,-5.0,0.0,-3.0,-27.0,71.0,3.0,-93.0,-75.0,1.2306485176086426
274,-2580.0,86.0,-3845.0,0.0,-11992.0,-6965.0,-3325.0,8068.0,-5.0,2.0,4.0,-18.0,-32.0,27.0,-28.0,-30.0,1.2329394817352295
275,-2637.0,-11.0,-3305.0,0.0,-11884.0,-6498.0,-3809.0,8395.0,-5.0,2.0,4.0,-18.0,-32.0,27.0,-28.0,-30.0,1.2415051460266113
276,-2637.0,-11.0,-3305.0,0.0,-11884.0,-6498.0,-3809.0,8395.0,-2.0,-3.0,-1.0,31.0,7.0,35.0,28.0,22.0,1.2495017051696777
277,-2637.0,-11.0,-3305.0,0.0,-11884.0,-6498.0,-3809.0,8395.0,-7.0,-5.0,0.0,8.0,49.0,-3.0,-44.0,-47.0,1.251786708831787
278,-2698.0,49.0,-2877.0,0.0,-11794.0,-6011.0,-4280.0,8655.0,-7.0,-5.0,0.0,8.0,49.0,-3.0,-44.0,-47.0,1.2653729915618896
279,-2698.0,49.0,-2877.0,0.0,-11794.0,-6011.0,-4280.0,8655.0,12.0,5.0,-1.0,-14.0,-45.0,-33.0,35.0,35.0,1.2695586681365967
280,-2698.0,49.0,-2877.0,0.0,-11794.0,-6011.0,-4280.0,8655.0,4.0,-2.0,3.0,11.0,22.0,0.0,12.0,42.0,1.2735340595245361
281,-2314.0,202.0,-2281.0,0.0,-11703.0,-5589.0,-4700.0,8841.0,4.0,-2.0,3.0,11.0,22.0,0.0,12.0,42.0,1.2881004810333252
282,-2314.0,202.0,-2281.0,0.0,-11703.0,-5589.0,-4700.0,8841.0,-1.0,-7.0,-12.0,-2.0,53.0,20.0,84.0,44.0,1.292579174041748
283,-2314.0,202.0,-2281.0,0.0,-11703.0,-5589.0,-4700.0,8841.0,2.0,2.0,3.0,22.0,14.0,-2.0,-25.0,-3.0,1.2965729236602783
284,-581.0,448.0,-897.0,0.0,-11628.0,-5511.0,-4867.0,8898.0,2.0,2.0,3.0,22.0,14.0,-2.0,-25.0,-3.0,1.3015456199645996
285,-581.0,448.0,-897.0,0.0,-11628.0,-5511.0,-4867.0,8898.0,1.0,3.0,0.0,-7.0,-20.0,5.0,0.0,1.0,1.3097519874572754
286,-581.0,448.0,-897.0,0.0,-11628.0,-5511.0,-4867.0,8898.0,-1.0,-1.0,-3.0,4.0,-26.0,6.0,-11.0,-13.0,1.3167054653167725
287,1050.0,533.0,518.0,0.0,-11585.0,-5724.0,-4801.0,8855.0,-1.0,-1.0,-3.0,4.0,-26.0,6.0,-11.0,-13.0,1.3341097831726074
288,1050.0,533.0,518.0,0.0,-11585.0,-5724.0,-4801.0,8855.0,0.0,0.0,-4.0,-5.0,-4.0,4.0,-5.0,7.0,1.338806390762329
289,1050.0,533.0,518.0,0.0,-11585.0,-5724.0,-4801.0,8855.0,-6.0,-3.0,1.0,0.0,-3.0,-13.0,1.0,-3.0,1.343322515487671
290,1385.0,696.0,1240.0,0.0,-11580.0,-6029.0,-4677.0,8725.0,-6.0,-3.0,1.0,0.0,-3.0,-13.0,1.0,-3.0,1.355867624282837
291,1385.0,696.0,1240.0,0.0,-11580.0,-6029.0,-4677.0,8725.0,-1.0,-9.0,-8.0,7.0,10.0,1.0,-31.0,-8.0,1.3605470657348633
292,1385.0,696.0,1240.0,0.0,-11580.0,-6029.0,-4677.0,8725.0,2.0,9.0,16.0,3.0,12.0,-5.0,9.0,7.0,1.365140438079834
293,1222.0,885.0,2106.0,0.0,-11650.0,-6373.0,-4532.0,8460.0,2.0,9.0,16.0,3.0,12.0,-5.0,9.0,7.0,1.3719031810760498
294,1222.0,885.0,2106.0,0.0,-11650.0,-6373.0,-4532.0,8460.0,-8.0,-3.0,2.0,2.0,-7.0,-4.0,-8.0,-8.0,1.3747193813323975
295,1222.0,885.0,2106.0,0.0,-11650.0,-6373.0,-4532.0,8460.0,-2.0,-10.0,-20.0,-3.0,-2.0,-2.0,-1.0,20.0,1.3770148754119873
296,1326.0,693.0,3432.0,0.0,-11838.0,-6745.0,-4252.0,8046.0,-2.0,-10.0,-20.0,-3.0,-2.0,-2.0,-1.0,20.0,1.3852012157440186
297,1326.0,693.0,3432.0,0.0,-11838.0,-6745.0,-4252.0,8046.0,-3.0,-3.0,-5.0,-2.0,-1.0,6.0,-3.0,-9.0,1.387951135635376
298,1326.0,693.0,3432.0,0.0,-11838.0,-6745.0,-4252.0,8046.0,-8.0,-7.0,4.0,12.0,35.0,1.0,-20.0,-7.0,1.3902735710144043
299,1949.0,474.0,4692.0,0.0,-12075.0,-7228.0,-3782.0,7490.0,-8.0,-7.0,4.0,12.0,35.0,1.0,-20.0,-7.0,1.4160947799682617
300,1949.0,474.0,4692.0,0.0,-12075.0,-7228.0,-3782.0,7490.0,-1.0,5.0,2.0,-3.0,-40.0,-47.0,-2.0,5.0,1.4186549186706543
301,1949.0,474.0,4692.0,0.0,-12075.0,-7228.0,-3782.0,7490.0,6.0,4.0,1.0,4.0,20.0,24.0,6.0,-3.0,1.4209675788879395
302,2803.0,173.0,5539.0,0.0,-12282.0,-7818.0,-3112.0,6841.0,6.0,4.0,1.0,4.0,20.0,24.0,6.0,-3.0,1.4300432205200195
303,2803.0,173.0,5539.0,0.0,-12282.0,-7818.0,-3112.0,6841.0,3.0,6.0,6.0,7.0,22.0,7.0,0.0,-6.0,1.432464361190796
304,2803.0,173.0,5539.0,0.0,-12282.0,-7818.0,-3112.0,6841.0,0.0,-2.0,-6.0,-3.0,-14.0,-3.0,-6.0,-7.0,1.434797763824463
305,3575.0,-120.0,6298.0,0.0,-12419.0,-8493.0,-2250.0,6085.0,0.0,-2.0,-6.0,-3.0,-14.0,-3.0,-6.0,-7.0,1.4446351528167725
306,3575.0,-120.0,6298.0,0.0,-12419.0,-8493.0,-2250.0,6085.0,3.0,4.0,3.0,15.0,27.0,15.0,12.0,7.0,1.4474706649780273
307,3575.0,-120.0,6298.0,0.0,-12419.0,-8493.0,-2250.0,6085.0,2.0,2.0,-2.0,11.0,32.0,-53.0,21.0,17.0,1.4508028030395508
308,3543.0,-174.0,7269.0,0.0,-12526.0,-9136.0,-1266.0,5145.0,2.0,2.0,-2.0,11.0,32.0,-53.0,21.0,17.0,1.4750862121582031
309,3543.0,-174.0,7269.0,0.0,-12526.0,-9136.0,-1266.0,5145.0,-3.0,-2.0,3.0,16.0,8.0,19.0,10.0,-11.0,1.4778416156768799
310,3543.0,-174.0,7269.0,0.0,-12526.0,-9136.0,-1266.0,5145.0,-6.0,-3.0,-9.0,12.0,22.0,61.0,47.0,74.0,1.4804730415344238
311,3115.0,-181.0,7924.0,0.0,-12608.0,-9620.0,-276.0,4106.0,-6.0,-3.0,-9.0,12.0,22.0,61.0,47.0,74.0,1.4901678562164307
312,3115.0,-181.0,7924.0,0.0,-12608.0,-9620.0,-276.0,4106.0,0.0,-7.0,-3.0,43.0,-69.0,-62.0,94.0,69.0,1.4927046298980713
313,3115.0,-181.0,7924.0,0.0,-12608.0,-9620.0,-276.0,4106.0,0.0,-7.0,-3.0,43.0,-69.0,-62.0,94.0,69.0,1.495023250579834
314,3115.0,-181.0,7924.0,0.0,-12608.0,-9620.0,-276.0,4106.0,-7.0,1.0,6.0,0.0,44.0,15.0,-96.0,-98.0,1.5043690204620361
315,3043.0,-257.0,8332.0,0.0,-12604.0,-10005.0,767.0,2982.0,-7.0,1.0,6.0,0.0,44.0,15.0,-96.0,-98.0,1.5072672367095947
316,3043.0,-257.0,8332.0,0.0,-12604.0,-10005.0,767.0,2982.0,1.0,-5.0,-25.0,-83.0,-3.0,-13.0,-37.0,-13.0,1.5120398998260498
317,3043.0,-257.0,8332.0,0.0,-12604.0,-10005.0,767.0,2982.0,1.0,-5.0,-25.0,-83.0,-3.0,-13.0,-37.0,-13.0,1.5143263339996338
318,3043.0,-257.0,8332.0,0.0,-12604.0,-10005.0,767.0,2982.0,-16.0,-7.0,-20.0,-54.0,-35.0,-56.0,18.0,-49.0,1.5288386344909668
319,4226.0,-106.0,8878.0,0.0,-12360.0,-10449.0,1877.0,1728.0,-16.0,-7.0,-20.0,-54.0,-35.0,-56.0,18.0,-49.0,1.5328502655029297
320,4226.0,-106.0,8878.0,0.0,-12360.0,-10449.0,1877.0,1728.0,16.0,-12.0,4.0,14.0,67.0,94.0,9.0,15.0,1.5369470119476318
321,4226.0,-106.0,8878.0,0.0,-12360.0,-10449.0,1877.0,1728.0,6.0,2.0,-6.0,-90.0,-81.0,-94.0,-29.0,-5.0,1.5411605834960938
322,3761.0,-161.0,8833.0,0.0,-12029.0,-10713.0,2960.0,476.0,6.0,2.0,-6.0,-90.0,-81.0,-94.0,-29.0,-5.0,1.550114631652832
323,3761.0,-161.0,8833.0,0.0,-12029.0,-10713.0,2960.0,476.0,-33.0,-3.0,5.0,50.0,-61.0,20.0,-47.0,-72.0,1.5524709224700928
324,3761.0,-161.0,8833.0,0.0,-12029.0,-10713.0,2960.0,476.0,33.0,71.0,16.0,70.0,-3.0,64.0,35.0,67.0,1.554729700088501
325,3369.0,-418.0,7841.0,0.0,-11612.0,-10853.0,3931.0,-611.0,33.0,71.0,16.0,70.0,-3.0,64.0,35.0,67.0,1.5639500617980957
326,3369.0,-418.0,7841.0,0.0,-11612.0,-10853.0,3931.0,-611.0,41.0,12.0,-21.0,-107.0,41.0,5.0,-27.0,-12.0,1.5727176666259766
327,3369.0,-418.0,7841.0,0.0,-11612.0,-10853.0,3931.0,-611.0,-54.0,-111.0,-38.0,14.0,-126.0,-20.0,29.0,-13.0,1.5754389762878418
328,1922.0,-775.0,6245.0,0.0,-11281.0,-10806.0,4744.0,-1389.0,-54.0,-111.0,-38.0,14.0,-126.0,-20.0,29.0,-13.0,1.5877680778503418
329,1922.0,-775.0,6245.0,0.0,-11281.0,-10806.0,4744.0,-1389.0,-8.0,-94.0,-65.0,63.0,127.0,59.0,-24.0,8.0,1.5920851230621338
330,1922.0,-775.0,6245.0,0.0,-11281.0,-10806.0,4744.0,-1389.0,19.0,5.0,-89.0,25.0,-95.0,-48.0,-53.0,16.0,1.5961189270019531
331,3107.0,-1231.0,5178.0,0.0,-10748.0,-10914.0,5446.0,-2037.0,19.0,5.0,-89.0,25.0,-95.0,-48.0,-53.0,16.0,1.6114261150360107
332,3107.0,-1231.0,5178.0,0.0,-10748.0,-10914.0,5446.0,-2037.0,-31.0,-50.0,-36.0,-66.0,-107.0,-42.0,-117.0,-20.0,1.6141822338104248
333,3107.0,-1231.0,5178.0,0.0,-10748.0,-10914.0,5446.0,-2037.0,-30.0,96.0,104.0,59.0,68.0,62.0,-39.0,-3.0,1.6164608001708984
334,3272.0,-1264.0,3543.0,0.0,-10189.0,-11099.0,5935.0,-2493.0,-30.0,96.0,104.0,59.0,68.0,62.0,-39.0,-3.0,1.6236817836761475
335,3272.0,-1264.0,3543.0,0.0,-10189.0,-11099.0,5935.0,-2493.0,-41.0,91.0,52.0,-36.0,10.0,-64.0,-42.0,65.0,1.6324093341827393
336,3272.0,-1264.0,3543.0,0.0,-10189.0,-11099.0,5935.0,-2493.0,33.0,28.0,-72.0,-94.0,21.0,-21.0,52.0,66.0,1.63508939743042
337,2287.0,-391.0,1654.0,0.0,-9837.0,-11251.0,6113.0,-2776.0,33.0,28.0,-72.0,-94.0,21.0,-21.0,52.0,66.0,1.649289608001709
338,2287.0,-391.0,1654.0,0.0,-9837.0,-11251.0,6113.0,-2776.0,53.0,-44.0,-71.0,-40.0,98.0,127.0,127.0,101.0,1.6534502506256104
339,2287.0,-391.0,1654.0,0.0,-9837.0,-11251.0,6113.0,-2776.0,-18.0,48.0,118.0,37.0,99.0,-80.0,-86.0,-32.0,1.6577198505401611
340,101.0,-383.0,-201.0,0.0,-9805.0,-11287.0,6127.0,-2715.0,-18.0,48.0,118.0,37.0,99.0,-80.0,-86.0,-32.0,1.6711413860321045
341,101.0,-383.0,-201.0,0.0,-9805.0,-11287.0,6127.0,-2715.0,-84.0,-26.0,94.0,90.0,28.0,-18.0,-29.0,-86.0,1.675335168838501
342,101.0,-383.0,-201.0,0.0,-9805.0,-11287.0,6127.0,-2715.0,110.0,-2.0,-105.0,8.0,127.0,127.0,127.0,104.0,1.6793673038482666
343,222.0,-519.0,1474.0,0.0,-9716.0,-11278.0,6285.0,-2712.0,110.0,-2.0,-105.0,8.0,127.0,127.0,127.0,104.0,1.6844170093536377
344,222.0,-519.0,1474.0,0.0,-9716.0,-11278.0,6285.0,-2712.0,116.0,53.0,-16.0,39.0,0.0,-62.0,-33.0,-64.0,1.692185401916504
345,222.0,-519.0,1474.0,0.0,-9716.0,-11278.0,6285.0,-2712.0,-6.0,-26.0,44.0,9.0,-48.0,7.0,22.0,-68.0,1.6947481632232666
346,-622.0,-248.0,2350.0,0.0,-9676.0,-11058.0,6642.0,-2905.0,-6.0,-26.0,44.0,9.0,-48.0,7.0,22.0,-68.0,1.7077112197875977
347,-622.0,-248.0,2350.0,0.0,-9676.0,-11058.0,6642.0,-2905.0,-46.0,-41.0,-5.0,-9.0,-8.0,37.0,36.0,-3.0,1.7101244926452637
348,-622.0,-248.0,2350.0,0.0,-9676.0,-11058.0,6642.0,-2905.0,49.0,86.0,21.0,30.0,50.0,-1.0,-55.0,12.0,1.7124123573303223
349,-1068.0,-479.0,1813.0,0.0,-9710.0,-10826.0,6943.0,-2961.0,49.0,86.0,21.0,30.0,50.0,-1.0,-55.0,12.0,1.7306184768676758
350,-1068.0,-479.0,1813.0,0.0,-9710.0,-10826.0,6943.0,-2961.0,-15.0,-38.0,-7.0,11.0,-53.0,-40.0,-3.0,15.0,1.7334206104278564
351,-1068.0,-479.0,1813.0,0.0,-9710.0,-10826.0,6943.0,-2961.0,-36.0,-123.0,-81.0,0.0,-72.0,-8.0,-16.0,-26.0,1.735888957977295
352,528.0,-860.0,2566.0,0.0,-9480.0,-10694.0,7344.0,-3208.0,-36.0,-123.0,-81.0,0.0,-72.0,-8.0,-16.0,-26.0,1.7537930011749268
353,528.0,-860.0,2566.0,0.0,-9480.0,-10694.0,7344.0,-3208.0,-45.0,-13.0,-14.0,-5.0,4.0,14.0,12.0,-13.0,1.7579920291900635
354,528.0,-860.0,2566.0,0.0,-9480.0,-10694.0,7344.0,-3208.0,-8.0,26.0,46.0,-28.0,-85.0,-44.0,-13.0,-29.0,1.7624444961547852
355,1440.0,-926.0,2144.0,0.0,-9163.0,-10695.0,7634.0,-3438.0,-8.0,26.0,46.0,-28.0,-85.0,-44.0,-13.0,-29.0,1.7678756713867188
356,1440.0,-926.0,2144.0,0.0,-9163.0,-10695.0,7634.0,-3438.0,21.0,1.0,-58.0,-9.0,-103.0,-2.0,27.0,19.0,1.7702815532684326
357,1440.0,-926.0,2144.0,0.0,-9163.0,-10695.0,7634.0,-3438.0,-26.0,-49.0,-4.0,-21.0,5.0,25.0,8.0,-7.0,1.7725608348846436
358,1054.0,-683.0,1815.0,0.0,-8937.0,-10663.0,7857.0,-3627.0,-26.0,-49.0,-4.0,-21.0,5.0,25.0,8.0,-7.0,1.7917323112487793
359,1054.0,-683.0,1815.0,0.0,-8937.0,-10663.0,7857.0,-3627.0,15.0,48.0,87.0,1.0,27.0,-1.0,-24.0,7.0,1.7972207069396973
360,1054.0,-683.0,1815.0,0.0,-8937.0,-10663.0,7857.0,-3627.0,8.0,-38.0,-72.0,-41.0,23.0,0.0,-4.0,3.0,1.7996940612792969
361,788.0,-358.0,1338.0,0.0,-8886.0,-10627.0,7916.0,-3726.0,8.0,-38.0,-72.0,-41.0,23.0,0.0,-4.0,3.0,1.8035378456115723
362,788.0,-358.0,1338.0,0.0,-8886.0,-10627.0,7916.0,-3726.0,16.0,21.0,35.0,-10.0,42.0,2.0,0.0,-6.0,1.8121213912963867
363,788.0,-358.0,1338.0,0.0,-8886.0,-10627.0,7916.0,-3726.0,-6.0,-23.0,22.0,4.0,-6.0,-1.0,-4.0,-2.0,1.814405918121338
364,152.0,-95.0,658.0,0.0,-8933.0,-10593.0,7909.0,-3728.0,-6.0,-23.0,22.0,4.0,-6.0,-1.0,-4.0,-2.0,1.8280479907989502
365,152.0,-95.0,658.0,0.0,-8933.0,-10593.0,7909.0,-3728.0,5.0,6.0,-6.0,12.0,-11.0,-10.0,5.0,0.0,1.83078932762146
366,152.0,-95.0,658.0,0.0,-8933.0,-10593.0,7909.0,-3728.0,-11.0,-14.0,0.0,-2.0,-65.0,-10.0,-5.0,-15.0,1.8332226276397705
367,-252.0,119.0,172.0,0.0,-9028.0,-10553.0,7871.0,-3692.0,-11.0,-14.0,0.0,-2.0,-65.0,-10.0,-5.0,-15.0,1.8503291606903076
368,-252.0,119.0,172.0,0.0,-9028.0,-10553.0,7871.0,-3692.0,-16.0,-5.0,-28.0,-19.0,-25.0,-47.0,-32.0,-18.0,1.852696418762207
369,-252.0,119.0,172.0,0.0,-9028.0,-10553.0,7871.0,-3692.0,2.0,25.0,17.0,13.0,73.0,31.0,-43.0,-6.0,1.8549957275390625
370,-416.0,274.0,-1.0,0.0,-9122.0,-10510.0,7835.0,-3660.0,2.0,25.0,17.0,13.0,73.0,31.0,-43.0,-6.0,1.8643019199371338
371,-416.0,274.0,-1.0,0.0,-9122.0,-10510.0,7835.0,-3660.0,0.0,0.0,11.0,-12.0,17.0,4.0,13.0,4.0,1.8722858428955078
372,-416.0,274.0,-1.0,0.0,-9122.0,-10510.0,7835.0,-3660.0,8.0,9.0,-12.0,5.0,-13.0,-5.0,9.0,2.0,1.8747756481170654
373,-250.0,344.0,-239.0,0.0,-9180.0,-10505.0,7783.0,-3639.0,8.0,9.0,-12.0,5.0,-13.0,-5.0,9.0,2.0,1.8881478309631348
374,-250.0,344.0,-239.0,0.0,-9180.0,-10505.0,7783.0,-3639.0,-5.0,3.0,0.0,27.0,22.0,14.0,-17.0,2.0,1.8937017917633057
375,-250.0,344.0,-239.0,0.0,-9180.0,-10505.0,7783.0,-3639.0,-12.0,-12.0,-49.0,-22.0,-12.0,-11.0,-10.0,-11.0,1.898078441619873
376,-4.0,292.0,-425.0,0.0,-9201.0,-10540.0,7717.0,-3625.0,-12.0,-12.0,-49.0,-22.0,-12.0,-11.0,-10.0,-11.0,1.9103572368621826
377,-4.0,292.0,-425.0,0.0,-9201.0,-10540.0,7717.0,-3625.0,1.0,-8.0,-6.0,-7.0,10.0,20.0,14.0,6.0,1.912752628326416
378,-4.0,292.0,-425.0,0.0,-9201.0,-10540.0,7717.0,-3625.0,-10.0,-19.0,11.0,3.0,-9.0,6.0,-13.0,-10.0,1.9151251316070557
379,56.0,208.0,-474.0,0.0,-9203.0,-10594.0,7654.0,-3598.0,-10.0,-19.0,11.0,3.0,-9.0,6.0,-13.0,-10.0,1.9245240688323975
380,56.0,208.0,-474.0,0.0,-9203.0,-10594.0,7654.0,-3598.0,7.0,10.0,3.0,10.0,-4.0,-7.0,38.0,4.0,1.9323899745941162
381,56.0,208.0,-474.0,0.0,-9203.0,-10594.0,7654.0,-3598.0,-15.0,-13.0,45.0,23.0,39.0,40.0,26.0,2.0,1.934709072113037
382,-112.0,77.0,-399.0,0.0,-9207.0,-10624.0,7624.0,-3560.0,-15.0,-13.0,45.0,23.0,39.0,40.0,26.0,2.0,1.9483861923217773
383,-112.0,77.0,-399.0,0.0,-9207.0,-10624.0,7624.0,-3560.0,22.0,29.0,-8.0,-23.0,-113.0,-30.0,-2.0,2.0,1.9530582427978516
384,-112.0,77.0,-399.0,0.0,-9207.0,-10624.0,7624.0,-3560.0,-12.0,-9.0,-15.0,0.0,20.0,-5.0,-4.0,-6.0,1.958808183670044
385,-108.0,-48.0,-309.0,0.0,-9186.0,-10646.0,7631.0,-3533.0,-12.0,-9.0,-15.0,0.0,20.0,-5.0,-4.0,-6.0,1.9701616764068604
386,-108.0,-48.0,-309.0,0.0,-9186.0,-10646.0,7631.0,-3533.0,1.0,4.0,20.0,7.0,39.0,14.0,0.0,1.0,1.9725322723388672
387,-108.0,-48.0,-309.0,0.0,-9186.0,-10646.0,7631.0,-3533.0,-13.0,2.0,14.0,8.0,-9.0,1.0,16.0,-5.0,1.9747953414916992
388,131.0,-178.0,-328.0,0.0,-9124.0,-10694.0,7646.0,-3520.0,-13.0,2.0,14.0,8.0,-9.0,1.0,16.0,-5.0,1.9838285446166992
389,131.0,-178.0,-328.0,0.0,-9124.0,-10694.0,7646.0,-3520.0,-1.0,-2.0,-7.0,-1.0,11.0,-3.0,6.0,3.0,1.9923322200775146
390,131.0,-178.0,-328.0,0.0,-9124.0,-10694.0,7646.0,-3520.0,-16.0,-17.0,34.0,17.0,-38.0,-28.0,-21.0,-12.0,1.994678258895874
391,369.0,-264.0,-409.0,0.0,-9036.0,-10777.0,7642.0,-3500.0,-16.0,-17.0,34.0,17.0,-38.0,-28.0,-21.0,-12.0,2.008695125579834
392,369.0,-264.0,-409.0,0.0,-9036.0,-10777.0,7642.0,-3500.0,5.0,2.0,12.0,7.0,13.0,-6.0,-19.0,-5.0,2.0134003162384033
393,369.0,-264.0,-409.0,0.0,-9036.0,-10777.0,7642.0,-3500.0,3.0,-8.0,2.0,2.0,20.0,5.0,11.0,8.0,2.0185859203338623
394,426.0,-301.0,-420.0,0.0,-8949.0,-10869.0,7627.0,-3471.0,3.0,-8.0,2.0,2.0,20.0,5.0,11.0,8.0,2.0306193828582764
395,426.0,-301.0,-420.0,0.0,-8949.0,-10869.0,7627.0,-3471.0,-2.0,-6.0,-10.0,5.0,16.0,15.0,8.0,-2.0,2.0343589782714844
396,426.0,-301.0,-420.0,0.0,-8949.0,-10869.0,7627.0,-3471.0,22.0,31.0,-7.0,-21.0,-18.0,10.0,27.0,11.0,2.0384583473205566
397,428.0,-288.0,-417.0,0.0,-8868.0,-10959.0,7606.0,-3443.0,22.0,31.0,-7.0,-21.0,-18.0,10.0,27.0,11.0,2.0446431636810303
398,428.0,-288.0,-417.0,0.0,-8868.0,-10959.0,7606.0,-3443.0,2.0,0.0,-7.0,2.0,1.0,2.0,3.0,-3.0,2.0529050827026367
399,428.0,-288.0,-417.0,0.0,-8868.0,-10959.0,7606.0,-3443.0,-8.0,-14.0,8.0,5.0,10.0,4.0,-10.0,-2.0,2.055603504180908
400,421.0,-287.0,-377.0,0.0,-8795.0,-11040.0,7586.0,-3419.0,-8.0,-14.0,8.0,5.0,10.0,4.0,-10.0,-2.0,2.067528247833252
401,421.0,-287.0,-377.0,0.0,-8795.0,-11040.0,7586.0,-3419.0,-5.0,-9.0,-2.0,3.0,-6.0,-13.0,-16.0,-9.0,2.0719711780548096
402,421.0,-287.0,-377.0,0.0,-8795.0,-11040.0,7586.0,-3419.0,-2.0,-1.0,-4.0,2.0,31.0,-2.0,-4.0,-3.0,2.0762033462524414
403,451.0,-249.0,-374.0,0.0,-8723.0,-11122.0,7557.0,-3400.0,-2.0,-1.0,-4.0,2.0,31.0,-2.0,-4.0,-3.0,2.091327428817749
404,451.0,-249.0,-374.0,0.0,-8723.0,-11122.0,7557.0,-3400.0,-16.0,-8.0,6.0,-5.0,0.0,-2.0,-2.0,-5.0,2.0954904556274414
405,451.0,-249.0,-374.0,0.0,-8723.0,-11122.0,7557.0,-3400.0,20.0,31.0,32.0,5.0,35.0,13.0,-5.0,12.0,2.0994503498077393
406,430.0,-202.0,-348.0,0.0,-8660.0,-11199.0,7523.0,-3382.0,20.0,31.0,32.0,5.0,35.0,13.0,-5.0,12.0,2.1038522720336914
407,430.0,-202.0,-348.0,0.0,-8660.0,-11199.0,7523.0,-3382.0,15.0,40.0,7.0,-17.0,-59.0,-24.0,-16.0,-2.0,2.112191677093506
408,430.0,-202.0,-348.0,0.0,-8660.0,-11199.0,7523.0,-3382.0,-17.0,-23.0,3.0,-1.0,-2.0,-6.0,5.0,-7.0,2.1154098510742188
409,343.0,-136.0,-329.0,0.0,-8619.0,-11262.0,7484.0,-3365.0,-17.0,-23.0,3.0,-1.0,-2.0,-6.0,5.0,-7.0,2.127143144607544
410,343.0,-136.0,-329.0,0.0,-8619.0,-11262.0,7484.0,-3365.0,-8.0,-8.0,-6.0,17.0,57.0,19.0,12.0,1.0,2.1296088695526123
411,343.0,-136.0,-329.0,0.0,-8619.0,-11262.0,7484.0,-3365.0,0.0,-8.0,-16.0,-7.0,-8.0,-4.0,9.0,-2.0,2.1337177753448486
412,317.0,-67.0,-331.0,0.0,-8591.0,-11316.0,7438.0,-3357.0,0.0,-8.0,-16.0,-7.0,-8.0,-4.0,9.0,-2.0,2.1504437923431396
413,317.0,-67.0,-331.0,0.0,-8591.0,-11316.0,7438.0,-3357.0,2.0,3.0,7.0,8.0,8.0,2.0,0.0,1.0,2.152859687805176
414,317.0,-67.0,-331.0,0.0,-8591.0,-11316.0,7438.0,-3357.0,-8.0,-18.0,-5.0,3.0,11.0,10.0,-12.0,-2.0,2.155156135559082
415,376.0,-38.0,-334.0,0.0,-8557.0,-11375.0,7387.0,-3358.0,-8.0,-18.0,-5.0,3.0,11.0,10.0,-12.0,-2.0,2.1642394065856934
416,376.0,-38.0,-334.0,0.0,-8557.0,-11375.0,7387.0,-3358.0,-9.0,-22.0,-19.0,-4.0,-22.0,-9.0,2.0,-4.0,2.1722795963287354
417,376.0,-38.0,-334.0,0.0,-8557.0,-11375.0,7387.0,-3358.0,8.0,12.0,-3.0,0.0,-8.0,-1.0,3.0,5.0,2.1745572090148926
418,322.0,33.0,-314.0,0.0,-8541.0,-11428.0,7325.0,-3352.0,8.0,12.0,-3.0,0.0,-8.0,-1.0,3.0,5.0,2.1876227855682373
419,322.0,33.0,-314.0,0.0,-8541.0,-11428.0,7325.0,-3352.0,-4.0,-2.0,2.0,0.0,13.0,5.0,-6.0,-1.0,2.192004919052124
420,322.0,33.0,-314.0,0.0,-8541.0,-11428.0,7325.0,-3352.0,-3.0,15.0,2.0,-1.0,-11.0,-3.0,0.0,-9.0,2.1964480876922607
421,192.0,97.0,-288.0,0.0,-8542.0,-11470.0,7265.0,-3341.0,-3.0,15.0,2.0,-1.0,-11.0,-3.0,0.0,-9.0,2.212338447570801
422,192.0,97.0,-288.0,0.0,-8542.0,-11470.0,7265.0,-3341.0,-2.0,-8.0,2.0,1.0,-5.0,4.0,0.0,-8.0,2.215073585510254
423,192.0,97.0,-288.0,0.0,-8542.0,-11470.0,7265.0,-3341.0,8.0,0.0,-3.0,0.0,-4.0,-3.0,-1.0,-7.0,2.2174007892608643
424,30.0,121.0,-287.0,0.0,-8564.0,-11493.0,7209.0,-3323.0,8.0,0.0,-3.0,0.0,-4.0,-3.0,-1.0,-7.0,2.224306106567383
425,30.0,121.0,-287.0,0.0,-8564.0,-11493.0,7209.0,-3323.0,2.0,-1.0,-13.0,-9.0,-26.0,-11.0,-7.0,-1.0,2.232354164123535
426,30.0,121.0,-287.0,0.0,-8564.0,-11493.0,7209.0,-3323.0,-5.0,10.0,20.0,-15.0,-7.0,-3.0,2.0,-7.0,2.234617233276367
427,-31.0,109.0,-248.0,0.0,-8591.0,-11506.0,7163.0,-3305.0,-5.0,10.0,20.0,-15.0,-7.0,-3.0,2.0,-7.0,2.2471210956573486
428,-31.0,109.0,-248.0,0.0,-8591.0,-11506.0,7163.0,-3305.0,19.0,34.0,10.0,1.0,15.0,7.0,4.0,10.0,2.249492883682251
429,-31.0,109.0,-248.0,0.0,-8591.0,-11506.0,7163.0,-3305.0,-23.0,-38.0,-11.0,10.0,7.0,-6.0,18.0,-1.0,2.254462242126465
430,-113.0,64.0,-227.0,0.0,-8623.0,-11515.0,7127.0,-3273.0,-23.0,-38.0,-11.0,10.0,7.0,-6.0,18.0,-1.0,2.2705116271972656
431,-113.0,64.0,-227.0,0.0,-8623.0,-11515.0,7127.0,-3273.0,4.0,0.0,-1.0,0.0,-9.0,3.0,-2.0,-1.0,2.2730712890625
432,-113.0,64.0,-227.0,0.0,-8623.0,-11515.0,7127.0,-3273.0,-4.0,2.0,5.0,1.0,30.0,10.0,-7.0,2.0,2.2756924629211426
433,-198.0,73.0,-235.0,0.0,-8657.0,-11518.0,7096.0,-3237.0,-4.0,2.0,5.0,1.0,30.0,10.0,-7.0,2.0,2.292724847793579
434,-198.0,73.0,-235.0,0.0,-8657.0,-11518.0,7096.0,-3237.0,-13.0,5.0,9.0,-6.0,-26.0,-18.0,-14.0,-4.0,2.295090675354004
435,-198.0,73.0,-235.0,0.0,-8657.0,-11518.0,7096.0,-3237.0,13.0,1.0,5.0,0.0,15.0,11.0,33.0,11.0,2.297349452972412
436,-192.0,49.0,-191.0,0.0,-8688.0,-11516.0,7076.0,-3208.0,13.0,1.0,5.0,0.0,15.0,11.0,33.0,11.0,2.3082144260406494
437,-192.0,49.0,-191.0,0.0,-8688.0,-11516.0,7076.0,-3208.0,8.0,2.0,15.0,2.0,10.0,-2.0,-4.0,-1.0,2.310680866241455
438,-192.0,49.0,-191.0,0.0,-8688.0,-11516.0,7076.0,-3208.0,0.0,-6.0,0.0,5.0,4.0,-3.0,-13.0,1.0,2.312952756881714
439,-236.0,29.0,-160.0,0.0,-8717.0,-11509.0,7065.0,-3178.0,0.0,-6.0,0.0,5.0,4.0,-3.0,-13.0,1.0,2.330254554748535
440,-236.0,29.0,-160.0,0.0,-8717.0,-11509.0,7065.0,-3178.0,-18.0,-27.0,-31.0,-3.0,8.0,-3.0,2.0,-4.0,2.3326282501220703
441,-236.0,29.0,-160.0,0.0,-8717.0,-11509.0,7065.0,-3178.0,10.0,27.0,-7.0,-6.0,-37.0,-9.0,4.0,-1.0,2.334904670715332
442,-283.0,22.0,-117.0,0.0,-8749.0,-11493.0,7064.0,-3150.0,10.0,27.0,-7.0,-6.0,-37.0,-9.0,4.0,-1.0,2.3527071475982666
443,-283.0,22.0,-117.0,0.0,-8749.0,-11493.0,7064.0,-3150.0,3.0,-11.0,-18.0,0.0,18.0,10.0,-4.0,5.0,2.3550865650177
444,-283.0,22.0,-117.0,0.0,-8749.0,-11493.0,7064.0,-3150.0,-3.0,-7.0,0.0,-2.0,-27.0,-12.0,-15.0,-2.0,2.3573615550994873
445,-279.0,21.0,-84.0,0.0,-8775.0,-11475.0,7070.0,-3128.0,-3.0,-7.0,0.0,-2.0,-27.0,-12.0,-15.0,-2.0,2.3679842948913574
446,-279.0,21.0,-84.0,0.0,-8775.0,-11475.0,7070.0,-3128.0,9.0,-1.0,2.0,-3.0,2.0,8.0,9.0,2.0,2.370861768722534
447,-279.0,21.0,-84.0,0.0,-8775.0,-11475.0,7070.0,-3128.0,-2.0,-6.0,-13.0,0.0,-2.0,-8.0,-4.0,0.0,2.3732542991638184
448,-208.0,27.0,-82.0,0.0,-8793.0,-11462.0,7075.0,-3115.0,-2.0,-6.0,-13.0,0.0,-2.0,-8.0,-4.0,0.0,2.3902828693389893
449,-208.0,27.0,-82.0,0.0,-8793.0,-11462.0,7075.0,-3115.0,3.0,-8.0,-5.0,3.0,8.0,6.0,11.0,3.0,2.392630100250244
450,-208.0,27.0,-82.0,0.0,-8793.0,-11462.0,7075.0,-3115.0,-4.0,-7.0,-13.0,1.0,6.0,1.0,-13.0,-3.0,2.394923210144043
451,-114.0,37.0,-95.0,0.0,-8798.0,-11462.0,7073.0,-3106.0,-4.0,-7.0,-13.0,1.0,6.0,1.0,-13.0,-3.0,2.4137227535247803
452,-114.0,37.0,-95.0,0.0,-8798.0,-11462.0,7073.0,-3106.0,4.0,29.0,20.0,-8.0,-22.0,-8.0,8.0,0.0,2.417816400527954
453,-114.0,37.0,-95.0,0.0,-8798.0,-11462.0,7073.0,-3106.0,-2.0,-1.0,-17.0,0.0,-4.0,7.0,-7.0,0.0,2.4217612743377686
454,-55.0,49.0,-116.0,0.0,-8800.0,-11468.0,7064.0,-3099.0,-2.0,-1.0,-17.0,0.0,-4.0,7.0,-7.0,0.0,2.427055835723877
455,-55.0,49.0,-116.0,0.0,-8800.0,-11468.0,7064.0,-3099.0,-5.0,-5.0,8.0,2.0,-21.0,-6.0,-6.0,-3.0,2.429678201675415
456,-55.0,49.0,-116.0,0.0,-8800.0,-11468.0,7064.0,-3099.0,-1.0,5.0,0.0,-4.0,8.0,0.0,0.0,-1.0,2.433734893798828
457,-24.0,45.0,-128.0,0.0,-8800.0,-11478.0,7051.0,-3093.0,-1.0,5.0,0.0,-4.0,8.0,0.0,0.0,-1.0,2.450317621231079
458,-24.0,45.0,-128.0,0.0,-8800.0,-11478.0,7051.0,-3093.0,2.0,-6.0,3.0,6.0,21.0,4.0,15.0,-2.0,2.4526960849761963
459,-24.0,45.0,-128.0,0.0,-8800.0,-11478.0,7051.0,-3093.0,-2.0,-2.0,9.0,-3.0,-3.0,-12.0,0.0,-3.0,2.454960584640503
460,-27.0,48.0,-127.0,0.0,-8801.0,-11488.0,7036.0,-3084.0,-2.0,-2.0,9.0,-3.0,-3.0,-12.0,0.0,-3.0,2.4730653762817383
461,-27.0,48.0,-127.0,0.0,-8801.0,-11488.0,7036.0,-3084.0,-8.0,-11.0,-6.0,-3.0,8.0,-4.0,-3.0,-2.0,2.47542142868042
462,-27.0,48.0,-127.0,0.0,-8801.0,-11488.0,7036.0,-3084.0,-2.0,-3.0,20.0,0.0,-9.0,-7.0,1.0,1.0,2.477684736251831
463,-24.0,48.0,-112.0,0.0,-8805.0,-11495.0,7022.0,-3078.0,-2.0,-3.0,20.0,0.0,-9.0,-7.0,1.0,1.0,2.487147808074951
464,-24.0,48.0,-112.0,0.0,-8805.0,-11495.0,7022.0,-3078.0,0.0,7.0,3.0,-2.0,16.0,8.0,8.0,-5.0,2.4895243644714355
465,-24.0,48.0,-112.0,0.0,-8805.0,-11495.0,7022.0,-3078.0,-2.0,-7.0,-17.0,-2.0,2.0,4.0,-3.0,0.0,2.4943771362304688
466,-28.0,46.0,-102.0,0.0,-8809.0,-11500.0,7010.0,-3074.0,-2.0,-7.0,-17.0,-2.0,2.0,4.0,-3.0,0.0,2.510735511779785
467,-28.0,46.0,-102.0,0.0,-8809.0,-11500.0,7010.0,-3074.0,-9.0,-10.0,-10.0,-5.0,-11.0,0.0,-10.0,-2.0,2.5131282806396484
468,-28.0,46.0,-102.0,0.0,-8809.0,-11500.0,7010.0,-3074.0,6.0,7.0,2.0,2.0,-14.0,-3.0,10.0,1.0,2.5154056549072266
469,-41.0,48.0,-93.0,0.0,-8815.0,-11504.0,6999.0,-3069.0,6.0,7.0,2.0,2.0,-14.0,-3.0,10.0,1.0,2.532886505126953
470,-41.0,48.0,-93.0,0.0,-8815.0,-11504.0,6999.0,-3069.0,3.0,2.0,-7.0,-3.0,-19.0,-9.0,-15.0,2.0,2.5352954864501953
471,-41.0,48.0,-93.0,0.0,-8815.0,-11504.0,6999.0,-3069.0,-10.0,-18.0,-12.0,0.0,10.0,2.0,3.0,-3.0,2.5376296043395996
472,-58.0,54.0,-80.0,0.0,-8825.0,-11503.0,6989.0,-3066.0,-10.0,-18.0,-12.0,0.0,10.0,2.0,3.0,-3.0,2.5470871925354004
473,-58.0,54.0,-80.0,0.0,-8825.0,-11503.0,6989.0,-3066.0,-10.0,5.0,14.0,4.0,4.0,2.0,0.0,0.0,2.549520492553711
474,-58.0,54.0,-80.0,0.0,-8825.0,-11503.0,6989.0,-3066.0,9.0,18.0,3.0,0.0,-18.0,2.0,-17.0,-1.0,2.553757429122925
475,-57.0,70.0,-72.0,0.0,-8836.0,-11501.0,6978.0,-3066.0,9.0,18.0,3.0,0.0,-18.0,2.0,-17.0,-1.0,2.570504903793335
476,-57.0,70.0,-72.0,0.0,-8836.0,-11501.0,6978.0,-3066.0,2.0,-4.0,-21.0,-2.0,3.0,-2.0,-2.0,7.0,2.5728769302368164
477,-57.0,70.0,-72.0,0.0,-8836.0,-11501.0,6978.0,-3066.0,-4.0,-2.0,6.0,-2.0,5.0,2.0,0.0,2.0,2.575143814086914
478,-39.0,83.0,-70.0,0.0,-8844.0,-11501.0,6967.0,-3071.0,-4.0,-2.0,6.0,-2.0,5.0,2.0,0.0,2.0,2.5933988094329834
479,-39.0,83.0,-70.0,0.0,-8844.0,-11501.0,6967.0,-3071.0,1.0,-15.0,-11.0,-2.0,6.0,3.0,5.0,-2.0,2.5958614349365234
480,-39.0,83.0,-70.0,0.0,-8844.0,-11501.0,6967.0,-3071.0,23.0,61.0,63.0,-3.0,-12.0,-11.0,3.0,1.0,2.5981364250183105
481,-22.0,94.0,-73.0,0.0,-8853.0,-11501.0,6953.0,-3077.0,23.0,61.0,63.0,-3.0,-12.0,-11.0,3.0,1.0,2.60766863822937
482,-22.0,94.0,-73.0,0.0,-8853.0,-11501.0,6953.0,-3077.0,-1.0,-1.0,6.0,3.0,23.0,1.0,-1.0,-2.0,2.610079288482666
483,-22.0,94.0,-73.0,0.0,-8853.0,-11501.0,6953.0,-3077.0,-10.0,-25.0,-19.0,2.0,10.0,1.0,3.0,-4.0,2.6137855052948
484,3.0,96.0,-72.0,0.0,-8855.0,-11504.0,6940.0,-3088.0,-10.0,-25.0,-19.0,2.0,10.0,1.0,3.0,-4.0,2.6321609020233154
485,3.0,96.0,-72.0,0.0,-8855.0,-11504.0,6940.0,-3088.0,-1.0,1.0,7.0,-1.0,0.0,2.0,-5.0,-2.0,2.636523723602295
486,3.0,96.0,-72.0,0.0,-8855.0,-11504.0,6940.0,-3088.0,-5.0,-10.0,-5.0,-3.0,-2.0,-3.0,-14.0,-1.0,2.63936185836792
487,4.0,100.0,-78.0,0.0,-8860.0,-11506.0,6926.0,-3099.0,-5.0,-10.0,-5.0,-3.0,-2.0,-3.0,-14.0,-1.0,2.6531054973602295
488,4.0,100.0,-78.0,0.0,-8860.0,-11506.0,6926.0,-3099.0,2.0,1.0,-9.0,-4.0,18.0,-22.0,-26.0,-5.0,2.656248092651367
489,4.0,100.0,-78.0,0.0,-8860.0,-11506.0,6926.0,-3099.0,12.0,24.0,3.0,-1.0,-6.0,-3.0,2.0,3.0,2.6585304737091064
490,30.0,86.0,-66.0,0.0,-8860.0,-11511.0,6912.0,-3109.0,12.0,24.0,3.0,-1.0,-6.0,-3.0,2.0,3.0,2.6669983863830566
491,30.0,86.0,-66.0,0.0,-8860.0,-11511.0,6912.0,-3109.0,-11.0,-17.0,-6.0,0.0,-3.0,9.0,11.0,-2.0,2.6693880558013916
492,30.0,86.0,-66.0,0.0,-8860.0,-11511.0,6912.0,-3109.0,-4.0,-10.0,-5.0,-1.0,1.0,0.0,0.0,0.0,2.6742184162139893
493,18.0,80.0,-60.0,0.0,-8861.0,-11514.0,6901.0,-3119.0,-4.0,-10.0,-5.0,-1.0,1.0,0.0,0.0,0.0,2.690293550491333
494,18.0,80.0,-60.0,0.0,-8861.0,-11514.0,6901.0,-3119.0,-2.0,1.0,4.0,-1.0,-10.0,1.0,1.0,-2.0,2.692695140838623
495,18.0,80.0,-60.0,0.0,-8861.0,-11514.0,6901.0,-3119.0,-4.0,-9.0,-11.0,1.0,3.0,7.0,1.0,0.0,2.6949663162231445
496,6.0,85.0,-43.0,0.0,-8863.0,-11516.0,6891.0,-3129.0,-4.0,-9.0,-11.0,1.0,3.0,7.0,1.0,0.0,2.7138636112213135
497,6.0,85.0,-43.0,0.0,-8863.0,-11516.0,6891.0,-3129.0,-10.0,-6.0,22.0,2.0,-23.0,-14.0,-20.0,-7.0,2.719020366668701
498,6.0,85.0,-43.0,0.0,-8863.0,-11516.0,6891.0,-3129.0,9.0,15.0,12.0,1.0,-10.0,-3.0,3.0,4.0,2.7231240272521973
499,10.0,89.0,-24.0,0.0,-8866.0,-11518.0,6881.0,-3138.0,9.0,15.0,12.0,1.0,-10.0,-3.0,3.0,4.0,2.727342367172241
