Gyro 0,Gyro 1,Gyro 2,Orientation 0,Orientation 1,Orientation 2,Orientation 3,Sensor 0,Sensor 1,Sensor 2,Sensor 3,Sensor 4,Sensor 5,Sensor 6,Sensor 7,Sensor Mean,Sensor Variance,Gyro Mean,Gyro Variance,Orientation Mean,Orientation Variance,Label
-36.659413983173785,0.1530735235034113,-14.721242529329283,114.56473513100019,-111.29337602561534,-115.09375,85.73506280079823,7.633879781420751,-1.5679012345679126,-4.268907563025209,9.462745098039218,-3.699029126213606,32.04672897196262,-12.64940239043825,-5.478431372549018,9.600878192277072,94.5404143264415,17.177910012002158,342.94798020118316,43.146350394610955,3878.497145811763,0
-36.659413983173785,0.1530735235034113,-14.721242529329283,114.56473513100019,-111.29337602561534,-115.09375,85.73506280079823,4.857923497267746,-6.794238683127583,-5.336134453781511,8.466666666666669,-20.9611650485437,16.61682242990655,-0.5059760956175348,2.4901960784313744,8.253640369167833,49.555079538734745,17.177910012002158,342.94798020118316,43.146350394610955,3878.497145811763,0
-36.659413983173785,0.1530735235034113,-14.721242529329283,114.56473513100019,-111.29337602561534,-115.09375,85.73506280079823,14.573770491803264,21.427983539094637,-19.210084033613445,-13.44705882352941,-1.2330097087378782,15.42990654205608,-2.5298804780876543,2.4901960784313744,11.292736211919218,64.77150797805068,17.177910012002158,342.94798020118316,43.146350394610955,3878.497145811763,0
-36.659413983173785,0.1530735235034113,-14.721242529329283,114.56473513100019,-111.29337602561534,-115.09375,85.73506280079823,7.633879781420751,-1.5679012345679126,12.806722689075631,1.4941176470588253,-2.466019417475742,11.869158878504678,-7.589641434262953,-4.482352941176469,6.238724252942871,20.036836454732697,17.177910012002158,342.94798020118316,43.146350394610955,3878.497145811763,0
-36.47519582245432,0.6633186018481281,-15.002361100863261,114.12755785044942,-111.29337602561534,-115.22260551948051,85.43690574011035,7.633879781420751,-1.5679012345679126,12.806722689075631,1.4941176470588253,-2.466019417475742,11.869158878504678,-7.589641434262953,-4.482352941176469,6.238724252942871,20.036836454732697,17.380291841721903,347.6275675288052,43.264412517720274,3817.5910597827606,0
-36.47519582245432,0.6633186018481281,-15.002361100863261,114.12755785044942,-111.29337602561534,-115.22260551948051,85.43690574011035,6.245901639344249,-1.5679012345679126,-9.60504201680672,-5.478431372549018,-7.398058252427198,10.682242990654212,-5.5657370517928335,-1.4941176470588218,6.00467902565012,11.048811442864872,17.380291841721903,347.6275675288052,43.264412517720274,3817.5910597827606,0
-36.47519582245432,0.6633186018481281,-15.002361100863261,114.12755785044942,-111.29337602561534,-115.22260551948051,85.43690574011035,10.409836065573757,4.703703703703692,-28.815126050420165,1.4941176470588253,3.6990291262135777,7.121495327102809,6.5776892430278835,7.4705882352941195,8.786448174799354,72.69917379877363,17.380291841721903,347.6275675288052,43.264412517720274,3817.5910597827606,0
-35.33304322599363,0.8674166331860151,-14.758725005533814,113.49607955632052,-111.09005403241943,-115.40300324675326,85.25801150369765,10.409836065573757,4.703703703703692,-28.815126050420165,1.4941176470588253,3.6990291262135777,7.121495327102809,6.5776892430278835,7.4705882352941195,8.786448174799354,72.69917379877363,16.986394954904487,329.65869446102585,43.04074039834678,3771.2082239727465,0
-35.33304322599363,0.8674166331860151,-14.758725005533814,113.49607955632052,-111.09005403241943,-115.40300324675326,85.25801150369765,7.633879781420751,19.33744855967077,28.81512605042017,3.4862745098039234,3.6990291262135777,17.803738317757016,7.589641434262944,9.462745098039218,12.228485359698546,79.4562742129154,16.986394954904487,329.65869446102585,43.04074039834678,3771.2082239727465,0
-35.33304322599363,0.8674166331860151,-14.758725005533814,113.49607955632052,-111.09005403241943,-115.40300324675326,85.25801150369765,4.857923497267746,4.703703703703692,-10.672268907563023,-1.4941176470588218,-9.864077669902926,17.803738317757016,6.5776892430278835,3.4862745098039234,7.432474187010628,27.08768745601382,16.986394954904487,329.65869446102585,43.04074039834678,3771.2082239727465,0
-36.69625761531768,2.6022498995580525,-14.552571386408896,113.05890227576975,-111.03922353412045,-115.48031655844159,84.98967014907853,4.857923497267746,4.703703703703692,-10.672268907563023,-1.4941176470588218,-9.864077669902926,17.803738317757016,6.5776892430278835,3.4862745098039234,7.432474187010628,27.08768745601382,17.95035963376154,388.1672376757623,43.4045745205789,3674.496577180435,0
-36.69625761531768,2.6022498995580525,-14.552571386408896,113.05890227576975,-111.03922353412045,-115.48031655844159,84.98967014907853,6.245901639344249,4.703703703703692,-5.336134453781511,4.482352941176472,-3.699029126213606,8.308411214953276,0.505976095617525,-1.4941176470588218,4.346953352731145,6.247831394009873,17.95035963376154,388.1672376757623,43.4045745205789,3674.496577180435,0
-36.69625761531768,2.6022498995580525,-14.552571386408896,113.05890227576975,-111.03922353412045,-115.48031655844159,84.98967014907853,10.409836065573757,15.156378600823032,14.941176470588236,-5.478431372549018,-8.631067961165062,17.803738317757016,-4.553784860557774,0.4980392156862763,9.684056608087522,36.2197537967818,17.95035963376154,388.1672376757623,43.4045745205789,3674.496577180435,0
-38.7595010153757,4.030936118923259,-14.065299195750002,113.05890227576975,-111.6491895137082,-115.50608766233768,84.72132879445945,10.409836065573757,15.156378600823032,14.941176470588236,-5.478431372549018,-8.631067961165062,17.803738317757016,-4.553784860557774,0.4980392156862763,9.684056608087522,36.2197537967818,18.95191211001632,461.38314103613726,43.71837919681434,3631.253216236757,0
-38.7595010153757,4.030936118923259,-14.065299195750002,113.05890227576975,-111.6491895137082,-115.50608766233768,84.72132879445945,6.245901639344249,-0.5226337448559786,1.067226890756304,9.462745098039218,-19.728155339805838,-7.121495327102799,3.5418326693227042,1.4941176470588253,6.14801354453574,40.32502314318221,18.95191211001632,461.38314103613726,43.71837919681434,3631.253216236757,0
-38.7595010153757,4.030936118923259,-14.065299195750002,113.05890227576975,-111.6491895137082,-115.50608766233768,84.72132879445945,11.797814207650259,7.839506172839494,-36.285714285714285,-10.458823529411763,3.6990291262135777,20.177570093457952,-6.577689243027893,-2.490196078431371,12.415792842093325,123.39360805910685,18.95191211001632,461.38314103613726,43.71837919681434,3631.253216236757,0
-39.2753118653902,5.357573322619523,-13.80292186231829,113.25320328934788,-112.41164698819287,-115.45454545454544,84.48280314590917,11.797814207650259,7.839506172839494,-36.285714285714285,-10.458823529411763,3.6990291262135777,20.177570093457952,-6.577689243027893,-2.490196078431371,12.415792842093325,123.39360805910685,19.478602350109337,501.34361140111344,44.13789949142856,3600.5248922982587,0
-39.2753118653902,5.357573322619523,-13.80292186231829,113.25320328934788,-112.41164698819287,-115.45454545454544,84.48280314590917,10.409836065573757,4.703703703703692,-28.815126050420165,8.466666666666669,-7.398058252427198,11.869158878504678,1.5179282868525847,0.4980392156862763,9.209814639979378,78.86861590029382,19.478602350109337,501.34361140111344,44.13789949142856,3600.5248922982587,0
-39.2753118653902,5.357573322619523,-13.80292186231829,113.25320328934788,-112.41164698819287,-115.45454545454544,84.48280314590917,10.409836065573757,14.111111111111098,36.285714285714285,6.4745098039215705,-1.2330097087378782,11.869158878504678,-14.673306772908372,-10.458823529411763,13.189433769485426,105.9230490781362,19.478602350109337,501.34361140111344,44.13789949142856,3600.5248922982587,0
-37.83841021177837,6.276014463640013,-13.615509481295637,113.49607955632052,-113.02161296778064,-115.42877435064935,84.4231717337716,10.409836065573757,14.111111111111098,36.285714285714285,6.4745098039215705,-1.2330097087378782,11.869158878504678,-14.673306772908372,-10.458823529411763,13.189433769485426,105.9230490781362,19.24331138557134,488.0840181823218,44.46253450041872,3587.689804017466,0
-37.83841021177837,6.276014463640013,-13.615509481295637,113.49607955632052,-113.02161296778064,-115.42877435064935,84.4231717337716,11.797814207650259,8.884773662551428,10.672268907563026,-2.490196078431371,-4.93203883495147,14.242990654205613,-6.577689243027893,0.4980392156862763,7.511976350508418,22.498506059436487,19.24331138557134,488.0840181823218,44.46253450041872,3587.689804017466,0
-37.83841021177837,6.276014463640013,-13.615509481295637,113.49607955632052,-113.02161296778064,-115.42877435064935,84.4231717337716,3.4699453551912427,-2.6131687242798467,-7.470588235294116,4.482352941176472,-1.2330097087378782,16.61682242990655,1.5179282868525847,6.4745098039215705,5.484790685670032,25.138485884177843,19.24331138557134,488.0840181823218,44.46253450041872,3587.689804017466,0
-38.13315926892951,7.908798714343106,-13.652991957500168,113.73895582329322,-113.47908745247145,-115.37723214285717,84.27409320342764,3.4699453551912427,-2.6131687242798467,-7.470588235294116,4.482352941176472,-1.2330097087378782,16.61682242990655,1.5179282868525847,6.4745098039215705,5.484790685670032,25.138485884177843,19.89831664692426,530.6752172509003,45.10024883171217,3541.7030121107714,0
-38.13315926892951,7.908798714343106,-13.652991957500168,113.73895582329322,-113.47908745247145,-115.37723214285717,84.27409320342764,11.797814207650259,5.748971193415626,-8.537815126050418,1.4941176470588253,-4.93203883495147,16.61682242990655,-10.625498007968133,-13.44705882352941,9.150017033816336,24.535952062157403,19.89831664692426,530.6752172509003,45.10024883171217,3541.7030121107714,0
-38.13315926892951,7.908798714343106,-13.652991957500168,113.73895582329322,-113.47908745247145,-115.37723214285717,84.27409320342764,6.245901639344249,3.6584362139917577,-5.336134453781511,-5.478431372549018,-8.631067961165062,27.29906542056075,-12.64940239043825,-7.470588235294116,9.59612846089059,58.535558418900486,19.89831664692426,530.6752172509003,45.10024883171217,3541.7030121107714,0
-38.7595010153757,9.949779027721974,-13.596768243193372,114.0789825970549,-113.93656193716225,-115.22260551948051,84.12501467308371,6.245901639344249,3.6584362139917577,-5.336134453781511,-5.478431372549018,-8.631067961165062,27.29906542056075,-12.64940239043825,-7.470588235294116,9.59612846089059,58.535558418900486,20.768682762097015,593.3661618771038,45.875176622656745,3492.144494629453,0
-38.7595010153757,9.949779027721974,-13.596768243193372,114.0789825970549,-113.93656193716225,-115.22260551948051,84.12501467308371,3.4699453551912427,-3.6584362139917808,-35.21848739495798,-8.466666666666665,2.4660194174757137,-5.934579439252332,-14.673306772908372,-9.462745098039214,10.418773294810412,116.45632010205557,20.768682762097015,593.3661618771038,45.875176622656745,3492.144494629453,0
-38.7595010153757,9.949779027721974,-13.596768243193372,114.0789825970549,-113.93656193716225,-115.22260551948051,84.12501467308371,13.185792349726762,0.5226337448559555,-22.41176470588235,7.4705882352941195,-3.699029126213606,14.242990654205613,3.5418326693227042,6.4745098039215705,8.943642661177837,51.90495063410366,20.768682762097015,593.3661618771038,45.875176622656745,3492.144494629453,0
-39.34899912967799,11.888710325431898,-13.465579576477516,114.61331038439477,-114.54652791675002,-114.99066558441558,83.97593614273978,13.185792349726762,0.5226337448559555,-22.41176470588235,7.4705882352941195,-3.699029126213606,14.242990654205613,3.5418326693227042,6.4745098039215705,8.943642661177837,51.90495063410366,21.567763010529138,656.3490490672207,46.6558667621014,3464.2822369166097,0
-39.34899912967799,11.888710325431898,-13.465579576477516,114.61331038439477,-114.54652791675002,-114.99066558441558,83.97593614273978,14.573770491803264,8.884773662551428,-41.621848739495796,-17.431372549019606,-29.59223300970875,13.056074766355145,0.505976095617525,3.4862745098039234,16.144040478044428,185.87087881962938,21.567763010529138,656.3490490672207,46.6558667621014,3464.2822369166097,0
-39.34899912967799,11.888710325431898,-13.465579576477516,114.61331038439477,-114.54652791675002,-114.99066558441558,83.97593614273978,10.409836065573757,18.292181069958836,25.613445378151262,-2.490196078431371,-1.4210854715202004e-14,4.747663551401875,-1.5179282868525945,0.4980392156862763,7.946161205756997,89.31126730507602,21.567763010529138,656.3490490672207,46.6558667621014,3464.2822369166097,0
-39.49637365825356,12.501004419445557,-13.40935586217072,115.09906291834005,-115.10566339803879,-114.81026785714283,83.85667331846463,10.409836065573757,18.292181069958836,25.613445378151262,-2.490196078431371,-1.4210854715202004e-14,4.747663551401875,-1.5179282868525945,0.4980392156862763,7.946161205756997,89.31126730507602,21.80224464662328,675.9344323952477,47.00314106665211,3477.997205209268,0
-39.49637365825356,12.501004419445557,-13.40935586217072,115.09906291834005,-115.10566339803879,-114.81026785714283,83.85667331846463,14.573770491803264,16.201646090534965,-12.80672268907563,13.447058823529414,-2.466019417475742,13.056074766355145,-0.5059760956175348,6.4745098039215705,9.941472272289158,35.39690299798998,21.80224464662328,675.9344323952477,47.00314106665211,3477.997205209268,0
-39.49637365825356,12.501004419445557,-13.40935586217072,115.09906291834005,-115.10566339803879,-114.81026785714283,83.85667331846463,10.409836065573757,10.975308641975296,19.210084033613448,-2.490196078431371,-12.330097087378654,8.308411214953276,-1.5179282868525945,-1.4941176470588218,8.341997381979652,38.990944878120686,21.80224464662328,675.9344323952477,47.00314106665211,3477.997205209268,0
-40.60168262257036,13.82764162314182,-13.29690843355713,115.63339070567991,-115.66479887932758,-114.55255681818181,83.61814766991432,10.409836065573757,10.975308641975296,19.210084033613448,-2.490196078431371,-12.330097087378654,8.308411214953276,-1.5179282868525945,-1.4941176470588218,8.341997381979652,38.990944878120686,22.57541089308977,740.6405411893736,47.58598025412629,3472.9079713012884,0
-40.60168262257036,13.82764162314182,-13.29690843355713,115.63339070567991,-115.66479887932758,-114.55255681818181,83.61814766991432,7.633879781420751,-7.839506172839517,-22.41176470588235,-6.474509803921567,-1.2330097087378782,32.04672897196262,17.70916334661354,13.447058823529414,13.599452664363454,101.0472225723938,22.57541089308977,740.6405411893736,47.58598025412629,3472.9079713012884,0
-40.60168262257036,13.82764162314182,-13.29690843355713,115.63339070567991,-115.66479887932758,-114.55255681818181,83.61814766991432,-6.245901639344275,-14.111111111111121,-40.554621848739494,-0.49803921568627274,3.6990291262135777,9.495327102803744,-10.625498007968133,-15.439215686274508,12.583592967267641,153.0571838423745,22.57541089308977,740.6405411893736,47.58598025412629,3472.9079713012884,0
-39.97534087612417,14.439935717155482,-12.97830738581862,116.31344425320333,-116.22393436061634,-114.2690746753247,83.4690691395704,-6.245901639344275,-14.111111111111121,-40.554621848739494,-0.49803921568627274,3.6990291262135777,9.495327102803744,-10.625498007968133,-15.439215686274508,12.583592967267641,153.0571838423745,22.46452799303276,740.2703664755992,47.910562452059146,3509.749768370719,0
-39.97534087612417,14.439935717155482,-12.97830738581862,116.31344425320333,-116.22393436061634,-114.2690746753247,83.4690691395704,7.633879781420751,1.5679012345678895,4.268907563025211,2.4901960784313744,8.631067961165034,16.61682242990655,-7.589641434262953,-4.482352941176469,6.660096177994529,22.65890015648336,22.46452799303276,740.2703664755992,47.910562452059146,3509.749768370719,0
-39.97534087612417,14.439935717155482,-12.97830738581862,116.31344425320333,-116.22393436061634,-114.2690746753247,83.4690691395704,13.185792349726762,-1.5679012345679126,-37.35294117647059,0.4980392156862763,-1.2330097087378782,14.242990654205613,4.553784860557764,9.462745098039218,10.262150537249001,149.14048851939523,22.46452799303276,740.2703664755992,47.910562452059146,3509.749768370719,0
-38.648970118944014,15.766572920851743,-12.772153766693704,116.84777204054313,-116.52891735041021,-114.06290584415586,83.52870055170797,13.185792349726762,-1.5679012345679126,-37.35294117647059,0.4980392156862763,-1.2330097087378782,14.242990654205613,4.553784860557764,9.462745098039218,10.262150537249001,149.14048851939523,22.395898935496486,740.8533116317287,48.462166242696185,3509.684946771585,0
-38.648970118944014,15.766572920851743,-12.772153766693704,116.84777204054313,-116.52891735041021,-114.06290584415586,83.52870055170797,14.573770491803264,2.6131687242798236,-51.22689075630252,-5.478431372549018,-32.05825242718448,5.329070518200751e-15,-7.589641434262953,6.4745098039215705,15.001833126287954,314.32064139801474,22.395898935496486,740.8533116317287,48.462166242696185,3509.684946771585,0
-38.648970118944014,15.766572920851743,-12.772153766693704,116.84777204054313,-116.52891735041021,-114.06290584415586,83.52870055170797,6.245901639344249,5.748971193415626,-18.14285714285714,9.462745098039218,-9.864077669902926,-1.1869158878504624,-11.637450199203192,-5.478431372549018,8.470918775395228,25.838471859757046,22.395898935496486,740.8533116317287,48.462166242696185,3509.684946771585,0
-37.87525384392226,16.174768983527517,-12.547258909466523,117.43067508127751,-116.73223934360612,-113.85673701298703,83.64796337598312,6.245901639344249,5.748971193415626,-18.14285714285714,9.462745098039218,-9.864077669902926,-1.1869158878504624,-11.637450199203192,-5.478431372549018,8.470918775395228,25.838471859757046,22.199093912305432,731.3111968889308,48.71756765809052,3544.4080561471796,0
-37.87525384392226,16.174768983527517,-12.547258909466523,117.43067508127751,-116.73223934360612,-113.85673701298703,83.64796337598312,11.797814207650259,10.975308641975296,10.672268907563026,8.466666666666669,12.330097087378626,26.112149532710287,1.5179282868525847,1.4941176470588253,10.420793872231947,59.27088139347751,22.199093912305432,731.3111968889308,48.71756765809052,3544.4080561471796,0
-37.87525384392226,16.174768983527517,-12.547258909466523,117.43067508127751,-116.73223934360612,-113.85673701298703,83.64796337598312,10.409836065573757,-2.6131687242798467,-52.29411764705882,-7.470588235294116,-7.398058252427198,9.495327102803744,2.5298804780876445,3.4862745098039234,11.96215637691613,274.91131330853125,22.199093912305432,731.3111968889308,48.71756765809052,3544.4080561471796,0
-40.012184508268064,14.950180795500199,-12.172434147421217,118.1593038821955,-117.54552731638981,-113.67633928571428,83.7075947881207,10.409836065573757,-2.6131687242798467,-52.29411764705882,-7.470588235294116,-7.398058252427198,9.495327102803744,2.5298804780876445,3.4862745098039234,11.96215637691613,274.91131330853125,22.378266483729828,755.2582568801877,48.42730627503897,3648.842586823592,0
-40.012184508268064,14.950180795500199,-12.172434147421217,118.1593038821955,-117.54552731638981,-113.67633928571428,83.7075947881207,13.185792349726762,12.02057613168723,22.411764705882355,-4.482352941176469,-1.2330097087378782,24.92523364485982,-1.5179282868525945,-2.490196078431371,10.28335673091931,89.4359168988453,22.378266483729828,755.2582568801877,48.42730627503897,3648.842586823592,0
-40.012184508268064,14.950180795500199,-12.172434147421217,118.1593038821955,-117.54552731638981,-113.67633928571428,83.7075947881207,17.34972677595627,35.01646090534978,29.88235294117647,-13.44705882352941,-59.184466019417485,-7.121495327102799,-1.5179282868525945,8.466666666666669,21.498269468256435,361.57778646122694,22.378266483729828,755.2582568801877,48.42730627503897,3648.842586823592,0
-40.60168262257036,13.521494576134991,-12.453552718955196,118.98508318990247,-118.66379827896733,-113.49594155844159,83.7075947881207,17.34972677595627,35.01646090534978,29.88235294117647,-13.44705882352941,-59.184466019417485,-7.121495327102799,-1.5179282868525945,8.466666666666669,21.498269468256435,361.57778646122694,22.192243305886848,732.7231015225708,48.32004349499755,3745.446001264445,0
-40.60168262257036,13.521494576134991,-12.453552718955196,118.98508318990247,-118.66379827896733,-113.49594155844159,83.7075947881207,4.857923497267746,4.703703703703692,1.7763568394002505e-15,-7.470588235294116,-44.38834951456312,-4.747663551401864,-17.70916334661355,-12.450980392156861,12.041046530125119,200.4495409258561,22.192243305886848,732.7231015225708,48.32004349499755,3745.446001264445,0
-40.60168262257036,13.521494576134991,-12.453552718955196,118.98508318990247,-118.66379827896733,-113.49594155844159,83.7075947881207,2.0819672131147406,7.839506172839494,33.08403361344538,-6.474509803921567,4.932038834951442,-5.934579439252332,-5.5657370517928335,-11.454901960784312,9.670909261262763,96.54136605452229,22.192243305886848,732.7231015225708,48.32004349499755,3745.446001264445,0
-38.98056280823906,9.133386902370427,-13.315649671659395,119.37368521705872,-119.42625575345204,-113.41862824675326,83.6777790820519,2.0819672131147406,7.839506172839494,33.08403361344538,-6.474509803921567,4.932038834951442,-5.934579439252332,-5.5657370517928335,-11.454901960784312,9.670909261262763,96.54136605452229,20.476533127422957,579.599861027561,47.27424059702952,3903.1202663553395,0
-38.98056280823906,9.133386902370427,-13.315649671659395,119.37368521705872,-119.42625575345204,-113.41862824675326,83.6777790820519,7.633879781420751,2.6131687242798236,-1.0672268907563014,3.4862745098039234,-9.864077669902926,15.42990654205608,5.565737051792824,3.4862745098039234,6.143318209977069,22.141224074626354,20.476533127422957,579.599861027561,47.27424059702952,3903.1202663553395,0
-38.98056280823906,9.133386902370427,-13.315649671659395,119.37368521705872,-119.42625575345204,-113.41862824675326,83.6777790820519,6.245901639344249,-10.975308641975317,-53.36134453781512,6.4745098039215705,3.6990291262135777,34.42056074766356,-2.5298804780876543,1.4941176470588253,14.900081577759982,354.25887262929785,20.476533127422957,579.599861027561,47.27424059702952,3903.1202663553395,0
-36.73310124746157,4.643230212936919,-13.709215671806964,119.22795945687517,-119.68040824494693,-113.54748376623377,83.64796337598312,6.245901639344249,-10.975308641975317,-53.36134453781512,6.4745098039215705,3.6990291262135777,34.42056074766356,-2.5298804780876543,1.4941176470588253,14.900081577759982,354.25887262929785,18.361849044068485,429.81873034567514,45.860135113873014,4057.6762597043253,0
-36.73310124746157,4.643230212936919,-13.709215671806964,119.22795945687517,-119.68040824494693,-113.54748376623377,83.64796337598312,0.6939890710382368,-10.975308641975317,-5.336134453781511,3.4862745098039234,2.4660194174757137,13.056074766355145,-1.5179282868525945,-4.482352941176469,5.251760261057363,19.97964414460489,18.361849044068485,429.81873034567514,45.860135113873014,4057.6762597043253,0
-36.73310124746157,4.643230212936919,-13.709215671806964,119.22795945687517,-119.68040824494693,-113.54748376623377,83.64796337598312,21.51366120218578,26.65432098765431,54.42857142857143,5.4784313725490215,-2.466019417475742,33.23364485981309,10.625498007968122,9.462745098039218,20.48286154678209,303.1990373829097,18.361849044068485,429.81873034567514,45.860135113873014,4057.6762597043253,0
-36.143603133159274,3.3165930092406555,-13.37187338596619,118.83935742971892,-119.78206924154489,-113.80519480519479,83.6777790820519,21.51366120218578,26.65432098765431,54.42857142857143,5.4784313725490215,-2.466019417475742,33.23364485981309,10.625498007968122,9.462745098039218,20.48286154678209,303.1990373829097,17.610689842788705,392.3606109833035,45.17594127497525,4095.001325553852,0
-36.143603133159274,3.3165930092406555,-13.37187338596619,118.83935742971892,-119.78206924154489,-113.80519480519479,83.6777790820519,15.961748633879768,12.02057613168723,-3.201680672268906,-10.458823529411763,23.4271844660194,23.73831775700935,-7.589641434262953,-2.490196078431371,12.361021087871343,67.52787365776724,17.610689842788705,392.3606109833035,45.17594127497525,4095.001325553852,0
-36.143603133159274,3.3165930092406555,-13.37187338596619,118.83935742971892,-119.78206924154489,-113.80519480519479,83.6777790820519,11.797814207650259,10.975308641975296,-6.403361344537814,-7.470588235294116,-1.2330097087378782,7.121495327102809,-1.5179282868525945,-0.49803921568627274,5.87719312097963,19.27364444067761,17.610689842788705,392.3606109833035,45.17594127497525,4095.001325553852,0
-36.438352190310425,2.3981518682201655,-13.87788681472735,118.25645438898454,-119.78206924154489,-114.03713474025972,83.55851625777674,11.797814207650259,10.975308641975296,-6.403361344537814,-7.470588235294116,-1.2330097087378782,7.121495327102809,-1.5179282868525945,-0.49803921568627274,5.87719312097963,19.27364444067761,17.571463624419312,380.3596801099917,44.84416435731069,4074.9693243814645,0
-36.438352190310425,2.3981518682201655,-13.87788681472735,118.25645438898454,-119.78206924154489,-114.03713474025972,83.55851625777674,3.4699453551912427,0.5226337448559555,-13.873949579831931,5.4784313725490215,-8.631067961165062,11.869158878504678,-12.64940239043825,-7.470588235294116,7.995647189728782,22.079956890822494,17.571463624419312,380.3596801099917,44.84416435731069,4074.9693243814645,0
-36.438352190310425,2.3981518682201655,-13.87788681472735,118.25645438898454,-119.78206924154489,-114.03713474025972,83.55851625777674,9.021857923497254,-0.5226337448559786,-2.1344537815126037,0.4980392156862763,14.796116504854353,23.73831775700935,-15.685258964143431,-8.466666666666665,9.35791806977824,69.43579205685796,17.571463624419312,380.3596801099917,44.84416435731069,4074.9693243814645,0
-36.80678851174935,0.35717155484129837,-13.971593005238676,117.81927710843377,-120.08705223133876,-114.2690746753247,83.43925343350159,9.021857923497254,-0.5226337448559786,-2.1344537815126037,0.4980392156862763,14.796116504854353,23.73831775700935,-15.685258964143431,-8.466666666666665,9.35791806977824,69.43579205685796,17.045184357276444,351.31992924498564,44.049347222837916,4127.840034351555,0
-36.80678851174935,0.35717155484129837,-13.971593005238676,117.81927710843377,-120.08705223133876,-114.2690746753247,83.43925343350159,10.409836065573757,1.5679012345678895,-57.63025210084034,-7.470588235294116,-3.699029126213606,-4.747663551401864,10.625498007968122,9.462745098039218,13.201689177487363,333.1813926072852,17.045184357276444,351.31992924498564,44.049347222837916,4127.840034351555,0
-36.80678851174935,0.35717155484129837,-13.971593005238676,117.81927710843377,-120.08705223133876,-114.2690746753247,83.43925343350159,9.021857923497254,-1.5679012345679126,-18.14285714285714,9.462745098039218,-14.796116504854382,-8.308411214953267,2.5298804780876445,3.4862745098039234,8.414505513332593,34.662426604511936,17.045184357276444,351.31992924498564,44.049347222837916,4127.840034351555,0
-36.69625761531768,-1.5817597428686252,-14.027816719545472,117.43067508127751,-120.59535721432857,-114.50101461038963,83.29017490315766,9.021857923497254,-1.5679012345679126,-18.14285714285714,9.462745098039218,-14.796116504854382,-8.308411214953267,2.5298804780876445,3.4862745098039234,8.414505513332593,34.662426604511936,17.43527802591059,316.9650846243389,44.34675051456387,4044.6711061214896,0
-36.69625761531768,-1.5817597428686252,-14.027816719545472,117.43067508127751,-120.59535721432857,-114.50101461038963,83.29017490315766,10.409836065573757,9.930041152263362,13.873949579831933,10.458823529411767,4.932038834951442,16.61682242990655,2.5298804780876445,6.4745098039215705,9.403237734243502,21.462885548321832,17.43527802591059,316.9650846243389,44.34675051456387,4044.6711061214896,0
-36.69625761531768,-1.5817597428686252,-14.027816719545472,117.43067508127751,-120.59535721432857,-114.50101461038963,83.29017490315766,4.857923497267746,2.6131687242798236,-3.201680672268906,-6.474509803921567,1.2330097087378498,18.990654205607484,-5.5657370517928335,-8.466666666666665,6.425418791317859,31.0195983053564,17.43527802591059,316.9650846243389,44.34675051456387,4044.6711061214896,0
-34.70670147954744,-1.887906789875455,-14.046557957647737,116.79919678714862,-120.74784870922551,-114.88758116883116,83.34980631529524,4.857923497267746,2.6131687242798236,-3.201680672268906,-6.474509803921567,1.2330097087378498,18.990654205607484,-5.5657370517928335,-8.466666666666665,6.425418791317859,31.0195983053564,16.880388742356875,275.2912689079845,44.24455384489061,3985.090358913805,0
-34.70670147954744,-1.887906789875455,-14.046557957647737,116.79919678714862,-120.74784870922551,-114.88758116883116,83.34980631529524,21.51366120218578,29.79012345679011,-4.268907563025209,2.4901960784313744,-28.359223300970886,13.056074766355145,-2.5298804780876543,4.482352941176472,13.311302473377829,136.9122787919356,16.880388742356875,275.2912689079845,44.24455384489061,3985.090358913805,0
-34.70670147954744,-1.887906789875455,-14.046557957647737,116.79919678714862,-120.74784870922551,-114.88758116883116,83.34980631529524,15.961748633879768,12.02057613168723,-11.739495798319325,8.466666666666669,-7.398058252427198,4.747663551401875,-5.5657370517928335,-1.4941176470588218,8.424257966654215,21.644041328389296,16.880388742356875,275.2912689079845,44.24455384489061,3985.090358913805,0
-34.04351610095736,-1.2756126958617955,-14.27145281487492,116.02199273283611,-120.59535721432857,-115.27414772727275,83.43925343350159,15.961748633879768,12.02057613168723,-11.739495798319325,8.466666666666669,-7.398058252427198,4.747663551401875,-5.5657370517928335,-1.4941176470588218,8.424257966654215,21.644041328389296,16.53019387056469,272.2603067589123,43.85635274785761,3948.1326609308835,0
-34.04351610095736,-1.2756126958617955,-14.27145281487492,116.02199273283611,-120.59535721432857,-115.27414772727275,83.43925343350159,10.409836065573757,10.975308641975296,24.54621848739496,-13.44705882352941,1.2330097087378498,18.990654205607484,-0.5059760956175348,0.4980392156862763,10.075762655515321,80.38052713991536,16.53019387056469,272.2603067589123,43.85635274785761,3948.1326609308835,0
-34.04351610095736,-1.2756126958617955,-14.27145281487492,116.02199273283611,-120.59535721432857,-115.27414772727275,83.43925343350159,11.797814207650259,2.6131687242798236,-18.14285714285714,-4.482352941176469,-22.194174757281566,15.42990654205608,12.649402390438242,11.454901960784316,12.345572333315488,42.55030613970432,16.53019387056469,272.2603067589123,43.85635274785761,3948.1326609308835,0
-34.52248331882797,-2.3981518682201717,-14.252711576772654,115.24478867852366,-120.5445267160296,-115.68648538961037,83.43925343350159,11.797814207650259,2.6131687242798236,-18.14285714285714,-4.482352941176469,-22.194174757281566,15.42990654205608,12.649402390438242,11.454901960784316,12.345572333315488,42.55030613970432,17.057782254606934,263.8944839178616,43.96521737450549,3845.7156104343658,0
-34.52248331882797,-2.3981518682201717,-14.252711576772654,115.24478867852366,-120.5445267160296,-115.68648538961037,83.43925343350159,4.857923497267746,18.292181069958836,36.285714285714285,-4.482352941176469,-3.699029126213606,-4.747663551401864,-4.553784860557774,-12.450980392156861,11.17120371555593,129.79550191937582,17.057782254606934,263.8944839178616,43.96521737450549,3845.7156104343658,0
-34.52248331882797,-2.3981518682201717,-14.252711576772654,115.24478867852366,-120.5445267160296,-115.68648538961037,83.43925343350159,9.021857923497254,-3.6584362139917808,16.008403361344538,19.423529411764708,12.330097087378626,17.803738317757016,8.601593625498003,9.462745098039218,12.038800129908893,28.770604332811835,17.057782254606934,263.8944839178616,43.96521737450549,3845.7156104343658,0
-34.63301421525966,-1.5817597428686252,-14.365159005386245,114.56473513100019,-120.5445267160296,-116.04728084415586,83.43925343350159,9.021857923497254,-3.6584362139917808,16.008403361344538,19.423529411764708,12.330097087378626,17.803738317757016,8.601593625498003,9.462745098039218,12.038800129908893,28.770604332811835,16.859977654504842,277.7644456186795,43.50388462641835,3828.087180002131,0
-34.63301421525966,-1.5817597428686252,-14.365159005386245,114.56473513100019,-120.5445267160296,-116.04728084415586,83.43925343350159,6.245901639344249,4.703703703703692,-23.478991596638654,3.4862745098039234,-6.165048543689334,23.73831775700935,-13.661354581673312,-4.482352941176469,10.745243159129874,72.73013116528409,16.859977654504842,277.7644456186795,43.50388462641835,3828.087180002131,0
-34.63301421525966,-1.5817597428686252,-14.365159005386245,114.56473513100019,-120.5445267160296,-116.04728084415586,83.43925343350159,9.021857923497254,1.5679012345678895,-21.34453781512605,3.4862745098039234,2.4660194174757137,22.551401869158884,0.505976095617525,0.4980392156862763,7.680251010116689,84.97951820662352,16.859977654504842,277.7644456186795,43.50388462641835,3828.087180002131,0
-34.26457789382072,0.35717155484129837,-14.102781671954531,113.98183209026587,-120.44286571943164,-116.35653409090907,83.52870055170797,9.021857923497254,1.5679012345678895,-21.34453781512605,3.4862745098039234,2.4660194174757137,22.551401869158884,0.505976095617525,0.4980392156862763,7.680251010116689,84.97951820662352,16.24151037353885,302.37563484985156,42.81392843902057,3845.888331957622,0
-34.26457789382072,0.35717155484129837,-14.102781671954531,113.98183209026587,-120.44286571943164,-116.35653409090907,83.52870055170797,7.633879781420751,-9.930041152263385,1.067226890756304,7.4705882352941195,1.2330097087378498,18.990654205607484,3.5418326693227042,0.4980392156862763,6.29565898238611,38.81511503673541,16.24151037353885,302.37563484985156,42.81392843902057,3845.888331957622,0
-34.26457789382072,0.35717155484129837,-14.102781671954531,113.98183209026587,-120.44286571943164,-116.35653409090907,83.52870055170797,14.573770491803264,27.69958847736624,20.27731092436975,-18.427450980392155,-17.26213592233011,18.990654205607484,-3.541832669322714,-1.4941176470588218,15.283357664781319,76.4510505718813,16.24151037353885,302.37563484985156,42.81392843902057,3845.888331957622,0
-34.70670147954744,0.5612695861791854,-13.671733195602433,113.49607955632052,-120.59535721432857,-116.69155844155847,83.6777790820519,14.573770491803264,27.69958847736624,20.27731092436975,-18.427450980392155,-17.26213592233011,18.990654205607484,-3.541832669322714,-1.4941176470588218,15.283357664781319,76.4510505718813,16.313234753776353,314.81300699761766,42.57636077936738,3815.1759475650924,0
-34.70670147954744,0.5612695861791854,-13.671733195602433,113.49607955632052,-120.59535721432857,-116.69155844155847,83.6777790820519,6.245901639344249,0.5226337448559555,-1.0672268907563014,10.458823529411767,-12.330097087378654,16.61682242990655,4.553784860557764,4.482352941176472,7.034705390423464,31.841754718811394,16.313234753776353,314.81300699761766,42.57636077936738,3815.1759475650924,0
-34.70670147954744,0.5612695861791854,-13.671733195602433,113.49607955632052,-120.59535721432857,-116.69155844155847,83.6777790820519,11.797814207650259,6.79423868312756,-26.68067226890756,-1.4941176470588218,-16.029126213592246,-18.99065420560747,-6.577689243027893,1.4941176470588253,11.232303764503829,79.02854205861082,16.313234753776353,314.81300699761766,42.57636077936738,3815.1759475650924,0
-35.996228604583706,-0.7653676175170787,-13.934110529034145,113.10747752916433,-121.0020012007204,-116.94926948051949,83.61814766991432,11.797814207650259,6.79423868312756,-26.68067226890756,-1.4941176470588218,-16.029126213592246,-18.99065420560747,-6.577689243027893,1.4941176470588253,11.232303764503829,79.02854205861082,16.898568917044976,316.89440162318914,42.60231855857185,3771.587028568795,0
-35.996228604583706,-0.7653676175170787,-13.934110529034145,113.10747752916433,-121.0020012007204,-116.94926948051949,83.61814766991432,20.125683060109274,37.106995884773646,24.54621848739496,0.4980392156862763,11.097087378640762,24.92523364485982,1.5179282868525847,3.4862745098039234,15.412932558515156,177.59143766785039,16.898568917044976,316.89440162318914,42.60231855857185,3771.587028568795,0
-35.996228604583706,-0.7653676175170787,-13.934110529034145,113.10747752916433,-121.0020012007204,-116.94926948051949,83.61814766991432,9.021857923497254,0.5226337448559555,-36.285714285714285,5.4784313725490215,3.6990291262135777,26.112149532710287,-4.553784860557774,-2.490196078431371,11.02047461556619,168.45595067043138,16.898568917044976,316.89440162318914,42.60231855857185,3771.587028568795,0
-35.33304322599363,-0.5612695861791916,-14.084040433852268,112.76745075540259,-121.35781468881325,-117.18120941558442,83.61814766991432,9.021857923497254,0.5226337448559555,-36.285714285714285,5.4784313725490215,3.6990291262135777,26.112149532710287,-4.553784860557774,-2.490196078431371,11.02047461556619,168.45595067043138,16.659451082008363,307.2436155196004,42.47092025847802,3751.9179827784546,0
-35.33304322599363,-0.5612695861791916,-14.084040433852268,112.76745075540259,-121.35781468881325,-117.18120941558442,83.61814766991432,9.021857923497254,3.6584362139917577,-44.8235294117647,0.4980392156862763,-11.09708737864079,11.869158878504678,-4.553784860557774,-2.490196078431371,11.001511245134326,203.83846061920465,16.659451082008363,307.2436155196004,42.47092025847802,3751.9179827784546,0
-35.33304322599363,-0.5612695861791916,-14.084040433852268,112.76745075540259,-121.35781468881325,-117.18120941558442,83.61814766991432,10.409836065573757,7.839506172839494,-16.008403361344534,-4.482352941176469,-25.893203883495158,8.308411214953276,-18.72111553784861,-10.458823529411763,12.765206588330383,48.847696706103655,16.659451082008363,307.2436155196004,42.47092025847802,3751.9179827784546,0
-34.301421525964614,-0.051024507834474875,-13.784180624216024,112.2816982214573,-121.4594756854112,-117.51623376623377,83.79704190632705,10.409836065573757,7.839506172839494,-16.008403361344534,-4.482352941176469,-25.893203883495158,8.308411214953276,-18.72111553784861,-10.458823529411763,12.765206588330383,48.847696706103655,16.045542219338373,297.10774117280516,42.038967784502596,3747.6807786582385,0
-34.301421525964614,-0.051024507834474875,-13.784180624216024,112.2816982214573,-121.4594756854112,-117.51623376623377,83.79704190632705,-2.0819672131147673,-18.292181069958858,-30.94957983193277,-1.4941176470588218,7.39805825242717,18.990654205607484,-5.5657370517928335,-6.474509803921567,11.405850634476785,106.65326353073738,16.045542219338373,297.10774117280516,42.038967784502596,3747.6807786582385,0
-34.301421525964614,-0.051024507834474875,-13.784180624216024,112.2816982214573,-121.4594756854112,-117.51623376623377,83.79704190632705,3.4699453551912427,-3.6584362139917808,-11.739495798319325,-24.40392156862745,-11.09708737864079,23.73831775700935,2.5298804780876445,1.4941176470588253,10.266400274615801,87.26939857655451,16.045542219338373,297.10774117280516,42.038967784502596,3747.6807786582385,0
-34.81723237597912,2.1940538368822784,-13.40935586217072,111.84452094090653,-121.56113668200916,-117.85125811688312,84.00575184880856,3.4699453551912427,-3.6584362139917808,-11.739495798319325,-24.40392156862745,-11.09708737864079,23.73831775700935,2.5298804780876445,1.4941176470588253,10.266400274615801,87.26939857655451,16.80688069167737,345.2664796995524,42.48264354665318,3639.748276621186,0
-34.81723237597912,2.1940538368822784,-13.40935586217072,111.84452094090653,-121.56113668200916,-117.85125811688312,84.00575184880856,14.573770491803264,19.33744855967077,30.949579831932773,6.4745098039215705,-11.09708737864079,8.308411214953276,7.589641434262944,6.4745098039215705,13.10061981488837,72.11636219338091,16.80688069167737,345.2664796995524,42.48264354665318,3639.748276621186,0
-34.81723237597912,2.1940538368822784,-13.40935586217072,111.84452094090653,-121.56113668200916,-117.85125811688312,84.00575184880856,3.4699453551912427,-6.794238683127583,-3.201680672268906,29.3843137254902,1.2330097087378498,-33.23364485981308,-18.72111553784861,-21.415686274509802,14.68170435212341,160.36836571871189,16.80688069167737,345.2664796995524,42.48264354665318,3639.748276621186,0
-35.81201044386424,1.4797107271996754,-13.428097100272986,111.4073436603557,-121.76445867520508,-118.13474025974028,84.03556755487736,3.4699453551912427,-6.794238683127583,-3.201680672268906,29.3843137254902,1.2330097087378498,-33.23364485981308,-18.72111553784861,-21.415686274509802,14.68170435212341,160.36836571871189,16.90660609044563,352.32579644910567,42.105050495942784,3637.7968626147367,0
-35.81201044386424,1.4797107271996754,-13.428097100272986,111.4073436603557,-121.76445867520508,-118.13474025974028,84.03556755487736,7.633879781420751,-5.748971193415649,-28.815126050420165,6.4745098039215705,1.2330097087378498,15.42990654205608,2.5298804780876445,3.4862745098039234,8.918944758482954,83.61909799902381,16.90660609044563,352.32579644910567,42.105050495942784,3637.7968626147367,0
-35.81201044386424,1.4797107271996754,-13.428097100272986,111.4073436603557,-121.76445867520508,-118.13474025974028,84.03556755487736,3.4699453551912427,-10.975308641975317,-35.21848739495798,-7.470588235294116,-9.864077669902926,33.23364485981309,-4.553784860557774,3.4862745098039234,13.534013940937047,171.13706316527805,16.90660609044563,352.32579644910567,42.105050495942784,3637.7968626147367,0
-35.40673049028141,0.05102450783446866,-13.521803290784312,111.01874163319951,-122.06944166499898,-118.4182224025974,84.09519896701494,3.4699453551912427,-10.975308641975317,-35.21848739495798,-7.470588235294116,-9.864077669902926,33.23364485981309,-4.553784860557774,3.4862745098039234,13.534013940937047,171.13706316527805,16.326519429633397,320.0706804141097,41.53052314393943,3666.8248518631526,0
-35.40673049028141,0.05102450783446866,-13.521803290784312,111.01874163319951,-122.06944166499898,-118.4182224025974,84.09519896701494,15.961748633879768,14.111111111111098,-92.84873949579831,-9.462745098039214,-30.825242718446614,3.560747663551407,-1.5179282868525945,-0.49803921568627274,21.09828777792066,938.3796473756771,16.326519429633397,320.0706804141097,41.53052314393943,3666.8248518631526,0
-35.40673049028141,0.05102450783446866,-13.521803290784312,111.01874163319951,-122.06944166499898,-118.4182224025974,84.09519896701494,22.90163934426228,47.55967078189299,55.49579831932773,4.482352941176472,1.2330097087378498,23.73831775700935,0.505976095617525,7.4705882352941195,20.42341914791479,452.92111917991707,16.326519429633397,320.0706804141097,41.53052314393943,3666.8248518631526,0
-34.22773426167683,0.4592205705102419,-13.615509481295637,110.43583859246513,-122.06944166499898,-118.75324675324674,84.21446179129006,22.90163934426228,47.55967078189299,55.49579831932773,4.482352941176472,1.2330097087378498,23.73831775700935,0.505976095617525,7.4705882352941195,20.42341914791479,452.92111917991707,16.10082143782757,304.3577786597256,41.50352288142367,3607.020096441034,0
-34.22773426167683,0.4592205705102419,-13.615509481295637,110.43583859246513,-122.06944166499898,-118.75324675324674,84.21446179129006,7.633879781420751,-4.703703703703715,10.672268907563026,13.447058823529414,-1.4210854715202004e-14,10.682242990654212,-4.553784860557774,-1.4941176470588218,6.648382089310966,22.656206836475633,16.10082143782757,304.3577786597256,41.50352288142367,3607.020096441034,0
-34.22773426167683,0.4592205705102419,-13.615509481295637,110.43583859246513,-122.06944166499898,-118.75324675324674,84.21446179129006,9.021857923497254,4.703703703703692,-21.34453781512605,0.4980392156862763,-4.93203883495147,21.364485981308416,-0.5059760956175348,0.4980392156862763,7.85858484819712,78.08108045427106,16.10082143782757,304.3577786597256,41.50352288142367,3607.020096441034,0
-35.03829416884248,0.7653676175170716,-13.315649671659395,109.95008605851984,-122.27276365819489,-119.11404220779224,84.3933560277028,9.021857923497254,4.703703703703692,-21.34453781512605,0.4980392156862763,-4.93203883495147,21.364485981308416,-0.5059760956175348,0.4980392156862763,7.85858484819712,78.08108045427106,16.373103819339647,325.34175486018466,41.343701115898774,3569.5044360809597,0
-35.03829416884248,0.7653676175170716,-13.315649671659395,109.95008605851984,-122.27276365819489,-119.11404220779224,84.3933560277028,7.633879781420751,4.703703703703692,6.403361344537817,-0.49803921568627274,-8.631067961165062,30.859813084112155,-3.541832669322714,2.4901960784313744,8.095236729797481,91.85117426141596,16.373103819339647,325.34175486018466,41.343701115898774,3569.5044360809597,0
-35.03829416884248,0.7653676175170716,-13.315649671659395,109.95008605851984,-122.27276365819489,-119.11404220779224,84.3933560277028,9.021857923497254,8.884773662551428,18.142857142857142,4.482352941176472,6.165048543689306,30.859813084112155,6.5776892430278835,10.458823529411767,11.824152008790426,76.2988833336685,16.373103819339647,325.34175486018466,41.343701115898774,3569.5044360809597,0
-35.922541340295915,1.9899558055443922,-13.315649671659395,109.51290877796902,-122.37442465479285,-119.39752435064935,84.4231717337716,9.021857923497254,8.884773662551428,18.142857142857142,4.482352941176472,6.165048543689306,30.859813084112155,6.5776892430278835,10.458823529411767,11.824152008790426,76.2988833336685,17.076048939166565,363.7817582957712,41.606171418390936,3490.561569504277,0
-35.922541340295915,1.9899558055443922,-13.315649671659395,109.51290877796902,-122.37442465479285,-119.39752435064935,84.4231717337716,7.633879781420751,6.79423868312756,-14.941176470588234,-21.415686274509802,-9.864077669902926,9.495327102803744,-16.69721115537849,-16.435294117647057,12.90961140692232,27.060093925720576,17.076048939166565,363.7817582957712,41.606171418390936,3490.561569504277,0
-35.922541340295915,1.9899558055443922,-13.315649671659395,109.51290877796902,-122.37442465479285,-119.39752435064935,84.4231717337716,15.961748633879768,20.3827160493827,20.27731092436975,0.4980392156862763,6.165048543689306,18.990654205607484,5.565737051792824,5.4784313725490215,11.664960749619642,64.67469285713558,17.076048939166565,363.7817582957712,41.606171418390936,3490.561569504277,0
-37.02785030461271,1.4797107271996754,-13.465579576477516,109.22145725760186,-122.83189913948365,-119.55215097402595,84.27409320342764,15.961748633879768,20.3827160493827,20.27731092436975,0.4980392156862763,6.165048543689306,18.990654205607484,5.565737051792824,5.4784313725490215,11.664960749619642,64.67469285713558,17.3243802027633,376.8957601243134,41.38891585375968,3486.855517995995,0
-37.02785030461271,1.4797107271996754,-13.465579576477516,109.22145725760186,-122.83189913948365,-119.55215097402595,84.27409320342764,2.0819672131147406,-10.975308641975317,6.403361344537817,-3.48627450980392,-6.165048543689334,15.42990654205608,-0.5059760956175348,2.4901960784313744,5.942254871153265,25.43041683722533,17.3243802027633,376.8957601243134,41.38891585375968,3486.855517995995,0
-37.02785030461271,1.4797107271996754,-13.465579576477516,109.22145725760186,-122.83189913948365,-119.55215097402595,84.27409320342764,7.633879781420751,-13.065843621399189,-34.15126050420168,4.482352941176472,1.2330097087378498,16.61682242990655,0.505976095617525,0.4980392156862763,9.773398037268286,132.76873627010136,17.3243802027633,376.8957601243134,41.38891585375968,3486.855517995995,0
-35.81201044386424,2.500200883889109,-13.596768243193372,108.88143048384012,-122.98439063438059,-119.7325487012987,84.30390890949644,7.633879781420751,-13.065843621399189,-34.15126050420168,4.482352941176472,1.2330097087378498,16.61682242990655,0.505976095617525,0.4980392156862763,9.773398037268286,132.76873627010136,17.302993190315572,370.0758229891911,41.6594665369742,3419.8777794452,0
-35.81201044386424,2.500200883889109,-13.596768243193372,108.88143048384012,-122.98439063438059,-119.7325487012987,84.30390890949644,10.409836065573757,10.975308641975296,39.48739495798319,28.38823529411765,-8.631067961165062,10.682242990654212,0.505976095617525,-3.48627450980392,14.070792064611327,173.0123724293035,17.302993190315572,370.0758229891911,41.6594665369742,3419.8777794452,0
-35.81201044386424,2.500200883889109,-13.596768243193372,108.88143048384012,-122.98439063438059,-119.7325487012987,84.30390890949644,2.0819672131147406,-3.6584362139917808,-30.94957983193277,4.482352941176472,-22.194174757281566,14.242990654205613,0.505976095617525,-1.4941176470588218,9.95119941929741,128.7726198421307,17.302993190315572,370.0758229891911,41.6594665369742,3419.8777794452,0
-36.32782129387874,1.0715146645239022,-13.95285176713641,108.44425320328935,-123.23854312587548,-119.99025974025972,84.24427749735887,2.0819672131147406,-3.6584362139917808,-30.94957983193277,4.482352941176472,-22.194174757281566,14.242990654205613,0.505976095617525,-1.4941176470588218,9.95119941929741,128.7726198421307,17.117395908513018,354.18019635415305,41.15620654498322,3437.243128705572,0
-36.32782129387874,1.0715146645239022,-13.95285176713641,108.44425320328935,-123.23854312587548,-119.99025974025972,84.24427749735887,4.857923497267746,-10.975308641975317,-44.8235294117647,-5.478431372549018,3.6990291262135777,18.990654205607484,-12.64940239043825,-0.49803921568627274,12.746539732687797,202.57254371374276,17.117395908513018,354.18019635415305,41.15620654498322,3437.243128705572,0
-36.32782129387874,1.0715146645239022,-13.95285176713641,108.44425320328935,-123.23854312587548,-119.99025974025972,84.24427749735887,27.06557377049179,42.333333333333314,-20.277310924369747,-2.490196078431371,2.4660194174757137,10.682242990654212,8.601593625498003,10.458823529411767,15.546886708708241,187.42104119981488,17.117395908513018,354.18019635415305,41.15620654498322,3437.243128705572,0
-36.843632143893245,3.418642024909599,-13.896628052829616,108.2985274431058,-123.59435661396836,-120.09334415584414,84.15483037915251,27.06557377049179,42.333333333333314,-20.277310924369747,-2.490196078431371,2.4660194174757137,10.682242990654212,8.601593625498003,10.458823529411767,15.546886708708241,187.42104119981488,18.05296740721082,407.90571597736516,41.87126584028167,3336.8828608378467,0
-36.843632143893245,3.418642024909599,-13.896628052829616,108.2985274431058,-123.59435661396836,-120.09334415584414,84.15483037915251,13.185792349726762,8.884773662551428,-17.075630252100837,-23.4078431372549,-7.398058252427198,17.803738317757016,1.5179282868525847,-1.4941176470588218,11.345985238216194,62.67120019769574,18.05296740721082,407.90571597736516,41.87126584028167,3336.8828608378467,0
-36.843632143893245,3.418642024909599,-13.896628052829616,108.2985274431058,-123.59435661396836,-120.09334415584414,84.15483037915251,4.857923497267746,2.6131687242798236,-5.336134453781511,-10.458823529411763,-13.563106796116518,17.803738317757016,-10.625498007968133,-6.474509803921567,8.966612891313009,25.834238177461298,18.05296740721082,407.90571597736516,41.87126584028167,3336.8828608378467,0
-36.217290397447066,4.643230212936919,-14.009075481443206,108.15280168292219,-123.69601761056632,-120.17065746753246,84.09519896701494,4.857923497267746,2.6131687242798236,-5.336134453781511,-10.458823529411763,-13.563106796116518,17.803738317757016,-10.625498007968133,-6.474509803921567,8.966612891313009,25.834238177461298,18.289865363942397,418.449243670606,42.268369125767435,3277.498604432105,0
-36.217290397447066,4.643230212936919,-14.009075481443206,108.15280168292219,-123.69601761056632,-120.17065746753246,84.09519896701494,10.409836065573757,15.156378600823032,4.268907563025211,9.462745098039218,9.864077669902898,3.560747663551407,-12.64940239043825,-9.462745098039214,9.354355018674124,15.049404439947052,18.289865363942397,418.449243670606,42.268369125767435,3277.498604432105,0
-36.217290397447066,4.643230212936919,-14.009075481443206,108.15280168292219,-123.69601761056632,-120.17065746753246,84.09519896701494,7.633879781420751,0.5226337448559555,-10.672268907563023,4.482352941176472,-9.864077669902926,13.056074766355145,-2.5298804780876543,-0.49803921568627274,6.157400938131024,23.3769774923122,18.289865363942397,418.449243670606,42.268369125767435,3277.498604432105,0
-35.59094865100088,4.235034150261146,-14.365159005386245,107.81277490916045,-123.59435661396836,-120.27374188311688,84.00575184880856,7.633879781420751,0.5226337448559555,-10.672268907563023,4.482352941176472,-9.864077669902926,13.056074766355145,-2.5298804780876543,-0.49803921568627274,6.157400938131024,23.3769774923122,18.063713935549426,397.10170626561523,42.137656021602616,3260.5707880662476,0
-35.59094865100088,4.235034150261146,-14.365159005386245,107.81277490916045,-123.59435661396836,-120.27374188311688,84.00575184880856,7.633879781420751,-1.5679012345679126,2.1344537815126063,17.43137254901961,8.631067961165034,10.682242990654212,-3.541832669322714,-1.4941176470588218,6.639608576840208,31.40721084569092,18.063713935549426,397.10170626561523,42.137656021602616,3260.5707880662476,0
-35.59094865100088,4.235034150261146,-14.365159005386245,107.81277490916045,-123.59435661396836,-120.27374188311688,84.00575184880856,13.185792349726762,16.201646090534965,-23.478991596638654,-5.478431372549018,2.4660194174757137,8.308411214953276,-0.5059760956175348,0.4980392156862763,8.765413419147775,68.36999098814812,18.063713935549426,397.10170626561523,42.137656021602616,3260.5707880662476,0
-35.443574122425304,4.541181197267976,-14.42138271969304,107.42417288200426,-123.34020412247347,-120.3768262987013,83.94612043667098,13.185792349726762,16.201646090534965,-23.478991596638654,-5.478431372549018,2.4660194174757137,8.308411214953276,-0.5059760956175348,0.4980392156862763,8.765413419147775,68.36999098814812,18.135379346462106,400.0486699422804,42.128912266321755,3222.0078896833566,0
-35.443574122425304,4.541181197267976,-14.42138271969304,107.42417288200426,-123.34020412247347,-120.3768262987013,83.94612043667098,11.797814207650259,7.839506172839494,-18.14285714285714,-13.44705882352941,-17.26213592233011,10.682242990654212,3.5418326693227042,5.4784313725490215,11.023984912716543,27.579489635568716,18.135379346462106,400.0486699422804,42.128912266321755,3222.0078896833566,0
-35.443574122425304,4.541181197267976,-14.42138271969304,107.42417288200426,-123.34020412247347,-120.3768262987013,83.94612043667098,11.797814207650259,8.884773662551428,7.4705882352941195,0.4980392156862763,-2.466019417475742,16.61682242990655,1.5179282868525847,1.4941176470588253,6.343262887809473,34.14657364364042,18.135379346462106,400.0486699422804,42.128912266321755,3222.0078896833566,0
-37.17522483318829,4.643230212936919,-14.27145281487492,107.22987186842613,-123.59435661396836,-120.47991071428572,83.82685761239583,11.797814207650259,8.884773662551428,7.4705882352941195,0.4980392156862763,-2.466019417475742,16.61682242990655,1.5179282868525847,1.4941176470588253,6.343262887809473,34.14657364364042,18.69663595366671,438.5218648590438,42.04818496541265,3209.6648982599763,0
-37.17522483318829,4.643230212936919,-14.27145281487492,107.22987186842613,-123.59435661396836,-120.47991071428572,83.82685761239583,11.797814207650259,10.975308641975296,-7.470588235294116,-11.454901960784312,-13.563106796116518,23.73831775700935,3.5418326693227042,-0.49803921568627274,10.379988685479853,49.28216915789705,18.69663595366671,438.5218648590438,42.04818496541265,3209.6648982599763,0
-37.17522483318829,4.643230212936919,-14.27145281487492,107.22987186842613,-123.59435661396836,-120.47991071428572,83.82685761239583,7.633879781420751,-1.5679012345679126,-10.672268907563023,3.4862745098039234,-3.699029126213606,26.112149532710287,-3.541832669322714,-6.474509803921567,7.8984806956904725,62.526987934826494,18.69663595366671,438.5218648590438,42.04818496541265,3209.6648982599763,0
-37.17522483318829,2.6022498995580525,-14.440123957795306,107.035570854848,-124.00100060036019,-120.60876623376623,83.7075947881207,7.633879781420751,-1.5679012345679126,-10.672268907563023,3.4862745098039234,-3.699029126213606,26.112149532710287,-3.541832669322714,-6.474509803921567,7.8984806956904725,62.526987934826494,18.072532896847218,398.2624691037283,41.35931490406712,3270.061762339032,0
-37.17522483318829,2.6022498995580525,-14.440123957795306,107.035570854848,-124.00100060036019,-120.60876623376623,83.7075947881207,22.90163934426228,32.92592592592591,51.226890756302524,-2.490196078431371,-12.330097087378654,18.990654205607484,8.601593625498003,13.447058823529414,20.364256980866955,241.26577742598724,18.072532896847218,398.2624691037283,41.35931490406712,3270.061762339032,0
-37.17522483318829,2.6022498995580525,-14.440123957795306,107.035570854848,-124.00100060036019,-120.60876623376623,83.7075947881207,7.633879781420751,17.2469135802469,21.344537815126053,-19.423529411764704,-18.495145631067974,8.308411214953276,-18.72111553784861,-15.439215686274508,15.826593582337846,26.385154195528497,18.072532896847218,398.2624691037283,41.35931490406712,3270.061762339032,0
-35.922541340295915,3.418642024909599,-14.327676529181714,106.74411933448079,-124.10266159695814,-120.78916396103898,83.7075947881207,7.633879781420751,17.2469135802469,21.344537815126053,-19.423529411764704,-18.495145631067974,8.308411214953276,-18.72111553784861,-15.439215686274508,15.826593582337846,26.385154195528497,17.889619964795745,388.1664528347178,41.49681262952404,3222.66003264187,0
-35.922541340295915,3.418642024909599,-14.327676529181714,106.74411933448079,-124.10266159695814,-120.78916396103898,83.7075947881207,3.4699453551912427,8.884773662551428,-46.95798319327731,5.4784313725490215,-7.398058252427198,15.42990654205608,-5.5657370517928335,-0.49803921568627274,11.710359330691421,221.8605354640404,17.889619964795745,388.1664528347178,41.49681262952404,3222.66003264187,0
-35.922541340295915,3.418642024909599,-14.327676529181714,106.74411933448079,-124.10266159695814,-120.78916396103898,83.7075947881207,-0.6939890710382652,-17.246913580246925,-22.41176470588235,0.4980392156862763,1.2330097087378498,3.560747663551407,-4.553784860557774,-0.49803921568627274,6.337036002673391,73.48470332227528,17.889619964795745,388.1664528347178,41.49681262952404,3222.66003264187,0
-35.922541340295915,4.235034150261146,-14.308935291079449,106.30694205393002,-124.05183109865916,-120.96956168831167,83.6777790820519,-0.6939890710382652,-17.246913580246925,-22.41176470588235,0.4980392156862763,1.2330097087378498,3.560747663551407,-4.553784860557774,-0.49803921568627274,6.337036002673391,73.48470332227528,18.155503593878837,403.94293972864824,41.616970498423534,3163.9651859379223,0
-35.922541340295915,4.235034150261146,-14.308935291079449,106.30694205393002,-124.05183109865916,-120.96956168831167,83.6777790820519,14.573770491803264,8.884773662551428,-20.277310924369747,-5.478431372549018,-1.2330097087378782,13.056074766355145,-3.541832669322714,0.4980392156862763,8.442905351421933,49.57562211280065,18.155503593878837,403.94293972864824,41.616970498423534,3163.9651859379223,0
-36.95416304032493,4.847328244274806,-14.177746624363593,106.11264104035189,-124.25515309185508,-121.09841720779224,83.61814766991432,14.573770491803264,8.884773662551428,-20.277310924369747,-5.478431372549018,-1.2330097087378782,13.056074766355145,-3.541832669322714,0.4980392156862763,8.442905351421933,49.57562211280065,18.65974596965444,438.01388202117283,41.71257196966343,3132.290849018958,0
-36.95416304032493,4.847328244274806,-14.177746624363593,106.11264104035189,-124.25515309185508,-121.09841720779224,83.61814766991432,3.4699453551912427,-5.748971193415649,-27.747899159663863,3.4862745098039234,-3.699029126213606,-9.495327102803735,-5.5657370517928335,-1.4941176470588218,7.588412643242959,71.93900378129293,18.65974596965444,438.01388202117283,41.71257196966343,3132.290849018958,0
-36.95416304032493,4.847328244274806,-14.177746624363593,106.11264104035189,-124.25515309185508,-121.09841720779224,83.61814766991432,9.021857923497254,0.5226337448559555,-1.0672268907563014,-7.470588235294116,-29.59223300970875,-1.1869158878504624,-1.5179282868525945,-4.482352941176469,6.857717114998988,94.5562962864184,18.65974596965444,438.01388202117283,41.71257196966343,3132.290849018958,0
-37.46997389033943,6.071916432302126,-14.065299195750002,106.16121629374646,-124.61096657994793,-121.07264610389609,83.49888484563917,9.021857923497254,0.5226337448559555,-1.0672268907563014,-7.470588235294116,-29.59223300970875,-1.1869158878504624,-1.5179282868525945,-4.482352941176469,6.857717114998988,94.5562962864184,19.20239650613052,474.86374394652796,42.0994773072662,3093.9033434796906,0
-37.46997389033943,6.071916432302126,-14.065299195750002,106.16121629374646,-124.61096657994793,-121.07264610389609,83.49888484563917,9.021857923497254,-1.5679012345679126,1.067226890756304,-1.4941176470588218,-28.359223300970886,16.61682242990655,-1.5179282868525945,0.4980392156862763,7.5178896161620745,102.57010920744561,19.20239650613052,474.86374394652796,42.0994773072662,3093.9033434796906,0
-37.46997389033943,6.071916432302126,-14.065299195750002,106.16121629374646,-124.61096657994793,-121.07264610389609,83.49888484563917,6.245901639344249,-0.5226337448559786,-27.747899159663863,2.4901960784313744,-3.699029126213606,17.803738317757016,5.565737051792824,2.4901960784313744,8.320666399561285,89.91398899195856,19.20239650613052,474.86374394652796,42.0994773072662,3093.9033434796906,0
-37.02785030461271,5.1534752912816355,-14.102781671954531,106.06406578695737,-124.81428857314384,-121.09841720779224,83.34980631529524,6.245901639344249,-0.5226337448559786,-27.747899159663863,2.4901960784313744,-3.699029126213606,17.803738317757016,5.565737051792824,2.4901960784313744,8.320666399561285,89.91398899195856,18.76136908928296,445.9377388455202,41.77344091673118,3119.9858558268984,0
-37.02785030461271,5.1534752912816355,-14.102781671954531,106.06406578695737,-124.81428857314384,-121.09841720779224,83.34980631529524,7.633879781420751,2.6131687242798236,13.873949579831933,-6.474509803921567,-11.09708737864079,23.73831775700935,2.5298804780876445,-0.49803921568627274,8.557354089859768,58.14078140076015,18.76136908928296,445.9377388455202,41.77344091673118,3119.9858558268984,0
-37.02785030461271,5.1534752912816355,-14.102781671954531,106.06406578695737,-124.81428857314384,-121.09841720779224,83.34980631529524,7.633879781420751,13.065843621399164,-12.80672268907563,-12.450980392156861,-18.495145631067974,14.242990654205613,-2.5298804780876543,1.4941176470588253,10.339945111809058,35.18308670883876,18.76136908928296,445.9377388455202,41.77344091673118,3119.9858558268984,0
-37.6541920510589,3.928887103254316,-13.87788681472735,105.91834002677376,-125.2209325595357,-121.2015016233766,83.23054349102009,7.633879781420751,13.065843621399164,-12.80672268907563,-12.450980392156861,-18.495145631067974,14.242990654205613,-2.5298804780876543,1.4941176470588253,10.339945111809058,35.18308670883876,18.486988656346856,435.25772666853294,41.241704648251805,3162.0460217294303,0
-37.6541920510589,3.928887103254316,-13.87788681472735,105.91834002677376,-125.2209325595357,-121.2015016233766,83.23054349102009,6.245901639344249,5.748971193415626,-19.210084033613445,20.419607843137257,1.2330097087378498,9.495327102803744,-1.5179282868525945,2.4901960784313744,8.295128235792017,58.25188329362288,18.486988656346856,435.25772666853294,41.241704648251805,3162.0460217294303,0
-37.6541920510589,3.928887103254316,-13.87788681472735,105.91834002677376,-125.2209325595357,-121.2015016233766,83.23054349102009,9.021857923497254,-1.5679012345679126,16.008403361344538,-10.458823529411763,-1.2330097087378782,8.308411214953276,-2.5298804780876543,4.482352941176472,6.701330048972094,26.75534286446415,18.486988656346856,435.25772666853294,41.241704648251805,3162.0460217294303,0
-36.73310124746157,5.56167135395741,-13.690474433704699,105.67546375980112,-125.47508505103059,-121.38189935064935,83.29017490315766,9.021857923497254,-1.5679012345679126,16.008403361344538,-10.458823529411763,-1.2330097087378782,8.308411214953276,-2.5298804780876543,4.482352941176472,6.701330048972094,26.75534286446415,18.661749011707894,448.40925955220064,41.64253651582107,3091.6811884519593,0
-36.73310124746157,5.56167135395741,-13.690474433704699,105.67546375980112,-125.47508505103059,-121.38189935064935,83.29017490315766,10.409836065573757,2.6131687242798236,-18.14285714285714,6.4745098039215705,3.6990291262135777,23.73831775700935,-2.5298804780876543,-0.49803921568627274,8.513204789203643,70.04535980580096,18.661749011707894,448.40925955220064,41.64253651582107,3091.6811884519593,0
-36.73310124746157,5.56167135395741,-13.690474433704699,105.67546375980112,-125.47508505103059,-121.38189935064935,83.29017490315766,7.633879781420751,7.839506172839494,1.067226890756304,10.458823529411767,18.495145631067945,16.61682242990655,-6.577689243027893,-1.4941176470588218,8.77290141568619,39.74816133066686,18.661749011707894,448.40925955220064,41.64253651582107,3091.6811884519593,0
-37.322599361763864,7.500602651667333,-13.353132147863924,105.52973799961757,-125.62757654592752,-121.48498376623377,83.29017490315766,7.633879781420751,7.839506172839494,1.067226890756304,10.458823529411767,18.495145631067945,16.61682242990655,-6.577689243027893,-1.4941176470588218,8.77290141568619,39.74816133066686,19.392111387098375,503.0888420573779,42.12782426638294,3023.4150241533566,0
-37.322599361763864,7.500602651667333,-13.353132147863924,105.52973799961757,-125.62757654592752,-121.48498376623377,83.29017490315766,9.021857923497254,-4.703703703703715,-22.41176470588235,-2.490196078431371,-25.893203883495158,9.495327102803744,1.5179282868525847,-1.4941176470588218,9.628512416465625,90.7852499716259,19.392111387098375,503.0888420573779,42.12782426638294,3023.4150241533566,0
-37.322599361763864,7.500602651667333,-13.353132147863924,105.52973799961757,-125.62757654592752,-121.48498376623377,83.29017490315766,7.633879781420751,12.02057613168723,32.016806722689076,-3.48627450980392,-11.09708737864079,-14.242990654205602,-10.625498007968133,-14.44313725490196,13.195781305164683,70.64068463528412,19.392111387098375,503.0888420573779,42.12782426638294,3023.4150241533566,0
-37.94894110821004,7.602651667336277,-13.540544528886576,105.6268885064066,-126.03422053231935,-121.48498376623377,83.20072778495131,7.633879781420751,12.02057613168723,32.016806722689076,-3.48627450980392,-11.09708737864079,-14.242990654205602,-10.625498007968133,-14.44313725490196,13.195781305164683,70.64068463528412,19.697379101477633,519.6253622257842,42.25669490087648,3020.65072111059,0
-37.94894110821004,7.602651667336277,-13.540544528886576,105.6268885064066,-126.03422053231935,-121.48498376623377,83.20072778495131,13.185792349726762,20.3827160493827,33.08403361344538,-13.44705882352941,-9.864077669902926,10.682242990654212,-8.601593625498012,-0.49803921568627274,13.718194292228208,92.11883814459527,19.697379101477633,519.6253622257842,42.25669490087648,3020.65072111059,0
-37.94894110821004,7.602651667336277,-13.540544528886576,105.6268885064066,-126.03422053231935,-121.48498376623377,83.20072778495131,10.409836065573757,-0.5226337448559786,-11.739495798319325,5.4784313725490215,-1.4210854715202004e-14,21.364485981308416,3.5418326693227042,3.4862745098039234,7.067873767716643,51.13829113365233,19.697379101477633,519.6253622257842,42.25669490087648,3020.65072111059,0
-37.322599361763864,7.194455604660503,-13.353132147863924,105.86976477337925,-126.54252551530917,-121.48498376623377,83.20072778495131,10.409836065573757,-0.5226337448559786,-11.739495798319325,5.4784313725490215,-1.4210854715202004e-14,21.364485981308416,3.5418326693227042,3.4862745098039234,7.067873767716643,51.13829113365233,19.290062371429432,496.4178173082608,42.13911750863456,3055.678874778433,0
-37.322599361763864,7.194455604660503,-13.353132147863924,105.86976477337925,-126.54252551530917,-121.48498376623377,83.20072778495131,10.409836065573757,20.3827160493827,8.537815126050422,-6.474509803921567,-9.864077669902926,17.803738317757016,-5.5657370517928335,-0.49803921568627274,9.942058662508437,41.91081707923009,19.290062371429432,496.4178173082608,42.13911750863456,3055.678874778433,0
-37.322599361763864,7.194455604660503,-13.353132147863924,105.86976477337925,-126.54252551530917,-121.48498376623377,83.20072778495131,11.797814207650259,0.5226337448559555,-24.546218487394956,1.4941176470588253,-1.2330097087378782,11.869158878504678,3.5418326693227042,7.4705882352941195,7.8094216973524215,66.72368148155336,19.290062371429432,496.4178173082608,42.13911750863456,3055.678874778433,0
-35.84885407600813,4.643230212936919,-13.634250719397903,105.86976477337925,-126.949169501701,-121.61383928571428,83.34980631529524,11.797814207650259,0.5226337448559555,-24.546218487394956,1.4941176470588253,-1.2330097087378782,11.869158878504678,3.5418326693227042,7.4705882352941195,7.8094216973524215,66.72368148155336,18.042111669447653,411.1939669310687,41.38241523523802,3139.173300277702,0
-35.84885407600813,4.643230212936919,-13.634250719397903,105.86976477337925,-126.949169501701,-121.61383928571428,83.34980631529524,13.185792349726762,6.79423868312756,-3.201680672268906,0.4980392156862763,-16.029126213592246,32.04672897196262,-1.5179282868525945,4.482352941176472,9.71948591679918,111.58566694472854,18.042111669447653,411.1939669310687,41.38241523523802,3139.173300277702,0
-35.84885407600813,4.643230212936919,-13.634250719397903,105.86976477337925,-126.949169501701,-121.61383928571428,83.34980631529524,7.633879781420751,1.5679012345678895,-7.470588235294116,7.4705882352941195,-1.2330097087378782,17.803738317757016,-3.541832669322714,-1.4941176470588218,6.026956978681663,30.718643686840355,18.042111669447653,411.1939669310687,41.38241523523802,3139.173300277702,0
-34.26457789382072,5.1534752912816355,-13.390614624068455,105.72403901319569,-126.99999999999997,-121.79423701298703,83.61814766991432,7.633879781420751,1.5679012345678895,-7.470588235294116,7.4705882352941195,-1.2330097087378782,17.803738317757016,-3.541832669322714,-1.4941176470588218,6.026956978681663,30.718643686840355,17.602889269723605,388.8980883798523,41.422709642848595,3117.958335192333,0
-34.26457789382072,5.1534752912816355,-13.390614624068455,105.72403901319569,-126.99999999999997,-121.79423701298703,83.61814766991432,7.633879781420751,3.6584362139917577,-12.80672268907563,6.4745098039215705,20.961165048543673,23.73831775700935,-1.5179282868525945,-1.4941176470588218,9.78563465348427,74.13388552364695,17.602889269723605,388.8980883798523,41.422709642848595,3117.958335192333,0
-34.26457789382072,5.1534752912816355,-13.390614624068455,105.72403901319569,-126.99999999999997,-121.79423701298703,83.61814766991432,11.797814207650259,15.156378600823032,-43.7563025210084,-12.450980392156861,-13.563106796116518,13.056074766355145,-2.5298804780876543,0.4980392156862763,14.101072122235518,172.69865257071254,17.602889269723605,388.8980883798523,41.422709642848595,3117.958335192333,0
-34.117203365245146,7.09240658899156,-13.484320814579782,105.43258749282847,-126.64418651190712,-121.97463474025972,83.82685761239583,11.797814207650259,15.156378600823032,-43.7563025210084,-12.450980392156861,-13.563106796116518,13.056074766355145,-2.5298804780876543,0.4980392156862763,14.101072122235518,172.69865257071254,18.231310256272163,424.55825092846,42.003104965466605,3027.6885821334977,0
-34.117203365245146,7.09240658899156,-13.484320814579782,105.43258749282847,-126.64418651190712,-121.97463474025972,83.82685761239583,10.409836065573757,7.839506172839494,-17.075630252100837,1.4941176470588253,7.39805825242717,16.61682242990655,3.5418326693227042,2.4901960784313744,8.358249945957589,36.33500735184142,18.231310256272163,424.55825092846,42.003104965466605,3027.6885821334977,0
-34.117203365245146,7.09240658899156,-13.484320814579782,105.43258749282847,-126.64418651190712,-121.97463474025972,83.82685761239583,0.6939890710382368,-7.839506172839517,-8.537815126050418,13.447058823529414,-4.93203883495147,13.056074766355145,-5.5657370517928335,-0.49803921568627274,6.821282382780414,24.204225227703933,18.231310256272163,424.55825092846,42.003104965466605,3027.6885821334977,0
-34.44879605454019,6.990357573322616,-13.727956909909228,104.9954102122777,-126.23754252551527,-122.18080357142856,83.97593614273978,0.6939890710382368,-7.839506172839517,-8.537815126050418,13.447058823529414,-4.93203883495147,13.056074766355145,-5.5657370517928335,-0.49803921568627274,6.821282382780414,24.204225227703933,18.38903684592401,429.3008638795634,41.90457489850318,2996.6889366474566,0
-34.44879605454019,6.990357573322616,-13.727956909909228,104.9954102122777,-126.23754252551527,-122.18080357142856,83.97593614273978,3.4699453551912427,-9.930041152263385,-36.285714285714285,2.4901960784313744,-13.563106796116518,2.373831775700939,-0.5059760956175348,0.4980392156862763,8.639606344340194,146.6364273768233,18.38903684592401,429.3008638795634,41.90457489850318,2996.6889366474566,0
-34.44879605454019,6.990357573322616,-13.727956909909228,104.9954102122777,-126.23754252551527,-122.18080357142856,83.97593614273978,11.797814207650259,9.930041152263362,9.605042016806724,6.4745098039215705,-16.029126213592246,8.308411214953276,-6.577689243027893,-0.49803921568627274,8.6525841334877,20.358453162735746,18.38903684592401,429.3008638795634,41.90457489850318,2996.6889366474566,0
-33.74876704380622,5.969867416633183,-13.80292186231829,104.55823293172693,-125.88172903742242,-122.43851461038963,84.27409320342764,11.797814207650259,9.930041152263362,9.605042016806724,6.4745098039215705,-16.029126213592246,8.308411214953276,-6.577689243027893,-0.49803921568627274,8.6525841334877,20.358453162735746,17.840518774252562,394.3949765459513,41.44367407022613,3002.9248406986535,0
-33.74876704380622,5.969867416633183,-13.80292186231829,104.55823293172693,-125.88172903742242,-122.43851461038963,84.27409320342764,4.857923497267746,-0.5226337448559786,-16.008403361344534,4.482352941176472,-2.466019417475742,11.869158878504678,-1.5179282868525945,-0.49803921568627274,5.277807417895502,32.41447961102126,17.840518774252562,394.3949765459513,41.44367407022613,3002.9248406986535,0
-33.74876704380622,5.969867416633183,-13.80292186231829,104.55823293172693,-125.88172903742242,-122.43851461038963,84.27409320342764,9.021857923497254,6.79423868312756,-12.80672268907563,2.4901960784313744,-9.864077669902926,37.98130841121496,1.5179282868525847,-0.49803921568627274,10.12179611972357,145.799247850726,17.840518774252562,394.3949765459513,41.44367407022613,3002.9248406986535,0
-34.00667246881347,6.173965447971069,-14.084040433852268,104.26678141135977,-125.52591554932957,-122.59314123376623,84.4231717337716,9.021857923497254,6.79423868312756,-12.80672268907563,2.4901960784313744,-9.864077669902926,37.98130841121496,1.5179282868525847,-0.49803921568627274,10.12179611972357,145.799247850726,18.088226116878936,403.63028881803245,41.508262431061034,2969.616100020953,0
-34.00667246881347,6.173965447971069,-14.084040433852268,104.26678141135977,-125.52591554932957,-122.59314123376623,84.4231717337716,14.573770491803264,8.884773662551428,-2.1344537815126037,2.4901960784313744,-6.165048543689334,8.308411214953276,2.5298804780876445,4.482352941176472,6.196110899025674,18.355134319751887,18.088226116878936,403.63028881803245,41.508262431061034,2969.616100020953,0
-34.00667246881347,6.173965447971069,-14.084040433852268,104.26678141135977,-125.52591554932957,-122.59314123376623,84.4231717337716,10.409836065573757,6.79423868312756,-4.268907563025209,11.454901960784316,3.6990291262135777,10.682242990654212,-1.5179282868525945,1.4941176470588253,6.290150290411256,17.10948815940171,18.088226116878936,403.63028881803245,41.508262431061034,2969.616100020953,0
-34.66985784740355,6.071916432302126,-14.046557957647737,104.02390514438707,-125.2209325595357,-122.67045454545456,84.45298743984037,10.409836065573757,6.79423868312756,-4.268907563025209,11.454901960784316,3.6990291262135777,10.682242990654212,-1.5179282868525945,1.4941176470588253,6.290150290411256,17.10948815940171,18.262777412451136,414.9942802633929,41.38079317811231,2959.018334478869,0
-34.66985784740355,6.071916432302126,-14.046557957647737,104.02390514438707,-125.2209325595357,-122.67045454545456,84.45298743984037,9.021857923497254,8.884773662551428,-22.41176470588235,-24.40392156862745,-4.93203883495147,17.803738317757016,-4.553784860557774,-2.490196078431371,11.812759494032015,72.86822169960895,18.262777412451136,414.9942802633929,41.38079317811231,2959.018334478869,0
-34.66985784740355,6.071916432302126,-14.046557957647737,104.02390514438707,-125.2209325595357,-122.67045454545456,84.45298743984037,10.409836065573757,10.975308641975296,8.537815126050422,2.4901960784313744,8.631067961165034,13.056074766355145,-5.5657370517928335,-2.490196078431371,7.769528971221904,15.303962107253682,18.262777412451136,414.9942802633929,41.38079317811231,2959.018334478869,0
-36.47519582245432,5.663720369626352,-14.102781671954531,103.829604130809,-125.2209325595357,-122.69622564935065,84.30390890949644,10.409836065573757,10.975308641975296,8.537815126050422,2.4901960784313744,8.631067961165034,13.056074766355145,-5.5657370517928335,-2.490196078431371,7.769528971221904,15.303962107253682,18.747232621345066,444.4879626207504,41.198702057463294,2959.776859806878,0
-36.47519582245432,5.663720369626352,-14.102781671954531,103.829604130809,-125.2209325595357,-122.69622564935065,84.30390890949644,2.0819672131147406,-0.5226337448559786,-6.403361344537814,0.4980392156862763,-18.495145631067974,-2.3738317757009284,-5.5657370517928335,-4.482352941176469,5.052883614741627,34.340022359506754,18.747232621345066,444.4879626207504,41.198702057463294,2959.776859806878,0
-36.47519582245432,5.663720369626352,-14.102781671954531,103.829604130809,-125.2209325595357,-122.69622564935065,84.30390890949644,7.633879781420751,4.703703703703692,-6.403361344537814,4.482352941176472,-4.93203883495147,28.48598130841122,5.565737051792824,3.4862745098039234,8.21166618447477,68.70735118649631,18.747232621345066,444.4879626207504,41.198702057463294,2959.776859806878,0
-37.39628662605165,5.459622338288466,-14.27145281487492,103.829604130809,-125.42425455273161,-122.61891233766232,84.03556755487736,7.633879781420751,4.703703703703692,-6.403361344537814,4.482352941176472,-4.93203883495147,28.48598130841122,5.565737051792824,3.4862745098039234,8.21166618447477,68.70735118649631,19.042453926405013,460.11703310902186,41.186893094657464,2962.4940235561107,0
-37.39628662605165,5.459622338288466,-14.27145281487492,103.829604130809,-125.42425455273161,-122.61891233766232,84.03556755487736,17.34972677595627,12.02057613168723,-9.60504201680672,4.482352941176472,-6.165048543689334,8.308411214953276,-5.5657370517928335,1.4941176470588253,8.123876540390121,24.30342376566722,19.042453926405013,460.11703310902186,41.186893094657464,2962.4940235561107,0
-37.39628662605165,5.459622338288466,-14.27145281487492,103.829604130809,-125.42425455273161,-122.61891233766232,84.03556755487736,7.633879781420751,1.5679012345678895,-18.14285714285714,-8.466666666666665,-14.796116504854382,8.308411214953276,-5.5657370517928335,-2.490196078431371,8.371470709443038,32.29474797390416,19.042453926405013,460.11703310902186,41.186893094657464,2962.4940235561107,0
-35.517261386713095,5.765769385295297,-14.88991367224967,103.5867278638363,-125.17010206123672,-122.61891233766232,83.94612043667098,7.633879781420751,1.5679012345678895,-18.14285714285714,-8.466666666666665,-14.796116504854382,8.308411214953276,-5.5657370517928335,-2.490196078431371,8.371470709443038,32.29474797390416,18.724314814752685,426.07222433828696,41.41413697379375,2919.885795727742,0
-35.517261386713095,5.765769385295297,-14.88991367224967,103.5867278638363,-125.17010206123672,-122.61891233766232,83.94612043667098,14.573770491803264,14.111111111111098,4.268907563025211,2.4901960784313744,-25.893203883495158,14.242990654205613,-0.5059760956175348,1.4941176470588253,9.697534190593512,79.91638941247895,18.724314814752685,426.07222433828696,41.41413697379375,2919.885795727742,0
-35.517261386713095,5.765769385295297,-14.88991367224967,103.5867278638363,-125.17010206123672,-122.61891233766232,83.94612043667098,9.021857923497254,2.6131687242798236,-9.60504201680672,1.4941176470588253,-1.2330097087378782,18.990654205607484,0.505976095617525,0.4980392156862763,5.495233192161473,43.400057591404426,18.724314814752685,426.07222433828696,41.41413697379375,2919.885795727742,0
-34.9277632724108,3.214543993571712,-15.114808529476852,103.14955058328553,-124.86511907144282,-122.74776785714283,83.85667331846463,9.021857923497254,2.6131687242798236,-9.60504201680672,1.4941176470588253,-1.2330097087378782,18.990654205607484,0.505976095617525,0.4980392156862763,5.495233192161473,43.400057591404426,17.752371931819788,363.89232385539293,40.492967702111365,2979.7896077652163,0
-34.9277632724108,3.214543993571712,-15.114808529476852,103.14955058328553,-124.86511907144282,-122.74776785714283,83.85667331846463,13.185792349726762,5.748971193415626,-18.14285714285714,5.4784313725490215,4.932038834951442,11.869158878504678,-0.5059760956175348,1.4941176470588253,7.6696679393351275,37.59887911294435,17.752371931819788,363.89232385539293,40.492967702111365,2979.7896077652163,0
-34.9277632724108,3.214543993571712,-15.114808529476852,103.14955058328553,-124.86511907144282,-122.74776785714283,83.85667331846463,9.021857923497254,5.748971193415626,7.4705882352941195,8.466666666666669,-28.359223300970886,5.934579439252342,-3.541832669322714,-2.490196078431371,8.879239438356372,67.06028767037,17.752371931819788,363.89232385539293,40.492967702111365,2979.7896077652163,0
-34.154046997389045,2.6022498995580525,-15.264738434294973,102.56664754255121,-124.45847508505099,-122.92816558441558,83.82685761239583,9.021857923497254,5.748971193415626,7.4705882352941195,8.466666666666669,-28.359223300970886,5.934579439252342,-3.541832669322714,-2.490196078431371,8.879239438356372,67.06028767037,17.340345110414024,337.8434352817236,40.144545292134744,2962.473790994172,0
-34.154046997389045,2.6022498995580525,-15.264738434294973,102.56664754255121,-124.45847508505099,-122.92816558441558,83.82685761239583,10.409836065573757,16.201646090534965,11.739495798319329,4.482352941176472,3.6990291262135777,15.42990654205608,-0.5059760956175348,-0.49803921568627274,7.870785234397248,40.77715400541582,17.340345110414024,337.8434352817236,40.144545292134744,2962.473790994172,0
-34.154046997389045,2.6022498995580525,-15.264738434294973,102.56664754255121,-124.45847508505099,-122.92816558441558,83.82685761239583,9.021857923497254,3.6584362139917577,19.210084033613448,-12.450980392156861,-1.4210854715202004e-14,17.803738317757016,-2.5298804780876543,0.4980392156862763,8.146627071848785,58.78764177524075,17.340345110414024,337.8434352817236,40.144545292134744,2962.473790994172,0
-33.67507977951843,2.704298915226995,-14.552571386408896,101.93516924842231,-124.05183109865916,-123.21164772727275,83.94612043667098,9.021857923497254,3.6584362139917577,19.210084033613448,-12.450980392156861,-1.4210854715202004e-14,17.803738317757016,-2.5298804780876543,0.4980392156862763,8.146627071848785,58.78764177524075,16.977316693718105,331.1548490112874,39.730679850019406,2937.1442661248566,0
-33.67507977951843,2.704298915226995,-14.552571386408896,101.93516924842231,-124.05183109865916,-123.21164772727275,83.94612043667098,7.633879781420751,-3.6584362139917808,-7.470588235294116,3.4862745098039234,-2.466019417475742,34.42056074766356,-2.5298804780876543,0.4980392156862763,7.7704598249279755,122.01261424374742,16.977316693718105,331.1548490112874,39.730679850019406,2937.1442661248566,0
-33.67507977951843,2.704298915226995,-14.552571386408896,101.93516924842231,-124.05183109865916,-123.21164772727275,83.94612043667098,10.409836065573757,7.839506172839494,-7.470588235294116,-5.478431372549018,-6.165048543689334,10.682242990654212,-1.5179282868525945,-1.4941176470588218,6.382212414313918,12.348427586354019,16.977316693718105,331.1548490112874,39.730679850019406,2937.1442661248566,0
-35.66463591528866,3.928887103254316,-14.327676529181714,101.54656722126606,-123.89933960376223,-123.36627435064935,83.8864890245334,10.409836065573757,7.839506172839494,-7.470588235294116,-5.478431372549018,-6.165048543689334,10.682242990654212,-1.5179282868525945,-1.4941176470588218,6.382212414313918,12.348427586354019,17.9737331825749,392.7025027549093,39.93437695123403,2874.0801977841666,0
-35.66463591528866,3.928887103254316,-14.327676529181714,101.54656722126606,-123.89933960376223,-123.36627435064935,83.8864890245334,11.797814207650259,8.884773662551428,-7.470588235294116,-13.44705882352941,-9.864077669902926,5.934579439252342,-3.541832669322714,-1.4941176470588218,7.804355294320252,16.39903397390127,17.9737331825749,392.7025027549093,39.93437695123403,2874.0801977841666,0
-35.66463591528866,3.928887103254316,-14.327676529181714,101.54656722126606,-123.89933960376223,-123.36627435064935,83.8864890245334,10.409836065573757,-1.5679012345679126,-14.941176470588234,-1.4941176470588218,-11.09708737864079,9.495327102803744,-0.5059760956175348,-0.49803921568627274,6.251182651317134,33.926643812727306,17.9737331825749,392.7025027549093,39.93437695123403,2874.0801977841666,0
-36.10675950101538,5.051426275612693,-13.784180624216024,101.40084146108245,-124.05183109865916,-123.44358766233768,83.8864890245334,10.409836065573757,-1.5679012345679126,-14.941176470588234,-1.4941176470588218,-11.09708737864079,9.495327102803744,-0.5059760956175348,-0.49803921568627274,6.251182651317134,33.926643812727306,18.3141221336147,424.5123119032056,40.07881612030372,2839.358343549594,0
-36.10675950101538,5.051426275612693,-13.784180624216024,101.40084146108245,-124.05183109865916,-123.44358766233768,83.8864890245334,7.633879781420751,4.703703703703692,-40.554621848739494,0.4980392156862763,-9.864077669902926,4.747663551401875,-7.589641434262953,-7.470588235294116,10.38277693005151,156.59465347536351,18.3141221336147,424.5123119032056,40.07881612030372,2839.358343549594,0
-36.10675950101538,5.051426275612693,-13.784180624216024,101.40084146108245,-124.05183109865916,-123.44358766233768,83.8864890245334,10.409836065573757,5.748971193415626,-9.60504201680672,10.458823529411767,-6.165048543689334,10.682242990654212,-2.5298804780876543,-3.48627450980392,7.385764915930374,11.047933622897586,18.3141221336147,424.5123119032056,40.07881612030372,2839.358343549594,0
-34.117203365245146,6.173965447971069,-13.634250719397903,101.25511570089884,-124.00100060036019,-123.62398538961037,84.18464608522129,10.409836065573757,5.748971193415626,-9.60504201680672,10.458823529411767,-6.165048543689334,10.682242990654212,-2.5298804780876543,-3.48627450980392,7.385764915930374,11.047933622897586,17.97513984420471,405.88251019338753,40.35444395608927,2795.582828309552,0
-34.117203365245146,6.173965447971069,-13.634250719397903,101.25511570089884,-124.00100060036019,-123.62398538961037,84.18464608522129,10.409836065573757,5.748971193415626,10.672268907563026,0.4980392156862763,-8.631067961165062,7.121495327102809,-6.577689243027893,0.4980392156862763,6.269675891152591,15.68787226173484,17.97513984420471,405.88251019338753,40.35444395608927,2795.582828309552,0
-34.117203365245146,6.173965447971069,-13.634250719397903,101.25511570089884,-124.00100060036019,-123.62398538961037,84.18464608522129,17.34972677595627,30.835390946502045,11.739495798319329,-6.474509803921567,-20.9611650485437,10.682242990654212,-2.5298804780876543,3.4862745098039234,13.007335793973589,92.86832540872638,17.97513984420471,405.88251019338753,40.35444395608927,2795.582828309552,0
-33.822454308094,6.786259541984729,-13.503062052682047,101.0122394339262,-123.7468481088653,-123.80438311688312,84.4231717337716,17.34972677595627,30.835390946502045,11.739495798319329,-6.474509803921567,-20.9611650485437,10.682242990654212,-2.5298804780876543,3.4862745098039234,13.007335793973589,92.86832540872638,18.037258634253593,412.2669854931139,40.43385367619766,2763.5844747510537,0
-33.822454308094,6.786259541984729,-13.503062052682047,101.0122394339262,-123.7468481088653,-123.80438311688312,84.4231717337716,11.797814207650259,3.6584362139917577,-10.672268907563023,18.42745098039216,-12.330097087378654,-9.495327102803735,-0.5059760956175348,1.4941176470588253,8.547686030306993,38.03118391779173,18.037258634253593,412.2669854931139,40.43385367619766,2763.5844747510537,0
-33.822454308094,6.786259541984729,-13.503062052682047,101.0122394339262,-123.7468481088653,-123.80438311688312,84.4231717337716,9.021857923497254,8.884773662551428,-26.68067226890756,-5.478431372549018,18.495145631067945,10.682242990654212,-2.5298804780876543,0.4980392156862763,10.28388044287517,74.13829946626858,18.037258634253593,412.2669854931139,40.43385367619766,2763.5844747510537,0
-35.701479547432555,5.969867416633183,-13.484320814579782,100.91508892713716,-123.84850910546325,-123.90746753246754,84.51261885197795,9.021857923497254,8.884773662551428,-26.68067226890756,-5.478431372549018,18.495145631067945,10.682242990654212,-2.5298804780876543,0.4980392156862763,10.28388044287517,74.13829946626858,18.385222592881842,434.76145661596536,40.1230923861167,2785.86688505006,0
-35.701479547432555,5.969867416633183,-13.484320814579782,100.91508892713716,-123.84850910546325,-123.90746753246754,84.51261885197795,6.245901639344249,-2.6131687242798467,-12.80672268907563,-2.490196078431371,-38.223300970873794,8.308411214953276,-4.553784860557774,-1.4941176470588218,9.591950478071844,147.57554670711943,18.385222592881842,434.76145661596536,40.1230923861167,2785.86688505006,0
-35.701479547432555,5.969867416633183,-13.484320814579782,100.91508892713716,-123.84850910546325,-123.90746753246754,84.51261885197795,13.185792349726762,12.02057613168723,1.067226890756304,-2.490196078431371,-11.09708737864079,9.495327102803744,-4.553784860557774,1.4941176470588253,6.92551355495785,25.467635050268054,18.385222592881842,434.76145661596536,40.1230923861167,2785.86688505006,0
-36.18044676530317,5.969867416633183,-13.709215671806964,100.86651367374259,-124.10266159695814,-123.98478084415586,84.57225026411552,13.185792349726762,12.02057613168723,1.067226890756304,-2.490196078431371,-11.09708737864079,9.495327102803744,-4.553784860557774,1.4941176470588253,6.92551355495785,25.467635050268054,18.619843284581105,444.8119206158311,40.18186558739424,2776.9442628766715,0
-36.18044676530317,5.969867416633183,-13.709215671806964,100.86651367374259,-124.10266159695814,-123.98478084415586,84.57225026411552,6.245901639344249,4.703703703703692,-16.008403361344534,-1.4941176470588218,7.39805825242717,18.990654205607484,-2.5298804780876543,0.4980392156862763,7.233594812907485,46.15184022311648,18.619843284581105,444.8119206158311,40.18186558739424,2776.9442628766715,0
-36.18044676530317,5.969867416633183,-13.709215671806964,100.86651367374259,-124.10266159695814,-123.98478084415586,84.57225026411552,4.857923497267746,-7.839506172839517,-43.7563025210084,0.4980392156862763,-18.495145631067974,16.61682242990655,-7.589641434262953,-4.482352941176469,13.016966730401986,191.46732754256254,18.619843284581105,444.8119206158311,40.18186558739424,2776.9442628766715,0
-35.88569770815202,6.276014463640013,-14.027816719545472,100.91508892713716,-124.10266159695814,-123.98478084415586,84.54243455804675,4.857923497267746,-7.839506172839517,-43.7563025210084,0.4980392156862763,-18.495145631067974,16.61682242990655,-7.589641434262953,-4.482352941176469,13.016966730401986,191.46732754256254,18.729842963779166,444.6037492140699,40.40630670344088,2761.0071541996926,0
-35.88569770815202,6.276014463640013,-14.027816719545472,100.91508892713716,-124.10266159695814,-123.98478084415586,84.54243455804675,6.245901639344249,12.02057613168723,33.08403361344538,-5.478431372549018,-1.4210854715202004e-14,33.23364485981309,0.505976095617525,0.4980392156862763,11.383325366017846,196.63006609917724,18.729842963779166,444.6037492140699,40.40630670344088,2761.0071541996926,0
-35.88569770815202,6.276014463640013,-14.027816719545472,100.91508892713716,-124.10266159695814,-123.98478084415586,84.54243455804675,3.4699453551912427,-7.839506172839517,-9.60504201680672,3.4862745098039234,2.4660194174757137,10.682242990654212,0.505976095617525,1.4941176470588253,4.94364052568096,15.010376165489943,18.729842963779166,444.6037492140699,40.40630670344088,2761.0071541996926,0
-35.996228604583706,6.888308557653673,-14.140264148159062,100.86651367374259,-124.05183109865916,-123.98478084415586,84.54243455804675,3.4699453551912427,-7.839506172839517,-9.60504201680672,3.4862745098039234,2.4660194174757137,10.682242990654212,0.505976095617525,1.4941176470588253,4.94364052568096,15.010376165489943,19.00826710346548,459.8279299972447,40.63169545985178,2734.32270891702,0
-35.996228604583706,6.888308557653673,-14.140264148159062,100.86651367374259,-124.05183109865916,-123.98478084415586,84.54243455804675,6.245901639344249,0.5226337448559555,-18.14285714285714,4.482352941176472,8.631067961165034,14.242990654205613,-0.5059760956175348,-0.49803921568627274,6.658977424363534,44.523645086470154,19.00826710346548,459.8279299972447,40.63169545985178,2734.32270891702,0
-35.996228604583706,6.888308557653673,-14.140264148159062,100.86651367374259,-124.05183109865916,-123.98478084415586,84.54243455804675,7.633879781420751,3.6584362139917577,-14.941176470588234,8.466666666666669,3.6990291262135777,14.242990654205613,-0.5059760956175348,0.4980392156862763,6.705774278048802,31.984837085095712,19.00826710346548,459.8279299972447,40.63169545985178,2734.32270891702,0
-37.83841021177837,5.1534752912816355,-14.552571386408896,100.72078791355904,-124.25515309185508,-123.98478084415586,84.27409320342764,7.633879781420751,3.6584362139917577,-14.941176470588234,8.466666666666669,3.6990291262135777,14.242990654205613,-0.5059760956175348,0.4980392156862763,6.705774278048802,31.984837085095712,19.18148562982297,463.1434640954372,40.14227819708319,2774.4026314532284,0
-37.83841021177837,5.1534752912816355,-14.552571386408896,100.72078791355904,-124.25515309185508,-123.98478084415586,84.27409320342764,7.633879781420751,14.111111111111098,13.873949579831933,-6.474509803921567,2.4660194174757137,27.29906542056075,-3.541832669322714,-2.490196078431371,9.736320482759488,71.929102696861,19.18148562982297,463.1434640954372,40.14227819708319,2774.4026314532284,0
-37.83841021177837,5.1534752912816355,-14.552571386408896,100.72078791355904,-124.25515309185508,-123.98478084415586,84.27409320342764,13.185792349726762,6.79423868312756,-18.14285714285714,-23.4078431372549,-2.466019417475742,18.990654205607484,-4.553784860557774,-1.4941176470588218,11.129413430458273,70.84314019902513,19.18148562982297,463.1434640954372,40.14227819708319,2774.4026314532284,0
-37.727879315346684,4.439132181599033,-14.27145281487492,100.62363740676994,-124.6617970782469,-124.03632305194805,84.12501467308371,13.185792349726762,6.79423868312756,-18.14285714285714,-23.4078431372549,-2.466019417475742,18.990654205607484,-4.553784860557774,-1.4941176470588218,11.129413430458273,70.84314019902513,18.812821437273545,446.3911322776438,39.77807413441463,2800.805559706531,0
-37.727879315346684,4.439132181599033,-14.27145281487492,100.62363740676994,-124.6617970782469,-124.03632305194805,84.12501467308371,11.797814207650259,6.79423868312756,-21.34453781512605,-4.482352941176469,3.6990291262135777,11.869158878504678,-2.5298804780876543,1.4941176470588253,8.001391222118134,44.57788880192455,18.812821437273545,446.3911322776438,39.77807413441463,2800.805559706531,0
-37.727879315346684,4.439132181599033,-14.27145281487492,100.62363740676994,-124.6617970782469,-124.03632305194805,84.12501467308371,10.409836065573757,6.79423868312756,8.537815126050422,7.4705882352941195,-2.466019417475742,18.990654205607484,-2.5298804780876543,0.4980392156862763,7.212133928362877,34.3551246737584,18.812821437273545,446.3911322776438,39.77807413441463,2800.805559706531,0
-37.17522483318829,5.459622338288466,-14.140264148159062,100.57506215337543,-125.01761056633978,-124.11363636363637,84.06538326094613,10.409836065573757,6.79423868312756,8.537815126050422,7.4705882352941195,-2.466019417475742,18.990654205607484,-2.5298804780876543,0.4980392156862763,7.212133928362877,34.3551246737584,18.925037106545272,455.41585956294165,40.05831621327432,2765.545789941876,0
-37.17522483318829,5.459622338288466,-14.140264148159062,100.57506215337543,-125.01761056633978,-124.11363636363637,84.06538326094613,15.961748633879768,5.748971193415626,-4.268907563025209,-7.470588235294116,-16.029126213592246,27.29906542056075,3.5418326693227042,2.4901960784313744,10.351304500940223,75.0832608287448,18.925037106545272,455.41585956294165,40.05831621327432,2765.545789941876,0
-37.17522483318829,5.459622338288466,-14.140264148159062,100.57506215337543,-125.01761056633978,-124.11363636363637,84.06538326094613,9.021857923497254,3.6584362139917577,-21.34453781512605,16.43529411764706,9.864077669902898,11.869158878504678,4.553784860557764,1.4941176470588253,9.780158140785787,45.20294599840854,18.925037106545272,455.41585956294165,40.05831621327432,2765.545789941876,0
-36.91731940818104,7.806749698674163,-14.196487862465858,100.52648689998091,-125.17010206123672,-124.1909496753247,84.09519896701494,9.021857923497254,3.6584362139917577,-21.34453781512605,16.43529411764706,9.864077669902898,11.869158878504678,4.553784860557764,1.4941176470588253,9.780158140785787,45.20294599840854,19.64018565644035,500.1035011292482,40.84324148704031,2681.7745257164256,0
-36.91731940818104,7.806749698674163,-14.196487862465858,100.52648689998091,-125.17010206123672,-124.1909496753247,84.09519896701494,3.4699453551912427,-2.6131687242798467,-9.60504201680672,11.454901960784316,-2.466019417475742,11.869158878504678,-4.553784860557774,-1.4941176470588218,5.940767357582393,18.560939514298607,19.64018565644035,500.1035011292482,40.84324148704031,2681.7745257164256,0
-36.91731940818104,7.806749698674163,-14.196487862465858,100.52648689998091,-125.17010206123672,-124.1909496753247,84.09519896701494,11.797814207650259,12.02057613168723,-23.478991596638654,-6.474509803921567,1.2330097087378498,22.551401869158884,-0.5059760956175348,3.4862745098039234,10.193569240401988,81.15576061632304,19.64018565644035,500.1035011292482,40.84324148704031,2681.7745257164256,0
-36.659413983173785,8.214945761349936,-14.215229100568123,100.52648689998091,-125.2209325595357,-124.1909496753247,84.12501467308371,11.797814207650259,12.02057613168723,-23.478991596638654,-6.474509803921567,1.2330097087378498,22.551401869158884,-0.5059760956175348,3.4862745098039234,10.193569240401988,81.15576061632304,19.696529615030617,503.4270569769561,40.98555392063299,2667.8428750761254,0
-36.659413983173785,8.214945761349936,-14.215229100568123,100.52648689998091,-125.2209325595357,-124.1909496753247,84.12501467308371,9.021857923497254,19.33744855967077,20.27731092436975,4.482352941176472,2.4660194174757137,14.242990654205613,-1.5179282868525945,-2.490196078431371,9.229513098209942,60.36708349978691,19.696529615030617,503.4270569769561,40.98555392063299,2667.8428750761254,0
-36.659413983173785,8.214945761349936,-14.215229100568123,100.52648689998091,-125.2209325595357,-124.1909496753247,84.12501467308371,14.573770491803264,14.111111111111098,37.35294117647059,0.4980392156862763,-8.631067961165062,11.869158878504678,-1.5179282868525945,0.4980392156862763,11.13150704215998,147.66418921023993,19.696529615030617,503.4270569769561,40.98555392063299,2667.8428750761254,0
-36.843632143893245,8.725190839694653,-13.765439386113759,100.62363740676994,-125.42425455273161,-124.2167207792208,84.15483037915251,14.573770491803264,14.111111111111098,37.35294117647059,0.4980392156862763,-8.631067961165062,11.869158878504678,-1.5179282868525945,0.4980392156862763,11.13150704215998,147.66418921023993,19.77808745656722,519.1581761714735,41.03808921085945,2669.179191707799,0
-36.843632143893245,8.725190839694653,-13.765439386113759,100.62363740676994,-125.42425455273161,-124.2167207792208,84.15483037915251,4.857923497267746,-13.065843621399189,-52.29411764705882,-2.490196078431371,-8.631067961165062,17.803738317757016,-0.5059760956175348,-0.49803921568627274,12.518362804297876,296.2126765635024,19.77808745656722,519.1581761714735,41.03808921085945,2669.179191707799,0
-36.843632143893245,8.725190839694653,-13.765439386113759,100.62363740676994,-125.42425455273161,-124.2167207792208,84.15483037915251,10.409836065573757,3.6584362139917577,-21.34453781512605,-12.450980392156861,-9.864077669902926,7.121495327102809,-4.553784860557774,2.4901960784313744,8.986668052855414,37.31959788722786,19.77808745656722,519.1581761714735,41.03808921085945,2669.179191707799,0
-36.880475776037144,7.704700683005219,-13.221943481148068,100.76936316695355,-125.78006804082446,-124.24249188311688,84.24427749735887,10.409836065573757,3.6584362139917577,-21.34453781512605,-12.450980392156861,-9.864077669902926,7.121495327102809,-4.553784860557774,2.4901960784313744,8.986668052855414,37.31959788722786,19.26903998006348,497.58142436755764,40.565335777035614,2726.003677497907,0
-36.880475776037144,7.704700683005219,-13.221943481148068,100.76936316695355,-125.78006804082446,-124.24249188311688,84.24427749735887,11.797814207650259,4.703703703703692,-3.201680672268906,1.4941176470588253,-16.029126213592246,3.560747663551407,-6.577689243027893,-0.49803921568627274,5.982864820817438,28.65212478578103,19.26903998006348,497.58142436755764,40.565335777035614,2726.003677497907,0
-36.880475776037144,7.704700683005219,-13.221943481148068,100.76936316695355,-125.78006804082446,-124.24249188311688,84.24427749735887,11.797814207650259,10.975308641975296,-19.210084033613445,-1.4941176470588218,4.932038834951442,15.42990654205608,-7.589641434262953,-2.490196078431371,9.23988842749996,39.158855334454806,19.26903998006348,497.58142436755764,40.565335777035614,2726.003677497907,0
-35.996228604583706,7.704700683005219,-12.734671290489175,101.06081468732071,-126.23754252551527,-124.26826298701297,84.4231717337716,11.797814207650259,10.975308641975296,-19.210084033613445,-1.4941176470588218,4.932038834951442,15.42990654205608,-7.589641434262953,-2.490196078431371,9.23988842749996,39.158855334454806,18.811866859359366,478.10653265777006,40.5000622202717,2757.0287056094253,0
-35.996228604583706,7.704700683005219,-12.734671290489175,101.06081468732071,-126.23754252551527,-124.26826298701297,84.4231717337716,4.857923497267746,-10.975308641975317,-35.21848739495798,7.4705882352941195,-1.4210854715202004e-14,17.803738317757016,2.5298804780876445,3.4862745098039234,10.292775134392972,132.60087242898777,18.811866859359366,478.10653265777006,40.5000622202717,2757.0287056094253,0
-35.996228604583706,7.704700683005219,-12.734671290489175,101.06081468732071,-126.23754252551527,-124.26826298701297,84.4231717337716,4.857923497267746,-0.5226337448559786,-5.336134453781511,-3.48627450980392,-13.563106796116518,1.186915887850473,-4.553784860557774,-1.4941176470588218,4.375111424661593,17.100598166381076,18.811866859359366,478.10653265777006,40.5000622202717,2757.0287056094253,0
-31.98027270089934,4.745279228605863,-12.134951671216688,101.0122394339262,-126.44086451871118,-124.65482954545456,85.16856438549127,4.857923497267746,-0.5226337448559786,-5.336134453781511,-3.48627450980392,-13.563106796116518,1.186915887850473,-4.553784860557774,-1.4941176470588218,4.375111424661593,17.100598166381076,16.286834533573963,337.92418775487874,39.29749011124958,2870.184527672881,0
-31.98027270089934,4.745279228605863,-12.134951671216688,101.0122394339262,-126.44086451871118,-124.65482954545456,85.16856438549127,10.409836065573757,2.6131687242798236,9.605042016806724,11.454901960784316,1.2330097087378498,15.42990654205608,-1.5179282868525945,0.4980392156862763,6.595229065097177,33.26329365478172,16.286834533573963,337.92418775487874,39.29749011124958,2870.184527672881,0
-31.98027270089934,4.745279228605863,-12.134951671216688,101.0122394339262,-126.44086451871118,-124.65482954545456,85.16856438549127,13.185792349726762,10.975308641975296,12.806722689075631,9.462745098039218,16.029126213592217,11.869158878504678,-0.5059760956175348,-1.4941176470588218,9.54111845169877,31.4161284334787,16.286834533573963,337.92418775487874,39.29749011124958,2870.184527672881,0
-29.69596750797796,-0.25512253917236194,-11.81635062347818,100.62363740676994,-126.64418651190712,-125.27333603896102,86.15248268576127,13.185792349726762,10.975308641975296,12.806722689075631,9.462745098039218,16.029126213592217,11.869158878504678,-0.5059760956175348,-1.4941176470588218,9.54111845169877,31.4161284334787,13.922480223542834,220.01767453851286,37.56503685647349,3015.705826225721,0
-29.69596750797796,-0.25512253917236194,-11.81635062347818,100.62363740676994,-126.64418651190712,-125.27333603896102,86.15248268576127,2.0819672131147406,-10.975308641975317,-54.42857142857142,2.4901960784313744,8.631067961165034,-4.747663551401864,-6.577689243027893,-2.490196078431371,11.552832524514876,310.317378920824,13.922480223542834,220.01767453851286,37.56503685647349,3015.705826225721,0
-29.69596750797796,-0.25512253917236194,-11.81635062347818,100.62363740676994,-126.64418651190712,-125.27333603896102,86.15248268576127,3.4699453551912427,4.703703703703692,-27.747899159663863,-2.490196078431371,-13.563106796116518,18.990654205607484,-2.5298804780876543,-1.4941176470588218,9.37368792798258,94.37423235871266,13.922480223542834,220.01767453851286,37.56503685647349,3015.705826225721,0
-27.448505947200474,-1.6838087585375678,-11.610197004353264,100.08930961943014,-126.44086451871118,-125.89184253246754,87.13640098603125,3.4699453551912427,4.703703703703692,-27.747899159663863,-2.490196078431371,-13.563106796116518,18.990654205607484,-2.5298804780876543,-1.4941176470588218,9.37368792798258,94.37423235871266,13.580837236697102,168.8674724998727,37.794438460773655,2935.1215254068757,0
-27.448505947200474,-1.6838087585375678,-11.610197004353264,100.08930961943014,-126.44086451871118,-125.89184253246754,87.13640098603125,15.961748633879768,2.6131687242798236,30.949579831932773,-5.478431372549018,-4.93203883495147,15.42990654205608,-1.5179282868525945,0.4980392156862763,9.672605180273475,109.42580240463472,13.580837236697102,168.8674724998727,37.794438460773655,2935.1215254068757,0
-27.448505947200474,-1.6838087585375678,-11.610197004353264,100.08930961943014,-126.44086451871118,-125.89184253246754,87.13640098603125,27.06557377049179,29.79012345679011,23.478991596638657,-38.34901960784313,-25.893203883495158,13.056074766355145,4.553784860557764,5.4784313725490215,20.958150414340096,145.66054322436315,13.580837236697102,168.8674724998727,37.794438460773655,2935.1215254068757,0
-27.743255004351617,-4.7452792286058685,-11.160407289898899,99.65213233887937,-126.44086451871118,-126.51034902597405,88.03087216809487,27.06557377049179,29.79012345679011,23.478991596638657,-38.34901960784313,-25.893203883495158,13.056074766355145,4.553784860557764,5.4784313725490215,20.958150414340096,145.66054322436315,14.549647174285461,140.84193269088456,38.51927295246138,2813.208339580363,0
-27.743255004351617,-4.7452792286058685,-11.160407289898899,99.65213233887937,-126.44086451871118,-126.51034902597405,88.03087216809487,13.185792349726762,32.92592592592591,96.05042016806723,25.400000000000002,14.796116504854353,14.242990654205613,-2.5298804780876543,-0.49803921568627274,24.953645662069224,939.3979517859804,14.549647174285461,140.84193269088456,38.51927295246138,2813.208339580363,0
-27.743255004351617,-4.7452792286058685,-11.160407289898899,99.65213233887937,-126.44086451871118,-126.51034902597405,88.03087216809487,7.633879781420751,23.518518518518505,59.76470588235294,-51.29803921568627,-32.05825242718448,28.48598130841122,-6.577689243027893,-3.48627450980392,26.602917610800745,435.3695303812411,14.549647174285461,140.84193269088456,38.51927295246138,2813.208339580363,0
-26.158978822164208,-14.541984732824432,-13.428097100272986,98.9720787913559,-126.33920352211322,-127.0,88.50792346519546,7.633879781420751,23.518518518518505,59.76470588235294,-51.29803921568627,-32.05825242718448,28.48598130841122,-6.577689243027893,-3.48627450980392,26.602917610800745,435.3695303812411,18.04302021842054,49.7117744577484,42.31405354148444,2407.909055325792,0
-26.158978822164208,-14.541984732824432,-13.428097100272986,98.9720787913559,-126.33920352211322,-127.0,88.50792346519546,6.245901639344249,0.5226337448559555,26.680672268907564,6.4745098039215705,39.45631067961163,13.056074766355145,-0.5059760956175348,3.4862745098039234,12.053544188552198,195.77574653089246,18.04302021842054,49.7117744577484,42.31405354148444,2407.909055325792,0
-26.158978822164208,-14.541984732824432,-13.428097100272986,98.9720787913559,-126.33920352211322,-127.0,88.50792346519546,6.245901639344249,-16.20164609053499,-72.57142857142857,65.24313725490197,-14.796116504854382,9.495327102803744,-3.541832669322714,-3.48627450980392,23.947708042874314,795.803864580989,18.04302021842054,49.7117744577484,42.31405354148444,2407.909055325792,0
-32.31186539019438,-22.603856970670957,-16.389212720430884,97.90342321667623,-124.9667800680408,-126.3299512987013,86.3015612161052,6.245901639344249,-16.20164609053499,-72.57142857142857,65.24313725490197,-14.796116504854382,9.495327102803744,-3.541832669322714,-3.48627450980392,23.947708042874314,795.803864580989,23.7683116937654,64.39968311208436,45.63216430259269,2058.868832136629,0
-32.31186539019438,-22.603856970670957,-16.389212720430884,97.90342321667623,-124.9667800680408,-126.3299512987013,86.3015612161052,-4.857923497267773,-43.378600823045275,1.067226890756304,16.43529411764706,25.89320388349513,-4.747663551401864,-2.5298804780876543,-8.466666666666665,13.422057488545967,215.2043334944394,23.7683116937654,64.39968311208436,45.63216430259269,2058.868832136629,0
-32.31186539019438,-22.603856970670957,-16.389212720430884,97.90342321667623,-124.9667800680408,-126.3299512987013,86.3015612161052,4.857923497267746,-15.156378600823054,-19.210084033613445,-29.384313725490195,1.2330097087378498,7.121495327102809,-1.5179282868525945,-1.4941176470588218,9.996906353368313,106.14969486460821,23.7683116937654,64.39968311208436,45.63216430259269,2058.868832136629,0
-47.78619089062954,6.4801124949779,-18.282077768759667,96.05756358768411,-121.40864518711223,-124.65482954545456,81.97828383613103,4.857923497267746,-15.156378600823054,-19.210084033613445,-29.384313725490195,1.2330097087378498,7.121495327102809,-1.5179282868525945,-1.4941176470588218,9.996906353368313,106.14969486460821,24.18279371812237,738.0817401507372,40.27325128380723,2368.73872049324,0
-47.78619089062954,6.4801124949779,-18.282077768759667,96.05756358768411,-121.40864518711223,-124.65482954545456,81.97828383613103,40.945355191256816,91.46090534979422,-64.03361344537815,-4.482352941176469,-28.359223300970886,26.112149532710287,5.565737051792824,6.4745098039215705,33.42923082712515,968.6990391345137,24.18279371812237,738.0817401507372,40.27325128380723,2368.73872049324,0
-47.78619089062954,6.4801124949779,-18.282077768759667,96.05756358768411,-121.40864518711223,-124.65482954545456,81.97828383613103,0.6939890710382368,24.563786008230437,22.411764705882355,-17.431372549019606,-7.398058252427198,4.747663551401875,3.5418326693227042,2.4901960784313744,10.409832860719224,91.30020268980866,24.18279371812237,738.0817401507372,40.27325128380723,2368.73872049324,0
-61.27096025529447,33.72719967858578,-19.5564819597137,96.3975903614458,-119.12127276365817,-121.87155032467535,76.99906092264351,0.6939890710382368,24.563786008230437,22.411764705882355,-17.431372549019606,-7.398058252427198,4.747663551401875,3.5418326693227042,2.4901960784313744,10.409832860719224,91.30020268980866,38.184880631197984,2267.316469871204,49.89375733324842,1672.1571749028344,0
-61.27096025529447,33.72719967858578,-19.5564819597137,96.3975903614458,-119.12127276365817,-121.87155032467535,76.99906092264351,3.4699453551912427,-32.92592592592594,-7.470588235294116,9.462745098039218,-19.728155339805838,3.560747663551407,-12.64940239043825,-4.482352941176469,11.71873286867781,103.55123679991608,38.184880631197984,2267.316469871204,49.89375733324842,1672.1571749028344,0
-61.27096025529447,33.72719967858578,-19.5564819597137,96.3975903614458,-119.12127276365817,-121.87155032467535,76.99906092264351,27.06557377049179,-2.6131687242798467,-58.69747899159664,26.39607843137255,6.165048543689306,15.42990654205608,-2.5298804780876543,1.4941176470588253,17.548906641079085,386.0757798103432,38.184880631197984,2267.316469871204,49.89375733324842,1672.1571749028344,0
-42.812300551203954,68.21976697468862,-29.13325462997121,97.90342321667623,-111.3950370222133,-117.46469155844159,72.49688930625663,27.06557377049179,-2.6131687242798467,-58.69747899159664,26.39607843137255,6.165048543689306,15.42990654205608,-2.5298804780876543,1.4941176470588253,17.548906641079085,386.0757798103432,46.721774051954604,3665.474521991155,65.08548160711203,1189.7018304350113,0
-42.812300551203954,68.21976697468862,-29.13325462997121,97.90342321667623,-111.3950370222133,-117.46469155844159,72.49688930625663,-0.6939890710382652,42.333333333333314,2.1344537815126063,8.466666666666669,-34.524271844660205,21.364485981308416,-4.553784860557774,-0.49803921568627274,14.32112809434544,271.0609996343734,46.721774051954604,3665.474521991155,65.08548160711203,1189.7018304350113,0
-42.812300551203954,68.21976697468862,-29.13325462997121,97.90342321667623,-111.3950370222133,-117.46469155844159,72.49688930625663,-15.961748633879797,24.563786008230437,27.747899159663866,18.42745098039216,-25.893203883495158,4.747663551401875,1.5179282868525847,9.462745098039218,16.040303200244388,99.16988764240288,46.721774051954604,3665.474521991155,65.08548160711203,1189.7018304350113,0
-27.485349579344366,102.3041382081157,-42.04596768243192,99.16637980493402,-96.55253151891131,-110.91883116883116,67.01079938959973,-15.961748633879797,24.563786008230437,27.747899159663866,18.42745098039216,-25.893203883495158,4.747663551401875,1.5179282868525847,9.462745098039218,16.040303200244388,99.16988764240288,57.278485156630666,6315.71263504792,81.17216189849388,1150.6056873239345,0
-27.485349579344366,102.3041382081157,-42.04596768243192,99.16637980493402,-96.55253151891131,-110.91883116883116,67.01079938959973,2.0819672131147406,-73.69135802469137,-24.546218487394956,-17.431372549019606,-11.09708737864079,9.495327102803744,-12.64940239043825,-13.44705882352941,20.554973996204108,502.1717335733528,57.278485156630666,6315.71263504792,81.17216189849388,1150.6056873239345,0
-27.485349579344366,102.3041382081157,-42.04596768243192,99.16637980493402,-96.55253151891131,-110.91883116883116,67.01079938959973,78.42076502732239,126.99999999999997,50.15966386554622,-6.474509803921567,11.097087378640762,23.73831775700935,6.5776892430278835,10.458823529411767,39.24085707560999,1908.1820993096733,57.278485156630666,6315.71263504792,81.17216189849388,1150.6056873239345,0
-20.742964897011902,115.16231418240257,-57.938537593152795,96.5433161216294,-76.93195917550526,-104.96570616883116,62.031576476112235,78.42076502732239,126.99999999999997,50.15966386554622,-6.474509803921567,11.097087378640762,23.73831775700935,6.5776892430278835,10.458823529411767,39.24085707560999,1908.1820993096733,64.61460555752242,8302.943399211705,89.88138929906158,851.926103526029,0
-20.742964897011902,115.16231418240257,-57.938537593152795,96.5433161216294,-76.93195917550526,-104.96570616883116,62.031576476112235,46.497267759562824,4.703703703703692,-46.95798319327731,-13.44705882352941,-6.165048543689334,32.04672897196262,7.589641434262944,6.4745098039215705,20.485242779238714,339.62250515367253,64.61460555752242,8302.943399211705,89.88138929906158,851.926103526029,0
-20.742964897011902,115.16231418240257,-57.938537593152795,96.5433161216294,-76.93195917550526,-104.96570616883116,62.031576476112235,-17.3497267759563,-52.78600823045268,-37.35294117647059,11.454901960784316,-24.660194174757294,13.056074766355145,-7.589641434262953,-4.482352941176469,21.09148018252697,273.0441138973895,64.61460555752242,8302.943399211705,89.88138929906158,851.926103526029,0
-21.774586597040916,122.71394134190437,-74.14970855161218,90.86001147446933,-52.93996397838703,-97.67248376623377,55.08451696208476,-17.3497267759563,-52.78600823045268,-37.35294117647059,11.454901960784316,-24.660194174757294,13.056074766355145,-7.589641434262953,-4.482352941176469,21.09148018252697,273.0441138973895,72.87941216351915,10395.897459186108,95.90788712266196,608.731963047135,0
-21.774586597040916,122.71394134190437,-74.14970855161218,90.86001147446933,-52.93996397838703,-97.67248376623377,55.08451696208476,-14.573770491803291,-0.5226337448559786,-14.941176470588234,12.450980392156865,-7.398058252427198,9.495327102803744,-5.5657370517928335,-2.490196078431371,8.429734948107438,29.21730817166876,72.87941216351915,10395.897459186108,95.90788712266196,608.731963047135,0
-21.774586597040916,122.71394134190437,-74.14970855161218,90.86001147446933,-52.93996397838703,-97.67248376623377,55.08451696208476,17.34972677595627,7.839506172839494,-5.336134453781511,-21.415686274509802,-12.330097087378654,8.308411214953276,-2.5298804780876543,1.4941176470588253,9.575445013070686,49.393903148895504,72.87941216351915,10395.897459186108,95.90788712266196,608.731963047135,0
-34.63301421525966,119.14222579349136,-92.77849922526377,81.72786383629762,-25.948969381628956,-87.80215097402598,44.0825214227022,17.34972677595627,7.839506172839494,-5.336134453781511,-21.415686274509802,-12.330097087378654,8.308411214953276,-2.5298804780876543,1.4941176470588253,9.575445013070686,49.393903148895504,82.1845797446716,11989.685926545404,97.88286295168426,369.4995169546745,0
-34.63301421525966,119.14222579349136,-92.77849922526377,81.72786383629762,-25.948969381628956,-87.80215097402598,44.0825214227022,6.245901639344249,25.609053497942373,-8.537815126050418,-30.380392156862744,-36.99029126213593,17.803738317757016,1.5179282868525847,1.4941176470588253,16.072404741750518,187.70158702730902,82.1845797446716,11989.685926545404,97.88286295168426,369.4995169546745,0
-34.63301421525966,119.14222579349136,-92.77849922526377,81.72786383629762,-25.948969381628956,-87.80215097402598,44.0825214227022,3.4699453551912427,-6.794238683127583,-16.008403361344534,9.462745098039218,-12.330097087378654,16.61682242990655,-2.5298804780876543,-4.482352941176469,8.961810679281488,30.877740397847752,82.1845797446716,11989.685926545404,97.88286295168426,369.4995169546745,0
-58.323469683783,89.44596223382885,-110.65764037482475,68.56397016637982,0.686211727036266,-75.17431006493507,28.101302969832147,3.4699453551912427,-6.794238683127583,-16.008403361344534,9.462745098039218,-12.330097087378654,16.61682242990655,-2.5298804780876543,-4.482352941176469,8.961810679281488,30.877740397847752,86.1423574308122,10769.353701355796,89.5558575916778,442.9783256465887,0
-58.323469683783,89.44596223382885,-110.65764037482475,68.56397016637982,0.686211727036266,-75.17431006493507,28.101302969832147,21.51366120218578,24.563786008230437,-16.008403361344534,-5.478431372549018,-13.563106796116518,14.242990654205613,1.5179282868525847,4.482352941176472,12.671332577832619,68.17346834163149,86.1423574308122,10769.353701355796,89.5558575916778,442.9783256465887,0
-58.323469683783,89.44596223382885,-110.65764037482475,68.56397016637982,0.686211727036266,-75.17431006493507,28.101302969832147,-3.469945355191271,-28.744855967078195,-19.210084033613445,0.4980392156862763,-8.631067961165062,11.869158878504678,-8.601593625498012,-7.470588235294116,11.06191665900388,81.9748576745592,86.1423574308122,10769.353701355796,89.5558575916778,442.9783256465887,0
-84.04032492022048,61.7906789875452,-125.10713495167121,52.096959265633984,24.83069841905143,-60.04667207792207,8.631646906913971,-3.469945355191271,-28.744855967078195,-19.210084033613445,0.4980392156862763,-8.631067961165062,11.869158878504678,-8.601593625498012,-7.470588235294116,11.06191665900388,81.9748576745592,90.31271295314563,9647.326240360664,79.6649244016168,1572.2379252683502,0
