Gyro 0,Gyro 1,Gyro 2,Orientation 0,Orientation 1,Orientation 2,Orientation 3,Sensor 0,Sensor 1,Sensor 2,Sensor 3,Sensor 4,Sensor 5,Sensor 6,Sensor 7,Sensor Mean,Sensor Variance,Gyro Mean,Gyro Variance,Orientation Mean,Orientation Variance,Label
-49.598949211908945,37.40660919540231,-20.162578939638713,107.57354586129756,-97.42267589590818,-111.22631320569462,86.29487179487171,9.864077669902901,8.021052631578952,-7.589641434262953,-5.478431372549018,5.630541871921189,21.456621004566205,1.4941176470588253,-5.1988304093567175,8.091664255149595,35.25753564712514,35.72271244898332,1958.4464185169986,55.04757799877952,2143.5721197861303,0
-49.598949211908945,37.40660919540231,-20.162578939638713,107.57354586129756,-97.42267589590818,-111.22631320569462,86.29487179487171,9.864077669902901,6.684210526315794,-1.5179282868525945,2.4901960784313744,28.152709359605915,33.054794520547944,13.447058823529414,20.052631578947377,14.407950855516663,136.84248684538997,35.72271244898332,1958.4464185169986,55.04757799877952,2143.5721197861303,0
-49.598949211908945,37.40660919540231,-20.162578939638713,107.57354586129756,-97.42267589590818,-111.22631320569462,86.29487179487171,2.4660194174757173,-8.021052631578943,2.5298804780876445,5.4784313725490215,3.128078817733993,7.538812785388123,-23.4078431372549,-34.906432748538,10.934568923575792,140.4740578767506,35.72271244898332,1958.4464185169986,55.04757799877952,2143.5721197861303,0
-49.598949211908945,37.40660919540231,-20.162578939638713,107.57354586129756,-97.42267589590818,-111.22631320569462,86.29487179487171,11.097087378640765,6.684210526315794,-12.64940239043825,-10.458823529411763,20.64532019704434,16.81735159817351,-8.466666666666665,-18.567251461988295,13.173264218584924,24.917014262132767,35.72271244898332,1958.4464185169986,55.04757799877952,2143.5721197861303,0
-49.26532399299476,38.25814176245211,-20.069320017623735,107.6445749440716,-97.40042057303076,-111.35100638193421,86.44993894993888,11.097087378640765,6.684210526315794,-12.64940239043825,-10.458823529411763,20.64532019704434,16.81735159817351,-8.466666666666665,-18.567251461988295,13.173264218584924,24.917014262132767,35.86426192435687,1985.8094172801618,55.32401224138249,2135.7892702608033,0
-49.26532399299476,38.25814176245211,-20.069320017623735,107.6445749440716,-97.40042057303076,-111.35100638193421,86.44993894993888,14.796116504854357,21.38947368421053,23.7808764940239,0.4980392156862763,18.142857142857146,-2.899543378995439,-3.48627450980392,11.14035087719299,12.016691475953069,80.11970435838212,35.86426192435687,1985.8094172801618,55.32401224138249,2135.7892702608033,0
-49.26532399299476,38.25814176245211,-20.069320017623735,107.6445749440716,-97.40042057303076,-111.35100638193421,86.44993894993888,14.796116504854357,1.3368421052631625,-9.613545816733073,3.4862745098039234,24.399014778325128,-2.899543378995439,-8.466666666666665,3.7134502923976687,8.588931756629927,60.61743218365017,35.86426192435687,1985.8094172801618,55.32401224138249,2135.7892702608033,0
-50.5998248686515,38.562260536398476,-19.84549860478778,107.71560402684565,-97.40042057303076,-111.10162002945503,86.13980463980465,14.796116504854357,1.3368421052631625,-9.613545816733073,3.4862745098039234,24.399014778325128,-2.899543378995439,-8.466666666666665,3.7134502923976687,8.588931756629927,60.61743218365017,36.33586133661259,2051.1953976027385,55.374454389343974,2142.2762533326545,0
-50.5998248686515,38.562260536398476,-19.84549860478778,107.71560402684565,-97.40042057303076,-111.10162002945503,86.13980463980465,11.097087378640765,8.021052631578952,-23.780876494023907,-7.470588235294116,9.384236453201975,2.8995433789954284,10.458823529411767,-17.08187134502923,11.274259930772018,41.37135385771125,36.33586133661259,2051.1953976027385,55.374454389343974,2142.2762533326545,0
-50.5998248686515,38.562260536398476,-19.84549860478778,107.71560402684565,-97.40042057303076,-111.10162002945503,86.13980463980465,3.6990291262135813,1.3368421052631625,-11.637450199203192,1.4941176470588253,14.38916256157636,24.936073059360726,6.4745098039215705,0.74269005847954,8.08873432013462,71.5768884755237,36.33586133661259,2051.1953976027385,55.374454389343974,2142.2762533326545,0
-50.78517221249271,37.58908045977012,-19.920105742399766,107.82214765100673,-97.51169718741787,-110.85223367697597,85.98473748473748,3.6990291262135813,1.3368421052631625,-11.637450199203192,1.4941176470588253,14.38916256157636,24.936073059360726,6.4745098039215705,0.74269005847954,8.08873432013462,71.5768884755237,36.0981194715542,2011.6612268700096,55.110444617725534,2161.9408943923872,0
-50.78517221249271,37.58908045977012,-19.920105742399766,107.82214765100673,-97.51169718741787,-110.85223367697597,85.98473748473748,-1.0658141036401503e-14,-2.673684210526311,-4.553784860557774,2.4901960784313744,36.91133004926109,15.657534246575338,-13.44705882352941,-14.111111111111104,11.23058742249905,144.66134028135636,36.0981194715542,2011.6612268700096,55.110444617725534,2161.9408943923872,0
-50.78517221249271,37.58908045977012,-19.920105742399766,107.82214765100673,-97.51169718741787,-110.85223367697597,85.98473748473748,16.02912621359222,12.031578947368425,26.81673306772908,0.4980392156862763,-4.37931034482758,8.698630136986296,-1.4941176470588218,-2.2280701754385888,9.021950718585911,81.70763515454472,36.0981194715542,2011.6612268700096,55.110444617725534,2161.9408943923872,0
-48.93169877408057,38.014846743295024,-20.162578939638713,107.99972035794185,-97.5562078331727,-110.97692685321545,86.29487179487171,16.02912621359222,12.031578947368425,26.81673306772908,0.4980392156862763,-4.37931034482758,8.698630136986296,-1.4941176470588218,-2.2280701754385888,9.021950718585911,81.70763515454472,35.703041485671434,1961.9961487578034,55.392382013625195,2155.324902188423,0
-48.93169877408057,38.014846743295024,-20.162578939638713,107.99972035794185,-97.5562078331727,-110.97692685321545,86.29487179487171,9.864077669902901,9.357894736842109,-10.625498007968133,-9.462745098039214,33.1576354679803,-7.538812785388135,-13.44705882352941,31.93567251461989,15.67367438803376,111.28221175996502,35.703041485671434,1961.9961487578034,55.392382013625195,2155.324902188423,0
-48.93169877408057,38.014846743295024,-20.162578939638713,107.99972035794185,-97.5562078331727,-110.97692685321545,86.29487179487171,14.796116504854357,17.378947368421056,43.00796812749003,6.4745098039215705,30.65517241379311,2.8995433789954284,0.4980392156862763,-2.2280701754385888,14.742295873575053,232.46206588810315,35.703041485671434,1961.9961487578034,55.392382013625195,2155.324902188423,0
-48.70928196147111,38.31896551724139,-20.08797180202673,108.0707494407159,-97.51169718741787,-111.22631320569462,86.60500610500605,14.796116504854357,17.378947368421056,43.00796812749003,6.4745098039215705,30.65517241379311,2.8995433789954284,0.4980392156862763,-2.2280701754385888,14.742295873575053,232.46206588810315,35.70540642691308,1967.4109302460097,55.492562253328,2156.4416088950497,0
-48.70928196147111,38.31896551724139,-20.08797180202673,108.0707494407159,-97.51169718741787,-111.22631320569462,86.60500610500605,14.796116504854357,6.684210526315794,-16.69721115537849,1.4941176470588253,21.896551724137936,7.538812785388123,7.4705882352941195,-11.140350877192976,10.964744931952577,42.71967319755909,35.70540642691308,1967.4109302460097,55.492562253328,2156.4416088950497,0
-48.70928196147111,38.31896551724139,-20.08797180202673,108.0707494407159,-97.51169718741787,-111.22631320569462,86.60500610500605,-1.0658141036401503e-14,-12.031578947368416,-13.661354581673312,0.4980392156862763,19.394088669950744,-0.5799086757990928,-16.435294117647057,-25.99415204678362,11.074302031863565,96.11428898069634,35.70540642691308,1967.4109302460097,55.492562253328,2156.4416088950497,0
-49.747227086981916,38.98802681992338,-19.920105742399766,108.14177852348996,-97.46718654166303,-111.22631320569462,86.60500610500605,-1.0658141036401503e-14,-12.031578947368416,-13.661354581673312,0.4980392156862763,19.394088669950744,-0.5799086757990928,-16.435294117647057,-25.99415204678362,11.074302031863565,96.11428898069634,36.218453216435016,2038.961755934603,55.683303695271036,2154.815089531826,0
-49.747227086981916,38.98802681992338,-19.920105742399766,108.14177852348996,-97.46718654166303,-111.22631320569462,86.60500610500605,14.796116504854357,2.67368421052632,-9.613545816733073,3.4862745098039234,19.394088669950744,17.977168949771684,-2.490196078431371,-6.684210526315782,9.639410658298408,48.21302099316188,36.218453216435016,2038.961755934603,55.683303695271036,2154.815089531826,0
-49.747227086981916,38.98802681992338,-19.920105742399766,108.14177852348996,-97.46718654166303,-111.22631320569462,86.60500610500605,12.330097087378629,12.031578947368425,-19.733067729083672,-3.48627450980392,18.142857142857146,22.61643835616438,1.4941176470588253,3.7134502923976687,11.693485214014084,65.87516233542756,36.218453216435016,2038.961755934603,55.683303695271036,2154.815089531826,0
-50.822241681260955,38.74473180076629,-19.920105742399766,108.24832214765104,-97.51169718741787,-111.10162002945503,86.44993894993888,12.330097087378629,12.031578947368425,-19.733067729083672,-3.48627450980392,18.142857142857146,22.61643835616438,1.4941176470588253,3.7134502923976687,11.693485214014084,65.87516233542756,36.495693074809004,2069.791318046682,55.637719896939025,2164.4982384463005,0
-50.822241681260955,38.74473180076629,-19.920105742399766,108.24832214765104,-97.51169718741787,-111.10162002945503,86.44993894993888,8.631067961165037,-2.673684210526311,1.5179282868525847,0.4980392156862763,21.896551724137936,22.61643835616438,-10.458823529411763,6.684210526315798,9.372092976282511,75.21928257272907,36.495693074809004,2069.791318046682,55.637719896939025,2164.4982384463005,0
-50.822241681260955,38.74473180076629,-19.920105742399766,108.24832214765104,-97.51169718741787,-111.10162002945503,86.44993894993888,3.6990291262135813,1.3368421052631625,-6.577689243027893,-2.490196078431371,13.137931034482763,20.29680365296803,3.4862745098039234,-24.508771929824555,9.441692210001909,78.45315759005727,36.495693074809004,2069.791318046682,55.637719896939025,2164.4982384463005,0
-49.85843549328664,38.74473180076629,-20.069320017623735,108.42589485458615,-97.53395251029528,-111.03927344133524,86.52747252747247,3.6990291262135813,1.3368421052631625,-6.577689243027893,-2.490196078431371,13.137931034482763,20.29680365296803,3.4862745098039234,-24.508771929824555,9.441692210001909,78.45315759005727,36.22416243722555,2032.8342244427627,55.746648890992056,2168.5199677871183,0
-49.85843549328664,38.74473180076629,-20.069320017623735,108.42589485458615,-97.53395251029528,-111.03927344133524,86.52747252747247,12.330097087378629,22.726315789473688,10.625498007968122,2.4901960784313744,24.399014778325128,-5.219178082191785,-4.482352941176469,-12.62573099415204,11.862297969887155,66.27977371354946,36.22416243722555,2032.8342244427627,55.746648890992056,2168.5199677871183,0
-49.85843549328664,38.74473180076629,-20.069320017623735,108.42589485458615,-97.53395251029528,-111.03927344133524,86.52747252747247,8.631067961165037,1.3368421052631625,-7.589641434262953,-1.4941176470588218,39.413793103448285,6.3789954337899495,-15.439215686274508,-36.391812865497066,14.584435779594973,227.33478338942152,36.22416243722555,2032.8342244427627,55.746648890992056,2168.5199677871183,0
-48.48686514886165,38.92720306513411,-20.12527537083272,108.53243847874722,-97.4449312187856,-111.22631320569462,86.68253968253964,8.631067961165037,1.3368421052631625,-7.589641434262953,-1.4941176470588218,39.413793103448285,6.3789954337899495,-15.439215686274508,-36.391812865497066,14.584435779594973,227.33478338942152,35.8464478616095,1988.799050981438,55.86163897157135,2169.037961799273,0
-48.48686514886165,38.92720306513411,-20.12527537083272,108.53243847874722,-97.4449312187856,-111.22631320569462,86.68253968253964,17.262135922330085,-6.684210526315784,1.5179282868525847,0.4980392156862763,15.640394088669956,28.415525114155248,31.376470588235296,20.052631578947377,15.180916915149075,134.31216911510077,35.8464478616095,1988.799050981438,55.86163897157135,2169.037961799273,0
-48.48686514886165,38.92720306513411,-20.12527537083272,108.53243847874722,-97.4449312187856,-111.22631320569462,86.68253968253964,9.864077669902901,4.010526315789478,-6.577689243027893,-1.4941176470588218,13.137931034482763,-28.41552511415526,-13.44705882352941,-12.62573099415204,11.196582105262321,68.03641424710517,35.8464478616095,1988.799050981438,55.86163897157135,2169.037961799273,0
-49.079976649153544,39.10967432950192,-20.162578939638713,108.56795302013424,-97.3336546043985,-111.4756995581738,86.76007326007323,9.864077669902901,4.010526315789478,-6.577689243027893,-1.4941176470588218,13.137931034482763,-28.41552511415526,-13.44705882352941,-12.62573099415204,11.196582105262321,68.03641424710517,36.117409972764726,2021.1384062714124,55.94673542975829,2166.492511448412,0
-49.079976649153544,39.10967432950192,-20.162578939638713,108.56795302013424,-97.3336546043985,-111.4756995581738,86.76007326007323,25.893203883495133,21.38947368421053,13.6613545816733,-1.4941176470588218,28.152709359605915,16.81735159817351,5.4784313725490215,3.7134502923976687,14.575011552395488,105.22659668720212,36.117409972764726,2021.1384062714124,55.94673542975829,2166.492511448412,0
-49.450671336835974,39.231321839080465,-20.032016448817743,108.67449664429532,-97.28914395864366,-111.60039273441328,86.99267399267399,25.893203883495133,21.38947368421053,13.6613545816733,-1.4941176470588218,28.152709359605915,16.81735159817351,5.4784313725490215,3.7134502923976687,14.575011552395488,105.22659668720212,36.23800320824473,2040.3494056832453,55.97927831073118,2174.7428582836387,0
-49.450671336835974,39.231321839080465,-20.032016448817743,108.67449664429532,-97.28914395864366,-111.60039273441328,86.99267399267399,12.330097087378629,4.440892098500626e-15,-13.661354581673312,-2.490196078431371,14.38916256157636,31.89497716894977,13.447058823529414,31.93567251461989,15.018564852019843,137.9221136829463,36.23800320824473,2040.3494056832453,55.97927831073118,2174.7428582836387,0
-49.450671336835974,39.231321839080465,-20.032016448817743,108.67449664429532,-97.28914395864366,-111.60039273441328,86.99267399267399,3.6990291262135813,-9.3578947368421,7.589641434262944,-4.482352941176469,19.394088669950744,4.0593607305936015,-5.478431372549018,-5.1988304093567175,7.407453677618147,27.090618327408215,36.23800320824473,2040.3494056832453,55.97927831073118,2174.7428582836387,0
-49.71015761821367,39.35296934865901,-20.27448964605669,108.85206935123045,-97.24463331288882,-111.60039273441328,86.9151404151404,3.6990291262135813,-9.3578947368421,7.589641434262944,-4.482352941176469,19.394088669950744,4.0593607305936015,-5.478431372549018,-5.1988304093567175,7.407453677618147,27.090618327408215,36.445872204309794,2059.022166708475,56.15984278198204,2173.350152559408,0
-49.71015761821367,39.35296934865901,-20.27448964605669,108.85206935123045,-97.24463331288882,-111.60039273441328,86.9151404151404,12.330097087378629,-1.3368421052631536,-11.637450199203192,3.4862745098039234,35.660098522167495,16.81735159817351,4.482352941176472,5.198830409356733,11.368662171565388,124.14517548965465,36.445872204309794,2059.022166708475,56.15984278198204,2173.350152559408,0
-49.71015761821367,39.35296934865901,-20.27448964605669,108.85206935123045,-97.24463331288882,-111.60039273441328,86.9151404151404,-1.0658141036401503e-14,-9.3578947368421,-20.74501992031873,0.4980392156862763,29.403940886699512,16.81735159817351,-4.482352941176469,2.2280701754386047,10.441583684291901,116.91879554472762,36.445872204309794,2059.022166708475,56.15984278198204,2173.350152559408,0
-49.8213660245184,39.10967432950192,-20.162578939638713,109.0651565995526,-97.2223779900114,-111.4756995581738,86.76007326007323,-1.0658141036401503e-14,-9.3578947368421,-20.74501992031873,0.4980392156862763,29.403940886699512,16.81735159817351,-4.482352941176469,2.2280701754386047,10.441583684291901,116.91879554472762,36.36453976455301,2050.262266232628,56.112469956231074,2192.7383729874946,0
-49.8213660245184,39.10967432950192,-20.162578939638713,109.0651565995526,-97.2223779900114,-111.4756995581738,86.76007326007323,14.796116504854357,4.010526315789478,10.625498007968122,-3.48627450980392,8.133004926108379,-19.13698630136987,-5.478431372549018,14.111111111111118,9.972243631194281,32.286605633074466,36.36453976455301,2050.262266232628,56.112469956231074,2192.7383729874946,0
-49.8213660245184,39.10967432950192,-20.162578939638713,109.0651565995526,-97.2223779900114,-111.4756995581738,86.76007326007323,6.165048543689309,-6.684210526315784,-6.577689243027893,6.4745098039215705,33.1576354679803,1.7397260273972552,-5.478431372549018,0.74269005847954,8.377492630420083,105.63327714395679,36.36453976455301,2050.262266232628,56.112469956231074,2192.7383729874946,0
-49.11704611792179,38.5014367816092,-20.33044499926568,109.0651565995526,-97.15561202137914,-111.78743249877266,87.07020757020757,6.165048543689309,-6.684210526315784,-6.577689243027893,6.4745098039215705,33.1576354679803,1.7397260273972552,-5.478431372549018,0.74269005847954,8.377492630420083,105.63327714395679,35.982975966265556,1994.4762105764758,55.965679460142496,2197.212089947551,0
-49.11704611792179,38.5014367816092,-20.33044499926568,109.0651565995526,-97.15561202137914,-111.78743249877266,87.07020757020757,3.6990291262135813,6.684210526315794,-1.5179282868525945,-3.48627450980392,21.896551724137936,19.13698630136986,-1.4941176470588218,-15.596491228070168,9.188948668727836,69.7845186090701,35.982975966265556,1994.4762105764758,55.965679460142496,2197.212089947551,0
-49.11704611792179,38.5014367816092,-20.33044499926568,109.0651565995526,-97.15561202137914,-111.78743249877266,87.07020757020757,7.398058252427173,2.67368421052632,-1.5179282868525945,-4.482352941176469,8.133004926108379,-15.657534246575349,9.462745098039218,-9.65497076023391,7.372534840242427,20.501062936390976,35.982975966265556,1994.4762105764758,55.965679460142496,2197.212089947551,0
-49.8213660245184,39.413793103448285,-20.18123072404171,109.10067114093962,-97.06659072986946,-111.78743249877266,86.99267399267399,7.398058252427173,2.67368421052632,-1.5179282868525945,-4.482352941176469,8.133004926108379,-15.657534246575349,9.462745098039218,-9.65497076023391,7.372534840242427,20.501062936390976,36.47212995066946,2065.503018370533,56.231898322809876,2188.8032183907026,0
-49.8213660245184,39.413793103448285,-20.18123072404171,109.10067114093962,-97.06659072986946,-111.78743249877266,86.99267399267399,8.631067961165037,-4.01052631578947,1.5179282868525847,3.4862745098039234,21.896551724137936,31.89497716894977,20.419607843137257,15.596491228070185,13.43167812973827,116.95964596928118,36.47212995066946,2065.503018370533,56.231898322809876,2188.8032183907026,0
-49.8213660245184,39.413793103448285,-20.18123072404171,109.10067114093962,-97.06659072986946,-111.78743249877266,86.99267399267399,11.097087378640765,-2.673684210526311,-2.5298804780876543,-0.49803921568627274,9.384236453201975,16.81735159817351,29.3843137254902,-9.65497076023391,10.254945477505075,89.02494027899421,36.47212995066946,2065.503018370533,56.231898322809876,2188.8032183907026,0
-50.451546993578525,39.04885057471265,-20.162578939638713,109.17170022371367,-97.0220800841146,-111.66273932253307,86.76007326007323,11.097087378640765,-2.673684210526311,-2.5298804780876543,-0.49803921568627274,9.384236453201975,16.81735159817351,29.3843137254902,-9.65497076023391,10.254945477505075,89.02494027899421,36.5543255026433,2072.289355964628,56.127709912688346,2199.421495155561,0
-50.451546993578525,39.04885057471265,-20.162578939638713,109.17170022371367,-97.0220800841146,-111.66273932253307,86.76007326007323,17.262135922330085,8.021052631578952,-13.661354581673312,3.4862745098039234,28.152709359605915,12.178082191780817,1.4941176470588253,2.2280701754386047,10.810474627408805,82.03598027583146,36.5543255026433,2072.289355964628,56.127709912688346,2199.421495155561,0
-50.451546993578525,39.04885057471265,-20.162578939638713,109.17170022371367,-97.0220800841146,-111.66273932253307,86.76007326007323,13.563106796116493,5.347368421052636,-3.541832669322714,5.4784313725490215,35.660098522167495,15.657534246575338,3.4862745098039234,-8.169590643274846,11.363029647607808,116.83711261499934,36.5543255026433,2072.289355964628,56.127709912688346,2199.421495155561,0
-49.78429655575016,39.10967432950192,-20.106623586429727,109.27824384787473,-96.95531411548235,-111.66273932253307,86.68253968253964,13.563106796116493,5.347368421052636,-3.541832669322714,5.4784313725490215,35.660098522167495,15.657534246575338,3.4862745098039234,-8.169590643274846,11.363029647607808,116.83711261499934,36.3335314905606,2048.2453785817247,56.16484725460213,2206.0536576416407,0
-49.78429655575016,39.10967432950192,-20.106623586429727,109.27824384787473,-96.95531411548235,-111.66273932253307,86.68253968253964,7.398058252427173,13.368421052631582,-1.5179282868525945,-3.48627450980392,18.142857142857146,14.497716894977163,-0.49803921568627274,-2.2280701754385888,7.6421706913343055,46.46305440352024,36.3335314905606,2048.2453785817247,56.16484725460213,2206.0536576416407,0
-49.78429655575016,39.10967432950192,-20.106623586429727,109.27824384787473,-96.95531411548235,-111.66273932253307,86.68253968253964,11.097087378640765,14.705263157894741,-1.5179282868525945,-1.4941176470588218,18.142857142857146,29.57534246575342,-5.478431372549018,-14.111111111111104,12.015267320339701,88.8563186845988,36.3335314905606,2048.2453785817247,56.16484725460213,2206.0536576416407,0
-49.41360186806773,39.10967432950192,-20.106623586429727,109.38478747203581,-96.91080346972751,-111.72508591065287,86.76007326007323,11.097087378640765,14.705263157894741,-1.5179282868525945,-1.4941176470588218,18.142857142857146,29.57534246575342,-5.478431372549018,-14.111111111111104,12.015267320339701,88.8563186845988,36.20996659466646,2033.6398906033287,56.20036179598915,2211.7163352541425,0
-49.41360186806773,39.10967432950192,-20.106623586429727,109.38478747203581,-96.91080346972751,-111.72508591065287,86.76007326007323,6.165048543689309,5.347368421052636,0.505976095617525,-0.49803921568627274,13.137931034482763,1.7397260273972552,9.462745098039218,-17.08187134502923,6.742338222624276,37.19985453370811,36.20996659466646,2033.6398906033287,56.20036179598915,2211.7163352541425,0
-49.41360186806773,39.10967432950192,-20.106623586429727,109.38478747203581,-96.91080346972751,-111.72508591065287,86.76007326007323,9.864077669902901,2.67368421052632,-19.733067729083672,-4.482352941176469,9.384236453201975,9.85844748858447,-6.474509803921567,18.567251461988313,10.12970346979821,37.85170158365745,36.20996659466646,2033.6398906033287,56.20036179598915,2211.7163352541425,0
-50.41447752481029,38.98802681992338,-20.367748568071672,109.42030201342284,-96.84403750109524,-111.66273932253307,86.44993894993888,9.864077669902901,2.67368421052632,-19.733067729083672,-4.482352941176469,9.384236453201975,9.85844748858447,-6.474509803921567,18.567251461988313,10.12970346979821,37.85170158365745,36.59008430426845,2069.7869626699926,56.2586924671393,2206.2962377077247,0
-50.41447752481029,38.98802681992338,-20.367748568071672,109.42030201342284,-96.84403750109524,-111.66273932253307,86.44993894993888,22.19417475728154,30.747368421052634,15.685258964143422,1.4941176470588253,35.660098522167495,23.77625570776255,3.4862745098039234,6.684210526315798,17.465969881948276,162.79238648066024,36.59008430426845,2069.7869626699926,56.2586924671393,2206.2962377077247,0
-50.41447752481029,38.98802681992338,-20.367748568071672,109.42030201342284,-96.84403750109524,-111.66273932253307,86.44993894993888,6.165048543689309,9.357894736842109,13.6613545816733,0.4980392156862763,-13.137931034482754,12.178082191780817,-3.48627450980392,-5.1988304093567175,7.960431902914401,23.657675170069457,36.59008430426845,2069.7869626699926,56.2586924671393,2206.2962377077247,0
-50.3403385872738,39.413793103448285,-20.33044499926568,109.49133109619689,-96.75501620958556,-111.5380461462936,86.21733821733824,6.165048543689309,9.357894736842109,13.6613545816733,0.4980392156862763,-13.137931034482754,12.178082191780817,-3.48627450980392,-5.1988304093567175,7.960431902914401,23.657675170069457,36.69485889666259,2087.6286425321387,56.41185639963695,2204.1165192634126,0
-50.3403385872738,39.413793103448285,-20.33044499926568,109.49133109619689,-96.75501620958556,-111.5380461462936,86.21733821733824,8.631067961165037,-6.684210526315784,-28.840637450199207,1.4941176470588253,25.650246305418726,12.178082191780817,-18.427450980392155,-23.02339181286549,15.616150609399504,96.88054619225015,36.69485889666259,2087.6286425321387,56.41185639963695,2204.1165192634126,0
-50.3403385872738,39.413793103448285,-20.33044499926568,109.49133109619689,-96.75501620958556,-111.5380461462936,86.21733821733824,17.262135922330085,10.694736842105268,10.625498007968122,0.4980392156862763,36.91133004926109,16.81735159817351,-8.466666666666665,-15.596491228070168,14.609031191282648,111.18888982448742,36.69485889666259,2087.6286425321387,56.41185639963695,2204.1165192634126,0
-49.71015761821367,38.74473180076629,-20.162578939638713,109.49133109619689,-96.68825024095331,-111.66273932253307,86.29487179487171,17.262135922330085,10.694736842105268,10.625498007968122,0.4980392156862763,36.91133004926109,16.81735159817351,-8.466666666666665,-15.596491228070168,14.609031191282648,111.18888982448742,36.20582278620623,2027.899687759531,56.13288061220063,2221.667279778388,0
-49.71015761821367,38.74473180076629,-20.162578939638713,109.49133109619689,-96.68825024095331,-111.66273932253307,86.29487179487171,13.563106796116493,4.010526315789478,-19.733067729083672,-2.490196078431371,31.906403940886705,15.657534246575338,5.4784313725490215,-5.1988304093567175,12.2547621110986,102.06024423655558,36.20582278620623,2027.899687759531,56.13288061220063,2221.667279778388,0
-49.71015761821367,38.74473180076629,-20.162578939638713,109.49133109619689,-96.68825024095331,-111.66273932253307,86.29487179487171,8.631067961165037,5.347368421052636,4.553784860557764,-8.466666666666665,20.64532019704434,-14.497716894977174,-2.490196078431371,-17.08187134502923,10.214249053115527,42.181208684485405,36.20582278620623,2027.899687759531,56.13288061220063,2221.667279778388,0
-50.74810274372447,39.231321839080465,-19.976061095608753,109.5268456375839,-96.64373959519847,-111.5380461462936,85.98473748473748,8.631067961165037,5.347368421052636,4.553784860557764,-8.466666666666665,20.64532019704434,-14.497716894977174,-2.490196078431371,-17.08187134502923,10.214249053115527,42.181208684485405,36.651828559471234,2091.454931570163,56.24474285742437,2221.9281240813834,0
-50.74810274372447,39.231321839080465,-19.976061095608753,109.5268456375839,-96.64373959519847,-111.5380461462936,85.98473748473748,6.165048543689309,-8.021052631578943,-7.589641434262953,-10.458823529411763,28.152709359605915,8.698630136986296,-21.415686274509802,-25.99415204678362,14.561967994603574,82.21374719483624,36.651828559471234,2091.454931570163,56.24474285742437,2221.9281240813834,0
-50.74810274372447,39.231321839080465,-19.976061095608753,109.5268456375839,-96.64373959519847,-111.5380461462936,85.98473748473748,9.864077669902901,1.3368421052631625,-8.601593625498012,5.4784313725490215,35.660098522167495,42.33333333333333,17.43137254901961,8.169590643274862,16.10941747762605,223.04712064141023,36.651828559471234,2091.454931570163,56.24474285742437,2221.9281240813834,0
-51.6377699941623,39.29214559386974,-19.901453957996768,109.5268456375839,-96.62148427232104,-111.16396661757483,85.51953601953596,9.864077669902901,1.3368421052631625,-8.601593625498012,5.4784313725490215,35.660098522167495,42.33333333333333,17.43137254901961,8.169590643274862,16.10941747762605,223.04712064141023,36.94378984867627,2129.88758871679,56.24014839648348,2223.603807677904,0
-51.6377699941623,39.29214559386974,-19.901453957996768,109.5268456375839,-96.62148427232104,-111.16396661757483,85.51953601953596,12.330097087378629,8.021052631578952,7.589641434262944,0.4980392156862763,14.38916256157636,14.497716894977163,-3.48627450980392,3.7134502923976687,8.065679328457739,28.13620469284213,36.94378984867627,2129.88758871679,56.24014839648348,2223.603807677904,0
-51.6377699941623,39.29214559386974,-19.901453957996768,109.5268456375839,-96.62148427232104,-111.16396661757483,85.51953601953596,11.097087378640765,10.694736842105268,21.75697211155378,3.4862745098039234,40.66502463054188,19.13698630136986,-9.462745098039214,-5.1988304093567175,15.187332160176426,144.89172571436987,36.94378984867627,2129.88758871679,56.24014839648348,2223.603807677904,0
-51.93432574430824,38.31896551724139,-20.013364664414745,109.5268456375839,-96.66599491807588,-110.72754050073638,84.97680097680097,11.097087378640765,10.694736842105268,21.75697211155378,3.4862745098039234,40.66502463054188,19.13698630136986,-9.462745098039214,-5.1988304093567175,15.187332160176426,144.89172571436987,36.75555197532146,2094.5441807046564,55.95305860641335,2236.3867482916658,0
-51.93432574430824,38.31896551724139,-20.013364664414745,109.5268456375839,-96.66599491807588,-110.72754050073638,84.97680097680097,4.932038834951445,-1.3368421052631536,-35.92430278884463,-0.49803921568627274,8.133004926108379,11.018264840182644,7.4705882352941195,-3.713450292397653,9.128316404841037,129.6362536550909,36.75555197532146,2094.5441807046564,55.95305860641335,2236.3867482916658,0
-51.93432574430824,38.31896551724139,-20.013364664414745,109.5268456375839,-96.66599491807588,-110.72754050073638,84.97680097680097,9.864077669902901,8.021052631578952,-8.601593625498012,2.4901960784313744,28.152709359605915,14.497716894977163,6.4745098039215705,2.2280701754386047,10.041240779919312,69.26515502318104,36.75555197532146,2094.5441807046564,55.95305860641335,2236.3867482916658,0
-50.63689433741974,38.68390804597702,-20.08797180202673,109.66890380313201,-96.68825024095331,-110.4781541482572,84.66666666666663,9.864077669902901,8.021052631578952,-8.601593625498012,2.4901960784313744,28.152709359605915,14.497716894977163,6.4745098039215705,2.2280701754386047,10.041240779919312,69.26515502318104,36.469591395141165,2060.929377892575,56.14692788371192,2234.903640936504,0
-50.63689433741974,38.68390804597702,-20.08797180202673,109.66890380313201,-96.68825024095331,-110.4781541482572,84.66666666666663,13.563106796116493,1.3368421052631625,26.81673306772908,0.4980392156862763,26.90147783251232,13.33789954337899,-3.48627450980392,14.111111111111118,12.50643552270017,109.52991899229451,36.469591395141165,2060.929377892575,56.14692788371192,2234.903640936504,0
-50.63689433741974,38.68390804597702,-20.08797180202673,109.66890380313201,-96.68825024095331,-110.4781541482572,84.66666666666663,11.097087378640765,2.67368421052632,-22.76892430278885,-1.4941176470588218,26.90147783251232,8.698630136986296,-17.431372549019606,-28.964912280701746,15.00377579227934,113.1740715715694,36.469591395141165,2060.929377892575,56.14692788371192,2234.903640936504,0
-49.8213660245184,38.68390804597702,-20.12527537083272,109.70441834451904,-96.64373959519847,-110.4781541482572,84.74420024420021,11.097087378640765,2.67368421052632,-22.76892430278885,-1.4941176470588218,26.90147783251232,8.698630136986296,-17.431372549019606,-28.964912280701746,15.00377579227934,113.1740715715694,36.21018314710938,2028.926898759566,56.17120058710959,2235.4597642893973,0
-49.8213660245184,38.68390804597702,-20.12527537083272,109.70441834451904,-96.64373959519847,-110.4781541482572,84.74420024420021,13.563106796116493,8.021052631578952,-2.5298804780876543,-5.478431372549018,10.635467980295571,19.13698630136986,-6.474509803921567,-31.935672514619874,12.221888484817374,90.12229596527156,36.21018314710938,2028.926898759566,56.17120058710959,2235.4597642893973,0
-49.8213660245184,38.68390804597702,-20.12527537083272,109.70441834451904,-96.64373959519847,-110.4781541482572,84.74420024420021,3.6990291262135813,-1.3368421052631536,0.505976095617525,-0.49803921568627274,25.650246305418726,22.61643835616438,3.4862745098039234,2.2280701754386047,7.5026144862007715,107.45957874907133,36.21018314710938,2028.926898759566,56.17120058710959,2235.4597642893973,0
-49.96964389959137,38.5014367816092,-20.18123072404171,109.63338926174498,-96.5769736265662,-110.66519391261659,84.74420024420021,3.6990291262135813,-1.3368421052631536,0.505976095617525,-0.49803921568627274,25.650246305418726,22.61643835616438,3.4862745098039234,2.2280701754386047,7.5026144862007715,107.45957874907133,36.21743713508076,2026.3561903325897,56.10535225579863,2232.8455467804047,0
-49.96964389959137,38.5014367816092,-20.18123072404171,109.63338926174498,-96.5769736265662,-110.66519391261659,84.74420024420021,7.398058252427173,1.3368421052631625,-1.5179282868525945,4.482352941176472,41.91625615763547,12.178082191780817,-2.490196078431371,12.625730994152054,10.493180875964889,181.27823193089975,36.21743713508076,2026.3561903325897,56.10535225579863,2232.8455467804047,0
-49.96964389959137,38.5014367816092,-20.18123072404171,109.63338926174498,-96.5769736265662,-110.66519391261659,84.74420024420021,18.49514563106795,14.705263157894741,-19.733067729083672,-2.490196078431371,23.14778325123153,15.657534246575338,4.482352941176472,-11.140350877192976,13.731461739081755,52.95186238813993,36.21743713508076,2026.3561903325897,56.10535225579863,2232.8455467804047,0
-51.26707530647987,38.805555555555564,-20.218534292847703,109.59787472035796,-96.55471830368879,-110.4781541482572,84.43406593406587,18.49514563106795,14.705263157894741,-19.733067729083672,-2.490196078431371,23.14778325123153,15.657534246575338,4.482352941176472,-11.140350877192976,13.731461739081755,52.95186238813993,36.76372171829438,2093.4889853193463,56.20732152292041,2224.2827179013957,0
-51.26707530647987,38.805555555555564,-20.218534292847703,109.59787472035796,-96.55471830368879,-110.4781541482572,84.43406593406587,8.631067961165037,-2.673684210526311,5.565737051792824,1.4941176470588253,15.640394088669956,22.61643835616438,-0.49803921568627274,3.7134502923976687,7.604116102932659,60.34800736104804,36.76372171829438,2093.4889853193463,56.20732152292041,2224.2827179013957,0
-51.26707530647987,38.805555555555564,-20.218534292847703,109.59787472035796,-96.55471830368879,-110.4781541482572,84.43406593406587,4.932038834951445,-6.684210526315784,8.601593625498003,7.4705882352941195,18.142857142857146,-0.5799086757990928,-5.478431372549018,12.625730994152054,8.064419925927083,28.206240256342188,36.76372171829438,2093.4889853193463,56.20732152292041,2224.2827179013957,0
-51.044658493870415,38.5014367816092,-20.367748568071672,109.59787472035796,-96.51020765793395,-110.16642120765835,84.04639804639805,4.932038834951445,-6.684210526315784,8.601593625498003,7.4705882352941195,18.142857142857146,-0.5799086757990928,-5.478431372549018,12.625730994152054,8.064419925927083,28.206240256342188,36.63794794785043,2070.8594942359873,56.15568669001295,2224.2582581595116,0
-51.044658493870415,38.5014367816092,-20.367748568071672,109.59787472035796,-96.51020765793395,-110.16642120765835,84.04639804639805,7.398058252427173,1.3368421052631625,-16.69721115537849,0.4980392156862763,18.142857142857146,0.5799086757990821,8.466666666666669,11.14035087719299,8.032491761408874,49.241049494480684,36.63794794785043,2070.8594942359873,56.15568669001295,2224.2582581595116,0
-51.044658493870415,38.5014367816092,-20.367748568071672,109.59787472035796,-96.51020765793395,-110.16642120765835,84.04639804639805,11.097087378640765,14.705263157894741,8.601593625498003,6.4745098039215705,11.886699507389167,12.178082191780817,0.4980392156862763,6.684210526315798,9.015685675890893,19.937445964128933,36.63794794785043,2070.8594942359873,56.15568669001295,2224.2582581595116,0
-49.895504962054886,38.98802681992338,-20.498311058892643,109.59787472035796,-96.39893104354684,-110.16642120765835,83.73626373626371,11.097087378640765,14.705263157894741,8.601593625498003,6.4745098039215705,11.886699507389167,12.178082191780817,0.4980392156862763,6.684210526315798,9.015685675890893,19.937445964128933,36.4606142802903,2050.5169376084536,56.36140419972466,2211.0587423516213,0
-49.895504962054886,38.98802681992338,-20.498311058892643,109.59787472035796,-96.39893104354684,-110.16642120765835,83.73626373626371,7.398058252427173,6.684210526315794,-10.625498007968133,4.482352941176472,13.137931034482763,16.81735159817351,4.482352941176472,-6.684210526315782,8.788995728504512,19.232824234351252,36.4606142802903,2050.5169376084536,56.36140419972466,2211.0587423516213,0
-49.895504962054886,38.98802681992338,-20.498311058892643,109.59787472035796,-96.39893104354684,-110.16642120765835,83.73626373626371,7.398058252427173,-4.01052631578947,-8.601593625498012,-0.49803921568627274,20.64532019704434,-5.219178082191785,3.4862745098039234,5.198830409356733,6.882227575974714,36.968800772791404,36.4606142802903,2050.5169376084536,56.36140419972466,2211.0587423516213,0
-50.303269118505554,38.68390804597702,-20.42370392128066,109.56236017897095,-96.33216507491458,-110.22876779577803,83.65873015873012,7.398058252427173,-4.01052631578947,-8.601593625498012,-0.49803921568627274,20.64532019704434,-5.219178082191785,3.4862745098039234,5.198830409356733,6.882227575974714,36.968800772791404,36.47029369525441,2050.8693180916875,56.22332404874288,2217.148345145226,0
-50.303269118505554,38.68390804597702,-20.42370392128066,109.56236017897095,-96.33216507491458,-110.22876779577803,83.65873015873012,12.330097087378629,13.368421052631582,19.73306772908366,1.4941176470588253,26.90147783251232,9.85844748858447,4.482352941176472,-5.1988304093567175,11.670851523472834,71.52856355396443,36.47029369525441,2050.8693180916875,56.22332404874288,2217.148345145226,0
-50.303269118505554,38.68390804597702,-20.42370392128066,109.56236017897095,-96.33216507491458,-110.22876779577803,83.65873015873012,13.563106796116493,13.368421052631582,-3.541832669322714,-5.478431372549018,13.137931034482763,7.538812785388123,-6.474509803921567,-11.140350877192976,9.280424548950656,15.955103263199366,36.47029369525441,2050.8693180916875,56.22332404874288,2217.148345145226,0
-51.192936368943386,38.86637931034483,-20.40505213687766,109.45581655480987,-96.26539910628232,-110.10407461953855,83.34859584859578,13.563106796116493,13.368421052631582,-3.541832669322714,-5.478431372549018,13.137931034482763,7.538812785388123,-6.474509803921567,-11.140350877192976,9.280424548950656,15.955103263199366,36.82145593872196,2095.2794569852613,56.24241600067745,2208.9546491523547,0
-51.192936368943386,38.86637931034483,-20.40505213687766,109.45581655480987,-96.26539910628232,-110.10407461953855,83.34859584859578,7.398058252427173,4.440892098500626e-15,-7.589641434262953,2.4901960784313744,24.399014778325128,-1.739726027397266,-18.427450980392155,-21.538011695906427,10.44776240589281,92.44065020674488,36.82145593872196,2095.2794569852613,56.24241600067745,2208.9546491523547,0
-51.192936368943386,38.86637931034483,-20.40505213687766,109.45581655480987,-96.26539910628232,-110.10407461953855,83.34859584859578,7.398058252427173,-10.694736842105257,-16.69721115537849,-3.48627450980392,16.89162561576355,2.8995433789954284,5.4784313725490215,2.2280701754386047,8.22174391280768,35.42784619586808,36.82145593872196,2095.2794569852613,56.24241600067745,2208.9546491523547,0
-51.6377699941623,38.5014367816092,-20.42370392128066,109.38478747203581,-96.19863313765005,-109.79234167893958,82.80586080586079,7.398058252427173,-10.694736842105257,-16.69721115537849,-3.48627450980392,16.89162561576355,2.8995433789954284,5.4784313725490215,2.2280701754386047,8.22174391280768,35.42784619586808,36.854303565684056,2095.2611209704796,56.10330939164189,2210.888036165974,0
-51.6377699941623,38.5014367816092,-20.42370392128066,109.38478747203581,-96.19863313765005,-109.79234167893958,82.80586080586079,8.631067961165037,2.67368421052632,-17.70916334661355,4.482352941176472,15.640394088669956,5.2191780821917755,-1.4941176470588218,14.111111111111118,8.74513367356413,39.535509060292675,36.854303565684056,2095.2611209704796,56.10330939164189,2210.888036165974,0
-51.6377699941623,38.5014367816092,-20.42370392128066,109.38478747203581,-96.19863313765005,-109.79234167893958,82.80586080586079,4.932038834951445,-16.04210526315789,-1.5179282868525945,3.4862745098039234,14.38916256157636,17.977168949771684,-17.431372549019606,-21.538011695906427,12.164257831379992,58.62061647242139,36.854303565684056,2095.2611209704796,56.10330939164189,2210.888036165974,0
-50.0808523058961,38.92720306513411,-20.27448964605669,109.42030201342284,-96.1318671690178,-109.72999509081978,82.65079365079362,4.932038834951445,-16.04210526315789,-1.5179282868525945,3.4862745098039234,14.38916256157636,17.977168949771684,-17.431372549019606,-21.538011695906427,12.164257831379992,58.62061647242139,36.42751500569563,2052.615599302085,56.207331574871205,2210.6960966441848,0
-50.0808523058961,38.92720306513411,-20.27448964605669,109.42030201342284,-96.1318671690178,-109.72999509081978,82.65079365079362,17.262135922330085,4.010526315789478,12.649402390438242,-2.490196078431371,16.89162561576355,13.33789954337899,12.450980392156865,-6.684210526315782,10.722122098075545,31.927865749279015,36.42751500569563,2052.615599302085,56.207331574871205,2210.6960966441848,0
-50.0808523058961,38.92720306513411,-20.27448964605669,109.42030201342284,-96.1318671690178,-109.72999509081978,82.65079365079362,3.6990291262135813,1.3368421052631625,0.505976095617525,-0.49803921568627274,28.152709359605915,20.29680365296803,9.462745098039218,8.169590643274862,9.01521691208357,103.80028132400942,36.42751500569563,2052.615599302085,56.207331574871205,2210.6960966441848,0
-50.525685931115014,38.74473180076629,-20.367748568071672,109.3492729306488,-96.04284587750811,-109.66764850269999,82.34065934065927,3.6990291262135813,1.3368421052631625,0.505976095617525,-0.49803921568627274,28.152709359605915,20.29680365296803,9.462745098039218,8.169590643274862,9.01521691208357,103.80028132400942,36.54605543331766,2062.165667229014,56.15391776649559,2206.737736463986,0
-50.525685931115014,38.74473180076629,-20.367748568071672,109.3492729306488,-96.04284587750811,-109.66764850269999,82.34065934065927,23.427184466019405,13.368421052631582,3.5418326693227042,-0.49803921568627274,28.152709359605915,17.977168949771684,-0.49803921568627274,-6.684210526315782,11.768450681879953,113.2927406720016,36.54605543331766,2062.165667229014,56.15391776649559,2206.737736463986,0
-50.525685931115014,38.74473180076629,-20.367748568071672,109.3492729306488,-96.04284587750811,-109.66764850269999,82.34065934065927,13.563106796116493,14.705263157894741,0.505976095617525,-2.490196078431371,11.886699507389167,16.81735159817351,9.462745098039218,-5.1988304093567175,9.328771092627342,35.8771829151893,36.54605543331766,2062.165667229014,56.15391776649559,2206.737736463986,0
-51.15586690017514,39.35296934865901,-20.40505213687766,109.27824384787473,-95.90931394024359,-109.41826215022093,81.79792429792428,13.563106796116493,14.705263157894741,0.505976095617525,-2.490196078431371,11.886699507389167,16.81735159817351,9.462745098039218,-5.1988304093567175,9.328771092627342,35.8771829151893,36.9712961285706,2118.0805299317954,56.3454217778038,2191.1686308924714,0
-51.15586690017514,39.35296934865901,-20.40505213687766,109.27824384787473,-95.90931394024359,-109.41826215022093,81.79792429792428,7.398058252427173,6.684210526315794,0.505976095617525,-6.474509803921567,9.384236453201975,11.018264840182644,23.407843137254904,2.2280701754386047,8.387646160545025,48.73169018625779,36.9712961285706,2118.0805299317954,56.3454217778038,2191.1686308924714,0
-51.15586690017514,39.35296934865901,-20.40505213687766,109.27824384787473,-95.90931394024359,-109.41826215022093,81.79792429792428,6.165048543689309,1.3368421052631625,6.5776892430278835,6.4745098039215705,29.403940886699512,6.3789954337899495,-3.48627450980392,-2.2280701754385888,7.7564213377042375,80.86934238180608,36.9712961285706,2118.0805299317954,56.3454217778038,2191.1686308924714,0
-51.00758902510217,38.86637931034483,-20.42370392128066,109.27824384787473,-95.86480329448875,-109.16887579774175,81.41025641025635,6.165048543689309,1.3368421052631625,6.5776892430278835,6.4745098039215705,29.403940886699512,6.3789954337899495,-3.48627450980392,-2.2280701754385888,7.7564213377042375,80.86934238180608,36.765890752242555,2088.003030336294,56.18944235983341,2198.8487014540924,0
-51.00758902510217,38.86637931034483,-20.42370392128066,109.27824384787473,-95.86480329448875,-109.16887579774175,81.41025641025635,8.631067961165037,-6.684210526315784,-12.64940239043825,3.4862745098039234,23.14778325123153,14.497716894977163,3.4862745098039234,6.684210526315798,9.908367571256425,44.10942240242954,36.765890752242555,2088.003030336294,56.18944235983341,2198.8487014540924,0
-51.00758902510217,38.86637931034483,-20.42370392128066,109.27824384787473,-95.86480329448875,-109.16887579774175,81.41025641025635,14.796116504854357,9.357894736842109,3.5418326693227042,0.4980392156862763,9.384236453201975,-1.739726027397266,18.42745098039216,-2.2280701754385888,7.496670845391929,43.61615370530459,36.765890752242555,2088.003030336294,56.18944235983341,2198.8487014540924,0
-50.26619964973732,39.29214559386974,-20.516962843295637,109.38478747203581,-95.79803732585648,-109.10652920962195,81.1776556776556,14.796116504854357,9.357894736842109,3.5418326693227042,0.4980392156862763,9.384236453201975,-1.739726027397266,18.42745098039216,-2.2280701754385888,7.496670845391929,43.61615370530459,36.691769362300896,2080.4739575645776,56.39796530306706,2193.8293645038025,0
-50.26619964973732,39.29214559386974,-20.516962843295637,109.38478747203581,-95.79803732585648,-109.10652920962195,81.1776556776556,6.165048543689309,1.3368421052631625,-1.5179282868525945,-1.4941176470588218,20.64532019704434,-0.5799086757990928,-6.474509803921567,-12.62573099415204,6.354925781722617,49.87781587237565,36.691769362300896,2080.4739575645776,56.39796530306706,2193.8293645038025,0
-50.26619964973732,39.29214559386974,-20.516962843295637,109.38478747203581,-95.79803732585648,-109.10652920962195,81.1776556776556,11.097087378640765,-10.694736842105257,-17.70916334661355,2.4901960784313744,34.40886699507389,27.255707762557073,6.4745098039215705,-3.713450292397653,14.230464812467641,131.40599727484198,36.691769362300896,2080.4739575645776,56.39796530306706,2193.8293645038025,0
-50.26619964973732,39.413793103448285,-20.18123072404171,109.49133109619689,-95.73127135722423,-108.98183603338236,80.94505494505495,11.097087378640765,-10.694736842105257,-17.70916334661355,2.4901960784313744,34.40886699507389,27.255707762557073,6.4745098039215705,-3.713450292397653,14.230464812467641,131.40599727484198,36.62040782574244,2083.1955534117656,56.36211830789563,2209.507802547887,0
-50.26619964973732,39.413793103448285,-20.18123072404171,109.49133109619689,-95.73127135722423,-108.98183603338236,80.94505494505495,6.165048543689309,9.357894736842109,21.75697211155378,2.4901960784313744,18.142857142857146,1.7397260273972552,4.482352941176472,2.2280701754386047,8.295389719673256,58.84038588088846,36.62040782574244,2083.1955534117656,56.36211830789563,2209.507802547887,0
-50.26619964973732,39.413793103448285,-20.18123072404171,109.49133109619689,-95.73127135722423,-108.98183603338236,80.94505494505495,8.631067961165037,2.67368421052632,5.565737051792824,-6.474509803921567,18.142857142857146,-5.219178082191785,-3.48627450980392,-5.1988304093567175,6.924017396451914,23.798503575772525,36.62040782574244,2083.1955534117656,56.36211830789563,2209.507802547887,0
-51.23000583771163,38.92720306513411,-19.99471288001175,109.5268456375839,-95.7090160343468,-108.6701030927835,80.55738705738702,8.631067961165037,2.67368421052632,5.565737051792824,-6.474509803921567,18.142857142857146,-5.219178082191785,-3.48627450980392,-5.1988304093567175,6.924017396451914,23.798503575772525,36.717307260952495,2095.959670325256,56.14958719424325,2226.4585853478243,0
-51.23000583771163,38.92720306513411,-19.99471288001175,109.5268456375839,-95.7090160343468,-108.6701030927835,80.55738705738702,9.864077669902901,1.3368421052631625,-0.5059760956175348,-2.490196078431371,36.91133004926109,26.0958904109589,-8.466666666666665,15.596491228070185,12.658433788021476,168.86192301469126,36.717307260952495,2095.959670325256,56.14958719424325,2226.4585853478243,0
-51.23000583771163,38.92720306513411,-19.99471288001175,109.5268456375839,-95.7090160343468,-108.6701030927835,80.55738705738702,9.864077669902901,6.684210526315794,-18.72111553784861,-6.474509803921567,15.640394088669956,-16.817351598173524,0.4980392156862763,-0.7426900584795244,9.43029856237477,50.16839551787677,36.717307260952495,2095.959670325256,56.14958719424325,2226.4585853478243,0
-51.30414477524811,38.5014367816092,-19.882802173593774,109.59787472035796,-95.77578200297907,-108.35837015218453,80.24725274725267,9.864077669902901,6.684210526315794,-18.72111553784861,-6.474509803921567,15.640394088669956,-16.817351598173524,0.4980392156862763,-0.7426900584795244,9.43029856237477,50.16839551787677,36.562794576817026,2076.843768005688,55.99403789185365,2241.6918807193842,0
-51.30414477524811,38.5014367816092,-19.882802173593774,109.59787472035796,-95.77578200297907,-108.35837015218453,80.24725274725267,7.398058252427173,-6.684210526315784,-6.577689243027893,-2.490196078431371,15.640394088669956,7.538812785388123,4.482352941176472,0.74269005847954,6.4443004967395385,19.820519898478263,36.562794576817026,2076.843768005688,55.99403789185365,2241.6918807193842,0
-51.30414477524811,38.5014367816092,-19.882802173593774,109.59787472035796,-95.77578200297907,-108.35837015218453,80.24725274725267,12.330097087378629,22.726315789473688,5.565737051792824,2.4901960784313744,38.16256157635468,20.29680365296803,-24.40392156862745,-9.65497076023391,16.953825445657575,137.6212634222971,36.562794576817026,2076.843768005688,55.99403789185365,2241.6918807193842,0
-50.525685931115014,38.562260536398476,-19.80819503598179,109.66890380313201,-95.79803732585648,-108.23367697594495,80.09218559218561,12.330097087378629,22.726315789473688,5.565737051792824,2.4901960784313744,38.16256157635468,20.29680365296803,-24.40392156862745,-9.65497076023391,16.953825445657575,137.6212634222971,36.29871383449842,2047.8894227363933,56.013119791837426,2247.136111598502,0
-50.525685931115014,38.562260536398476,-19.80819503598179,109.66890380313201,-95.79803732585648,-108.23367697594495,80.09218559218561,11.097087378640765,20.05263157894737,-2.5298804780876543,-3.48627450980392,16.89162561576355,5.2191780821917755,-10.458823529411763,-8.169590643274846,9.738136477015207,39.12191529376021,36.29871383449842,2047.8894227363933,56.013119791837426,2247.136111598502,0
-50.525685931115014,38.562260536398476,-19.80819503598179,109.66890380313201,-95.79803732585648,-108.23367697594495,80.09218559218561,13.563106796116493,5.347368421052636,6.5776892430278835,10.458823529411767,36.91133004926109,40.013698630136986,4.482352941176472,9.654970760233926,15.876167546302156,203.66227786623546,36.29871383449842,2047.8894227363933,56.013119791837426,2247.136111598502,0
-51.563631056625816,38.74473180076629,-19.584373623145837,109.70441834451904,-95.84254797161132,-107.92194403534609,79.78205128205127,13.563106796116493,5.347368421052636,6.5776892430278835,10.458823529411767,36.91133004926109,40.013698630136986,4.482352941176472,9.654970760233926,15.876167546302156,203.66227786623546,36.630912160179314,2096.759641255506,56.01117458947706,2254.003150077443,0
-51.563631056625816,38.74473180076629,-19.584373623145837,109.70441834451904,-95.84254797161132,-107.92194403534609,79.78205128205127,11.097087378640765,10.694736842105268,14.673306772908361,2.4901960784313744,26.90147783251232,33.054794520547944,0.4980392156862763,-27.479532163742682,15.861146350571873,145.4433893578911,36.630912160179314,2096.759641255506,56.01117458947706,2254.003150077443,0
-51.563631056625816,38.74473180076629,-19.584373623145837,109.70441834451904,-95.84254797161132,-107.92194403534609,79.78205128205127,-2.4660194174757386,9.357894736842109,4.553784860557764,0.4980392156862763,18.142857142857146,35.374429223744286,0.4980392156862763,-6.684210526315782,9.696909292395672,141.11946690321187,36.630912160179314,2096.759641255506,56.01117458947706,2254.003150077443,0
-51.971395213076484,38.197318007662844,-19.78954325157879,109.81096196868012,-95.97607990887585,-107.42317133038785,79.39438339438334,-2.4660194174757386,9.357894736842109,4.553784860557764,0.4980392156862763,18.142857142857146,35.374429223744286,0.4980392156862763,-6.684210526315782,9.696909292395672,141.11946690321187,36.65275215743937,2088.09075304237,55.932607742640585,2261.869333447625,0
-51.971395213076484,38.197318007662844,-19.78954325157879,109.81096196868012,-95.97607990887585,-107.42317133038785,79.39438339438334,9.864077669902901,2.67368421052632,-1.5179282868525945,1.4941176470588253,10.635467980295571,22.61643835616438,5.4784313725490215,21.53801169590644,9.477269652407006,72.70737286315769,36.65275215743937,2088.09075304237,55.932607742640585,2261.869333447625,0
-51.971395213076484,38.197318007662844,-19.78954325157879,109.81096196868012,-95.97607990887585,-107.42317133038785,79.39438339438334,16.02912621359222,6.684210526315794,3.5418326693227042,-1.4941176470588218,34.40886699507389,34.214611872146115,-6.474509803921567,-6.684210526315782,13.691435781718361,179.7075649457494,36.65275215743937,2088.09075304237,55.932607742640585,2261.869333447625,0
-50.41447752481029,37.40660919540231,-20.069320017623735,109.88199105145415,-96.06510120038553,-107.29847815414826,79.39438339438334,16.02912621359222,6.684210526315794,3.5418326693227042,-1.4941176470588218,34.40886699507389,34.214611872146115,-6.474509803921567,-6.684210526315782,13.691435781718361,179.7075649457494,35.963468912612115,1989.475715959307,55.785973421493395,2269.9297415742476,0
-50.41447752481029,37.40660919540231,-20.069320017623735,109.88199105145415,-96.06510120038553,-107.29847815414826,79.39438339438334,13.563106796116493,4.010526315789478,-13.661354581673312,-0.49803921568627274,28.152709359605915,0.5799086757990821,4.482352941176472,5.198830409356733,8.76835353690047,87.4116161782435,35.963468912612115,1989.475715959307,55.785973421493395,2269.9297415742476,0
-50.41447752481029,37.40660919540231,-20.069320017623735,109.88199105145415,-96.06510120038553,-107.29847815414826,79.39438339438334,13.563106796116493,9.357894736842109,-7.589641434262953,-0.49803921568627274,15.640394088669956,15.657534246575338,1.4941176470588253,-8.169590643274846,8.99628985106085,34.38111658697653,35.963468912612115,1989.475715959307,55.785973421493395,2269.9297415742476,0
-49.154115586690025,36.85919540229886,-19.99471288001175,109.9175055928412,-96.1318671690178,-107.36082474226805,79.6269841269841,13.563106796116493,9.357894736842109,-7.589641434262953,-0.49803921568627274,15.640394088669956,15.657534246575338,1.4941176470588253,-8.169590643274846,8.99628985106085,34.38111658697653,35.33600795633354,1913.4878867453567,55.59047129171727,2284.6726846527536,0
-49.154115586690025,36.85919540229886,-19.99471288001175,109.9175055928412,-96.1318671690178,-107.36082474226805,79.6269841269841,16.02912621359222,2.67368421052632,18.7211155378486,3.4862745098039234,16.89162561576355,17.977168949771684,9.462745098039218,-3.713450292397653,11.119398803467897,49.91805580284195,35.33600795633354,1913.4878867453567,55.59047129171727,2284.6726846527536,0
-49.154115586690025,36.85919540229886,-19.99471288001175,109.9175055928412,-96.1318671690178,-107.36082474226805,79.6269841269841,9.864077669902901,-1.3368421052631536,-18.72111553784861,-3.48627450980392,18.142857142857146,7.538812785388123,12.450980392156865,0.74269005847954,9.035456275212532,50.02587942704851,35.33600795633354,1913.4878867453567,55.59047129171727,2284.6726846527536,0
-49.524810274372456,36.920019157088134,-19.71493611396681,109.95302013422821,-96.22088846052748,-107.48551791850764,79.93711843711844,9.864077669902901,-1.3368421052631536,-18.72111553784861,-3.48627450980392,18.142857142857146,7.538812785388123,12.450980392156865,0.74269005847954,9.035456275212532,50.02587942704851,35.38658851514247,1928.1425485746547,55.52932513509438,2295.457653649233,0
-49.524810274372456,36.920019157088134,-19.71493611396681,109.95302013422821,-96.22088846052748,-107.48551791850764,79.93711843711844,1.2330097087378533,4.440892098500626e-15,-9.613545816733073,-0.49803921568627274,28.152709359605915,11.018264840182644,10.458823529411767,-8.169590643274846,8.642997889204047,83.8119606204647,35.38658851514247,1928.1425485746547,55.52932513509438,2295.457653649233,0
-49.524810274372456,36.920019157088134,-19.71493611396681,109.95302013422821,-96.22088846052748,-107.48551791850764,79.93711843711844,14.796116504854357,6.684210526315794,6.5776892430278835,-3.48627450980392,15.640394088669956,12.178082191780817,-8.466666666666665,-8.169590643274846,9.49987804679928,18.342377904316567,35.38658851514247,1928.1425485746547,55.52932513509438,2295.457653649233,0
-50.19206071220083,36.737547892720315,-19.565721838742842,109.9175055928412,-96.354420397792,-107.48551791850764,80.09218559218561,14.796116504854357,6.684210526315794,6.5776892430278835,-3.48627450980392,15.640394088669956,12.178082191780817,-8.466666666666665,-8.169590643274846,9.49987804679928,18.342377904316567,35.49844348122133,1944.1312779084267,55.40692510810144,2302.270441094482,0
-50.19206071220083,36.737547892720315,-19.565721838742842,109.9175055928412,-96.354420397792,-107.48551791850764,80.09218559218561,3.6990291262135813,-9.3578947368421,-9.613545816733073,-12.450980392156861,30.65517241379311,22.61643835616438,-5.478431372549018,0.74269005847954,11.826772784116457,101.64677554943016,35.49844348122133,1944.1312779084267,55.40692510810144,2302.270441094482,0
-50.19206071220083,36.737547892720315,-19.565721838742842,109.9175055928412,-96.354420397792,-107.48551791850764,80.09218559218561,13.563106796116493,28.07368421052632,1.5179282868525847,-8.466666666666665,6.881773399014783,-7.538812785388135,23.407843137254904,11.14035087719299,12.573770769876608,79.64393031289795,35.49844348122133,1944.1312779084267,55.40692510810144,2302.270441094482,0
-49.48774080560421,36.49425287356323,-19.509766485533852,109.9175055928412,-96.48795233505652,-107.54786450662732,80.40231990231985,13.563106796116493,28.07368421052632,1.5179282868525847,-8.466666666666665,6.881773399014783,-7.538812785388135,23.407843137254904,11.14035087719299,12.573770769876608,79.64393031289795,35.16392005490042,1904.6720609588847,55.30717498397942,2308.834351373177,0
-49.48774080560421,36.49425287356323,-19.509766485533852,109.9175055928412,-96.48795233505652,-107.54786450662732,80.40231990231985,12.330097087378629,1.3368421052631625,4.553784860557764,6.4745098039215705,19.394088669950744,-28.41552511415526,-17.431372549019606,6.684210526315798,12.077553839570317,83.09148327543951,35.16392005490042,1904.6720609588847,55.30717498397942,2308.834351373177,0
-49.48774080560421,36.49425287356323,-19.509766485533852,109.9175055928412,-96.48795233505652,-107.54786450662732,80.40231990231985,9.864077669902901,-5.347368421052627,2.5298804780876445,6.4745098039215705,29.403940886699512,11.018264840182644,-2.490196078431371,-0.7426900584795244,8.483866029594724,84.45037886669516,35.16392005490042,1904.6720609588847,55.30717498397942,2308.834351373177,0
-48.48686514886165,36.920019157088134,-19.397855779115876,110.0950782997763,-96.59922894944363,-107.67255768286691,80.94505494505495,9.864077669902901,-5.347368421052627,2.5298804780876445,6.4745098039215705,29.403940886699512,11.018264840182644,-2.490196078431371,-0.7426900584795244,8.483866029594724,84.45037886669516,34.93491336168855,1885.3682317154942,55.47098441199344,2314.600277157076,0
-48.48686514886165,36.920019157088134,-19.397855779115876,110.0950782997763,-96.59922894944363,-107.67255768286691,80.94505494505495,16.02912621359222,14.705263157894741,-12.64940239043825,0.4980392156862763,9.384236453201975,33.054794520547944,0.4980392156862763,-15.596491228070168,12.801924049389731,106.64298813884696,34.93491336168855,1885.3682317154942,55.47098441199344,2314.600277157076,0
-48.48686514886165,36.920019157088134,-19.397855779115876,110.0950782997763,-96.59922894944363,-107.67255768286691,80.94505494505495,12.330097087378629,-1.3368421052631536,-15.685258964143431,2.4901960784313744,19.394088669950744,11.018264840182644,1.4941176470588253,8.169590643274862,8.989807004460458,46.57446581550677,34.93491336168855,1885.3682317154942,55.47098441199344,2314.600277157076,0
-49.154115586690025,37.16331417624522,-19.47246291672786,110.20162192393738,-96.71050556383072,-107.7349042709867,81.25518925518918,12.330097087378629,-1.3368421052631536,-15.685258964143431,2.4901960784313744,19.394088669950744,11.018264840182644,1.4941176470588253,8.169590643274862,8.989807004460458,46.57446581550677,35.263297559887704,1923.2184055040777,55.61246633897016,2313.223485181411,0
-49.154115586690025,37.16331417624522,-19.47246291672786,110.20162192393738,-96.71050556383072,-107.7349042709867,81.25518925518918,11.097087378640765,-1.3368421052631536,-8.601593625498012,2.4901960784313744,21.896551724137936,7.538812785388123,-2.490196078431371,-8.169590643274846,7.952608802383198,44.05786482994174,35.263297559887704,1923.2184055040777,55.61246633897016,2313.223485181411,0
-49.154115586690025,37.16331417624522,-19.47246291672786,110.20162192393738,-96.71050556383072,-107.7349042709867,81.25518925518918,17.262135922330085,-6.684210526315784,6.5776892430278835,-7.470588235294116,15.640394088669956,16.81735159817351,-1.4941176470588218,-0.7426900584795244,9.08614716491871,44.50004957021353,35.263297559887704,1923.2184055040777,55.61246633897016,2313.223485181411,0
-49.41360186806773,36.737547892720315,-19.2859450726979,110.45022371364655,-96.93305879260492,-107.61021109474711,81.56532356532352,17.262135922330085,-6.684210526315784,6.5776892430278835,-7.470588235294116,15.640394088669956,16.81735159817351,-1.4941176470588218,-0.7426900584795244,9.08614716491871,44.50004957021353,35.14569827782865,1911.3880121885982,55.491238893021595,2341.5071196322174,0
-49.41360186806773,36.737547892720315,-19.2859450726979,110.45022371364655,-96.93305879260492,-107.61021109474711,81.56532356532352,3.6990291262135813,-5.347368421052627,-24.792828685258968,-3.48627450980392,19.394088669950744,1.7397260273972552,3.4862745098039234,6.684210526315798,8.578725059474603,73.76422040271862,35.14569827782865,1911.3880121885982,55.491238893021595,2341.5071196322174,0
-49.41360186806773,36.737547892720315,-19.2859450726979,110.45022371364655,-96.93305879260492,-107.61021109474711,81.56532356532352,9.864077669902901,4.010526315789478,-1.5179282868525945,4.482352941176472,21.896551724137936,-1.739726027397266,-13.44705882352941,-21.538011695906427,9.81202918558656,70.39536753501594,35.14569827782865,1911.3880121885982,55.491238893021595,2341.5071196322174,0
-49.19118505545827,37.64990421455939,-19.174034366279923,110.76985458612978,-97.08884605274687,-107.42317133038785,81.7203907203907,9.864077669902901,4.010526315789478,-1.5179282868525945,4.482352941176472,21.896551724137936,-1.739726027397266,-13.44705882352941,-21.538011695906427,9.81202918558656,70.39536753501594,35.33837454543253,1945.2273528231694,55.86459772232303,2346.2798651230896,0
-49.19118505545827,37.64990421455939,-19.174034366279923,110.76985458612978,-97.08884605274687,-107.42317133038785,81.7203907203907,13.563106796116493,17.378947368421056,2.5298804780876445,-2.490196078431371,13.137931034482763,-2.899543378995439,-12.450980392156861,2.2280701754386047,8.33483196276628,40.547921666472384,35.33837454543253,1945.2273528231694,55.86459772232303,2346.2798651230896,0
-49.19118505545827,37.64990421455939,-19.174034366279923,110.76985458612978,-97.08884605274687,-107.42317133038785,81.7203907203907,2.4660194174757173,-5.347368421052627,-9.613545816733073,2.4901960784313744,18.142857142857146,0.5799086757990821,-25.4,-25.99415204678362,11.25425594989158,110.05517494309049,35.33837454543253,1945.2273528231694,55.86459772232303,2346.2798651230896,0
-48.59807355516639,37.28496168582377,-19.229989719488913,111.01845637583895,-97.24463331288882,-107.48551791850764,82.03052503052504,2.4660194174757173,-5.347368421052627,-9.613545816733073,2.4901960784313744,18.142857142857146,0.5799086757990821,-25.4,-25.99415204678362,11.25425594989158,110.05517494309049,35.03767498682635,1905.3866371215652,55.844469260383875,2364.6221438385865,0
-48.59807355516639,37.28496168582377,-19.229989719488913,111.01845637583895,-97.24463331288882,-107.48551791850764,82.03052503052504,13.563106796116493,6.684210526315794,5.565737051792824,2.4901960784313744,20.64532019704434,24.936073059360726,12.450980392156865,2.2280701754386047,11.070461784582127,70.48603483762527,35.03767498682635,1905.3866371215652,55.844469260383875,2364.6221438385865,0
-48.59807355516639,37.28496168582377,-19.229989719488913,111.01845637583895,-97.24463331288882,-107.48551791850764,82.03052503052504,12.330097087378629,10.694736842105268,4.553784860557764,-12.450980392156861,8.133004926108379,-7.538812785388135,-2.490196078431371,-8.169590643274846,8.295150451925156,12.517020936649581,35.03767498682635,1905.3866371215652,55.844469260383875,2364.6221438385865,0
-49.5618797431407,37.345785440613035,-19.547070054339844,111.12500000000003,-97.31139928152108,-107.36082474226805,82.10805860805863,12.330097087378629,10.694736842105268,4.553784860557764,-12.450980392156861,8.133004926108379,-7.538812785388135,-2.490196078431371,-8.169590643274846,8.295150451925156,12.517020936649581,35.484911746031194,1948.4380124526608,56.005951831650975,2357.7806705889775,0
-49.5618797431407,37.345785440613035,-19.547070054339844,111.12500000000003,-97.31139928152108,-107.36082474226805,82.10805860805863,8.631067961165037,6.684210526315794,15.685258964143422,1.4941176470588253,23.14778325123153,22.61643835616438,8.466666666666669,-2.2280701754385888,11.119201693523031,71.75892356159899,35.484911746031194,1948.4380124526608,56.005951831650975,2357.7806705889775,0
-49.5618797431407,37.345785440613035,-19.547070054339844,111.12500000000003,-97.31139928152108,-107.36082474226805,82.10805860805863,4.932038834951445,-1.3368421052631536,2.5298804780876445,0.4980392156862763,44.41871921182266,2.8995433789954284,-15.439215686274508,-25.99415204678362,12.256053869733092,246.65270433989681,35.484911746031194,1948.4380124526608,56.005951831650975,2357.7806705889775,0
-48.67221249270287,37.28496168582377,-19.509766485533852,111.33808724832217,-97.42267589590818,-107.36082474226805,82.41819291819286,4.932038834951445,-1.3368421052631536,2.5298804780876445,0.4980392156862763,44.41871921182266,2.8995433789954284,-15.439215686274508,-25.99415204678362,12.256053869733092,246.65270433989681,35.15564688802016,1910.7875329895028,56.04427180655993,2372.0439106828508,0
-48.67221249270287,37.28496168582377,-19.509766485533852,111.33808724832217,-97.42267589590818,-107.36082474226805,82.41819291819286,18.49514563106795,17.378947368421056,-0.5059760956175348,-0.49803921568627274,21.896551724137936,2.8995433789954284,17.43137254901961,14.111111111111118,11.652085884257115,78.46799567614144,35.15564688802016,1910.7875329895028,56.04427180655993,2372.0439106828508,0
-48.67221249270287,37.28496168582377,-19.509766485533852,111.33808724832217,-97.42267589590818,-107.36082474226805,82.41819291819286,6.165048543689309,1.3368421052631625,-7.589641434262953,6.4745098039215705,16.89162561576355,16.81735159817351,19.423529411764708,18.567251461988313,11.658224996853384,48.88141091803645,35.15564688802016,1910.7875329895028,56.04427180655993,2372.0439106828508,0
-48.449795680093416,37.345785440613035,-19.584373623145837,111.51565995525729,-97.51169718741787,-107.54786450662732,82.80586080586079,6.165048543689309,1.3368421052631625,-7.589641434262953,6.4745098039215705,16.89162561576355,16.81735159817351,19.423529411764708,18.567251461988313,11.658224996853384,48.88141091803645,35.1266515812841,1905.856223565054,56.14860633967206,2377.9999069907335,0
-48.449795680093416,37.345785440613035,-19.584373623145837,111.51565995525729,-97.51169718741787,-107.54786450662732,82.80586080586079,11.097087378640765,-1.3368421052631536,-11.637450199203192,1.4941176470588253,14.38916256157636,11.018264840182644,-19.423529411764704,-12.62573099415204,10.37777314223021,38.020351987325405,35.1266515812841,1905.856223565054,56.14860633967206,2377.9999069907335,0
-48.449795680093416,37.345785440613035,-19.584373623145837,111.51565995525729,-97.51169718741787,-107.54786450662732,82.80586080586079,8.631067961165037,4.010526315789478,-7.589641434262953,5.4784313725490215,24.399014778325128,16.81735159817351,-4.482352941176469,-9.65497076023391,10.132919645209439,49.747460541984445,35.1266515812841,1905.856223565054,56.14860633967206,2377.9999069907335,0
-49.48774080560421,38.379789272030656,-19.71493611396681,111.58668903803135,-97.51169718741787,-107.61021109474711,82.96092796092796,8.631067961165037,4.010526315789478,-7.589641434262953,5.4784313725490215,24.399014778325128,16.81735159817351,-4.482352941176469,-9.65497076023391,10.132919645209439,49.747460541984445,35.860822063867225,1997.0199764708186,56.56047147467627,2358.007650350287,0
-49.48774080560421,38.379789272030656,-19.71493611396681,111.58668903803135,-97.51169718741787,-107.61021109474711,82.96092796092796,7.398058252427173,5.347368421052636,-1.5179282868525945,0.4980392156862763,13.137931034482763,8.698630136986296,-6.474509803921567,-15.596491228070168,7.3336195474349335,27.00902470060928,35.860822063867225,1997.0199764708186,56.56047147467627,2358.007650350287,0
-49.48774080560421,38.379789272030656,-19.71493611396681,111.58668903803135,-97.51169718741787,-107.61021109474711,82.96092796092796,12.330097087378629,5.347368421052636,-5.5657370517928335,2.4901960784313744,0.6256157635468043,23.77625570776255,20.419607843137257,21.53801169590644,11.511611206126066,86.31638157290794,35.860822063867225,1997.0199764708186,56.56047147467627,2358.007650350287,0
-50.41447752481029,37.771551724137936,-20.069320017623735,111.58668903803135,-97.51169718741787,-107.48551791850764,82.80586080586079,12.330097087378629,5.347368421052636,-5.5657370517928335,2.4901960784313744,0.6256157635468043,23.77625570776255,20.419607843137257,21.53801169590644,11.511611206126066,86.31638157290794,36.08511642219065,2007.1951304465392,56.47585359326434,2356.2453894129203,0
-50.41447752481029,37.771551724137936,-20.069320017623735,111.58668903803135,-97.51169718741787,-107.48551791850764,82.80586080586079,3.6990291262135813,-2.673684210526311,-2.5298804780876543,3.4862745098039234,20.64532019704434,21.456621004566205,-6.474509803921567,-17.08187134502923,9.755898834399103,71.18439274433709,36.08511642219065,2007.1951304465392,56.47585359326434,2356.2453894129203,0
-50.41447752481029,37.771551724137936,-20.069320017623735,111.58668903803135,-97.51169718741787,-107.48551791850764,82.80586080586079,14.796116504854357,12.031578947368425,-9.613545816733073,0.4980392156862763,39.413793103448285,13.33789954337899,25.400000000000002,5.198830409356733,15.036225442603268,150.1688779989144,36.08511642219065,2007.1951304465392,56.47585359326434,2356.2453894129203,0
-50.451546993578525,38.379789272030656,-20.367748568071672,111.62220357941837,-97.48944186454044,-107.29847815414826,82.41819291819286,14.796116504854357,12.031578947368425,-9.613545816733073,0.4980392156862763,39.413793103448285,13.33789954337899,25.400000000000002,5.198830409356733,15.036225442603268,150.1688779989144,36.39969494456029,2041.2190721190861,56.789913806506895,2336.043403885668,0
-50.451546993578525,38.379789272030656,-20.367748568071672,111.62220357941837,-97.48944186454044,-107.29847815414826,82.41819291819286,17.262135922330085,28.07368421052632,31.876494023904378,-1.4941176470588218,15.640394088669956,9.85844748858447,-4.482352941176469,3.7134502923976687,14.050134576831022,128.6997432333683,36.39969494456029,2041.2190721190861,56.789913806506895,2336.043403885668,0
-50.451546993578525,38.379789272030656,-20.367748568071672,111.62220357941837,-97.48944186454044,-107.29847815414826,82.41819291819286,12.330097087378629,14.705263157894741,-7.589641434262953,-7.470588235294116,5.630541871921189,7.538812785388123,-11.454901960784312,-3.713450292397653,8.804162103165215,13.589061955501238,36.39969494456029,2041.2190721190861,56.789913806506895,2336.043403885668,0
-48.74635143023936,38.44061302681993,-20.59156998090762,111.58668903803135,-97.35590992727592,-107.61021109474711,82.7283272283272,12.330097087378629,14.705263157894741,-7.589641434262953,-7.470588235294116,5.630541871921189,7.538812785388123,-11.454901960784312,-3.713450292397653,8.804162103165215,13.589061955501238,35.92617814598897,1979.8428533923322,56.872957348586304,2324.8414109521455,0
-48.74635143023936,38.44061302681993,-20.59156998090762,111.58668903803135,-97.35590992727592,-107.61021109474711,82.7283272283272,9.864077669902901,-5.347368421052627,-20.74501992031873,-3.48627450980392,25.650246305418726,6.3789954337899495,6.4745098039215705,-5.1988304093567175,10.393165309195641,67.40501295794628,35.92617814598897,1979.8428533923322,56.872957348586304,2324.8414109521455,0
-48.74635143023936,38.44061302681993,-20.59156998090762,111.58668903803135,-97.35590992727592,-107.61021109474711,82.7283272283272,14.796116504854357,10.694736842105268,-7.589641434262953,-4.482352941176469,21.896551724137936,16.81735159817351,-1.4941176470588218,2.2280701754386047,9.99986735840099,54.35668624093166,35.92617814598897,1979.8428533923322,56.872957348586304,2324.8414109521455,0
-49.0429071803853,38.86637931034483,-20.572918196504627,111.51565995525729,-97.2223779900114,-107.98429062346588,82.88339438339437,14.796116504854357,10.694736842105268,-7.589641434262953,-4.482352941176469,21.896551724137936,16.81735159817351,-1.4941176470588218,2.2280701754386047,9.99986735840099,54.35668624093166,36.160734895744916,2011.9355020265525,56.98498582070224,2313.8584960576686,0
-49.0429071803853,38.86637931034483,-20.572918196504627,111.51565995525729,-97.2223779900114,-107.98429062346588,82.88339438339437,8.631067961165037,1.3368421052631625,-2.5298804780876543,-0.49803921568627274,8.133004926108379,12.178082191780817,-8.466666666666665,-5.1988304093567175,5.8715517442643375,17.18479960591493,36.160734895744916,2011.9355020265525,56.98498582070224,2313.8584960576686,0
-49.0429071803853,38.86637931034483,-20.572918196504627,111.51565995525729,-97.2223779900114,-107.98429062346588,82.88339438339437,18.49514563106795,12.031578947368425,-4.553784860557774,5.4784313725490215,23.14778325123153,7.538812785388123,-4.482352941176469,-14.111111111111104,11.2298751125563,48.65246039011108,36.160734895744916,2011.9355020265525,56.98498582070224,2313.8584960576686,0
-50.22913018096907,38.86637931034483,-20.535614627698635,111.44463087248324,-97.08884605274687,-107.98429062346588,82.65079365079362,18.49514563106795,12.031578947368425,-4.553784860557774,5.4784313725490215,23.14778325123153,7.538812785388123,-4.482352941176469,-14.111111111111104,11.2298751125563,48.65246039011108,36.54370803967085,2058.0519268740786,56.94887493684224,2311.3447947103514,0
-50.22913018096907,38.86637931034483,-20.535614627698635,111.44463087248324,-97.08884605274687,-107.98429062346588,82.65079365079362,14.796116504854357,10.694736842105268,3.5418326693227042,-9.462745098039214,29.403940886699512,11.018264840182644,-19.423529411764704,-15.596491228070168,14.242207185129821,59.88354176508979,36.54370803967085,2058.0519268740786,56.94887493684224,2311.3447947103514,0
-50.22913018096907,38.86637931034483,-20.535614627698635,111.44463087248324,-97.08884605274687,-107.98429062346588,82.65079365079362,-11.097087378640786,-14.70526315789473,-3.541832669322714,-2.490196078431371,19.394088669950744,24.936073059360726,-12.450980392156861,-14.111111111111104,12.84082906460863,55.87563199176357,36.54370803967085,2058.0519268740786,56.94887493684224,2311.3447947103514,0
-50.0808523058961,39.10967432950192,-20.46100749008665,111.55117449664431,-97.04433540699203,-107.85959744722629,82.49572649572644,-11.097087378640786,-14.70526315789473,-3.541832669322714,-2.490196078431371,19.394088669950744,24.936073059360726,-12.450980392156861,-14.111111111111104,12.84082906460863,55.87563199176357,36.550511375161555,2063.49189681049,57.04061877207763,2315.4937077726936,0
-50.0808523058961,39.10967432950192,-20.46100749008665,111.55117449664431,-97.04433540699203,-107.85959744722629,82.49572649572644,8.631067961165037,9.357894736842109,-25.80478087649403,-1.4941176470588218,46.92118226600986,17.977168949771684,12.450980392156865,8.169590643274862,16.350847934096656,205.41826843783997,36.550511375161555,2063.49189681049,57.04061877207763,2315.4937077726936,0
-50.0808523058961,39.10967432950192,-20.46100749008665,111.55117449664431,-97.04433540699203,-107.85959744722629,82.49572649572644,13.563106796116493,-5.347368421052627,-0.5059760956175348,1.4941176470588253,18.142857142857146,14.497716894977163,9.462745098039218,3.7134502923976687,8.340917298514585,43.021960234035,36.550511375161555,2063.49189681049,57.04061877207763,2315.4937077726936,0
-49.154115586690025,39.77873563218392,-20.311793214862682,111.79977628635349,-96.95531411548235,-107.92194403534609,82.49572649572644,13.563106796116493,-5.347368421052627,-0.5059760956175348,1.4941176470588253,18.142857142857146,14.497716894977163,9.462745098039218,3.7134502923976687,8.340917298514585,43.021960234035,36.41488147791221,2058.6338738060867,57.29676837780003,2322.673865079706,0
-49.154115586690025,39.77873563218392,-20.311793214862682,111.79977628635349,-96.95531411548235,-107.92194403534609,82.49572649572644,7.398058252427173,-1.3368421052631536,8.601593625498003,3.4862745098039234,18.142857142857146,5.2191780821917755,6.4745098039215705,2.2280701754386047,6.610922962175168,28.044596478516645,36.41488147791221,2058.6338738060867,57.29676837780003,2322.673865079706,0
-49.154115586690025,39.77873563218392,-20.311793214862682,111.79977628635349,-96.95531411548235,-107.92194403534609,82.49572649572644,17.262135922330085,-1.3368421052631536,-13.661354581673312,3.4862745098039234,25.650246305418726,4.0593607305936015,-6.474509803921567,5.198830409356733,9.641194296045139,71.18497752037614,36.41488147791221,2058.6338738060867,57.29676837780003,2322.673865079706,0
-48.82049036777584,40.56944444444445,-20.237186077250698,112.04837807606266,-96.82178217821783,-108.10898379970547,82.65079365079362,17.262135922330085,-1.3368421052631536,-13.661354581673312,3.4862745098039234,25.650246305418726,4.0593607305936015,-6.474509803921567,5.198830409356733,9.641194296045139,71.18497752037614,36.542373629823665,2084.1686742166153,57.6183361992526,2325.3222766110525,0
-48.82049036777584,40.56944444444445,-20.237186077250698,112.04837807606266,-96.82178217821783,-108.10898379970547,82.65079365079362,11.097087378640765,8.021052631578952,-7.589641434262953,3.4862745098039234,8.133004926108379,-1.739726027397266,-5.478431372549018,-18.567251461988295,8.014058717791194,26.76667950620565,36.542373629823665,2084.1686742166153,57.6183361992526,2325.3222766110525,0
-48.82049036777584,40.56944444444445,-20.237186077250698,112.04837807606266,-96.82178217821783,-108.10898379970547,82.65079365079362,9.864077669902901,4.010526315789478,19.73306772908366,-5.478431372549018,8.133004926108379,-14.497716894977174,-19.423529411764704,-34.906432748538,14.505848383589164,103.07093280333468,36.542373629823665,2084.1686742166153,57.6183361992526,2325.3222766110525,0
-49.85843549328664,40.26532567049809,-20.42370392128066,112.15492170022374,-96.66599491807588,-108.17133038782526,82.41819291819286,9.864077669902901,4.010526315789478,19.73306772908366,-5.478431372549018,8.133004926108379,-14.497716894977174,-19.423529411764704,-34.906432748538,14.505848383589164,103.07093280333468,36.849155028355135,2111.975676969126,57.614650430667496,2329.4033810273413,0
-49.85843549328664,40.26532567049809,-20.42370392128066,112.15492170022374,-96.66599491807588,-108.17133038782526,82.41819291819286,13.563106796116493,5.347368421052636,2.5298804780876445,8.466666666666669,43.16748768472907,15.657534246575338,0.4980392156862763,-6.684210526315782,11.989286754403738,184.88715210728654,36.849155028355135,2111.975676969126,57.614650430667496,2329.4033810273413,0
-49.85843549328664,40.26532567049809,-20.42370392128066,112.15492170022374,-96.66599491807588,-108.17133038782526,82.41819291819286,11.097087378640765,8.021052631578952,3.5418326693227042,-2.490196078431371,28.152709359605915,8.698630136986296,3.4862745098039234,-17.08187134502923,10.321206763674894,75.17078077977217,36.849155028355135,2111.975676969126,57.614650430667496,2329.4033810273413,0
-50.19206071220083,39.77873563218392,-20.666177118519606,112.15492170022374,-96.51020765793395,-108.17133038782526,82.1855921855921,11.097087378640765,8.021052631578952,3.5418326693227042,-2.490196078431371,28.152709359605915,8.698630136986296,3.4862745098039234,-17.08187134502923,10.321206763674894,75.17078077977217,36.87899115430145,2103.351579045089,57.53327815030909,2328.96543130501,0
-50.19206071220083,39.77873563218392,-20.666177118519606,112.15492170022374,-96.51020765793395,-108.17133038782526,82.1855921855921,2.4660194174757173,-8.021052631578943,-0.5059760956175348,0.4980392156862763,25.650246305418726,35.374429223744286,-5.478431372549018,-2.2280701754385888,10.027783054688637,172.9620019235956,36.87899115430145,2103.351579045089,57.53327815030909,2328.96543130501,0
-50.19206071220083,39.77873563218392,-20.666177118519606,112.15492170022374,-96.51020765793395,-108.17133038782526,82.1855921855921,8.631067961165037,13.368421052631582,19.73306772908366,0.4980392156862763,29.403940886699512,9.85844748858447,1.4941176470588253,-0.7426900584795244,10.46622400492361,104.44028055737958,36.87899115430145,2103.351579045089,57.53327815030909,2328.96543130501,0
-49.524810274372456,39.96120689655173,-20.479659274489645,112.2614653243848,-96.37667572066943,-108.29602356406474,82.10805860805863,8.631067961165037,13.368421052631582,19.73306772908366,0.4980392156862763,29.403940886699512,9.85844748858447,1.4941176470588253,-0.7426900584795244,10.46622400492361,104.44028055737958,36.655225481804614,2084.077728204444,57.56744383180873,2338.459664710448,0
-49.524810274372456,39.96120689655173,-20.479659274489645,112.2614653243848,-96.37667572066943,-108.29602356406474,82.10805860805863,8.631067961165037,-5.347368421052627,-18.72111553784861,2.4901960784313744,15.640394088669956,7.538812785388123,2.4901960784313744,-12.62573099415204,9.185610243142392,35.97617535251607,36.655225481804614,2084.077728204444,57.56744383180873,2338.459664710448,0
-49.524810274372456,39.96120689655173,-20.479659274489645,112.2614653243848,-96.37667572066943,-108.29602356406474,82.10805860805863,4.932038834951445,-1.3368421052631536,-1.5179282868525945,-10.458823529411763,23.14778325123153,17.977168949771684,-2.490196078431371,-5.1988304093567175,8.382451430658783,66.84381441676679,36.655225481804614,2084.077728204444,57.56744383180873,2338.459664710448,0
-48.41272621132517,40.873563218390814,-20.442355705683653,112.47455257270695,-96.19863313765005,-108.6701030927835,82.49572649572644,4.932038834951445,-1.3368421052631536,-1.5179282868525945,-10.458823529411763,23.14778325123153,17.977168949771684,-2.490196078431371,-5.1988304093567175,8.382451430658783,66.84381441676679,36.57621504513322,2085.6708366422577,57.93015716559381,2335.6768628524546,0
-48.41272621132517,40.873563218390814,-20.442355705683653,112.47455257270695,-96.19863313765005,-108.6701030927835,82.49572649572644,7.398058252427173,-6.684210526315784,-6.577689243027893,-8.466666666666665,1.8768472906403986,5.2191780821917755,10.458823529411767,-5.1988304093567175,6.485038000004772,6.441690921043322,36.57621504513322,2085.6708366422577,57.93015716559381,2335.6768628524546,0
-48.41272621132517,40.873563218390814,-20.442355705683653,112.47455257270695,-96.19863313765005,-108.6701030927835,82.49572649572644,8.631067961165037,6.684210526315794,-5.5657370517928335,-11.454901960784312,15.640394088669956,20.29680365296803,18.42745098039216,25.994152046783633,14.08683978360897,52.24326110011333,36.57621504513322,2085.6708366422577,57.93015716559381,2335.6768628524546,0
-48.19030939871571,40.56944444444445,-20.386400352474666,112.75866890380316,-96.06510120038553,-109.04418262150216,82.80586080586079,8.631067961165037,6.684210526315794,-5.5657370517928335,-11.454901960784312,15.640394088669956,20.29680365296803,18.42745098039216,25.994152046783633,14.08683978360897,52.24326110011333,36.38205139854494,2061.1610459093536,57.90483790024075,2358.5458990301368,0
-48.19030939871571,40.56944444444445,-20.386400352474666,112.75866890380316,-96.06510120038553,-109.04418262150216,82.80586080586079,4.932038834951445,-5.347368421052627,-9.613545816733073,-5.478431372549018,39.413793103448285,23.77625570776255,13.447058823529414,-3.713450292397653,13.215242796553007,155.94031693703332,36.38205139854494,2061.1610459093536,57.90483790024075,2358.5458990301368,0
-48.19030939871571,40.56944444444445,-20.386400352474666,112.75866890380316,-96.06510120038553,-109.04418262150216,82.80586080586079,6.165048543689309,-2.673684210526311,-4.553784860557774,-2.490196078431371,18.142857142857146,-4.059360730593614,1.4941176470588253,-2.2280701754385888,5.225889923644117,29.493342716246026,36.38205139854494,2061.1610459093536,57.90483790024075,2358.5458990301368,0
-48.301517805020445,38.13649425287357,-20.871346746952565,112.79418344519019,-95.97607990887585,-109.48060873834072,83.27106227106219,6.165048543689309,-2.673684210526311,-4.553784860557774,-2.490196078431371,18.142857142857146,-4.059360730593614,1.4941176470588253,-2.2280701754385888,5.225889923644117,29.493342716246026,35.769786268282196,1950.9782520427098,57.267341481672105,2386.9439634314367,0
-48.301517805020445,38.13649425287357,-20.871346746952565,112.79418344519019,-95.97607990887585,-109.48060873834072,83.27106227106219,16.02912621359222,12.031578947368425,4.553784860557764,-1.4941176470588218,13.137931034482763,4.0593607305936015,9.462745098039218,9.654970760233926,8.802951911490842,25.224438709815985,35.769786268282196,1950.9782520427098,57.267341481672105,2386.9439634314367,0
-48.301517805020445,38.13649425287357,-20.871346746952565,112.79418344519019,-95.97607990887585,-109.48060873834072,83.27106227106219,8.631067961165037,4.010526315789478,-6.577689243027893,5.4784313725490215,28.152709359605915,11.018264840182644,10.458823529411767,3.7134502923976687,9.755120364266178,62.8162545798902,35.769786268282196,1950.9782520427098,57.267341481672105,2386.9439634314367,0
-47.411850554582614,36.43342911877396,-20.628873549713614,112.79418344519019,-95.95382458599843,-109.97938144329896,83.96886446886447,8.631067961165037,4.010526315789478,-6.577689243027893,5.4784313725490215,28.152709359605915,11.018264840182644,10.458823529411767,3.7134502923976687,9.755120364266178,62.8162545798902,34.8247177410234,1833.9108610961343,56.618828704559256,2429.198854360674,0
-47.411850554582614,36.43342911877396,-20.628873549713614,112.79418344519019,-95.95382458599843,-109.97938144329896,83.96886446886447,7.398058252427173,5.347368421052636,1.5179282868525847,-1.4941176470588218,25.650246305418726,15.657534246575338,-3.48627450980392,-5.1988304093567175,8.21879475981824,69.96412458945969,34.8247177410234,1833.9108610961343,56.618828704559256,2429.198854360674,0
-47.411850554582614,36.43342911877396,-20.628873549713614,112.79418344519019,-95.95382458599843,-109.97938144329896,83.96886446886447,16.02912621359222,8.021052631578952,76.40239043824701,19.423529411764708,34.40886699507389,21.456621004566205,2.4901960784313744,5.198830409356733,22.928826647826387,572.5151181945475,34.8247177410234,1833.9108610961343,56.618828704559256,2429.198854360674,0
-46.336835960303574,37.22413793103449,-20.069320017623735,112.90072706935125,-95.931569263121,-110.72754050073638,84.97680097680097,16.02912621359222,8.021052631578952,76.40239043824701,19.423529411764708,34.40886699507389,21.456621004566205,2.4901960784313744,5.198830409356733,22.928826647826387,572.5151181945475,34.543431302987265,1825.8265125304151,56.73139500600316,2439.8173427425672,0
-46.336835960303574,37.22413793103449,-20.069320017623735,112.90072706935125,-95.931569263121,-110.72754050073638,84.97680097680097,6.165048543689309,-17.37894736842105,-51.10358565737052,-15.439215686274508,4.379310344827591,-1.739726027397266,-7.470588235294116,-14.111111111111104,14.723441621798184,247.55453840315266,34.543431302987265,1825.8265125304151,56.73139500600316,2439.8173427425672,0
-46.336835960303574,37.22413793103449,-20.069320017623735,112.90072706935125,-95.931569263121,-110.72754050073638,84.97680097680097,7.398058252427173,-25.399999999999995,-0.5059760956175348,1.4941176470588253,-33.15763546798029,13.33789954337899,4.482352941176472,-2.2280701754385888,11.000513765384735,148.09619701317553,34.543431302987265,1825.8265125304151,56.73139500600316,2439.8173427425672,0
-46.52218330414479,42.15086206896552,-19.99471288001175,113.57550335570473,-95.75352668010164,-111.03927344133524,85.2869352869352,7.398058252427173,-25.399999999999995,-0.5059760956175348,1.4941176470588253,-33.15763546798029,13.33789954337899,4.482352941176472,-2.2280701754385888,11.000513765384735,148.09619701317553,36.22258608437402,2071.448024763981,58.573692768227325,2391.623112646349,0
-46.52218330414479,42.15086206896552,-19.99471288001175,113.57550335570473,-95.75352668010164,-111.03927344133524,85.2869352869352,4.932038834951445,-6.684210526315784,38.960159362549796,4.482352941176472,40.66502463054188,9.85844748858447,-4.482352941176469,-2.2280701754385888,14.036582112591864,258.0961547613666,36.22258608437402,2071.448024763981,58.573692768227325,2391.623112646349,0
-46.52218330414479,42.15086206896552,-19.99471288001175,113.57550335570473,-95.75352668010164,-111.03927344133524,85.2869352869352,12.330097087378629,6.684210526315794,-13.661354581673312,3.4862745098039234,48.17241379310345,16.81735159817351,-0.49803921568627274,-9.65497076023391,13.9130890090461,220.5393694558571,36.22258608437402,2071.448024763981,58.573692768227325,2391.623112646349,0
-45.11354349095156,45.86111111111112,-20.293141430459688,114.17925055928414,-95.17488828528872,-111.60039273441328,85.36446886446879,12.330097087378629,6.684210526315794,-13.661354581673312,3.4862745098039234,48.17241379310345,16.81735159817351,-0.49803921568627274,-9.65497076023391,13.9130890090461,220.5393694558571,37.08926534417412,2211.470877957167,60.11116770028499,2355.9484564333766,0
-45.11354349095156,45.86111111111112,-20.293141430459688,114.17925055928414,-95.17488828528872,-111.60039273441328,85.36446886446879,11.097087378640765,9.357894736842109,-61.22310756972112,-20.419607843137253,29.403940886699512,7.538812785388123,-8.466666666666665,-14.111111111111104,20.202278622275834,329.01738200226794,37.08926534417412,2211.470877957167,60.11116770028499,2355.9484564333766,0
-45.11354349095156,45.86111111111112,-20.293141430459688,114.17925055928414,-95.17488828528872,-111.60039273441328,85.36446886446879,11.097087378640765,4.010526315789478,-25.80478087649403,18.42745098039216,23.14778325123153,-0.5799086757990928,-9.462745098039214,-5.1988304093567175,12.216139123217873,86.2203486641315,37.08926534417412,2211.470877957167,60.11116770028499,2355.9484564333766,0
-56.679217746643324,48.59818007662836,-20.64752533411661,114.03719239373604,-94.21790940155964,-109.29356897398134,80.47985347985343,11.097087378640765,4.010526315789478,-25.80478087649403,18.42745098039216,23.14778325123153,-0.5799086757990928,-9.462745098039214,-5.1988304093567175,12.216139123217873,86.2203486641315,41.974974385796095,2862.763511397003,61.094299268160334,2297.5222245133714,0
-56.679217746643324,48.59818007662836,-20.64752533411661,114.03719239373604,-94.21790940155964,-109.29356897398134,80.47985347985343,13.563106796116493,24.063157894736847,29.852589641434257,5.4784313725490215,19.394088669950744,19.13698630136986,-1.4941176470588218,-0.7426900584795244,14.215646047711946,116.09227258654502,41.974974385796095,2862.763511397003,61.094299268160334,2297.5222245133714,0
-56.679217746643324,48.59818007662836,-20.64752533411661,114.03719239373604,-94.21790940155964,-109.29356897398134,80.47985347985343,13.563106796116493,10.694736842105268,-24.792828685258968,-23.4078431372549,-3.1280788177339858,14.497716894977163,-7.470588235294116,-5.1988304093567175,12.844216227262201,63.42311588025435,41.974974385796095,2862.763511397003,61.094299268160334,2297.5222245133714,0
-74.84325744308232,47.07758620689656,-19.864150389190776,112.29697986577183,-93.19416454919829,-103.3082965144821,70.09035409035403,13.563106796116493,10.694736842105268,-24.792828685258968,-23.4078431372549,-3.1280788177339858,14.497716894977163,-7.470588235294116,-5.1988304093567175,12.844216227262201,63.42311588025435,47.26166467972322,3728.0984045443,59.746238820619716,2256.3280605470736,0
-74.84325744308232,47.07758620689656,-19.864150389190776,112.29697986577183,-93.19416454919829,-103.3082965144821,70.09035409035403,6.165048543689309,-12.031578947368416,-1.5179282868525945,25.400000000000002,26.90147783251232,16.81735159817351,5.4784313725490215,0.74269005847954,11.88181332995309,105.41264870149416,47.26166467972322,3728.0984045443,59.746238820619716,2256.3280605470736,0
-74.84325744308232,47.07758620689656,-19.864150389190776,112.29697986577183,-93.19416454919829,-103.3082965144821,70.09035409035403,22.19417475728154,24.063157894736847,-20.74501992031873,-51.29803921568627,0.6256157635468043,29.57534246575342,-2.490196078431371,2.2280701754386047,19.1524520338992,297.8839912673901,47.26166467972322,3728.0984045443,59.746238820619716,2256.3280605470736,0
-78.69848219497958,60.15469348659005,-21.1697752974005,110.3791946308725,-91.14667484447561,-97.07363770250367,57.762515262515194,22.19417475728154,24.063157894736847,-20.74501992031873,-51.29803921568627,0.6256157635468043,29.57534246575342,-2.490196078431371,2.2280701754386047,19.1524520338992,297.8839912673901,53.3409836596567,4867.237622860441,63.901221138287674,2000.1074765375135,0
-78.69848219497958,60.15469348659005,-21.1697752974005,110.3791946308725,-91.14667484447561,-97.07363770250367,57.762515262515194,16.02912621359222,24.063157894736847,53.12749003984063,48.30980392156863,18.142857142857146,-6.37899543378996,-6.474509803921567,-0.7426900584795244,21.658578813598318,378.8441759839652,53.3409836596567,4867.237622860441,63.901221138287674,2000.1074765375135,0
-78.69848219497958,60.15469348659005,-21.1697752974005,110.3791946308725,-91.14667484447561,-97.07363770250367,57.762515262515194,18.49514563106795,40.10526315789474,2.5298804780876445,31.376470588235296,1.8768472906403986,9.85844748858447,-1.4941176470588218,-2.2280701754385888,13.495530307125987,227.4656096298927,53.3409836596567,4867.237622860441,63.901221138287674,2000.1074765375135,0
-73.28633975481613,77.24616858237549,-24.22866793949185,109.0651565995526,-87.85288705861737,-92.70937653411875,46.520146520146454,18.49514563106795,40.10526315789474,2.5298804780876445,31.376470588235296,1.8768472906403986,9.85844748858447,-1.4941176470588218,-2.2280701754385888,13.495530307125987,227.4656096298927,58.25372542556116,5893.972279561071,70.17999770713998,1836.7555301706739,0
-73.28633975481613,77.24616858237549,-24.22866793949185,109.0651565995526,-87.85288705861737,-92.70937653411875,46.520146520146454,11.097087378640765,5.347368421052636,-18.72111553784861,-22.41176470588235,18.142857142857146,4.0593607305936015,-1.4941176470588218,-0.7426900584795244,10.252045202801682,73.15675224629753,58.25372542556116,5893.972279561071,70.17999770713998,1836.7555301706739,0
-73.28633975481613,77.24616858237549,-24.22866793949185,109.0651565995526,-87.85288705861737,-92.70937653411875,46.520146520146454,11.097087378640765,2.67368421052632,-20.74501992031873,-25.4,41.91625615763547,15.657534246575338,1.4941176470588253,-0.7426900584795244,14.96579870240437,202.7033750936471,58.25372542556116,5893.972279561071,70.17999770713998,1836.7555301706739,0
-74.58377116170462,79.67911877394637,-33.8902922602438,106.50810961968682,-83.31280119162359,-88.46980854197352,33.416971916971875,11.097087378640765,2.67368421052632,-20.74501992031873,-25.4,41.91625615763547,15.657534246575338,1.4941176470588253,-0.7426900584795244,14.96579870240437,202.7033750936471,62.7177273986316,6391.834926509208,73.35917355129233,1348.293130225367,0
-74.58377116170462,79.67911877394637,-33.8902922602438,106.50810961968682,-83.31280119162359,-88.46980854197352,33.416971916971875,4.932038834951445,12.031578947368425,13.6613545816733,-36.35686274509804,31.906403940886705,7.538812785388123,0.4980392156862763,-2.2280701754385888,13.644145153311364,181.18586448721356,62.7177273986316,6391.834926509208,73.35917355129233,1348.293130225367,0
-74.58377116170462,79.67911877394637,-33.8902922602438,106.50810961968682,-83.31280119162359,-88.46980854197352,33.416971916971875,4.932038834951445,4.010526315789478,-8.601593625498012,-59.266666666666666,20.64532019704434,6.3789954337899495,-2.490196078431371,-3.713450292397653,13.754848430571114,371.4684706653087,62.7177273986316,6391.834926509208,73.35917355129233,1348.293130225367,0
-78.92089900758903,86.85632183908046,-43.32809516815979,100.57718120805372,-76.10207657933935,-84.60432007854683,16.902319902319846,4.932038834951445,4.010526315789478,-8.601593625498012,-59.266666666666666,20.64532019704434,6.3789954337899495,-2.490196078431371,-3.713450292397653,13.754848430571114,371.4684706653087,69.7017720049431,7616.152844718758,76.92053273843133,893.404391890228,0
-78.92089900758903,86.85632183908046,-43.32809516815979,100.57718120805372,-76.10207657933935,-84.60432007854683,16.902319902319846,20.961165048543677,13.368421052631582,-35.92430278884463,-16.435294117647057,8.133004926108379,5.2191780821917755,-4.482352941176469,0.74269005847954,13.158301126952889,129.66587174918584,69.7017720049431,7616.152844718758,76.92053273843133,893.404391890228,0
-78.92089900758903,86.85632183908046,-43.32809516815979,100.57718120805372,-76.10207657933935,-84.60432007854683,16.902319902319846,6.165048543689309,-5.347368421052627,-5.5657370517928335,19.423529411764708,21.896551724137936,11.018264840182644,-4.482352941176469,-8.169590643274846,10.258555447133922,45.80632201210667,69.7017720049431,7616.152844718758,76.92053273843133,893.404391890228,0
-75.1768826619965,104.6168582375479,-52.09443383756792,96.03131991051455,-68.24594760360992,-82.85861561119293,3.644078144078094,6.165048543689309,-5.347368421052627,-5.5657370517928335,19.423529411764708,21.896551724137936,11.018264840182644,-4.482352941176469,-8.169590643274846,10.258555447133922,45.80632201210667,77.2960582457041,9569.502962372855,84.24753732854346,793.7944151672772,0
-75.1768826619965,104.6168582375479,-52.09443383756792,96.03131991051455,-68.24594760360992,-82.85861561119293,3.644078144078094,3.6990291262135813,2.67368421052632,16.697211155378483,0.4980392156862763,15.640394088669956,16.81735159817351,-2.490196078431371,-8.169590643274846,8.335687014544293,49.19934470564607,77.2960582457041,9569.502962372855,84.24753732854346,793.7944151672772,0
-75.1768826619965,104.6168582375479,-52.09443383756792,96.03131991051455,-68.24594760360992,-82.85861561119293,3.644078144078094,9.864077669902901,5.347368421052636,9.613545816733062,-22.41176470588235,40.66502463054188,5.2191780821917755,-2.490196078431371,-5.1988304093567175,12.601248226761587,166.34044927448673,77.2960582457041,9569.502962372855,84.24753732854346,793.7944151672772,0
-74.36135434909517,122.37739463601534,-63.21089734175356,90.20693512304253,-58.0084990799965,-82.2974963181149,-9.846764346764417,9.864077669902901,5.347368421052636,9.613545816733062,-22.41176470588235,40.66502463054188,5.2191780821917755,-2.490196078431371,-5.1988304093567175,12.601248226761587,166.34044927448673,86.64988210895469,12212.24702715408,91.93174236693714,877.3998205394151,0
-74.36135434909517,122.37739463601534,-63.21089734175356,90.20693512304253,-58.0084990799965,-82.2974963181149,-9.846764346764417,19.728155339805813,14.705263157894741,-6.577689243027893,23.407843137254904,19.394088669950744,20.29680365296803,-0.49803921568627274,2.2280701754386047,13.354494074003375,80.45730737456854,86.64988210895469,12212.24702715408,91.93174236693714,877.3998205394151,0
-74.36135434909517,122.37739463601534,-63.21089734175356,90.20693512304253,-58.0084990799965,-82.2974963181149,-9.846764346764417,3.6990291262135813,-9.3578947368421,-4.553784860557774,17.43137254901961,40.66502463054188,15.657534246575338,0.4980392156862763,-3.713450292397653,11.947016207229275,170.97621555066968,86.64988210895469,12212.24702715408,91.93174236693714,877.3998205394151,0
-77.69760653823701,127.00000000000001,-76.2111910706418,81.54138702460853,-45.723560851660395,-81.61168384879727,-24.112942612942675,3.6990291262135813,-9.3578947368421,-4.553784860557774,17.43137254901961,40.66502463054188,15.657534246575338,0.4980392156862763,-3.713450292397653,11.947016207229275,170.97621555066968,93.63626586962629,13866.351288295684,94.91752603175011,779.0665991694951,0
-77.69760653823701,127.00000000000001,-76.2111910706418,81.54138702460853,-45.723560851660395,-81.61168384879727,-24.112942612942675,7.398058252427173,5.347368421052636,2.5298804780876445,-15.439215686274508,-8.13300492610837,11.018264840182644,1.4941176470588253,-3.713450292397653,6.884170067948682,21.79013440226214,93.63626586962629,13866.351288295684,94.91752603175011,779.0665991694951,0
-77.69760653823701,127.00000000000001,-76.2111910706418,81.54138702460853,-45.723560851660395,-81.61168384879727,-24.112942612942675,9.864077669902901,2.67368421052632,-7.589641434262953,7.4705882352941195,-10.635467980295559,7.538812785388123,1.4941176470588253,0.74269005847954,6.001135002651043,14.64040629948328,93.63626586962629,13866.351288295684,94.91752603175011,779.0665991694951,0
-76.47431406888501,123.59386973180078,-90.70362755176971,69.5374720357942,-31.74721808464033,-81.73637702503675,-36.36324786324792,9.864077669902901,2.67368421052632,-7.589641434262953,7.4705882352941195,-10.635467980295559,7.538812785388123,1.4941176470588253,0.74269005847954,6.001135002651043,14.64040629948328,96.92393711748518,14358.86147891685,94.61165643978823,741.9780503093968,0
-76.47431406888501,123.59386973180078,-90.70362755176971,69.5374720357942,-31.74721808464033,-81.73637702503675,-36.36324786324792,13.563106796116493,-1.3368421052631536,-5.5657370517928335,15.439215686274512,43.16748768472907,14.497716894977163,8.466666666666669,-0.7426900584795244,12.847432868037426,182.9273419242849,96.92393711748518,14358.86147891685,94.61165643978823,741.9780503093968,0
-76.47431406888501,123.59386973180078,-90.70362755176971,69.5374720357942,-31.74721808464033,-81.73637702503675,-36.36324786324792,16.02912621359222,8.021052631578952,-1.5179282868525945,22.411764705882355,59.43349753694582,9.85844748858447,1.4941176470588253,0.74269005847954,14.93857807112185,381.8408785907442,96.92393711748518,14358.86147891685,94.61165643978823,741.9780503093968,0
-92.45125510799767,122.0124521072797,-104.50594800998678,53.555928411633126,-15.834662227284689,-77.87088856161017,-50.706959706959765,16.02912621359222,8.021052631578952,-1.5179282868525945,22.411764705882355,59.43349753694582,9.85844748858447,1.4941176470588253,0.74269005847954,14.93857807112185,381.8408785907442,106.32321840842138,16241.763820861255,93.35810950963321,1264.7796365456295,0
-92.45125510799767,122.0124521072797,-104.50594800998678,53.555928411633126,-15.834662227284689,-77.87088856161017,-50.706959706959765,12.330097087378629,5.347368421052636,-0.5059760956175348,6.4745098039215705,15.640394088669956,4.0593607305936015,-0.49803921568627274,-2.2280701754385888,5.885476952294848,30.28612816202054,106.32321840842138,16241.763820861255,93.35810950963321,1264.7796365456295,0
-92.45125510799767,122.0124521072797,-104.50594800998678,53.555928411633126,-15.834662227284689,-77.87088856161017,-50.706959706959765,8.631067961165037,1.3368421052631625,-7.589641434262953,-6.474509803921567,-8.13300492610837,1.7397260273972552,-4.482352941176469,-6.684210526315782,5.633919465701324,7.974085846605092,106.32321840842138,16241.763820861255,93.35810950963321,1264.7796365456295,0
-96.4547577349679,123.35057471264369,-118.19635776178586,34.164988814317695,2.2144046263033275,-71.63622974963175,-63.11233211233218,8.631067961165037,1.3368421052631625,-7.589641434262953,-6.474509803921567,-8.13300492610837,1.7397260273972552,-4.482352941176469,-6.684210526315782,5.633919465701324,7.974085846605092,112.66723006979915,17855.333655322967,91.90397376291575,2506.984275264952,0
-96.4547577349679,123.35057471264369,-118.19635776178586,34.164988814317695,2.2144046263033275,-71.63622974963175,-63.11233211233218,8.631067961165037,10.694736842105268,-0.5059760956175348,6.4745098039215705,10.635467980295571,13.33789954337899,-2.490196078431371,-8.169590643274846,7.617430618523773,18.686008090748448,112.66723006979915,17855.333655322967,91.90397376291575,2506.984275264952,0
-96.4547577349679,123.35057471264369,-118.19635776178586,34.164988814317695,2.2144046263033275,-71.63622974963175,-63.11233211233218,13.563106796116493,4.010526315789478,-1.5179282868525945,30.380392156862747,31.906403940886705,9.85844748858447,-3.48627450980392,-2.2280701754385888,12.118893708791875,154.67140705284712,112.66723006979915,17855.333655322967,91.90397376291575,2506.984275264952,0
-102.79363689433742,119.8227969348659,-125.24673226611837,13.88618568232664,20.3302374485236,-63.0324005891016,-71.8736263736264,13.563106796116493,4.010526315789478,-1.5179282868525945,30.380392156862747,31.906403940886705,9.85844748858447,-3.48627450980392,-2.2280701754385888,12.118893708791875,154.67140705284712,115.95438869844058,18353.548707566406,86.31857162777031,3942.192668931681,0
-102.79363689433742,119.8227969348659,-125.24673226611837,13.88618568232664,20.3302374485236,-63.0324005891016,-71.8736263736264,8.631067961165037,2.67368421052632,0.505976095617525,-10.458823529411763,16.89162561576355,2.8995433789954284,-0.49803921568627274,-2.2280701754385888,5.598353772825561,34.21444437539075,115.95438869844058,18353.548707566406,86.31857162777031,3942.192668931681,0
-102.79363689433742,119.8227969348659,-125.24673226611837,13.88618568232664,20.3302374485236,-63.0324005891016,-71.8736263736264,6.165048543689309,-1.3368421052631536,-4.553784860557774,13.447058823529414,10.635467980295571,-26.09589041095891,-1.4941176470588218,-3.713450292397653,8.430207582968826,68.99127070037501,115.95438869844058,18353.548707566406,86.31857162777031,3942.192668931681,0
-112.57997664915354,107.11063218390805,-127.0,-7.244966442953007,38.00096381319547,-49.19145802650951,-79.47191697191704,6.165048543689309,-1.3368421052631536,-4.553784860557774,13.447058823529414,10.635467980295571,-26.09589041095891,-1.4941176470588218,-3.713450292397653,8.430207582968826,68.99127070037501,115.56353627768719,17213.281464071555,80.45186620895369,4118.334368042901,0
-112.57997664915354,107.11063218390805,-127.0,-7.244966442953007,38.00096381319547,-49.19145802650951,-79.47191697191704,13.563106796116493,9.357894736842109,1.5179282868525847,7.4705882352941195,30.65517241379311,13.33789954337899,-0.49803921568627274,-3.713450292397653,10.014259940045166,94.14793623468496,115.56353627768719,17213.281464071555,80.45186620895369,4118.334368042901,0
-112.57997664915354,107.11063218390805,-127.0,-7.244966442953007,38.00096381319547,-49.19145802650951,-79.47191697191704,14.796116504854357,9.357894736842109,-12.64940239043825,2.4901960784313744,44.41871921182266,33.054794520547944,12.450980392156865,25.994152046783633,19.401531985234648,193.95901120774369,115.56353627768719,17213.281464071555,80.45186620895369,4118.334368042901,0
-127.0,106.50239463601534,-122.95256278454985,-27.133109619686792,55.18207307456408,-29.302896416298495,-87.53540903540909,14.796116504854357,9.357894736842109,-12.64940239043825,2.4901960784313744,44.41871921182266,33.054794520547944,12.450980392156865,25.994152046783633,19.401531985234648,193.95901120774369,118.8183191401884,17864.88792227331,85.529355680084,2625.2431734886068,0
-127.0,106.50239463601534,-122.95256278454985,-27.133109619686792,55.18207307456408,-29.302896416298495,-87.53540903540909,4.932038834951445,-6.684210526315784,-9.613545816733073,-17.431372549019606,14.38916256157636,-4.059360730593614,-4.482352941176469,-14.111111111111104,9.462894383934682,27.378154573521815,118.8183191401884,17864.88792227331,85.529355680084,2625.2431734886068,0
-127.0,106.50239463601534,-122.95256278454985,-27.133109619686792,55.18207307456408,-29.302896416298495,-87.53540903540909,9.864077669902901,1.3368421052631625,16.697211155378483,-35.36078431372549,33.1576354679803,22.61643835616438,8.466666666666669,8.169590643274862,16.95865579729453,153.83711151446826,118.8183191401884,17864.88792227331,85.529355680084,2625.2431734886068,0
-115.32311733800351,100.29837164750958,-116.49904538111323,-45.74272930648769,70.93884167177778,-9.850760922925815,-90.40415140415143,9.864077669902901,1.3368421052631625,16.697211155378483,-35.36078431372549,33.1576354679803,22.61643835616438,8.466666666666669,8.169590643274862,16.95865579729453,153.83711151446826,110.70684478887544,15582.521558229153,87.5133821117035,1374.2060341860815,0
-115.32311733800351,100.29837164750958,-116.49904538111323,-45.74272930648769,70.93884167177778,-9.850760922925815,-90.40415140415143,9.864077669902901,-2.673684210526311,5.565737051792824,38.34901960784314,29.403940886699512,29.57534246575342,-2.490196078431371,-6.684210526315782,15.575776062158157,207.91533119202882,110.70684478887544,15582.521558229153,87.5133821117035,1374.2060341860815,0
-115.32311733800351,100.29837164750958,-116.49904538111323,-45.74272930648769,70.93884167177778,-9.850760922925815,-90.40415140415143,9.864077669902901,2.67368421052632,13.6613545816733,54.286274509803924,26.90147783251232,6.3789954337899495,-4.482352941176469,-9.65497076023391,15.987898492452386,295.8383828062153,110.70684478887544,15582.521558229153,87.5133821117035,1374.2060341860815,0
-110.50408639813193,81.50383141762453,-110.79159935379644,-64.1037472035794,85.02646105318495,10.411880216003965,-90.17155067155068,9.864077669902901,2.67368421052632,13.6613545816733,54.286274509803924,26.90147783251232,6.3789954337899495,-4.482352941176469,-9.65497076023391,15.987898492452386,295.8383828062153,100.93317238985098,12307.442643868053,85.46639265833346,556.715303289908,0
-110.50408639813193,81.50383141762453,-110.79159935379644,-64.1037472035794,85.02646105318495,10.411880216003965,-90.17155067155068,8.631067961165037,5.347368421052636,-5.5657370517928335,-2.490196078431371,19.394088669950744,6.3789954337899495,-1.4941176470588218,-6.684210526315782,6.998222723694647,30.314362040222044,100.93317238985098,12307.442643868053,85.46639265833346,556.715303289908,0
-110.50408639813193,81.50383141762453,-110.79159935379644,-64.1037472035794,85.02646105318495,10.411880216003965,-90.17155067155068,7.398058252427173,2.67368421052632,-7.589641434262953,0.4980392156862763,43.16748768472907,56.25114155251141,-0.49803921568627274,-15.596491228070168,16.709072849237455,451.04387573364494,100.93317238985098,12307.442643868053,85.46639265833346,556.715303289908,0
-119.36368943374198,58.39080459770116,-98.779850198267,-80.4049217002237,96.77727153246296,33.60481099656363,-91.41208791208794,7.398058252427173,2.67368421052632,-7.589641434262953,0.4980392156862763,43.16748768472907,56.25114155251141,-0.49803921568627274,-15.596491228070168,16.709072849237455,451.04387573364494,92.17811474323672,9453.82821917327,79.19185883206394,408.9223922727276,0
-119.36368943374198,58.39080459770116,-98.779850198267,-80.4049217002237,96.77727153246296,33.60481099656363,-91.41208791208794,25.893203883495133,25.400000000000002,0.505976095617525,-20.419607843137253,13.137931034482763,15.657534246575338,23.407843137254904,52.73099415204679,22.144136299076212,222.31152847480104,92.17811474323672,9453.82821917327,79.19185883206394,408.9223922727276,0
-119.36368943374198,58.39080459770116,-98.779850198267,-80.4049217002237,96.77727153246296,33.60481099656363,-91.41208791208794,-6.1650485436893305,2.67368421052632,-8.601593625498012,1.4941176470588253,51.92610837438424,29.57534246575342,-27.392156862745097,-104.71929824561403,29.06841874690866,1235.582251314581,92.17811474323672,9453.82821917327,79.19185883206394,408.9223922727276,0
-125.03531815528314,57.965038314176255,-86.15259215743868,-93.2256711409396,107.17050731621833,58.29405989199802,-94.04822954822953,-6.1650485436893305,2.67368421052632,-8.601593625498012,1.4941176470588253,51.92610837438424,29.57534246575342,-27.392156862745097,-104.71929824561403,29.06841874690866,1235.582251314581,89.71764954229936,9295.148043620937,79.1144338708515,347.97981088624687,0
-125.03531815528314,57.965038314176255,-86.15259215743868,-93.2256711409396,107.17050731621833,58.29405989199802,-94.04822954822953,-1.2330097087378746,-5.347368421052627,4.553784860557764,12.450980392156865,24.399014778325128,19.13698630136986,-11.454901960784312,-12.62573099415204,11.400222177142059,59.759719238348126,89.71764954229936,9295.148043620937,79.1144338708515,347.97981088624687,0
-125.03531815528314,57.965038314176255,-86.15259215743868,-93.2256711409396,107.17050731621833,58.29405989199802,-94.04822954822953,23.427184466019405,-9.3578947368421,-34.91235059760957,-8.466666666666665,-14.389162561576349,1.7397260273972552,15.439215686274512,28.964912280701764,17.08713912788595,125.51534518709276,89.71764954229936,9295.148043620937,79.1144338708515,347.97981088624687,0
-121.55078809106831,67.69683908045978,-76.08062857982083,-103.09871364653242,116.87382809077366,81.92341678939624,-95.67643467643472,23.427184466019405,-9.3578947368421,-34.91235059760957,-8.466666666666665,-14.389162561576349,1.7397260273972552,15.439215686274512,28.964912280701764,17.08713912788595,125.51534518709276,88.44275191711631,9759.026667139171,82.29206043560434,342.25959497226677,0
-121.55078809106831,67.69683908045978,-76.08062857982083,-103.09871364653242,116.87382809077366,81.92341678939624,-95.67643467643472,-4.9320388349514666,18.715789473684215,-6.577689243027893,2.4901960784313744,43.16748768472907,-6.37899543378996,3.4862745098039234,-6.684210526315782,11.554085223091711,188.15058975903662,88.44275191711631,9759.026667139171,82.29206043560434,342.25959497226677,0
-121.55078809106831,67.69683908045978,-76.08062857982083,-103.09871364653242,116.87382809077366,81.92341678939624,-95.67643467643472,34.52427184466018,26.73684210526316,-12.64940239043825,-5.478431372549018,-10.635467980295559,-24.936073059360737,15.439215686274512,15.596491228070185,18.24952445836395,92.71205115279632,88.44275191711631,9759.026667139171,82.29206043560434,342.25959497226677,0
-107.31611208406305,59.54645593869733,-63.39741518578352,-110.98294183445188,124.59642512923857,101.87432498772705,-96.06410256410265,34.52427184466018,26.73684210526316,-12.64940239043825,-5.478431372549018,-10.635467980295559,-24.936073059360737,15.439215686274512,15.596491228070185,18.24952445836395,92.71205115279632,76.7533277361813,7481.193998577705,77.97560431964425,820.8207191430002,0
-107.31611208406305,59.54645593869733,-63.39741518578352,-110.98294183445188,124.59642512923857,101.87432498772705,-96.06410256410265,-2.4660194174757386,8.021052631578952,-24.792828685258968,-41.33725490196078,-20.645320197044327,-14.497716894977174,-45.32156862745098,-24.508771929824555,22.698816660696437,223.3026910473179,76.7533277361813,7481.193998577705,77.97560431964425,820.8207191430002,0
-107.31611208406305,59.54645593869733,-63.39741518578352,-110.98294183445188,124.59642512923857,101.87432498772705,-96.06410256410265,-2.4660194174757386,-14.70526315789473,0.505976095617525,-11.454901960784312,-23.147783251231523,-24.936073059360737,-25.4,-25.99415204678362,16.076271123643522,109.24405868896277,76.7533277361813,7481.193998577705,77.97560431964425,820.8207191430002,0
-78.3648569760654,11.37404214559388,-48.06564840652078,-118.15687919463087,126.99999999999999,114.7177221404026,-97.22710622710622,-2.4660194174757386,-14.70526315789473,0.505976095617525,-11.454901960784312,-23.147783251231523,-24.936073059360737,-25.4,-25.99415204678362,16.076271123643522,109.24405868896277,45.93484917606002,2084.031478073209,59.19885658224851,2943.604815273365,0
-78.3648569760654,11.37404214559388,-48.06564840652078,-118.15687919463087,126.99999999999999,114.7177221404026,-97.22710622710622,27.126213592232997,-40.10526315789473,8.601593625498003,19.423529411764708,70.69458128078819,127.0,-37.35294117647059,2.2280701754386047,41.56652405251097,1642.8924948235801,45.93484917606002,2084.031478073209,59.19885658224851,2943.604815273365,0
-78.3648569760654,11.37404214559388,-48.06564840652078,-118.15687919463087,126.99999999999999,114.7177221404026,-97.22710622710622,-32.05825242718447,-82.88421052631578,-10.625498007968133,0.4980392156862763,88.21182266009853,9.85844748858447,3.4862745098039234,-82.43859649122807,38.757642665858704,1525.7464542030518,45.93484917606002,2084.031478073209,59.19885658224851,2943.604815273365,0
-69.2086981903094,-11.799808429118762,-35.62490820972243,-123.62611856823264,126.62165951108383,124.56848306332847,-100.71611721611725,-32.05825242718447,-82.88421052631578,-10.625498007968133,0.4980392156862763,88.21182266009853,9.85844748858447,3.4862745098039234,-82.43859649122807,38.757642665858704,1525.7464542030518,38.8778049430502,831.8811587714058,57.016945069024615,3469.4953405746282,0
-69.2086981903094,-11.799808429118762,-35.62490820972243,-123.62611856823264,126.62165951108383,124.56848306332847,-100.71611721611725,53.01941747572814,20.05263157894737,-12.64940239043825,0.4980392156862763,33.1576354679803,-5.219178082191785,-4.482352941176469,17.08187134502925,18.27006606214723,305.9442859284056,38.8778049430502,831.8811587714058,57.016945069024615,3469.4953405746282,0
-69.2086981903094,-11.799808429118762,-35.62490820972243,-123.62611856823264,126.62165951108383,124.56848306332847,-100.71611721611725,57.951456310679596,48.126315789473686,30.864541832669318,25.400000000000002,48.17241379310345,-0.5799086757990928,58.27058823529412,103.23391812865498,46.574892845709286,898.8784862900313,38.8778049430502,831.8811587714058,57.016945069024615,3469.4953405746282,0
-45.37302977232926,-25.363505747126425,-20.349096783668674,-126.89345637583892,123.28336107947077,127.0,-104.1275946275947,57.951456310679596,48.126315789473686,30.864541832669318,25.400000000000002,48.17241379310345,-0.5799086757990928,58.27058823529412,103.23391812865498,46.574892845709286,898.8784862900313,30.361877434374787,175.28709519815843,57.53535296887801,3614.195955471213,0
-45.37302977232926,-25.363505747126425,-20.349096783668674,-126.89345637583892,123.28336107947077,127.0,-104.1275946275947,-50.553398058252434,-64.16842105263157,-22.76892430278885,-11.454901960784312,125.7487684729064,7.538812785388123,110.06666666666666,57.18713450292398,56.185878475292796,1903.2390603672372,30.361877434374787,175.28709519815843,57.53535296887801,3614.195955471213,0
-45.37302977232926,-25.363505747126425,-20.349096783668674,-126.89345637583892,123.28336107947077,127.0,-104.1275946275947,-2.4660194174757386,21.38947368421053,-18.72111553784861,-37.35294117647059,94.4679802955665,102.64383561643835,-48.30980392156863,-8.169590643274846,41.69009503660673,1452.1909545536996,30.361877434374787,175.28709519815843,57.53535296887801,3614.195955471213,0
