,Gyro 0,Gyro 1,Gyro 2,Label,Orientation 0,Orientation 1,Orientation 2,Orientation 3,Sensor 0,Sensor 1,Sensor 2,Sensor 3,Sensor 4,Sensor 5,Sensor 6,Sensor 7,Timestamp
0,-16.0,41.0,23.0,0.0,5054.0,437.0,-12990.0,-8601.0,3.0,1.0,4.0,4.0,-3.0,2.0,-9.0,1.0,1.9073486328125e-06
1,-16.0,41.0,23.0,0.0,5054.0,437.0,-12990.0,-8601.0,4.0,6.0,12.0,15.0,25.0,20.0,-28.0,-3.0,0.0023736953735351562
2,-16.0,41.0,23.0,0.0,5054.0,437.0,-12990.0,-8601.0,3.0,3.0,14.0,-13.0,39.0,1.0,9.0,6.0,0.006051540374755859
3,-16.0,41.0,23.0,0.0,5054.0,437.0,-12990.0,-8601.0,0.0,-6.0,-10.0,12.0,53.0,5.0,-9.0,-1.0,0.009233236312866211
4,-15.0,38.0,32.0,0.0,5059.0,438.0,-12988.0,-8602.0,0.0,-6.0,-10.0,12.0,53.0,5.0,-9.0,-1.0,0.011077165603637695
5,-15.0,38.0,32.0,0.0,5059.0,438.0,-12988.0,-8602.0,-11.0,-12.0,-23.0,-11.0,17.0,5.0,-7.0,-9.0,0.013245820999145508
6,-15.0,38.0,32.0,0.0,5059.0,438.0,-12988.0,-8602.0,1.0,-2.0,-8.0,-5.0,12.0,-4.0,-5.0,0.0,0.015039205551147461
7,-57.0,65.0,30.0,0.0,5066.0,440.0,-12981.0,-8608.0,1.0,-2.0,-8.0,-5.0,12.0,-4.0,-5.0,0.0,0.016839981079101562
8,-57.0,65.0,30.0,0.0,5066.0,440.0,-12981.0,-8608.0,-5.0,-19.0,-44.0,0.0,-35.0,-31.0,-3.0,-2.0,0.018854618072509766
9,-57.0,65.0,30.0,0.0,5066.0,440.0,-12981.0,-8608.0,1.0,5.0,18.0,22.0,-25.0,1.0,20.0,3.0,0.02163076400756836
10,-53.0,57.0,14.0,0.0,5072.0,442.0,-12975.0,-8613.0,1.0,5.0,18.0,22.0,-25.0,1.0,20.0,3.0,0.023873090744018555
11,-53.0,57.0,14.0,0.0,5072.0,442.0,-12975.0,-8613.0,3.0,7.0,14.0,-21.0,-71.0,11.0,39.0,6.0,0.025722265243530273
12,-53.0,57.0,14.0,0.0,5072.0,442.0,-12975.0,-8613.0,0.0,-7.0,-5.0,2.0,10.0,16.0,11.0,1.0,0.027498245239257812
13,-30.0,56.0,3.0,0.0,5077.0,448.0,-12971.0,-8616.0,0.0,-7.0,-5.0,2.0,10.0,16.0,11.0,1.0,0.029277563095092773
14,-30.0,56.0,3.0,0.0,5077.0,448.0,-12971.0,-8616.0,1.0,-1.0,-1.0,-1.0,51.0,-6.0,-14.0,0.0,0.031135082244873047
15,-30.0,56.0,3.0,0.0,5077.0,448.0,-12971.0,-8616.0,-2.0,3.0,10.0,-7.0,-7.0,11.0,-9.0,-6.0,0.03400731086730957
16,-11.0,63.0,-30.0,0.0,5077.0,461.0,-12969.0,-8618.0,-2.0,3.0,10.0,-7.0,-7.0,11.0,-9.0,-6.0,0.035939693450927734
17,-11.0,63.0,-30.0,0.0,5077.0,461.0,-12969.0,-8618.0,-4.0,-24.0,-44.0,-27.0,-18.0,-2.0,-17.0,-1.0,0.037784576416015625
18,-11.0,63.0,-30.0,0.0,5077.0,461.0,-12969.0,-8618.0,-3.0,-7.0,-4.0,-15.0,3.0,-14.0,-19.0,-4.0,0.03954315185546875
19,-56.0,56.0,-18.0,0.0,5081.0,467.0,-12961.0,-8627.0,-3.0,-7.0,-4.0,-15.0,3.0,-14.0,-19.0,-4.0,0.04137873649597168
20,-56.0,56.0,-18.0,0.0,5081.0,467.0,-12961.0,-8627.0,6.0,23.0,39.0,11.0,2.0,-1.0,9.0,-2.0,0.043233394622802734
21,-56.0,56.0,-18.0,0.0,5081.0,467.0,-12961.0,-8627.0,-5.0,-6.0,-12.0,-8.0,-55.0,-20.0,-13.0,-2.0,0.04524087905883789
22,-36.0,55.0,12.0,0.0,5088.0,470.0,-12957.0,-8629.0,-5.0,-6.0,-12.0,-8.0,-55.0,-20.0,-13.0,-2.0,0.04710984230041504
23,-36.0,55.0,12.0,0.0,5088.0,470.0,-12957.0,-8629.0,-3.0,-13.0,-2.0,0.0,-19.0,2.0,14.0,1.0,0.0489499568939209
24,-36.0,55.0,12.0,0.0,5088.0,470.0,-12957.0,-8629.0,-2.0,-1.0,-1.0,6.0,-29.0,-10.0,22.0,2.0,0.05151009559631348
25,-10.0,46.0,36.0,0.0,5097.0,468.0,-12956.0,-8626.0,-2.0,-1.0,-1.0,6.0,-29.0,-10.0,22.0,2.0,0.05400991439819336
26,-10.0,46.0,36.0,0.0,5097.0,468.0,-12956.0,-8626.0,0.0,-1.0,-17.0,-9.0,19.0,12.0,-32.0,-3.0,0.0559539794921875
27,-10.0,46.0,36.0,0.0,5097.0,468.0,-12956.0,-8626.0,1.0,-9.0,-13.0,-1.0,9.0,24.0,22.0,6.0,0.05773019790649414
28,-12.0,40.0,13.0,0.0,5102.0,471.0,-12954.0,-8626.0,1.0,-9.0,-13.0,-1.0,9.0,24.0,22.0,6.0,0.05950617790222168
29,-12.0,40.0,13.0,0.0,5102.0,471.0,-12954.0,-8626.0,5.0,23.0,3.0,10.0,-9.0,-23.0,-12.0,-3.0,0.06135368347167969
30,-12.0,40.0,13.0,0.0,5102.0,471.0,-12954.0,-8626.0,-4.0,-1.0,-3.0,-19.0,24.0,5.0,23.0,-2.0,0.06316041946411133
31,-37.0,44.0,-5.0,0.0,5107.0,475.0,-12947.0,-8632.0,-4.0,-1.0,-3.0,-19.0,24.0,5.0,23.0,-2.0,0.06491255760192871
32,-37.0,44.0,-5.0,0.0,5107.0,475.0,-12947.0,-8632.0,-1.0,-1.0,7.0,12.0,6.0,9.0,-7.0,0.0,0.0676572322845459
33,-37.0,44.0,-5.0,0.0,5107.0,475.0,-12947.0,-8632.0,-1.0,-3.0,-17.0,-7.0,7.0,3.0,-3.0,-1.0,0.06949663162231445
34,-54.0,54.0,-17.0,0.0,5112.0,480.0,-12939.0,-8641.0,-1.0,-3.0,-17.0,-7.0,7.0,3.0,-3.0,-1.0,0.0712747573852539
35,-54.0,54.0,-17.0,0.0,5112.0,480.0,-12939.0,-8641.0,-4.0,-2.0,-25.0,-9.0,-29.0,-22.0,-37.0,-8.0,0.0731208324432373
36,-54.0,54.0,-17.0,0.0,5112.0,480.0,-12939.0,-8641.0,-4.0,-7.0,14.0,6.0,45.0,30.0,30.0,3.0,0.07495522499084473
37,-30.0,50.0,-10.0,0.0,5117.0,485.0,-12935.0,-8644.0,-4.0,-7.0,14.0,6.0,45.0,30.0,30.0,3.0,0.07674360275268555
38,-30.0,50.0,-10.0,0.0,5117.0,485.0,-12935.0,-8644.0,-2.0,-10.0,-2.0,22.0,-9.0,3.0,-11.0,0.0,0.07882118225097656
39,-30.0,50.0,-10.0,0.0,5117.0,485.0,-12935.0,-8644.0,1.0,-4.0,-16.0,20.0,8.0,-9.0,-3.0,1.0,0.0807645320892334
40,9.0,37.0,7.0,0.0,5121.0,490.0,-12934.0,-8642.0,1.0,-4.0,-16.0,20.0,8.0,-9.0,-3.0,1.0,0.08368754386901855
41,9.0,37.0,7.0,0.0,5121.0,490.0,-12934.0,-8642.0,2.0,11.0,18.0,21.0,20.0,1.0,9.0,-1.0,0.08592414855957031
42,9.0,37.0,7.0,0.0,5121.0,490.0,-12934.0,-8642.0,-1.0,-8.0,-4.0,14.0,7.0,10.0,12.0,0.0,0.08772587776184082
43,31.0,60.0,21.0,0.0,5126.0,498.0,-12936.0,-8636.0,-1.0,-8.0,-4.0,14.0,7.0,10.0,12.0,0.0,0.08948707580566406
44,31.0,60.0,21.0,0.0,5126.0,498.0,-12936.0,-8636.0,-2.0,10.0,10.0,-6.0,-25.0,-5.0,8.0,0.0,0.09136629104614258
45,31.0,60.0,21.0,0.0,5126.0,498.0,-12936.0,-8636.0,5.0,19.0,12.0,-14.0,-11.0,2.0,-16.0,-3.0,0.09320211410522461
46,-20.0,23.0,-4.0,0.0,5126.0,502.0,-12933.0,-8640.0,5.0,19.0,12.0,-14.0,-11.0,2.0,-16.0,-3.0,0.09498906135559082
47,-20.0,23.0,-4.0,0.0,5126.0,502.0,-12933.0,-8640.0,-2.0,-9.0,-21.0,20.0,56.0,21.0,3.0,4.0,0.09682202339172363
48,-20.0,23.0,-4.0,0.0,5126.0,502.0,-12933.0,-8640.0,-4.0,-6.0,-8.0,-9.0,-33.0,-15.0,0.0,-1.0,0.09890937805175781
49,-41.0,32.0,-1.0,0.0,5129.0,505.0,-12928.0,-8646.0,-4.0,-6.0,-8.0,-9.0,-33.0,-15.0,0.0,-1.0,0.10113716125488281
50,-41.0,32.0,-1.0,0.0,5129.0,505.0,-12928.0,-8646.0,-2.0,-6.0,12.0,-1.0,9.0,7.0,16.0,0.0,0.1030130386352539
51,-41.0,32.0,-1.0,0.0,5129.0,505.0,-12928.0,-8646.0,3.0,5.0,9.0,7.0,-9.0,-8.0,-22.0,-2.0,0.10477399826049805
52,-15.0,33.0,-6.0,0.0,5131.0,509.0,-12925.0,-8649.0,3.0,5.0,9.0,7.0,-9.0,-8.0,-22.0,-2.0,0.10660028457641602
53,-15.0,33.0,-6.0,0.0,5131.0,509.0,-12925.0,-8649.0,-4.0,-4.0,1.0,-9.0,4.0,7.0,0.0,-3.0,0.10846614837646484
54,-15.0,33.0,-6.0,0.0,5131.0,509.0,-12925.0,-8649.0,-6.0,-1.0,-12.0,-22.0,-20.0,-10.0,-36.0,-5.0,0.11026501655578613
55,-14.0,22.0,0.0,0.0,5132.0,513.0,-12921.0,-8654.0,-6.0,-1.0,-12.0,-22.0,-20.0,-10.0,-36.0,-5.0,0.11325478553771973
56,-14.0,22.0,0.0,0.0,5132.0,513.0,-12921.0,-8654.0,3.0,-4.0,-2.0,-7.0,-22.0,5.0,37.0,9.0,0.1164860725402832
57,-14.0,22.0,0.0,0.0,5132.0,513.0,-12921.0,-8654.0,6.0,5.0,9.0,1.0,14.0,19.0,14.0,1.0,0.11874938011169434
58,1.0,14.0,-10.0,0.0,5131.0,514.0,-12921.0,-8654.0,6.0,5.0,9.0,1.0,14.0,19.0,14.0,1.0,0.12054157257080078
59,1.0,14.0,-10.0,0.0,5131.0,514.0,-12921.0,-8654.0,-5.0,-5.0,0.0,12.0,9.0,-18.0,-67.0,-11.0,0.12241458892822266
60,1.0,14.0,-10.0,0.0,5131.0,514.0,-12921.0,-8654.0,5.0,5.0,14.0,12.0,15.0,2.0,6.0,0.0,0.12419366836547852
61,-2.0,9.0,-8.0,0.0,5131.0,514.0,-12921.0,-8654.0,5.0,5.0,14.0,12.0,15.0,2.0,6.0,0.0,0.12601041793823242
62,-2.0,9.0,-8.0,0.0,5131.0,514.0,-12921.0,-8654.0,-1.0,-5.0,3.0,-4.0,7.0,17.0,-5.0,1.0,0.12787222862243652
63,-2.0,9.0,-8.0,0.0,5131.0,514.0,-12921.0,-8654.0,-3.0,4.0,27.0,17.0,-17.0,-1.0,-4.0,-3.0,0.12988948822021484
64,-37.0,4.0,-4.0,0.0,5128.0,516.0,-12917.0,-8662.0,-3.0,4.0,27.0,17.0,-17.0,-1.0,-4.0,-3.0,0.13167452812194824
65,-37.0,4.0,-4.0,0.0,5128.0,516.0,-12917.0,-8662.0,2.0,5.0,4.0,5.0,14.0,10.0,13.0,0.0,0.133530855178833
66,-37.0,4.0,-4.0,0.0,5128.0,516.0,-12917.0,-8662.0,-4.0,4.0,-8.0,-3.0,15.0,-11.0,11.0,-1.0,0.13537907600402832
67,5.0,5.0,-8.0,0.0,5128.0,517.0,-12918.0,-8662.0,-4.0,4.0,-8.0,-3.0,15.0,-11.0,11.0,-1.0,0.13721275329589844
68,5.0,5.0,-8.0,0.0,5128.0,517.0,-12918.0,-8662.0,0.0,-9.0,-16.0,-29.0,-5.0,-6.0,7.0,1.0,0.13910293579101562
69,5.0,5.0,-8.0,0.0,5128.0,517.0,-12918.0,-8662.0,-1.0,-3.0,-6.0,-3.0,-4.0,-9.0,0.0,-3.0,0.14090466499328613
70,14.0,13.0,-10.0,0.0,5127.0,517.0,-12918.0,-8662.0,-1.0,-3.0,-6.0,-3.0,-4.0,-9.0,0.0,-3.0,0.14384007453918457
71,14.0,13.0,-10.0,0.0,5127.0,517.0,-12918.0,-8662.0,3.0,3.0,7.0,8.0,-33.0,-8.0,4.0,-3.0,0.1464533805847168
72,14.0,13.0,-10.0,0.0,5127.0,517.0,-12918.0,-8662.0,-5.0,2.0,-3.0,-4.0,-6.0,7.0,72.0,8.0,0.14834976196289062
73,-22.0,15.0,-25.0,0.0,5124.0,523.0,-12916.0,-8666.0,-5.0,2.0,-3.0,-4.0,-6.0,7.0,72.0,8.0,0.1508769989013672
74,-22.0,15.0,-25.0,0.0,5124.0,523.0,-12916.0,-8666.0,-2.0,6.0,15.0,-7.0,0.0,-9.0,17.0,1.0,0.1528186798095703
75,-22.0,15.0,-25.0,0.0,5124.0,523.0,-12916.0,-8666.0,-5.0,-12.0,-11.0,-4.0,-1.0,-3.0,-35.0,-5.0,0.15462899208068848
76,-21.0,15.0,-14.0,0.0,5121.0,527.0,-12915.0,-8668.0,-5.0,-12.0,-11.0,-4.0,-1.0,-3.0,-35.0,-5.0,0.15638065338134766
77,-21.0,15.0,-14.0,0.0,5121.0,527.0,-12915.0,-8668.0,0.0,0.0,2.0,-18.0,-51.0,-35.0,12.0,-1.0,0.15823054313659668
78,-21.0,15.0,-14.0,0.0,5121.0,527.0,-12915.0,-8668.0,-5.0,-6.0,-6.0,-10.0,-2.0,-9.0,-10.0,1.0,0.159987211227417
79,-15.0,2.0,5.0,0.0,5121.0,527.0,-12915.0,-8668.0,-5.0,-6.0,-6.0,-10.0,-2.0,-9.0,-10.0,1.0,0.16200542449951172
80,-15.0,2.0,5.0,0.0,5121.0,527.0,-12915.0,-8668.0,-2.0,9.0,7.0,7.0,24.0,0.0,-25.0,-4.0,0.16388320922851562
81,-15.0,2.0,5.0,0.0,5121.0,527.0,-12915.0,-8668.0,-1.0,-11.0,3.0,15.0,-30.0,-18.0,-2.0,-1.0,0.1656494140625
82,41.0,11.0,11.0,0.0,5121.0,531.0,-12919.0,-8662.0,-1.0,-11.0,3.0,15.0,-30.0,-18.0,-2.0,-1.0,0.16742277145385742
83,41.0,11.0,11.0,0.0,5121.0,531.0,-12919.0,-8662.0,-1.0,-7.0,-3.0,6.0,1.0,3.0,-17.0,-1.0,0.16926240921020508
84,41.0,11.0,11.0,0.0,5121.0,531.0,-12919.0,-8662.0,6.0,9.0,2.0,-3.0,23.0,13.0,-7.0,2.0,0.17105412483215332
85,44.0,15.0,10.0,0.0,5120.0,537.0,-12923.0,-8658.0,6.0,9.0,2.0,-3.0,23.0,13.0,-7.0,2.0,0.17292261123657227
86,44.0,15.0,10.0,0.0,5120.0,537.0,-12923.0,-8658.0,1.0,4.0,5.0,23.0,-7.0,1.0,11.0,-3.0,0.1761012077331543
87,44.0,15.0,10.0,0.0,5120.0,537.0,-12923.0,-8658.0,2.0,5.0,8.0,5.0,-4.0,12.0,12.0,-4.0,0.17810797691345215
88,-38.0,29.0,-8.0,0.0,5120.0,541.0,-12919.0,-8662.0,2.0,5.0,8.0,5.0,-4.0,12.0,12.0,-4.0,0.1798710823059082
89,-38.0,29.0,-8.0,0.0,5120.0,541.0,-12919.0,-8662.0,-2.0,-10.0,-7.0,0.0,21.0,-2.0,12.0,0.0,0.18178939819335938
90,-38.0,29.0,-8.0,0.0,5120.0,541.0,-12919.0,-8662.0,1.0,12.0,9.0,-4.0,-8.0,-22.0,-22.0,0.0,0.18465352058410645
91,-22.0,24.0,9.0,0.0,5123.0,541.0,-12917.0,-8664.0,1.0,12.0,9.0,-4.0,-8.0,-22.0,-22.0,0.0,0.1864609718322754
92,-22.0,24.0,9.0,0.0,5123.0,541.0,-12917.0,-8664.0,-6.0,-8.0,-12.0,3.0,73.0,35.0,3.0,-3.0,0.1883082389831543
93,-22.0,24.0,9.0,0.0,5123.0,541.0,-12917.0,-8664.0,-4.0,-3.0,-13.0,-11.0,-17.0,-14.0,-3.0,-6.0,0.19008350372314453
94,36.0,9.0,31.0,0.0,5126.0,540.0,-12921.0,-8656.0,-4.0,-3.0,-13.0,-11.0,-17.0,-14.0,-3.0,-6.0,0.19184470176696777
95,36.0,9.0,31.0,0.0,5126.0,540.0,-12921.0,-8656.0,1.0,4.0,11.0,4.0,7.0,11.0,-3.0,0.0,0.19367384910583496
96,36.0,9.0,31.0,0.0,5126.0,540.0,-12921.0,-8656.0,-2.0,-19.0,-18.0,-12.0,-30.0,-17.0,1.0,-1.0,0.19571948051452637
97,36.0,13.0,22.0,0.0,5125.0,543.0,-12926.0,-8649.0,-2.0,-19.0,-18.0,-12.0,-30.0,-17.0,1.0,-1.0,0.19756126403808594
98,36.0,13.0,22.0,0.0,5125.0,543.0,-12926.0,-8649.0,-5.0,1.0,1.0,-50.0,-80.0,-78.0,-8.0,-5.0,0.1994462013244629
99,36.0,13.0,22.0,0.0,5125.0,543.0,-12926.0,-8649.0,-9.0,-41.0,-43.0,-8.0,-12.0,14.0,3.0,0.0,0.2012007236480713
100,11.0,16.0,16.0,0.0,5126.0,545.0,-12928.0,-8646.0,-9.0,-41.0,-43.0,-8.0,-12.0,14.0,3.0,0.0,0.2029716968536377
101,11.0,16.0,16.0,0.0,5126.0,545.0,-12928.0,-8646.0,1.0,-2.0,-11.0,5.0,60.0,22.0,13.0,5.0,0.20554637908935547
102,11.0,16.0,16.0,0.0,5126.0,545.0,-12928.0,-8646.0,-4.0,-10.0,-7.0,-9.0,-22.0,-20.0,-42.0,-7.0,0.20844531059265137
103,12.0,8.0,26.0,0.0,5128.0,544.0,-12929.0,-8643.0,-4.0,-10.0,-7.0,-9.0,-22.0,-20.0,-42.0,-7.0,0.21042680740356445
104,12.0,8.0,26.0,0.0,5128.0,544.0,-12929.0,-8643.0,0.0,11.0,-1.0,0.0,-10.0,28.0,14.0,8.0,0.21232843399047852
105,12.0,8.0,26.0,0.0,5128.0,544.0,-12929.0,-8643.0,-3.0,-10.0,-15.0,-7.0,61.0,5.0,-10.0,-7.0,0.21413755416870117
106,18.0,9.0,39.0,0.0,5132.0,542.0,-12930.0,-8639.0,-3.0,-10.0,-15.0,-7.0,61.0,5.0,-10.0,-7.0,0.216996431350708
107,18.0,9.0,39.0,0.0,5132.0,542.0,-12930.0,-8639.0,-4.0,0.0,-13.0,-13.0,-84.0,-57.0,-69.0,-15.0,0.21902251243591309
108,18.0,9.0,39.0,0.0,5132.0,542.0,-12930.0,-8639.0,8.0,39.0,57.0,2.0,-39.0,82.0,20.0,8.0,0.22080564498901367
109,-12.0,15.0,32.0,0.0,5136.0,539.0,-12928.0,-8640.0,8.0,39.0,57.0,2.0,-39.0,82.0,20.0,8.0,0.22260808944702148
110,-12.0,15.0,32.0,0.0,5136.0,539.0,-12928.0,-8640.0,-3.0,-23.0,-2.0,0.0,48.0,60.0,7.0,-2.0,0.22446846961975098
111,-12.0,15.0,32.0,0.0,5136.0,539.0,-12928.0,-8640.0,-2.0,1.0,4.0,-14.0,-43.0,-66.0,-67.0,-9.0,0.22625994682312012
112,-97.0,36.0,50.0,0.0,5149.0,528.0,-12915.0,-8652.0,-2.0,1.0,4.0,-14.0,-43.0,-66.0,-67.0,-9.0,0.2281172275543213
113,-97.0,36.0,50.0,0.0,5149.0,528.0,-12915.0,-8652.0,2.0,1.0,32.0,22.0,-18.0,-3.0,-25.0,1.0,0.23009610176086426
114,-97.0,36.0,50.0,0.0,5149.0,528.0,-12915.0,-8652.0,13.0,17.0,26.0,35.0,93.0,71.0,22.0,11.0,0.2318882942199707
115,22.0,31.0,79.0,0.0,5159.0,522.0,-12918.0,-8642.0,13.0,17.0,26.0,35.0,93.0,71.0,22.0,11.0,0.23367691040039062
116,22.0,31.0,79.0,0.0,5159.0,522.0,-12918.0,-8642.0,0.0,7.0,4.0,-11.0,-31.0,-2.0,25.0,5.0,0.2367873191833496
117,22.0,31.0,79.0,0.0,5159.0,522.0,-12918.0,-8642.0,-14.0,-22.0,-62.0,-23.0,38.0,-28.0,-9.0,-10.0,0.23913121223449707
118,20.0,13.0,59.0,0.0,5161.0,520.0,-12923.0,-8635.0,-14.0,-22.0,-62.0,-23.0,38.0,-28.0,-9.0,-10.0,0.24092483520507812
119,20.0,13.0,59.0,0.0,5161.0,520.0,-12923.0,-8635.0,2.0,20.0,9.0,9.0,57.0,25.0,-32.0,-1.0,0.24280881881713867
120,20.0,13.0,59.0,0.0,5161.0,520.0,-12923.0,-8635.0,0.0,-4.0,0.0,11.0,-15.0,-33.0,43.0,3.0,0.24457550048828125
121,-47.0,8.0,8.0,0.0,5160.0,519.0,-12918.0,-8642.0,0.0,-4.0,0.0,11.0,-15.0,-33.0,43.0,3.0,0.24640631675720215
122,-47.0,8.0,8.0,0.0,5160.0,519.0,-12918.0,-8642.0,-2.0,-8.0,-13.0,3.0,111.0,43.0,23.0,-2.0,0.24825215339660645
123,-47.0,8.0,8.0,0.0,5160.0,519.0,-12918.0,-8642.0,5.0,12.0,-26.0,-3.0,11.0,-17.0,-3.0,3.0,0.2508094310760498
124,-21.0,22.0,-5.0,0.0,5160.0,523.0,-12915.0,-8646.0,5.0,12.0,-26.0,-3.0,11.0,-17.0,-3.0,3.0,0.25266480445861816
125,-21.0,22.0,-5.0,0.0,5160.0,523.0,-12915.0,-8646.0,4.0,9.0,5.0,14.0,-14.0,-13.0,5.0,-1.0,0.2545301914215088
126,-21.0,22.0,-5.0,0.0,5160.0,523.0,-12915.0,-8646.0,1.0,7.0,16.0,16.0,35.0,36.0,24.0,3.0,0.25629353523254395
127,-28.0,29.0,-2.0,0.0,5161.0,527.0,-12911.0,-8651.0,1.0,7.0,16.0,16.0,35.0,36.0,24.0,3.0,0.25814151763916016
128,-28.0,29.0,-2.0,0.0,5161.0,527.0,-12911.0,-8651.0,0.0,3.0,-1.0,-7.0,-19.0,-13.0,8.0,1.0,0.2599794864654541
129,-28.0,29.0,-2.0,0.0,5161.0,527.0,-12911.0,-8651.0,-5.0,-10.0,-6.0,-15.0,-92.0,-12.0,5.0,-2.0,0.2618863582611084
130,-26.0,18.0,6.0,0.0,5162.0,528.0,-12907.0,-8656.0,-5.0,-10.0,-6.0,-15.0,-92.0,-12.0,5.0,-2.0,0.2636911869049072
131,-26.0,18.0,6.0,0.0,5162.0,528.0,-12907.0,-8656.0,-2.0,1.0,24.0,-9.0,-15.0,-27.0,-22.0,-9.0,0.26566028594970703
132,-26.0,18.0,6.0,0.0,5162.0,528.0,-12907.0,-8656.0,0.0,-16.0,-4.0,-15.0,30.0,-19.0,30.0,5.0,0.268263578414917
133,50.0,-3.0,11.0,0.0,5160.0,531.0,-12914.0,-8648.0,0.0,-16.0,-4.0,-15.0,30.0,-19.0,30.0,5.0,0.27045345306396484
134,50.0,-3.0,11.0,0.0,5160.0,531.0,-12914.0,-8648.0,-1.0,-11.0,-14.0,-1.0,-25.0,14.0,35.0,3.0,0.2723710536956787
135,50.0,-3.0,11.0,0.0,5160.0,531.0,-12914.0,-8648.0,-1.0,3.0,21.0,3.0,42.0,14.0,-38.0,-6.0,0.2741506099700928
136,44.0,15.0,31.0,0.0,5160.0,533.0,-12921.0,-8637.0,-1.0,3.0,21.0,3.0,42.0,14.0,-38.0,-6.0,0.27591514587402344
137,44.0,15.0,31.0,0.0,5160.0,533.0,-12921.0,-8637.0,-1.0,5.0,2.0,-12.0,-11.0,-18.0,2.0,1.0,0.27778148651123047
138,44.0,15.0,31.0,0.0,5160.0,533.0,-12921.0,-8637.0,-2.0,5.0,18.0,3.0,-15.0,-1.0,-18.0,2.0,0.2795677185058594
139,22.0,33.0,41.0,0.0,5164.0,534.0,-12924.0,-8630.0,-2.0,5.0,18.0,3.0,-15.0,-1.0,-18.0,2.0,0.2816314697265625
140,22.0,33.0,41.0,0.0,5164.0,534.0,-12924.0,-8630.0,-6.0,-17.0,-5.0,6.0,20.0,-8.0,37.0,1.0,0.28475117683410645
141,22.0,33.0,41.0,0.0,5164.0,534.0,-12924.0,-8630.0,8.0,5.0,-2.0,5.0,-4.0,7.0,-19.0,-5.0,0.286609411239624
142,-1.0,26.0,27.0,0.0,5167.0,535.0,-12924.0,-8628.0,8.0,5.0,-2.0,5.0,-4.0,7.0,-19.0,-5.0,0.2883734703063965
143,-1.0,26.0,27.0,0.0,5167.0,535.0,-12924.0,-8628.0,3.0,7.0,10.0,11.0,22.0,1.0,-3.0,2.0,0.29022789001464844
144,-1.0,26.0,27.0,0.0,5167.0,535.0,-12924.0,-8628.0,-2.0,-9.0,-5.0,-1.0,4.0,2.0,16.0,0.0,0.29202842712402344
145,31.0,28.0,23.0,0.0,5173.0,536.0,-12926.0,-8622.0,-2.0,-9.0,-5.0,-1.0,4.0,2.0,16.0,0.0,0.29379963874816895
146,31.0,28.0,23.0,0.0,5173.0,536.0,-12926.0,-8622.0,-1.0,2.0,12.0,1.0,-7.0,0.0,1.0,0.0,0.2959864139556885
147,47.0,29.0,22.0,0.0,5178.0,539.0,-12928.0,-8615.0,-1.0,2.0,12.0,1.0,-7.0,0.0,1.0,0.0,0.2993347644805908
148,47.0,29.0,22.0,0.0,5178.0,539.0,-12928.0,-8615.0,-1.0,0.0,1.0,0.0,15.0,13.0,-21.0,-6.0,0.30225133895874023
149,47.0,29.0,22.0,0.0,5178.0,539.0,-12928.0,-8615.0,8.0,23.0,9.0,-20.0,-3.0,-1.0,18.0,2.0,0.3040482997894287
150,26.0,29.0,22.0,0.0,5180.0,544.0,-12929.0,-8611.0,8.0,23.0,9.0,-20.0,-3.0,-1.0,18.0,2.0,0.3058199882507324
151,26.0,29.0,22.0,0.0,5180.0,544.0,-12929.0,-8611.0,0.0,4.0,-8.0,0.0,32.0,1.0,3.0,2.0,0.30765771865844727
152,26.0,29.0,22.0,0.0,5180.0,544.0,-12929.0,-8611.0,-3.0,-7.0,-9.0,5.0,-17.0,-6.0,-38.0,-5.0,0.3094213008880615
153,-14.0,9.0,12.0,0.0,5179.0,544.0,-12930.0,-8611.0,-3.0,-7.0,-9.0,5.0,-17.0,-6.0,-38.0,-5.0,0.3111915588378906
154,-14.0,9.0,12.0,0.0,5179.0,544.0,-12930.0,-8611.0,0.0,5.0,-6.0,1.0,-11.0,18.0,37.0,6.0,0.31330275535583496
155,-14.0,9.0,12.0,0.0,5179.0,544.0,-12930.0,-8611.0,-1.0,-1.0,-5.0,8.0,2.0,-4.0,-23.0,-3.0,0.31508541107177734
156,13.0,5.0,-5.0,0.0,5179.0,544.0,-12930.0,-8610.0,-1.0,-1.0,-5.0,8.0,2.0,-4.0,-23.0,-3.0,0.31686878204345703
157,13.0,5.0,-5.0,0.0,5179.0,544.0,-12930.0,-8610.0,-6.0,-9.0,-8.0,3.0,-42.0,-11.0,8.0,0.0,0.3187682628631592
158,13.0,5.0,-5.0,0.0,5179.0,544.0,-12930.0,-8610.0,0.0,-1.0,3.0,9.0,-19.0,10.0,-7.0,-3.0,0.32054758071899414
159,-14.0,11.0,-10.0,0.0,5178.0,544.0,-12931.0,-8610.0,0.0,-1.0,3.0,9.0,-19.0,10.0,-7.0,-3.0,0.3223073482513428
160,-14.0,11.0,-10.0,0.0,5178.0,544.0,-12931.0,-8610.0,1.0,2.0,1.0,4.0,13.0,-12.0,17.0,2.0,0.32415080070495605
161,-14.0,11.0,-10.0,0.0,5178.0,544.0,-12931.0,-8610.0,-3.0,-4.0,0.0,-7.0,8.0,-7.0,-6.0,-2.0,0.3259241580963135
162,-10.0,14.0,-28.0,0.0,5176.0,550.0,-12930.0,-8613.0,-3.0,-4.0,0.0,-7.0,8.0,-7.0,-6.0,-2.0,0.3278038501739502
163,-10.0,14.0,-28.0,0.0,5176.0,550.0,-12930.0,-8613.0,0.0,12.0,27.0,6.0,7.0,-19.0,-30.0,-4.0,0.33112525939941406
164,-10.0,14.0,-28.0,0.0,5176.0,550.0,-12930.0,-8613.0,4.0,8.0,14.0,4.0,-31.0,-10.0,73.0,8.0,0.33385539054870605
165,-5.0,-15.0,-31.0,0.0,5168.0,554.0,-12931.0,-8615.0,4.0,8.0,14.0,4.0,-31.0,-10.0,73.0,8.0,0.3357360363006592
166,-5.0,-15.0,-31.0,0.0,5168.0,554.0,-12931.0,-8615.0,-3.0,-2.0,11.0,-1.0,3.0,8.0,12.0,-2.0,0.33757996559143066
167,-5.0,-15.0,-31.0,0.0,5168.0,554.0,-12931.0,-8615.0,-6.0,-20.0,-25.0,-1.0,46.0,10.0,-21.0,-5.0,0.3393576145172119
168,14.0,-9.0,-28.0,0.0,5162.0,559.0,-12935.0,-8613.0,-6.0,-20.0,-25.0,-1.0,46.0,10.0,-21.0,-5.0,0.34111785888671875
169,14.0,-9.0,-28.0,0.0,5162.0,559.0,-12935.0,-8613.0,4.0,10.0,6.0,6.0,12.0,13.0,-24.0,-1.0,0.3429586887359619
170,14.0,-9.0,-28.0,0.0,5162.0,559.0,-12935.0,-8613.0,-2.0,-4.0,-13.0,-1.0,-11.0,-8.0,3.0,-1.0,0.34488677978515625
171,1.0,15.0,-20.0,0.0,5160.0,565.0,-12935.0,-8613.0,-2.0,-4.0,-13.0,-1.0,-11.0,-8.0,3.0,-1.0,0.3467414379119873
172,1.0,15.0,-20.0,0.0,5160.0,565.0,-12935.0,-8613.0,-3.0,8.0,10.0,-16.0,5.0,-1.0,-17.0,-1.0,0.34861183166503906
173,1.0,15.0,-20.0,0.0,5160.0,565.0,-12935.0,-8613.0,7.0,7.0,11.0,2.0,-3.0,0.0,-11.0,1.0,0.35041069984436035
174,-36.0,8.0,-18.0,0.0,5158.0,568.0,-12932.0,-8619.0,7.0,7.0,11.0,2.0,-3.0,0.0,-11.0,1.0,0.35221314430236816
175,-36.0,8.0,-18.0,0.0,5158.0,568.0,-12932.0,-8619.0,-1.0,-16.0,5.0,-6.0,-15.0,-10.0,-13.0,-4.0,0.3541085720062256
176,-36.0,8.0,-18.0,0.0,5158.0,568.0,-12932.0,-8619.0,-7.0,-9.0,-20.0,-1.0,26.0,4.0,10.0,-1.0,0.3559427261352539
177,-8.0,3.0,-9.0,0.0,5158.0,568.0,-12932.0,-8619.0,-7.0,-9.0,-20.0,-1.0,26.0,4.0,10.0,-1.0,0.35773229598999023
178,-8.0,3.0,-9.0,0.0,5158.0,568.0,-12932.0,-8619.0,-7.0,-12.0,-23.0,4.0,-18.0,-8.0,-71.0,-8.0,0.36077117919921875
179,-8.0,3.0,-9.0,0.0,5158.0,568.0,-12932.0,-8619.0,3.0,1.0,13.0,4.0,2.0,14.0,-2.0,1.0,0.36321544647216797
180,21.0,4.0,-6.0,0.0,5159.0,570.0,-12933.0,-8617.0,3.0,1.0,13.0,4.0,2.0,14.0,-2.0,1.0,0.3797767162322998
181,21.0,4.0,-6.0,0.0,5159.0,570.0,-12933.0,-8617.0,3.0,1.0,-2.0,1.0,6.0,0.0,10.0,5.0,0.38291263580322266
182,21.0,4.0,-6.0,0.0,5159.0,570.0,-12933.0,-8617.0,-5.0,-3.0,-11.0,-16.0,-24.0,-5.0,-24.0,-5.0,0.385897159576416
183,36.0,23.0,8.0,0.0,5161.0,574.0,-12935.0,-8612.0,-5.0,-3.0,-11.0,-16.0,-24.0,-5.0,-24.0,-5.0,0.3952298164367676
184,36.0,23.0,8.0,0.0,5161.0,574.0,-12935.0,-8612.0,-5.0,-14.0,-10.0,-15.0,-21.0,-2.0,6.0,-2.0,0.39917922019958496
185,36.0,23.0,8.0,0.0,5161.0,574.0,-12935.0,-8612.0,5.0,-1.0,6.0,14.0,19.0,3.0,21.0,4.0,0.402540922164917
186,33.0,23.0,21.0,0.0,5163.0,578.0,-12938.0,-8606.0,5.0,-1.0,6.0,14.0,19.0,3.0,21.0,4.0,0.41690945625305176
187,33.0,23.0,21.0,0.0,5163.0,578.0,-12938.0,-8606.0,4.0,10.0,-3.0,1.0,18.0,7.0,27.0,4.0,0.41959714889526367
188,33.0,23.0,21.0,0.0,5163.0,578.0,-12938.0,-8606.0,1.0,11.0,13.0,-1.0,10.0,-1.0,1.0,2.0,0.42425537109375
189,-9.0,15.0,31.0,0.0,5166.0,575.0,-12939.0,-8604.0,1.0,11.0,13.0,-1.0,10.0,-1.0,1.0,2.0,0.4393153190612793
190,-9.0,15.0,31.0,0.0,5166.0,575.0,-12939.0,-8604.0,0.0,-8.0,-6.0,1.0,3.0,-2.0,11.0,1.0,0.441176176071167
191,-9.0,15.0,31.0,0.0,5166.0,575.0,-12939.0,-8604.0,-5.0,-8.0,-28.0,-9.0,-3.0,-7.0,-15.0,-3.0,0.44295740127563477
192,31.0,4.0,34.0,0.0,5170.0,572.0,-12942.0,-8596.0,-5.0,-8.0,-28.0,-9.0,-3.0,-7.0,-15.0,-3.0,0.45432472229003906
193,31.0,4.0,34.0,0.0,5170.0,572.0,-12942.0,-8596.0,-3.0,3.0,-5.0,9.0,7.0,-2.0,25.0,-1.0,0.45645999908447266
194,31.0,4.0,34.0,0.0,5170.0,572.0,-12942.0,-8596.0,5.0,6.0,-6.0,5.0,7.0,-2.0,0.0,1.0,0.46024274826049805
195,18.0,10.0,30.0,0.0,5171.0,572.0,-12944.0,-8593.0,5.0,6.0,-6.0,5.0,7.0,-2.0,0.0,1.0,0.47657155990600586
196,18.0,10.0,30.0,0.0,5171.0,572.0,-12944.0,-8593.0,2.0,0.0,-1.0,0.0,-1.0,9.0,13.0,2.0,0.4790360927581787
197,18.0,10.0,30.0,0.0,5171.0,572.0,-12944.0,-8593.0,0.0,0.0,3.0,-3.0,-13.0,-14.0,-6.0,-1.0,0.4826223850250244
198,5.0,26.0,32.0,0.0,5175.0,573.0,-12943.0,-8592.0,0.0,0.0,3.0,-3.0,-13.0,-14.0,-6.0,-1.0,0.5008506774902344
199,5.0,26.0,32.0,0.0,5175.0,573.0,-12943.0,-8592.0,-5.0,-4.0,-11.0,-3.0,-2.0,-18.0,-17.0,-3.0,0.5034258365631104
200,5.0,26.0,32.0,0.0,5175.0,573.0,-12943.0,-8592.0,5.0,12.0,28.0,-11.0,-14.0,1.0,-4.0,-1.0,0.505223274230957
201,51.0,24.0,19.0,0.0,5175.0,577.0,-12950.0,-8581.0,5.0,12.0,28.0,-11.0,-14.0,1.0,-4.0,-1.0,0.5158908367156982
202,51.0,24.0,19.0,0.0,5175.0,577.0,-12950.0,-8581.0,7.0,11.0,16.0,12.0,16.0,11.0,21.0,7.0,0.518366813659668
203,51.0,24.0,19.0,0.0,5175.0,577.0,-12950.0,-8581.0,-9.0,0.0,0.0,4.0,-16.0,-14.0,-27.0,-8.0,0.5202004909515381
204,9.0,-13.0,2.0,0.0,5174.0,578.0,-12950.0,-8581.0,-9.0,0.0,0.0,4.0,-16.0,-14.0,-27.0,-8.0,0.5365710258483887
205,9.0,-13.0,2.0,0.0,5174.0,578.0,-12950.0,-8581.0,1.0,-4.0,-5.0,-4.0,7.0,-1.0,3.0,-5.0,0.5384762287139893
206,9.0,-13.0,2.0,0.0,5174.0,578.0,-12950.0,-8581.0,-3.0,-12.0,-20.0,-3.0,3.0,1.0,-10.0,-2.0,0.5402615070343018
207,-52.0,-2.0,-3.0,0.0,5173.0,576.0,-12946.0,-8589.0,-3.0,-12.0,-20.0,-3.0,3.0,1.0,-10.0,-2.0,0.5593178272247314
208,-52.0,-2.0,-3.0,0.0,5173.0,576.0,-12946.0,-8589.0,-1.0,1.0,12.0,-4.0,-9.0,-3.0,2.0,1.0,0.5611975193023682
209,-52.0,-2.0,-3.0,0.0,5173.0,576.0,-12946.0,-8589.0,-8.0,-22.0,-19.0,-7.0,-19.0,-16.0,-18.0,-4.0,0.5645227432250977
210,-15.0,17.0,7.0,0.0,5172.0,579.0,-12945.0,-8591.0,-8.0,-22.0,-19.0,-7.0,-19.0,-16.0,-18.0,-4.0,0.5744328498840332
211,-15.0,17.0,7.0,0.0,5172.0,579.0,-12945.0,-8591.0,-2.0,1.0,9.0,-2.0,-6.0,-2.0,14.0,1.0,0.5776026248931885
212,-15.0,17.0,7.0,0.0,5172.0,579.0,-12945.0,-8591.0,5.0,5.0,11.0,7.0,40.0,18.0,25.0,6.0,0.5799431800842285
213,39.0,0.0,5.0,0.0,5169.0,583.0,-12949.0,-8586.0,5.0,5.0,11.0,7.0,40.0,18.0,25.0,6.0,0.5969958305358887
214,39.0,0.0,5.0,0.0,5169.0,583.0,-12949.0,-8586.0,-3.0,-13.0,-23.0,-1.0,-7.0,-10.0,-24.0,-7.0,0.598895788192749
215,39.0,0.0,5.0,0.0,5169.0,583.0,-12949.0,-8586.0,-5.0,-14.0,-23.0,-4.0,-15.0,6.0,3.0,0.0,0.6006617546081543
216,35.0,1.0,6.0,0.0,5166.0,587.0,-12953.0,-8581.0,-5.0,-14.0,-23.0,-4.0,-15.0,6.0,3.0,0.0,0.6190495491027832
217,35.0,1.0,6.0,0.0,5166.0,587.0,-12953.0,-8581.0,-4.0,1.0,6.0,0.0,0.0,-2.0,-12.0,-1.0,0.6209218502044678
218,35.0,1.0,6.0,0.0,5166.0,587.0,-12953.0,-8581.0,0.0,-7.0,-17.0,11.0,3.0,1.0,13.0,2.0,0.6227002143859863
219,25.0,0.0,5.0,0.0,5161.0,591.0,-12958.0,-8577.0,0.0,-7.0,-17.0,11.0,3.0,1.0,13.0,2.0,0.633599042892456
220,25.0,0.0,5.0,0.0,5161.0,591.0,-12958.0,-8577.0,0.0,-4.0,-6.0,-8.0,-10.0,4.0,19.0,6.0,0.6355104446411133
221,25.0,0.0,5.0,0.0,5161.0,591.0,-12958.0,-8577.0,7.0,-1.0,10.0,-8.0,-25.0,-16.0,-10.0,-1.0,0.6408631801605225
222,-43.0,0.0,-2.0,0.0,5160.0,590.0,-12954.0,-8583.0,7.0,-1.0,10.0,-8.0,-25.0,-16.0,-10.0,-1.0,0.6566741466522217
223,-43.0,0.0,-2.0,0.0,5160.0,590.0,-12954.0,-8583.0,-4.0,-5.0,-20.0,0.0,3.0,-10.0,-6.0,0.0,0.6585495471954346
224,-43.0,0.0,-2.0,0.0,5160.0,590.0,-12954.0,-8583.0,-9.0,-10.0,-1.0,-5.0,-15.0,-2.0,-2.0,-3.0,0.66031813621521
225,0.0,7.0,6.0,0.0,5160.0,590.0,-12954.0,-8583.0,-9.0,-10.0,-1.0,-5.0,-15.0,-2.0,-2.0,-3.0,0.6792066097259521
226,0.0,7.0,6.0,0.0,5160.0,590.0,-12954.0,-8583.0,8.0,28.0,19.0,20.0,-1.0,12.0,11.0,3.0,0.6810564994812012
227,0.0,7.0,6.0,0.0,5160.0,590.0,-12954.0,-8583.0,2.0,22.0,32.0,-9.0,15.0,5.0,-6.0,-3.0,0.6833705902099609
228,67.0,31.0,15.0,0.0,5162.0,597.0,-12961.0,-8571.0,2.0,22.0,32.0,-9.0,15.0,5.0,-6.0,-3.0,0.6930701732635498
229,67.0,31.0,15.0,0.0,5162.0,597.0,-12961.0,-8571.0,-5.0,-19.0,-35.0,-6.0,-25.0,3.0,-40.0,-6.0,0.7014102935791016
230,67.0,31.0,15.0,0.0,5162.0,597.0,-12961.0,-8571.0,0.0,-7.0,-16.0,8.0,-2.0,5.0,25.0,4.0,0.7036654949188232
231,17.0,9.0,7.0,0.0,5162.0,599.0,-12964.0,-8567.0,0.0,-7.0,-16.0,8.0,-2.0,5.0,25.0,4.0,0.7176544666290283
232,17.0,9.0,7.0,0.0,5162.0,599.0,-12964.0,-8567.0,0.0,11.0,9.0,-2.0,13.0,-5.0,10.0,-3.0,0.7195935249328613
233,17.0,9.0,7.0,0.0,5162.0,599.0,-12964.0,-8567.0,-3.0,5.0,8.0,4.0,2.0,5.0,19.0,4.0,0.7213602066040039
234,-22.0,-1.0,-11.0,0.0,5160.0,599.0,-12962.0,-8570.0,-3.0,5.0,8.0,4.0,2.0,5.0,19.0,4.0,0.739438533782959
235,-22.0,-1.0,-11.0,0.0,5160.0,599.0,-12962.0,-8570.0,-4.0,-8.0,-17.0,17.0,5.0,-7.0,-12.0,-1.0,0.7412984371185303
236,-22.0,-1.0,-11.0,0.0,5160.0,599.0,-12962.0,-8570.0,-2.0,6.0,17.0,-3.0,2.0,6.0,-13.0,-2.0,0.7430722713470459
237,7.0,18.0,-2.0,0.0,5158.0,604.0,-12964.0,-8568.0,-2.0,6.0,17.0,-3.0,2.0,6.0,-13.0,-2.0,0.752676248550415
238,7.0,18.0,-2.0,0.0,5158.0,604.0,-12964.0,-8568.0,1.0,0.0,20.0,-43.0,-6.0,0.0,2.0,-1.0,0.761049747467041
239,7.0,18.0,-2.0,0.0,5158.0,604.0,-12964.0,-8568.0,-1.0,-3.0,-14.0,22.0,9.0,-2.0,-6.0,-2.0,0.7637245655059814
240,4.0,-5.0,-22.0,0.0,5150.0,610.0,-12968.0,-8567.0,-1.0,-3.0,-14.0,22.0,9.0,-2.0,-6.0,-2.0,0.7769815921783447
241,4.0,-5.0,-22.0,0.0,5150.0,610.0,-12968.0,-8567.0,1.0,-6.0,-9.0,9.0,-3.0,3.0,-6.0,-2.0,0.7798020839691162
242,4.0,-5.0,-22.0,0.0,5150.0,610.0,-12968.0,-8567.0,1.0,1.0,1.0,-7.0,-35.0,0.0,-6.0,5.0,0.7827780246734619
243,-14.0,-11.0,-23.0,0.0,5146.0,612.0,-12968.0,-8569.0,1.0,1.0,1.0,-7.0,-35.0,0.0,-6.0,5.0,0.8011631965637207
244,-14.0,-11.0,-23.0,0.0,5146.0,612.0,-12968.0,-8569.0,-4.0,-6.0,-11.0,-19.0,-7.0,2.0,23.0,-2.0,0.8034923076629639
245,-14.0,-11.0,-23.0,0.0,5146.0,612.0,-12968.0,-8569.0,0.0,0.0,-1.0,8.0,13.0,4.0,-6.0,-2.0,0.8052716255187988
246,-16.0,-5.0,-19.0,0.0,5143.0,614.0,-12966.0,-8573.0,0.0,0.0,-1.0,8.0,13.0,4.0,-6.0,-2.0,0.8141913414001465
247,-16.0,-5.0,-19.0,0.0,5143.0,614.0,-12966.0,-8573.0,-2.0,-3.0,-4.0,-9.0,-13.0,0.0,-13.0,-3.0,0.8210611343383789
248,-16.0,-5.0,-19.0,0.0,5143.0,614.0,-12966.0,-8573.0,-2.0,-2.0,19.0,-19.0,-3.0,4.0,28.0,-3.0,0.8228533267974854
249,-28.0,12.0,-9.0,0.0,5144.0,615.0,-12962.0,-8578.0,-2.0,-2.0,19.0,-19.0,-3.0,4.0,28.0,-3.0,0.8367722034454346
250,-28.0,12.0,-9.0,0.0,5144.0,615.0,-12962.0,-8578.0,0.0,-3.0,-8.0,-6.0,6.0,-7.0,-6.0,-4.0,0.8386492729187012
251,-28.0,12.0,-9.0,0.0,5144.0,615.0,-12962.0,-8578.0,0.0,1.0,-15.0,-2.0,7.0,4.0,-12.0,-2.0,0.8404216766357422
252,-1.0,12.0,9.0,0.0,5144.0,615.0,-12963.0,-8578.0,0.0,1.0,-15.0,-2.0,7.0,4.0,-12.0,-2.0,0.860388994216919
253,-1.0,12.0,9.0,0.0,5144.0,615.0,-12963.0,-8578.0,3.0,11.0,23.0,19.0,7.0,9.0,14.0,3.0,0.8637044429779053
254,-1.0,12.0,9.0,0.0,5144.0,615.0,-12963.0,-8578.0,8.0,-14.0,-19.0,-9.0,-2.0,-12.0,-5.0,-2.0,0.8678460121154785
255,69.0,8.0,19.0,0.0,5143.0,619.0,-12970.0,-8567.0,8.0,-14.0,-19.0,-9.0,-2.0,-12.0,-5.0,-2.0,0.8727850914001465
256,69.0,8.0,19.0,0.0,5143.0,619.0,-12970.0,-8567.0,1.0,0.0,-5.0,-3.0,6.0,4.0,-7.0,-2.0,0.881087064743042
257,69.0,8.0,19.0,0.0,5143.0,619.0,-12970.0,-8567.0,-3.0,-1.0,-23.0,5.0,2.0,-6.0,-8.0,-2.0,0.8829021453857422
258,10.0,4.0,7.0,0.0,5142.0,619.0,-12970.0,-8567.0,-3.0,-1.0,-23.0,5.0,2.0,-6.0,-8.0,-2.0,0.8970003128051758
259,10.0,4.0,7.0,0.0,5142.0,619.0,-12970.0,-8567.0,0.0,13.0,17.0,-5.0,13.0,1.0,-18.0,-1.0,0.9005777835845947
260,10.0,4.0,7.0,0.0,5142.0,619.0,-12970.0,-8567.0,-3.0,-6.0,2.0,-9.0,-28.0,-5.0,11.0,-2.0,0.9028091430664062
261,-15.0,10.0,-1.0,0.0,5143.0,619.0,-12970.0,-8567.0,-3.0,-6.0,2.0,-9.0,-28.0,-5.0,11.0,-2.0,0.9211549758911133
262,-15.0,10.0,-1.0,0.0,5143.0,619.0,-12970.0,-8567.0,-5.0,-13.0,26.0,12.0,1.0,-6.0,28.0,6.0,0.9250397682189941
263,-15.0,10.0,-1.0,0.0,5143.0,619.0,-12970.0,-8567.0,-1.0,-5.0,-21.0,1.0,-4.0,-10.0,9.0,0.0,0.9286854267120361
264,36.0,23.0,17.0,0.0,5148.0,621.0,-12972.0,-8561.0,-1.0,-5.0,-21.0,1.0,-4.0,-10.0,9.0,0.0,0.9338264465332031
265,36.0,23.0,17.0,0.0,5148.0,621.0,-12972.0,-8561.0,-7.0,-23.0,-4.0,-1.0,-8.0,-13.0,9.0,0.0,0.9409732818603516
266,36.0,23.0,17.0,0.0,5148.0,621.0,-12972.0,-8561.0,-1.0,-6.0,-10.0,16.0,7.0,-3.0,-10.0,-1.0,0.9429531097412109
267,29.0,15.0,19.0,0.0,5152.0,621.0,-12973.0,-8556.0,-1.0,-6.0,-10.0,16.0,7.0,-3.0,-10.0,-1.0,0.9565343856811523
268,29.0,15.0,19.0,0.0,5152.0,621.0,-12973.0,-8556.0,7.0,8.0,-11.0,25.0,38.0,22.0,-31.0,1.0,0.9584157466888428
269,29.0,15.0,19.0,0.0,5152.0,621.0,-12973.0,-8556.0,-9.0,-14.0,-29.0,24.0,19.0,18.0,4.0,-2.0,0.9601914882659912
270,116.0,-16.0,-28.0,0.0,5151.0,625.0,-12986.0,-8537.0,-9.0,-14.0,-29.0,24.0,19.0,18.0,4.0,-2.0,0.9805655479431152
271,116.0,-16.0,-28.0,0.0,5151.0,625.0,-12986.0,-8537.0,-7.0,28.0,26.0,6.0,-1.0,3.0,-16.0,-4.0,0.9849240779876709
272,116.0,-16.0,-28.0,0.0,5151.0,625.0,-12986.0,-8537.0,6.0,4.0,-17.0,-36.0,5.0,-3.0,-21.0,3.0,0.9869832992553711
273,211.0,-12.0,-153.0,0.0,5144.0,654.0,-12996.0,-8525.0,6.0,4.0,-17.0,-36.0,5.0,-3.0,-21.0,3.0,0.9928960800170898
274,211.0,-12.0,-153.0,0.0,5144.0,654.0,-12996.0,-8525.0,-30.0,-108.0,-116.0,-20.0,-23.0,-26.0,23.0,-5.0,1.0013761520385742
275,211.0,-12.0,-153.0,0.0,5144.0,654.0,-12996.0,-8525.0,-50.0,-56.0,-43.0,-12.0,-13.0,-23.0,-3.0,-25.0,1.0032482147216797
276,325.0,-66.0,-436.0,0.0,5113.0,711.0,-13024.0,-8495.0,-50.0,-56.0,-43.0,-12.0,-13.0,-23.0,-3.0,-25.0,1.0170660018920898
277,325.0,-66.0,-436.0,0.0,5113.0,711.0,-13024.0,-8495.0,38.0,104.0,79.0,51.0,4.0,41.0,64.0,17.0,1.0201754570007324
278,325.0,-66.0,-436.0,0.0,5113.0,711.0,-13024.0,-8495.0,38.0,104.0,79.0,51.0,4.0,41.0,64.0,17.0,1.0233452320098877
279,325.0,-66.0,-436.0,0.0,5113.0,711.0,-13024.0,-8495.0,27.0,34.0,126.0,6.0,69.0,34.0,22.0,12.0,1.0419156551361084
280,399.0,113.0,-728.0,0.0,5082.0,834.0,-13034.0,-8488.0,27.0,34.0,126.0,6.0,69.0,34.0,22.0,12.0,1.0460402965545654
281,399.0,113.0,-728.0,0.0,5082.0,834.0,-13034.0,-8488.0,42.0,1.0,-117.0,-14.0,53.0,-5.0,9.0,-9.0,1.0502939224243164
282,399.0,113.0,-728.0,0.0,5082.0,834.0,-13034.0,-8488.0,38.0,5.0,-91.0,81.0,-31.0,11.0,-25.0,4.0,1.052394151687622
283,-94.0,54.0,-1293.0,0.0,4959.0,1036.0,-12991.0,-8603.0,38.0,5.0,-91.0,81.0,-31.0,11.0,-25.0,4.0,1.062058687210083
284,-94.0,54.0,-1293.0,0.0,4959.0,1036.0,-12991.0,-8603.0,-23.0,17.0,-7.0,-7.0,27.0,12.0,-14.0,-3.0,1.0639817714691162
285,-94.0,54.0,-1293.0,0.0,4959.0,1036.0,-12991.0,-8603.0,-27.0,-72.0,-117.0,-61.0,-21.0,-26.0,5.0,-9.0,1.0657784938812256
286,-402.0,-447.0,-1900.0,0.0,4717.0,1249.0,-12942.0,-8783.0,-27.0,-72.0,-117.0,-61.0,-21.0,-26.0,5.0,-9.0,1.0764720439910889
287,-402.0,-447.0,-1900.0,0.0,4717.0,1249.0,-12942.0,-8783.0,-22.0,-69.0,-41.0,-56.0,2.0,-13.0,12.0,-6.0,1.0783891677856445
288,-402.0,-447.0,-1900.0,0.0,4717.0,1249.0,-12942.0,-8783.0,17.0,94.0,127.0,14.0,-51.0,-29.0,-2.0,5.0,1.083512783050537
289,-379.0,-484.0,-1908.0,0.0,4463.0,1465.0,-12884.0,-8967.0,17.0,94.0,127.0,14.0,-51.0,-29.0,-2.0,5.0,1.099975347518921
290,-379.0,-484.0,-1908.0,0.0,4463.0,1465.0,-12884.0,-8967.0,-2.0,5.0,-15.0,-2.0,-30.0,-14.0,-46.0,-5.0,1.1033928394317627
291,-379.0,-484.0,-1908.0,0.0,4463.0,1465.0,-12884.0,-8967.0,11.0,5.0,-19.0,13.0,25.0,13.0,21.0,10.0,1.1068317890167236
292,-1045.0,-343.0,-1931.0,0.0,4231.0,1666.0,-12742.0,-9242.0,11.0,5.0,-19.0,13.0,25.0,13.0,21.0,10.0,1.1225745677947998
293,-1045.0,-343.0,-1931.0,0.0,4231.0,1666.0,-12742.0,-9242.0,-15.0,24.0,72.0,15.0,-10.0,-16.0,-17.0,1.0,1.1261155605316162
294,-1045.0,-343.0,-1931.0,0.0,4231.0,1666.0,-12742.0,-9242.0,-15.0,-22.0,15.0,-13.0,4.0,10.0,3.0,3.0,1.1299102306365967
295,-1682.0,-246.0,-1781.0,0.0,4036.0,1826.0,-12522.0,-9592.0,-15.0,-22.0,15.0,-13.0,4.0,10.0,3.0,3.0,1.136603593826294
296,-1682.0,-246.0,-1781.0,0.0,4036.0,1826.0,-12522.0,-9592.0,-21.0,-26.0,-26.0,-7.0,-15.0,-2.0,-3.0,4.0,1.1438798904418945
297,-1682.0,-246.0,-1781.0,0.0,4036.0,1826.0,-12522.0,-9592.0,-22.0,28.0,37.0,0.0,-7.0,-28.0,-8.0,-3.0,1.1457219123840332
298,-2050.0,91.0,-1884.0,0.0,3886.0,2011.0,-12236.0,-9979.0,-22.0,28.0,37.0,0.0,-7.0,-28.0,-8.0,-3.0,1.1598179340362549
299,-2050.0,91.0,-1884.0,0.0,3886.0,2011.0,-12236.0,-9979.0,18.0,30.0,35.0,13.0,-9.0,-1.0,14.0,4.0,1.1630196571350098
300,-2050.0,91.0,-1884.0,0.0,3886.0,2011.0,-12236.0,-9979.0,-6.0,-23.0,-14.0,-1.0,8.0,-4.0,-16.0,-7.0,1.1661930084228516
301,-2109.0,406.0,-2255.0,0.0,3727.0,2280.0,-11909.0,-10370.0,-6.0,-23.0,-14.0,-1.0,8.0,-4.0,-16.0,-7.0,1.1892907619476318
302,-2109.0,406.0,-2255.0,0.0,3727.0,2280.0,-11909.0,-10370.0,-2.0,-16.0,1.0,7.0,-15.0,-4.0,-6.0,-3.0,1.1911723613739014
303,-2109.0,406.0,-2255.0,0.0,3727.0,2280.0,-11909.0,-10370.0,-9.0,-17.0,-27.0,-9.0,9.0,5.0,-6.0,-5.0,1.1929688453674316
304,-2431.0,634.0,-2625.0,0.0,3558.0,2607.0,-11513.0,-10791.0,-9.0,-17.0,-27.0,-9.0,9.0,5.0,-6.0,-5.0,1.1951172351837158
305,-2431.0,634.0,-2625.0,0.0,3558.0,2607.0,-11513.0,-10791.0,17.0,2.0,-7.0,-8.0,-9.0,4.0,-9.0,-3.0,1.203723669052124
306,-2431.0,634.0,-2625.0,0.0,3558.0,2607.0,-11513.0,-10791.0,7.0,6.0,4.0,-7.0,15.0,8.0,6.0,-1.0,1.2055318355560303
307,-3029.0,919.0,-2912.0,0.0,3401.0,2972.0,-11013.0,-11259.0,7.0,6.0,4.0,-7.0,15.0,8.0,6.0,-1.0,1.2200684547424316
308,-3029.0,919.0,-2912.0,0.0,3401.0,2972.0,-11013.0,-11259.0,-10.0,-12.0,9.0,-7.0,3.0,-5.0,-12.0,-8.0,1.223372220993042
309,-3029.0,919.0,-2912.0,0.0,3401.0,2972.0,-11013.0,-11259.0,3.0,-6.0,-2.0,-18.0,-8.0,-4.0,-13.0,4.0,1.2272541522979736
310,-3410.0,1260.0,-3249.0,0.0,3253.0,3393.0,-10427.0,-11731.0,3.0,-6.0,-2.0,-18.0,-8.0,-4.0,-13.0,4.0,1.2418732643127441
311,-3410.0,1260.0,-3249.0,0.0,3253.0,3393.0,-10427.0,-11731.0,-7.0,-7.0,10.0,12.0,14.0,9.0,17.0,-2.0,1.243776559829712
312,-3410.0,1260.0,-3249.0,0.0,3253.0,3393.0,-10427.0,-11731.0,3.0,-1.0,-3.0,-12.0,4.0,2.0,-40.0,-2.0,1.2466182708740234
313,-3435.0,1522.0,-3486.0,0.0,3097.0,3864.0,-9802.0,-12159.0,3.0,-1.0,-3.0,-12.0,4.0,2.0,-40.0,-2.0,1.2556331157684326
314,-3435.0,1522.0,-3486.0,0.0,3097.0,3864.0,-9802.0,-12159.0,7.0,4.0,3.0,-27.0,-102.0,-11.0,32.0,8.0,1.263857364654541
315,-3435.0,1522.0,-3486.0,0.0,3097.0,3864.0,-9802.0,-12159.0,-3.0,-16.0,-33.0,2.0,37.0,15.0,10.0,-5.0,1.2660551071166992
316,-3070.0,1380.0,-3661.0,0.0,2877.0,4343.0,-9205.0,-12513.0,-3.0,-16.0,-33.0,2.0,37.0,15.0,10.0,-5.0,1.2801048755645752
317,-3070.0,1380.0,-3661.0,0.0,2877.0,4343.0,-9205.0,-12513.0,9.0,15.0,12.0,2.0,18.0,7.0,-16.0,2.0,1.2832155227661133
318,-3070.0,1380.0,-3661.0,0.0,2877.0,4343.0,-9205.0,-12513.0,10.0,19.0,31.0,14.0,13.0,-16.0,-55.0,-2.0,1.286320686340332
319,-3040.0,1098.0,-3737.0,0.0,2619.0,4775.0,-8600.0,-12838.0,10.0,19.0,31.0,14.0,13.0,-16.0,-55.0,-2.0,1.3019194602966309
320,-3040.0,1098.0,-3737.0,0.0,2619.0,4775.0,-8600.0,-12838.0,-2.0,-7.0,-1.0,-19.0,-68.0,-18.0,16.0,0.0,1.3037939071655273
321,-3040.0,1098.0,-3737.0,0.0,2619.0,4775.0,-8600.0,-12838.0,-6.0,-9.0,-10.0,-6.0,-20.0,3.0,29.0,2.0,1.3055698871612549
322,-2783.0,1229.0,-3661.0,0.0,2371.0,5208.0,-8013.0,-13096.0,-6.0,-9.0,-10.0,-6.0,-20.0,3.0,29.0,2.0,1.3157093524932861
323,-2783.0,1229.0,-3661.0,0.0,2371.0,5208.0,-8013.0,-13096.0,2.0,1.0,19.0,20.0,-5.0,-15.0,-21.0,0.0,1.323486328125
324,-2783.0,1229.0,-3661.0,0.0,2371.0,5208.0,-8013.0,-13096.0,-8.0,-15.0,-15.0,-23.0,39.0,-21.0,59.0,-6.0,1.325282096862793
325,-2897.0,1526.0,-3609.0,0.0,2167.0,5653.0,-7384.0,-13314.0,-8.0,-15.0,-15.0,-23.0,39.0,-21.0,59.0,-6.0,1.3395795822143555
326,-2897.0,1526.0,-3609.0,0.0,2167.0,5653.0,-7384.0,-13314.0,-5.0,-6.0,-14.0,4.0,75.0,49.0,28.0,3.0,1.3415098190307617
327,-2897.0,1526.0,-3609.0,0.0,2167.0,5653.0,-7384.0,-13314.0,4.0,10.0,9.0,2.0,4.0,-2.0,-49.0,-5.0,1.3432908058166504
328,-3220.0,1788.0,-3377.0,0.0,2034.0,6090.0,-6690.0,-13508.0,4.0,10.0,9.0,2.0,4.0,-2.0,-49.0,-5.0,1.3630712032318115
329,-3220.0,1788.0,-3377.0,0.0,2034.0,6090.0,-6690.0,-13508.0,3.0,-4.0,-2.0,-12.0,39.0,5.0,-3.0,4.0,1.3672096729278564
330,-3220.0,1788.0,-3377.0,0.0,2034.0,6090.0,-6690.0,-13508.0,-1.0,-1.0,-5.0,-29.0,-19.0,22.0,8.0,0.0,1.3692700862884521
331,-2897.0,1856.0,-2847.0,0.0,1956.0,6495.0,-6060.0,-13627.0,-1.0,-1.0,-5.0,-29.0,-19.0,22.0,8.0,0.0,1.3753468990325928
332,-2897.0,1856.0,-2847.0,0.0,1956.0,6495.0,-6060.0,-13627.0,-2.0,-2.0,5.0,5.0,2.0,-10.0,-53.0,-7.0,1.3849103450775146
333,-2897.0,1856.0,-2847.0,0.0,1956.0,6495.0,-6060.0,-13627.0,-1.0,3.0,2.0,7.0,-32.0,-3.0,15.0,5.0,1.3867263793945312
334,-2976.0,1646.0,-2555.0,0.0,1910.0,6833.0,-5427.0,-13735.0,-1.0,3.0,2.0,7.0,-32.0,-3.0,15.0,5.0,1.3999688625335693
335,-2976.0,1646.0,-2555.0,0.0,1910.0,6833.0,-5427.0,-13735.0,-6.0,-11.0,-16.0,8.0,1.0,-8.0,-1.0,-3.0,1.4032747745513916
336,-2976.0,1646.0,-2555.0,0.0,1910.0,6833.0,-5427.0,-13735.0,-2.0,-3.0,9.0,8.0,-49.0,-16.0,9.0,-5.0,1.4064369201660156
337,-2496.0,1527.0,-2345.0,0.0,1849.0,7131.0,-4866.0,-13802.0,-2.0,-3.0,9.0,8.0,-49.0,-16.0,9.0,-5.0,1.4218993186950684
338,-2496.0,1527.0,-2345.0,0.0,1849.0,7131.0,-4866.0,-13802.0,0.0,6.0,28.0,-11.0,-69.0,-46.0,-22.0,-10.0,1.423776626586914
339,-2496.0,1527.0,-2345.0,0.0,1849.0,7131.0,-4866.0,-13802.0,8.0,2.0,0.0,11.0,49.0,49.0,0.0,12.0,1.4255473613739014
340,-1494.0,1495.0,-1988.0,0.0,1756.0,7419.0,-4470.0,-13796.0,8.0,2.0,0.0,11.0,49.0,49.0,0.0,12.0,1.435776948928833
341,-1494.0,1495.0,-1988.0,0.0,1756.0,7419.0,-4470.0,-13796.0,5.0,6.0,-5.0,40.0,8.0,21.0,3.0,6.0,1.4443128108978271
342,-1494.0,1495.0,-1988.0,0.0,1756.0,7419.0,-4470.0,-13796.0,-2.0,-1.0,7.0,-12.0,-15.0,-5.0,-25.0,-6.0,1.4466021060943604
343,-1092.0,1169.0,-1997.0,0.0,1605.0,7667.0,-4128.0,-13786.0,-2.0,-1.0,7.0,-12.0,-15.0,-5.0,-25.0,-6.0,1.467514991760254
344,-1092.0,1169.0,-1997.0,0.0,1605.0,7667.0,-4128.0,-13786.0,3.0,2.0,-15.0,-14.0,6.0,-2.0,24.0,7.0,1.471057653427124
345,-1092.0,1169.0,-1997.0,0.0,1605.0,7667.0,-4128.0,-13786.0,-3.0,-5.0,-9.0,6.0,62.0,47.0,36.0,-3.0,1.4747653007507324
346,-823.0,695.0,-1995.0,0.0,1403.0,7847.0,-3822.0,-13795.0,-3.0,-5.0,-9.0,6.0,62.0,47.0,36.0,-3.0,1.4835681915283203
347,-823.0,695.0,-1995.0,0.0,1403.0,7847.0,-3822.0,-13795.0,-5.0,-18.0,-13.0,5.0,-4.0,-40.0,-37.0,-6.0,1.485825538635254
348,-823.0,695.0,-1995.0,0.0,1403.0,7847.0,-3822.0,-13795.0,6.0,10.0,12.0,2.0,-28.0,-15.0,-12.0,5.0,1.4876201152801514
349,-528.0,649.0,-1573.0,0.0,1215.0,8017.0,-3566.0,-13783.0,6.0,10.0,12.0,2.0,-28.0,-15.0,-12.0,5.0,1.495697021484375
350,-528.0,649.0,-1573.0,0.0,1215.0,8017.0,-3566.0,-13783.0,4.0,7.0,9.0,-2.0,21.0,-9.0,-112.0,0.0,1.5039057731628418
351,-528.0,649.0,-1573.0,0.0,1215.0,8017.0,-3566.0,-13783.0,12.0,18.0,21.0,33.0,-65.0,35.0,72.0,22.0,1.5064802169799805
352,-557.0,602.0,-1315.0,0.0,1047.0,8173.0,-3296.0,-13772.0,12.0,18.0,21.0,33.0,-65.0,35.0,72.0,22.0,1.5194013118743896
353,-557.0,602.0,-1315.0,0.0,1047.0,8173.0,-3296.0,-13772.0,10.0,4.0,6.0,-5.0,-16.0,26.0,82.0,9.0,1.521315574645996
354,-557.0,602.0,-1315.0,0.0,1047.0,8173.0,-3296.0,-13772.0,-12.0,-9.0,-20.0,-24.0,-27.0,-72.0,-128.0,-16.0,1.5231552124023438
355,-352.0,471.0,-1337.0,0.0,826.0,8307.0,-3011.0,-13773.0,-12.0,-9.0,-20.0,-24.0,-27.0,-72.0,-128.0,-16.0,1.5428495407104492
356,-352.0,471.0,-1337.0,0.0,826.0,8307.0,-3011.0,-13773.0,13.0,24.0,29.0,-53.0,-68.0,-41.0,-15.0,0.0,1.5461702346801758
357,-352.0,471.0,-1337.0,0.0,826.0,8307.0,-3011.0,-13773.0,-4.0,-8.0,-10.0,-22.0,-39.0,-2.0,6.0,-20.0,1.5498268604278564
358,235.0,366.0,-929.0,0.0,612.0,8428.0,-2863.0,-13742.0,-4.0,-8.0,-10.0,-22.0,-39.0,-2.0,6.0,-20.0,1.5551910400390625
359,235.0,366.0,-929.0,0.0,612.0,8428.0,-2863.0,-13742.0,-12.0,-17.0,-17.0,-41.0,33.0,0.0,20.0,5.0,1.563976764678955
360,235.0,366.0,-929.0,0.0,612.0,8428.0,-2863.0,-13742.0,5.0,-1.0,5.0,5.0,-26.0,-27.0,46.0,9.0,1.5664496421813965
361,-17.0,359.0,-225.0,0.0,518.0,8516.0,-2727.0,-13719.0,5.0,-1.0,5.0,5.0,-26.0,-27.0,46.0,9.0,1.580115795135498
362,-17.0,359.0,-225.0,0.0,518.0,8516.0,-2727.0,-13719.0,-3.0,1.0,10.0,50.0,101.0,65.0,77.0,5.0,1.5842478275299072
363,-17.0,359.0,-225.0,0.0,518.0,8516.0,-2727.0,-13719.0,-3.0,-8.0,-7.0,21.0,95.0,18.0,36.0,37.0,1.586484432220459
364,277.0,462.0,339.0,0.0,477.0,8593.0,-2676.0,-13682.0,-3.0,-8.0,-7.0,21.0,95.0,18.0,36.0,37.0,1.6025478839874268
365,277.0,462.0,339.0,0.0,477.0,8593.0,-2676.0,-13682.0,-6.0,-4.0,5.0,14.0,6.0,17.0,49.0,-26.0,1.604419231414795
366,277.0,462.0,339.0,0.0,477.0,8593.0,-2676.0,-13682.0,1.0,10.0,-8.0,-16.0,-36.0,-4.0,-13.0,-9.0,1.6062102317810059
367,709.0,341.0,1047.0,0.0,509.0,8642.0,-2778.0,-13630.0,1.0,10.0,-8.0,-16.0,-36.0,-4.0,-13.0,-9.0,1.61574387550354
368,709.0,341.0,1047.0,0.0,509.0,8642.0,-2778.0,-13630.0,1.0,0.0,-11.0,12.0,-27.0,-30.0,-51.0,3.0,1.6234889030456543
369,709.0,341.0,1047.0,0.0,509.0,8642.0,-2778.0,-13630.0,0.0,-6.0,-12.0,-1.0,-86.0,-52.0,25.0,18.0,1.6252727508544922
370,862.0,139.0,1721.0,0.0,675.0,8618.0,-3048.0,-13580.0,0.0,-6.0,-12.0,-1.0,-86.0,-52.0,25.0,18.0,1.6392874717712402
371,862.0,139.0,1721.0,0.0,675.0,8618.0,-3048.0,-13580.0,4.0,6.0,8.0,31.0,71.0,-19.0,-64.0,-6.0,1.641139030456543
372,862.0,139.0,1721.0,0.0,675.0,8618.0,-3048.0,-13580.0,-7.0,-1.0,2.0,-7.0,21.0,-14.0,38.0,-18.0,1.6429328918457031
373,874.0,-104.0,2391.0,0.0,933.0,8530.0,-3388.0,-13540.0,-7.0,-1.0,2.0,-7.0,21.0,-14.0,38.0,-18.0,1.662036657333374
374,874.0,-104.0,2391.0,0.0,933.0,8530.0,-3388.0,-13540.0,-19.0,-27.0,-39.0,-103.0,-81.0,-62.0,-40.0,-18.0,1.6639518737792969
375,874.0,-104.0,2391.0,0.0,933.0,8530.0,-3388.0,-13540.0,11.0,15.0,22.0,17.0,127.0,53.0,-113.0,-5.0,1.667013168334961
376,907.0,-258.0,3059.0,0.0,1286.0,8386.0,-3802.0,-13491.0,11.0,15.0,22.0,17.0,127.0,53.0,-113.0,-5.0,1.6752498149871826
377,907.0,-258.0,3059.0,0.0,1286.0,8386.0,-3802.0,-13491.0,-30.0,-19.0,-21.0,-27.0,-61.0,-28.0,-90.0,-31.0,1.6843857765197754
378,907.0,-258.0,3059.0,0.0,1286.0,8386.0,-3802.0,-13491.0,4.0,6.0,2.0,-13.0,11.0,-20.0,80.0,2.0,1.6875455379486084
379,857.0,-369.0,3595.0,0.0,1720.0,8190.0,-4258.0,-13427.0,4.0,6.0,2.0,-13.0,11.0,-20.0,80.0,2.0,1.7010176181793213
380,857.0,-369.0,3595.0,0.0,1720.0,8190.0,-4258.0,-13427.0,13.0,0.0,-3.0,20.0,-56.0,-34.0,-11.0,23.0,1.7030057907104492
381,857.0,-369.0,3595.0,0.0,1720.0,8190.0,-4258.0,-13427.0,10.0,7.0,16.0,84.0,24.0,58.0,25.0,1.0,1.7047767639160156
382,1111.0,-400.0,4077.0,0.0,2202.0,7951.0,-4796.0,-13318.0,10.0,7.0,16.0,84.0,24.0,58.0,25.0,1.0,1.7234413623809814
383,1111.0,-400.0,4077.0,0.0,2202.0,7951.0,-4796.0,-13318.0,-11.0,-10.0,-13.0,-39.0,-14.0,-20.0,-33.0,8.0,1.7266011238098145
384,1111.0,-400.0,4077.0,0.0,2202.0,7951.0,-4796.0,-13318.0,25.0,7.0,-14.0,-43.0,-70.0,-44.0,97.0,47.0,1.7295401096343994
385,1320.0,-497.0,4480.0,0.0,2725.0,7657.0,-5405.0,-13160.0,25.0,7.0,-14.0,-43.0,-70.0,-44.0,97.0,47.0,1.7357666492462158
386,1320.0,-497.0,4480.0,0.0,2725.0,7657.0,-5405.0,-13160.0,-13.0,0.0,14.0,33.0,71.0,105.0,69.0,-21.0,1.7435591220855713
387,1320.0,-497.0,4480.0,0.0,2725.0,7657.0,-5405.0,-13160.0,-20.0,-15.0,-17.0,-32.0,-48.0,-79.0,-36.0,-49.0,1.745617389678955
388,875.0,-590.0,4860.0,0.0,3333.0,7285.0,-5979.0,-12981.0,-20.0,-15.0,-17.0,-32.0,-48.0,-79.0,-36.0,-49.0,1.759221076965332
389,875.0,-590.0,4860.0,0.0,3333.0,7285.0,-5979.0,-12981.0,-1.0,-7.0,15.0,83.0,127.0,-26.0,-30.0,-3.0,1.7625250816345215
390,875.0,-590.0,4860.0,0.0,3333.0,7285.0,-5979.0,-12981.0,-81.0,-33.0,-10.0,7.0,0.0,34.0,55.0,5.0,1.7665116786956787
391,504.0,-767.0,4821.0,0.0,3943.0,6848.0,-6479.0,-12807.0,-81.0,-33.0,-10.0,7.0,0.0,34.0,55.0,5.0,1.7838397026062012
392,504.0,-767.0,4821.0,0.0,3943.0,6848.0,-6479.0,-12807.0,57.0,43.0,-2.0,14.0,-103.0,-26.0,13.0,-38.0,1.787374496459961
393,504.0,-767.0,4821.0,0.0,3943.0,6848.0,-6479.0,-12807.0,41.0,5.0,13.0,-9.0,21.0,3.0,-108.0,-30.0,1.7905488014221191
394,972.0,-842.0,4477.0,0.0,4456.0,6417.0,-6994.0,-12589.0,41.0,5.0,13.0,-9.0,21.0,3.0,-108.0,-30.0,1.7957749366760254
395,972.0,-842.0,4477.0,0.0,4456.0,6417.0,-6994.0,-12589.0,-5.0,36.0,6.0,15.0,85.0,23.0,67.0,-3.0,1.8038415908813477
396,972.0,-842.0,4477.0,0.0,4456.0,6417.0,-6994.0,-12589.0,-41.0,-33.0,-3.0,7.0,-7.0,27.0,-126.0,-29.0,1.8056504726409912
397,1484.0,-619.0,3403.0,0.0,4789.0,6114.0,-7475.0,-12339.0,-41.0,-33.0,-3.0,7.0,-7.0,27.0,-126.0,-29.0,1.8187463283538818
398,1484.0,-619.0,3403.0,0.0,4789.0,6114.0,-7475.0,-12339.0,-7.0,-13.0,1.0,-3.0,31.0,17.0,-38.0,11.0,1.8206114768981934
399,1484.0,-619.0,3403.0,0.0,4789.0,6114.0,-7475.0,-12339.0,4.0,-2.0,-4.0,5.0,20.0,19.0,-47.0,8.0,1.8252313137054443
400,1847.0,-350.0,2088.0,0.0,4936.0,5966.0,-7886.0,-12095.0,4.0,-2.0,-4.0,5.0,20.0,19.0,-47.0,8.0,1.842829704284668
401,1847.0,-350.0,2088.0,0.0,4936.0,5966.0,-7886.0,-12095.0,4.0,-24.0,-23.0,6.0,9.0,74.0,79.0,38.0,1.8469457626342773
402,1847.0,-350.0,2088.0,0.0,4936.0,5966.0,-7886.0,-12095.0,12.0,19.0,-5.0,12.0,30.0,5.0,-15.0,-10.0,1.8509931564331055
403,3307.0,-284.0,1146.0,0.0,4864.0,5978.0,-8403.0,-11766.0,12.0,19.0,-5.0,12.0,30.0,5.0,-15.0,-10.0,1.855349063873291
404,3307.0,-284.0,1146.0,0.0,4864.0,5978.0,-8403.0,-11766.0,-12.0,-49.0,-40.0,-18.0,-39.0,-21.0,-23.0,7.0,1.8638248443603516
405,3307.0,-284.0,1146.0,0.0,4864.0,5978.0,-8403.0,-11766.0,20.0,8.0,14.0,-8.0,42.0,31.0,0.0,15.0,1.8656291961669922
406,4096.0,-927.0,382.0,0.0,4554.0,6040.0,-9006.0,-11407.0,20.0,8.0,14.0,-8.0,42.0,31.0,0.0,15.0,1.8797099590301514
407,4096.0,-927.0,382.0,0.0,4554.0,6040.0,-9006.0,-11407.0,-11.0,-34.0,-83.0,22.0,8.0,51.0,3.0,5.0,1.8845129013061523
408,4096.0,-927.0,382.0,0.0,4554.0,6040.0,-9006.0,-11407.0,-3.0,17.0,8.0,-12.0,-18.0,-37.0,-13.0,-10.0,1.8870468139648438
409,3086.0,-430.0,-644.0,0.0,4225.0,6203.0,-9376.0,-11145.0,-3.0,17.0,8.0,-12.0,-18.0,-37.0,-13.0,-10.0,1.9015851020812988
410,3086.0,-430.0,-644.0,0.0,4225.0,6203.0,-9376.0,-11145.0,-12.0,-7.0,22.0,-29.0,-17.0,-18.0,-30.0,20.0,1.9048357009887695
411,3086.0,-430.0,-644.0,0.0,4225.0,6203.0,-9376.0,-11145.0,19.0,15.0,3.0,-53.0,44.0,21.0,-63.0,0.0,1.908759355545044
412,1756.0,-731.0,-1066.0,0.0,3906.0,6299.0,-9557.0,-11053.0,19.0,15.0,3.0,-53.0,44.0,21.0,-63.0,0.0,1.9164903163909912
413,1756.0,-731.0,-1066.0,0.0,3906.0,6299.0,-9557.0,-11053.0,61.0,127.0,127.0,65.0,43.0,61.0,95.0,39.0,1.9239170551300049
414,1756.0,-731.0,-1066.0,0.0,3906.0,6299.0,-9557.0,-11053.0,-25.0,-36.0,-49.0,-8.0,-12.0,20.0,17.0,-16.0,1.9257354736328125
415,456.0,-542.0,-1252.0,0.0,3676.0,6375.0,-9553.0,-11092.0,-25.0,-36.0,-49.0,-8.0,-12.0,20.0,17.0,-16.0,1.940284252166748
416,456.0,-542.0,-1252.0,0.0,3676.0,6375.0,-9553.0,-11092.0,-48.0,-100.0,-99.0,-4.0,-22.0,-34.0,-53.0,-25.0,1.9441938400268555
417,456.0,-542.0,-1252.0,0.0,3676.0,6375.0,-9553.0,-11092.0,87.0,81.0,48.0,97.0,41.0,61.0,42.0,27.0,1.9479103088378906
418,690.0,-186.0,-1334.0,0.0,3380.0,6567.0,-9482.0,-11135.0,87.0,81.0,48.0,97.0,41.0,61.0,42.0,27.0,1.9619145393371582
419,690.0,-186.0,-1334.0,0.0,3380.0,6567.0,-9482.0,-11135.0,58.0,117.0,125.0,46.0,-95.0,-28.0,28.0,39.0,1.9654946327209473
420,690.0,-186.0,-1334.0,0.0,3380.0,6567.0,-9482.0,-11135.0,-6.0,40.0,67.0,-56.0,-22.0,-86.0,51.0,-11.0,1.9697253704071045
421,930.0,-249.0,-684.0,0.0,3113.0,6714.0,-9488.0,-11120.0,-6.0,40.0,67.0,-56.0,-22.0,-86.0,51.0,-11.0,1.9861960411071777
422,930.0,-249.0,-684.0,0.0,3113.0,6714.0,-9488.0,-11120.0,-41.0,-85.0,-128.0,-39.0,113.0,44.0,-13.0,-26.0,1.9897418022155762
423,930.0,-249.0,-684.0,0.0,3113.0,6714.0,-9488.0,-11120.0,-22.0,-51.0,-89.0,82.0,53.0,-9.0,37.0,0.0,1.993149757385254
424,-66.0,-559.0,-28.0,0.0,3052.0,6644.0,-9476.0,-11189.0,-22.0,-51.0,-89.0,82.0,53.0,-9.0,37.0,0.0,1.9991116523742676
425,-66.0,-559.0,-28.0,0.0,3052.0,6644.0,-9476.0,-11189.0,-42.0,-64.0,-66.0,7.0,-6.0,-16.0,0.0,-31.0,2.0013718605041504
426,-66.0,-559.0,-28.0,0.0,3052.0,6644.0,-9476.0,-11189.0,18.0,57.0,72.0,39.0,42.0,-43.0,-102.0,9.0,2.0055110454559326
427,-344.0,-311.0,651.0,0.0,3116.0,6534.0,-9484.0,-11229.0,18.0,57.0,72.0,39.0,42.0,-43.0,-102.0,9.0,2.022007465362549
428,-344.0,-311.0,651.0,0.0,3116.0,6534.0,-9484.0,-11229.0,25.0,70.0,127.0,56.0,-59.0,7.0,79.0,-7.0,2.025484085083008
429,-344.0,-311.0,651.0,0.0,3116.0,6534.0,-9484.0,-11229.0,22.0,-41.0,-11.0,-49.0,8.0,-10.0,-55.0,-28.0,2.0293190479278564
430,-40.0,-50.0,1327.0,0.0,3256.0,6414.0,-9590.0,-11168.0,22.0,-41.0,-11.0,-49.0,8.0,-10.0,-55.0,-28.0,2.045886993408203
431,-40.0,-50.0,1327.0,0.0,3256.0,6414.0,-9590.0,-11168.0,-19.0,-68.0,-91.0,-23.0,44.0,-49.0,-64.0,4.0,2.049222469329834
432,-40.0,-50.0,1327.0,0.0,3256.0,6414.0,-9590.0,-11168.0,-24.0,16.0,69.0,13.0,24.0,56.0,127.0,24.0,2.0523910522460938
433,-60.0,-33.0,1220.0,0.0,3403.0,6290.0,-9696.0,-11104.0,-24.0,16.0,69.0,13.0,24.0,56.0,127.0,24.0,2.0587291717529297
434,-60.0,-33.0,1220.0,0.0,3403.0,6290.0,-9696.0,-11104.0,18.0,25.0,31.0,8.0,17.0,39.0,-4.0,-7.0,2.0672354698181152
435,-60.0,-33.0,1220.0,0.0,3403.0,6290.0,-9696.0,-11104.0,-19.0,-27.0,-65.0,4.0,-76.0,-42.0,-30.0,-14.0,2.069068193435669
436,-151.0,48.0,1354.0,0.0,3558.0,6177.0,-9789.0,-11036.0,-19.0,-27.0,-65.0,4.0,-76.0,-42.0,-30.0,-14.0,2.0816664695739746
437,-151.0,48.0,1354.0,0.0,3558.0,6177.0,-9789.0,-11036.0,-17.0,-13.0,5.0,-1.0,39.0,-9.0,-3.0,14.0,2.0851590633392334
438,-151.0,48.0,1354.0,0.0,3558.0,6177.0,-9789.0,-11036.0,1.0,-18.0,27.0,-51.0,34.0,19.0,-58.0,16.0,2.088531017303467
439,152.0,204.0,1196.0,0.0,3711.0,6084.0,-9890.0,-10948.0,1.0,-18.0,27.0,-51.0,34.0,19.0,-58.0,16.0,2.1054961681365967
440,152.0,204.0,1196.0,0.0,3711.0,6084.0,-9890.0,-10948.0,14.0,-9.0,-35.0,-13.0,61.0,41.0,59.0,56.0,2.1088857650756836
441,152.0,204.0,1196.0,0.0,3711.0,6084.0,-9890.0,-10948.0,-37.0,-51.0,-76.0,-11.0,-70.0,-32.0,-42.0,-24.0,2.1122732162475586
442,534.0,309.0,794.0,0.0,3822.0,6038.0,-9990.0,-10844.0,-37.0,-51.0,-76.0,-11.0,-70.0,-32.0,-42.0,-24.0,2.118699789047241
443,534.0,309.0,794.0,0.0,3822.0,6038.0,-9990.0,-10844.0,-8.0,7.0,3.0,-81.0,-26.0,-64.0,-103.0,-30.0,2.126262664794922
444,534.0,309.0,794.0,0.0,3822.0,6038.0,-9990.0,-10844.0,10.0,-24.0,-37.0,46.0,42.0,57.0,-1.0,5.0,2.1280503273010254
445,377.0,324.0,633.0,0.0,3923.0,6006.0,-10061.0,-10759.0,10.0,-24.0,-37.0,46.0,42.0,57.0,-1.0,5.0,2.1417322158813477
446,377.0,324.0,633.0,0.0,3923.0,6006.0,-10061.0,-10759.0,31.0,69.0,84.0,43.0,70.0,-42.0,6.0,-26.0,2.145490884780884
447,377.0,324.0,633.0,0.0,3923.0,6006.0,-10061.0,-10759.0,-17.0,-4.0,-16.0,1.0,69.0,24.0,21.0,-12.0,2.1489739418029785
448,20.0,257.0,502.0,0.0,4018.0,5973.0,-10085.0,-10720.0,-17.0,-4.0,-16.0,1.0,69.0,24.0,21.0,-12.0,2.166369676589966
449,20.0,257.0,502.0,0.0,4018.0,5973.0,-10085.0,-10720.0,-16.0,-71.0,-94.0,-46.0,2.0,27.0,-49.0,-18.0,2.1698098182678223
450,20.0,257.0,502.0,0.0,4018.0,5973.0,-10085.0,-10720.0,7.0,-19.0,-42.0,66.0,-5.0,27.0,26.0,14.0,2.172966241836548
451,-5.0,144.0,332.0,0.0,4082.0,5945.0,-10106.0,-10691.0,7.0,-19.0,-42.0,66.0,-5.0,27.0,26.0,14.0,2.17891788482666
452,-5.0,144.0,332.0,0.0,4082.0,5945.0,-10106.0,-10691.0,-3.0,-5.0,4.0,31.0,-23.0,11.0,0.0,-2.0,2.1863412857055664
453,-5.0,144.0,332.0,0.0,4082.0,5945.0,-10106.0,-10691.0,5.0,-17.0,-32.0,3.0,43.0,20.0,-67.0,8.0,2.1881203651428223
454,113.0,55.0,251.0,0.0,4114.0,5926.0,-10145.0,-10652.0,5.0,-17.0,-32.0,3.0,43.0,20.0,-67.0,8.0,2.202242612838745
455,113.0,55.0,251.0,0.0,4114.0,5926.0,-10145.0,-10652.0,-11.0,-34.0,-75.0,-12.0,19.0,18.0,67.0,8.0,2.2057693004608154
456,113.0,55.0,251.0,0.0,4114.0,5926.0,-10145.0,-10652.0,-10.0,11.0,6.0,-77.0,-54.0,-39.0,-54.0,-18.0,2.2096309661865234
457,-68.0,-52.0,172.0,0.0,4140.0,5893.0,-10157.0,-10650.0,-10.0,11.0,6.0,-77.0,-54.0,-39.0,-54.0,-18.0,2.2242045402526855
458,-68.0,-52.0,172.0,0.0,4140.0,5893.0,-10157.0,-10650.0,7.0,33.0,56.0,34.0,1.0,36.0,34.0,9.0,2.2262825965881348
459,-68.0,-52.0,172.0,0.0,4140.0,5893.0,-10157.0,-10650.0,-3.0,-11.0,-26.0,-90.0,-37.0,-4.0,-56.0,-2.0,2.229433298110962
460,-247.0,-75.0,121.0,0.0,4163.0,5859.0,-10142.0,-10673.0,-3.0,-11.0,-26.0,-90.0,-37.0,-4.0,-56.0,-2.0,2.2385127544403076
461,-247.0,-75.0,121.0,0.0,4163.0,5859.0,-10142.0,-10673.0,0.0,-19.0,-1.0,-36.0,-37.0,14.0,8.0,-7.0,2.2467503547668457
462,-247.0,-75.0,121.0,0.0,4163.0,5859.0,-10142.0,-10673.0,16.0,75.0,127.0,6.0,-47.0,-6.0,64.0,14.0,2.249640464782715
463,-274.0,-111.0,93.0,0.0,4172.0,5831.0,-10130.0,-10697.0,16.0,75.0,127.0,6.0,-47.0,-6.0,64.0,14.0,2.262206792831421
464,-274.0,-111.0,93.0,0.0,4172.0,5831.0,-10130.0,-10697.0,-22.0,-43.0,-64.0,-19.0,17.0,8.0,-57.0,-8.0,2.2653260231018066
465,-274.0,-111.0,93.0,0.0,4172.0,5831.0,-10130.0,-10697.0,-5.0,1.0,-8.0,24.0,-13.0,-39.0,-52.0,-14.0,2.2682907581329346
466,-125.0,-128.0,49.0,0.0,4177.0,5802.0,-10142.0,-10699.0,-5.0,1.0,-8.0,24.0,-13.0,-39.0,-52.0,-14.0,2.2850518226623535
467,-125.0,-128.0,49.0,0.0,4177.0,5802.0,-10142.0,-10699.0,-9.0,4.0,17.0,-6.0,58.0,-13.0,11.0,-16.0,2.287801742553711
468,-125.0,-128.0,49.0,0.0,4177.0,5802.0,-10142.0,-10699.0,-3.0,-24.0,-34.0,-31.0,-24.0,-40.0,104.0,9.0,2.290794849395752
469,-62.0,-87.0,3.0,0.0,4182.0,5781.0,-10156.0,-10695.0,-3.0,-24.0,-34.0,-31.0,-24.0,-40.0,104.0,9.0,2.2990550994873047
470,-62.0,-87.0,3.0,0.0,4182.0,5781.0,-10156.0,-10695.0,-12.0,-2.0,-19.0,-18.0,36.0,-43.0,-83.0,-18.0,2.300987958908081
471,-62.0,-87.0,3.0,0.0,4182.0,5781.0,-10156.0,-10695.0,21.0,-7.0,10.0,14.0,16.0,29.0,-17.0,4.0,2.305675506591797
472,-47.0,-69.0,-50.0,0.0,4177.0,5773.0,-10159.0,-10699.0,21.0,-7.0,10.0,14.0,16.0,29.0,-17.0,4.0,2.322108030319214
473,-47.0,-69.0,-50.0,0.0,4177.0,5773.0,-10159.0,-10699.0,31.0,65.0,84.0,41.0,32.0,11.0,12.0,14.0,2.3239524364471436
474,-47.0,-69.0,-50.0,0.0,4177.0,5773.0,-10159.0,-10699.0,-22.0,-17.0,-12.0,29.0,-10.0,3.0,36.0,-10.0,2.325712203979492
475,39.0,-41.0,-29.0,0.0,4169.0,5772.0,-10173.0,-10689.0,-22.0,-17.0,-12.0,29.0,-10.0,3.0,36.0,-10.0,2.3450260162353516
476,39.0,-41.0,-29.0,0.0,4169.0,5772.0,-10173.0,-10689.0,0.0,-4.0,-18.0,-23.0,33.0,28.0,72.0,5.0,2.3481457233428955
477,39.0,-41.0,-29.0,0.0,4169.0,5772.0,-10173.0,-10689.0,-7.0,11.0,-14.0,2.0,58.0,32.0,16.0,-13.0,2.351984977722168
478,65.0,-2.0,-44.0,0.0,4162.0,5778.0,-10187.0,-10675.0,-7.0,11.0,-14.0,2.0,58.0,32.0,16.0,-13.0,2.3586933612823486
479,65.0,-2.0,-44.0,0.0,4162.0,5778.0,-10187.0,-10675.0,16.0,46.0,51.0,48.0,-65.0,-38.0,-56.0,6.0,2.3605363368988037
480,65.0,-2.0,-44.0,0.0,4162.0,5778.0,-10187.0,-10675.0,5.0,-7.0,-25.0,10.0,64.0,21.0,8.0,20.0,2.3653032779693604
481,31.0,2.0,14.0,0.0,4165.0,5776.0,-10194.0,-10668.0,5.0,-7.0,-25.0,10.0,64.0,21.0,8.0,20.0,2.382718086242676
482,31.0,2.0,14.0,0.0,4165.0,5776.0,-10194.0,-10668.0,-15.0,-23.0,-12.0,-11.0,-53.0,-20.0,-109.0,-23.0,2.3851184844970703
483,31.0,2.0,14.0,0.0,4165.0,5776.0,-10194.0,-10668.0,-1.0,8.0,-9.0,-16.0,-25.0,5.0,12.0,4.0,2.386904716491699
484,23.0,-33.0,20.0,0.0,4164.0,5770.0,-10202.0,-10664.0,-1.0,8.0,-9.0,-16.0,-25.0,5.0,12.0,4.0,2.405492067337036
485,23.0,-33.0,20.0,0.0,4164.0,5770.0,-10202.0,-10664.0,-9.0,-19.0,-35.0,-35.0,-30.0,21.0,7.0,-1.0,2.4088313579559326
486,23.0,-33.0,20.0,0.0,4164.0,5770.0,-10202.0,-10664.0,11.0,12.0,21.0,-14.0,11.0,7.0,8.0,7.0,2.411975145339966
487,52.0,-19.0,-11.0,0.0,4163.0,5767.0,-10211.0,-10659.0,11.0,12.0,21.0,-14.0,11.0,7.0,8.0,7.0,2.4187703132629395
488,52.0,-19.0,-11.0,0.0,4163.0,5767.0,-10211.0,-10659.0,-4.0,-7.0,-2.0,-28.0,-5.0,9.0,-27.0,-8.0,2.4206528663635254
489,52.0,-19.0,-11.0,0.0,4163.0,5767.0,-10211.0,-10659.0,-11.0,-16.0,-22.0,-10.0,15.0,17.0,11.0,4.0,2.4255211353302
490,35.0,-26.0,-17.0,0.0,4163.0,5760.0,-10213.0,-10660.0,-11.0,-16.0,-22.0,-10.0,15.0,17.0,11.0,4.0,2.4416604042053223
491,35.0,-26.0,-17.0,0.0,4163.0,5760.0,-10213.0,-10660.0,7.0,5.0,-8.0,20.0,-15.0,-14.0,-30.0,3.0,2.4435248374938965
492,35.0,-26.0,-17.0,0.0,4163.0,5760.0,-10213.0,-10660.0,-3.0,0.0,17.0,4.0,-53.0,-10.0,-71.0,-6.0,2.4455833435058594
493,-9.0,-69.0,23.0,0.0,4163.0,5745.0,-10220.0,-10661.0,-3.0,0.0,17.0,4.0,-53.0,-10.0,-71.0,-6.0,2.464336633682251
494,-9.0,-69.0,23.0,0.0,4163.0,5745.0,-10220.0,-10661.0,12.0,16.0,0.0,-1.0,-13.0,-10.0,-3.0,9.0,2.4673047065734863
495,-9.0,-69.0,23.0,0.0,4163.0,5745.0,-10220.0,-10661.0,-5.0,-5.0,-10.0,10.0,4.0,-12.0,-9.0,-5.0,2.4691784381866455
496,-13.0,-87.0,-1.0,0.0,4160.0,5729.0,-10229.0,-10663.0,-5.0,-5.0,-10.0,10.0,4.0,-12.0,-9.0,-5.0,2.4782302379608154
497,-13.0,-87.0,-1.0,0.0,4160.0,5729.0,-10229.0,-10663.0,-3.0,-19.0,-11.0,-41.0,34.0,-30.0,-7.0,3.0,2.4863088130950928
498,-13.0,-87.0,-1.0,0.0,4160.0,5729.0,-10229.0,-10663.0,10.0,18.0,10.0,33.0,73.0,-25.0,-1.0,-9.0,2.488093614578247
499,21.0,-44.0,-2.0,0.0,4160.0,5719.0,-10236.0,-10660.0,10.0,18.0,10.0,33.0,73.0,-25.0,-1.0,-9.0,2.501857042312622
