,Gyro 0,Gyro 1,Gyro 2,Label,Orientation 0,Orientation 1,Orientation 2,Orientation 3,Sensor 0,Sensor 1,Sensor 2,Sensor 3,Sensor 4,Sensor 5,Sensor 6,Sensor 7,Timestamp
0,134.0,22.0,-88.0,0.0,229.0,-5423.0,-12109.0,-9611.0,-10.0,-8.0,3.0,2.0,20.0,13.0,7.0,-5.0,2.384185791015625e-06
1,134.0,22.0,-88.0,0.0,229.0,-5423.0,-12109.0,-9611.0,-7.0,-4.0,-4.0,-4.0,-6.0,7.0,-3.0,-1.0,0.002413511276245117
2,134.0,22.0,-88.0,0.0,229.0,-5423.0,-12109.0,-9611.0,1.0,-8.0,-13.0,-4.0,-2.0,0.0,-6.0,0.0,0.005472421646118164
3,134.0,22.0,-88.0,0.0,229.0,-5423.0,-12109.0,-9611.0,10.0,17.0,5.0,4.0,-14.0,-2.0,-5.0,4.0,0.009219646453857422
4,79.0,61.0,-121.0,0.0,230.0,-5401.0,-12127.0,-9601.0,10.0,17.0,5.0,4.0,-14.0,-2.0,-5.0,4.0,0.011153221130371094
5,79.0,61.0,-121.0,0.0,230.0,-5401.0,-12127.0,-9601.0,-1.0,0.0,-3.0,-6.0,-37.0,0.0,-5.0,-2.0,0.013443231582641602
6,79.0,61.0,-121.0,0.0,230.0,-5401.0,-12127.0,-9601.0,-6.0,-5.0,-1.0,-2.0,-13.0,-15.0,0.0,-2.0,0.015291213989257812
7,83.0,72.0,-134.0,0.0,232.0,-5377.0,-12142.0,-9595.0,-6.0,-5.0,-1.0,-2.0,-13.0,-15.0,0.0,-2.0,0.017125844955444336
8,83.0,72.0,-134.0,0.0,232.0,-5377.0,-12142.0,-9595.0,3.0,3.0,1.0,1.0,5.0,-2.0,-3.0,0.0,0.020113229751586914
9,83.0,72.0,-134.0,0.0,232.0,-5377.0,-12142.0,-9595.0,4.0,0.0,7.0,-3.0,-7.0,-30.0,1.0,-1.0,0.022868871688842773
10,159.0,60.0,-105.0,0.0,241.0,-5357.0,-12161.0,-9582.0,4.0,0.0,7.0,-3.0,-7.0,-30.0,1.0,-1.0,0.02478647232055664
11,159.0,60.0,-105.0,0.0,241.0,-5357.0,-12161.0,-9582.0,-4.0,-10.0,-18.0,-3.0,11.0,-5.0,-6.0,-5.0,0.026766538619995117
12,159.0,60.0,-105.0,0.0,241.0,-5357.0,-12161.0,-9582.0,-7.0,-3.0,-9.0,-1.0,2.0,8.0,-1.0,-2.0,0.02863478660583496
13,150.0,51.0,-56.0,0.0,250.0,-5343.0,-12179.0,-9567.0,-7.0,-3.0,-9.0,-1.0,2.0,8.0,-1.0,-2.0,0.030525922775268555
14,150.0,51.0,-56.0,0.0,250.0,-5343.0,-12179.0,-9567.0,-5.0,0.0,6.0,4.0,-3.0,1.0,-8.0,1.0,0.03262805938720703
15,150.0,51.0,-56.0,0.0,250.0,-5343.0,-12179.0,-9567.0,5.0,6.0,6.0,0.0,-36.0,69.0,21.0,5.0,0.03527522087097168
16,93.0,51.0,4.0,0.0,260.0,-5335.0,-12186.0,-9563.0,5.0,6.0,6.0,0.0,-36.0,69.0,21.0,5.0,0.037154197692871094
17,93.0,51.0,4.0,0.0,260.0,-5335.0,-12186.0,-9563.0,-1.0,1.0,-3.0,-4.0,-13.0,8.0,-2.0,2.0,0.039054155349731445
18,93.0,51.0,4.0,0.0,260.0,-5335.0,-12186.0,-9563.0,4.0,8.0,9.0,16.0,56.0,8.0,2.0,-2.0,0.04088425636291504
19,2.0,49.0,51.0,0.0,267.0,-5331.0,-12181.0,-9571.0,4.0,8.0,9.0,16.0,56.0,8.0,2.0,-2.0,0.042673587799072266
20,2.0,49.0,51.0,0.0,267.0,-5331.0,-12181.0,-9571.0,5.0,5.0,7.0,-8.0,-22.0,-11.0,2.0,1.0,0.04454755783081055
21,2.0,49.0,51.0,0.0,267.0,-5331.0,-12181.0,-9571.0,-1.0,-18.0,-36.0,-4.0,-1.0,-13.0,-4.0,-2.0,0.046727657318115234
22,-13.0,46.0,95.0,0.0,280.0,-5336.0,-12171.0,-9580.0,-1.0,-18.0,-36.0,-4.0,-1.0,-13.0,-4.0,-2.0,0.04886817932128906
23,-13.0,46.0,95.0,0.0,280.0,-5336.0,-12171.0,-9580.0,-7.0,9.0,12.0,3.0,11.0,-24.0,-1.0,-3.0,0.051877498626708984
24,-13.0,46.0,95.0,0.0,280.0,-5336.0,-12171.0,-9580.0,-9.0,-8.0,2.0,9.0,-8.0,4.0,9.0,-4.0,0.05405116081237793
25,2.0,10.0,139.0,0.0,293.0,-5350.0,-12164.0,-9581.0,-9.0,-8.0,2.0,9.0,-8.0,4.0,9.0,-4.0,0.05585122108459473
26,2.0,10.0,139.0,0.0,293.0,-5350.0,-12164.0,-9581.0,5.0,-1.0,2.0,0.0,2.0,-3.0,-2.0,1.0,0.05772709846496582
27,2.0,10.0,139.0,0.0,293.0,-5350.0,-12164.0,-9581.0,-2.0,-6.0,-3.0,0.0,-6.0,-4.0,-16.0,-4.0,0.059523820877075195
28,-18.0,7.0,184.0,0.0,308.0,-5371.0,-12151.0,-9585.0,-2.0,-6.0,-3.0,0.0,-6.0,-4.0,-16.0,-4.0,0.061350345611572266
29,-18.0,7.0,184.0,0.0,308.0,-5371.0,-12151.0,-9585.0,-4.0,2.0,-5.0,-5.0,-44.0,-16.0,1.0,1.0,0.06328463554382324
30,-18.0,7.0,184.0,0.0,308.0,-5371.0,-12151.0,-9585.0,-5.0,-5.0,2.0,-13.0,13.0,-11.0,-1.0,1.0,0.06525731086730957
31,-50.0,-2.0,167.0,0.0,315.0,-5389.0,-12139.0,-9590.0,-5.0,-5.0,2.0,-13.0,13.0,-11.0,-1.0,1.0,0.0679783821105957
32,-50.0,-2.0,167.0,0.0,315.0,-5389.0,-12139.0,-9590.0,-1.0,-2.0,-1.0,-1.0,14.0,5.0,-1.0,-2.0,0.06993556022644043
33,-50.0,-2.0,167.0,0.0,315.0,-5389.0,-12139.0,-9590.0,0.0,1.0,9.0,-9.0,-4.0,-2.0,-2.0,2.0,0.07171845436096191
34,-105.0,-4.0,158.0,0.0,321.0,-5409.0,-12122.0,-9600.0,0.0,1.0,9.0,-9.0,-4.0,-2.0,-2.0,2.0,0.07351970672607422
35,-105.0,-4.0,158.0,0.0,321.0,-5409.0,-12122.0,-9600.0,4.0,6.0,-6.0,2.0,15.0,6.0,-1.0,0.0,0.07538962364196777
36,-105.0,-4.0,158.0,0.0,321.0,-5409.0,-12122.0,-9600.0,4.0,1.0,20.0,10.0,1.0,-6.0,-1.0,-2.0,0.07718300819396973
37,-101.0,-13.0,143.0,0.0,324.0,-5427.0,-12105.0,-9611.0,4.0,1.0,20.0,10.0,1.0,-6.0,-1.0,-2.0,0.07929444313049316
38,-101.0,-13.0,143.0,0.0,324.0,-5427.0,-12105.0,-9611.0,-3.0,1.0,10.0,-1.0,10.0,14.0,0.0,-1.0,0.08200407028198242
39,-101.0,-13.0,143.0,0.0,324.0,-5427.0,-12105.0,-9611.0,-2.0,-8.0,-8.0,-4.0,8.0,-4.0,-1.0,-3.0,0.08521175384521484
40,-43.0,-13.0,139.0,0.0,328.0,-5444.0,-12097.0,-9611.0,-2.0,-8.0,-8.0,-4.0,8.0,-4.0,-1.0,-3.0,0.0870523452758789
41,-43.0,-13.0,139.0,0.0,328.0,-5444.0,-12097.0,-9611.0,5.0,-5.0,-4.0,6.0,12.0,3.0,-3.0,1.0,0.08892488479614258
42,-43.0,-13.0,139.0,0.0,328.0,-5444.0,-12097.0,-9611.0,-5.0,-4.0,-6.0,-6.0,-4.0,2.0,5.0,-2.0,0.09077596664428711
43,-58.0,-13.0,122.0,0.0,331.0,-5461.0,-12089.0,-9612.0,-5.0,-4.0,-6.0,-6.0,-4.0,2.0,5.0,-2.0,0.09259247779846191
44,-58.0,-13.0,122.0,0.0,331.0,-5461.0,-12089.0,-9612.0,-22.0,-3.0,-3.0,-15.0,3.0,4.0,-5.0,-6.0,0.09445643424987793
45,-58.0,-13.0,122.0,0.0,331.0,-5461.0,-12089.0,-9612.0,6.0,5.0,1.0,17.0,13.0,-2.0,-2.0,5.0,0.09666824340820312
46,-106.0,-13.0,99.0,0.0,331.0,-5476.0,-12077.0,-9618.0,6.0,5.0,1.0,17.0,13.0,-2.0,-2.0,5.0,0.09850788116455078
47,-106.0,-13.0,99.0,0.0,331.0,-5476.0,-12077.0,-9618.0,6.0,5.0,1.0,17.0,13.0,-2.0,-2.0,5.0,0.10040163993835449
48,-106.0,-13.0,99.0,0.0,331.0,-5476.0,-12077.0,-9618.0,5.0,-4.0,0.0,9.0,4.0,3.0,3.0,-1.0,0.10200715065002441
49,-106.0,-13.0,99.0,0.0,331.0,-5476.0,-12077.0,-9618.0,6.0,5.0,-6.0,-18.0,-14.0,-10.0,-1.0,-1.0,0.10381126403808594
50,-67.0,-29.0,67.0,0.0,329.0,-5489.0,-12071.0,-9619.0,6.0,5.0,-6.0,-18.0,-14.0,-10.0,-1.0,-1.0,0.1056370735168457
51,-67.0,-29.0,67.0,0.0,329.0,-5489.0,-12071.0,-9619.0,5.0,5.0,15.0,11.0,14.0,8.0,0.0,1.0,0.10754156112670898
52,-67.0,-29.0,67.0,0.0,329.0,-5489.0,-12071.0,-9619.0,-8.0,0.0,11.0,-24.0,-12.0,-1.0,-2.0,-5.0,0.10936641693115234
53,25.0,-61.0,37.0,0.0,322.0,-5499.0,-12076.0,-9606.0,-8.0,0.0,11.0,-24.0,-12.0,-1.0,-2.0,-5.0,0.11174368858337402
54,25.0,-61.0,37.0,0.0,322.0,-5499.0,-12076.0,-9606.0,6.0,4.0,-19.0,-10.0,-13.0,-8.0,-12.0,0.0,0.11424469947814941
55,25.0,-61.0,37.0,0.0,322.0,-5499.0,-12076.0,-9606.0,-6.0,-18.0,-24.0,41.0,22.0,-3.0,-15.0,1.0,0.11695504188537598
56,35.0,-75.0,1.0,0.0,311.0,-5507.0,-12084.0,-9593.0,-6.0,-18.0,-24.0,41.0,22.0,-3.0,-15.0,1.0,0.11883950233459473
57,35.0,-75.0,1.0,0.0,311.0,-5507.0,-12084.0,-9593.0,5.0,5.0,2.0,8.0,4.0,4.0,2.0,0.0,0.1207277774810791
58,35.0,-75.0,1.0,0.0,311.0,-5507.0,-12084.0,-9593.0,-1.0,-1.0,-11.0,6.0,4.0,0.0,3.0,-1.0,0.12252116203308105
59,61.0,-62.0,-20.0,0.0,302.0,-5510.0,-12096.0,-9575.0,-1.0,-1.0,-11.0,6.0,4.0,0.0,3.0,-1.0,0.12431120872497559
60,61.0,-62.0,-20.0,0.0,302.0,-5510.0,-12096.0,-9575.0,-6.0,-2.0,9.0,9.0,3.0,0.0,4.0,1.0,0.1261751651763916
61,61.0,-62.0,-20.0,0.0,302.0,-5510.0,-12096.0,-9575.0,5.0,3.0,9.0,-20.0,-11.0,-4.0,4.0,1.0,0.12796616554260254
62,31.0,-42.0,-2.0,0.0,301.0,-5516.0,-12100.0,-9568.0,5.0,3.0,9.0,-20.0,-11.0,-4.0,4.0,1.0,0.1301567554473877
63,31.0,-42.0,-2.0,0.0,301.0,-5516.0,-12100.0,-9568.0,-3.0,-9.0,-16.0,-14.0,2.0,-8.0,0.0,0.0,0.13203215599060059
64,31.0,-42.0,-2.0,0.0,301.0,-5516.0,-12100.0,-9568.0,-8.0,0.0,-7.0,-17.0,-12.0,-4.0,-2.0,0.0,0.133836030960083
65,28.0,-20.0,-6.0,0.0,300.0,-5516.0,-12100.0,-9567.0,-8.0,0.0,-7.0,-17.0,-12.0,-4.0,-2.0,0.0,0.1356503963470459
66,28.0,-20.0,-6.0,0.0,300.0,-5516.0,-12100.0,-9567.0,-1.0,2.0,8.0,-3.0,-13.0,-9.0,-7.0,-3.0,0.13754510879516602
67,28.0,-20.0,-6.0,0.0,300.0,-5516.0,-12100.0,-9567.0,-3.0,-6.0,-6.0,-3.0,-3.0,-5.0,-6.0,-2.0,0.1393418312072754
68,84.0,-15.0,-10.0,0.0,298.0,-5513.0,-12109.0,-9558.0,-3.0,-6.0,-6.0,-3.0,-3.0,-5.0,-6.0,-2.0,0.1412656307220459
69,84.0,-15.0,-10.0,0.0,298.0,-5513.0,-12109.0,-9558.0,1.0,-11.0,-4.0,6.0,-2.0,3.0,2.0,-1.0,0.14388394355773926
70,84.0,-15.0,-10.0,0.0,298.0,-5513.0,-12109.0,-9558.0,-1.0,1.0,-7.0,0.0,10.0,6.0,3.0,-3.0,0.14607572555541992
71,70.0,-21.0,10.0,0.0,295.0,-5513.0,-12117.0,-9547.0,-1.0,1.0,-7.0,0.0,10.0,6.0,3.0,-3.0,0.1478743553161621
72,70.0,-21.0,10.0,0.0,295.0,-5513.0,-12117.0,-9547.0,-1.0,5.0,8.0,-8.0,14.0,0.0,0.0,-3.0,0.15091848373413086
73,70.0,-21.0,10.0,0.0,295.0,-5513.0,-12117.0,-9547.0,9.0,19.0,8.0,-2.0,16.0,6.0,4.0,2.0,0.15278220176696777
74,-22.0,-27.0,38.0,0.0,291.0,-5518.0,-12113.0,-9549.0,9.0,19.0,8.0,-2.0,16.0,6.0,4.0,2.0,0.15458393096923828
75,-22.0,-27.0,38.0,0.0,291.0,-5518.0,-12113.0,-9549.0,20.0,-3.0,4.0,-2.0,-12.0,-10.0,16.0,1.0,0.1564929485321045
76,-22.0,-27.0,38.0,0.0,291.0,-5518.0,-12113.0,-9549.0,1.0,-1.0,-1.0,7.0,6.0,9.0,2.0,0.0,0.1582796573638916
77,-43.0,-41.0,46.0,0.0,287.0,-5528.0,-12106.0,-9553.0,1.0,-1.0,-1.0,7.0,6.0,9.0,2.0,0.0,0.16006183624267578
78,-43.0,-41.0,46.0,0.0,287.0,-5528.0,-12106.0,-9553.0,-10.0,0.0,4.0,-10.0,7.0,-9.0,-11.0,-2.0,0.16219449043273926
79,-43.0,-41.0,46.0,0.0,287.0,-5528.0,-12106.0,-9553.0,11.0,3.0,12.0,0.0,-1.0,4.0,5.0,3.0,0.1640303134918213
80,-46.0,-43.0,46.0,0.0,283.0,-5538.0,-12098.0,-9558.0,11.0,3.0,12.0,0.0,-1.0,4.0,5.0,3.0,0.1658766269683838
81,-46.0,-43.0,46.0,0.0,283.0,-5538.0,-12098.0,-9558.0,1.0,4.0,7.0,6.0,-2.0,6.0,-5.0,1.0,0.16780424118041992
82,-46.0,-43.0,46.0,0.0,283.0,-5538.0,-12098.0,-9558.0,-2.0,0.0,3.0,-1.0,-15.0,-19.0,-8.0,1.0,0.1696319580078125
83,-33.0,-34.0,29.0,0.0,279.0,-5544.0,-12093.0,-9561.0,-2.0,0.0,3.0,-1.0,-15.0,-19.0,-8.0,1.0,0.1714479923248291
84,-33.0,-34.0,29.0,0.0,279.0,-5544.0,-12093.0,-9561.0,-3.0,-7.0,-12.0,-14.0,-10.0,-16.0,1.0,2.0,0.17463898658752441
85,-33.0,-34.0,29.0,0.0,279.0,-5544.0,-12093.0,-9561.0,-4.0,-4.0,-2.0,-5.0,-8.0,0.0,1.0,-1.0,0.17699527740478516
86,10.0,-33.0,34.0,0.0,275.0,-5551.0,-12095.0,-9555.0,-4.0,-4.0,-2.0,-5.0,-8.0,0.0,1.0,-1.0,0.17885041236877441
87,10.0,-33.0,34.0,0.0,275.0,-5551.0,-12095.0,-9555.0,-3.0,-1.0,-8.0,12.0,6.0,4.0,3.0,-3.0,0.18073821067810059
88,10.0,-33.0,34.0,0.0,275.0,-5551.0,-12095.0,-9555.0,-9.0,-3.0,-6.0,-5.0,-7.0,-10.0,-18.0,-6.0,0.18337368965148926
89,-35.0,-42.0,35.0,0.0,269.0,-5559.0,-12091.0,-9554.0,-9.0,-3.0,-6.0,-5.0,-7.0,-10.0,-18.0,-6.0,0.18539953231811523
90,-35.0,-42.0,35.0,0.0,269.0,-5559.0,-12091.0,-9554.0,8.0,12.0,6.0,1.0,-2.0,8.0,10.0,3.0,0.18729591369628906
91,-35.0,-42.0,35.0,0.0,269.0,-5559.0,-12091.0,-9554.0,16.0,-4.0,-3.0,-12.0,-8.0,7.0,5.0,3.0,0.18917322158813477
92,-53.0,-14.0,24.0,0.0,265.0,-5563.0,-12086.0,-9559.0,16.0,-4.0,-3.0,-12.0,-8.0,7.0,5.0,3.0,0.19100356101989746
93,-53.0,-14.0,24.0,0.0,265.0,-5563.0,-12086.0,-9559.0,-6.0,-9.0,-12.0,-14.0,-9.0,0.0,-11.0,0.0,0.19287514686584473
94,-39.0,-2.0,33.0,0.0,263.0,-5566.0,-12081.0,-9563.0,-6.0,-9.0,-12.0,-14.0,-9.0,0.0,-11.0,0.0,0.19466924667358398
95,-39.0,-2.0,33.0,0.0,263.0,-5566.0,-12081.0,-9563.0,-12.0,4.0,-10.0,-2.0,-9.0,3.0,3.0,-3.0,0.19685792922973633
96,-39.0,-2.0,33.0,0.0,263.0,-5566.0,-12081.0,-9563.0,-1.0,-7.0,-2.0,-4.0,-5.0,-3.0,5.0,-2.0,0.19865727424621582
97,-11.0,-15.0,46.0,0.0,261.0,-5571.0,-12078.0,-9564.0,-1.0,-7.0,-2.0,-4.0,-5.0,-3.0,5.0,-2.0,0.2004532814025879
98,-11.0,-15.0,46.0,0.0,261.0,-5571.0,-12078.0,-9564.0,0.0,3.0,13.0,-3.0,6.0,2.0,2.0,-1.0,0.20233607292175293
99,-11.0,-15.0,46.0,0.0,261.0,-5571.0,-12078.0,-9564.0,-2.0,2.0,3.0,4.0,-4.0,10.0,-3.0,0.0,0.20472073554992676
100,-67.0,10.0,45.0,0.0,260.0,-5573.0,-12068.0,-9576.0,-2.0,2.0,3.0,4.0,-4.0,10.0,-3.0,0.0,0.20702123641967773
101,-67.0,10.0,45.0,0.0,260.0,-5573.0,-12068.0,-9576.0,0.0,9.0,5.0,10.0,-5.0,-3.0,2.0,0.0,0.20892739295959473
102,-67.0,10.0,45.0,0.0,260.0,-5573.0,-12068.0,-9576.0,-6.0,-2.0,8.0,7.0,-1.0,4.0,-5.0,0.0,0.210768461227417
103,-72.0,28.0,30.0,0.0,257.0,-5571.0,-12060.0,-9588.0,-6.0,-2.0,8.0,7.0,-1.0,4.0,-5.0,0.0,0.2125873565673828
104,-72.0,28.0,30.0,0.0,257.0,-5571.0,-12060.0,-9588.0,17.0,0.0,-1.0,7.0,-12.0,-7.0,0.0,1.0,0.21445274353027344
105,-72.0,28.0,30.0,0.0,257.0,-5571.0,-12060.0,-9588.0,-1.0,2.0,2.0,8.0,2.0,0.0,-1.0,2.0,0.21718263626098633
106,-38.0,21.0,40.0,0.0,258.0,-5572.0,-12055.0,-9593.0,-1.0,2.0,2.0,8.0,2.0,0.0,-1.0,2.0,0.21905016899108887
107,-38.0,21.0,40.0,0.0,258.0,-5572.0,-12055.0,-9593.0,-18.0,-5.0,-4.0,3.0,12.0,3.0,-1.0,-3.0,0.22092676162719727
108,-38.0,21.0,40.0,0.0,258.0,-5572.0,-12055.0,-9593.0,-7.0,-5.0,-1.0,15.0,8.0,-3.0,9.0,0.0,0.22271251678466797
109,-8.0,16.0,28.0,0.0,260.0,-5572.0,-12055.0,-9593.0,-7.0,-5.0,-1.0,15.0,8.0,-3.0,9.0,0.0,0.22450804710388184
110,-8.0,16.0,28.0,0.0,260.0,-5572.0,-12055.0,-9593.0,1.0,1.0,-1.0,3.0,7.0,1.0,0.0,-3.0,0.2264249324798584
111,-8.0,16.0,28.0,0.0,260.0,-5572.0,-12055.0,-9593.0,-3.0,8.0,1.0,-10.0,-2.0,-1.0,-6.0,-1.0,0.2283165454864502
112,-63.0,7.0,9.0,0.0,256.0,-5571.0,-12048.0,-9602.0,-3.0,8.0,1.0,-10.0,-2.0,-1.0,-6.0,-1.0,0.23023033142089844
113,-63.0,7.0,9.0,0.0,256.0,-5571.0,-12048.0,-9602.0,-2.0,-5.0,0.0,-4.0,-8.0,1.0,12.0,1.0,0.23213911056518555
114,-63.0,7.0,9.0,0.0,256.0,-5571.0,-12048.0,-9602.0,-8.0,-18.0,-10.0,-2.0,-7.0,-3.0,-2.0,-4.0,0.23436641693115234
115,-40.0,6.0,30.0,0.0,256.0,-5574.0,-12043.0,-9607.0,-8.0,-18.0,-10.0,-2.0,-7.0,-3.0,-2.0,-4.0,0.2369532585144043
116,-40.0,6.0,30.0,0.0,256.0,-5574.0,-12043.0,-9607.0,14.0,11.0,22.0,3.0,13.0,1.0,-7.0,3.0,0.23912763595581055
117,-40.0,6.0,30.0,0.0,256.0,-5574.0,-12043.0,-9607.0,3.0,4.0,-4.0,-16.0,0.0,-1.0,-3.0,0.0,0.24095487594604492
118,29.0,-13.0,56.0,0.0,260.0,-5582.0,-12045.0,-9600.0,3.0,4.0,-4.0,-16.0,0.0,-1.0,-3.0,0.0,0.24276423454284668
119,29.0,-13.0,56.0,0.0,260.0,-5582.0,-12045.0,-9600.0,-23.0,-17.0,-10.0,-11.0,6.0,-1.0,-3.0,-2.0,0.24465680122375488
120,29.0,-13.0,56.0,0.0,260.0,-5582.0,-12045.0,-9600.0,-3.0,4.0,6.0,10.0,3.0,-2.0,2.0,-1.0,0.24647808074951172
121,34.0,-29.0,58.0,0.0,262.0,-5592.0,-12047.0,-9591.0,-3.0,4.0,6.0,10.0,3.0,-2.0,2.0,-1.0,0.24832677841186523
122,34.0,-29.0,58.0,0.0,262.0,-5592.0,-12047.0,-9591.0,-4.0,2.0,-11.0,0.0,-3.0,0.0,3.0,-1.0,0.25104260444641113
123,34.0,-29.0,58.0,0.0,262.0,-5592.0,-12047.0,-9591.0,1.0,-4.0,-6.0,-4.0,0.0,-4.0,-6.0,-2.0,0.252901554107666
124,-23.0,-41.0,34.0,0.0,254.0,-5598.0,-12045.0,-9591.0,1.0,-4.0,-6.0,-4.0,0.0,-4.0,-6.0,-2.0,0.2546989917755127
125,-23.0,-41.0,34.0,0.0,254.0,-5598.0,-12045.0,-9591.0,-6.0,1.0,4.0,1.0,-2.0,-5.0,3.0,2.0,0.2565779685974121
126,-23.0,-41.0,34.0,0.0,254.0,-5598.0,-12045.0,-9591.0,7.0,2.0,-6.0,1.0,29.0,2.0,-6.0,-1.0,0.258373498916626
127,-101.0,-34.0,8.0,0.0,241.0,-5601.0,-12036.0,-9601.0,7.0,2.0,-6.0,1.0,29.0,2.0,-6.0,-1.0,0.26017069816589355
128,-101.0,-34.0,8.0,0.0,241.0,-5601.0,-12036.0,-9601.0,-11.0,-3.0,0.0,-4.0,0.0,7.0,-7.0,-4.0,0.2622063159942627
129,-101.0,-34.0,8.0,0.0,241.0,-5601.0,-12036.0,-9601.0,4.0,10.0,6.0,-7.0,2.0,3.0,2.0,1.0,0.2640380859375
130,-84.0,-23.0,-14.0,0.0,232.0,-5602.0,-12027.0,-9612.0,4.0,10.0,6.0,-7.0,2.0,3.0,2.0,1.0,0.2664353847503662
131,-84.0,-23.0,-14.0,0.0,232.0,-5602.0,-12027.0,-9612.0,3.0,-2.0,-7.0,4.0,-7.0,-5.0,-2.0,0.0,0.2688617706298828
132,-84.0,-23.0,-14.0,0.0,232.0,-5602.0,-12027.0,-9612.0,-8.0,-9.0,-8.0,2.0,-12.0,-6.0,-2.0,-4.0,0.27075934410095215
133,35.0,-32.0,-38.0,0.0,226.0,-5600.0,-12033.0,-9605.0,-8.0,-9.0,-8.0,2.0,-12.0,-6.0,-2.0,-4.0,0.27255940437316895
134,35.0,-32.0,-38.0,0.0,226.0,-5600.0,-12033.0,-9605.0,9.0,1.0,2.0,-2.0,-9.0,0.0,0.0,-1.0,0.27443599700927734
135,35.0,-32.0,-38.0,0.0,226.0,-5600.0,-12033.0,-9605.0,0.0,-9.0,-3.0,-5.0,-2.0,5.0,1.0,1.0,0.27622056007385254
136,2.0,-21.0,-56.0,0.0,217.0,-5594.0,-12036.0,-9605.0,0.0,-9.0,-3.0,-5.0,-2.0,5.0,1.0,1.0,0.28815793991088867
137,2.0,-21.0,-56.0,0.0,217.0,-5594.0,-12036.0,-9605.0,2.0,9.0,32.0,12.0,6.0,1.0,3.0,1.0,0.290067195892334
138,2.0,-21.0,-56.0,0.0,217.0,-5594.0,-12036.0,-9605.0,-3.0,4.0,8.0,-3.0,-15.0,-7.0,-2.0,2.0,0.2918682098388672
139,-24.0,42.0,-22.0,0.0,215.0,-5585.0,-12036.0,-9611.0,-3.0,4.0,8.0,-3.0,-15.0,-7.0,-2.0,2.0,0.31077075004577637
140,-24.0,42.0,-22.0,0.0,215.0,-5585.0,-12036.0,-9611.0,-2.0,-8.0,13.0,5.0,-5.0,-25.0,-14.0,-4.0,0.31334686279296875
141,-24.0,42.0,-22.0,0.0,215.0,-5585.0,-12036.0,-9611.0,-5.0,1.0,-73.0,-76.0,-9.0,26.0,-6.0,-3.0,0.31635332107543945
142,-57.0,153.0,6.0,0.0,229.0,-5568.0,-12033.0,-9624.0,-5.0,1.0,-73.0,-76.0,-9.0,26.0,-6.0,-3.0,0.3250441551208496
143,-57.0,153.0,6.0,0.0,229.0,-5568.0,-12033.0,-9624.0,-4.0,-11.0,-46.0,-42.0,-4.0,2.0,-21.0,-4.0,0.33310627937316895
144,-57.0,153.0,6.0,0.0,229.0,-5568.0,-12033.0,-9624.0,3.0,-5.0,11.0,24.0,3.0,-67.0,-28.0,6.0,0.3353235721588135
145,-311.0,170.0,-54.0,0.0,224.0,-5543.0,-12005.0,-9673.0,3.0,-5.0,11.0,24.0,3.0,-67.0,-28.0,6.0,0.348236083984375
146,-311.0,170.0,-54.0,0.0,224.0,-5543.0,-12005.0,-9673.0,-14.0,-11.0,-56.0,6.0,6.0,6.0,3.0,-11.0,0.3516266345977783
147,-311.0,170.0,-54.0,0.0,224.0,-5543.0,-12005.0,-9673.0,1.0,0.0,16.0,19.0,8.0,55.0,50.0,7.0,0.354856014251709
148,-528.0,83.0,-176.0,0.0,188.0,-5514.0,-11957.0,-9750.0,1.0,0.0,16.0,19.0,8.0,55.0,50.0,7.0,0.3710200786590576
149,-528.0,83.0,-176.0,0.0,188.0,-5514.0,-11957.0,-9750.0,4.0,14.0,21.0,1.0,-5.0,-32.0,-14.0,-4.0,0.3785569667816162
150,-528.0,83.0,-176.0,0.0,188.0,-5514.0,-11957.0,-9750.0,4.0,9.0,29.0,-2.0,-3.0,12.0,8.0,-4.0,0.38045811653137207
151,-337.0,132.0,-209.0,0.0,167.0,-5475.0,-11931.0,-9803.0,4.0,9.0,29.0,-2.0,-3.0,12.0,8.0,-4.0,0.39418482780456543
152,-337.0,132.0,-209.0,0.0,167.0,-5475.0,-11931.0,-9803.0,6.0,3.0,50.0,35.0,1.0,34.0,8.0,6.0,0.3973388671875
153,-337.0,132.0,-209.0,0.0,167.0,-5475.0,-11931.0,-9803.0,0.0,-4.0,-15.0,7.0,2.0,-3.0,-9.0,2.0,0.40110301971435547
154,-6.0,139.0,-174.0,0.0,175.0,-5445.0,-11940.0,-9809.0,0.0,-4.0,-15.0,7.0,2.0,-3.0,-9.0,2.0,0.4163987636566162
155,-6.0,139.0,-174.0,0.0,175.0,-5445.0,-11940.0,-9809.0,-2.0,-5.0,-24.0,-16.0,-8.0,10.0,7.0,1.0,0.41977405548095703
156,-6.0,139.0,-174.0,0.0,175.0,-5445.0,-11940.0,-9809.0,4.0,0.0,6.0,-1.0,-16.0,-12.0,-5.0,-3.0,0.4240128993988037
157,274.0,-1.0,-6.0,0.0,184.0,-5441.0,-11977.0,-9766.0,4.0,0.0,6.0,-1.0,-16.0,-12.0,-5.0,-3.0,0.43007636070251465
158,274.0,-1.0,-6.0,0.0,184.0,-5441.0,-11977.0,-9766.0,0.0,-6.0,-5.0,15.0,13.0,-2.0,-1.0,-1.0,0.43209052085876465
159,274.0,-1.0,-6.0,0.0,184.0,-5441.0,-11977.0,-9766.0,-5.0,0.0,8.0,-15.0,-18.0,8.0,2.0,-6.0,0.43722057342529297
160,198.0,-127.0,23.0,0.0,177.0,-5456.0,-12002.0,-9727.0,-5.0,0.0,8.0,-15.0,-18.0,8.0,2.0,-6.0,0.4551210403442383
161,198.0,-127.0,23.0,0.0,177.0,-5456.0,-12002.0,-9727.0,2.0,4.0,18.0,-20.0,-16.0,-3.0,13.0,5.0,0.4580256938934326
162,198.0,-127.0,23.0,0.0,177.0,-5456.0,-12002.0,-9727.0,-2.0,-2.0,4.0,7.0,7.0,1.0,-12.0,-4.0,0.4598698616027832
163,-40.0,-111.0,4.0,0.0,161.0,-5470.0,-12000.0,-9722.0,-2.0,-2.0,4.0,7.0,7.0,1.0,-12.0,-4.0,0.4757654666900635
164,-40.0,-111.0,4.0,0.0,161.0,-5470.0,-12000.0,-9722.0,3.0,-4.0,-5.0,2.0,1.0,2.0,4.0,-1.0,0.4776647090911865
165,-40.0,-111.0,4.0,0.0,161.0,-5470.0,-12000.0,-9722.0,1.0,-4.0,11.0,21.0,-8.0,-11.0,-4.0,-2.0,0.47973132133483887
166,-81.0,-101.0,-7.0,0.0,144.0,-5482.0,-11993.0,-9725.0,1.0,-4.0,11.0,21.0,-8.0,-11.0,-4.0,-2.0,0.4897918701171875
167,-81.0,-101.0,-7.0,0.0,144.0,-5482.0,-11993.0,-9725.0,0.0,-3.0,-6.0,6.0,-6.0,-2.0,-1.0,4.0,0.4920766353607178
168,-81.0,-101.0,-7.0,0.0,144.0,-5482.0,-11993.0,-9725.0,0.0,-4.0,-4.0,4.0,1.0,-5.0,-5.0,-5.0,0.49663209915161133
169,94.0,-99.0,6.0,0.0,137.0,-5493.0,-12004.0,-9704.0,0.0,-4.0,-4.0,4.0,1.0,-5.0,-5.0,-5.0,0.5141100883483887
170,94.0,-99.0,6.0,0.0,137.0,-5493.0,-12004.0,-9704.0,-4.0,-3.0,-29.0,-16.0,-6.0,-1.0,-13.0,-2.0,0.5175127983093262
171,94.0,-99.0,6.0,0.0,137.0,-5493.0,-12004.0,-9704.0,-1.0,-2.0,-9.0,6.0,-13.0,-9.0,23.0,0.0,0.5194368362426758
172,210.0,-93.0,48.0,0.0,139.0,-5508.0,-12027.0,-9667.0,-1.0,-2.0,-9.0,6.0,-13.0,-9.0,23.0,0.0,0.5361530780792236
173,210.0,-93.0,48.0,0.0,139.0,-5508.0,-12027.0,-9667.0,-2.0,6.0,14.0,9.0,6.0,-10.0,-49.0,-5.0,0.5381321907043457
174,210.0,-93.0,48.0,0.0,139.0,-5508.0,-12027.0,-9667.0,5.0,3.0,-1.0,-7.0,-2.0,19.0,-20.0,11.0,0.5399153232574463
175,133.0,-93.0,72.0,0.0,138.0,-5524.0,-12040.0,-9642.0,5.0,3.0,-1.0,-7.0,-2.0,19.0,-20.0,11.0,0.550856351852417
176,133.0,-93.0,72.0,0.0,138.0,-5524.0,-12040.0,-9642.0,10.0,1.0,6.0,16.0,7.0,1.0,25.0,7.0,0.5528554916381836
177,133.0,-93.0,72.0,0.0,138.0,-5524.0,-12040.0,-9642.0,2.0,-3.0,5.0,3.0,24.0,-12.0,-14.0,-3.0,0.556793212890625
178,-28.0,-64.0,83.0,0.0,137.0,-5543.0,-12033.0,-9640.0,2.0,-3.0,5.0,3.0,24.0,-12.0,-14.0,-3.0,0.5737824440002441
179,-28.0,-64.0,83.0,0.0,137.0,-5543.0,-12033.0,-9640.0,-3.0,-5.0,-1.0,10.0,14.0,15.0,3.0,-2.0,0.5781798362731934
180,-28.0,-64.0,83.0,0.0,137.0,-5543.0,-12033.0,-9640.0,-4.0,0.0,1.0,10.0,1.0,-2.0,5.0,0.0,0.5814552307128906
181,-133.0,-51.0,91.0,0.0,134.0,-5562.0,-12013.0,-9653.0,-4.0,0.0,1.0,10.0,1.0,-2.0,5.0,0.0,0.5971741676330566
182,-133.0,-51.0,91.0,0.0,134.0,-5562.0,-12013.0,-9653.0,-7.0,-2.0,4.0,-11.0,1.0,-3.0,4.0,-4.0,0.6014173030853271
183,-133.0,-51.0,91.0,0.0,134.0,-5562.0,-12013.0,-9653.0,-3.0,-5.0,-10.0,-7.0,-2.0,4.0,9.0,0.0,0.6067776679992676
184,-92.0,-6.0,100.0,0.0,141.0,-5577.0,-11997.0,-9664.0,-3.0,-5.0,-10.0,-7.0,-2.0,4.0,9.0,0.0,0.6105356216430664
185,-92.0,-6.0,100.0,0.0,141.0,-5577.0,-11997.0,-9664.0,6.0,12.0,4.0,-6.0,-3.0,2.0,27.0,1.0,0.6125447750091553
186,-92.0,-6.0,100.0,0.0,141.0,-5577.0,-11997.0,-9664.0,-4.0,-1.0,4.0,-1.0,-7.0,-12.0,-14.0,-5.0,0.6174380779266357
187,22.0,32.0,129.0,0.0,162.0,-5592.0,-11991.0,-9663.0,-4.0,-1.0,4.0,-1.0,-7.0,-12.0,-14.0,-5.0,0.6347284317016602
188,22.0,32.0,129.0,0.0,162.0,-5592.0,-11991.0,-9663.0,3.0,0.0,0.0,3.0,16.0,11.0,1.0,1.0,0.6404709815979004
189,22.0,32.0,129.0,0.0,162.0,-5592.0,-11991.0,-9663.0,10.0,16.0,1.0,3.0,5.0,-5.0,0.0,-2.0,0.6427867412567139
190,62.0,99.0,132.0,0.0,199.0,-5602.0,-11987.0,-9662.0,10.0,16.0,1.0,3.0,5.0,-5.0,0.0,-2.0,0.6560072898864746
191,62.0,99.0,132.0,0.0,199.0,-5602.0,-11987.0,-9662.0,-16.0,-1.0,-3.0,-17.0,-18.0,-10.0,-19.0,-3.0,0.6579654216766357
192,62.0,99.0,132.0,0.0,199.0,-5602.0,-11987.0,-9662.0,-2.0,-3.0,9.0,-1.0,19.0,11.0,8.0,0.0,0.6597862243652344
193,164.0,165.0,98.0,0.0,244.0,-5600.0,-11998.0,-9649.0,-2.0,-3.0,9.0,-1.0,19.0,11.0,8.0,0.0,0.6706821918487549
194,164.0,165.0,98.0,0.0,244.0,-5600.0,-11998.0,-9649.0,-6.0,2.0,11.0,9.0,0.0,-21.0,-23.0,-1.0,0.6726870536804199
195,164.0,165.0,98.0,0.0,244.0,-5600.0,-11998.0,-9649.0,-3.0,-15.0,-4.0,-14.0,-51.0,5.0,-2.0,-1.0,0.6770346164703369
196,195.0,82.0,62.0,0.0,270.0,-5598.0,-12018.0,-9625.0,-3.0,-15.0,-4.0,-14.0,-51.0,5.0,-2.0,-1.0,0.6933224201202393
197,195.0,82.0,62.0,0.0,270.0,-5598.0,-12018.0,-9625.0,0.0,-5.0,-5.0,-5.0,-9.0,-1.0,-7.0,-1.0,0.695399284362793
198,195.0,82.0,62.0,0.0,270.0,-5598.0,-12018.0,-9625.0,1.0,6.0,-5.0,4.0,4.0,-6.0,-1.0,0.0,0.6972734928131104
199,73.0,49.0,46.0,0.0,281.0,-5597.0,-12026.0,-9614.0,1.0,6.0,-5.0,4.0,4.0,-6.0,-1.0,0.0,0.7166759967803955
200,73.0,49.0,46.0,0.0,281.0,-5597.0,-12026.0,-9614.0,4.0,-5.0,-1.0,8.0,4.0,-17.0,-2.0,-4.0,0.720139741897583
201,73.0,49.0,46.0,0.0,281.0,-5597.0,-12026.0,-9614.0,6.0,3.0,8.0,4.0,27.0,19.0,18.0,0.0,0.7233681678771973
202,-25.0,53.0,42.0,0.0,287.0,-5594.0,-12024.0,-9618.0,6.0,3.0,8.0,4.0,27.0,19.0,18.0,0.0,0.7314372062683105
203,-25.0,53.0,42.0,0.0,287.0,-5594.0,-12024.0,-9618.0,11.0,-1.0,-6.0,-4.0,-12.0,9.0,14.0,3.0,0.7349317073822021
204,-25.0,53.0,42.0,0.0,287.0,-5594.0,-12024.0,-9618.0,7.0,13.0,0.0,19.0,2.0,-7.0,-12.0,6.0,0.7368578910827637
205,28.0,58.0,49.0,0.0,298.0,-5593.0,-12026.0,-9616.0,7.0,13.0,0.0,19.0,2.0,-7.0,-12.0,6.0,0.7532203197479248
206,28.0,58.0,49.0,0.0,298.0,-5593.0,-12026.0,-9616.0,-8.0,8.0,8.0,4.0,10.0,-15.0,17.0,2.0,0.7551214694976807
207,28.0,58.0,49.0,0.0,298.0,-5593.0,-12026.0,-9616.0,-9.0,-3.0,-1.0,-8.0,-5.0,-4.0,-7.0,-3.0,0.7569432258605957
208,121.0,17.0,31.0,0.0,303.0,-5591.0,-12040.0,-9599.0,-9.0,-3.0,-1.0,-8.0,-5.0,-4.0,-7.0,-3.0,0.7758228778839111
209,121.0,17.0,31.0,0.0,303.0,-5591.0,-12040.0,-9599.0,2.0,-9.0,-6.0,-11.0,-13.0,4.0,-3.0,-5.0,0.7777416706085205
210,121.0,17.0,31.0,0.0,303.0,-5591.0,-12040.0,-9599.0,-1.0,-2.0,-4.0,2.0,6.0,-3.0,-13.0,-4.0,0.7798516750335693
211,54.0,-4.0,13.0,0.0,300.0,-5589.0,-12049.0,-9590.0,-1.0,-2.0,-4.0,2.0,6.0,-3.0,-13.0,-4.0,0.7904527187347412
212,54.0,-4.0,13.0,0.0,300.0,-5589.0,-12049.0,-9590.0,-2.0,-7.0,-7.0,2.0,13.0,11.0,5.0,1.0,0.7937109470367432
213,54.0,-4.0,13.0,0.0,300.0,-5589.0,-12049.0,-9590.0,-4.0,-2.0,-12.0,-16.0,-56.0,-14.0,10.0,2.0,0.7977521419525146
214,-26.0,9.0,5.0,0.0,293.0,-5583.0,-12047.0,-9595.0,-4.0,-2.0,-12.0,-16.0,-56.0,-14.0,10.0,2.0,0.8145315647125244
215,-26.0,9.0,5.0,0.0,293.0,-5583.0,-12047.0,-9595.0,2.0,3.0,-1.0,-3.0,-26.0,-19.0,-3.0,-2.0,0.8184466361999512
216,-26.0,9.0,5.0,0.0,293.0,-5583.0,-12047.0,-9595.0,0.0,1.0,-3.0,-7.0,-17.0,-7.0,18.0,-2.0,0.8221290111541748
217,-50.0,26.0,-10.0,0.0,287.0,-5576.0,-12044.0,-9604.0,0.0,1.0,-3.0,-7.0,-17.0,-7.0,18.0,-2.0,0.8374142646789551
218,-50.0,26.0,-10.0,0.0,287.0,-5576.0,-12044.0,-9604.0,15.0,11.0,13.0,-13.0,43.0,26.0,3.0,5.0,0.8412821292877197
219,-50.0,26.0,-10.0,0.0,287.0,-5576.0,-12044.0,-9604.0,-2.0,1.0,7.0,5.0,17.0,2.0,-5.0,-2.0,0.8448770046234131
220,-8.0,0.0,-21.0,0.0,279.0,-5570.0,-12046.0,-9605.0,-2.0,1.0,7.0,5.0,17.0,2.0,-5.0,-2.0,0.8503246307373047
221,-8.0,0.0,-21.0,0.0,279.0,-5570.0,-12046.0,-9605.0,-14.0,-12.0,-9.0,-13.0,-27.0,-4.0,2.0,-5.0,0.852179765701294
222,-8.0,0.0,-21.0,0.0,279.0,-5570.0,-12046.0,-9605.0,1.0,-2.0,5.0,5.0,16.0,-11.0,-7.0,-2.0,0.8572492599487305
223,43.0,-28.0,-27.0,0.0,269.0,-5565.0,-12054.0,-9598.0,1.0,-2.0,5.0,5.0,16.0,-11.0,-7.0,-2.0,0.8731791973114014
224,43.0,-28.0,-27.0,0.0,269.0,-5565.0,-12054.0,-9598.0,1.0,1.0,18.0,2.0,7.0,34.0,-6.0,-2.0,0.8750700950622559
225,43.0,-28.0,-27.0,0.0,269.0,-5565.0,-12054.0,-9598.0,-8.0,-1.0,12.0,-3.0,-66.0,-9.0,-4.0,-4.0,0.8768730163574219
226,42.0,-69.0,-23.0,0.0,255.0,-5566.0,-12063.0,-9586.0,-8.0,-1.0,12.0,-3.0,-66.0,-9.0,-4.0,-4.0,0.8957059383392334
227,42.0,-69.0,-23.0,0.0,255.0,-5566.0,-12063.0,-9586.0,-7.0,-9.0,-33.0,-12.0,13.0,-12.0,-12.0,-3.0,0.8987412452697754
228,42.0,-69.0,-23.0,0.0,255.0,-5566.0,-12063.0,-9586.0,3.0,10.0,9.0,12.0,43.0,19.0,-5.0,3.0,0.9029037952423096
229,-67.0,-60.0,-59.0,0.0,236.0,-5563.0,-12059.0,-9593.0,3.0,10.0,9.0,12.0,43.0,19.0,-5.0,3.0,0.9099838733673096
230,-67.0,-60.0,-59.0,0.0,236.0,-5563.0,-12059.0,-9593.0,0.0,4.0,-18.0,3.0,-13.0,-3.0,0.0,1.0,0.9183328151702881
231,-67.0,-60.0,-59.0,0.0,236.0,-5563.0,-12059.0,-9593.0,-2.0,9.0,4.0,2.0,17.0,-16.0,-23.0,-7.0,0.9202766418457031
232,-107.0,-21.0,-92.0,0.0,218.0,-5553.0,-12050.0,-9611.0,-2.0,9.0,4.0,2.0,17.0,-16.0,-23.0,-7.0,0.9349956512451172
233,-107.0,-21.0,-92.0,0.0,218.0,-5553.0,-12050.0,-9611.0,-1.0,-4.0,25.0,9.0,-66.0,-39.0,2.0,-4.0,0.9386284351348877
234,-107.0,-21.0,-92.0,0.0,218.0,-5553.0,-12050.0,-9611.0,-1.0,-21.0,-14.0,-13.0,-24.0,-3.0,-35.0,-6.0,0.9420485496520996
235,-18.0,-19.0,-98.0,0.0,203.0,-5541.0,-12053.0,-9615.0,-1.0,-21.0,-14.0,-13.0,-24.0,-3.0,-35.0,-6.0,0.9556727409362793
236,-18.0,-19.0,-98.0,0.0,203.0,-5541.0,-12053.0,-9615.0,-5.0,-22.0,-6.0,-8.0,51.0,4.0,8.0,-1.0,0.9576151371002197
237,-18.0,-19.0,-98.0,0.0,203.0,-5541.0,-12053.0,-9615.0,9.0,28.0,36.0,-13.0,2.0,1.0,29.0,8.0,0.9594223499298096
238,74.0,-60.0,-115.0,0.0,186.0,-5529.0,-12065.0,-9606.0,9.0,28.0,36.0,-13.0,2.0,1.0,29.0,8.0,0.9697384834289551
239,74.0,-60.0,-115.0,0.0,186.0,-5529.0,-12065.0,-9606.0,0.0,-21.0,-43.0,8.0,-19.0,-3.0,-8.0,7.0,0.980008602142334
240,74.0,-60.0,-115.0,0.0,186.0,-5529.0,-12065.0,-9606.0,-20.0,-60.0,-121.0,-95.0,51.0,14.0,26.0,1.0,0.9843792915344238
241,21.0,-63.0,-140.0,0.0,163.0,-5512.0,-12068.0,-9614.0,-20.0,-60.0,-121.0,-95.0,51.0,14.0,26.0,1.0,0.994025707244873
242,21.0,-63.0,-140.0,0.0,163.0,-5512.0,-12068.0,-9614.0,8.0,20.0,91.0,39.0,17.0,-4.0,-18.0,-3.0,0.9962179660797119
243,21.0,-63.0,-140.0,0.0,163.0,-5512.0,-12068.0,-9614.0,-8.0,-21.0,-27.0,32.0,96.0,96.0,97.0,15.0,0.9980621337890625
244,-2.0,-114.0,-162.0,0.0,125.0,-5501.0,-12084.0,-9600.0,-8.0,-21.0,-27.0,32.0,96.0,96.0,97.0,15.0,1.0159506797790527
245,-2.0,-114.0,-162.0,0.0,125.0,-5501.0,-12084.0,-9600.0,-5.0,14.0,-23.0,-15.0,47.0,-8.0,-20.0,-12.0,1.0182793140411377
246,-2.0,-114.0,-162.0,0.0,125.0,-5501.0,-12084.0,-9600.0,-3.0,55.0,80.0,20.0,10.0,35.0,78.0,6.0,1.0200974941253662
247,-245.0,42.0,-248.0,0.0,96.0,-5464.0,-12063.0,-9648.0,-3.0,55.0,80.0,20.0,10.0,35.0,78.0,6.0,1.0298535823822021
248,-245.0,42.0,-248.0,0.0,96.0,-5464.0,-12063.0,-9648.0,-17.0,-25.0,59.0,6.0,-35.0,-16.0,-33.0,-9.0,1.0388524532318115
249,-245.0,42.0,-248.0,0.0,96.0,-5464.0,-12063.0,-9648.0,2.0,-7.0,-48.0,-6.0,-48.0,-54.0,-48.0,4.0,1.0437071323394775
250,-18.0,304.0,-520.0,0.0,97.0,-5369.0,-12074.0,-9688.0,2.0,-7.0,-48.0,-6.0,-48.0,-54.0,-48.0,4.0,1.053234338760376
251,-18.0,304.0,-520.0,0.0,97.0,-5369.0,-12074.0,-9688.0,6.0,48.0,32.0,-29.0,-11.0,23.0,31.0,8.0,1.0551295280456543
252,-18.0,304.0,-520.0,0.0,97.0,-5369.0,-12074.0,-9688.0,-16.0,-47.0,-103.0,14.0,2.0,1.0,-30.0,-15.0,1.0569510459899902
253,125.0,302.0,-829.0,0.0,60.0,-5224.0,-12121.0,-9708.0,-16.0,-47.0,-103.0,14.0,2.0,1.0,-30.0,-15.0,1.0757935047149658
254,125.0,302.0,-829.0,0.0,60.0,-5224.0,-12121.0,-9708.0,13.0,24.0,-25.0,-28.0,-38.0,2.0,3.0,13.0,1.0790657997131348
255,125.0,302.0,-829.0,0.0,60.0,-5224.0,-12121.0,-9708.0,18.0,43.0,51.0,-6.0,11.0,-33.0,-36.0,-3.0,1.0826170444488525
256,2.0,135.0,-1184.0,0.0,-83.0,-5020.0,-12177.0,-9746.0,18.0,43.0,51.0,-6.0,11.0,-33.0,-36.0,-3.0,1.0895709991455078
257,2.0,135.0,-1184.0,0.0,-83.0,-5020.0,-12177.0,-9746.0,-8.0,-30.0,-51.0,-37.0,-10.0,-20.0,5.0,-4.0,1.09910249710083
258,2.0,135.0,-1184.0,0.0,-83.0,-5020.0,-12177.0,-9746.0,-8.0,-26.0,-29.0,12.0,-14.0,-2.0,-7.0,-10.0,1.1029295921325684
259,-201.0,104.0,-1414.0,0.0,-291.0,-4760.0,-12198.0,-9845.0,-8.0,-26.0,-29.0,12.0,-14.0,-2.0,-7.0,-10.0,1.1134014129638672
260,-201.0,104.0,-1414.0,0.0,-291.0,-4760.0,-12198.0,-9845.0,6.0,-11.0,-3.0,-4.0,15.0,13.0,12.0,2.0,1.1171107292175293
261,-201.0,104.0,-1414.0,0.0,-291.0,-4760.0,-12198.0,-9845.0,21.0,-28.0,82.0,1.0,-4.0,-20.0,-27.0,-3.0,1.1191868782043457
262,-587.0,31.0,-1578.0,0.0,-564.0,-4467.0,-12167.0,-10007.0,21.0,-28.0,82.0,1.0,-4.0,-20.0,-27.0,-3.0,1.1375930309295654
263,-587.0,31.0,-1578.0,0.0,-564.0,-4467.0,-12167.0,-10007.0,-22.0,-29.0,-76.0,18.0,0.0,3.0,-10.0,-9.0,1.1411969661712646
264,-587.0,31.0,-1578.0,0.0,-564.0,-4467.0,-12167.0,-10007.0,15.0,16.0,28.0,46.0,-4.0,-1.0,-10.0,6.0,1.1446056365966797
265,-1186.0,-75.0,-1723.0,0.0,-838.0,-4219.0,-12102.0,-10173.0,15.0,16.0,28.0,46.0,-4.0,-1.0,-10.0,6.0,1.1506662368774414
266,-1186.0,-75.0,-1723.0,0.0,-838.0,-4219.0,-12102.0,-10173.0,34.0,66.0,117.0,9.0,-3.0,10.0,15.0,11.0,1.1580421924591064
267,-1186.0,-75.0,-1723.0,0.0,-838.0,-4219.0,-12102.0,-10173.0,-5.0,15.0,26.0,39.0,-14.0,-9.0,-36.0,-5.0,1.159865140914917
268,-1575.0,-173.0,-2107.0,0.0,-1186.0,-3923.0,-11999.0,-10377.0,-5.0,15.0,26.0,39.0,-14.0,-9.0,-36.0,-5.0,1.1727261543273926
269,-1575.0,-173.0,-2107.0,0.0,-1186.0,-3923.0,-11999.0,-10377.0,-15.0,-9.0,-32.0,33.0,28.0,18.0,19.0,3.0,1.1767852306365967
270,-1575.0,-173.0,-2107.0,0.0,-1186.0,-3923.0,-11999.0,-10377.0,-12.0,0.0,8.0,-30.0,-19.0,-10.0,2.0,-4.0,1.1801578998565674
271,-2049.0,-199.0,-2403.0,0.0,-1592.0,-3582.0,-11842.0,-10624.0,-12.0,0.0,8.0,-30.0,-19.0,-10.0,2.0,-4.0,1.197808027267456
272,-2049.0,-199.0,-2403.0,0.0,-1592.0,-3582.0,-11842.0,-10624.0,-4.0,-25.0,-10.0,6.0,-11.0,-13.0,-4.0,-6.0,1.2019224166870117
273,-2049.0,-199.0,-2403.0,0.0,-1592.0,-3582.0,-11842.0,-10624.0,5.0,26.0,39.0,-5.0,1.0,-3.0,-35.0,-2.0,1.2051589488983154
274,-2793.0,-203.0,-2640.0,0.0,-2051.0,-3193.0,-11591.0,-10941.0,5.0,26.0,39.0,-5.0,1.0,-3.0,-35.0,-2.0,1.210052490234375
275,-2793.0,-203.0,-2640.0,0.0,-2051.0,-3193.0,-11591.0,-10941.0,-3.0,-9.0,-14.0,2.0,10.0,16.0,14.0,7.0,1.217813491821289
276,-2793.0,-203.0,-2640.0,0.0,-2051.0,-3193.0,-11591.0,-10941.0,-14.0,-16.0,-26.0,-17.0,-6.0,-17.0,81.0,2.0,1.2196152210235596
277,-3613.0,-180.0,-2792.0,0.0,-2529.0,-2778.0,-11239.0,-11315.0,-14.0,-16.0,-26.0,-17.0,-6.0,-17.0,81.0,2.0,1.2334439754486084
278,-3613.0,-180.0,-2792.0,0.0,-2529.0,-2778.0,-11239.0,-11315.0,2.0,7.0,-2.0,29.0,16.0,-1.0,8.0,-2.0,1.2372894287109375
279,-3613.0,-180.0,-2792.0,0.0,-2529.0,-2778.0,-11239.0,-11315.0,0.0,3.0,7.0,52.0,15.0,-14.0,-59.0,-8.0,1.240718126296997
280,-4326.0,-12.0,-2831.0,0.0,-3015.0,-2300.0,-10772.0,-11749.0,0.0,3.0,7.0,52.0,15.0,-14.0,-59.0,-8.0,1.2574234008789062
281,-4326.0,-12.0,-2831.0,0.0,-3015.0,-2300.0,-10772.0,-11749.0,-10.0,-10.0,-51.0,-28.0,-29.0,-12.0,-10.0,-14.0,1.261131763458252
282,-4326.0,-12.0,-2831.0,0.0,-3015.0,-2300.0,-10772.0,-11749.0,5.0,0.0,15.0,-25.0,-54.0,11.0,27.0,7.0,1.2643442153930664
283,-4875.0,384.0,-2837.0,0.0,-3449.0,-1752.0,-10223.0,-12206.0,5.0,0.0,15.0,-25.0,-54.0,11.0,27.0,7.0,1.2702012062072754
284,-4875.0,384.0,-2837.0,0.0,-3449.0,-1752.0,-10223.0,-12206.0,0.0,-5.0,-23.0,8.0,25.0,3.0,-25.0,-1.0,1.2790865898132324
285,-4875.0,384.0,-2837.0,0.0,-3449.0,-1752.0,-10223.0,-12206.0,12.0,43.0,31.0,-32.0,-11.0,16.0,4.0,7.0,1.281909704208374
286,-4962.0,698.0,-2914.0,0.0,-3836.0,-1156.0,-9649.0,-12622.0,12.0,43.0,31.0,-32.0,-11.0,16.0,4.0,7.0,1.2931370735168457
287,-4962.0,698.0,-2914.0,0.0,-3836.0,-1156.0,-9649.0,-12622.0,5.0,-2.0,4.0,-27.0,-45.0,4.0,19.0,2.0,1.29673171043396
288,-4962.0,698.0,-2914.0,0.0,-3836.0,-1156.0,-9649.0,-12622.0,-8.0,-30.0,-43.0,-12.0,-37.0,1.0,5.0,0.0,1.3009617328643799
289,-4873.0,1026.0,-2994.0,0.0,-4176.0,-511.0,-9076.0,-12976.0,-8.0,-30.0,-43.0,-12.0,-37.0,1.0,5.0,0.0,1.317012071609497
290,-4873.0,1026.0,-2994.0,0.0,-4176.0,-511.0,-9076.0,-12976.0,-2.0,3.0,-22.0,-9.0,40.0,8.0,-23.0,-5.0,1.3209693431854248
291,-4873.0,1026.0,-2994.0,0.0,-4176.0,-511.0,-9076.0,-12976.0,0.0,-10.0,-22.0,-6.0,44.0,-2.0,-35.0,-8.0,1.3240017890930176
292,-4679.0,1277.0,-3001.0,0.0,-4473.0,160.0,-8511.0,-13266.0,0.0,-10.0,-22.0,-6.0,44.0,-2.0,-35.0,-8.0,1.3383028507232666
293,-4679.0,1277.0,-3001.0,0.0,-4473.0,160.0,-8511.0,-13266.0,1.0,-3.0,2.0,3.0,-63.0,16.0,37.0,7.0,1.3402175903320312
294,-4679.0,1277.0,-3001.0,0.0,-4473.0,160.0,-8511.0,-13266.0,-7.0,-19.0,5.0,-2.0,14.0,-4.0,-17.0,-9.0,1.3420312404632568
295,-4364.0,1645.0,-2929.0,0.0,-4705.0,856.0,-7984.0,-13485.0,-7.0,-19.0,5.0,-2.0,14.0,-4.0,-17.0,-9.0,1.3538122177124023
296,-4364.0,1645.0,-2929.0,0.0,-4705.0,856.0,-7984.0,-13485.0,-6.0,-24.0,-12.0,-26.0,65.0,-19.0,-66.0,-7.0,1.3558769226074219
297,-4364.0,1645.0,-2929.0,0.0,-4705.0,856.0,-7984.0,-13485.0,1.0,4.0,-12.0,2.0,-31.0,-30.0,62.0,3.0,1.3592374324798584
298,-4322.0,1952.0,-2869.0,0.0,-4882.0,1584.0,-7456.0,-13657.0,1.0,4.0,-12.0,2.0,-31.0,-30.0,62.0,3.0,1.375619649887085
299,-4322.0,1952.0,-2869.0,0.0,-4882.0,1584.0,-7456.0,-13657.0,-8.0,-13.0,-11.0,-10.0,-47.0,-25.0,2.0,-6.0,1.377518653869629
300,-4322.0,1952.0,-2869.0,0.0,-4882.0,1584.0,-7456.0,-13657.0,-3.0,-7.0,-28.0,6.0,11.0,-14.0,-26.0,-2.0,1.3811564445495605
301,-4371.0,2152.0,-2918.0,0.0,-5035.0,2348.0,-6897.0,-13785.0,-3.0,-7.0,-28.0,6.0,11.0,-14.0,-26.0,-2.0,1.3996198177337646
302,-4371.0,2152.0,-2918.0,0.0,-5035.0,2348.0,-6897.0,-13785.0,0.0,-4.0,-14.0,-14.0,2.0,-13.0,2.0,-5.0,1.4034945964813232
303,-4371.0,2152.0,-2918.0,0.0,-5035.0,2348.0,-6897.0,-13785.0,-3.0,21.0,25.0,-33.0,-69.0,-13.0,82.0,8.0,1.4071764945983887
304,-3722.0,2198.0,-2908.0,0.0,-5188.0,3080.0,-6401.0,-13823.0,-3.0,21.0,25.0,-33.0,-69.0,-13.0,82.0,8.0,1.4137234687805176
305,-3722.0,2198.0,-2908.0,0.0,-5188.0,3080.0,-6401.0,-13823.0,-1.0,3.0,2.0,3.0,1.0,-2.0,2.0,-2.0,1.4201302528381348
306,-3722.0,2198.0,-2908.0,0.0,-5188.0,3080.0,-6401.0,-13823.0,-1.0,-12.0,-16.0,13.0,107.0,54.0,-50.0,1.0,1.4219603538513184
307,-2915.0,2284.0,-2892.0,0.0,-5347.0,3771.0,-6007.0,-13768.0,-1.0,-12.0,-16.0,13.0,107.0,54.0,-50.0,1.0,1.4346487522125244
308,-2915.0,2284.0,-2892.0,0.0,-5347.0,3771.0,-6007.0,-13768.0,3.0,7.0,9.0,-29.0,-75.0,-6.0,-37.0,3.0,1.4431278705596924
309,-2915.0,2284.0,-2892.0,0.0,-5347.0,3771.0,-6007.0,-13768.0,5.0,0.0,-9.0,-3.0,-100.0,-1.0,92.0,15.0,1.445420742034912
310,-2138.0,2261.0,-3038.0,0.0,-5550.0,4420.0,-5704.0,-13623.0,5.0,0.0,-9.0,-3.0,-100.0,-1.0,92.0,15.0,1.4581618309020996
311,-2138.0,2261.0,-3038.0,0.0,-5550.0,4420.0,-5704.0,-13623.0,-2.0,-10.0,-53.0,-12.0,7.0,36.0,20.0,-3.0,1.4600470066070557
312,-2138.0,2261.0,-3038.0,0.0,-5550.0,4420.0,-5704.0,-13623.0,-1.0,-4.0,-16.0,37.0,51.0,9.0,-55.0,-8.0,1.462562084197998
313,-1600.0,1999.0,-3118.0,0.0,-5800.0,5004.0,-5446.0,-13421.0,-1.0,-4.0,-16.0,37.0,51.0,9.0,-55.0,-8.0,1.4722437858581543
314,-1600.0,1999.0,-3118.0,0.0,-5800.0,5004.0,-5446.0,-13421.0,-11.0,-14.0,-38.0,3.0,-34.0,-67.0,5.0,-7.0,1.4802756309509277
315,-1600.0,1999.0,-3118.0,0.0,-5800.0,5004.0,-5446.0,-13421.0,10.0,19.0,14.0,-21.0,7.0,-35.0,45.0,18.0,1.4827988147735596
316,-1409.0,1707.0,-3032.0,0.0,-6061.0,5524.0,-5180.0,-13205.0,10.0,19.0,14.0,-21.0,7.0,-35.0,45.0,18.0,1.4960246086120605
317,-1409.0,1707.0,-3032.0,0.0,-6061.0,5524.0,-5180.0,-13205.0,11.0,20.0,42.0,34.0,84.0,64.0,-74.0,3.0,1.4979796409606934
318,-1409.0,1707.0,-3032.0,0.0,-6061.0,5524.0,-5180.0,-13205.0,-21.0,-26.0,4.0,-63.0,-56.0,-22.0,-61.0,-25.0,1.4997940063476562
319,-1363.0,1450.0,-2622.0,0.0,-6276.0,5976.0,-4909.0,-13010.0,-21.0,-26.0,4.0,-63.0,-56.0,-22.0,-61.0,-25.0,1.5183632373809814
320,-1363.0,1450.0,-2622.0,0.0,-6276.0,5976.0,-4909.0,-13010.0,-9.0,-3.0,-25.0,-16.0,-78.0,-47.0,-34.0,-11.0,1.5202970504760742
321,-1363.0,1450.0,-2622.0,0.0,-6276.0,5976.0,-4909.0,-13010.0,6.0,-4.0,-13.0,22.0,27.0,47.0,58.0,19.0,1.5221185684204102
322,-1004.0,1161.0,-2186.0,0.0,-6465.0,6338.0,-4688.0,-12826.0,6.0,-4.0,-13.0,22.0,27.0,47.0,58.0,19.0,1.532155990600586
323,-1004.0,1161.0,-2186.0,0.0,-6465.0,6338.0,-4688.0,-12826.0,-4.0,-5.0,43.0,17.0,116.0,-1.0,22.0,12.0,1.540226697921753
324,-1004.0,1161.0,-2186.0,0.0,-6465.0,6338.0,-4688.0,-12826.0,-4.0,-5.0,43.0,17.0,116.0,-1.0,22.0,12.0,1.5420560836791992
325,-1004.0,1161.0,-2186.0,0.0,-6465.0,6338.0,-4688.0,-12826.0,-1.0,-15.0,-46.0,16.0,99.0,75.0,30.0,15.0,1.555971622467041
326,-691.0,869.0,-1571.0,0.0,-6639.0,6659.0,-4465.0,-12653.0,-1.0,-15.0,-46.0,16.0,99.0,75.0,30.0,15.0,1.5578341484069824
327,-691.0,869.0,-1571.0,0.0,-6639.0,6659.0,-4465.0,-12653.0,-13.0,-7.0,-4.0,-46.0,-34.0,-33.0,-12.0,-11.0,1.5597052574157715
328,-691.0,869.0,-1571.0,0.0,-6639.0,6659.0,-4465.0,-12653.0,-4.0,-5.0,4.0,20.0,-57.0,15.0,-78.0,-20.0,1.561781406402588
329,-129.0,557.0,-754.0,0.0,-6770.0,6851.0,-4325.0,-12529.0,-4.0,-5.0,4.0,20.0,-57.0,15.0,-78.0,-20.0,1.5783405303955078
330,-129.0,557.0,-754.0,0.0,-6770.0,6851.0,-4325.0,-12529.0,1.0,3.0,17.0,10.0,-5.0,25.0,68.0,12.0,1.5802273750305176
331,-129.0,557.0,-754.0,0.0,-6770.0,6851.0,-4325.0,-12529.0,-22.0,-14.0,-16.0,-4.0,84.0,56.0,-7.0,-17.0,1.5841352939605713
332,341.0,299.0,-119.0,0.0,-6864.0,6935.0,-4273.0,-12449.0,-22.0,-14.0,-16.0,-4.0,84.0,56.0,-7.0,-17.0,1.5926966667175293
333,341.0,299.0,-119.0,0.0,-6864.0,6935.0,-4273.0,-12449.0,13.0,13.0,23.0,10.0,-54.0,-54.0,18.0,0.0,1.6015698909759521
334,341.0,299.0,-119.0,0.0,-6864.0,6935.0,-4273.0,-12449.0,8.0,6.0,15.0,-15.0,15.0,58.0,11.0,6.0,1.6034083366394043
335,419.0,25.0,323.0,0.0,-6907.0,6955.0,-4261.0,-12418.0,8.0,6.0,15.0,-15.0,15.0,58.0,11.0,6.0,1.6158711910247803
336,419.0,25.0,323.0,0.0,-6907.0,6955.0,-4261.0,-12418.0,24.0,22.0,28.0,11.0,-2.0,101.0,116.0,59.0,1.619107961654663
337,419.0,25.0,323.0,0.0,-6907.0,6955.0,-4261.0,-12418.0,-1.0,9.0,12.0,17.0,-103.0,-109.0,-127.0,-17.0,1.6225018501281738
338,260.0,-133.0,783.0,0.0,-6880.0,6933.0,-4255.0,-12448.0,-1.0,9.0,12.0,17.0,-103.0,-109.0,-127.0,-17.0,1.6383657455444336
339,260.0,-133.0,783.0,0.0,-6880.0,6933.0,-4255.0,-12448.0,8.0,3.0,4.0,72.0,127.0,43.0,85.0,11.0,1.6402266025543213
340,260.0,-133.0,783.0,0.0,-6880.0,6933.0,-4255.0,-12448.0,14.0,15.0,14.0,74.0,127.0,64.0,93.0,24.0,1.642014503479004
341,318.0,-216.0,1203.0,0.0,-6797.0,6873.0,-4293.0,-12513.0,14.0,15.0,14.0,74.0,127.0,64.0,93.0,24.0,1.6519184112548828
342,318.0,-216.0,1203.0,0.0,-6797.0,6873.0,-4293.0,-12513.0,3.0,13.0,6.0,-14.0,-16.0,-24.0,-37.0,-8.0,1.6611907482147217
343,318.0,-216.0,1203.0,0.0,-6797.0,6873.0,-4293.0,-12513.0,9.0,11.0,24.0,2.0,17.0,1.0,86.0,22.0,1.6644566059112549
344,725.0,-309.0,1611.0,0.0,-6654.0,6710.0,-4474.0,-12615.0,9.0,11.0,24.0,2.0,17.0,1.0,86.0,22.0,1.675884485244751
345,725.0,-309.0,1611.0,0.0,-6654.0,6710.0,-4474.0,-12615.0,4.0,4.0,10.0,28.0,59.0,-7.0,-65.0,-18.0,1.6777701377868652
346,725.0,-309.0,1611.0,0.0,-6654.0,6710.0,-4474.0,-12615.0,-16.0,-13.0,-18.0,-50.0,-75.0,-120.0,-128.0,-44.0,1.679915428161621
347,1170.0,-382.0,2057.0,0.0,-6477.0,6476.0,-4750.0,-12728.0,-16.0,-13.0,-18.0,-50.0,-75.0,-120.0,-128.0,-44.0,1.6997597217559814
348,1170.0,-382.0,2057.0,0.0,-6477.0,6476.0,-4750.0,-12728.0,-9.0,-12.0,-10.0,-23.0,12.0,2.0,-57.0,-24.0,1.7032191753387451
349,1170.0,-382.0,2057.0,0.0,-6477.0,6476.0,-4750.0,-12728.0,-3.0,6.0,19.0,65.0,34.0,57.0,-86.0,-11.0,1.706240177154541
350,1432.0,-415.0,2461.0,0.0,-6256.0,6189.0,-5090.0,-12850.0,-3.0,6.0,19.0,65.0,34.0,57.0,-86.0,-11.0,1.7123069763183594
351,1432.0,-415.0,2461.0,0.0,-6256.0,6189.0,-5090.0,-12850.0,-3.0,4.0,9.0,16.0,50.0,42.0,-35.0,-6.0,1.7204468250274658
352,1432.0,-415.0,2461.0,0.0,-6256.0,6189.0,-5090.0,-12850.0,0.0,-4.0,2.0,-17.0,-90.0,-79.0,-101.0,-24.0,1.7242472171783447
353,1600.0,-488.0,2767.0,0.0,-5996.0,5852.0,-5469.0,-12975.0,0.0,-4.0,2.0,-17.0,-90.0,-79.0,-101.0,-24.0,1.7365660667419434
354,1600.0,-488.0,2767.0,0.0,-5996.0,5852.0,-5469.0,-12975.0,-9.0,-4.0,-3.0,-26.0,-72.0,-25.0,23.0,-15.0,1.7399120330810547
355,1600.0,-488.0,2767.0,0.0,-5996.0,5852.0,-5469.0,-12975.0,4.0,5.0,-6.0,-16.0,40.0,3.0,9.0,8.0,1.7431013584136963
356,1870.0,-581.0,3081.0,0.0,-5702.0,5453.0,-5900.0,-13092.0,4.0,5.0,-6.0,-16.0,40.0,3.0,9.0,8.0,1.7594895362854004
357,1870.0,-581.0,3081.0,0.0,-5702.0,5453.0,-5900.0,-13092.0,-10.0,-10.0,-10.0,-26.0,-47.0,-21.0,-36.0,-11.0,1.7630741596221924
358,1870.0,-581.0,3081.0,0.0,-5702.0,5453.0,-5900.0,-13092.0,-5.0,-14.0,-9.0,-29.0,-70.0,-41.0,14.0,-4.0,1.767284631729126
359,2226.0,-623.0,3536.0,0.0,-5352.0,4985.0,-6403.0,-13190.0,-5.0,-14.0,-9.0,-29.0,-70.0,-41.0,14.0,-4.0,1.7729978561401367
360,2226.0,-623.0,3536.0,0.0,-5352.0,4985.0,-6403.0,-13190.0,-7.0,-1.0,-15.0,30.0,54.0,-85.0,-92.0,-16.0,1.7808115482330322
361,2226.0,-623.0,3536.0,0.0,-5352.0,4985.0,-6403.0,-13190.0,-12.0,-10.0,-8.0,-13.0,38.0,-16.0,126.0,-2.0,1.7834911346435547
362,2517.0,-609.0,4115.0,0.0,-4915.0,4442.0,-6968.0,-13267.0,-12.0,-10.0,-8.0,-13.0,38.0,-16.0,126.0,-2.0,1.796093225479126
363,2517.0,-609.0,4115.0,0.0,-4915.0,4442.0,-6968.0,-13267.0,-22.0,-28.0,-24.0,-92.0,-22.0,68.0,-96.0,-36.0,1.798147439956665
364,2517.0,-609.0,4115.0,0.0,-4915.0,4442.0,-6968.0,-13267.0,-4.0,-1.0,-2.0,6.0,43.0,40.0,-114.0,-30.0,1.800837516784668
365,2465.0,-514.0,4628.0,0.0,-4377.0,3855.0,-7534.0,-13330.0,-4.0,-1.0,-2.0,6.0,43.0,40.0,-114.0,-30.0,1.8186893463134766
366,2465.0,-514.0,4628.0,0.0,-4377.0,3855.0,-7534.0,-13330.0,51.0,40.0,48.0,53.0,-1.0,125.0,102.0,89.0,1.8206138610839844
367,2465.0,-514.0,4628.0,0.0,-4377.0,3855.0,-7534.0,-13330.0,26.0,7.0,11.0,5.0,47.0,77.0,17.0,70.0,1.822417974472046
368,2145.0,-489.0,4957.0,0.0,-3762.0,3245.0,-8034.0,-13388.0,26.0,7.0,11.0,5.0,47.0,77.0,17.0,70.0,1.832052230834961
369,2145.0,-489.0,4957.0,0.0,-3762.0,3245.0,-8034.0,-13388.0,-1.0,-5.0,-23.0,-13.0,76.0,48.0,-86.0,-22.0,1.8417878150939941
370,2145.0,-489.0,4957.0,0.0,-3762.0,3245.0,-8034.0,-13388.0,48.0,34.0,42.0,21.0,29.0,58.0,71.0,62.0,1.845911979675293
371,1838.0,-509.0,5027.0,0.0,-3119.0,2633.0,-8456.0,-13427.0,48.0,34.0,42.0,21.0,29.0,58.0,71.0,62.0,1.8571012020111084
372,1838.0,-509.0,5027.0,0.0,-3119.0,2633.0,-8456.0,-13427.0,-34.0,-20.0,-9.0,0.0,-23.0,-77.0,-81.0,-26.0,1.8594019412994385
373,1838.0,-509.0,5027.0,0.0,-3119.0,2633.0,-8456.0,-13427.0,-25.0,-12.0,-20.0,-20.0,7.0,-1.0,-1.0,-43.0,1.8613994121551514
374,1855.0,-460.0,4599.0,0.0,-2528.0,2063.0,-8839.0,-13404.0,-25.0,-12.0,-20.0,-20.0,7.0,-1.0,-1.0,-43.0,1.8797657489776611
375,1855.0,-460.0,4599.0,0.0,-2528.0,2063.0,-8839.0,-13404.0,-6.0,-1.0,6.0,17.0,4.0,-45.0,43.0,-1.0,1.8841400146484375
376,1855.0,-460.0,4599.0,0.0,-2528.0,2063.0,-8839.0,-13404.0,-20.0,-8.0,-19.0,-12.0,-41.0,-51.0,-47.0,-41.0,1.887481927871704
377,1967.0,-232.0,3640.0,0.0,-2053.0,1612.0,-9195.0,-13308.0,-20.0,-8.0,-19.0,-12.0,-41.0,-51.0,-47.0,-41.0,1.8919079303741455
378,1967.0,-232.0,3640.0,0.0,-2053.0,1612.0,-9195.0,-13308.0,-30.0,-58.0,-66.0,-1.0,-18.0,-35.0,-20.0,-38.0,1.9001684188842773
379,1967.0,-232.0,3640.0,0.0,-2053.0,1612.0,-9195.0,-13308.0,4.0,-39.0,-16.0,50.0,-9.0,27.0,20.0,25.0,1.901975154876709
380,2561.0,59.0,2720.0,0.0,-1695.0,1289.0,-9608.0,-13100.0,4.0,-39.0,-16.0,50.0,-9.0,27.0,20.0,25.0,1.9168412685394287
381,2561.0,59.0,2720.0,0.0,-1695.0,1289.0,-9608.0,-13100.0,52.0,85.0,80.0,38.0,4.0,-1.0,30.0,30.0,1.9201512336730957
382,2561.0,59.0,2720.0,0.0,-1695.0,1289.0,-9608.0,-13100.0,-15.0,-42.0,-66.0,-13.0,10.0,-19.0,0.0,-15.0,1.9231653213500977
383,3986.0,-345.0,2337.0,0.0,-1464.0,935.0,-10188.0,-12714.0,-15.0,-42.0,-66.0,-13.0,10.0,-19.0,0.0,-15.0,1.9386425018310547
384,3986.0,-345.0,2337.0,0.0,-1464.0,935.0,-10188.0,-12714.0,-34.0,-70.0,48.0,-59.0,-4.0,-45.0,19.0,-17.0,1.9409558773040771
385,3986.0,-345.0,2337.0,0.0,-1464.0,935.0,-10188.0,-12714.0,26.0,41.0,47.0,44.0,-78.0,-42.0,-10.0,4.0,1.9427714347839355
386,3147.0,-124.0,793.0,0.0,-1396.0,777.0,-10632.0,-12364.0,26.0,41.0,47.0,44.0,-78.0,-42.0,-10.0,4.0,1.951913833618164
387,3147.0,-124.0,793.0,0.0,-1396.0,777.0,-10632.0,-12364.0,2.0,-14.0,-98.0,30.0,19.0,12.0,32.0,14.0,1.9602696895599365
388,3147.0,-124.0,793.0,0.0,-1396.0,777.0,-10632.0,-12364.0,12.0,15.0,5.0,-57.0,34.0,-34.0,-24.0,30.0,1.9623026847839355
389,1961.0,-150.0,16.0,0.0,-1409.0,705.0,-10898.0,-12133.0,12.0,15.0,5.0,-57.0,34.0,-34.0,-24.0,30.0,1.975653886795044
390,1961.0,-150.0,16.0,0.0,-1409.0,705.0,-10898.0,-12133.0,-8.0,-14.0,-12.0,25.0,13.0,8.0,21.0,11.0,1.9775397777557373
391,1961.0,-150.0,16.0,0.0,-1409.0,705.0,-10898.0,-12133.0,-12.0,0.0,-12.0,-23.0,1.0,-21.0,-3.0,-20.0,1.9793415069580078
392,1101.0,-338.0,-768.0,0.0,-1462.0,628.0,-11033.0,-12009.0,-12.0,0.0,-12.0,-23.0,1.0,-21.0,-3.0,-20.0,1.9997973442077637
393,1101.0,-338.0,-768.0,0.0,-1462.0,628.0,-11033.0,-12009.0,1.0,-4.0,7.0,-24.0,0.0,6.0,0.0,3.0,2.003675699234009
394,1101.0,-338.0,-768.0,0.0,-1462.0,628.0,-11033.0,-12009.0,-24.0,-8.0,50.0,-52.0,37.0,18.0,-9.0,-20.0,2.0068905353546143
395,1206.0,-226.0,-923.0,0.0,-1643.0,703.0,-11113.0,-11907.0,-24.0,-8.0,50.0,-52.0,37.0,18.0,-9.0,-20.0,2.011962652206421
396,1206.0,-226.0,-923.0,0.0,-1643.0,703.0,-11113.0,-11907.0,1.0,45.0,54.0,-41.0,-9.0,25.0,8.0,-31.0,2.020179510116577
397,1206.0,-226.0,-923.0,0.0,-1643.0,703.0,-11113.0,-11907.0,18.0,-7.0,-54.0,73.0,47.0,15.0,-16.0,-1.0,2.0220043659210205
398,1293.0,-52.0,251.0,0.0,-1703.0,718.0,-11247.0,-11771.0,18.0,-7.0,-54.0,73.0,47.0,15.0,-16.0,-1.0,2.035959482192993
399,1293.0,-52.0,251.0,0.0,-1703.0,718.0,-11247.0,-11771.0,-1.0,-10.0,-16.0,35.0,-45.0,-3.0,-26.0,-18.0,2.038984775543213
400,1293.0,-52.0,251.0,0.0,-1703.0,718.0,-11247.0,-11771.0,-37.0,-20.0,-27.0,-70.0,-40.0,-45.0,20.0,-42.0,2.0420286655426025
401,-6.0,-438.0,791.0,0.0,-1681.0,593.0,-11245.0,-11783.0,-37.0,-20.0,-27.0,-70.0,-40.0,-45.0,20.0,-42.0,2.059023141860962
402,-6.0,-438.0,791.0,0.0,-1681.0,593.0,-11245.0,-11783.0,-3.0,6.0,-19.0,11.0,15.0,-17.0,59.0,3.0,2.0633726119995117
403,-6.0,-438.0,791.0,0.0,-1681.0,593.0,-11245.0,-11783.0,20.0,-4.0,-24.0,5.0,1.0,-15.0,-8.0,-1.0,2.067288398742676
404,-599.0,-422.0,993.0,0.0,-1571.0,394.0,-11156.0,-11891.0,20.0,-4.0,-24.0,5.0,1.0,-15.0,-8.0,-1.0,2.072882890701294
405,-599.0,-422.0,993.0,0.0,-1571.0,394.0,-11156.0,-11891.0,48.0,34.0,33.0,1.0,63.0,8.0,88.0,38.0,2.0806868076324463
406,-599.0,-422.0,993.0,0.0,-1571.0,394.0,-11156.0,-11891.0,5.0,12.0,17.0,-30.0,-51.0,-36.0,56.0,73.0,2.082530975341797
407,-354.0,-138.0,1068.0,0.0,-1430.0,232.0,-11102.0,-11962.0,5.0,12.0,17.0,-30.0,-51.0,-36.0,56.0,73.0,2.09550404548645
408,-354.0,-138.0,1068.0,0.0,-1430.0,232.0,-11102.0,-11962.0,-33.0,-55.0,-103.0,0.0,29.0,59.0,-48.0,15.0,2.098343849182129
409,-354.0,-138.0,1068.0,0.0,-1430.0,232.0,-11102.0,-11962.0,8.0,2.0,14.0,0.0,1.0,7.0,14.0,1.0,2.103118896484375
410,39.0,-38.0,863.0,0.0,-1322.0,121.0,-11108.0,-11971.0,8.0,2.0,14.0,0.0,1.0,7.0,14.0,1.0,2.119272232055664
411,39.0,-38.0,863.0,0.0,-1322.0,121.0,-11108.0,-11971.0,12.0,-3.0,1.0,37.0,16.0,21.0,102.0,34.0,2.1232869625091553
412,39.0,-38.0,863.0,0.0,-1322.0,121.0,-11108.0,-11971.0,-22.0,-24.0,-18.0,-20.0,-80.0,-18.0,16.0,-12.0,2.1273434162139893
413,209.0,47.0,824.0,0.0,-1208.0,25.0,-11144.0,-11951.0,-22.0,-24.0,-18.0,-20.0,-80.0,-18.0,16.0,-12.0,2.1340789794921875
414,209.0,47.0,824.0,0.0,-1208.0,25.0,-11144.0,-11951.0,6.0,5.0,22.0,26.0,50.0,-1.0,-40.0,-10.0,2.1401844024658203
415,209.0,47.0,824.0,0.0,-1208.0,25.0,-11144.0,-11951.0,16.0,32.0,34.0,16.0,-3.0,-17.0,-16.0,32.0,2.1420116424560547
416,137.0,33.0,709.0,0.0,-1102.0,-69.0,-11169.0,-11937.0,16.0,32.0,34.0,16.0,-3.0,-17.0,-16.0,32.0,2.155764579772949
417,137.0,33.0,709.0,0.0,-1102.0,-69.0,-11169.0,-11937.0,10.0,9.0,20.0,4.0,2.0,12.0,38.0,18.0,2.1578147411346436
418,137.0,33.0,709.0,0.0,-1102.0,-69.0,-11169.0,-11937.0,-10.0,-5.0,8.0,18.0,29.0,50.0,-66.0,-40.0,2.162058115005493
419,273.0,180.0,449.0,0.0,-1000.0,-126.0,-11206.0,-11911.0,-10.0,-5.0,8.0,18.0,29.0,50.0,-66.0,-40.0,2.1785061359405518
420,273.0,180.0,449.0,0.0,-1000.0,-126.0,-11206.0,-11911.0,1.0,12.0,22.0,-21.0,23.0,7.0,-62.0,0.0,2.1804795265197754
421,273.0,180.0,449.0,0.0,-1000.0,-126.0,-11206.0,-11911.0,-12.0,10.0,-34.0,21.0,63.0,36.0,40.0,-17.0,2.18277645111084
422,374.0,277.0,239.0,0.0,-928.0,-130.0,-11261.0,-11865.0,-12.0,10.0,-34.0,21.0,63.0,36.0,40.0,-17.0,2.191879987716675
423,374.0,277.0,239.0,0.0,-928.0,-130.0,-11261.0,-11865.0,-14.0,8.0,17.0,7.0,15.0,-9.0,-44.0,-7.0,2.2006595134735107
424,374.0,277.0,239.0,0.0,-928.0,-130.0,-11261.0,-11865.0,-11.0,-8.0,42.0,-18.0,-37.0,-51.0,78.0,-4.0,2.2025437355041504
425,281.0,121.0,111.0,0.0,-897.0,-132.0,-11306.0,-11824.0,-11.0,-8.0,42.0,-18.0,-37.0,-51.0,78.0,-4.0,2.215778350830078
426,281.0,121.0,111.0,0.0,-897.0,-132.0,-11306.0,-11824.0,-11.0,10.0,4.0,20.0,-92.0,-32.0,8.0,-6.0,2.219212532043457
427,281.0,121.0,111.0,0.0,-897.0,-132.0,-11306.0,-11824.0,-8.0,-15.0,-22.0,-6.0,6.0,-1.0,-51.0,18.0,2.222473621368408
428,127.0,-10.0,-26.0,0.0,-889.0,-143.0,-11331.0,-11801.0,-8.0,-15.0,-22.0,-6.0,6.0,-1.0,-51.0,18.0,2.23960018157959
429,127.0,-10.0,-26.0,0.0,-889.0,-143.0,-11331.0,-11801.0,-14.0,-40.0,-87.0,-41.0,15.0,-17.0,-74.0,-22.0,2.2432286739349365
430,127.0,-10.0,-26.0,0.0,-889.0,-143.0,-11331.0,-11801.0,15.0,27.0,32.0,20.0,51.0,64.0,72.0,19.0,2.247144937515259
431,-177.0,-49.0,-114.0,0.0,-907.0,-135.0,-11315.0,-11815.0,15.0,27.0,32.0,20.0,51.0,64.0,72.0,19.0,2.261115312576294
432,-177.0,-49.0,-114.0,0.0,-907.0,-135.0,-11315.0,-11815.0,9.0,21.0,39.0,15.0,51.0,17.0,-42.0,-15.0,2.264662742614746
433,-177.0,-49.0,-114.0,0.0,-907.0,-135.0,-11315.0,-11815.0,-2.0,7.0,-7.0,-8.0,-62.0,-2.0,-70.0,-22.0,2.267859935760498
434,-233.0,-86.0,-78.0,0.0,-926.0,-136.0,-11295.0,-11833.0,-2.0,7.0,-7.0,-8.0,-62.0,-2.0,-70.0,-22.0,2.2767932415008545
435,-233.0,-86.0,-78.0,0.0,-926.0,-136.0,-11295.0,-11833.0,-1.0,-3.0,18.0,-12.0,-25.0,-20.0,-32.0,-10.0,2.2795987129211426
436,-233.0,-86.0,-78.0,0.0,-926.0,-136.0,-11295.0,-11833.0,-7.0,-21.0,3.0,-6.0,0.0,4.0,-46.0,-39.0,2.2816193103790283
437,-203.0,-99.0,-55.0,0.0,-933.0,-152.0,-11285.0,-11841.0,-7.0,-21.0,3.0,-6.0,0.0,4.0,-46.0,-39.0,2.299036741256714
438,-203.0,-99.0,-55.0,0.0,-933.0,-152.0,-11285.0,-11841.0,12.0,18.0,9.0,-13.0,9.0,55.0,88.0,28.0,2.302172899246216
439,-203.0,-99.0,-55.0,0.0,-933.0,-152.0,-11285.0,-11841.0,4.0,-7.0,-14.0,-45.0,1.0,22.0,6.0,23.0,2.3051743507385254
440,-137.0,-84.0,-22.0,0.0,-934.0,-170.0,-11288.0,-11838.0,4.0,-7.0,-14.0,-45.0,1.0,22.0,6.0,23.0,2.32169246673584
441,-137.0,-84.0,-22.0,0.0,-934.0,-170.0,-11288.0,-11838.0,-7.0,7.0,17.0,26.0,-3.0,-33.0,-5.0,-14.0,2.3250420093536377
442,-137.0,-84.0,-22.0,0.0,-934.0,-170.0,-11288.0,-11838.0,-11.0,-22.0,-47.0,2.0,-18.0,-47.0,-60.0,-9.0,2.328277111053467
443,-162.0,-74.0,-84.0,0.0,-946.0,-175.0,-11285.0,-11840.0,-11.0,-22.0,-47.0,2.0,-18.0,-47.0,-60.0,-9.0,2.3367393016815186
444,-162.0,-74.0,-84.0,0.0,-946.0,-175.0,-11285.0,-11840.0,14.0,4.0,-2.0,-6.0,-14.0,-19.0,-50.0,18.0,2.339935779571533
445,-162.0,-74.0,-84.0,0.0,-946.0,-175.0,-11285.0,-11840.0,3.0,3.0,13.0,5.0,-26.0,-22.0,56.0,2.0,2.3422048091888428
446,-173.0,-52.0,-85.0,0.0,-960.0,-173.0,-11271.0,-11852.0,3.0,3.0,13.0,5.0,-26.0,-22.0,56.0,2.0,2.3583269119262695
447,-173.0,-52.0,-85.0,0.0,-960.0,-173.0,-11271.0,-11852.0,-10.0,0.0,30.0,15.0,14.0,-6.0,14.0,-11.0,2.360229015350342
448,-173.0,-52.0,-85.0,0.0,-960.0,-173.0,-11271.0,-11852.0,15.0,24.0,17.0,-29.0,-7.0,-31.0,-26.0,-7.0,2.3622379302978516
449,-40.0,0.0,-39.0,0.0,-965.0,-168.0,-11272.0,-11851.0,15.0,24.0,17.0,-29.0,-7.0,-31.0,-26.0,-7.0,2.381269693374634
450,-40.0,0.0,-39.0,0.0,-965.0,-168.0,-11272.0,-11851.0,-9.0,-20.0,-33.0,39.0,19.0,32.0,11.0,1.0,2.38478684425354
451,-40.0,0.0,-39.0,0.0,-965.0,-168.0,-11272.0,-11851.0,-2.0,4.0,-5.0,45.0,80.0,48.0,10.0,4.0,2.386733055114746
452,47.0,29.0,-37.0,0.0,-965.0,-161.0,-11290.0,-11834.0,-2.0,4.0,-5.0,45.0,80.0,48.0,10.0,4.0,2.395965337753296
453,47.0,29.0,-37.0,0.0,-965.0,-161.0,-11290.0,-11834.0,2.0,-8.0,-11.0,-27.0,-18.0,-43.0,74.0,6.0,2.3988428115844727
454,47.0,29.0,-37.0,0.0,-965.0,-161.0,-11290.0,-11834.0,6.0,1.0,-7.0,20.0,-27.0,-1.0,5.0,33.0,2.4020044803619385
455,5.0,44.0,-48.0,0.0,-966.0,-148.0,-11302.0,-11823.0,6.0,1.0,-7.0,20.0,-27.0,-1.0,5.0,33.0,2.418356418609619
456,5.0,44.0,-48.0,0.0,-966.0,-148.0,-11302.0,-11823.0,-11.0,-16.0,-34.0,-19.0,-3.0,-4.0,-34.0,-14.0,2.420271158218384
457,5.0,44.0,-48.0,0.0,-966.0,-148.0,-11302.0,-11823.0,-5.0,-7.0,20.0,3.0,8.0,-4.0,-47.0,-11.0,2.4220986366271973
458,-35.0,20.0,36.0,0.0,-956.0,-152.0,-11307.0,-11818.0,-5.0,-7.0,20.0,3.0,8.0,-4.0,-47.0,-11.0,2.4411568641662598
459,-35.0,20.0,36.0,0.0,-956.0,-152.0,-11307.0,-11818.0,-6.0,-26.0,-58.0,-9.0,-21.0,20.0,59.0,-22.0,2.444577217102051
460,-35.0,20.0,36.0,0.0,-956.0,-152.0,-11307.0,-11818.0,5.0,18.0,1.0,-24.0,12.0,22.0,-30.0,-9.0,2.4478228092193604
461,-13.0,0.0,91.0,0.0,-937.0,-169.0,-11315.0,-11812.0,5.0,18.0,1.0,-24.0,12.0,22.0,-30.0,-9.0,2.4563162326812744
462,-13.0,0.0,91.0,0.0,-937.0,-169.0,-11315.0,-11812.0,10.0,15.0,14.0,-14.0,8.0,4.0,-23.0,21.0,2.4587924480438232
463,-13.0,0.0,91.0,0.0,-937.0,-169.0,-11315.0,-11812.0,1.0,-12.0,-12.0,26.0,47.0,6.0,7.0,-3.0,2.462008476257324
464,20.0,-5.0,95.0,0.0,-918.0,-189.0,-11326.0,-11803.0,1.0,-12.0,-12.0,26.0,47.0,6.0,7.0,-3.0,2.479290246963501
465,20.0,-5.0,95.0,0.0,-918.0,-189.0,-11326.0,-11803.0,-5.0,-4.0,4.0,-28.0,-23.0,11.0,-8.0,-3.0,2.4826712608337402
466,20.0,-5.0,95.0,0.0,-918.0,-189.0,-11326.0,-11803.0,-13.0,3.0,2.0,7.0,13.0,-6.0,-13.0,-15.0,2.485865354537964
467,0.0,-6.0,66.0,0.0,-905.0,-203.0,-11328.0,-11801.0,-13.0,3.0,2.0,7.0,13.0,-6.0,-13.0,-15.0,2.5015385150909424
468,0.0,-6.0,66.0,0.0,-905.0,-203.0,-11328.0,-11801.0,-4.0,-3.0,8.0,-1.0,-12.0,-29.0,-53.0,5.0,2.503458261489868
469,0.0,-6.0,66.0,0.0,-905.0,-203.0,-11328.0,-11801.0,-1.0,-4.0,3.0,6.0,-13.0,-2.0,-21.0,-22.0,2.5052783489227295
470,-47.0,-4.0,98.0,0.0,-891.0,-217.0,-11325.0,-11805.0,-1.0,-4.0,3.0,6.0,-13.0,-2.0,-21.0,-22.0,2.515087604522705
471,-47.0,-4.0,98.0,0.0,-891.0,-217.0,-11325.0,-11805.0,3.0,-15.0,-31.0,-12.0,5.0,-4.0,-12.0,2.0,2.5170207023620605
472,-47.0,-4.0,98.0,0.0,-891.0,-217.0,-11325.0,-11805.0,5.0,8.0,-2.0,-4.0,4.0,-6.0,-23.0,-5.0,2.522307872772217
473,-22.0,-18.0,79.0,0.0,-878.0,-234.0,-11326.0,-11805.0,5.0,8.0,-2.0,-4.0,4.0,-6.0,-23.0,-5.0,2.5396299362182617
474,-22.0,-18.0,79.0,0.0,-878.0,-234.0,-11326.0,-11805.0,-11.0,-13.0,-13.0,-4.0,-40.0,-7.0,9.0,-14.0,2.5432701110839844
475,-22.0,-18.0,79.0,0.0,-878.0,-234.0,-11326.0,-11805.0,-4.0,-2.0,6.0,11.0,11.0,17.0,9.0,0.0,2.546942710876465
476,70.0,1.0,64.0,0.0,-865.0,-246.0,-11345.0,-11787.0,-4.0,-2.0,6.0,11.0,11.0,17.0,9.0,0.0,2.5624423027038574
477,70.0,1.0,64.0,0.0,-865.0,-246.0,-11345.0,-11787.0,3.0,15.0,24.0,-8.0,-40.0,-22.0,-18.0,-7.0,2.5669565200805664
478,70.0,1.0,64.0,0.0,-865.0,-246.0,-11345.0,-11787.0,0.0,-2.0,1.0,-5.0,35.0,25.0,114.0,18.0,2.5701279640197754
479,-1.0,-23.0,21.0,0.0,-864.0,-252.0,-11355.0,-11778.0,0.0,-2.0,1.0,-5.0,35.0,25.0,114.0,18.0,2.5751538276672363
480,-1.0,-23.0,21.0,0.0,-864.0,-252.0,-11355.0,-11778.0,0.0,9.0,37.0,14.0,23.0,16.0,28.0,-1.0,2.5770461559295654
481,-1.0,-23.0,21.0,0.0,-864.0,-252.0,-11355.0,-11778.0,3.0,25.0,26.0,-23.0,-56.0,-28.0,-32.0,3.0,2.5831618309020996
482,-30.0,-19.0,31.0,0.0,-862.0,-258.0,-11360.0,-11773.0,3.0,25.0,26.0,-23.0,-56.0,-28.0,-32.0,3.0,2.6000585556030273
483,-30.0,-19.0,31.0,0.0,-862.0,-258.0,-11360.0,-11773.0,-2.0,-3.0,4.0,-10.0,-3.0,-4.0,-8.0,-13.0,2.604030132293701
484,-30.0,-19.0,31.0,0.0,-862.0,-258.0,-11360.0,-11773.0,-3.0,-11.0,-3.0,7.0,-23.0,-15.0,22.0,-3.0,2.607776165008545
485,10.0,-15.0,-2.0,0.0,-862.0,-258.0,-11361.0,-11772.0,-3.0,-11.0,-3.0,7.0,-23.0,-15.0,22.0,-3.0,2.622009754180908
486,10.0,-15.0,-2.0,0.0,-862.0,-258.0,-11361.0,-11772.0,8.0,22.0,5.0,-1.0,13.0,4.0,38.0,9.0,2.625154495239258
487,10.0,-15.0,-2.0,0.0,-862.0,-258.0,-11361.0,-11772.0,-1.0,-13.0,1.0,-9.0,9.0,6.0,22.0,14.0,2.6281495094299316
488,48.0,25.0,2.0,0.0,-855.0,-259.0,-11371.0,-11763.0,-1.0,-13.0,1.0,-9.0,9.0,6.0,22.0,14.0,2.6360204219818115
489,48.0,25.0,2.0,0.0,-855.0,-259.0,-11371.0,-11763.0,-5.0,13.0,9.0,9.0,11.0,-11.0,-18.0,-1.0,2.638400077819824
490,48.0,25.0,2.0,0.0,-855.0,-259.0,-11371.0,-11763.0,7.0,10.0,-10.0,31.0,-8.0,-16.0,1.0,5.0,2.6422054767608643
491,89.0,11.0,8.0,0.0,-857.0,-254.0,-11389.0,-11746.0,7.0,10.0,-10.0,31.0,-8.0,-16.0,1.0,5.0,2.6585562229156494
492,89.0,11.0,8.0,0.0,-857.0,-254.0,-11389.0,-11746.0,5.0,-4.0,-3.0,0.0,-8.0,18.0,-20.0,0.0,2.6604297161102295
493,89.0,11.0,8.0,0.0,-857.0,-254.0,-11389.0,-11746.0,-5.0,-18.0,-15.0,2.0,-19.0,-1.0,2.0,-11.0,2.662236452102661
494,14.0,-24.0,3.0,0.0,-859.0,-258.0,-11395.0,-11739.0,-5.0,-18.0,-15.0,2.0,-19.0,-1.0,2.0,-11.0,2.6807169914245605
495,14.0,-24.0,3.0,0.0,-859.0,-258.0,-11395.0,-11739.0,-3.0,4.0,4.0,-21.0,-16.0,-41.0,-2.0,-4.0,2.6841485500335693
496,14.0,-24.0,3.0,0.0,-859.0,-258.0,-11395.0,-11739.0,-3.0,-1.0,12.0,-17.0,13.0,5.0,-5.0,-6.0,2.6860227584838867
497,-37.0,-30.0,12.0,0.0,-859.0,-265.0,-11392.0,-11742.0,-3.0,-1.0,12.0,-17.0,13.0,5.0,-5.0,-6.0,2.6956164836883545
498,-37.0,-30.0,12.0,0.0,-859.0,-265.0,-11392.0,-11742.0,5.0,12.0,13.0,0.0,-19.0,17.0,-4.0,15.0,2.6976094245910645
499,-37.0,-30.0,12.0,0.0,-859.0,-265.0,-11392.0,-11742.0,-1.0,-5.0,-10.0,1.0,46.0,20.0,-14.0,4.0,2.7021474838256836
