,Gyro 0,Gyro 1,Gyro 2,Label,Orientation 0,Orientation 1,Orientation 2,Orientation 3,Sensor 0,Sensor 1,Sensor 2,Sensor 3,Sensor 4,Sensor 5,Sensor 6,Sensor 7,Timestamp
0,190.0,66.0,-94.0,0.0,-771.0,9468.0,9417.0,9461.0,1.0,-1.0,-3.0,-8.0,-4.0,-2.0,-1.0,0.0,2.1457672119140625e-06
1,190.0,66.0,-94.0,0.0,-771.0,9468.0,9417.0,9461.0,1.0,-1.0,3.0,6.0,-1.0,-6.0,-7.0,-3.0,0.0021669864654541016
2,190.0,66.0,-94.0,0.0,-771.0,9468.0,9417.0,9461.0,-3.0,-3.0,0.0,6.0,2.0,-2.0,-2.0,3.0,0.0046062469482421875
3,232.0,71.0,-87.0,0.0,-804.0,9443.0,9433.0,9465.0,-3.0,-3.0,0.0,6.0,2.0,-2.0,-2.0,3.0,0.007827043533325195
4,232.0,71.0,-87.0,0.0,-804.0,9443.0,9433.0,9465.0,-4.0,-1.0,-2.0,-3.0,-1.0,-14.0,-11.0,-4.0,0.011239290237426758
5,187.0,68.0,-82.0,0.0,-826.0,9416.0,9448.0,9477.0,-4.0,-1.0,-2.0,-3.0,-1.0,-14.0,-11.0,-4.0,0.013580560684204102
6,187.0,68.0,-82.0,0.0,-826.0,9416.0,9448.0,9477.0,1.0,-1.0,-3.0,-7.0,-2.0,-4.0,-1.0,2.0,0.015433549880981445
7,187.0,68.0,-82.0,0.0,-826.0,9416.0,9448.0,9477.0,2.0,3.0,0.0,-6.0,0.0,7.0,9.0,-1.0,0.017205476760864258
8,127.0,-5.0,-47.0,0.0,-841.0,9401.0,9452.0,9486.0,2.0,3.0,0.0,-6.0,0.0,7.0,9.0,-1.0,0.018986940383911133
9,127.0,-5.0,-47.0,0.0,-841.0,9401.0,9452.0,9486.0,4.0,8.0,6.0,-2.0,-1.0,-4.0,-1.0,0.0,0.021179676055908203
10,127.0,-5.0,-47.0,0.0,-841.0,9401.0,9452.0,9486.0,1.0,5.0,0.0,-2.0,4.0,7.0,2.0,-3.0,0.02392268180847168
11,155.0,-89.0,-61.0,0.0,-850.0,9394.0,9460.0,9484.0,1.0,5.0,0.0,-2.0,4.0,7.0,2.0,-3.0,0.026323795318603516
12,155.0,-89.0,-61.0,0.0,-850.0,9394.0,9460.0,9484.0,4.0,16.0,2.0,-6.0,0.0,9.0,6.0,4.0,0.029743194580078125
13,155.0,-89.0,-61.0,0.0,-850.0,9394.0,9460.0,9484.0,1.0,-2.0,6.0,0.0,-9.0,-11.0,-2.0,1.0,0.0315704345703125
14,127.0,-142.0,-62.0,0.0,-847.0,9395.0,9471.0,9472.0,1.0,-2.0,6.0,0.0,-9.0,-11.0,-2.0,1.0,0.033341407775878906
15,127.0,-142.0,-62.0,0.0,-847.0,9395.0,9471.0,9472.0,-10.0,-10.0,-5.0,-3.0,-6.0,-9.0,-2.0,-4.0,0.03517746925354004
16,127.0,-142.0,-62.0,0.0,-847.0,9395.0,9471.0,9472.0,-8.0,-9.0,5.0,0.0,-2.0,1.0,-4.0,-2.0,0.036942481994628906
17,29.0,-137.0,-21.0,0.0,-828.0,9402.0,9479.0,9460.0,-8.0,-9.0,5.0,0.0,-2.0,1.0,-4.0,-2.0,0.03870224952697754
18,29.0,-137.0,-21.0,0.0,-828.0,9402.0,9479.0,9460.0,-2.0,-1.0,-3.0,-1.0,9.0,6.0,0.0,-2.0,0.04078841209411621
19,29.0,-137.0,-21.0,0.0,-828.0,9402.0,9479.0,9460.0,0.0,-3.0,-6.0,4.0,2.0,2.0,-5.0,-2.0,0.04260659217834473
20,-26.0,-65.0,56.0,0.0,-820.0,9415.0,9475.0,9450.0,0.0,-3.0,-6.0,4.0,2.0,2.0,-5.0,-2.0,0.044379472732543945
21,-26.0,-65.0,56.0,0.0,-820.0,9415.0,9475.0,9450.0,-2.0,-5.0,-6.0,-1.0,-10.0,-5.0,-4.0,-3.0,0.046216487884521484
22,-26.0,-65.0,56.0,0.0,-820.0,9415.0,9475.0,9450.0,-9.0,-3.0,2.0,4.0,1.0,-1.0,-8.0,-6.0,0.047991037368774414
23,-222.0,-52.0,3.0,0.0,-787.0,9426.0,9460.0,9457.0,-9.0,-3.0,2.0,4.0,1.0,-1.0,-8.0,-6.0,0.04976940155029297
24,-222.0,-52.0,3.0,0.0,-787.0,9426.0,9460.0,9457.0,0.0,2.0,-1.0,0.0,-7.0,-1.0,-5.0,0.0,0.051717281341552734
25,-222.0,-52.0,3.0,0.0,-787.0,9426.0,9460.0,9457.0,-4.0,-7.0,-7.0,-5.0,-4.0,-2.0,-5.0,-3.0,0.05407905578613281
26,-47.0,-62.0,18.0,0.0,-779.0,9441.0,9457.0,9446.0,-4.0,-7.0,-7.0,-5.0,-4.0,-2.0,-5.0,-3.0,0.05645036697387695
27,-47.0,-62.0,18.0,0.0,-779.0,9441.0,9457.0,9446.0,-4.0,-7.0,6.0,1.0,7.0,-8.0,2.0,-4.0,0.05837059020996094
28,-47.0,-62.0,18.0,0.0,-779.0,9441.0,9457.0,9446.0,0.0,1.0,-2.0,-4.0,-2.0,5.0,4.0,2.0,0.060533761978149414
29,33.0,-46.0,83.0,0.0,-792.0,9462.0,9455.0,9426.0,0.0,1.0,-2.0,-4.0,-2.0,5.0,4.0,2.0,0.06327176094055176
30,33.0,-46.0,83.0,0.0,-792.0,9462.0,9455.0,9426.0,-5.0,-4.0,3.0,0.0,-3.0,2.0,0.0,-2.0,0.06513857841491699
31,33.0,-46.0,83.0,0.0,-792.0,9462.0,9455.0,9426.0,6.0,20.0,-2.0,0.0,3.0,-4.0,-4.0,-1.0,0.06689929962158203
32,113.0,-67.0,12.0,0.0,-794.0,9471.0,9471.0,9401.0,6.0,20.0,-2.0,0.0,3.0,-4.0,-4.0,-1.0,0.06865477561950684
33,113.0,-67.0,12.0,0.0,-794.0,9471.0,9471.0,9401.0,-9.0,-19.0,-9.0,-7.0,-10.0,-2.0,1.0,-3.0,0.07049775123596191
34,113.0,-67.0,12.0,0.0,-794.0,9471.0,9471.0,9401.0,-6.0,5.0,-18.0,-2.0,1.0,2.0,-2.0,-2.0,0.07227134704589844
35,92.0,-104.0,7.0,0.0,-791.0,9485.0,9486.0,9371.0,-6.0,5.0,-18.0,-2.0,1.0,2.0,-2.0,-2.0,0.07439017295837402
36,92.0,-104.0,7.0,0.0,-791.0,9485.0,9486.0,9371.0,0.0,2.0,6.0,-8.0,-3.0,-3.0,-2.0,1.0,0.07623147964477539
37,92.0,-104.0,7.0,0.0,-791.0,9485.0,9486.0,9371.0,3.0,2.0,1.0,-8.0,-27.0,-7.0,-2.0,0.0,0.07800149917602539
38,-90.0,-115.0,13.0,0.0,-764.0,9501.0,9484.0,9360.0,3.0,2.0,1.0,-8.0,-27.0,-7.0,-2.0,0.0,0.07978224754333496
39,-90.0,-115.0,13.0,0.0,-764.0,9501.0,9484.0,9360.0,-3.0,2.0,7.0,6.0,10.0,1.0,2.0,0.0,0.08166813850402832
40,-90.0,-115.0,13.0,0.0,-764.0,9501.0,9484.0,9360.0,5.0,-4.0,0.0,3.0,11.0,4.0,0.0,0.0,0.08400654792785645
41,-290.0,-29.0,97.0,0.0,-736.0,9515.0,9449.0,9384.0,5.0,-4.0,0.0,3.0,11.0,4.0,0.0,0.0,0.08659863471984863
42,-290.0,-29.0,97.0,0.0,-736.0,9515.0,9449.0,9384.0,7.0,10.0,6.0,2.0,4.0,0.0,-3.0,0.0,0.08857583999633789
43,-290.0,-29.0,97.0,0.0,-736.0,9515.0,9449.0,9384.0,-16.0,-23.0,7.0,-6.0,-3.0,-5.0,-4.0,-2.0,0.09037494659423828
44,-272.0,-8.0,110.0,0.0,-721.0,9529.0,9407.0,9412.0,-16.0,-23.0,7.0,-6.0,-3.0,-5.0,-4.0,-2.0,0.0921332836151123
45,-272.0,-8.0,110.0,0.0,-721.0,9529.0,9407.0,9412.0,2.0,6.0,-3.0,0.0,3.0,0.0,-2.0,1.0,0.09465527534484863
46,-272.0,-8.0,110.0,0.0,-721.0,9529.0,9407.0,9412.0,1.0,-6.0,-24.0,-2.0,-1.0,3.0,-1.0,0.0,0.09712433815002441
47,-87.0,-112.0,102.0,0.0,-707.0,9550.0,9391.0,9409.0,1.0,-6.0,-24.0,-2.0,-1.0,3.0,-1.0,0.0,0.09890413284301758
48,-87.0,-112.0,102.0,0.0,-707.0,9550.0,9391.0,9409.0,-2.0,-7.0,-17.0,2.0,0.0,1.0,-1.0,0.0,0.10074281692504883
49,-87.0,-112.0,102.0,0.0,-707.0,9550.0,9391.0,9409.0,1.0,-2.0,29.0,5.0,-2.0,2.0,2.0,1.0,0.1025393009185791
50,-85.0,-183.0,53.0,0.0,-676.0,9572.0,9383.0,9396.0,1.0,-2.0,29.0,5.0,-2.0,2.0,2.0,1.0,0.10431265830993652
51,-85.0,-183.0,53.0,0.0,-676.0,9572.0,9383.0,9396.0,11.0,18.0,-1.0,-1.0,3.0,6.0,2.0,1.0,0.10636496543884277
52,-85.0,-183.0,53.0,0.0,-676.0,9572.0,9383.0,9396.0,-3.0,-19.0,-2.0,4.0,-10.0,-9.0,-2.0,0.0,0.10820317268371582
53,-197.0,-121.0,25.0,0.0,-643.0,9586.0,9362.0,9405.0,-3.0,-19.0,-2.0,4.0,-10.0,-9.0,-2.0,0.0,0.10998320579528809
54,-197.0,-121.0,25.0,0.0,-643.0,9586.0,9362.0,9405.0,4.0,-5.0,8.0,-1.0,-2.0,-4.0,0.0,-2.0,0.11182427406311035
55,-197.0,-121.0,25.0,0.0,-643.0,9586.0,9362.0,9405.0,3.0,6.0,6.0,-2.0,14.0,6.0,2.0,1.0,0.11413717269897461
56,-275.0,-58.0,38.0,0.0,-609.0,9598.0,9334.0,9423.0,3.0,6.0,6.0,-2.0,14.0,6.0,2.0,1.0,0.11667871475219727
57,-275.0,-58.0,38.0,0.0,-609.0,9598.0,9334.0,9423.0,2.0,8.0,1.0,-8.0,-11.0,0.0,-3.0,-1.0,0.11876392364501953
58,-275.0,-58.0,38.0,0.0,-609.0,9598.0,9334.0,9423.0,-2.0,-2.0,12.0,5.0,7.0,2.0,1.0,1.0,0.1205298900604248
59,-304.0,-59.0,27.0,0.0,-571.0,9612.0,9305.0,9439.0,-2.0,-2.0,12.0,5.0,7.0,2.0,1.0,1.0,0.12231016159057617
60,-304.0,-59.0,27.0,0.0,-571.0,9612.0,9305.0,9439.0,2.0,-3.0,-9.0,5.0,-8.0,2.0,1.0,-3.0,0.12417101860046387
61,-304.0,-59.0,27.0,0.0,-571.0,9612.0,9305.0,9439.0,-3.0,-4.0,-5.0,-3.0,-5.0,-1.0,-7.0,-3.0,0.12594151496887207
62,-299.0,-100.0,56.0,0.0,-538.0,9635.0,9272.0,9451.0,-3.0,-4.0,-5.0,-3.0,-5.0,-1.0,-7.0,-3.0,0.1286463737487793
63,-299.0,-100.0,56.0,0.0,-538.0,9635.0,9272.0,9451.0,-1.0,18.0,4.0,1.0,6.0,-1.0,6.0,-2.0,0.13112163543701172
64,-223.0,-99.0,3.0,0.0,-509.0,9651.0,9249.0,9458.0,-1.0,18.0,4.0,1.0,6.0,-1.0,6.0,-2.0,0.13289356231689453
65,-223.0,-99.0,3.0,0.0,-509.0,9651.0,9249.0,9458.0,0.0,-6.0,3.0,-2.0,2.0,1.0,2.0,0.0,0.13474106788635254
66,-223.0,-99.0,3.0,0.0,-509.0,9651.0,9249.0,9458.0,-17.0,-7.0,11.0,0.0,1.0,-2.0,-4.0,-1.0,0.13650870323181152
67,-150.0,-75.0,-65.0,0.0,-482.0,9656.0,9240.0,9463.0,-17.0,-7.0,11.0,0.0,1.0,-2.0,-4.0,-1.0,0.13828015327453613
68,-150.0,-75.0,-65.0,0.0,-482.0,9656.0,9240.0,9463.0,-4.0,-5.0,0.0,3.0,-2.0,-1.0,-2.0,1.0,0.14039039611816406
69,-150.0,-75.0,-65.0,0.0,-482.0,9656.0,9240.0,9463.0,-6.0,-26.0,-5.0,2.0,1.0,3.0,-1.0,-1.0,0.1421968936920166
70,-109.0,-77.0,-85.0,0.0,-460.0,9664.0,9239.0,9457.0,-6.0,-26.0,-5.0,2.0,1.0,3.0,-1.0,-1.0,0.1440744400024414
71,-109.0,-77.0,-85.0,0.0,-460.0,9664.0,9239.0,9457.0,-4.0,-24.0,-10.0,1.0,2.0,0.0,-2.0,-2.0,0.1471860408782959
72,-109.0,-77.0,-85.0,0.0,-460.0,9664.0,9239.0,9457.0,4.0,-4.0,-11.0,-3.0,-2.0,0.0,1.0,-1.0,0.1492905616760254
73,-96.0,-108.0,-72.0,0.0,-434.0,9672.0,9238.0,9451.0,4.0,-4.0,-11.0,-3.0,-2.0,0.0,1.0,-1.0,0.15103459358215332
74,-96.0,-108.0,-72.0,0.0,-434.0,9672.0,9238.0,9451.0,12.0,15.0,-15.0,0.0,8.0,4.0,1.0,2.0,0.1528785228729248
75,-96.0,-108.0,-72.0,0.0,-434.0,9672.0,9238.0,9451.0,-6.0,-5.0,-2.0,-4.0,-2.0,-1.0,-2.0,-6.0,0.15465950965881348
76,-90.0,-130.0,-47.0,0.0,-407.0,9684.0,9237.0,9442.0,-6.0,-5.0,-2.0,-4.0,-2.0,-1.0,-2.0,-6.0,0.1564481258392334
77,-90.0,-130.0,-47.0,0.0,-407.0,9684.0,9237.0,9442.0,3.0,14.0,-9.0,-8.0,-9.0,-8.0,-2.0,0.0,0.15828967094421387
78,-90.0,-130.0,-47.0,0.0,-407.0,9684.0,9237.0,9442.0,7.0,1.0,-23.0,8.0,22.0,8.0,2.0,3.0,0.16006898880004883
79,-103.0,-105.0,-36.0,0.0,-377.0,9692.0,9236.0,9436.0,7.0,1.0,-23.0,8.0,22.0,8.0,2.0,3.0,0.1630847454071045
80,-103.0,-105.0,-36.0,0.0,-377.0,9692.0,9236.0,9436.0,8.0,28.0,3.0,-3.0,-7.0,-3.0,-4.0,1.0,0.1650066375732422
81,-103.0,-105.0,-36.0,0.0,-377.0,9692.0,9236.0,9436.0,2.0,0.0,15.0,3.0,-3.0,-1.0,1.0,0.0,0.1667776107788086
82,-137.0,-77.0,-7.0,0.0,-350.0,9702.0,9229.0,9433.0,2.0,0.0,15.0,3.0,-3.0,-1.0,1.0,0.0,0.16854357719421387
83,-137.0,-77.0,-7.0,0.0,-350.0,9702.0,9229.0,9433.0,2.0,-12.0,-6.0,4.0,12.0,4.0,4.0,2.0,0.170393705368042
84,-137.0,-77.0,-7.0,0.0,-350.0,9702.0,9229.0,9433.0,8.0,-4.0,-12.0,-5.0,-11.0,-9.0,-3.0,-1.0,0.17215609550476074
85,-139.0,-89.0,6.0,0.0,-330.0,9717.0,9216.0,9430.0,8.0,-4.0,-12.0,-5.0,-11.0,-9.0,-3.0,-1.0,0.1742534637451172
86,-139.0,-89.0,6.0,0.0,-330.0,9717.0,9216.0,9430.0,1.0,12.0,-10.0,-4.0,3.0,-5.0,-2.0,-4.0,0.17747235298156738
87,-139.0,-89.0,6.0,0.0,-330.0,9717.0,9216.0,9430.0,1.0,19.0,-5.0,-2.0,3.0,-3.0,-3.0,-2.0,0.18045401573181152
88,-106.0,-85.0,13.0,0.0,-317.0,9734.0,9204.0,9425.0,1.0,19.0,-5.0,-2.0,3.0,-3.0,-3.0,-2.0,0.18227338790893555
89,-106.0,-85.0,13.0,0.0,-317.0,9734.0,9204.0,9425.0,-1.0,6.0,3.0,-4.0,-4.0,-1.0,-2.0,0.0,0.18410754203796387
90,-106.0,-85.0,13.0,0.0,-317.0,9734.0,9204.0,9425.0,-2.0,-2.0,3.0,-6.0,-8.0,-5.0,-1.0,0.0,0.18587470054626465
91,-67.0,-87.0,9.0,0.0,-302.0,9747.0,9200.0,9416.0,-2.0,-2.0,3.0,-6.0,-8.0,-5.0,-1.0,0.0,0.18763279914855957
92,-67.0,-87.0,9.0,0.0,-302.0,9747.0,9200.0,9416.0,-4.0,0.0,7.0,4.0,10.0,6.0,1.0,0.0,0.1896655559539795
93,-67.0,-87.0,9.0,0.0,-302.0,9747.0,9200.0,9416.0,-7.0,-7.0,8.0,-2.0,-13.0,-6.0,-1.0,2.0,0.19148826599121094
94,-87.0,-77.0,-8.0,0.0,-282.0,9756.0,9196.0,9412.0,-7.0,-7.0,8.0,-2.0,-13.0,-6.0,-1.0,2.0,0.1932659149169922
95,-87.0,-77.0,-8.0,0.0,-282.0,9756.0,9196.0,9412.0,-4.0,-12.0,-18.0,-4.0,-1.0,1.0,1.0,-4.0,0.19509315490722656
96,-87.0,-77.0,-8.0,0.0,-282.0,9756.0,9196.0,9412.0,5.0,-7.0,-26.0,0.0,9.0,4.0,1.0,1.0,0.196854829788208
97,-82.0,-60.0,-25.0,0.0,-266.0,9761.0,9190.0,9412.0,5.0,-7.0,-26.0,0.0,9.0,4.0,1.0,1.0,0.19865155220031738
98,-82.0,-60.0,-25.0,0.0,-266.0,9761.0,9190.0,9412.0,0.0,-8.0,-2.0,2.0,5.0,4.0,1.0,0.0,0.20050644874572754
99,-82.0,-60.0,-25.0,0.0,-266.0,9761.0,9190.0,9412.0,-1.0,0.0,-1.0,-5.0,-4.0,-3.0,-1.0,3.0,0.20228075981140137
100,-63.0,-68.0,-30.0,0.0,-253.0,9768.0,9185.0,9411.0,-1.0,0.0,-1.0,-5.0,-4.0,-3.0,-1.0,3.0,0.20416951179504395
101,-63.0,-68.0,-30.0,0.0,-253.0,9768.0,9185.0,9411.0,5.0,6.0,-5.0,3.0,-4.0,-3.0,-2.0,3.0,0.20615434646606445
102,-63.0,-68.0,-30.0,0.0,-253.0,9768.0,9185.0,9411.0,-7.0,-9.0,13.0,-8.0,-9.0,-2.0,-3.0,-2.0,0.20932221412658691
103,-34.0,-76.0,-21.0,0.0,-245.0,9776.0,9182.0,9406.0,-7.0,-9.0,13.0,-8.0,-9.0,-2.0,-3.0,-2.0,0.21212005615234375
104,-34.0,-76.0,-21.0,0.0,-245.0,9776.0,9182.0,9406.0,-9.0,-3.0,18.0,2.0,5.0,3.0,2.0,-2.0,0.21434545516967773
105,-34.0,-76.0,-21.0,0.0,-245.0,9776.0,9182.0,9406.0,-3.0,-6.0,0.0,0.0,4.0,3.0,-3.0,0.0,0.21611642837524414
106,-55.0,-61.0,-17.0,0.0,-230.0,9780.0,9179.0,9404.0,-3.0,-6.0,0.0,0.0,4.0,3.0,-3.0,0.0,0.21788573265075684
107,-55.0,-61.0,-17.0,0.0,-230.0,9780.0,9179.0,9404.0,8.0,12.0,-9.0,-1.0,-2.0,-2.0,0.0,-1.0,0.2197248935699463
108,-55.0,-61.0,-17.0,0.0,-230.0,9780.0,9179.0,9404.0,1.0,6.0,6.0,0.0,-2.0,0.0,1.0,-2.0,0.22151517868041992
109,-56.0,-64.0,-19.0,0.0,-215.0,9787.0,9178.0,9399.0,1.0,6.0,6.0,0.0,-2.0,0.0,1.0,-2.0,0.22353696823120117
110,-56.0,-64.0,-19.0,0.0,-215.0,9787.0,9178.0,9399.0,-17.0,-11.0,1.0,-4.0,-13.0,-4.0,-4.0,-6.0,0.22542548179626465
111,-56.0,-64.0,-19.0,0.0,-215.0,9787.0,9178.0,9399.0,5.0,7.0,-19.0,-4.0,3.0,0.0,1.0,3.0,0.22718429565429688
112,-42.0,-73.0,10.0,0.0,-205.0,9798.0,9175.0,9391.0,5.0,7.0,-19.0,-4.0,3.0,0.0,1.0,3.0,0.22896718978881836
113,-42.0,-73.0,10.0,0.0,-205.0,9798.0,9175.0,9391.0,-3.0,-3.0,-1.0,-2.0,-5.0,1.0,-6.0,1.0,0.2308344841003418
114,-42.0,-73.0,10.0,0.0,-205.0,9798.0,9175.0,9391.0,1.0,2.0,19.0,-1.0,-5.0,-2.0,-3.0,0.0,0.23259282112121582
115,-34.0,-57.0,8.0,0.0,-199.0,9808.0,9171.0,9384.0,1.0,2.0,19.0,-1.0,-5.0,-2.0,-3.0,0.0,0.2343595027923584
116,-34.0,-57.0,8.0,0.0,-199.0,9808.0,9171.0,9384.0,0.0,-6.0,19.0,3.0,1.0,-1.0,0.0,1.0,0.23619890213012695
117,-34.0,-57.0,8.0,0.0,-199.0,9808.0,9171.0,9384.0,-4.0,-5.0,-13.0,-2.0,2.0,-3.0,-1.0,-9.0,0.23851966857910156
118,-7.0,-33.0,33.0,0.0,-198.0,9817.0,9169.0,9377.0,-4.0,-5.0,-13.0,-2.0,2.0,-3.0,-1.0,-9.0,0.24097967147827148
119,-7.0,-33.0,33.0,0.0,-198.0,9817.0,9169.0,9377.0,7.0,18.0,22.0,1.0,2.0,-2.0,-4.0,-3.0,0.24291586875915527
120,-7.0,-33.0,33.0,0.0,-198.0,9817.0,9169.0,9377.0,0.0,2.0,17.0,1.0,-3.0,-1.0,-2.0,-2.0,0.24622154235839844
121,-4.0,-25.0,42.0,0.0,-197.0,9826.0,9168.0,9368.0,0.0,2.0,17.0,1.0,-3.0,-1.0,-2.0,-2.0,0.24805402755737305
122,-4.0,-25.0,42.0,0.0,-197.0,9826.0,9168.0,9368.0,-4.0,-5.0,-16.0,-8.0,-16.0,-5.0,-1.0,-5.0,0.24989724159240723
123,-4.0,-25.0,42.0,0.0,-197.0,9826.0,9168.0,9368.0,-5.0,-5.0,-4.0,-2.0,-5.0,-2.0,-1.0,-1.0,0.2516961097717285
124,-52.0,-31.0,58.0,0.0,-192.0,9837.0,9161.0,9363.0,-5.0,-5.0,-4.0,-2.0,-5.0,-2.0,-1.0,-1.0,0.25347232818603516
125,-52.0,-31.0,58.0,0.0,-192.0,9837.0,9161.0,9363.0,-4.0,-7.0,8.0,4.0,4.0,0.0,-1.0,0.0,0.255307674407959
126,-52.0,-31.0,58.0,0.0,-192.0,9837.0,9161.0,9363.0,-4.0,-15.0,-10.0,-3.0,0.0,-1.0,-3.0,0.0,0.257338285446167
127,-39.0,-27.0,33.0,0.0,-190.0,9847.0,9156.0,9359.0,-4.0,-15.0,-10.0,-3.0,0.0,-1.0,-3.0,0.0,0.259124755859375
128,-39.0,-27.0,33.0,0.0,-190.0,9847.0,9156.0,9359.0,-9.0,-10.0,-18.0,0.0,8.0,6.0,1.0,-3.0,0.26096630096435547
129,-39.0,-27.0,33.0,0.0,-190.0,9847.0,9156.0,9359.0,-4.0,-19.0,21.0,6.0,4.0,1.0,0.0,-1.0,0.26273107528686523
130,-15.0,-19.0,25.0,0.0,-190.0,9855.0,9154.0,9352.0,-4.0,-19.0,21.0,6.0,4.0,1.0,0.0,-1.0,0.2645134925842285
131,-15.0,-19.0,25.0,0.0,-190.0,9855.0,9154.0,9352.0,16.0,18.0,-7.0,-1.0,-1.0,-3.0,-2.0,0.0,0.26636195182800293
132,-15.0,-19.0,25.0,0.0,-190.0,9855.0,9154.0,9352.0,-3.0,-5.0,9.0,1.0,1.0,-2.0,2.0,0.0,0.26827168464660645
133,39.0,-17.0,34.0,0.0,-196.0,9862.0,9156.0,9342.0,-3.0,-5.0,9.0,1.0,1.0,-2.0,2.0,0.0,0.27069711685180664
134,39.0,-17.0,34.0,0.0,-196.0,9862.0,9156.0,9342.0,-7.0,-8.0,-3.0,2.0,13.0,5.0,5.0,1.0,0.2728581428527832
135,39.0,-17.0,34.0,0.0,-196.0,9862.0,9156.0,9342.0,7.0,24.0,1.0,0.0,-9.0,0.0,1.0,2.0,0.2746434211730957
136,32.0,2.0,23.0,0.0,-201.0,9866.0,9160.0,9334.0,7.0,24.0,1.0,0.0,-9.0,0.0,1.0,2.0,0.2765336036682129
137,32.0,2.0,23.0,0.0,-201.0,9866.0,9160.0,9334.0,9.0,14.0,-21.0,-5.0,-3.0,-4.0,-3.0,2.0,0.279677152633667
138,32.0,2.0,23.0,0.0,-201.0,9866.0,9160.0,9334.0,0.0,-8.0,-39.0,-6.0,-2.0,-3.0,-2.0,-2.0,0.2814981937408447
139,8.0,19.0,20.0,0.0,-201.0,9866.0,9162.0,9332.0,0.0,-8.0,-39.0,-6.0,-2.0,-3.0,-2.0,-2.0,0.2832827568054199
140,8.0,19.0,20.0,0.0,-201.0,9866.0,9162.0,9332.0,-1.0,-8.0,2.0,-2.0,-11.0,1.0,-1.0,0.0,0.28513479232788086
141,8.0,19.0,20.0,0.0,-201.0,9866.0,9162.0,9332.0,-8.0,4.0,18.0,-6.0,-11.0,-6.0,-2.0,-1.0,0.28690361976623535
142,-21.0,-7.0,-2.0,0.0,-199.0,9869.0,9162.0,9329.0,-8.0,4.0,18.0,-6.0,-11.0,-6.0,-2.0,-1.0,0.28867578506469727
143,-21.0,-7.0,-2.0,0.0,-199.0,9869.0,9162.0,9329.0,1.0,4.0,16.0,3.0,5.0,-1.0,0.0,-1.0,0.29079222679138184
144,-21.0,-7.0,-2.0,0.0,-199.0,9869.0,9162.0,9329.0,1.0,2.0,-15.0,3.0,7.0,4.0,2.0,1.0,0.2925748825073242
145,31.0,-29.0,-14.0,0.0,-202.0,9875.0,9167.0,9318.0,1.0,2.0,-15.0,3.0,7.0,4.0,2.0,1.0,0.29434967041015625
146,31.0,-29.0,-14.0,0.0,-202.0,9875.0,9167.0,9318.0,-13.0,-36.0,7.0,-1.0,-9.0,-5.0,-1.0,-2.0,0.2961862087249756
147,31.0,-29.0,-14.0,0.0,-202.0,9875.0,9167.0,9318.0,0.0,-1.0,1.0,0.0,0.0,1.0,-1.0,-2.0,0.29798197746276855
148,16.0,-8.0,-9.0,0.0,-205.0,9877.0,9169.0,9314.0,0.0,-1.0,1.0,0.0,0.0,1.0,-1.0,-2.0,0.3002941608428955
149,16.0,-8.0,-9.0,0.0,-205.0,9877.0,9169.0,9314.0,-5.0,1.0,-2.0,1.0,1.0,0.0,-7.0,-1.0,0.30268144607543945
150,16.0,-8.0,-9.0,0.0,-205.0,9877.0,9169.0,9314.0,2.0,11.0,-1.0,4.0,6.0,1.0,-8.0,-1.0,0.304492712020874
151,69.0,8.0,-20.0,0.0,-210.0,9873.0,9179.0,9307.0,2.0,11.0,-1.0,4.0,6.0,1.0,-8.0,-1.0,0.306293249130249
152,69.0,8.0,-20.0,0.0,-210.0,9873.0,9179.0,9307.0,10.0,9.0,-7.0,1.0,4.0,3.0,0.0,2.0,0.3081350326538086
153,69.0,8.0,-20.0,0.0,-210.0,9873.0,9179.0,9307.0,-8.0,-20.0,-5.0,1.0,-11.0,1.0,-2.0,-3.0,0.31003880500793457
154,86.0,27.0,-28.0,0.0,-213.0,9866.0,9195.0,9299.0,-8.0,-20.0,-5.0,1.0,-11.0,1.0,-2.0,-3.0,0.3131232261657715
155,86.0,27.0,-28.0,0.0,-213.0,9866.0,9195.0,9299.0,-1.0,-2.0,8.0,1.0,-6.0,-5.0,1.0,0.0,0.3150475025177002
156,86.0,27.0,-28.0,0.0,-213.0,9866.0,9195.0,9299.0,-6.0,16.0,8.0,6.0,5.0,1.0,-3.0,2.0,0.3168165683746338
157,-3.0,26.0,-16.0,0.0,-209.0,9860.0,9199.0,9302.0,-6.0,16.0,8.0,6.0,5.0,1.0,-3.0,2.0,0.3185896873474121
158,-3.0,26.0,-16.0,0.0,-209.0,9860.0,9199.0,9302.0,4.0,2.0,-2.0,-2.0,-9.0,-6.0,-7.0,-3.0,0.3204197883605957
159,-3.0,26.0,-16.0,0.0,-209.0,9860.0,9199.0,9302.0,-8.0,-15.0,2.0,1.0,12.0,3.0,-3.0,-3.0,0.3221933841705322
160,-94.0,10.0,2.0,0.0,-200.0,9858.0,9188.0,9315.0,-8.0,-15.0,2.0,1.0,12.0,3.0,-3.0,-3.0,0.324246883392334
161,-94.0,10.0,2.0,0.0,-200.0,9858.0,9188.0,9315.0,11.0,12.0,-20.0,-11.0,-10.0,-1.0,6.0,1.0,0.32610440254211426
162,-94.0,10.0,2.0,0.0,-200.0,9858.0,9188.0,9315.0,6.0,-5.0,3.0,-2.0,3.0,-1.0,-4.0,0.0,0.32951927185058594
163,-96.0,10.0,2.0,0.0,-195.0,9859.0,9176.0,9325.0,6.0,-5.0,3.0,-2.0,3.0,-1.0,-4.0,0.0,0.33202195167541504
164,-96.0,10.0,2.0,0.0,-195.0,9859.0,9176.0,9325.0,-7.0,-6.0,1.0,0.0,-4.0,-3.0,-6.0,-2.0,0.3342921733856201
165,-96.0,10.0,2.0,0.0,-195.0,9859.0,9176.0,9325.0,5.0,33.0,-13.0,-10.0,-25.0,-5.0,4.0,2.0,0.3437650203704834
166,-32.0,12.0,9.0,0.0,-195.0,9859.0,9171.0,9330.0,5.0,33.0,-13.0,-10.0,-25.0,-5.0,4.0,2.0,0.34644317626953125
167,-32.0,12.0,9.0,0.0,-195.0,9859.0,9171.0,9330.0,-7.0,9.0,15.0,2.0,-2.0,2.0,-4.0,0.0,0.35108280181884766
168,-32.0,12.0,9.0,0.0,-195.0,9859.0,9171.0,9330.0,-1.0,-4.0,20.0,3.0,4.0,1.0,-5.0,-1.0,0.3672666549682617
169,-2.0,4.0,15.0,0.0,-194.0,9859.0,9172.0,9330.0,-1.0,-4.0,20.0,3.0,4.0,1.0,-5.0,-1.0,0.37041783332824707
170,-2.0,4.0,15.0,0.0,-194.0,9859.0,9172.0,9330.0,-4.0,-11.0,-11.0,-4.0,-1.0,-4.0,2.0,0.0,0.3739039897918701
171,-2.0,4.0,15.0,0.0,-194.0,9859.0,9172.0,9330.0,-1.0,-4.0,-1.0,3.0,4.0,4.0,3.0,-1.0,0.3899109363555908
172,-46.0,17.0,16.0,0.0,-189.0,9858.0,9168.0,9334.0,-1.0,-4.0,-1.0,3.0,4.0,4.0,3.0,-1.0,0.39193201065063477
173,-46.0,17.0,16.0,0.0,-189.0,9858.0,9168.0,9334.0,2.0,21.0,23.0,5.0,15.0,2.0,-2.0,1.0,0.39495205879211426
174,-46.0,17.0,16.0,0.0,-189.0,9858.0,9168.0,9334.0,6.0,9.0,-6.0,0.0,1.0,-1.0,0.0,-1.0,0.40439915657043457
175,-75.0,20.0,35.0,0.0,-184.0,9861.0,9160.0,9340.0,6.0,9.0,-6.0,0.0,1.0,-1.0,0.0,-1.0,0.40622544288635254
176,-75.0,20.0,35.0,0.0,-184.0,9861.0,9160.0,9340.0,-6.0,-1.0,2.0,3.0,12.0,2.0,-2.0,-4.0,0.41201305389404297
177,-75.0,20.0,35.0,0.0,-184.0,9861.0,9160.0,9340.0,1.0,22.0,2.0,4.0,10.0,3.0,-1.0,2.0,0.4276256561279297
178,-35.0,4.0,41.0,0.0,-185.0,9867.0,9154.0,9339.0,1.0,22.0,2.0,4.0,10.0,3.0,-1.0,2.0,0.4305143356323242
179,-35.0,4.0,41.0,0.0,-185.0,9867.0,9154.0,9339.0,5.0,5.0,-8.0,-2.0,-6.0,0.0,-1.0,0.0,0.4323861598968506
180,-35.0,4.0,41.0,0.0,-185.0,9867.0,9154.0,9339.0,1.0,-24.0,-3.0,-4.0,-8.0,1.0,0.0,-1.0,0.44947242736816406
181,16.0,10.0,35.0,0.0,-190.0,9870.0,9154.0,9335.0,1.0,-24.0,-3.0,-4.0,-8.0,1.0,0.0,-1.0,0.45125675201416016
182,16.0,10.0,35.0,0.0,-190.0,9870.0,9154.0,9335.0,2.0,-9.0,3.0,1.0,-7.0,2.0,-1.0,-1.0,0.45310235023498535
183,16.0,10.0,35.0,0.0,-190.0,9870.0,9154.0,9335.0,-3.0,-2.0,6.0,1.0,7.0,-1.0,-1.0,-2.0,0.4641733169555664
184,18.0,22.0,19.0,0.0,-191.0,9869.0,9158.0,9332.0,-3.0,-2.0,6.0,1.0,7.0,-1.0,-1.0,-2.0,0.4660048484802246
185,18.0,22.0,19.0,0.0,-191.0,9869.0,9158.0,9332.0,-5.0,-1.0,3.0,-5.0,-15.0,-2.0,-1.0,-1.0,0.4708383083343506
186,18.0,22.0,19.0,0.0,-191.0,9869.0,9158.0,9332.0,16.0,24.0,9.0,-5.0,-7.0,-4.0,0.0,2.0,0.4884922504425049
187,20.0,18.0,19.0,0.0,-193.0,9870.0,9163.0,9328.0,16.0,24.0,9.0,-5.0,-7.0,-4.0,0.0,2.0,0.4922807216644287
188,20.0,18.0,19.0,0.0,-193.0,9870.0,9163.0,9328.0,-1.0,5.0,-2.0,0.0,14.0,0.0,-1.0,-1.0,0.49659013748168945
189,20.0,18.0,19.0,0.0,-193.0,9870.0,9163.0,9328.0,-14.0,-23.0,0.0,1.0,3.0,1.0,-3.0,-1.0,0.5087902545928955
190,6.0,5.0,10.0,0.0,-192.0,9870.0,9163.0,9327.0,-14.0,-23.0,0.0,1.0,3.0,1.0,-3.0,-1.0,0.5119352340698242
191,6.0,5.0,10.0,0.0,-192.0,9870.0,9163.0,9327.0,6.0,9.0,-22.0,-8.0,-6.0,-4.0,4.0,2.0,0.5179746150970459
192,6.0,5.0,10.0,0.0,-192.0,9870.0,9163.0,9327.0,-6.0,-6.0,-5.0,-2.0,-1.0,-4.0,-4.0,-3.0,0.5246391296386719
193,31.0,0.0,18.0,0.0,-195.0,9873.0,9168.0,9319.0,-6.0,-6.0,-5.0,-2.0,-1.0,-4.0,-4.0,-3.0,0.5268599987030029
194,31.0,0.0,18.0,0.0,-195.0,9873.0,9168.0,9319.0,5.0,11.0,-1.0,5.0,12.0,7.0,-1.0,4.0,0.5310745239257812
195,31.0,0.0,18.0,0.0,-195.0,9873.0,9168.0,9319.0,-2.0,-18.0,-13.0,-12.0,-22.0,-10.0,-2.0,-3.0,0.5478618144989014
196,14.0,-7.0,38.0,0.0,-198.0,9878.0,9168.0,9313.0,-2.0,-18.0,-13.0,-12.0,-22.0,-10.0,-2.0,-3.0,0.5518319606781006
197,14.0,-7.0,38.0,0.0,-198.0,9878.0,9168.0,9313.0,-5.0,-4.0,12.0,0.0,-5.0,-2.0,-1.0,-3.0,0.5551590919494629
198,14.0,-7.0,38.0,0.0,-198.0,9878.0,9168.0,9313.0,3.0,11.0,-1.0,2.0,12.0,3.0,2.0,3.0,0.5688321590423584
199,-11.0,-12.0,19.0,0.0,-194.0,9881.0,9168.0,9311.0,3.0,11.0,-1.0,2.0,12.0,3.0,2.0,3.0,0.57063889503479
200,-11.0,-12.0,19.0,0.0,-194.0,9881.0,9168.0,9311.0,2.0,-22.0,3.0,1.0,4.0,-2.0,-2.0,1.0,0.5768229961395264
201,-11.0,-12.0,19.0,0.0,-194.0,9881.0,9168.0,9311.0,1.0,5.0,-21.0,-2.0,-7.0,-4.0,-3.0,-1.0,0.5846652984619141
202,-45.0,-12.0,9.0,0.0,-187.0,9882.0,9163.0,9315.0,1.0,5.0,-21.0,-2.0,-7.0,-4.0,-3.0,-1.0,0.5871262550354004
203,-45.0,-12.0,9.0,0.0,-187.0,9882.0,9163.0,9315.0,3.0,-11.0,-25.0,-2.0,-7.0,-2.0,-2.0,3.0,0.5908889770507812
204,-45.0,-12.0,9.0,0.0,-187.0,9882.0,9163.0,9315.0,-1.0,-1.0,11.0,-2.0,0.0,1.0,-2.0,-4.0,0.6070013046264648
205,-33.0,-13.0,5.0,0.0,-187.0,9887.0,9157.0,9315.0,-1.0,-1.0,11.0,-2.0,0.0,1.0,-2.0,-4.0,0.6105318069458008
206,-33.0,-13.0,5.0,0.0,-187.0,9887.0,9157.0,9315.0,-6.0,-6.0,-2.0,-6.0,-12.0,-5.0,1.0,-5.0,0.614206075668335
207,-33.0,-13.0,5.0,0.0,-187.0,9887.0,9157.0,9315.0,-3.0,1.0,-8.0,-1.0,-5.0,-2.0,-1.0,-2.0,0.6309306621551514
208,45.0,-12.0,6.0,0.0,-194.0,9892.0,9162.0,9305.0,-3.0,1.0,-8.0,-1.0,-5.0,-2.0,-1.0,-2.0,0.6343963146209717
209,45.0,-12.0,6.0,0.0,-194.0,9892.0,9162.0,9305.0,-3.0,-11.0,-3.0,-1.0,-7.0,1.0,-4.0,-2.0,0.6380345821380615
210,45.0,-12.0,6.0,0.0,-194.0,9892.0,9162.0,9305.0,2.0,-7.0,3.0,2.0,6.0,0.0,0.0,-1.0,0.6454203128814697
211,56.0,-8.0,-7.0,0.0,-196.0,9892.0,9172.0,9295.0,2.0,-7.0,3.0,2.0,6.0,0.0,0.0,-1.0,0.6474943161010742
212,56.0,-8.0,-7.0,0.0,-196.0,9892.0,9172.0,9295.0,6.0,19.0,6.0,-1.0,6.0,2.0,-2.0,2.0,0.6509761810302734
213,56.0,-8.0,-7.0,0.0,-196.0,9892.0,9172.0,9295.0,17.0,28.0,-8.0,7.0,16.0,6.0,-4.0,4.0,0.6665098667144775
214,13.0,1.0,-10.0,0.0,-195.0,9893.0,9172.0,9294.0,17.0,28.0,-8.0,7.0,16.0,6.0,-4.0,4.0,0.6683130264282227
215,13.0,1.0,-10.0,0.0,-195.0,9893.0,9172.0,9294.0,-2.0,10.0,12.0,-4.0,-12.0,-1.0,0.0,-2.0,0.6745188236236572
216,13.0,1.0,-10.0,0.0,-195.0,9893.0,9172.0,9294.0,-8.0,-10.0,9.0,-3.0,-12.0,-9.0,-2.0,0.0,0.6887950897216797
217,18.0,-7.0,-4.0,0.0,-198.0,9896.0,9175.0,9288.0,-8.0,-10.0,9.0,-3.0,-12.0,-9.0,-2.0,0.0,0.6923010349273682
218,18.0,-7.0,-4.0,0.0,-198.0,9896.0,9175.0,9288.0,0.0,-18.0,-10.0,-3.0,3.0,2.0,-1.0,-1.0,0.6963975429534912
219,18.0,-7.0,-4.0,0.0,-198.0,9896.0,9175.0,9288.0,-10.0,-24.0,1.0,1.0,5.0,1.0,2.0,-2.0,0.7057440280914307
220,43.0,9.0,-5.0,0.0,-206.0,9896.0,9180.0,9282.0,-10.0,-24.0,1.0,1.0,5.0,1.0,2.0,-2.0,0.7082874774932861
221,43.0,9.0,-5.0,0.0,-206.0,9896.0,9180.0,9282.0,-14.0,-25.0,-3.0,-9.0,-6.0,-6.0,-7.0,-4.0,0.7106509208679199
222,43.0,9.0,-5.0,0.0,-206.0,9896.0,9180.0,9282.0,6.0,14.0,15.0,2.0,2.0,3.0,1.0,0.0,0.7278258800506592
223,78.0,31.0,4.0,0.0,-217.0,9894.0,9188.0,9276.0,6.0,14.0,15.0,2.0,2.0,3.0,1.0,0.0,0.7313046455383301
224,78.0,31.0,4.0,0.0,-217.0,9894.0,9188.0,9276.0,5.0,18.0,27.0,2.0,-3.0,-1.0,1.0,0.0,0.7351846694946289
225,78.0,31.0,4.0,0.0,-217.0,9894.0,9188.0,9276.0,-1.0,3.0,17.0,-3.0,-5.0,-3.0,-1.0,-3.0,0.7491765022277832
226,59.0,29.0,9.0,0.0,-226.0,9891.0,9195.0,9272.0,-1.0,3.0,17.0,-3.0,-5.0,-3.0,-1.0,-3.0,0.751035213470459
227,59.0,29.0,9.0,0.0,-226.0,9891.0,9195.0,9272.0,5.0,13.0,11.0,0.0,-5.0,-1.0,1.0,3.0,0.756403923034668
228,59.0,29.0,9.0,0.0,-226.0,9891.0,9195.0,9272.0,3.0,-16.0,-12.0,0.0,0.0,2.0,-1.0,0.0,0.7641003131866455
229,36.0,15.0,12.0,0.0,-232.0,9891.0,9198.0,9270.0,3.0,-16.0,-12.0,0.0,0.0,2.0,-1.0,0.0,0.7665283679962158
230,36.0,15.0,12.0,0.0,-232.0,9891.0,9198.0,9270.0,-11.0,-16.0,-6.0,1.0,6.0,6.0,0.0,-3.0,0.7709941864013672
231,36.0,15.0,12.0,0.0,-232.0,9891.0,9198.0,9270.0,-5.0,-12.0,-12.0,-3.0,-2.0,-2.0,0.0,-2.0,0.7868449687957764
232,7.0,11.0,29.0,0.0,-235.0,9892.0,9196.0,9269.0,-5.0,-12.0,-12.0,-3.0,-2.0,-2.0,0.0,-2.0,0.795175313949585
233,7.0,11.0,29.0,0.0,-235.0,9892.0,9196.0,9269.0,0.0,12.0,-9.0,1.0,6.0,0.0,-2.0,2.0,0.8007609844207764
234,7.0,11.0,29.0,0.0,-235.0,9892.0,9196.0,9269.0,-4.0,0.0,-13.0,-4.0,-1.0,4.0,2.0,0.0,0.8092281818389893
235,-1.0,1.0,23.0,0.0,-236.0,9894.0,9194.0,9270.0,-4.0,0.0,-13.0,-4.0,-1.0,4.0,2.0,0.0,0.8123443126678467
236,-1.0,1.0,23.0,0.0,-236.0,9894.0,9194.0,9270.0,-8.0,-7.0,-5.0,-3.0,-7.0,-3.0,-1.0,-4.0,0.8160998821258545
237,-1.0,1.0,23.0,0.0,-236.0,9894.0,9194.0,9270.0,12.0,24.0,-23.0,5.0,10.0,3.0,-1.0,2.0,0.823838472366333
238,28.0,6.0,15.0,0.0,-242.0,9893.0,9194.0,9270.0,12.0,24.0,-23.0,5.0,10.0,3.0,-1.0,2.0,0.8319277763366699
239,28.0,6.0,15.0,0.0,-242.0,9893.0,9194.0,9270.0,-5.0,-32.0,-6.0,-1.0,4.0,2.0,-3.0,1.0,0.8338363170623779
240,28.0,6.0,15.0,0.0,-242.0,9893.0,9194.0,9270.0,-7.0,-12.0,-3.0,-6.0,-3.0,-5.0,-2.0,0.0,0.8477635383605957
241,83.0,6.0,2.0,0.0,-249.0,9892.0,9204.0,9261.0,-7.0,-12.0,-3.0,-6.0,-3.0,-5.0,-2.0,0.0,0.8509712219238281
242,83.0,6.0,2.0,0.0,-249.0,9892.0,9204.0,9261.0,3.0,10.0,-28.0,0.0,-3.0,-5.0,-1.0,0.0,0.8544795513153076
243,83.0,6.0,2.0,0.0,-249.0,9892.0,9204.0,9261.0,-5.0,5.0,33.0,3.0,-8.0,-4.0,-3.0,-3.0,0.8687448501586914
244,81.0,10.0,3.0,0.0,-253.0,9890.0,9217.0,9251.0,-5.0,5.0,33.0,3.0,-8.0,-4.0,-3.0,-3.0,0.8719897270202637
245,81.0,10.0,3.0,0.0,-253.0,9890.0,9217.0,9251.0,-2.0,6.0,1.0,-2.0,6.0,1.0,2.0,-2.0,0.876990556716919
246,81.0,10.0,3.0,0.0,-253.0,9890.0,9217.0,9251.0,-4.0,-6.0,0.0,-2.0,4.0,6.0,3.0,0.0,0.8829910755157471
247,68.0,13.0,2.0,0.0,-254.0,9887.0,9228.0,9243.0,-4.0,-6.0,0.0,-2.0,4.0,6.0,3.0,0.0,0.8919405937194824
248,68.0,13.0,2.0,0.0,-254.0,9887.0,9228.0,9243.0,4.0,0.0,14.0,0.0,-4.0,-5.0,-2.0,3.0,0.8957319259643555
249,68.0,13.0,2.0,0.0,-254.0,9887.0,9228.0,9243.0,-1.0,-6.0,-11.0,-9.0,-1.0,-6.0,-4.0,-5.0,0.9064915180206299
250,67.0,10.0,25.0,0.0,-256.0,9883.0,9236.0,9239.0,-1.0,-6.0,-11.0,-9.0,-1.0,-6.0,-4.0,-5.0,0.9083445072174072
251,67.0,10.0,25.0,0.0,-256.0,9883.0,9236.0,9239.0,0.0,8.0,0.0,-1.0,-15.0,-6.0,-3.0,-3.0,0.9133865833282471
252,67.0,10.0,25.0,0.0,-256.0,9883.0,9236.0,9239.0,-7.0,-14.0,0.0,0.0,-5.0,-2.0,-4.0,-1.0,0.9306492805480957
253,45.0,-22.0,1.0,0.0,-254.0,9881.0,9241.0,9236.0,-7.0,-14.0,0.0,0.0,-5.0,-2.0,-4.0,-1.0,0.934044361114502
254,45.0,-22.0,1.0,0.0,-254.0,9881.0,9241.0,9236.0,-3.0,-10.0,8.0,4.0,6.0,-5.0,-4.0,-2.0,0.9361367225646973
255,45.0,-22.0,1.0,0.0,-254.0,9881.0,9241.0,9236.0,-3.0,0.0,6.0,5.0,1.0,-2.0,-3.0,-1.0,0.9434161186218262
256,74.0,-35.0,-30.0,0.0,-253.0,9875.0,9249.0,9235.0,-3.0,0.0,6.0,5.0,1.0,-2.0,-3.0,-1.0,0.952033519744873
257,74.0,-35.0,-30.0,0.0,-253.0,9875.0,9249.0,9235.0,-6.0,1.0,1.0,5.0,9.0,5.0,-3.0,1.0,0.9545485973358154
258,74.0,-35.0,-30.0,0.0,-253.0,9875.0,9249.0,9235.0,-3.0,-10.0,-1.0,-3.0,6.0,-1.0,-3.0,-4.0,0.9667513370513916
259,141.0,-48.0,-97.0,0.0,-248.0,9860.0,9270.0,9230.0,-3.0,-10.0,-1.0,-3.0,6.0,-1.0,-3.0,-4.0,0.968621015548706
260,141.0,-48.0,-97.0,0.0,-248.0,9860.0,9270.0,9230.0,1.0,0.0,-1.0,-4.0,0.0,3.0,1.0,-2.0,0.9739587306976318
261,141.0,-48.0,-97.0,0.0,-248.0,9860.0,9270.0,9230.0,6.0,25.0,11.0,-6.0,-18.0,-3.0,-1.0,1.0,0.9888384342193604
262,170.0,-69.0,-142.0,0.0,-232.0,9839.0,9304.0,9219.0,6.0,25.0,11.0,-6.0,-18.0,-3.0,-1.0,1.0,0.9922139644622803
263,170.0,-69.0,-142.0,0.0,-232.0,9839.0,9304.0,9219.0,-1.0,-15.0,-8.0,1.0,-2.0,-2.0,1.0,-1.0,0.9975662231445312
264,170.0,-69.0,-142.0,0.0,-232.0,9839.0,9304.0,9219.0,-5.0,-28.0,-1.0,-12.0,6.0,2.0,1.0,-1.0,1.0042521953582764
265,160.0,-140.0,-194.0,0.0,-204.0,9822.0,9341.0,9200.0,-5.0,-28.0,-1.0,-12.0,6.0,2.0,1.0,-1.0,1.0114834308624268
266,160.0,-140.0,-194.0,0.0,-204.0,9822.0,9341.0,9200.0,-4.0,-13.0,-4.0,1.0,1.0,0.0,0.0,-3.0,1.0141966342926025
267,160.0,-140.0,-194.0,0.0,-204.0,9822.0,9341.0,9200.0,1.0,2.0,-11.0,19.0,15.0,8.0,0.0,-5.0,1.0273692607879639
268,147.0,-211.0,-274.0,0.0,-162.0,9804.0,9384.0,9176.0,1.0,2.0,-11.0,19.0,15.0,8.0,0.0,-5.0,1.0316429138183594
269,147.0,-211.0,-274.0,0.0,-162.0,9804.0,9384.0,9176.0,0.0,20.0,1.0,-3.0,-29.0,-12.0,3.0,0.0,1.0351884365081787
270,147.0,-211.0,-274.0,0.0,-162.0,9804.0,9384.0,9176.0,3.0,0.0,-46.0,4.0,17.0,2.0,-2.0,4.0,1.048858880996704
271,162.0,-251.0,-355.0,0.0,-105.0,9781.0,9440.0,9144.0,3.0,0.0,-46.0,4.0,17.0,2.0,-2.0,4.0,1.0507175922393799
272,162.0,-251.0,-355.0,0.0,-105.0,9781.0,9440.0,9144.0,3.0,-3.0,-3.0,-22.0,-1.0,-4.0,-4.0,-4.0,1.0562853813171387
273,162.0,-251.0,-355.0,0.0,-105.0,9781.0,9440.0,9144.0,9.0,26.0,40.0,-3.0,-22.0,-13.0,-11.0,-2.0,1.0641114711761475
274,320.0,-238.0,-392.0,0.0,-63.0,9751.0,9513.0,9101.0,9.0,26.0,40.0,-3.0,-22.0,-13.0,-11.0,-2.0,1.0711009502410889
275,320.0,-238.0,-392.0,0.0,-63.0,9751.0,9513.0,9101.0,-8.0,-19.0,-6.0,-9.0,-22.0,-5.0,-7.0,-4.0,1.073312520980835
276,320.0,-238.0,-392.0,0.0,-63.0,9751.0,9513.0,9101.0,-9.0,-20.0,5.0,-15.0,-2.0,10.0,3.0,1.0,1.0865612030029297
277,421.0,-163.0,-610.0,0.0,-11.0,9684.0,9620.0,9060.0,-9.0,-20.0,5.0,-15.0,-2.0,10.0,3.0,1.0,1.088343620300293
278,421.0,-163.0,-610.0,0.0,-11.0,9684.0,9620.0,9060.0,26.0,60.0,-9.0,6.0,9.0,5.0,2.0,8.0,1.0930578708648682
279,421.0,-163.0,-610.0,0.0,-11.0,9684.0,9620.0,9060.0,-16.0,0.0,14.0,22.0,-20.0,-12.0,-4.0,-7.0,1.1092488765716553
280,649.0,-80.0,-852.0,0.0,39.0,9581.0,9776.0,9002.0,-16.0,0.0,14.0,22.0,-20.0,-12.0,-4.0,-7.0,1.1129209995269775
281,649.0,-80.0,-852.0,0.0,39.0,9581.0,9776.0,9002.0,3.0,6.0,16.0,4.0,17.0,17.0,10.0,-4.0,1.1163842678070068
282,649.0,-80.0,-852.0,0.0,39.0,9581.0,9776.0,9002.0,3.0,-4.0,9.0,12.0,-12.0,0.0,7.0,4.0,1.1235401630401611
283,631.0,-41.0,-1053.0,0.0,154.0,9422.0,9963.0,8964.0,3.0,-4.0,9.0,12.0,-12.0,0.0,7.0,4.0,1.1314926147460938
284,631.0,-41.0,-1053.0,0.0,154.0,9422.0,9963.0,8964.0,-10.0,6.0,15.0,1.0,2.0,-8.0,4.0,1.0,1.1333847045898438
285,631.0,-41.0,-1053.0,0.0,154.0,9422.0,9963.0,8964.0,-4.0,-14.0,-16.0,-36.0,-37.0,-20.0,-11.0,-5.0,1.1478595733642578
286,187.0,16.0,-1279.0,0.0,338.0,9216.0,10117.0,9000.0,-4.0,-14.0,-16.0,-36.0,-37.0,-20.0,-11.0,-5.0,1.1512796878814697
287,187.0,16.0,-1279.0,0.0,338.0,9216.0,10117.0,9000.0,-13.0,-15.0,37.0,5.0,17.0,0.0,-6.0,-5.0,1.154789686203003
288,187.0,16.0,-1279.0,0.0,338.0,9216.0,10117.0,9000.0,28.0,26.0,-8.0,35.0,84.0,21.0,19.0,9.0,1.1710255146026611
289,-197.0,178.0,-1487.0,0.0,567.0,8964.0,10248.0,9094.0,28.0,26.0,-8.0,35.0,84.0,21.0,19.0,9.0,1.1752755641937256
290,-197.0,178.0,-1487.0,0.0,567.0,8964.0,10248.0,9094.0,-15.0,-38.0,14.0,-4.0,-38.0,-5.0,19.0,2.0,1.1804141998291016
291,-197.0,178.0,-1487.0,0.0,567.0,8964.0,10248.0,9094.0,-23.0,-33.0,-32.0,15.0,12.0,12.0,1.0,0.0,1.193269968032837
292,-794.0,232.0,-1546.0,0.0,887.0,8682.0,10344.0,9232.0,-23.0,-33.0,-32.0,15.0,12.0,12.0,1.0,0.0,1.1971359252929688
293,-794.0,232.0,-1546.0,0.0,887.0,8682.0,10344.0,9232.0,-24.0,-19.0,-16.0,1.0,37.0,17.0,-5.0,-10.0,1.2013261318206787
294,-794.0,232.0,-1546.0,0.0,887.0,8682.0,10344.0,9232.0,31.0,35.0,-25.0,-19.0,-8.0,1.0,3.0,6.0,1.206350564956665
295,-1248.0,324.0,-1825.0,0.0,1175.0,8413.0,10396.0,9390.0,31.0,35.0,-25.0,-19.0,-8.0,1.0,3.0,6.0,1.2081165313720703
296,-1248.0,324.0,-1825.0,0.0,1175.0,8413.0,10396.0,9390.0,20.0,50.0,-10.0,-24.0,-8.0,-15.0,-10.0,5.0,1.2138264179229736
297,-1248.0,324.0,-1825.0,0.0,1175.0,8413.0,10396.0,9390.0,-3.0,8.0,-9.0,-4.0,15.0,7.0,2.0,1.0,1.2297439575195312
298,-1353.0,364.0,-2026.0,0.0,1478.0,8113.0,10443.0,9557.0,-3.0,8.0,-9.0,-4.0,15.0,7.0,2.0,1.0,1.2334966659545898
299,-1353.0,364.0,-2026.0,0.0,1478.0,8113.0,10443.0,9557.0,8.0,-29.0,-10.0,6.0,3.0,-2.0,-6.0,1.0,1.237011194229126
300,-1353.0,364.0,-2026.0,0.0,1478.0,8113.0,10443.0,9557.0,-11.0,2.0,26.0,-12.0,-34.0,-10.0,-7.0,-5.0,1.2535834312438965
301,-1559.0,463.0,-2294.0,0.0,1815.0,7763.0,10485.0,9742.0,-11.0,2.0,26.0,-12.0,-34.0,-10.0,-7.0,-5.0,1.257411241531372
302,-1559.0,463.0,-2294.0,0.0,1815.0,7763.0,10485.0,9742.0,35.0,67.0,-23.0,13.0,3.0,9.0,12.0,7.0,1.2619578838348389
303,-1559.0,463.0,-2294.0,0.0,1815.0,7763.0,10485.0,9742.0,-6.0,-28.0,3.0,5.0,-10.0,1.0,-1.0,-4.0,1.266343355178833
304,-2059.0,498.0,-2695.0,0.0,2230.0,7346.0,10498.0,9963.0,-6.0,-28.0,3.0,5.0,-10.0,1.0,-1.0,-4.0,1.2681028842926025
305,-2059.0,498.0,-2695.0,0.0,2230.0,7346.0,10498.0,9963.0,-11.0,-24.0,-8.0,8.0,-4.0,1.0,-4.0,-7.0,1.2734463214874268
306,-2059.0,498.0,-2695.0,0.0,2230.0,7346.0,10498.0,9963.0,-4.0,-9.0,-2.0,27.0,2.0,-5.0,2.0,1.0,1.2888636589050293
307,-2442.0,504.0,-3023.0,0.0,2698.0,6876.0,10482.0,10197.0,-4.0,-9.0,-2.0,27.0,2.0,-5.0,2.0,1.0,1.2930934429168701
308,-2442.0,504.0,-3023.0,0.0,2698.0,6876.0,10482.0,10197.0,-1.0,12.0,5.0,12.0,-4.0,-7.0,-1.0,-2.0,1.2980902194976807
309,-2442.0,504.0,-3023.0,0.0,2698.0,6876.0,10482.0,10197.0,-8.0,-15.0,5.0,-24.0,-33.0,-11.0,-9.0,-7.0,1.3122680187225342
310,-2709.0,507.0,-3370.0,0.0,3208.0,6355.0,10440.0,10427.0,-8.0,-15.0,5.0,-24.0,-33.0,-11.0,-9.0,-7.0,1.3145124912261963
311,-2709.0,507.0,-3370.0,0.0,3208.0,6355.0,10440.0,10427.0,-17.0,-29.0,-9.0,-13.0,5.0,4.0,-1.0,-3.0,1.316580057144165
312,-2709.0,507.0,-3370.0,0.0,3208.0,6355.0,10440.0,10427.0,10.0,13.0,-17.0,-19.0,9.0,0.0,3.0,2.0,1.3284130096435547
313,-2921.0,696.0,-3675.0,0.0,3730.0,5762.0,10380.0,10656.0,10.0,13.0,-17.0,-19.0,9.0,0.0,3.0,2.0,1.3315722942352295
314,-2921.0,696.0,-3675.0,0.0,3730.0,5762.0,10380.0,10656.0,-2.0,25.0,1.0,-21.0,2.0,-2.0,-5.0,-1.0,1.3335862159729004
315,-2921.0,696.0,-3675.0,0.0,3730.0,5762.0,10380.0,10656.0,-6.0,1.0,21.0,-9.0,-2.0,-3.0,0.0,-3.0,1.3488316535949707
316,-3038.0,759.0,-3853.0,0.0,4251.0,5134.0,10297.0,10860.0,-6.0,1.0,21.0,-9.0,-2.0,-3.0,0.0,-3.0,1.3519330024719238
317,-3038.0,759.0,-3853.0,0.0,4251.0,5134.0,10297.0,10860.0,-13.0,-28.0,-11.0,27.0,-6.0,0.0,2.0,-3.0,1.3580503463745117
318,-3038.0,759.0,-3853.0,0.0,4251.0,5134.0,10297.0,10860.0,2.0,-6.0,5.0,8.0,-1.0,-4.0,-4.0,1.0,1.3732860088348389
319,-3123.0,449.0,-4102.0,0.0,4824.0,4500.0,10175.0,11016.0,2.0,-6.0,5.0,8.0,-1.0,-4.0,-4.0,1.0,1.376495122909546
320,-3123.0,449.0,-4102.0,0.0,4824.0,4500.0,10175.0,11016.0,3.0,-5.0,5.0,2.0,4.0,6.0,-1.0,1.0,1.3797612190246582
321,-3123.0,449.0,-4102.0,0.0,4824.0,4500.0,10175.0,11016.0,2.0,-3.0,-13.0,-13.0,8.0,3.0,-2.0,2.0,1.3879687786102295
322,-3266.0,429.0,-4149.0,0.0,5399.0,3839.0,10004.0,11155.0,2.0,-3.0,-13.0,-13.0,8.0,3.0,-2.0,2.0,1.389974594116211
323,-3266.0,429.0,-4149.0,0.0,5399.0,3839.0,10004.0,11155.0,0.0,-9.0,7.0,-21.0,1.0,-2.0,1.0,3.0,1.3931174278259277
324,-3266.0,429.0,-4149.0,0.0,5399.0,3839.0,10004.0,11155.0,-3.0,23.0,8.0,16.0,-2.0,-1.0,0.0,1.0,1.4090378284454346
325,-3393.0,600.0,-4308.0,0.0,5963.0,3120.0,9807.0,11267.0,-3.0,23.0,8.0,16.0,-2.0,-1.0,0.0,1.0,1.4108664989471436
326,-3393.0,600.0,-4308.0,0.0,5963.0,3120.0,9807.0,11267.0,-11.0,-29.0,0.0,39.0,-8.0,-1.0,1.0,-4.0,1.4170758724212646
327,-3393.0,600.0,-4308.0,0.0,5963.0,3120.0,9807.0,11267.0,4.0,10.0,-5.0,26.0,-2.0,-4.0,-2.0,-2.0,1.43300461769104
328,-3298.0,652.0,-4443.0,0.0,6512.0,2379.0,9596.0,11326.0,4.0,10.0,-5.0,26.0,-2.0,-4.0,-2.0,-2.0,1.4363651275634766
329,-3298.0,652.0,-4443.0,0.0,6512.0,2379.0,9596.0,11326.0,10.0,11.0,3.0,10.0,-1.0,-1.0,-1.0,3.0,1.4400711059570312
330,-3298.0,652.0,-4443.0,0.0,6512.0,2379.0,9596.0,11326.0,-4.0,3.0,4.0,-1.0,-1.0,3.0,-1.0,0.0,1.4471285343170166
331,-3298.0,719.0,-4419.0,0.0,7027.0,1626.0,9354.0,11353.0,-4.0,3.0,4.0,-1.0,-1.0,3.0,-1.0,0.0,1.4496002197265625
332,-3298.0,719.0,-4419.0,0.0,7027.0,1626.0,9354.0,11353.0,-5.0,-8.0,-1.0,-17.0,-4.0,-5.0,-3.0,-1.0,1.4535980224609375
333,-3298.0,719.0,-4419.0,0.0,7027.0,1626.0,9354.0,11353.0,0.0,-6.0,5.0,-14.0,2.0,-1.0,-4.0,-1.0,1.4691452980041504
334,-3254.0,725.0,-4427.0,0.0,7524.0,862.0,9084.0,11338.0,0.0,-6.0,5.0,-14.0,2.0,-1.0,-4.0,-1.0,1.4709832668304443
335,-3254.0,725.0,-4427.0,0.0,7524.0,862.0,9084.0,11338.0,3.0,14.0,-5.0,-10.0,1.0,0.0,6.0,-2.0,1.4761979579925537
336,-3254.0,725.0,-4427.0,0.0,7524.0,862.0,9084.0,11338.0,-1.0,-10.0,-19.0,-14.0,2.0,2.0,1.0,-1.0,1.4927246570587158
337,-2916.0,697.0,-4494.0,0.0,8007.0,114.0,8820.0,11246.0,-1.0,-10.0,-19.0,-14.0,2.0,2.0,1.0,-1.0,1.4957070350646973
338,-2916.0,697.0,-4494.0,0.0,8007.0,114.0,8820.0,11246.0,1.0,-11.0,3.0,0.0,1.0,0.0,-5.0,2.0,1.4988152980804443
339,-2916.0,697.0,-4494.0,0.0,8007.0,114.0,8820.0,11246.0,3.0,5.0,23.0,1.0,-1.0,-4.0,-6.0,-3.0,1.5062150955200195
340,-2485.0,609.0,-4628.0,0.0,8491.0,-602.0,8572.0,11066.0,3.0,5.0,23.0,1.0,-1.0,-4.0,-6.0,-3.0,1.5105905532836914
341,-2485.0,609.0,-4628.0,0.0,8491.0,-602.0,8572.0,11066.0,4.0,-9.0,-11.0,-7.0,-4.0,-1.0,-6.0,0.0,1.513261079788208
342,-2485.0,609.0,-4628.0,0.0,8491.0,-602.0,8572.0,11066.0,-4.0,-7.0,3.0,5.0,0.0,-2.0,0.0,0.0,1.5300805568695068
343,-2130.0,534.0,-4799.0,0.0,8980.0,-1295.0,8332.0,10802.0,-4.0,-7.0,3.0,5.0,0.0,-2.0,0.0,0.0,1.5319342613220215
344,-2130.0,534.0,-4799.0,0.0,8980.0,-1295.0,8332.0,10802.0,1.0,-7.0,-28.0,-2.0,3.0,0.0,1.0,-1.0,1.5357139110565186
345,-2130.0,534.0,-4799.0,0.0,8980.0,-1295.0,8332.0,10802.0,-6.0,-9.0,-6.0,-4.0,-2.0,0.0,2.0,-2.0,1.5520555973052979
346,-1873.0,472.0,-4857.0,0.0,9456.0,-1957.0,8089.0,10475.0,-6.0,-9.0,-6.0,-4.0,-2.0,0.0,2.0,-2.0,1.5539090633392334
347,-1873.0,472.0,-4857.0,0.0,9456.0,-1957.0,8089.0,10475.0,1.0,5.0,3.0,-2.0,-2.0,-1.0,-1.0,0.0,1.5559749603271484
348,-1873.0,472.0,-4857.0,0.0,9456.0,-1957.0,8089.0,10475.0,-3.0,-1.0,-10.0,-2.0,0.0,0.0,-1.0,0.0,1.5667133331298828
349,-1945.0,373.0,-4793.0,0.0,9902.0,-2607.0,7805.0,10131.0,-3.0,-1.0,-10.0,-2.0,0.0,0.0,-1.0,0.0,1.568608283996582
350,-1945.0,373.0,-4793.0,0.0,9902.0,-2607.0,7805.0,10131.0,12.0,5.0,23.0,8.0,3.0,3.0,0.0,-2.0,1.5813837051391602
351,-1945.0,373.0,-4793.0,0.0,9902.0,-2607.0,7805.0,10131.0,-5.0,-15.0,27.0,2.0,1.0,5.0,15.0,5.0,1.589111089706421
352,-2318.0,311.0,-4599.0,0.0,10294.0,-3267.0,7451.0,9811.0,-5.0,-15.0,27.0,2.0,1.0,5.0,15.0,5.0,1.5910978317260742
353,-2318.0,311.0,-4599.0,0.0,10294.0,-3267.0,7451.0,9811.0,-7.0,-4.0,10.0,1.0,-5.0,-3.0,-4.0,1.0,1.5957515239715576
354,-2318.0,311.0,-4599.0,0.0,10294.0,-3267.0,7451.0,9811.0,9.0,10.0,0.0,-4.0,-5.0,-3.0,-9.0,-6.0,1.6130523681640625
355,-2717.0,281.0,-4346.0,0.0,10620.0,-3945.0,7030.0,9520.0,9.0,10.0,0.0,-4.0,-5.0,-3.0,-9.0,-6.0,1.6148910522460938
356,-2717.0,281.0,-4346.0,0.0,10620.0,-3945.0,7030.0,9520.0,-14.0,-12.0,5.0,8.0,17.0,0.0,-21.0,-14.0,1.6167449951171875
357,-2717.0,281.0,-4346.0,0.0,10620.0,-3945.0,7030.0,9520.0,-13.0,-7.0,-10.0,-12.0,-51.0,-19.0,-33.0,-11.0,1.6268203258514404
358,-3139.0,169.0,-4032.0,0.0,10875.0,-4637.0,6538.0,9268.0,-13.0,-7.0,-10.0,-12.0,-51.0,-19.0,-33.0,-11.0,1.6286585330963135
359,-3139.0,169.0,-4032.0,0.0,10875.0,-4637.0,6538.0,9268.0,0.0,6.0,19.0,15.0,63.0,20.0,-3.0,0.0,1.6340093612670898
360,-3139.0,169.0,-4032.0,0.0,10875.0,-4637.0,6538.0,9268.0,18.0,22.0,5.0,3.0,-10.0,14.0,27.0,10.0,1.648733377456665
361,-3314.0,282.0,-3657.0,0.0,11044.0,-5337.0,6037.0,9029.0,18.0,22.0,5.0,3.0,-10.0,14.0,27.0,10.0,1.6505117416381836
362,-3314.0,282.0,-3657.0,0.0,11044.0,-5337.0,6037.0,9029.0,7.0,14.0,-59.0,-12.0,17.0,17.0,-2.0,-8.0,1.6560993194580078
363,-3314.0,282.0,-3657.0,0.0,11044.0,-5337.0,6037.0,9029.0,-2.0,-26.0,-28.0,10.0,-2.0,5.0,19.0,6.0,1.672029972076416
364,-2951.0,801.0,-3295.0,0.0,11139.0,-6025.0,5624.0,8742.0,-2.0,-26.0,-28.0,10.0,-2.0,5.0,19.0,6.0,1.674553394317627
365,-2951.0,801.0,-3295.0,0.0,11139.0,-6025.0,5624.0,8742.0,-20.0,-19.0,15.0,-14.0,-65.0,-27.0,3.0,-6.0,1.6789600849151611
366,-2951.0,801.0,-3295.0,0.0,11139.0,-6025.0,5624.0,8742.0,8.0,25.0,1.0,-22.0,16.0,-9.0,-29.0,-13.0,1.686263084411621
367,-1704.0,1126.0,-3207.0,0.0,11254.0,-6531.0,5383.0,8375.0,8.0,25.0,1.0,-22.0,16.0,-9.0,-29.0,-13.0,1.6880319118499756
368,-1704.0,1126.0,-3207.0,0.0,11254.0,-6531.0,5383.0,8375.0,21.0,55.0,21.0,1.0,45.0,8.0,28.0,2.0,1.6938350200653076
369,-1704.0,1126.0,-3207.0,0.0,11254.0,-6531.0,5383.0,8375.0,-9.0,-26.0,91.0,13.0,36.0,25.0,49.0,69.0,1.7093501091003418
370,-630.0,1290.0,-2577.0,0.0,11362.0,-6874.0,5298.0,8000.0,-9.0,-26.0,91.0,13.0,36.0,25.0,49.0,69.0,1.7142024040222168
371,-630.0,1290.0,-2577.0,0.0,11362.0,-6874.0,5298.0,8000.0,2.0,48.0,74.0,11.0,30.0,-13.0,-72.0,13.0,1.7177424430847168
372,-630.0,1290.0,-2577.0,0.0,11362.0,-6874.0,5298.0,8000.0,12.0,51.0,-51.0,2.0,2.0,-20.0,-21.0,-38.0,1.7319753170013428
373,550.0,1323.0,-1572.0,0.0,11461.0,-7010.0,5391.0,7672.0,12.0,51.0,-51.0,2.0,2.0,-20.0,-21.0,-38.0,1.7337610721588135
374,550.0,1323.0,-1572.0,0.0,11461.0,-7010.0,5391.0,7672.0,1.0,-29.0,-41.0,-19.0,-32.0,-17.0,0.0,0.0,1.7355918884277344
375,550.0,1323.0,-1572.0,0.0,11461.0,-7010.0,5391.0,7672.0,-20.0,10.0,-19.0,-3.0,6.0,14.0,33.0,-26.0,1.7563059329986572
376,839.0,845.0,-1161.0,0.0,11571.0,-7042.0,5477.0,7412.0,-20.0,10.0,-19.0,-3.0,6.0,14.0,33.0,-26.0,1.7612667083740234
377,839.0,845.0,-1161.0,0.0,11571.0,-7042.0,5477.0,7412.0,-5.0,-24.0,-40.0,-4.0,-47.0,-80.0,-78.0,9.0,1.7653629779815674
378,839.0,845.0,-1161.0,0.0,11571.0,-7042.0,5477.0,7412.0,14.0,0.0,1.0,5.0,-12.0,-6.0,-6.0,-12.0,1.7687897682189941
379,643.0,535.0,60.0,0.0,11690.0,-7063.0,5403.0,7258.0,14.0,0.0,1.0,5.0,-12.0,-6.0,-6.0,-12.0,1.7705738544464111
380,643.0,535.0,60.0,0.0,11690.0,-7063.0,5403.0,7258.0,14.0,7.0,-12.0,0.0,-23.0,29.0,2.0,-23.0,1.7765498161315918
381,643.0,535.0,60.0,0.0,11690.0,-7063.0,5403.0,7258.0,-13.0,-16.0,23.0,18.0,59.0,8.0,6.0,14.0,1.7921900749206543
382,2.0,178.0,1206.0,0.0,11663.0,-7115.0,5347.0,7292.0,-13.0,-16.0,23.0,18.0,59.0,8.0,6.0,14.0,1.7961571216583252
383,2.0,178.0,1206.0,0.0,11663.0,-7115.0,5347.0,7292.0,3.0,-14.0,-7.0,-1.0,-9.0,23.0,38.0,8.0,1.799729824066162
384,2.0,178.0,1206.0,0.0,11663.0,-7115.0,5347.0,7292.0,-4.0,-14.0,-10.0,-12.0,-20.0,-10.0,-16.0,6.0,1.8061442375183105
385,-292.0,-326.0,2637.0,0.0,11463.0,-7010.0,5442.0,7634.0,-4.0,-14.0,-10.0,-12.0,-20.0,-10.0,-16.0,6.0,1.8138105869293213
386,-292.0,-326.0,2637.0,0.0,11463.0,-7010.0,5442.0,7634.0,-12.0,-11.0,1.0,-6.0,-28.0,-36.0,10.0,-12.0,1.8158316612243652
387,-292.0,-326.0,2637.0,0.0,11463.0,-7010.0,5442.0,7634.0,4.0,-12.0,-3.0,-8.0,-27.0,-11.0,4.0,-4.0,1.8370318412780762
388,-129.0,-761.0,3761.0,0.0,11189.0,-6766.0,5588.0,8137.0,4.0,-12.0,-3.0,-8.0,-27.0,-11.0,4.0,-4.0,1.8388142585754395
389,-129.0,-761.0,3761.0,0.0,11189.0,-6766.0,5588.0,8137.0,4.0,-12.0,-3.0,-8.0,-27.0,-11.0,4.0,-4.0,1.8409545421600342
390,-129.0,-761.0,3761.0,0.0,11189.0,-6766.0,5588.0,8137.0,4.0,4.0,2.0,8.0,9.0,-11.0,-53.0,-16.0,1.852454423904419
391,-129.0,-761.0,3761.0,0.0,11189.0,-6766.0,5588.0,8137.0,-7.0,-4.0,-2.0,2.0,-1.0,-19.0,-22.0,-16.0,1.8542752265930176
392,307.0,-949.0,4650.0,0.0,10848.0,-6374.0,5822.0,8730.0,-7.0,-4.0,-2.0,2.0,-1.0,-19.0,-22.0,-16.0,1.8560700416564941
393,307.0,-949.0,4650.0,0.0,10848.0,-6374.0,5822.0,8730.0,-15.0,-18.0,-15.0,-8.0,-3.0,33.0,49.0,-4.0,1.8579390048980713
394,307.0,-949.0,4650.0,0.0,10848.0,-6374.0,5822.0,8730.0,-5.0,-4.0,-4.0,3.0,10.0,4.0,-15.0,2.0,1.8656888008117676
395,622.0,-955.0,5593.0,0.0,10400.0,-5849.0,6144.0,9397.0,-5.0,-4.0,-4.0,3.0,10.0,4.0,-15.0,2.0,1.8750672340393066
396,622.0,-955.0,5593.0,0.0,10400.0,-5849.0,6144.0,9397.0,10.0,18.0,22.0,35.0,28.0,-2.0,31.0,21.0,1.878399133682251
397,622.0,-955.0,5593.0,0.0,10400.0,-5849.0,6144.0,9397.0,18.0,17.0,6.0,0.0,-8.0,-3.0,34.0,13.0,1.8897976875305176
398,1000.0,-1160.0,6475.0,0.0,9846.0,-5170.0,6521.0,10111.0,18.0,17.0,6.0,0.0,-8.0,-3.0,34.0,13.0,1.8917953968048096
399,1000.0,-1160.0,6475.0,0.0,9846.0,-5170.0,6521.0,10111.0,-20.0,-19.0,-9.0,-14.0,-11.0,10.0,18.0,-4.0,1.8963656425476074
400,1000.0,-1160.0,6475.0,0.0,9846.0,-5170.0,6521.0,10111.0,20.0,8.0,42.0,-4.0,2.0,8.0,-6.0,2.0,1.9135499000549316
401,1583.0,-1519.0,6988.0,0.0,9232.0,-4308.0,6921.0,10804.0,20.0,8.0,42.0,-4.0,2.0,8.0,-6.0,2.0,1.9165599346160889
402,1583.0,-1519.0,6988.0,0.0,9232.0,-4308.0,6921.0,10804.0,-5.0,3.0,-19.0,-7.0,10.0,13.0,2.0,4.0,1.9188876152038574
403,1583.0,-1519.0,6988.0,0.0,9232.0,-4308.0,6921.0,10804.0,0.0,-8.0,-17.0,-2.0,6.0,19.0,-14.0,-6.0,1.9261860847473145
404,2150.0,-1808.0,6706.0,0.0,8651.0,-3361.0,7284.0,11367.0,0.0,-8.0,-17.0,-2.0,6.0,19.0,-14.0,-6.0,1.933861494064331
405,2150.0,-1808.0,6706.0,0.0,8651.0,-3361.0,7284.0,11367.0,9.0,0.0,6.0,8.0,-10.0,-12.0,-9.0,18.0,1.9357054233551025
406,2150.0,-1808.0,6706.0,0.0,8651.0,-3361.0,7284.0,11367.0,-35.0,-6.0,-14.0,6.0,-13.0,-14.0,-46.0,-13.0,1.9488561153411865
407,2347.0,-1435.0,6068.0,0.0,8078.0,-2473.0,7642.0,11774.0,-35.0,-6.0,-14.0,6.0,-13.0,-14.0,-46.0,-13.0,1.9506473541259766
408,2347.0,-1435.0,6068.0,0.0,8078.0,-2473.0,7642.0,11774.0,-9.0,-42.0,-54.0,-18.0,-1.0,25.0,-1.0,-3.0,1.9562420845031738
409,2347.0,-1435.0,6068.0,0.0,8078.0,-2473.0,7642.0,11774.0,43.0,76.0,7.0,-21.0,-2.0,-7.0,-6.0,-1.0,1.9738962650299072
410,2321.0,-1050.0,6642.0,0.0,7353.0,-1575.0,8003.0,12158.0,43.0,76.0,7.0,-21.0,-2.0,-7.0,-6.0,-1.0,1.978356122970581
411,2321.0,-1050.0,6642.0,0.0,7353.0,-1575.0,8003.0,12158.0,8.0,3.0,-30.0,-8.0,-45.0,-6.0,5.0,-12.0,1.9817676544189453
412,2321.0,-1050.0,6642.0,0.0,7353.0,-1575.0,8003.0,12158.0,-36.0,-33.0,43.0,42.0,-11.0,11.0,4.0,-10.0,1.9857137203216553
413,3938.0,-941.0,5325.0,0.0,6778.0,-668.0,8519.0,12225.0,-36.0,-33.0,43.0,42.0,-11.0,11.0,4.0,-10.0,1.9939115047454834
414,3938.0,-941.0,5325.0,0.0,6778.0,-668.0,8519.0,12225.0,14.0,8.0,10.0,66.0,50.0,3.0,15.0,-8.0,1.99574613571167
415,3938.0,-941.0,5325.0,0.0,6778.0,-668.0,8519.0,12225.0,26.0,-4.0,-11.0,-31.0,1.0,-22.0,-55.0,17.0,2.009061574935913
416,4868.0,-877.0,4175.0,0.0,6322.0,196.0,9111.0,12058.0,26.0,-4.0,-11.0,-31.0,1.0,-22.0,-55.0,17.0,2.0121965408325195
417,4868.0,-877.0,4175.0,0.0,6322.0,196.0,9111.0,12058.0,66.0,39.0,63.0,48.0,72.0,10.0,-31.0,29.0,2.015986204147339
418,4868.0,-877.0,4175.0,0.0,6322.0,196.0,9111.0,12058.0,1.0,26.0,47.0,6.0,-42.0,43.0,65.0,8.0,2.03255033493042
419,4273.0,-701.0,3069.0,0.0,5969.0,887.0,9602.0,11823.0,1.0,26.0,47.0,6.0,-42.0,43.0,65.0,8.0,2.0350537300109863
420,4273.0,-701.0,3069.0,0.0,5969.0,887.0,9602.0,11823.0,-31.0,-44.0,-108.0,-116.0,-61.0,-17.0,4.0,-27.0,2.0370023250579834
421,4273.0,-701.0,3069.0,0.0,5969.0,887.0,9602.0,11823.0,24.0,-66.0,26.0,40.0,40.0,-39.0,-4.0,2.0,2.0471255779266357
422,2449.0,-434.0,2275.0,0.0,5693.0,1340.0,9861.0,11703.0,24.0,-66.0,26.0,40.0,40.0,-39.0,-4.0,2.0,2.0540809631347656
423,2449.0,-434.0,2275.0,0.0,5693.0,1340.0,9861.0,11703.0,-7.0,63.0,62.0,22.0,68.0,69.0,36.0,14.0,2.0562009811401367
424,2449.0,-434.0,2275.0,0.0,5693.0,1340.0,9861.0,11703.0,-10.0,16.0,38.0,21.0,-36.0,-74.0,11.0,3.0,2.0698611736297607
425,1488.0,-193.0,2144.0,0.0,5409.0,1691.0,10022.0,11655.0,-10.0,16.0,38.0,21.0,-36.0,-74.0,11.0,3.0,2.0786004066467285
426,1488.0,-193.0,2144.0,0.0,5409.0,1691.0,10022.0,11655.0,-23.0,-30.0,0.0,-21.0,31.0,26.0,44.0,13.0,2.0821919441223145
427,1488.0,-193.0,2144.0,0.0,5409.0,1691.0,10022.0,11655.0,24.0,10.0,43.0,71.0,116.0,68.0,18.0,-7.0,2.0922961235046387
428,705.0,-271.0,2353.0,0.0,5136.0,2010.0,10044.0,11709.0,24.0,10.0,43.0,71.0,116.0,68.0,18.0,-7.0,2.095545530319214
429,705.0,-271.0,2353.0,0.0,5136.0,2010.0,10044.0,11709.0,-13.0,34.0,10.0,9.0,-48.0,-82.0,-27.0,0.0,2.0989418029785156
430,705.0,-271.0,2353.0,0.0,5136.0,2010.0,10044.0,11709.0,-45.0,-7.0,-20.0,-30.0,-92.0,-106.0,20.0,7.0,2.1155970096588135
431,-2.0,115.0,1498.0,0.0,5004.0,2082.0,9933.0,11848.0,-45.0,-7.0,-20.0,-30.0,-92.0,-106.0,20.0,7.0,2.1192336082458496
432,-2.0,115.0,1498.0,0.0,5004.0,2082.0,9933.0,11848.0,-37.0,-109.0,41.0,35.0,-13.0,-3.0,-11.0,-16.0,2.1232688426971436
433,-2.0,115.0,1498.0,0.0,5004.0,2082.0,9933.0,11848.0,22.0,29.0,21.0,-37.0,25.0,51.0,-9.0,5.0,2.1302764415740967
434,507.0,369.0,1338.0,0.0,4867.0,2101.0,9948.0,11889.0,22.0,29.0,21.0,-37.0,25.0,51.0,-9.0,5.0,2.1321215629577637
435,507.0,369.0,1338.0,0.0,4867.0,2101.0,9948.0,11889.0,21.0,24.0,26.0,24.0,-4.0,-5.0,17.0,24.0,2.1357550621032715
436,507.0,369.0,1338.0,0.0,4867.0,2101.0,9948.0,11889.0,-46.0,-45.0,-31.0,-78.0,-59.0,33.0,31.0,-7.0,2.153561592102051
437,1496.0,194.0,1347.0,0.0,4665.0,2270.0,10085.0,11823.0,-46.0,-45.0,-31.0,-78.0,-59.0,33.0,31.0,-7.0,2.1580862998962402
438,1496.0,194.0,1347.0,0.0,4665.0,2270.0,10085.0,11823.0,-12.0,-60.0,-102.0,-38.0,-59.0,-30.0,-31.0,-27.0,2.162721872329712
439,1496.0,194.0,1347.0,0.0,4665.0,2270.0,10085.0,11823.0,9.0,-7.0,-5.0,16.0,66.0,60.0,16.0,9.0,2.17612624168396
440,1474.0,375.0,1159.0,0.0,4409.0,2455.0,10274.0,11721.0,9.0,-7.0,-5.0,16.0,66.0,60.0,16.0,9.0,2.1797773838043213
441,1474.0,375.0,1159.0,0.0,4409.0,2455.0,10274.0,11721.0,19.0,109.0,39.0,-1.0,30.0,11.0,6.0,22.0,2.183558225631714
442,1474.0,375.0,1159.0,0.0,4409.0,2455.0,10274.0,11721.0,-2.0,-5.0,-80.0,-51.0,35.0,28.0,-16.0,-8.0,2.189436435699463
443,990.0,507.0,1096.0,0.0,4181.0,2564.0,10404.0,11666.0,-2.0,-5.0,-80.0,-51.0,35.0,28.0,-16.0,-8.0,2.191317081451416
444,990.0,507.0,1096.0,0.0,4181.0,2564.0,10404.0,11666.0,-4.0,18.0,42.0,34.0,13.0,41.0,21.0,8.0,2.1967341899871826
445,990.0,507.0,1096.0,0.0,4181.0,2564.0,10404.0,11666.0,-9.0,-16.0,-32.0,36.0,11.0,-2.0,-9.0,-4.0,2.2127957344055176
446,990.0,317.0,1237.0,0.0,3933.0,2738.0,10526.0,11604.0,-9.0,-16.0,-32.0,36.0,11.0,-2.0,-9.0,-4.0,2.2157461643218994
447,990.0,317.0,1237.0,0.0,3933.0,2738.0,10526.0,11604.0,10.0,6.0,-4.0,-16.0,-36.0,-20.0,-1.0,-3.0,2.2188634872436523
448,990.0,317.0,1237.0,0.0,3933.0,2738.0,10526.0,11604.0,-3.0,-27.0,-30.0,-10.0,-95.0,-40.0,-12.0,3.0,2.2356388568878174
449,935.0,290.0,1099.0,0.0,3711.0,2888.0,10638.0,11538.0,-3.0,-27.0,-30.0,-10.0,-95.0,-40.0,-12.0,3.0,2.2391371726989746
450,935.0,290.0,1099.0,0.0,3711.0,2888.0,10638.0,11538.0,15.0,27.0,-30.0,-10.0,52.0,38.0,0.0,-8.0,2.242879867553711
451,935.0,290.0,1099.0,0.0,3711.0,2888.0,10638.0,11538.0,10.0,26.0,-23.0,1.0,48.0,57.0,5.0,12.0,2.2494966983795166
452,303.0,259.0,939.0,0.0,3551.0,2978.0,10693.0,11514.0,10.0,26.0,-23.0,1.0,48.0,57.0,5.0,12.0,2.2519190311431885
453,303.0,259.0,939.0,0.0,3551.0,2978.0,10693.0,11514.0,-9.0,-51.0,0.0,-38.0,-37.0,0.0,-1.0,-1.0,2.255826473236084
454,303.0,259.0,939.0,0.0,3551.0,2978.0,10693.0,11514.0,-27.0,-5.0,-17.0,-32.0,10.0,44.0,45.0,-9.0,2.2720468044281006
455,-22.0,35.0,777.0,0.0,3425.0,3090.0,10675.0,11540.0,-27.0,-5.0,-17.0,-32.0,10.0,44.0,45.0,-9.0,2.274796962738037
456,-22.0,35.0,777.0,0.0,3425.0,3090.0,10675.0,11540.0,-13.0,-22.0,-5.0,6.0,43.0,21.0,-54.0,1.0,2.2779242992401123
457,-22.0,35.0,777.0,0.0,3425.0,3090.0,10675.0,11540.0,-3.0,-10.0,20.0,34.0,-27.0,-111.0,-53.0,6.0,2.296576499938965
458,273.0,-48.0,596.0,0.0,3318.0,3206.0,10705.0,11512.0,-3.0,-10.0,20.0,34.0,-27.0,-111.0,-53.0,6.0,2.300048351287842
459,273.0,-48.0,596.0,0.0,3318.0,3206.0,10705.0,11512.0,-3.0,-26.0,-19.0,-13.0,-35.0,-33.0,-36.0,-21.0,2.3035995960235596
460,273.0,-48.0,596.0,0.0,3318.0,3206.0,10705.0,11512.0,21.0,39.0,-39.0,-30.0,-24.0,-10.0,-4.0,5.0,2.3090288639068604
461,419.0,10.0,478.0,0.0,3248.0,3270.0,10776.0,11447.0,21.0,39.0,-39.0,-30.0,-24.0,-10.0,-4.0,5.0,2.311885118484497
462,419.0,10.0,478.0,0.0,3248.0,3270.0,10776.0,11447.0,20.0,32.0,14.0,25.0,3.0,-29.0,10.0,0.0,2.316007614135742
463,419.0,10.0,478.0,0.0,3248.0,3270.0,10776.0,11447.0,2.0,-24.0,-41.0,6.0,-21.0,-34.0,-3.0,-1.0,2.333596706390381
464,160.0,-72.0,303.0,0.0,3196.0,3339.0,10796.0,11424.0,2.0,-24.0,-41.0,6.0,-21.0,-34.0,-3.0,-1.0,2.3372209072113037
465,160.0,-72.0,303.0,0.0,3196.0,3339.0,10796.0,11424.0,-10.0,2.0,24.0,-6.0,-24.0,-15.0,9.0,-2.0,2.3395066261291504
466,160.0,-72.0,303.0,0.0,3196.0,3339.0,10796.0,11424.0,-4.0,-12.0,-6.0,-7.0,-27.0,-7.0,-32.0,3.0,2.3552732467651367
467,153.0,-166.0,160.0,0.0,3144.0,3430.0,10787.0,11419.0,-4.0,-12.0,-6.0,-7.0,-27.0,-7.0,-32.0,3.0,2.3584773540496826
468,153.0,-166.0,160.0,0.0,3144.0,3430.0,10787.0,11419.0,-6.0,-28.0,5.0,42.0,-6.0,-5.0,9.0,4.0,2.361616849899292
469,153.0,-166.0,160.0,0.0,3144.0,3430.0,10787.0,11419.0,-19.0,-18.0,22.0,-2.0,-10.0,58.0,-34.0,-20.0,2.369555711746216
470,148.0,-103.0,109.0,0.0,3098.0,3501.0,10788.0,11409.0,-19.0,-18.0,22.0,-2.0,-10.0,58.0,-34.0,-20.0,2.372073173522949
471,148.0,-103.0,109.0,0.0,3098.0,3501.0,10788.0,11409.0,12.0,4.0,-23.0,-31.0,-36.0,-1.0,24.0,-3.0,2.376105785369873
472,148.0,-103.0,109.0,0.0,3098.0,3501.0,10788.0,11409.0,-1.0,-2.0,-54.0,-12.0,-23.0,-8.0,5.0,-5.0,2.392822027206421
473,-97.0,-52.0,0.0,0.0,3095.0,3518.0,10778.0,11414.0,-1.0,-2.0,-54.0,-12.0,-23.0,-8.0,5.0,-5.0,2.395846128463745
474,-97.0,-52.0,0.0,0.0,3095.0,3518.0,10778.0,11414.0,-8.0,10.0,58.0,-6.0,15.0,24.0,1.0,-14.0,2.398984432220459
475,-97.0,-52.0,0.0,0.0,3095.0,3518.0,10778.0,11414.0,21.0,40.0,-27.0,-12.0,17.0,2.0,18.0,9.0,2.415937662124634
476,-64.0,-47.0,-66.0,0.0,3085.0,3542.0,10770.0,11417.0,21.0,40.0,-27.0,-12.0,17.0,2.0,18.0,9.0,2.4199600219726562
477,-64.0,-47.0,-66.0,0.0,3085.0,3542.0,10770.0,11417.0,-8.0,-9.0,21.0,-3.0,17.0,16.0,-7.0,-6.0,2.4242711067199707
478,-64.0,-47.0,-66.0,0.0,3085.0,3542.0,10770.0,11417.0,-9.0,-19.0,-3.0,1.0,-15.0,17.0,6.0,-17.0,2.4288852214813232
479,128.0,4.0,-26.0,0.0,3047.0,3579.0,10791.0,11395.0,-9.0,-19.0,-3.0,1.0,-15.0,17.0,6.0,-17.0,2.430833101272583
480,128.0,4.0,-26.0,0.0,3047.0,3579.0,10791.0,11395.0,7.0,24.0,19.0,-13.0,13.0,-19.0,19.0,32.0,2.436663866043091
481,128.0,4.0,-26.0,0.0,3047.0,3579.0,10791.0,11395.0,15.0,4.0,-3.0,30.0,42.0,-47.0,-16.0,-15.0,2.4521572589874268
482,97.0,62.0,63.0,0.0,3010.0,3602.0,10808.0,11382.0,15.0,4.0,-3.0,30.0,42.0,-47.0,-16.0,-15.0,2.454954147338867
483,97.0,62.0,63.0,0.0,3010.0,3602.0,10808.0,11382.0,11.0,-9.0,-27.0,14.0,22.0,7.0,1.0,-1.0,2.4587414264678955
484,97.0,62.0,63.0,0.0,3010.0,3602.0,10808.0,11382.0,-20.0,0.0,-13.0,16.0,25.0,-23.0,5.0,-3.0,2.4754185676574707
485,-56.0,89.0,-17.0,0.0,2991.0,3600.0,10810.0,11387.0,-20.0,0.0,-13.0,16.0,25.0,-23.0,5.0,-3.0,2.479416608810425
486,-56.0,89.0,-17.0,0.0,2991.0,3600.0,10810.0,11387.0,18.0,21.0,-35.0,-12.0,-47.0,-10.0,-3.0,2.0,2.4830493927001953
487,-56.0,89.0,-17.0,0.0,2991.0,3600.0,10810.0,11387.0,-20.0,-33.0,19.0,10.0,40.0,27.0,15.0,-6.0,2.4900152683258057
488,-13.0,66.0,-23.0,0.0,2955.0,3620.0,10806.0,11393.0,-20.0,-33.0,19.0,10.0,40.0,27.0,15.0,-6.0,2.49208402633667
489,-13.0,66.0,-23.0,0.0,2955.0,3620.0,10806.0,11393.0,-6.0,15.0,24.0,-36.0,-36.0,-6.0,10.0,-3.0,2.49702525138855
490,-13.0,66.0,-23.0,0.0,2955.0,3620.0,10806.0,11393.0,3.0,-2.0,14.0,47.0,32.0,4.0,-38.0,-7.0,2.5136642456054688
491,90.0,35.0,-12.0,0.0,2926.0,3641.0,10825.0,11376.0,3.0,-2.0,14.0,47.0,32.0,4.0,-38.0,-7.0,2.516695261001587
492,90.0,35.0,-12.0,0.0,2926.0,3641.0,10825.0,11376.0,-21.0,-20.0,-25.0,17.0,33.0,-13.0,-10.0,-10.0,2.519839286804199
493,90.0,35.0,-12.0,0.0,2926.0,3641.0,10825.0,11376.0,20.0,33.0,26.0,0.0,7.0,29.0,3.0,2.0,2.534761667251587
494,21.0,21.0,-49.0,0.0,2927.0,3636.0,10840.0,11362.0,20.0,33.0,26.0,0.0,7.0,29.0,3.0,2.0,2.5365729331970215
495,21.0,21.0,-49.0,0.0,2927.0,3636.0,10840.0,11362.0,-10.0,-39.0,-40.0,22.0,33.0,43.0,20.0,-5.0,2.5384774208068848
496,21.0,21.0,-49.0,0.0,2927.0,3636.0,10840.0,11362.0,-1.0,12.0,69.0,-11.0,-15.0,-15.0,16.0,10.0,2.5483999252319336
497,-109.0,41.0,-67.0,0.0,2933.0,3623.0,10843.0,11363.0,-1.0,12.0,69.0,-11.0,-15.0,-15.0,16.0,10.0,2.550248622894287
498,-109.0,41.0,-67.0,0.0,2933.0,3623.0,10843.0,11363.0,4.0,53.0,9.0,-15.0,-41.0,-4.0,-4.0,-2.0,2.5564162731170654
499,-109.0,41.0,-67.0,0.0,2933.0,3623.0,10843.0,11363.0,-14.0,-10.0,16.0,-50.0,-65.0,-7.0,-3.0,-12.0,2.5722532272338867
