,Gyro 0,Gyro 1,Gyro 2,Label,Orientation 0,Orientation 1,Orientation 2,Orientation 3,Sensor 0,Sensor 1,Sensor 2,Sensor 3,Sensor 4,Sensor 5,Sensor 6,Sensor 7,Timestamp
0,0.0,-32.0,-6.0,0.0,27.0,10587.0,8200.0,9438.0,-10.0,-40.0,-14.0,-2.0,1.0,-3.0,-4.0,-7.0,1.9073486328125e-06
1,0.0,-32.0,-6.0,0.0,27.0,10587.0,8200.0,9438.0,-7.0,-11.0,-14.0,-6.0,-10.0,0.0,-3.0,0.0,0.0021543502807617188
2,0.0,-32.0,-6.0,0.0,27.0,10587.0,8200.0,9438.0,2.0,-3.0,2.0,-3.0,5.0,5.0,3.0,2.0,0.004029989242553711
3,16.0,-33.0,-2.0,0.0,28.0,10592.0,8203.0,9430.0,2.0,-3.0,2.0,-3.0,5.0,5.0,3.0,2.0,0.006379127502441406
4,16.0,-33.0,-2.0,0.0,28.0,10592.0,8203.0,9430.0,5.0,10.0,1.0,-3.0,-2.0,-4.0,4.0,-2.0,0.009479284286499023
5,31.0,-33.0,11.0,0.0,25.0,10598.0,8205.0,9421.0,5.0,10.0,1.0,-3.0,-2.0,-4.0,4.0,-2.0,0.011388540267944336
6,31.0,-33.0,11.0,0.0,25.0,10598.0,8205.0,9421.0,2.0,-25.0,-17.0,4.0,1.0,0.0,-1.0,4.0,0.013596534729003906
7,31.0,-33.0,11.0,0.0,25.0,10598.0,8205.0,9421.0,-2.0,3.0,-4.0,4.0,3.0,4.0,0.0,2.0,0.01660633087158203
8,46.0,-46.0,9.0,0.0,23.0,10604.0,8210.0,9411.0,-2.0,3.0,-4.0,4.0,3.0,4.0,0.0,2.0,0.018462657928466797
9,46.0,-46.0,9.0,0.0,23.0,10604.0,8210.0,9411.0,8.0,-2.0,12.0,3.0,8.0,1.0,-3.0,1.0,0.020739078521728516
10,46.0,-46.0,9.0,0.0,23.0,10604.0,8210.0,9411.0,14.0,16.0,10.0,-3.0,-4.0,-3.0,-1.0,-1.0,0.023595333099365234
11,10.0,-34.0,20.0,0.0,24.0,10609.0,8210.0,9404.0,14.0,16.0,10.0,-3.0,-4.0,-3.0,-1.0,-1.0,0.025696277618408203
12,10.0,-34.0,20.0,0.0,24.0,10609.0,8210.0,9404.0,0.0,5.0,-8.0,2.0,-10.0,0.0,5.0,2.0,0.02796316146850586
13,10.0,-34.0,20.0,0.0,24.0,10609.0,8210.0,9404.0,-1.0,11.0,5.0,5.0,2.0,-5.0,-10.0,0.0,0.029845476150512695
14,-8.0,-38.0,36.0,0.0,24.0,10619.0,8206.0,9397.0,-1.0,11.0,5.0,5.0,2.0,-5.0,-10.0,0.0,0.03303265571594238
15,-8.0,-38.0,36.0,0.0,24.0,10619.0,8206.0,9397.0,6.0,17.0,7.0,1.0,6.0,3.0,1.0,3.0,0.03496503829956055
16,-8.0,-38.0,36.0,0.0,24.0,10619.0,8206.0,9397.0,-10.0,-6.0,0.0,-7.0,-12.0,-6.0,-5.0,-2.0,0.03673195838928223
17,2.0,-41.0,35.0,0.0,21.0,10628.0,8201.0,9391.0,-10.0,-6.0,0.0,-7.0,-12.0,-6.0,-5.0,-2.0,0.038483619689941406
18,2.0,-41.0,35.0,0.0,21.0,10628.0,8201.0,9391.0,6.0,3.0,0.0,-1.0,3.0,-2.0,2.0,0.0,0.04032754898071289
19,2.0,-41.0,35.0,0.0,21.0,10628.0,8201.0,9391.0,-15.0,-14.0,-14.0,1.0,2.0,1.0,-2.0,-3.0,0.04208111763000488
20,11.0,-29.0,45.0,0.0,16.0,10636.0,8197.0,9386.0,-15.0,-14.0,-14.0,1.0,2.0,1.0,-2.0,-3.0,0.04408144950866699
21,11.0,-29.0,45.0,0.0,16.0,10636.0,8197.0,9386.0,1.0,3.0,-4.0,-4.0,-2.0,-2.0,-2.0,-3.0,0.04597282409667969
22,-5.0,-26.0,36.0,0.0,15.0,10643.0,8193.0,9381.0,1.0,3.0,-4.0,-4.0,-2.0,-2.0,-2.0,-3.0,0.04775214195251465
23,-5.0,-26.0,36.0,0.0,15.0,10643.0,8193.0,9381.0,3.0,-14.0,-7.0,-3.0,-3.0,3.0,0.0,2.0,0.04959440231323242
24,-5.0,-26.0,36.0,0.0,15.0,10643.0,8193.0,9381.0,-13.0,-8.0,12.0,-2.0,1.0,0.0,2.0,-6.0,0.052033185958862305
25,-1.0,-14.0,37.0,0.0,12.0,10649.0,8189.0,9378.0,-13.0,-8.0,12.0,-2.0,1.0,0.0,2.0,-6.0,0.05470395088195801
26,-1.0,-14.0,37.0,0.0,12.0,10649.0,8189.0,9378.0,11.0,40.0,4.0,-6.0,-6.0,-2.0,-1.0,3.0,0.056643009185791016
27,-1.0,-14.0,37.0,0.0,12.0,10649.0,8189.0,9378.0,-4.0,-11.0,13.0,5.0,3.0,1.0,5.0,-1.0,0.05842423439025879
28,19.0,-5.0,35.0,0.0,6.0,10653.0,8187.0,9375.0,-4.0,-11.0,13.0,5.0,3.0,1.0,5.0,-1.0,0.0603485107421875
29,19.0,-5.0,35.0,0.0,6.0,10653.0,8187.0,9375.0,-4.0,-11.0,-30.0,1.0,9.0,6.0,-1.0,-3.0,0.062191009521484375
30,19.0,-5.0,35.0,0.0,6.0,10653.0,8187.0,9375.0,2.0,-1.0,-19.0,-4.0,4.0,1.0,-3.0,-2.0,0.06413936614990234
31,25.0,4.0,25.0,0.0,1.0,10654.0,8187.0,9374.0,2.0,-1.0,-19.0,-4.0,4.0,1.0,-3.0,-2.0,0.06692194938659668
32,25.0,4.0,25.0,0.0,1.0,10654.0,8187.0,9374.0,12.0,3.0,12.0,4.0,1.0,-7.0,-2.0,4.0,0.06881976127624512
33,25.0,4.0,25.0,0.0,1.0,10654.0,8187.0,9374.0,-12.0,-19.0,-4.0,4.0,6.0,-2.0,1.0,-4.0,0.07059288024902344
34,14.0,11.0,27.0,0.0,-2.0,10655.0,8186.0,9374.0,-12.0,-19.0,-4.0,4.0,6.0,-2.0,1.0,-4.0,0.0723876953125
35,14.0,11.0,27.0,0.0,-2.0,10655.0,8186.0,9374.0,-3.0,2.0,-12.0,-3.0,-3.0,1.0,-6.0,-1.0,0.07423734664916992
36,14.0,11.0,27.0,0.0,-2.0,10655.0,8186.0,9374.0,3.0,-4.0,-9.0,-4.0,-7.0,0.0,-3.0,0.0,0.07616996765136719
37,-30.0,25.0,14.0,0.0,-4.0,10654.0,8181.0,9379.0,3.0,-4.0,-9.0,-4.0,-7.0,0.0,-3.0,0.0,0.07817339897155762
38,-30.0,25.0,14.0,0.0,-4.0,10654.0,8181.0,9379.0,-16.0,7.0,14.0,1.0,1.0,-3.0,2.0,-7.0,0.0800168514251709
39,-30.0,25.0,14.0,0.0,-4.0,10654.0,8181.0,9379.0,13.0,27.0,-2.0,-6.0,-5.0,-1.0,4.0,5.0,0.08189940452575684
40,-3.0,22.0,14.0,0.0,-8.0,10654.0,8179.0,9381.0,13.0,27.0,-2.0,-6.0,-5.0,-1.0,4.0,5.0,0.08433055877685547
41,-3.0,22.0,14.0,0.0,-8.0,10654.0,8179.0,9381.0,1.0,-21.0,10.0,-6.0,-2.0,0.0,-5.0,-2.0,0.08661532402038574
42,-3.0,22.0,14.0,0.0,-8.0,10654.0,8179.0,9381.0,0.0,35.0,26.0,2.0,-1.0,-4.0,2.0,-1.0,0.08845853805541992
43,25.0,16.0,4.0,0.0,-12.0,10654.0,8183.0,9378.0,0.0,35.0,26.0,2.0,-1.0,-4.0,2.0,-1.0,0.09023237228393555
44,25.0,16.0,4.0,0.0,-12.0,10654.0,8183.0,9378.0,6.0,20.0,29.0,7.0,-2.0,-2.0,-4.0,0.0,0.09207582473754883
45,25.0,16.0,4.0,0.0,-12.0,10654.0,8183.0,9378.0,-1.0,-5.0,-2.0,-2.0,-1.0,-1.0,-4.0,-5.0,0.09386301040649414
46,17.0,19.0,8.0,0.0,-14.0,10654.0,8187.0,9374.0,-1.0,-5.0,-2.0,-2.0,-1.0,-1.0,-4.0,-5.0,0.09563469886779785
47,17.0,19.0,8.0,0.0,-14.0,10654.0,8187.0,9374.0,-5.0,0.0,-1.0,-6.0,-9.0,-1.0,5.0,4.0,0.0988929271697998
48,17.0,19.0,8.0,0.0,-14.0,10654.0,8187.0,9374.0,-6.0,-13.0,-22.0,-12.0,-7.0,-2.0,-1.0,1.0,0.1009223461151123
49,-9.0,18.0,12.0,0.0,-14.0,10654.0,8187.0,9373.0,-6.0,-13.0,-22.0,-12.0,-7.0,-2.0,-1.0,1.0,0.10270309448242188
50,-9.0,18.0,12.0,0.0,-14.0,10654.0,8187.0,9373.0,-3.0,-27.0,-24.0,-1.0,5.0,2.0,-1.0,-3.0,0.10458254814147949
51,-9.0,18.0,12.0,0.0,-14.0,10654.0,8187.0,9373.0,-6.0,-6.0,2.0,-2.0,-6.0,-5.0,-4.0,-7.0,0.10635137557983398
52,2.0,10.0,18.0,0.0,-18.0,10658.0,8187.0,9370.0,-6.0,-6.0,2.0,-2.0,-6.0,-5.0,-4.0,-7.0,0.10815119743347168
53,2.0,10.0,18.0,0.0,-18.0,10658.0,8187.0,9370.0,10.0,-29.0,-24.0,3.0,-3.0,-1.0,-6.0,2.0,0.1102457046508789
54,2.0,10.0,18.0,0.0,-18.0,10658.0,8187.0,9370.0,-9.0,-12.0,6.0,4.0,4.0,4.0,1.0,-1.0,0.11206459999084473
55,12.0,13.0,24.0,0.0,-23.0,10661.0,8187.0,9366.0,-9.0,-12.0,6.0,4.0,4.0,4.0,1.0,-1.0,0.1144263744354248
56,12.0,13.0,24.0,0.0,-23.0,10661.0,8187.0,9366.0,-1.0,10.0,12.0,0.0,-5.0,-2.0,3.0,-7.0,0.11705613136291504
57,12.0,13.0,24.0,0.0,-23.0,10661.0,8187.0,9366.0,2.0,8.0,13.0,3.0,-10.0,-5.0,-7.0,1.0,0.1188957691192627
58,-2.0,7.0,20.0,0.0,-21.0,10661.0,8187.0,9366.0,2.0,8.0,13.0,3.0,-10.0,-5.0,-7.0,1.0,0.12067818641662598
59,-2.0,7.0,20.0,0.0,-21.0,10661.0,8187.0,9366.0,5.0,60.0,6.0,-1.0,-6.0,4.0,2.0,4.0,0.12251472473144531
60,-2.0,7.0,20.0,0.0,-21.0,10661.0,8187.0,9366.0,5.0,18.0,11.0,4.0,3.0,-1.0,3.0,0.0,0.12428903579711914
61,-18.0,6.0,20.0,0.0,-18.0,10661.0,8186.0,9368.0,5.0,18.0,11.0,4.0,3.0,-1.0,3.0,0.0,0.12610459327697754
62,-18.0,6.0,20.0,0.0,-18.0,10661.0,8186.0,9368.0,-11.0,-24.0,-16.0,0.0,4.0,0.0,-3.0,-1.0,0.12793993949890137
63,-18.0,6.0,20.0,0.0,-18.0,10661.0,8186.0,9368.0,16.0,25.0,25.0,-3.0,4.0,4.0,0.0,3.0,0.1297159194946289
64,-17.0,-3.0,19.0,0.0,-14.0,10662.0,8184.0,9368.0,16.0,25.0,25.0,-3.0,4.0,4.0,0.0,3.0,0.13315629959106445
65,-17.0,-3.0,19.0,0.0,-14.0,10662.0,8184.0,9368.0,-4.0,4.0,-2.0,1.0,-3.0,-4.0,-4.0,-8.0,0.13504648208618164
66,-17.0,-3.0,19.0,0.0,-14.0,10662.0,8184.0,9368.0,-1.0,15.0,1.0,-2.0,-5.0,-2.0,-5.0,-4.0,0.1368391513824463
67,-4.0,-12.0,17.0,0.0,-14.0,10666.0,8183.0,9364.0,-1.0,15.0,1.0,-2.0,-5.0,-2.0,-5.0,-4.0,0.13860821723937988
68,-4.0,-12.0,17.0,0.0,-14.0,10666.0,8183.0,9364.0,13.0,37.0,-1.0,-3.0,4.0,3.0,1.0,5.0,0.1404566764831543
69,-4.0,-12.0,17.0,0.0,-14.0,10666.0,8183.0,9364.0,-19.0,-26.0,-14.0,-5.0,0.0,-4.0,2.0,-4.0,0.14221978187561035
70,-1.0,-14.0,25.0,0.0,-13.0,10670.0,8182.0,9360.0,-19.0,-26.0,-14.0,-5.0,0.0,-4.0,2.0,-4.0,0.14452457427978516
71,-1.0,-14.0,25.0,0.0,-13.0,10670.0,8182.0,9360.0,7.0,6.0,7.0,-1.0,-7.0,0.0,0.0,1.0,0.14811086654663086
72,-1.0,-14.0,25.0,0.0,-13.0,10670.0,8182.0,9360.0,-2.0,-13.0,-8.0,-1.0,-4.0,2.0,1.0,6.0,0.15061616897583008
73,-30.0,-17.0,18.0,0.0,-6.0,10672.0,8180.0,9359.0,-2.0,-13.0,-8.0,-1.0,-4.0,2.0,1.0,6.0,0.15244555473327637
74,-30.0,-17.0,18.0,0.0,-6.0,10672.0,8180.0,9359.0,-15.0,-27.0,9.0,3.0,8.0,-1.0,-1.0,-3.0,0.15430355072021484
75,-30.0,-17.0,18.0,0.0,-6.0,10672.0,8180.0,9359.0,4.0,30.0,-5.0,0.0,4.0,0.0,-3.0,4.0,0.15607714653015137
76,-47.0,-24.0,21.0,0.0,0.0,10678.0,8174.0,9359.0,4.0,30.0,-5.0,0.0,4.0,0.0,-3.0,4.0,0.15784335136413574
77,-47.0,-24.0,21.0,0.0,0.0,10678.0,8174.0,9359.0,-2.0,-12.0,8.0,-2.0,-3.0,-4.0,-6.0,-3.0,0.1599266529083252
78,-47.0,-24.0,21.0,0.0,0.0,10678.0,8174.0,9359.0,-2.0,-15.0,-6.0,2.0,-5.0,3.0,3.0,-1.0,0.16175413131713867
79,-32.0,-24.0,27.0,0.0,4.0,10683.0,8169.0,9356.0,-2.0,-15.0,-6.0,2.0,-5.0,3.0,3.0,-1.0,0.16356134414672852
80,-32.0,-24.0,27.0,0.0,4.0,10683.0,8169.0,9356.0,7.0,-5.0,-6.0,-5.0,-5.0,-3.0,-8.0,4.0,0.16541767120361328
81,-32.0,-24.0,27.0,0.0,4.0,10683.0,8169.0,9356.0,-10.0,-19.0,3.0,0.0,-2.0,-5.0,-1.0,-4.0,0.16718244552612305
82,-23.0,-17.0,26.0,0.0,8.0,10688.0,8166.0,9353.0,-10.0,-19.0,3.0,0.0,-2.0,-5.0,-1.0,-4.0,0.16898179054260254
83,-23.0,-17.0,26.0,0.0,8.0,10688.0,8166.0,9353.0,-5.0,-6.0,-4.0,-2.0,2.0,-4.0,-1.0,-1.0,0.17081832885742188
84,-23.0,-17.0,26.0,0.0,8.0,10688.0,8166.0,9353.0,4.0,12.0,3.0,0.0,1.0,4.0,-1.0,-1.0,0.17259740829467773
85,-35.0,-11.0,18.0,0.0,14.0,10690.0,8163.0,9353.0,4.0,12.0,3.0,0.0,1.0,4.0,-1.0,-1.0,0.17447495460510254
86,-35.0,-11.0,18.0,0.0,14.0,10690.0,8163.0,9353.0,1.0,4.0,5.0,1.0,-3.0,0.0,6.0,1.0,0.17938566207885742
87,-35.0,-11.0,18.0,0.0,14.0,10690.0,8163.0,9353.0,0.0,-5.0,-3.0,2.0,0.0,-4.0,1.0,-1.0,0.18719267845153809
88,-10.0,-11.0,15.0,0.0,15.0,10690.0,8164.0,9353.0,0.0,-5.0,-3.0,2.0,0.0,-4.0,1.0,-1.0,0.1889817714691162
89,-10.0,-11.0,15.0,0.0,15.0,10690.0,8164.0,9353.0,7.0,3.0,1.0,4.0,3.0,3.0,-2.0,2.0,0.19484233856201172
90,-10.0,-11.0,15.0,0.0,15.0,10690.0,8164.0,9353.0,-6.0,-9.0,0.0,-2.0,-3.0,0.0,-3.0,-2.0,0.21111440658569336
91,9.0,-8.0,22.0,0.0,16.0,10691.0,8164.0,9352.0,-6.0,-9.0,0.0,-2.0,-3.0,0.0,-3.0,-2.0,0.21492409706115723
92,9.0,-8.0,22.0,0.0,16.0,10691.0,8164.0,9352.0,-1.0,-15.0,-5.0,-4.0,4.0,1.0,2.0,-1.0,0.2178788185119629
93,9.0,-8.0,22.0,0.0,16.0,10691.0,8164.0,9352.0,-2.0,-6.0,-18.0,-2.0,-5.0,-7.0,-5.0,-4.0,0.22430038452148438
94,-49.0,2.0,22.0,0.0,25.0,10690.0,8159.0,9357.0,-2.0,-6.0,-18.0,-2.0,-5.0,-7.0,-5.0,-4.0,0.23177385330200195
95,-49.0,2.0,22.0,0.0,25.0,10690.0,8159.0,9357.0,4.0,16.0,19.0,4.0,13.0,5.0,6.0,-6.0,0.24026775360107422
96,-49.0,2.0,22.0,0.0,25.0,10690.0,8159.0,9357.0,5.0,-8.0,3.0,0.0,9.0,4.0,-6.0,2.0,0.24808716773986816
97,-63.0,9.0,25.0,0.0,30.0,10691.0,8151.0,9363.0,5.0,-8.0,3.0,0.0,9.0,4.0,-6.0,2.0,0.250335693359375
98,-63.0,9.0,25.0,0.0,30.0,10691.0,8151.0,9363.0,-11.0,-15.0,5.0,-1.0,-9.0,-2.0,-2.0,-3.0,0.262237548828125
99,-63.0,9.0,25.0,0.0,30.0,10691.0,8151.0,9363.0,6.0,0.0,8.0,-8.0,-5.0,-4.0,-1.0,-1.0,0.2716085910797119
100,-4.0,3.0,20.0,0.0,27.0,10693.0,8148.0,9363.0,6.0,0.0,8.0,-8.0,-5.0,-4.0,-1.0,-1.0,0.27509331703186035
101,-4.0,3.0,20.0,0.0,27.0,10693.0,8148.0,9363.0,12.0,44.0,17.0,2.0,-4.0,-3.0,5.0,2.0,0.2780156135559082
102,-4.0,3.0,20.0,0.0,27.0,10693.0,8148.0,9363.0,-11.0,-18.0,-15.0,-3.0,-1.0,-3.0,-3.0,-6.0,0.28426599502563477
103,21.0,2.0,13.0,0.0,25.0,10694.0,8150.0,9361.0,-11.0,-18.0,-15.0,-3.0,-1.0,-3.0,-3.0,-6.0,0.29172611236572266
104,21.0,2.0,13.0,0.0,25.0,10694.0,8150.0,9361.0,-5.0,-17.0,-19.0,-7.0,-6.0,-1.0,0.0,-3.0,0.2997903823852539
105,21.0,2.0,13.0,0.0,25.0,10694.0,8150.0,9361.0,3.0,17.0,-6.0,1.0,-5.0,3.0,-2.0,0.0,0.3073594570159912
106,17.0,3.0,12.0,0.0,27.0,10693.0,8154.0,9358.0,3.0,17.0,-6.0,1.0,-5.0,3.0,-2.0,0.0,0.3099079132080078
107,17.0,3.0,12.0,0.0,27.0,10693.0,8154.0,9358.0,2.0,-1.0,-8.0,-1.0,4.0,0.0,-5.0,3.0,0.3221747875213623
108,17.0,3.0,12.0,0.0,27.0,10693.0,8154.0,9358.0,-17.0,-19.0,-4.0,-4.0,0.0,-1.0,3.0,-2.0,0.33154845237731934
109,-11.0,4.0,4.0,0.0,28.0,10693.0,8155.0,9358.0,-17.0,-19.0,-4.0,-4.0,0.0,-1.0,3.0,-2.0,0.33492612838745117
110,-11.0,4.0,4.0,0.0,28.0,10693.0,8155.0,9358.0,10.0,27.0,20.0,1.0,-3.0,1.0,2.0,-3.0,0.3368244171142578
111,-11.0,4.0,4.0,0.0,28.0,10693.0,8155.0,9358.0,6.0,3.0,-3.0,3.0,5.0,1.0,-1.0,1.0,0.3441781997680664
112,6.0,11.0,3.0,0.0,28.0,10693.0,8155.0,9358.0,6.0,3.0,-3.0,3.0,5.0,1.0,-1.0,1.0,0.3517465591430664
113,6.0,11.0,3.0,0.0,28.0,10693.0,8155.0,9358.0,-1.0,-13.0,-9.0,3.0,3.0,-1.0,-5.0,3.0,0.35906386375427246
114,6.0,11.0,3.0,0.0,28.0,10693.0,8155.0,9358.0,-4.0,0.0,-13.0,-5.0,-8.0,-3.0,-5.0,0.0,0.36844468116760254
115,9.0,17.0,-12.0,0.0,32.0,10687.0,8160.0,9360.0,-4.0,0.0,-13.0,-5.0,-8.0,-3.0,-5.0,0.0,0.3713979721069336
116,9.0,17.0,-12.0,0.0,32.0,10687.0,8160.0,9360.0,-3.0,-22.0,2.0,2.0,-3.0,-3.0,1.0,-3.0,0.381850004196167
117,9.0,17.0,-12.0,0.0,32.0,10687.0,8160.0,9360.0,-3.0,-4.0,2.0,-2.0,5.0,0.0,3.0,-5.0,0.39098143577575684
118,5.0,16.0,-19.0,0.0,37.0,10681.0,8166.0,9361.0,-3.0,-4.0,2.0,-2.0,5.0,0.0,3.0,-5.0,0.39524149894714355
119,5.0,16.0,-19.0,0.0,37.0,10681.0,8166.0,9361.0,-8.0,-23.0,-12.0,-12.0,-8.0,-1.0,-3.0,-5.0,0.39980554580688477
120,5.0,16.0,-19.0,0.0,37.0,10681.0,8166.0,9361.0,8.0,7.0,1.0,3.0,0.0,-1.0,1.0,2.0,0.4048960208892822
121,13.0,14.0,-18.0,0.0,41.0,10677.0,8172.0,9361.0,8.0,7.0,1.0,3.0,0.0,-1.0,1.0,2.0,0.41182541847229004
122,13.0,14.0,-18.0,0.0,41.0,10677.0,8172.0,9361.0,-1.0,11.0,0.0,2.0,-2.0,0.0,3.0,2.0,0.41938209533691406
123,13.0,14.0,-18.0,0.0,41.0,10677.0,8172.0,9361.0,-8.0,-3.0,34.0,-2.0,3.0,-3.0,-5.0,-1.0,0.42725706100463867
124,13.0,17.0,0.0,0.0,43.0,10672.0,8176.0,9363.0,-8.0,-3.0,34.0,-2.0,3.0,-3.0,-5.0,-1.0,0.4290602207183838
125,13.0,17.0,0.0,0.0,43.0,10672.0,8176.0,9363.0,-4.0,-14.0,-6.0,-1.0,-8.0,-3.0,-7.0,-3.0,0.4424898624420166
126,13.0,17.0,0.0,0.0,43.0,10672.0,8176.0,9363.0,-5.0,-12.0,-1.0,2.0,1.0,0.0,3.0,5.0,0.45075440406799316
127,-16.0,7.0,4.0,0.0,45.0,10671.0,8177.0,9363.0,-5.0,-12.0,-1.0,2.0,1.0,0.0,3.0,5.0,0.45456719398498535
128,-16.0,7.0,4.0,0.0,45.0,10671.0,8177.0,9363.0,7.0,40.0,-5.0,4.0,1.0,-3.0,-5.0,-4.0,0.4585742950439453
129,-16.0,7.0,4.0,0.0,45.0,10671.0,8177.0,9363.0,8.0,5.0,-12.0,-4.0,5.0,2.0,-3.0,-2.0,0.4648315906524658
130,-58.0,4.0,13.0,0.0,54.0,10670.0,8172.0,9370.0,8.0,5.0,-12.0,-4.0,5.0,2.0,-3.0,-2.0,0.4717855453491211
131,-58.0,4.0,13.0,0.0,54.0,10670.0,8172.0,9370.0,-7.0,-15.0,-18.0,0.0,6.0,1.0,3.0,1.0,0.47905683517456055
132,-58.0,4.0,13.0,0.0,54.0,10670.0,8172.0,9370.0,5.0,-8.0,-6.0,-1.0,-8.0,-4.0,-3.0,-1.0,0.4878377914428711
133,-73.0,15.0,21.0,0.0,65.0,10667.0,8164.0,9379.0,5.0,-8.0,-6.0,-1.0,-8.0,-4.0,-3.0,-1.0,0.4907536506652832
134,-73.0,15.0,21.0,0.0,65.0,10667.0,8164.0,9379.0,14.0,68.0,5.0,-3.0,-1.0,-2.0,0.0,-1.0,0.5029253959655762
135,-73.0,15.0,21.0,0.0,65.0,10667.0,8164.0,9379.0,-7.0,-15.0,-2.0,0.0,-4.0,0.0,3.0,-4.0,0.511319637298584
136,-39.0,7.0,-10.0,0.0,73.0,10660.0,8161.0,9390.0,-7.0,-15.0,-2.0,0.0,-4.0,0.0,3.0,-4.0,0.5140933990478516
137,-39.0,7.0,-10.0,0.0,73.0,10660.0,8161.0,9390.0,-5.0,-20.0,1.0,0.0,2.0,-1.0,0.0,3.0,0.5165629386901855
138,-39.0,7.0,-10.0,0.0,73.0,10660.0,8161.0,9390.0,4.0,12.0,-11.0,-1.0,1.0,-3.0,0.0,3.0,0.5242385864257812
139,35.0,-6.0,-55.0,0.0,82.0,10649.0,8171.0,9393.0,4.0,12.0,-11.0,-1.0,1.0,-3.0,0.0,3.0,0.5326061248779297
140,35.0,-6.0,-55.0,0.0,82.0,10649.0,8171.0,9393.0,-2.0,-19.0,2.0,3.0,16.0,5.0,7.0,0.0,0.5394701957702637
141,35.0,-6.0,-55.0,0.0,82.0,10649.0,8171.0,9393.0,-2.0,-5.0,14.0,4.0,0.0,8.0,-1.0,-1.0,0.5477290153503418
142,66.0,-25.0,-96.0,0.0,104.0,10629.0,8194.0,9396.0,-2.0,-5.0,14.0,4.0,0.0,8.0,-1.0,-1.0,0.5498964786529541
143,66.0,-25.0,-96.0,0.0,104.0,10629.0,8194.0,9396.0,-14.0,3.0,19.0,9.0,1.0,-5.0,-4.0,-1.0,0.5626676082611084
144,66.0,-25.0,-96.0,0.0,104.0,10629.0,8194.0,9396.0,-15.0,11.0,27.0,-7.0,-3.0,-6.0,2.0,-4.0,0.5707318782806396
145,60.0,-41.0,-163.0,0.0,145.0,10599.0,8229.0,9398.0,-15.0,11.0,27.0,-7.0,-3.0,-6.0,2.0,-4.0,0.5735030174255371
146,60.0,-41.0,-163.0,0.0,145.0,10599.0,8229.0,9398.0,-8.0,-13.0,-4.0,-11.0,-28.0,-5.0,-3.0,-9.0,0.5770134925842285
147,60.0,-41.0,-163.0,0.0,145.0,10599.0,8229.0,9398.0,17.0,56.0,9.0,16.0,-13.0,-1.0,-3.0,-7.0,0.5926985740661621
148,-19.0,-8.0,-265.0,0.0,212.0,10552.0,8270.0,9414.0,17.0,56.0,9.0,16.0,-13.0,-1.0,-3.0,-7.0,0.5962462425231934
149,-19.0,-8.0,-265.0,0.0,212.0,10552.0,8270.0,9414.0,-12.0,-21.0,-6.0,-16.0,4.0,0.0,-1.0,1.0,0.600100040435791
150,-19.0,-8.0,-265.0,0.0,212.0,10552.0,8270.0,9414.0,-4.0,-18.0,24.0,4.0,5.0,8.0,-2.0,2.0,0.6167747974395752
151,-148.0,45.0,-396.0,0.0,313.0,10474.0,8314.0,9459.0,-4.0,-18.0,24.0,4.0,5.0,8.0,-2.0,2.0,0.6197710037231445
152,-148.0,45.0,-396.0,0.0,313.0,10474.0,8314.0,9459.0,-3.0,-35.0,-10.0,-4.0,24.0,0.0,5.0,4.0,0.6221318244934082
153,-148.0,45.0,-396.0,0.0,313.0,10474.0,8314.0,9459.0,9.0,70.0,-3.0,24.0,1.0,5.0,-12.0,4.0,0.6299798488616943
154,-188.0,101.0,-783.0,0.0,463.0,10351.0,8402.0,9511.0,9.0,70.0,-3.0,24.0,1.0,5.0,-12.0,4.0,0.6317646503448486
155,-188.0,101.0,-783.0,0.0,463.0,10351.0,8402.0,9511.0,4.0,16.0,7.0,9.0,-27.0,1.0,-10.0,5.0,0.6368386745452881
156,-188.0,101.0,-783.0,0.0,463.0,10351.0,8402.0,9511.0,-3.0,-31.0,-16.0,2.0,-6.0,-9.0,-2.0,-5.0,0.6527493000030518
157,-47.0,16.0,-1004.0,0.0,631.0,10208.0,8523.0,9548.0,-3.0,-31.0,-16.0,2.0,-6.0,-9.0,-2.0,-5.0,0.6558837890625
158,-47.0,16.0,-1004.0,0.0,631.0,10208.0,8523.0,9548.0,-16.0,-51.0,-20.0,20.0,2.0,4.0,8.0,-1.0,0.6608219146728516
159,-47.0,16.0,-1004.0,0.0,631.0,10208.0,8523.0,9548.0,0.0,48.0,23.0,-20.0,1.0,-7.0,12.0,0.0,0.6763145923614502
160,-391.0,137.0,-1119.0,0.0,849.0,10026.0,8621.0,9635.0,0.0,48.0,23.0,-20.0,1.0,-7.0,12.0,0.0,0.6792795658111572
161,-391.0,137.0,-1119.0,0.0,849.0,10026.0,8621.0,9635.0,7.0,-8.0,27.0,-32.0,-6.0,-11.0,-14.0,-10.0,0.6838879585266113
162,-391.0,137.0,-1119.0,0.0,849.0,10026.0,8621.0,9635.0,15.0,-41.0,-22.0,-4.0,-6.0,5.0,1.0,9.0,0.6899204254150391
163,-655.0,203.0,-1370.0,0.0,1127.0,9808.0,8727.0,9735.0,15.0,-41.0,-22.0,-4.0,-6.0,5.0,1.0,9.0,0.6916978359222412
164,-655.0,203.0,-1370.0,0.0,1127.0,9808.0,8727.0,9735.0,-34.0,7.0,36.0,44.0,4.0,6.0,-1.0,-8.0,0.6966357231140137
165,-655.0,203.0,-1370.0,0.0,1127.0,9808.0,8727.0,9735.0,16.0,-23.0,2.0,-13.0,-10.0,-4.0,7.0,-4.0,0.7126491069793701
166,-960.0,212.0,-1634.0,0.0,1404.0,9600.0,8806.0,9835.0,16.0,-23.0,2.0,-13.0,-10.0,-4.0,7.0,-4.0,0.7170987129211426
167,-960.0,212.0,-1634.0,0.0,1404.0,9600.0,8806.0,9835.0,8.0,27.0,-9.0,-20.0,-25.0,-3.0,-11.0,7.0,0.7190861701965332
168,-960.0,212.0,-1634.0,0.0,1404.0,9600.0,8806.0,9835.0,-4.0,-17.0,7.0,6.0,-58.0,-8.0,1.0,3.0,0.7366542816162109
169,-1240.0,272.0,-2011.0,0.0,1741.0,9342.0,8890.0,9953.0,-4.0,-17.0,7.0,6.0,-58.0,-8.0,1.0,3.0,0.739854097366333
170,-1240.0,272.0,-2011.0,0.0,1741.0,9342.0,8890.0,9953.0,8.0,20.0,-13.0,-2.0,-2.0,-5.0,-4.0,-2.0,0.7431344985961914
171,-1240.0,272.0,-2011.0,0.0,1741.0,9342.0,8890.0,9953.0,-6.0,-14.0,-16.0,-13.0,12.0,-5.0,-11.0,-4.0,0.7512481212615967
172,-1250.0,407.0,-2290.0,0.0,2090.0,9037.0,8996.0,10072.0,-6.0,-14.0,-16.0,-13.0,12.0,-5.0,-11.0,-4.0,0.7544534206390381
173,-1250.0,407.0,-2290.0,0.0,2090.0,9037.0,8996.0,10072.0,6.0,-13.0,-29.0,-1.0,7.0,3.0,-5.0,5.0,0.7577519416809082
174,-1250.0,407.0,-2290.0,0.0,2090.0,9037.0,8996.0,10072.0,5.0,-5.0,-22.0,2.0,20.0,8.0,-6.0,3.0,0.7727904319763184
175,-1405.0,539.0,-2614.0,0.0,2477.0,8672.0,9109.0,10203.0,5.0,-5.0,-22.0,2.0,20.0,8.0,-6.0,3.0,0.7759759426116943
176,-1405.0,539.0,-2614.0,0.0,2477.0,8672.0,9109.0,10203.0,8.0,-16.0,-13.0,14.0,13.0,6.0,15.0,1.0,0.7809758186340332
177,-1405.0,539.0,-2614.0,0.0,2477.0,8672.0,9109.0,10203.0,-22.0,-6.0,-1.0,-14.0,11.0,-4.0,-7.0,-8.0,0.7952103614807129
178,-1818.0,645.0,-2911.0,0.0,2915.0,8248.0,9195.0,10360.0,-22.0,-6.0,-1.0,-14.0,11.0,-4.0,-7.0,-8.0,0.8021557331085205
179,-1818.0,645.0,-2911.0,0.0,2915.0,8248.0,9195.0,10360.0,-8.0,-23.0,-9.0,-24.0,-4.0,-9.0,-12.0,-16.0,0.8040080070495605
180,-1818.0,645.0,-2911.0,0.0,2915.0,8248.0,9195.0,10360.0,-2.0,8.0,4.0,6.0,11.0,-4.0,-8.0,2.0,0.8094079494476318
181,-2069.0,786.0,-3244.0,0.0,3383.0,7763.0,9270.0,10524.0,-2.0,8.0,4.0,6.0,11.0,-4.0,-8.0,2.0,0.8174712657928467
182,-2069.0,786.0,-3244.0,0.0,3383.0,7763.0,9270.0,10524.0,7.0,36.0,24.0,0.0,-5.0,2.0,3.0,0.0,0.8193953037261963
183,-2069.0,786.0,-3244.0,0.0,3383.0,7763.0,9270.0,10524.0,-7.0,-48.0,-43.0,-1.0,6.0,2.0,6.0,4.0,0.8337817192077637
184,-2068.0,850.0,-3506.0,0.0,3862.0,7237.0,9351.0,10662.0,-7.0,-48.0,-43.0,-1.0,6.0,2.0,6.0,4.0,0.836669921875
185,-2068.0,850.0,-3506.0,0.0,3862.0,7237.0,9351.0,10662.0,-3.0,-31.0,-4.0,19.0,11.0,-2.0,-4.0,5.0,0.8387134075164795
186,-2068.0,850.0,-3506.0,0.0,3862.0,7237.0,9351.0,10662.0,-8.0,-25.0,-44.0,-21.0,0.0,-2.0,-4.0,-6.0,0.8568663597106934
187,-2141.0,817.0,-3752.0,0.0,4366.0,6675.0,9423.0,10771.0,-8.0,-25.0,-44.0,-21.0,0.0,-2.0,-4.0,-6.0,0.8604857921600342
188,-2141.0,817.0,-3752.0,0.0,4366.0,6675.0,9423.0,10771.0,-8.0,-25.0,-44.0,-21.0,0.0,-2.0,-4.0,-6.0,0.8639800548553467
189,-2141.0,817.0,-3752.0,0.0,4366.0,6675.0,9423.0,10771.0,5.0,28.0,22.0,12.0,3.0,3.0,5.0,1.0,0.8687682151794434
190,-2141.0,817.0,-3752.0,0.0,4366.0,6675.0,9423.0,10771.0,5.0,5.0,-23.0,-15.0,-1.0,1.0,2.0,-2.0,0.8783702850341797
191,-2219.0,799.0,-3974.0,0.0,4885.0,6081.0,9481.0,10848.0,5.0,5.0,-23.0,-15.0,-1.0,1.0,2.0,-2.0,0.8801860809326172
192,-2219.0,799.0,-3974.0,0.0,4885.0,6081.0,9481.0,10848.0,-6.0,-6.0,-16.0,-10.0,1.0,-3.0,-1.0,0.0,0.8820395469665527
193,-2219.0,799.0,-3974.0,0.0,4885.0,6081.0,9481.0,10848.0,-3.0,6.0,13.0,11.0,1.0,-2.0,1.0,0.0,0.8922889232635498
194,-2498.0,763.0,-4154.0,0.0,5430.0,5449.0,9493.0,10914.0,-3.0,6.0,13.0,11.0,1.0,-2.0,1.0,0.0,0.89410400390625
195,-2498.0,763.0,-4154.0,0.0,5430.0,5449.0,9493.0,10914.0,11.0,7.0,9.0,1.0,2.0,-1.0,-2.0,2.0,0.8999593257904053
196,-2498.0,763.0,-4154.0,0.0,5430.0,5449.0,9493.0,10914.0,-6.0,-9.0,15.0,-1.0,1.0,-1.0,-5.0,-3.0,0.915827751159668
197,-2868.0,729.0,-4259.0,0.0,5994.0,4777.0,9440.0,10979.0,-6.0,-9.0,15.0,-1.0,1.0,-1.0,-5.0,-3.0,0.9202079772949219
198,-2868.0,729.0,-4259.0,0.0,5994.0,4777.0,9440.0,10979.0,8.0,51.0,-15.0,-5.0,-4.0,-2.0,1.0,-2.0,0.9224369525909424
199,-2868.0,729.0,-4259.0,0.0,5994.0,4777.0,9440.0,10979.0,1.0,0.0,23.0,8.0,1.0,0.0,1.0,-2.0,0.9293534755706787
200,-3071.0,807.0,-4428.0,0.0,6559.0,4055.0,9347.0,11026.0,1.0,0.0,23.0,8.0,1.0,0.0,1.0,-2.0,0.9372432231903076
201,-3071.0,807.0,-4428.0,0.0,6559.0,4055.0,9347.0,11026.0,3.0,-13.0,-33.0,-8.0,-5.0,-2.0,-3.0,1.0,0.9391117095947266
202,-3071.0,807.0,-4428.0,0.0,6559.0,4055.0,9347.0,11026.0,-3.0,5.0,-7.0,-9.0,-4.0,0.0,1.0,0.0,0.9524848461151123
203,-3153.0,837.0,-4517.0,0.0,7113.0,3301.0,9219.0,11042.0,-3.0,5.0,-7.0,-9.0,-4.0,0.0,1.0,0.0,0.9542865753173828
204,-3153.0,837.0,-4517.0,0.0,7113.0,3301.0,9219.0,11042.0,0.0,-5.0,14.0,-8.0,2.0,-4.0,2.0,-2.0,0.95939040184021
205,-3153.0,837.0,-4517.0,0.0,7113.0,3301.0,9219.0,11042.0,10.0,10.0,-20.0,4.0,-3.0,-2.0,-5.0,-2.0,0.9747745990753174
206,-2967.0,775.0,-4571.0,0.0,7653.0,2549.0,9079.0,10996.0,10.0,10.0,-20.0,4.0,-3.0,-2.0,-5.0,-2.0,0.97688889503479
207,-2967.0,775.0,-4571.0,0.0,7653.0,2549.0,9079.0,10996.0,-5.0,-8.0,-31.0,-4.0,0.0,3.0,2.0,2.0,0.9832484722137451
208,-2967.0,775.0,-4571.0,0.0,7653.0,2549.0,9079.0,10996.0,-11.0,8.0,26.0,9.0,2.0,-1.0,-4.0,1.0,0.9891293048858643
209,-2857.0,761.0,-4494.0,0.0,8160.0,1802.0,8922.0,10908.0,-11.0,8.0,26.0,9.0,2.0,-1.0,-4.0,1.0,0.9973592758178711
210,-2857.0,761.0,-4494.0,0.0,8160.0,1802.0,8922.0,10908.0,4.0,2.0,6.0,1.0,-1.0,-1.0,1.0,0.0,0.9992296695709229
211,-2857.0,761.0,-4494.0,0.0,8160.0,1802.0,8922.0,10908.0,-5.0,-19.0,14.0,-1.0,2.0,2.0,4.0,-1.0,1.0137698650360107
212,-2769.0,862.0,-4530.0,0.0,8631.0,1044.0,8759.0,10775.0,-5.0,-19.0,14.0,-1.0,2.0,2.0,4.0,-1.0,1.0173132419586182
213,-2769.0,862.0,-4530.0,0.0,8631.0,1044.0,8759.0,10775.0,-8.0,-36.0,-3.0,3.0,2.0,-1.0,-4.0,-4.0,1.0204334259033203
214,-2769.0,862.0,-4530.0,0.0,8631.0,1044.0,8759.0,10775.0,0.0,3.0,-14.0,0.0,0.0,1.0,-3.0,0.0,1.0348613262176514
215,-2919.0,1003.0,-4644.0,0.0,9078.0,236.0,8562.0,10613.0,0.0,3.0,-14.0,0.0,0.0,1.0,-3.0,0.0,1.0366835594177246
216,-2919.0,1003.0,-4644.0,0.0,9078.0,236.0,8562.0,10613.0,-7.0,-22.0,-27.0,-3.0,3.0,3.0,3.0,2.0,1.0421504974365234
217,-2919.0,1003.0,-4644.0,0.0,9078.0,236.0,8562.0,10613.0,7.0,-1.0,-11.0,-1.0,-2.0,-1.0,1.0,-3.0,1.0501296520233154
218,-2627.0,972.0,-4855.0,0.0,9527.0,-570.0,8360.0,10365.0,7.0,-1.0,-11.0,-1.0,-2.0,-1.0,1.0,-3.0,1.0573956966400146
219,-2627.0,972.0,-4855.0,0.0,9527.0,-570.0,8360.0,10365.0,-2.0,8.0,-3.0,-5.0,-3.0,0.0,-2.0,1.0,1.0593228340148926
220,-2627.0,972.0,-4855.0,0.0,9527.0,-570.0,8360.0,10365.0,-1.0,-3.0,-33.0,-15.0,-5.0,0.0,2.0,-4.0,1.0738005638122559
221,-2189.0,845.0,-4867.0,0.0,9962.0,-1325.0,8165.0,10038.0,-1.0,-3.0,-33.0,-15.0,-5.0,0.0,2.0,-4.0,1.0768554210662842
222,-2189.0,845.0,-4867.0,0.0,9962.0,-1325.0,8165.0,10038.0,0.0,5.0,41.0,8.0,-2.0,-2.0,0.0,-5.0,1.0799217224121094
223,-2189.0,845.0,-4867.0,0.0,9962.0,-1325.0,8165.0,10038.0,11.0,26.0,41.0,15.0,6.0,0.0,-2.0,4.0,1.0952317714691162
224,-1811.0,894.0,-4837.0,0.0,10362.0,-2041.0,7990.0,9646.0,11.0,26.0,41.0,15.0,6.0,0.0,-2.0,4.0,1.0977270603179932
225,-1811.0,894.0,-4837.0,0.0,10362.0,-2041.0,7990.0,9646.0,-19.0,-14.0,0.0,6.0,0.0,0.0,-3.0,-4.0,1.1039235591888428
226,-1811.0,894.0,-4837.0,0.0,10362.0,-2041.0,7990.0,9646.0,-5.0,-1.0,-19.0,1.0,13.0,4.0,5.0,-2.0,1.1097517013549805
227,-1388.0,927.0,-5014.0,0.0,10755.0,-2726.0,7832.0,9163.0,-5.0,-1.0,-19.0,1.0,13.0,4.0,5.0,-2.0,1.1177637577056885
228,-1388.0,927.0,-5014.0,0.0,10755.0,-2726.0,7832.0,9163.0,4.0,8.0,16.0,-4.0,-16.0,-9.0,-2.0,3.0,1.1196482181549072
229,-1388.0,927.0,-5014.0,0.0,10755.0,-2726.0,7832.0,9163.0,5.0,16.0,-26.0,-1.0,-4.0,1.0,-4.0,4.0,1.1336398124694824
230,-1083.0,703.0,-5090.0,0.0,11149.0,-3356.0,7651.0,8621.0,5.0,16.0,-26.0,-1.0,-4.0,1.0,-4.0,4.0,1.1374261379241943
231,-1083.0,703.0,-5090.0,0.0,11149.0,-3356.0,7651.0,8621.0,2.0,-26.0,-5.0,4.0,16.0,2.0,2.0,2.0,1.1410408020019531
232,-1083.0,703.0,-5090.0,0.0,11149.0,-3356.0,7651.0,8621.0,-4.0,-45.0,32.0,-4.0,-6.0,-3.0,-3.0,1.0,1.1548075675964355
233,-1156.0,439.0,-4916.0,0.0,11512.0,-3947.0,7409.0,8087.0,-4.0,-45.0,32.0,-4.0,-6.0,-3.0,-3.0,1.0,1.1567456722259521
234,-1156.0,439.0,-4916.0,0.0,11512.0,-3947.0,7409.0,8087.0,8.0,21.0,-7.0,-19.0,-46.0,-15.0,0.0,-2.0,1.1623115539550781
235,-1156.0,439.0,-4916.0,0.0,11512.0,-3947.0,7409.0,8087.0,-3.0,16.0,0.0,7.0,10.0,-8.0,-7.0,-7.0,1.1780719757080078
236,-1288.0,318.0,-4646.0,0.0,11827.0,-4523.0,7122.0,7574.0,-3.0,16.0,0.0,7.0,10.0,-8.0,-7.0,-7.0,1.1799349784851074
237,-1288.0,318.0,-4646.0,0.0,11827.0,-4523.0,7122.0,7574.0,2.0,10.0,35.0,34.0,33.0,19.0,29.0,1.0,1.184088945388794
238,-1288.0,318.0,-4646.0,0.0,11827.0,-4523.0,7122.0,7574.0,-8.0,-41.0,-4.0,1.0,1.0,1.0,-3.0,-4.0,1.1931266784667969
239,-1000.0,137.0,-4589.0,0.0,12132.0,-5040.0,6816.0,7026.0,-8.0,-41.0,-4.0,1.0,1.0,1.0,-3.0,-4.0,1.195781946182251
240,-1000.0,137.0,-4589.0,0.0,12132.0,-5040.0,6816.0,7026.0,-12.0,9.0,-5.0,-9.0,12.0,9.0,2.0,-18.0,1.200035572052002
241,-1000.0,137.0,-4589.0,0.0,12132.0,-5040.0,6816.0,7026.0,13.0,30.0,22.0,39.0,70.0,6.0,-12.0,10.0,1.214766502380371
242,-904.0,-112.0,-4029.0,0.0,12394.0,-5486.0,6482.0,6534.0,13.0,30.0,22.0,39.0,70.0,6.0,-12.0,10.0,1.2165791988372803
243,-904.0,-112.0,-4029.0,0.0,12394.0,-5486.0,6482.0,6534.0,1.0,2.0,-17.0,16.0,57.0,5.0,-20.0,1.0,1.2221465110778809
244,-904.0,-112.0,-4029.0,0.0,12394.0,-5486.0,6482.0,6534.0,-23.0,-8.0,-24.0,-41.0,-50.0,-35.0,-32.0,-15.0,1.2382276058197021
245,-561.0,-134.0,-3485.0,0.0,12615.0,-5841.0,6186.0,6073.0,-23.0,-8.0,-24.0,-41.0,-50.0,-35.0,-32.0,-15.0,1.2400190830230713
246,-561.0,-134.0,-3485.0,0.0,12615.0,-5841.0,6186.0,6073.0,-2.0,39.0,-9.0,-21.0,0.0,-5.0,-3.0,-3.0,1.2418835163116455
247,-561.0,-134.0,-3485.0,0.0,12615.0,-5841.0,6186.0,6073.0,14.0,59.0,11.0,7.0,76.0,36.0,64.0,9.0,1.2530663013458252
248,-877.0,29.0,-2641.0,0.0,12726.0,-6139.0,5961.0,5765.0,14.0,59.0,11.0,7.0,76.0,36.0,64.0,9.0,1.256359338760376
249,-877.0,29.0,-2641.0,0.0,12726.0,-6139.0,5961.0,5765.0,19.0,33.0,57.0,3.0,36.0,4.0,4.0,7.0,1.2600743770599365
250,-877.0,29.0,-2641.0,0.0,12726.0,-6139.0,5961.0,5765.0,19.0,36.0,15.0,20.0,23.0,45.0,66.0,8.0,1.2845098972320557
251,-860.0,282.0,-1712.0,0.0,12755.0,-6386.0,5831.0,5563.0,19.0,36.0,15.0,20.0,23.0,45.0,66.0,8.0,1.290043592453003
252,-860.0,282.0,-1712.0,0.0,12755.0,-6386.0,5831.0,5563.0,-26.0,-44.0,-19.0,-56.0,-91.0,-92.0,-28.0,-21.0,1.2950620651245117
253,-860.0,282.0,-1712.0,0.0,12755.0,-6386.0,5831.0,5563.0,34.0,47.0,-35.0,2.0,-41.0,-21.0,-50.0,-1.0,1.2991454601287842
254,-649.0,503.0,-473.0,0.0,12706.0,-6537.0,5828.0,5503.0,34.0,47.0,-35.0,2.0,-41.0,-21.0,-50.0,-1.0,1.3013255596160889
255,-649.0,503.0,-473.0,0.0,12706.0,-6537.0,5828.0,5503.0,2.0,35.0,45.0,27.0,42.0,26.0,42.0,22.0,1.3033168315887451
256,-649.0,503.0,-473.0,0.0,12706.0,-6537.0,5828.0,5503.0,10.0,-8.0,32.0,13.0,29.0,12.0,-13.0,6.0,1.312309741973877
257,-419.0,690.0,881.0,0.0,12578.0,-6580.0,5961.0,5602.0,10.0,-8.0,32.0,13.0,29.0,12.0,-13.0,6.0,1.3141117095947266
258,-419.0,690.0,881.0,0.0,12578.0,-6580.0,5961.0,5602.0,13.0,1.0,-5.0,-2.0,-27.0,46.0,44.0,38.0,1.3198375701904297
259,-419.0,690.0,881.0,0.0,12578.0,-6580.0,5961.0,5602.0,11.0,13.0,-6.0,9.0,4.0,-4.0,-30.0,-11.0,1.335679292678833
260,-214.0,753.0,2142.0,0.0,12379.0,-6514.0,6203.0,5854.0,11.0,13.0,-6.0,9.0,4.0,-4.0,-30.0,-11.0,1.3374943733215332
261,-214.0,753.0,2142.0,0.0,12379.0,-6514.0,6203.0,5854.0,-8.0,-6.0,6.0,-11.0,-25.0,-20.0,-14.0,-7.0,1.3422555923461914
262,-214.0,753.0,2142.0,0.0,12379.0,-6514.0,6203.0,5854.0,31.0,-23.0,-49.0,-16.0,-37.0,-16.0,-39.0,45.0,1.3581314086914062
263,-768.0,754.0,3674.0,0.0,12056.0,-6444.0,6458.0,6311.0,31.0,-23.0,-49.0,-16.0,-37.0,-16.0,-39.0,45.0,1.359950304031372
264,-768.0,754.0,3674.0,0.0,12056.0,-6444.0,6458.0,6311.0,-24.0,-49.0,-36.0,-27.0,-51.0,-46.0,-128.0,-49.0,1.3618123531341553
265,-768.0,754.0,3674.0,0.0,12056.0,-6444.0,6458.0,6311.0,-44.0,-32.0,7.0,-13.0,-16.0,-59.0,-5.0,-22.0,1.3724372386932373
266,-1435.0,304.0,4535.0,0.0,11629.0,-6365.0,6666.0,6946.0,-44.0,-32.0,7.0,-13.0,-16.0,-59.0,-5.0,-22.0,1.374344825744629
267,-1435.0,304.0,4535.0,0.0,11629.0,-6365.0,6666.0,6946.0,11.0,7.0,6.0,33.0,61.0,36.0,-2.0,-13.0,1.3799433708190918
268,-1435.0,304.0,4535.0,0.0,11629.0,-6365.0,6666.0,6946.0,-37.0,-42.0,11.0,-22.0,-31.0,25.0,22.0,-18.0,1.3951714038848877
269,-1246.0,-684.0,5274.0,0.0,11189.0,-6119.0,6808.0,7708.0,-37.0,-42.0,11.0,-22.0,-31.0,25.0,22.0,-18.0,1.399137258529663
270,-1246.0,-684.0,5274.0,0.0,11189.0,-6119.0,6808.0,7708.0,-20.0,-47.0,-81.0,6.0,3.0,23.0,13.0,14.0,1.402541160583496
271,-1246.0,-684.0,5274.0,0.0,11189.0,-6119.0,6808.0,7708.0,-3.0,-22.0,17.0,4.0,0.0,-3.0,-19.0,-28.0,1.419567346572876
272,-540.0,-1636.0,5733.0,0.0,10777.0,-5632.0,6919.0,8525.0,-3.0,-22.0,17.0,4.0,0.0,-3.0,-19.0,-28.0,1.4231510162353516
273,-540.0,-1636.0,5733.0,0.0,10777.0,-5632.0,6919.0,8525.0,-3.0,1.0,8.0,-5.0,-30.0,-50.0,-5.0,2.0,1.4262516498565674
274,-540.0,-1636.0,5733.0,0.0,10777.0,-5632.0,6919.0,8525.0,2.0,-9.0,8.0,-11.0,-47.0,-57.0,-26.0,-18.0,1.4338905811309814
275,428.0,-2195.0,6362.0,0.0,10352.0,-4891.0,7069.0,9346.0,2.0,-9.0,8.0,-11.0,-47.0,-57.0,-26.0,-18.0,1.435753583908081
276,428.0,-2195.0,6362.0,0.0,10352.0,-4891.0,7069.0,9346.0,-5.0,-17.0,39.0,-3.0,-23.0,14.0,28.0,17.0,1.4390919208526611
277,428.0,-2195.0,6362.0,0.0,10352.0,-4891.0,7069.0,9346.0,6.0,-1.0,-2.0,10.0,-13.0,-1.0,-8.0,-2.0,1.4549925327301025
278,1192.0,-2463.0,6751.0,0.0,9880.0,-3961.0,7258.0,10121.0,6.0,-1.0,-2.0,10.0,-13.0,-1.0,-8.0,-2.0,1.4567992687225342
279,1192.0,-2463.0,6751.0,0.0,9880.0,-3961.0,7258.0,10121.0,-8.0,-33.0,-42.0,4.0,-3.0,-25.0,-29.0,-9.0,1.4619340896606445
280,1192.0,-2463.0,6751.0,0.0,9880.0,-3961.0,7258.0,10121.0,9.0,-3.0,21.0,-2.0,24.0,33.0,32.0,1.0,1.4783604145050049
281,1896.0,-2545.0,6854.0,0.0,9375.0,-2923.0,7464.0,10783.0,9.0,-3.0,21.0,-2.0,24.0,33.0,32.0,1.0,1.481147050857544
282,1896.0,-2545.0,6854.0,0.0,9375.0,-2923.0,7464.0,10783.0,-31.0,-59.0,1.0,20.0,3.0,66.0,48.0,18.0,1.4835195541381836
283,1896.0,-2545.0,6854.0,0.0,9375.0,-2923.0,7464.0,10783.0,-4.0,11.0,3.0,-18.0,-24.0,-25.0,23.0,-24.0,1.491917610168457
284,2714.0,-2827.0,6011.0,0.0,8957.0,-1818.0,7662.0,11232.0,-4.0,11.0,3.0,-18.0,-24.0,-25.0,23.0,-24.0,1.4941504001617432
285,2714.0,-2827.0,6011.0,0.0,8957.0,-1818.0,7662.0,11232.0,40.0,-4.0,-11.0,-21.0,-20.0,27.0,11.0,-31.0,1.4992554187774658
286,2714.0,-2827.0,6011.0,0.0,8957.0,-1818.0,7662.0,11232.0,-41.0,-23.0,-41.0,-14.0,23.0,3.0,5.0,5.0,1.5162532329559326
287,3991.0,-2340.0,6165.0,0.0,8446.0,-623.0,8017.0,11507.0,-41.0,-23.0,-41.0,-14.0,23.0,3.0,5.0,5.0,1.5182082653045654
288,3991.0,-2340.0,6165.0,0.0,8446.0,-623.0,8017.0,11507.0,4.0,-76.0,-62.0,-18.0,-40.0,-22.0,9.0,0.0,1.5213465690612793
289,3991.0,-2340.0,6165.0,0.0,8446.0,-623.0,8017.0,11507.0,-41.0,-41.0,-30.0,53.0,63.0,42.0,41.0,-5.0,1.5389690399169922
290,4399.0,-1934.0,5282.0,0.0,7958.0,485.0,8401.0,11587.0,-41.0,-41.0,-30.0,53.0,63.0,42.0,41.0,-5.0,1.5421500205993652
291,4399.0,-1934.0,5282.0,0.0,7958.0,485.0,8401.0,11587.0,73.0,41.0,17.0,-22.0,-10.0,-56.0,-60.0,6.0,1.5454363822937012
292,4399.0,-1934.0,5282.0,0.0,7958.0,485.0,8401.0,11587.0,14.0,11.0,13.0,9.0,10.0,-25.0,-2.0,27.0,1.5529909133911133
293,4796.0,-1796.0,3124.0,0.0,7686.0,1412.0,8816.0,11385.0,14.0,11.0,13.0,9.0,10.0,-25.0,-2.0,27.0,1.5548477172851562
294,4796.0,-1796.0,3124.0,0.0,7686.0,1412.0,8816.0,11385.0,-65.0,8.0,20.0,68.0,49.0,2.0,89.0,-37.0,1.5595672130584717
295,4796.0,-1796.0,3124.0,0.0,7686.0,1412.0,8816.0,11385.0,45.0,81.0,7.0,-53.0,-32.0,-43.0,-18.0,-28.0,1.5757763385772705
296,6124.0,-1531.0,2050.0,0.0,7465.0,2307.0,9392.0,10916.0,45.0,81.0,7.0,-53.0,-32.0,-43.0,-18.0,-28.0,1.5790002346038818
297,6124.0,-1531.0,2050.0,0.0,7465.0,2307.0,9392.0,10916.0,37.0,-37.0,-76.0,-62.0,-64.0,-31.0,-47.0,-12.0,1.583829641342163
298,6124.0,-1531.0,2050.0,0.0,7465.0,2307.0,9392.0,10916.0,-61.0,-103.0,46.0,-23.0,39.0,13.0,80.0,7.0,1.600649118423462
299,4933.0,-1275.0,1936.0,0.0,7228.0,3053.0,9810.0,10517.0,-61.0,-103.0,46.0,-23.0,39.0,13.0,80.0,7.0,1.6038603782653809
300,4933.0,-1275.0,1936.0,0.0,7228.0,3053.0,9810.0,10517.0,67.0,54.0,85.0,44.0,97.0,10.0,-40.0,26.0,1.6063072681427002
301,4933.0,-1275.0,1936.0,0.0,7228.0,3053.0,9810.0,10517.0,19.0,20.0,11.0,66.0,72.0,45.0,-27.0,12.0,1.6124012470245361
302,3147.0,-430.0,1606.0,0.0,6964.0,3532.0,10096.0,10271.0,19.0,20.0,11.0,66.0,72.0,45.0,-27.0,12.0,1.6144390106201172
303,3147.0,-430.0,1606.0,0.0,6964.0,3532.0,10096.0,10271.0,-18.0,22.0,14.0,-77.0,13.0,46.0,38.0,20.0,1.6193897724151611
304,3147.0,-430.0,1606.0,0.0,6964.0,3532.0,10096.0,10271.0,-23.0,-28.0,-19.0,13.0,-90.0,15.0,-110.0,2.0,1.635817050933838
305,3492.0,-251.0,1650.0,0.0,6667.0,4006.0,10384.0,10004.0,-23.0,-28.0,-19.0,13.0,-90.0,15.0,-110.0,2.0,1.6392171382904053
306,3492.0,-251.0,1650.0,0.0,6667.0,4006.0,10384.0,10004.0,61.0,73.0,51.0,70.0,12.0,-65.0,-5.0,14.0,1.642632007598877
307,3492.0,-251.0,1650.0,0.0,6667.0,4006.0,10384.0,10004.0,-52.0,-83.0,31.0,3.0,-11.0,-4.0,20.0,-18.0,1.6586368083953857
308,2711.0,-650.0,1666.0,0.0,6452.0,4447.0,10534.0,9799.0,-52.0,-83.0,31.0,3.0,-11.0,-4.0,20.0,-18.0,1.6630783081054688
309,2711.0,-650.0,1666.0,0.0,6452.0,4447.0,10534.0,9799.0,-97.0,-90.0,-37.0,18.0,-13.0,11.0,-35.0,-7.0,1.666766881942749
310,2711.0,-650.0,1666.0,0.0,6452.0,4447.0,10534.0,9799.0,63.0,3.0,-89.0,-41.0,-72.0,-49.0,48.0,33.0,1.6715564727783203
311,853.0,-49.0,1914.0,0.0,6228.0,4713.0,10526.0,9829.0,63.0,3.0,-89.0,-41.0,-72.0,-49.0,48.0,33.0,1.6797542572021484
312,853.0,-49.0,1914.0,0.0,6228.0,4713.0,10526.0,9829.0,-14.0,49.0,33.0,-86.0,-57.0,-35.0,54.0,16.0,1.6816387176513672
313,853.0,-49.0,1914.0,0.0,6228.0,4713.0,10526.0,9829.0,-19.0,35.0,-20.0,36.0,57.0,90.0,6.0,-17.0,1.6949517726898193
314,377.0,27.0,2242.0,0.0,5966.0,4991.0,10433.0,9953.0,-19.0,35.0,-20.0,36.0,57.0,90.0,6.0,-17.0,1.697718620300293
315,377.0,27.0,2242.0,0.0,5966.0,4991.0,10433.0,9953.0,-21.0,-42.0,-47.0,6.0,15.0,55.0,34.0,-26.0,1.7018539905548096
316,377.0,27.0,2242.0,0.0,5966.0,4991.0,10433.0,9953.0,-12.0,19.0,-7.0,-89.0,-47.0,-106.0,-58.0,-20.0,1.7199277877807617
317,1137.0,-205.0,1091.0,0.0,5768.0,5255.0,10398.0,9970.0,-12.0,19.0,-7.0,-89.0,-47.0,-106.0,-58.0,-20.0,1.7236511707305908
318,1137.0,-205.0,1091.0,0.0,5768.0,5255.0,10398.0,9970.0,1.0,4.0,52.0,-14.0,-8.0,-93.0,-61.0,-7.0,1.7272086143493652
319,1137.0,-205.0,1091.0,0.0,5768.0,5255.0,10398.0,9970.0,29.0,-73.0,17.0,-7.0,80.0,33.0,13.0,14.0,1.7405953407287598
320,1176.0,283.0,1410.0,0.0,5527.0,5443.0,10497.0,9902.0,29.0,-73.0,17.0,-7.0,80.0,33.0,13.0,14.0,1.7424781322479248
321,1176.0,283.0,1410.0,0.0,5527.0,5443.0,10497.0,9902.0,43.0,48.0,11.0,23.0,38.0,21.0,22.0,24.0,1.7444989681243896
322,1176.0,283.0,1410.0,0.0,5527.0,5443.0,10497.0,9902.0,-20.0,54.0,-42.0,0.0,-13.0,-9.0,-26.0,-8.0,1.7549583911895752
323,824.0,325.0,1156.0,0.0,5346.0,5560.0,10597.0,9829.0,-20.0,54.0,-42.0,0.0,-13.0,-9.0,-26.0,-8.0,1.7572124004364014
324,824.0,325.0,1156.0,0.0,5346.0,5560.0,10597.0,9829.0,-10.0,10.0,-22.0,16.0,36.0,38.0,-14.0,1.0,1.7625830173492432
325,824.0,325.0,1156.0,0.0,5346.0,5560.0,10597.0,9829.0,20.0,41.0,42.0,-47.0,-89.0,-47.0,40.0,-6.0,1.780555248260498
326,1464.0,251.0,850.0,0.0,5083.0,5763.0,10694.0,9747.0,20.0,41.0,42.0,-47.0,-89.0,-47.0,40.0,-6.0,1.7851946353912354
327,1464.0,251.0,850.0,0.0,5083.0,5763.0,10694.0,9747.0,-30.0,23.0,-5.0,48.0,70.0,42.0,-25.0,-31.0,1.7889196872711182
328,1464.0,251.0,850.0,0.0,5083.0,5763.0,10694.0,9747.0,42.0,2.0,1.0,-35.0,-5.0,4.0,106.0,64.0,1.7910025119781494
329,1856.0,275.0,334.0,0.0,4899.0,5873.0,10878.0,9570.0,42.0,2.0,1.0,-35.0,-5.0,4.0,106.0,64.0,1.800328016281128
330,1856.0,275.0,334.0,0.0,4899.0,5873.0,10878.0,9570.0,-29.0,-36.0,-82.0,-55.0,-15.0,15.0,-14.0,12.0,1.8022563457489014
331,1856.0,275.0,334.0,0.0,4899.0,5873.0,10878.0,9570.0,22.0,-7.0,-47.0,43.0,85.0,56.0,-3.0,-9.0,1.816716194152832
332,1147.0,162.0,391.0,0.0,4801.0,5933.0,11001.0,9441.0,22.0,-7.0,-47.0,43.0,85.0,56.0,-3.0,-9.0,1.818561315536499
333,1147.0,162.0,391.0,0.0,4801.0,5933.0,11001.0,9441.0,96.0,50.0,31.0,-31.0,-3.0,29.0,31.0,28.0,1.8219144344329834
334,1147.0,162.0,391.0,0.0,4801.0,5933.0,11001.0,9441.0,-32.0,-26.0,-10.0,15.0,-37.0,3.0,-28.0,-15.0,1.8379909992218018
335,-67.0,119.0,343.0,0.0,4736.0,5976.0,10984.0,9467.0,-32.0,-26.0,-10.0,15.0,-37.0,3.0,-28.0,-15.0,1.8397972583770752
336,-67.0,119.0,343.0,0.0,4736.0,5976.0,10984.0,9467.0,-28.0,-16.0,-32.0,0.0,-31.0,-13.0,-31.0,-25.0,1.8424444198608398
337,-67.0,119.0,343.0,0.0,4736.0,5976.0,10984.0,9467.0,-17.0,20.0,35.0,17.0,-34.0,-3.0,-1.0,17.0,1.852081060409546
338,-45.0,161.0,462.0,0.0,4599.0,6073.0,10951.0,9510.0,-17.0,20.0,35.0,17.0,-34.0,-3.0,-1.0,17.0,1.8603761196136475
339,-45.0,161.0,462.0,0.0,4599.0,6073.0,10951.0,9510.0,2.0,-5.0,7.0,24.0,8.0,-17.0,-21.0,-3.0,1.862795352935791
340,-45.0,161.0,462.0,0.0,4599.0,6073.0,10951.0,9510.0,-9.0,32.0,40.0,-11.0,-48.0,16.0,-1.0,14.0,1.8753838539123535
341,655.0,102.0,59.0,0.0,4525.0,6113.0,11021.0,9439.0,-9.0,32.0,40.0,-11.0,-48.0,16.0,-1.0,14.0,1.8776359558105469
342,655.0,102.0,59.0,0.0,4525.0,6113.0,11021.0,9439.0,-3.0,31.0,61.0,40.0,19.0,30.0,-7.0,-1.0,1.88340425491333
343,655.0,102.0,59.0,0.0,4525.0,6113.0,11021.0,9439.0,0.0,32.0,-9.0,23.0,18.0,-6.0,-25.0,0.0,1.8979811668395996
344,530.0,-49.0,86.0,0.0,4506.0,6139.0,11088.0,9353.0,0.0,32.0,-9.0,23.0,18.0,-6.0,-25.0,0.0,1.8998126983642578
345,530.0,-49.0,86.0,0.0,4506.0,6139.0,11088.0,9353.0,13.0,40.0,46.0,-3.0,-26.0,-8.0,15.0,6.0,1.9018752574920654
346,530.0,-49.0,86.0,0.0,4506.0,6139.0,11088.0,9353.0,-10.0,-20.0,3.0,1.0,-45.0,-8.0,-20.0,-5.0,1.9117870330810547
347,-411.0,-60.0,159.0,0.0,4513.0,6154.0,11035.0,9402.0,-10.0,-20.0,3.0,1.0,-45.0,-8.0,-20.0,-5.0,1.9199645519256592
348,-411.0,-60.0,159.0,0.0,4513.0,6154.0,11035.0,9402.0,-28.0,-4.0,36.0,20.0,5.0,-5.0,15.0,-10.0,1.9218885898590088
349,-411.0,-60.0,159.0,0.0,4513.0,6154.0,11035.0,9402.0,22.0,18.0,15.0,-3.0,67.0,9.0,-20.0,-12.0,1.9356904029846191
350,-575.0,42.0,217.0,0.0,4488.0,6177.0,10952.0,9495.0,22.0,18.0,15.0,-3.0,67.0,9.0,-20.0,-12.0,1.9380803108215332
351,-575.0,42.0,217.0,0.0,4488.0,6177.0,10952.0,9495.0,-16.0,-73.0,-17.0,6.0,7.0,-8.0,-1.0,8.0,1.9417250156402588
352,-575.0,42.0,217.0,0.0,4488.0,6177.0,10952.0,9495.0,21.0,16.0,-25.0,-50.0,-6.0,-16.0,-34.0,0.0,1.9580132961273193
353,21.0,70.0,63.0,0.0,4450.0,6196.0,10953.0,9499.0,21.0,16.0,-25.0,-50.0,-6.0,-16.0,-34.0,0.0,1.9600944519042969
354,21.0,70.0,63.0,0.0,4450.0,6196.0,10953.0,9499.0,-11.0,26.0,-1.0,6.0,18.0,-15.0,-3.0,-21.0,1.9619865417480469
355,21.0,70.0,63.0,0.0,4450.0,6196.0,10953.0,9499.0,-5.0,36.0,8.0,-3.0,32.0,13.0,1.0,-9.0,1.9717204570770264
356,294.0,79.0,4.0,0.0,4418.0,6204.0,10993.0,9463.0,-5.0,36.0,8.0,-3.0,32.0,13.0,1.0,-9.0,1.9801602363586426
357,294.0,79.0,4.0,0.0,4418.0,6204.0,10993.0,9463.0,-7.0,-11.0,-8.0,4.0,-69.0,-9.0,8.0,-5.0,1.9832704067230225
358,294.0,79.0,4.0,0.0,4418.0,6204.0,10993.0,9463.0,-5.0,-23.0,31.0,43.0,8.0,-4.0,5.0,-2.0,1.9952058792114258
359,-87.0,185.0,167.0,0.0,4378.0,6207.0,10990.0,9483.0,-5.0,-23.0,31.0,43.0,8.0,-4.0,5.0,-2.0,1.9988539218902588
360,-87.0,185.0,167.0,0.0,4378.0,6207.0,10990.0,9483.0,-19.0,-47.0,-31.0,-13.0,-11.0,-11.0,-17.0,8.0,2.002464771270752
361,-87.0,185.0,167.0,0.0,4378.0,6207.0,10990.0,9483.0,13.0,22.0,62.0,-6.0,-10.0,11.0,3.0,9.0,2.019094944000244
362,-300.0,239.0,214.0,0.0,4332.0,6206.0,10957.0,9543.0,13.0,22.0,62.0,-6.0,-10.0,11.0,3.0,9.0,2.0224952697753906
363,-300.0,239.0,214.0,0.0,4332.0,6206.0,10957.0,9543.0,13.0,54.0,-5.0,0.0,26.0,9.0,-37.0,5.0,2.025533676147461
364,-300.0,239.0,214.0,0.0,4332.0,6206.0,10957.0,9543.0,15.0,-3.0,-11.0,30.0,30.0,8.0,13.0,-21.0,2.032878875732422
365,12.0,280.0,181.0,0.0,4265.0,6211.0,10959.0,9567.0,15.0,-3.0,-11.0,30.0,30.0,8.0,13.0,-21.0,2.0399489402770996
366,12.0,280.0,181.0,0.0,4265.0,6211.0,10959.0,9567.0,-14.0,-11.0,22.0,-17.0,-32.0,-19.0,-16.0,-6.0,2.0417978763580322
367,12.0,280.0,181.0,0.0,4265.0,6211.0,10959.0,9567.0,-9.0,-56.0,17.0,21.0,13.0,19.0,10.0,-2.0,2.0555856227874756
368,95.0,231.0,90.0,0.0,4222.0,6203.0,10983.0,9565.0,-9.0,-56.0,17.0,21.0,13.0,19.0,10.0,-2.0,2.058986186981201
369,95.0,231.0,90.0,0.0,4222.0,6203.0,10983.0,9565.0,-30.0,-10.0,-73.0,29.0,27.0,45.0,13.0,-7.0,2.0624454021453857
370,95.0,231.0,90.0,0.0,4222.0,6203.0,10983.0,9565.0,32.0,55.0,-19.0,10.0,-1.0,-20.0,-21.0,12.0,2.079871892929077
371,-140.0,217.0,40.0,0.0,4197.0,6183.0,10991.0,9579.0,32.0,55.0,-19.0,10.0,-1.0,-20.0,-21.0,12.0,2.0838241577148438
372,-140.0,217.0,40.0,0.0,4197.0,6183.0,10991.0,9579.0,21.0,11.0,51.0,-24.0,0.0,3.0,0.0,30.0,2.0880188941955566
373,-140.0,217.0,40.0,0.0,4197.0,6183.0,10991.0,9579.0,-19.0,-26.0,-29.0,1.0,20.0,-3.0,-3.0,2.0,2.0917599201202393
374,-133.0,176.0,56.0,0.0,4171.0,6174.0,10994.0,9593.0,-19.0,-26.0,-29.0,1.0,20.0,-3.0,-3.0,2.0,2.100224733352661
375,-133.0,176.0,56.0,0.0,4171.0,6174.0,10994.0,9593.0,-4.0,-20.0,-51.0,-16.0,-10.0,-24.0,22.0,0.0,2.1021180152893066
376,-133.0,176.0,56.0,0.0,4171.0,6174.0,10994.0,9593.0,13.0,1.0,2.0,-15.0,-26.0,-21.0,-3.0,4.0,2.115178108215332
377,116.0,163.0,37.0,0.0,4134.0,6172.0,11024.0,9576.0,13.0,1.0,2.0,-15.0,-26.0,-21.0,-3.0,4.0,2.116964340209961
378,116.0,163.0,37.0,0.0,4134.0,6172.0,11024.0,9576.0,40.0,49.0,-34.0,2.0,40.0,43.0,21.0,16.0,2.122016429901123
379,116.0,163.0,37.0,0.0,4134.0,6172.0,11024.0,9576.0,4.0,51.0,31.0,-22.0,-18.0,16.0,30.0,1.0,2.138279438018799
380,66.0,153.0,30.0,0.0,4108.0,6164.0,11046.0,9567.0,4.0,51.0,31.0,-22.0,-18.0,16.0,30.0,1.0,2.140059232711792
381,66.0,153.0,30.0,0.0,4108.0,6164.0,11046.0,9567.0,-9.0,-19.0,-3.0,8.0,-8.0,15.0,19.0,-10.0,2.1418864727020264
382,66.0,153.0,30.0,0.0,4108.0,6164.0,11046.0,9567.0,-25.0,4.0,-6.0,-16.0,-31.0,-25.0,-15.0,-6.0,2.1610612869262695
383,-81.0,117.0,72.0,0.0,4089.0,6159.0,11037.0,9589.0,-25.0,4.0,-6.0,-16.0,-31.0,-25.0,-15.0,-6.0,2.1644949913024902
384,-81.0,117.0,72.0,0.0,4089.0,6159.0,11037.0,9589.0,7.0,5.0,8.0,-5.0,2.0,-11.0,-40.0,-2.0,2.1679298877716064
385,-81.0,117.0,72.0,0.0,4089.0,6159.0,11037.0,9589.0,-38.0,-66.0,21.0,17.0,11.0,-22.0,-1.0,-13.0,2.175635576248169
386,-57.0,82.0,35.0,0.0,4072.0,6157.0,11028.0,9607.0,-38.0,-66.0,21.0,17.0,11.0,-22.0,-1.0,-13.0,2.1781232357025146
387,-57.0,82.0,35.0,0.0,4072.0,6157.0,11028.0,9607.0,-4.0,-3.0,19.0,-34.0,-43.0,-59.0,-33.0,-10.0,2.1823246479034424
388,-57.0,82.0,35.0,0.0,4072.0,6157.0,11028.0,9607.0,-7.0,-45.0,-1.0,9.0,-40.0,-42.0,38.0,6.0,2.1995809078216553
389,17.0,47.0,37.0,0.0,4057.0,6161.0,11032.0,9606.0,-7.0,-45.0,-1.0,9.0,-40.0,-42.0,38.0,6.0,2.2026278972625732
390,17.0,47.0,37.0,0.0,4057.0,6161.0,11032.0,9606.0,8.0,30.0,10.0,-8.0,-12.0,-19.0,3.0,-3.0,2.2057392597198486
391,17.0,47.0,37.0,0.0,4057.0,6161.0,11032.0,9606.0,-6.0,-26.0,-23.0,7.0,-2.0,11.0,-36.0,-18.0,2.2212464809417725
392,-59.0,50.0,47.0,0.0,4046.0,6163.0,11030.0,9613.0,-6.0,-26.0,-23.0,7.0,-2.0,11.0,-36.0,-18.0,2.2249374389648438
393,-59.0,50.0,47.0,0.0,4046.0,6163.0,11030.0,9613.0,0.0,-27.0,-13.0,21.0,19.0,18.0,11.0,-4.0,2.228795051574707
394,-59.0,50.0,47.0,0.0,4046.0,6163.0,11030.0,9613.0,12.0,17.0,19.0,5.0,26.0,17.0,5.0,10.0,2.2362053394317627
395,-193.0,75.0,59.0,0.0,4037.0,6159.0,11009.0,9642.0,12.0,17.0,19.0,5.0,26.0,17.0,5.0,10.0,2.2383499145507812
396,-193.0,75.0,59.0,0.0,4037.0,6159.0,11009.0,9642.0,-1.0,2.0,31.0,22.0,11.0,18.0,23.0,2.0,2.242030143737793
397,-193.0,75.0,59.0,0.0,4037.0,6159.0,11009.0,9642.0,-8.0,7.0,-23.0,13.0,39.0,12.0,-8.0,9.0,2.2579245567321777
398,-179.0,101.0,82.0,0.0,4017.0,6159.0,10984.0,9679.0,-8.0,7.0,-23.0,13.0,39.0,12.0,-8.0,9.0,2.2600691318511963
399,-179.0,101.0,82.0,0.0,4017.0,6159.0,10984.0,9679.0,6.0,24.0,6.0,-9.0,-9.0,-6.0,0.0,-3.0,2.262017011642456
400,-179.0,101.0,82.0,0.0,4017.0,6159.0,10984.0,9679.0,-1.0,-11.0,-18.0,4.0,8.0,24.0,6.0,2.0,2.2818562984466553
401,-43.0,129.0,27.0,0.0,3993.0,6154.0,10982.0,9695.0,-1.0,-11.0,-18.0,4.0,8.0,24.0,6.0,2.0,2.2849414348602295
402,-43.0,129.0,27.0,0.0,3993.0,6154.0,10982.0,9695.0,-28.0,-28.0,39.0,6.0,-10.0,4.0,7.0,0.0,2.288041830062866
403,-43.0,129.0,27.0,0.0,3993.0,6154.0,10982.0,9695.0,3.0,13.0,-19.0,-19.0,27.0,22.0,-13.0,-6.0,2.2950515747070312
404,-30.0,140.0,10.0,0.0,3973.0,6142.0,10986.0,9706.0,3.0,13.0,-19.0,-19.0,27.0,22.0,-13.0,-6.0,2.296895980834961
405,-30.0,140.0,10.0,0.0,3973.0,6142.0,10986.0,9706.0,16.0,-19.0,-6.0,-1.0,-1.0,18.0,26.0,0.0,2.3019561767578125
406,-30.0,140.0,10.0,0.0,3973.0,6142.0,10986.0,9706.0,4.0,-17.0,-34.0,-25.0,-11.0,12.0,-13.0,-11.0,2.31941556930542
407,-129.0,153.0,38.0,0.0,3954.0,6129.0,10975.0,9735.0,4.0,-17.0,-34.0,-25.0,-11.0,12.0,-13.0,-11.0,2.3231542110443115
408,-129.0,153.0,38.0,0.0,3954.0,6129.0,10975.0,9735.0,-1.0,2.0,-13.0,0.0,8.0,3.0,2.0,-2.0,2.3271188735961914
409,-129.0,153.0,38.0,0.0,3954.0,6129.0,10975.0,9735.0,7.0,-10.0,-51.0,14.0,-30.0,-26.0,5.0,5.0,2.341153383255005
410,-139.0,188.0,40.0,0.0,3930.0,6114.0,10965.0,9765.0,7.0,-10.0,-51.0,14.0,-30.0,-26.0,5.0,5.0,2.344623327255249
411,-139.0,188.0,40.0,0.0,3930.0,6114.0,10965.0,9765.0,0.0,16.0,-12.0,-2.0,0.0,-9.0,-9.0,4.0,2.34910249710083
412,-139.0,188.0,40.0,0.0,3930.0,6114.0,10965.0,9765.0,-16.0,14.0,26.0,-10.0,-58.0,-56.0,6.0,-10.0,2.3560950756073
413,-67.0,190.0,69.0,0.0,3900.0,6103.0,10969.0,9779.0,-16.0,14.0,26.0,-10.0,-58.0,-56.0,6.0,-10.0,2.3583810329437256
414,-67.0,190.0,69.0,0.0,3900.0,6103.0,10969.0,9779.0,-5.0,-15.0,10.0,4.0,12.0,-3.0,-12.0,-5.0,2.361781597137451
415,-67.0,190.0,69.0,0.0,3900.0,6103.0,10969.0,9779.0,-8.0,14.0,0.0,4.0,8.0,16.0,4.0,2.0,2.379302740097046
416,-62.0,187.0,97.0,0.0,3867.0,6097.0,10970.0,9794.0,-8.0,14.0,0.0,4.0,8.0,16.0,4.0,2.0,2.383812189102173
417,-62.0,187.0,97.0,0.0,3867.0,6097.0,10970.0,9794.0,-6.0,-30.0,-12.0,-28.0,-3.0,-2.0,9.0,-1.0,2.387256145477295
418,-62.0,187.0,97.0,0.0,3867.0,6097.0,10970.0,9794.0,-17.0,-17.0,21.0,-4.0,1.0,22.0,-1.0,-4.0,2.402794361114502
419,-69.0,182.0,131.0,0.0,3827.0,6098.0,10962.0,9819.0,-17.0,-17.0,21.0,-4.0,1.0,22.0,-1.0,-4.0,2.406877040863037
420,-69.0,182.0,131.0,0.0,3827.0,6098.0,10962.0,9819.0,-3.0,8.0,14.0,18.0,8.0,2.0,-3.0,8.0,2.4100611209869385
421,-69.0,182.0,131.0,0.0,3827.0,6098.0,10962.0,9819.0,7.0,-3.0,0.0,-25.0,3.0,-38.0,-11.0,0.0,2.4158761501312256
422,-45.0,201.0,162.0,0.0,3781.0,6101.0,10961.0,9836.0,7.0,-3.0,0.0,-25.0,3.0,-38.0,-11.0,0.0,2.4177770614624023
423,-45.0,201.0,162.0,0.0,3781.0,6101.0,10961.0,9836.0,8.0,3.0,-20.0,-4.0,3.0,8.0,-4.0,0.0,2.421902656555176
424,-45.0,201.0,162.0,0.0,3781.0,6101.0,10961.0,9836.0,2.0,-5.0,3.0,1.0,-1.0,13.0,-5.0,2.0,2.439089298248291
425,-74.0,227.0,209.0,0.0,3735.0,6102.0,10963.0,9851.0,2.0,-5.0,3.0,1.0,-1.0,13.0,-5.0,2.0,2.442474603652954
426,-74.0,227.0,209.0,0.0,3735.0,6102.0,10963.0,9851.0,-1.0,-14.0,-2.0,0.0,13.0,-8.0,7.0,-3.0,2.4459853172302246
427,-74.0,227.0,209.0,0.0,3735.0,6102.0,10963.0,9851.0,14.0,14.0,9.0,8.0,20.0,3.0,-12.0,7.0,2.4627676010131836
428,-117.0,240.0,226.0,0.0,3689.0,6100.0,10960.0,9872.0,14.0,14.0,9.0,8.0,20.0,3.0,-12.0,7.0,2.4680252075195312
429,-117.0,240.0,226.0,0.0,3689.0,6100.0,10960.0,9872.0,23.0,30.0,-5.0,1.0,-1.0,18.0,3.0,0.0,2.4719862937927246
430,-117.0,240.0,226.0,0.0,3689.0,6100.0,10960.0,9872.0,4.0,27.0,34.0,1.0,-2.0,15.0,16.0,6.0,2.474647045135498
431,-111.0,223.0,288.0,0.0,3633.0,6113.0,10945.0,9902.0,4.0,27.0,34.0,1.0,-2.0,15.0,16.0,6.0,2.4767210483551025
432,-111.0,223.0,288.0,0.0,3633.0,6113.0,10945.0,9902.0,-20.0,-27.0,-22.0,11.0,-21.0,-14.0,-7.0,-6.0,2.4816324710845947
433,-111.0,223.0,288.0,0.0,3633.0,6113.0,10945.0,9902.0,4.0,11.0,34.0,19.0,50.0,19.0,2.0,3.0,2.499319314956665
434,-79.0,234.0,281.0,0.0,3570.0,6127.0,10931.0,9932.0,4.0,11.0,34.0,19.0,50.0,19.0,2.0,3.0,2.5023224353790283
435,-79.0,234.0,281.0,0.0,3570.0,6127.0,10931.0,9932.0,-4.0,-11.0,-21.0,-12.0,-6.0,-8.0,6.0,-4.0,2.505631685256958
436,-79.0,234.0,281.0,0.0,3570.0,6127.0,10931.0,9932.0,3.0,-14.0,3.0,-2.0,-13.0,-11.0,-11.0,-9.0,2.522690773010254
437,-109.0,244.0,320.0,0.0,3511.0,6137.0,10914.0,9965.0,3.0,-14.0,3.0,-2.0,-13.0,-11.0,-11.0,-9.0,2.5268516540527344
438,-109.0,244.0,320.0,0.0,3511.0,6137.0,10914.0,9965.0,-12.0,-12.0,19.0,0.0,10.0,-4.0,-19.0,-4.0,2.531320810317993
439,-109.0,244.0,320.0,0.0,3511.0,6137.0,10914.0,9965.0,-4.0,2.0,-14.0,-7.0,-10.0,-7.0,-13.0,-1.0,2.5350286960601807
440,-160.0,209.0,332.0,0.0,3452.0,6155.0,10882.0,10009.0,-4.0,2.0,-14.0,-7.0,-10.0,-7.0,-13.0,-1.0,2.536881446838379
441,-160.0,209.0,332.0,0.0,3452.0,6155.0,10882.0,10009.0,-2.0,-1.0,-10.0,-2.0,2.0,-8.0,-15.0,-4.0,2.5420939922332764
442,-160.0,209.0,332.0,0.0,3452.0,6155.0,10882.0,10009.0,-10.0,-4.0,-20.0,-4.0,-12.0,-14.0,-8.0,-2.0,2.5585687160491943
443,-30.0,172.0,245.0,0.0,3394.0,6174.0,10862.0,10039.0,-10.0,-4.0,-20.0,-4.0,-12.0,-14.0,-8.0,-2.0,2.562272310256958
444,-30.0,172.0,245.0,0.0,3394.0,6174.0,10862.0,10039.0,15.0,40.0,21.0,9.0,19.0,15.0,15.0,1.0,2.5668275356292725
445,-30.0,172.0,245.0,0.0,3394.0,6174.0,10862.0,10039.0,-5.0,-4.0,-32.0,10.0,9.0,14.0,2.0,-1.0,2.5806591510772705
446,167.0,134.0,163.0,0.0,3335.0,6193.0,10860.0,10048.0,-5.0,-4.0,-32.0,10.0,9.0,14.0,2.0,-1.0,2.582549810409546
447,167.0,134.0,163.0,0.0,3335.0,6193.0,10860.0,10048.0,-9.0,-4.0,2.0,-6.0,-29.0,-3.0,6.0,1.0,2.5851073265075684
448,167.0,134.0,163.0,0.0,3335.0,6193.0,10860.0,10048.0,-4.0,-9.0,-23.0,-18.0,-11.0,-9.0,-5.0,-1.0,2.5952563285827637
449,340.0,51.0,149.0,0.0,3278.0,6226.0,10879.0,10028.0,-4.0,-9.0,-23.0,-18.0,-11.0,-9.0,-5.0,-1.0,2.598576784133911
450,340.0,51.0,149.0,0.0,3278.0,6226.0,10879.0,10028.0,-14.0,-31.0,-9.0,-3.0,6.0,-10.0,-14.0,-4.0,2.601663589477539
451,340.0,51.0,149.0,0.0,3278.0,6226.0,10879.0,10028.0,9.0,-2.0,28.0,-18.0,-30.0,-1.0,-3.0,0.0,2.617530345916748
452,345.0,8.0,155.0,0.0,3226.0,6263.0,10901.0,9997.0,9.0,-2.0,28.0,-18.0,-30.0,-1.0,-3.0,0.0,2.619398355484009
453,345.0,8.0,155.0,0.0,3226.0,6263.0,10901.0,9997.0,0.0,-2.0,-8.0,-10.0,19.0,10.0,-10.0,0.0,2.6244864463806152
454,345.0,8.0,155.0,0.0,3226.0,6263.0,10901.0,9997.0,15.0,-5.0,-8.0,17.0,37.0,10.0,10.0,2.0,2.6409904956817627
455,325.0,-41.0,219.0,0.0,3167.0,6318.0,10910.0,9971.0,15.0,-5.0,-8.0,17.0,37.0,10.0,10.0,2.0,2.6441736221313477
456,325.0,-41.0,219.0,0.0,3167.0,6318.0,10910.0,9971.0,-8.0,-16.0,-16.0,-8.0,-14.0,-4.0,5.0,-2.0,2.64811372756958
457,325.0,-41.0,219.0,0.0,3167.0,6318.0,10910.0,9971.0,-3.0,30.0,-3.0,-3.0,-4.0,-1.0,5.0,2.0,2.6554863452911377
458,461.0,-176.0,161.0,0.0,3114.0,6387.0,10919.0,9934.0,-3.0,30.0,-3.0,-3.0,-4.0,-1.0,5.0,2.0,2.6578330993652344
459,461.0,-176.0,161.0,0.0,3114.0,6387.0,10919.0,9934.0,7.0,0.0,9.0,8.0,5.0,-4.0,-2.0,2.0,2.6618921756744385
460,461.0,-176.0,161.0,0.0,3114.0,6387.0,10919.0,9934.0,-5.0,-10.0,-2.0,0.0,-12.0,-3.0,9.0,-5.0,2.6803555488586426
461,718.0,-321.0,144.0,0.0,3050.0,6487.0,10945.0,9860.0,-5.0,-10.0,-2.0,0.0,-12.0,-3.0,9.0,-5.0,2.6847219467163086
462,718.0,-321.0,144.0,0.0,3050.0,6487.0,10945.0,9860.0,0.0,6.0,4.0,3.0,-8.0,-3.0,2.0,-1.0,2.688232183456421
463,718.0,-321.0,144.0,0.0,3050.0,6487.0,10945.0,9860.0,-3.0,-10.0,-3.0,-3.0,-8.0,0.0,2.0,2.0,2.7010927200317383
464,951.0,-410.0,191.0,0.0,2967.0,6615.0,10995.0,9744.0,-3.0,-10.0,-3.0,-3.0,-8.0,0.0,2.0,2.0,2.704472064971924
465,951.0,-410.0,191.0,0.0,2967.0,6615.0,10995.0,9744.0,-1.0,21.0,27.0,0.0,-3.0,-1.0,1.0,-4.0,2.708505868911743
466,951.0,-410.0,191.0,0.0,2967.0,6615.0,10995.0,9744.0,4.0,14.0,4.0,4.0,4.0,5.0,-9.0,2.0,2.7166168689727783
467,1136.0,-479.0,221.0,0.0,2876.0,6757.0,11066.0,9593.0,4.0,14.0,4.0,4.0,4.0,5.0,-9.0,2.0,2.72255277633667
468,1136.0,-479.0,221.0,0.0,2876.0,6757.0,11066.0,9593.0,4.0,-6.0,-10.0,-4.0,2.0,0.0,-9.0,6.0,2.724438428878784
469,1136.0,-479.0,221.0,0.0,2876.0,6757.0,11066.0,9593.0,7.0,8.0,-10.0,-9.0,-9.0,20.0,7.0,-3.0,2.7392654418945312
470,1231.0,-605.0,215.0,0.0,2803.0,6907.0,11146.0,9413.0,7.0,8.0,-10.0,-9.0,-9.0,20.0,7.0,-3.0,2.742812156677246
471,1231.0,-605.0,215.0,0.0,2803.0,6907.0,11146.0,9413.0,-6.0,-3.0,-6.0,-2.0,-10.0,-14.0,4.0,-3.0,2.7465646266937256
472,1231.0,-605.0,215.0,0.0,2803.0,6907.0,11146.0,9413.0,-4.0,-12.0,4.0,3.0,0.0,-1.0,-2.0,-1.0,2.761686325073242
473,1210.0,-814.0,226.0,0.0,2750.0,7076.0,11207.0,9229.0,-4.0,-12.0,4.0,3.0,0.0,-1.0,-2.0,-1.0,2.765665292739868
474,1210.0,-814.0,226.0,0.0,2750.0,7076.0,11207.0,9229.0,7.0,-6.0,-3.0,2.0,-2.0,-2.0,4.0,4.0,2.7701826095581055
475,1210.0,-814.0,226.0,0.0,2750.0,7076.0,11207.0,9229.0,-6.0,-11.0,1.0,4.0,-4.0,-10.0,-11.0,-5.0,2.773897409439087
476,1151.0,-821.0,446.0,0.0,2663.0,7279.0,11240.0,9055.0,-6.0,-11.0,1.0,4.0,-4.0,-10.0,-11.0,-5.0,2.7835302352905273
477,1151.0,-821.0,446.0,0.0,2663.0,7279.0,11240.0,9055.0,-2.0,-1.0,-4.0,1.0,15.0,6.0,-3.0,-7.0,2.785435914993286
478,1151.0,-821.0,446.0,0.0,2663.0,7279.0,11240.0,9055.0,1.0,-12.0,-8.0,-4.0,2.0,3.0,11.0,-1.0,2.805532455444336
479,1113.0,-567.0,888.0,0.0,2501.0,7511.0,11248.0,8900.0,1.0,-12.0,-8.0,-4.0,2.0,3.0,11.0,-1.0,2.8073387145996094
480,1113.0,-567.0,888.0,0.0,2501.0,7511.0,11248.0,8900.0,7.0,-2.0,-6.0,-2.0,-3.0,4.0,16.0,8.0,2.8092310428619385
481,1113.0,-567.0,888.0,0.0,2501.0,7511.0,11248.0,8900.0,-3.0,10.0,10.0,0.0,-3.0,-3.0,-3.0,0.0,2.820648193359375
482,1259.0,-400.0,1161.0,0.0,2297.0,7753.0,11268.0,8721.0,-3.0,10.0,10.0,0.0,-3.0,-3.0,-3.0,0.0,2.8224399089813232
483,1259.0,-400.0,1161.0,0.0,2297.0,7753.0,11268.0,8721.0,-3.0,0.0,-6.0,2.0,4.0,0.0,-10.0,0.0,2.824303150177002
484,1384.0,-386.0,1338.0,0.0,2070.0,8008.0,11277.0,8533.0,-3.0,0.0,-6.0,2.0,4.0,0.0,-10.0,0.0,2.8349099159240723
485,1384.0,-386.0,1338.0,0.0,2070.0,8008.0,11277.0,8533.0,-4.0,-10.0,-1.0,1.0,-2.0,-7.0,-4.0,2.0,2.8424360752105713
486,1384.0,-386.0,1338.0,0.0,2070.0,8008.0,11277.0,8533.0,-2.0,5.0,-10.0,-10.0,-18.0,-2.0,-7.0,-13.0,2.8442370891571045
487,1278.0,-241.0,1633.0,0.0,1828.0,8262.0,11243.0,8390.0,-2.0,5.0,-10.0,-10.0,-18.0,-2.0,-7.0,-13.0,2.8567991256713867
488,1278.0,-241.0,1633.0,0.0,1828.0,8262.0,11243.0,8390.0,5.0,14.0,8.0,2.0,5.0,3.0,-3.0,5.0,2.86686635017395
489,1278.0,-241.0,1633.0,0.0,1828.0,8262.0,11243.0,8390.0,1.0,-8.0,-4.0,0.0,3.0,6.0,5.0,-3.0,2.869769334793091
490,972.0,18.0,1904.0,0.0,1561.0,8512.0,11156.0,8310.0,1.0,-8.0,-4.0,0.0,3.0,6.0,5.0,-3.0,2.8823330402374268
491,972.0,18.0,1904.0,0.0,1561.0,8512.0,11156.0,8310.0,-5.0,-11.0,-13.0,-6.0,-5.0,-3.0,-1.0,-6.0,2.884427547454834
492,972.0,18.0,1904.0,0.0,1561.0,8512.0,11156.0,8310.0,-2.0,3.0,0.0,2.0,-5.0,7.0,7.0,2.0,2.8862037658691406
493,754.0,174.0,1959.0,0.0,1294.0,8744.0,11044.0,8265.0,-2.0,3.0,0.0,2.0,-5.0,7.0,7.0,2.0,2.894942045211792
494,754.0,174.0,1959.0,0.0,1294.0,8744.0,11044.0,8265.0,-4.0,-5.0,2.0,7.0,1.0,-18.0,-1.0,-5.0,2.9024765491485596
495,754.0,174.0,1959.0,0.0,1294.0,8744.0,11044.0,8265.0,0.0,-2.0,4.0,-1.0,7.0,7.0,-5.0,-2.0,2.9042699337005615
496,669.0,161.0,2051.0,0.0,1027.0,8983.0,10908.0,8226.0,0.0,-2.0,4.0,-1.0,7.0,7.0,-5.0,-2.0,2.9166507720947266
497,669.0,161.0,2051.0,0.0,1027.0,8983.0,10908.0,8226.0,-7.0,-24.0,-7.0,5.0,3.0,7.0,6.0,-3.0,2.9269044399261475
498,669.0,161.0,2051.0,0.0,1027.0,8983.0,10908.0,8226.0,8.0,21.0,10.0,2.0,-2.0,-3.0,-3.0,1.0,2.9301748275756836
499,699.0,74.0,2112.0,0.0,761.0,9232.0,10762.0,8173.0,8.0,21.0,10.0,2.0,-2.0,-3.0,-3.0,1.0,2.94039249420166
