,Gyro 0,Gyro 1,Gyro 2,Label,Orientation 0,Orientation 1,Orientation 2,Orientation 3,Sensor 0,Sensor 1,Sensor 2,Sensor 3,Sensor 4,Sensor 5,Sensor 6,Sensor 7,Timestamp
0,56.0,-151.0,209.0,0.0,-1954.0,8669.0,11023.0,8242.0,4.0,19.0,-7.0,-8.0,-9.0,-3.0,-6.0,-1.0,1.9073486328125e-06
1,-125.0,-106.0,167.0,0.0,-1915.0,8686.0,11009.0,8252.0,4.0,19.0,-7.0,-8.0,-9.0,-3.0,-6.0,-1.0,0.002418041229248047
2,-125.0,-106.0,167.0,0.0,-1915.0,8686.0,11009.0,8252.0,9.0,8.0,-16.0,-6.0,-6.0,-3.0,-8.0,0.0,0.00583338737487793
3,-125.0,-106.0,167.0,0.0,-1915.0,8686.0,11009.0,8252.0,-5.0,-9.0,5.0,4.0,-1.0,-4.0,-2.0,2.0,0.008748292922973633
4,-228.0,-94.0,109.0,0.0,-1871.0,8702.0,10988.0,8274.0,-5.0,-9.0,5.0,4.0,-1.0,-4.0,-2.0,2.0,0.011932373046875
5,-228.0,-94.0,109.0,0.0,-1871.0,8702.0,10988.0,8274.0,18.0,9.0,-11.0,-2.0,2.0,0.0,2.0,3.0,0.014247655868530273
6,-228.0,-94.0,109.0,0.0,-1871.0,8702.0,10988.0,8274.0,-2.0,-9.0,8.0,1.0,-1.0,3.0,0.0,5.0,0.016093015670776367
7,-204.0,-82.0,45.0,0.0,-1832.0,8714.0,10974.0,8288.0,-2.0,-9.0,8.0,1.0,-1.0,3.0,0.0,5.0,0.017888307571411133
8,-204.0,-82.0,45.0,0.0,-1832.0,8714.0,10974.0,8288.0,-11.0,-14.0,-5.0,-5.0,-12.0,-7.0,-4.0,-5.0,0.021274805068969727
9,-204.0,-82.0,45.0,0.0,-1832.0,8714.0,10974.0,8288.0,-8.0,-21.0,0.0,-1.0,6.0,-1.0,-9.0,-2.0,0.023833751678466797
10,-172.0,-104.0,15.0,0.0,-1789.0,8727.0,10969.0,8290.0,-8.0,-21.0,0.0,-1.0,6.0,-1.0,-9.0,-2.0,0.026131868362426758
11,-172.0,-104.0,15.0,0.0,-1789.0,8727.0,10969.0,8290.0,7.0,-8.0,-12.0,-4.0,-1.0,2.0,0.0,0.0,0.028106689453125
12,-172.0,-104.0,15.0,0.0,-1789.0,8727.0,10969.0,8290.0,-3.0,-9.0,-13.0,-6.0,-1.0,0.0,7.0,0.0,0.029901742935180664
13,-209.0,-89.0,-27.0,0.0,-1744.0,8737.0,10965.0,8295.0,-3.0,-9.0,-13.0,-6.0,-1.0,0.0,7.0,0.0,0.03168511390686035
14,-209.0,-89.0,-27.0,0.0,-1744.0,8737.0,10965.0,8295.0,-8.0,-5.0,7.0,4.0,9.0,2.0,-13.0,0.0,0.03356456756591797
15,-209.0,-89.0,-27.0,0.0,-1744.0,8737.0,10965.0,8295.0,7.0,28.0,-9.0,-6.0,-1.0,-3.0,-1.0,-1.0,0.03535175323486328
16,-194.0,-39.0,-92.0,0.0,-1700.0,8735.0,10969.0,8301.0,7.0,28.0,-9.0,-6.0,-1.0,-3.0,-1.0,-1.0,0.03722238540649414
17,-194.0,-39.0,-92.0,0.0,-1700.0,8735.0,10969.0,8301.0,17.0,29.0,-19.0,2.0,8.0,5.0,3.0,2.0,0.03908848762512207
18,-194.0,-39.0,-92.0,0.0,-1700.0,8735.0,10969.0,8301.0,-6.0,9.0,19.0,3.0,1.0,0.0,9.0,-2.0,0.04210948944091797
19,-99.0,-13.0,-119.0,0.0,-1667.0,8727.0,10983.0,8297.0,-6.0,9.0,19.0,3.0,1.0,0.0,9.0,-2.0,0.04405546188354492
20,-99.0,-13.0,-119.0,0.0,-1667.0,8727.0,10983.0,8297.0,-10.0,-34.0,-3.0,1.0,-1.0,1.0,-9.0,-2.0,0.045952796936035156
21,-99.0,-13.0,-119.0,0.0,-1667.0,8727.0,10983.0,8297.0,2.0,-8.0,-22.0,-6.0,-11.0,-4.0,3.0,-3.0,0.04774308204650879
22,-52.0,38.0,-159.0,0.0,-1636.0,8707.0,11007.0,8292.0,2.0,-8.0,-22.0,-6.0,-11.0,-4.0,3.0,-3.0,0.04952192306518555
23,-52.0,38.0,-159.0,0.0,-1636.0,8707.0,11007.0,8292.0,-4.0,16.0,22.0,0.0,5.0,-1.0,-6.0,-2.0,0.051746368408203125
24,-52.0,38.0,-159.0,0.0,-1636.0,8707.0,11007.0,8292.0,-7.0,-16.0,15.0,-3.0,-6.0,-5.0,3.0,-1.0,0.05505037307739258
25,-81.0,114.0,-170.0,0.0,-1610.0,8676.0,11027.0,8304.0,-7.0,-16.0,15.0,-3.0,-6.0,-5.0,3.0,-1.0,0.0575563907623291
26,-81.0,114.0,-170.0,0.0,-1610.0,8676.0,11027.0,8304.0,5.0,17.0,0.0,0.0,-4.0,-1.0,-2.0,0.0,0.06008791923522949
27,-81.0,114.0,-170.0,0.0,-1610.0,8676.0,11027.0,8304.0,-2.0,-11.0,3.0,1.0,-10.0,-2.0,1.0,-1.0,0.06196451187133789
28,-38.0,185.0,-205.0,0.0,-1595.0,8636.0,11052.0,8315.0,-2.0,-11.0,3.0,1.0,-10.0,-2.0,1.0,-1.0,0.06378984451293945
29,-38.0,185.0,-205.0,0.0,-1595.0,8636.0,11052.0,8315.0,-5.0,-17.0,-15.0,3.0,7.0,3.0,1.0,-3.0,0.06568479537963867
30,-38.0,185.0,-205.0,0.0,-1595.0,8636.0,11052.0,8315.0,5.0,9.0,2.0,4.0,15.0,6.0,-1.0,0.0,0.06745123863220215
31,18.0,222.0,-160.0,0.0,-1597.0,8596.0,11074.0,8326.0,5.0,9.0,2.0,4.0,15.0,6.0,-1.0,0.0,0.06939911842346191
32,18.0,222.0,-160.0,0.0,-1597.0,8596.0,11074.0,8326.0,-2.0,3.0,12.0,-2.0,-3.0,-2.0,-4.0,0.0,0.07129287719726562
33,18.0,222.0,-160.0,0.0,-1597.0,8596.0,11074.0,8326.0,-1.0,-4.0,-15.0,1.0,5.0,4.0,0.0,-3.0,0.07312846183776855
34,-18.0,285.0,-120.0,0.0,-1615.0,8557.0,11082.0,8352.0,-1.0,-4.0,-15.0,1.0,5.0,4.0,0.0,-3.0,0.0749197006225586
35,-18.0,285.0,-120.0,0.0,-1615.0,8557.0,11082.0,8352.0,-2.0,-4.0,1.0,-1.0,-9.0,-2.0,-3.0,-4.0,0.0767970085144043
36,-18.0,285.0,-120.0,0.0,-1615.0,8557.0,11082.0,8352.0,5.0,18.0,-12.0,3.0,7.0,2.0,-9.0,-1.0,0.07859253883361816
37,-10.0,341.0,-81.0,0.0,-1651.0,8519.0,11084.0,8382.0,5.0,18.0,-12.0,3.0,7.0,2.0,-9.0,-1.0,0.08041095733642578
38,-10.0,341.0,-81.0,0.0,-1651.0,8519.0,11084.0,8382.0,2.0,15.0,4.0,1.0,-4.0,-4.0,0.0,0.0,0.08348608016967773
39,-10.0,341.0,-81.0,0.0,-1651.0,8519.0,11084.0,8382.0,0.0,0.0,-12.0,-1.0,2.0,1.0,1.0,3.0,0.08586287498474121
40,5.0,366.0,-71.0,0.0,-1689.0,8478.0,11085.0,8414.0,0.0,0.0,-12.0,-1.0,2.0,1.0,1.0,3.0,0.08773636817932129
41,5.0,366.0,-71.0,0.0,-1689.0,8478.0,11085.0,8414.0,-14.0,-32.0,-6.0,-3.0,-5.0,-4.0,-8.0,-6.0,0.0898292064666748
42,5.0,366.0,-71.0,0.0,-1689.0,8478.0,11085.0,8414.0,1.0,-11.0,-11.0,-4.0,1.0,-3.0,1.0,0.0,0.09253168106079102
43,37.0,391.0,-88.0,0.0,-1735.0,8435.0,11091.0,8440.0,1.0,-11.0,-11.0,-4.0,1.0,-3.0,1.0,0.0,0.09434032440185547
44,37.0,391.0,-88.0,0.0,-1735.0,8435.0,11091.0,8440.0,-3.0,8.0,18.0,-5.0,1.0,0.0,2.0,1.0,0.09620857238769531
45,37.0,391.0,-88.0,0.0,-1735.0,8435.0,11091.0,8440.0,4.0,20.0,16.0,4.0,3.0,2.0,6.0,3.0,0.09810543060302734
46,94.0,419.0,-123.0,0.0,-1789.0,8388.0,11104.0,8458.0,4.0,20.0,16.0,4.0,3.0,2.0,6.0,3.0,0.0999002456665039
47,94.0,419.0,-123.0,0.0,-1789.0,8388.0,11104.0,8458.0,0.0,-7.0,9.0,-1.0,-9.0,-6.0,1.0,-2.0,0.10175704956054688
48,94.0,419.0,-123.0,0.0,-1789.0,8388.0,11104.0,8458.0,2.0,-6.0,-11.0,3.0,6.0,0.0,2.0,-1.0,0.10376882553100586
49,198.0,404.0,-54.0,0.0,-1860.0,8348.0,11120.0,8462.0,2.0,-6.0,-11.0,3.0,6.0,0.0,2.0,-1.0,0.10557150840759277
50,198.0,404.0,-54.0,0.0,-1860.0,8348.0,11120.0,8462.0,-7.0,-9.0,3.0,3.0,13.0,3.0,-1.0,0.0,0.10744476318359375
51,198.0,404.0,-54.0,0.0,-1860.0,8348.0,11120.0,8462.0,5.0,25.0,37.0,2.0,-3.0,-1.0,0.0,-2.0,0.10927176475524902
52,216.0,344.0,2.0,0.0,-1928.0,8315.0,11130.0,8467.0,5.0,25.0,37.0,2.0,-3.0,-1.0,0.0,-2.0,0.11112475395202637
53,216.0,344.0,2.0,0.0,-1928.0,8315.0,11130.0,8467.0,-7.0,-1.0,-9.0,1.0,8.0,3.0,-3.0,0.0,0.11410403251647949
54,216.0,344.0,2.0,0.0,-1928.0,8315.0,11130.0,8467.0,-3.0,-15.0,-14.0,-2.0,-6.0,-3.0,-5.0,0.0,0.11643171310424805
55,139.0,272.0,50.0,0.0,-1982.0,8293.0,11129.0,8477.0,-3.0,-15.0,-14.0,-2.0,-6.0,-3.0,-5.0,0.0,0.11825037002563477
56,139.0,272.0,50.0,0.0,-1982.0,8293.0,11129.0,8477.0,-5.0,-5.0,3.0,0.0,-7.0,-1.0,2.0,0.0,0.12013864517211914
57,139.0,272.0,50.0,0.0,-1982.0,8293.0,11129.0,8477.0,10.0,20.0,7.0,0.0,2.0,-1.0,-5.0,2.0,0.12192916870117188
58,42.0,185.0,26.0,0.0,-2017.0,8277.0,11120.0,8495.0,10.0,20.0,7.0,0.0,2.0,-1.0,-5.0,2.0,0.12478947639465332
59,42.0,185.0,26.0,0.0,-2017.0,8277.0,11120.0,8495.0,1.0,1.0,1.0,-4.0,-12.0,-5.0,-4.0,-2.0,0.12674260139465332
60,42.0,185.0,26.0,0.0,-2017.0,8277.0,11120.0,8495.0,-9.0,-15.0,-6.0,-5.0,-3.0,-3.0,1.0,-4.0,0.1285228729248047
61,-1.0,144.0,34.0,0.0,-2049.0,8270.0,11106.0,8513.0,-9.0,-15.0,-6.0,-5.0,-3.0,-3.0,1.0,-4.0,0.13028693199157715
62,-1.0,144.0,34.0,0.0,-2049.0,8270.0,11106.0,8513.0,-3.0,-19.0,-17.0,0.0,-4.0,-3.0,-3.0,-1.0,0.13213157653808594
63,-1.0,144.0,34.0,0.0,-2049.0,8270.0,11106.0,8513.0,-4.0,-12.0,-24.0,-4.0,-3.0,-2.0,-5.0,-3.0,0.13394546508789062
64,61.0,119.0,18.0,0.0,-2081.0,8263.0,11102.0,8518.0,-4.0,-12.0,-24.0,-4.0,-3.0,-2.0,-5.0,-3.0,0.135756254196167
65,61.0,119.0,18.0,0.0,-2081.0,8263.0,11102.0,8518.0,-4.0,7.0,6.0,-2.0,0.0,-1.0,1.0,-2.0,0.13780975341796875
66,61.0,119.0,18.0,0.0,-2081.0,8263.0,11102.0,8518.0,-1.0,-3.0,2.0,-4.0,3.0,3.0,-2.0,-1.0,0.13958501815795898
67,67.0,94.0,25.0,0.0,-2104.0,8256.0,11101.0,8520.0,-1.0,-3.0,2.0,-4.0,3.0,3.0,-2.0,-1.0,0.14141416549682617
68,67.0,94.0,25.0,0.0,-2104.0,8256.0,11101.0,8520.0,5.0,4.0,-2.0,2.0,0.0,1.0,-4.0,1.0,0.1437549591064453
69,67.0,94.0,25.0,0.0,-2104.0,8256.0,11101.0,8520.0,-9.0,-41.0,-3.0,2.0,1.0,-5.0,-3.0,-1.0,0.14629340171813965
70,-44.0,120.0,55.0,0.0,-2123.0,8255.0,11089.0,8532.0,-9.0,-41.0,-3.0,2.0,1.0,-5.0,-3.0,-1.0,0.1491405963897705
71,-44.0,120.0,55.0,0.0,-2123.0,8255.0,11089.0,8532.0,15.0,27.0,5.0,-3.0,8.0,0.0,-6.0,4.0,0.15121030807495117
72,-44.0,120.0,55.0,0.0,-2123.0,8255.0,11089.0,8532.0,1.0,9.0,-18.0,-3.0,-1.0,3.0,3.0,-1.0,0.15320944786071777
73,-102.0,143.0,73.0,0.0,-2142.0,8257.0,11070.0,8549.0,1.0,9.0,-18.0,-3.0,-1.0,3.0,3.0,-1.0,0.15498065948486328
74,-102.0,143.0,73.0,0.0,-2142.0,8257.0,11070.0,8549.0,1.0,2.0,-4.0,1.0,-4.0,-1.0,1.0,-1.0,0.15779685974121094
75,-102.0,143.0,73.0,0.0,-2142.0,8257.0,11070.0,8549.0,-5.0,-5.0,-6.0,-2.0,-5.0,-3.0,-1.0,-2.0,0.1600172519683838
76,-87.0,139.0,98.0,0.0,-2171.0,8264.0,11046.0,8567.0,-5.0,-5.0,-6.0,-2.0,-5.0,-3.0,-1.0,-2.0,0.16181015968322754
77,-87.0,139.0,98.0,0.0,-2171.0,8264.0,11046.0,8567.0,-4.0,-5.0,-2.0,-6.0,1.0,0.0,-1.0,-3.0,0.16373658180236816
78,-87.0,139.0,98.0,0.0,-2171.0,8264.0,11046.0,8567.0,3.0,-2.0,-9.0,-1.0,-3.0,0.0,4.0,1.0,0.16552376747131348
79,-15.0,164.0,64.0,0.0,-2214.0,8263.0,11025.0,8584.0,3.0,-2.0,-9.0,-1.0,-3.0,0.0,4.0,1.0,0.16731762886047363
80,-15.0,164.0,64.0,0.0,-2214.0,8263.0,11025.0,8584.0,-6.0,7.0,-2.0,3.0,5.0,2.0,1.0,1.0,0.16936135292053223
81,-15.0,164.0,64.0,0.0,-2214.0,8263.0,11025.0,8584.0,5.0,5.0,-14.0,-5.0,5.0,2.0,-1.0,0.0,0.17120051383972168
82,128.0,174.0,51.0,0.0,-2269.0,8252.0,11015.0,8594.0,5.0,5.0,-14.0,-5.0,5.0,2.0,-1.0,0.0,0.17298579216003418
83,128.0,174.0,51.0,0.0,-2269.0,8252.0,11015.0,8594.0,-8.0,-22.0,-7.0,3.0,-2.0,1.0,3.0,-3.0,0.17551374435424805
84,128.0,174.0,51.0,0.0,-2269.0,8252.0,11015.0,8594.0,3.0,7.0,-2.0,-3.0,-13.0,-3.0,-4.0,0.0,0.17780184745788574
85,162.0,154.0,10.0,0.0,-2313.0,8230.0,11013.0,8605.0,3.0,7.0,-2.0,-3.0,-13.0,-3.0,-4.0,0.0,0.17959022521972656
86,162.0,154.0,10.0,0.0,-2313.0,8230.0,11013.0,8605.0,-8.0,-19.0,-3.0,0.0,4.0,-1.0,-3.0,-1.0,0.18144631385803223
87,162.0,154.0,10.0,0.0,-2313.0,8230.0,11013.0,8605.0,4.0,2.0,8.0,-4.0,-5.0,-3.0,-1.0,3.0,0.18320846557617188
88,95.0,118.0,-8.0,0.0,-2344.0,8208.0,11007.0,8625.0,4.0,2.0,8.0,-4.0,-5.0,-3.0,-1.0,3.0,0.18503665924072266
89,95.0,118.0,-8.0,0.0,-2344.0,8208.0,11007.0,8625.0,4.0,-8.0,0.0,-4.0,-4.0,-1.0,-4.0,-1.0,0.18692326545715332
90,95.0,118.0,-8.0,0.0,-2344.0,8208.0,11007.0,8625.0,-3.0,-12.0,-1.0,1.0,4.0,3.0,-1.0,0.0,0.1886904239654541
91,54.0,90.0,-31.0,0.0,-2366.0,8190.0,11001.0,8644.0,-3.0,-12.0,-1.0,1.0,4.0,3.0,-1.0,0.0,0.1908419132232666
92,54.0,90.0,-31.0,0.0,-2366.0,8190.0,11001.0,8644.0,6.0,21.0,-9.0,0.0,2.0,-3.0,-2.0,-3.0,0.19347214698791504
93,54.0,90.0,-31.0,0.0,-2366.0,8190.0,11001.0,8644.0,-15.0,-13.0,-24.0,0.0,-1.0,-3.0,-6.0,-4.0,0.19525861740112305
94,60.0,58.0,-15.0,0.0,-2381.0,8177.0,11000.0,8653.0,-15.0,-13.0,-24.0,0.0,-1.0,-3.0,-6.0,-4.0,0.1970357894897461
95,60.0,58.0,-15.0,0.0,-2381.0,8177.0,11000.0,8653.0,3.0,7.0,11.0,-2.0,-5.0,-3.0,-6.0,2.0,0.19887161254882812
96,60.0,58.0,-15.0,0.0,-2381.0,8177.0,11000.0,8653.0,-4.0,-3.0,6.0,-7.0,-10.0,0.0,-2.0,-2.0,0.20064902305603027
97,2.0,28.0,-11.0,0.0,-2383.0,8168.0,10998.0,8664.0,-4.0,-3.0,6.0,-7.0,-10.0,0.0,-2.0,-2.0,0.20248723030090332
98,2.0,28.0,-11.0,0.0,-2383.0,8168.0,10998.0,8664.0,-1.0,-14.0,-3.0,1.0,-2.0,-1.0,-2.0,-2.0,0.204634428024292
99,2.0,28.0,-11.0,0.0,-2383.0,8168.0,10998.0,8664.0,5.0,-1.0,5.0,3.0,11.0,5.0,8.0,2.0,0.2081289291381836
100,-37.0,20.0,-7.0,0.0,-2379.0,8164.0,10995.0,8673.0,5.0,-1.0,5.0,3.0,11.0,5.0,8.0,2.0,0.21076393127441406
101,-37.0,20.0,-7.0,0.0,-2379.0,8164.0,10995.0,8673.0,1.0,0.0,23.0,2.0,1.0,3.0,2.0,1.0,0.21263456344604492
102,-37.0,20.0,-7.0,0.0,-2379.0,8164.0,10995.0,8673.0,-9.0,-12.0,28.0,2.0,-10.0,-7.0,-7.0,-5.0,0.21439814567565918
103,-21.0,-22.0,13.0,0.0,-2373.0,8168.0,10994.0,8672.0,-9.0,-12.0,28.0,2.0,-10.0,-7.0,-7.0,-5.0,0.21617507934570312
104,-21.0,-22.0,13.0,0.0,-2373.0,8168.0,10994.0,8672.0,-7.0,-4.0,6.0,-1.0,-1.0,-3.0,-2.0,0.0,0.21801352500915527
105,-21.0,-22.0,13.0,0.0,-2373.0,8168.0,10994.0,8672.0,2.0,16.0,-10.0,0.0,-1.0,-3.0,1.0,-2.0,0.2200307846069336
106,41.0,-85.0,-5.0,0.0,-2364.0,8175.0,11002.0,8657.0,2.0,16.0,-10.0,0.0,-1.0,-3.0,1.0,-2.0,0.22182703018188477
107,41.0,-85.0,-5.0,0.0,-2364.0,8175.0,11002.0,8657.0,4.0,4.0,-9.0,3.0,3.0,-2.0,-5.0,0.0,0.22367143630981445
108,41.0,-85.0,-5.0,0.0,-2364.0,8175.0,11002.0,8657.0,7.0,17.0,8.0,-3.0,-4.0,-1.0,-1.0,1.0,0.2254960536956787
109,21.0,-94.0,-9.0,0.0,-2349.0,8180.0,11010.0,8646.0,7.0,17.0,8.0,-3.0,-4.0,-1.0,-1.0,1.0,0.2272653579711914
110,21.0,-94.0,-9.0,0.0,-2349.0,8180.0,11010.0,8646.0,3.0,19.0,-11.0,-6.0,-1.0,-2.0,1.0,1.0,0.22913813591003418
111,21.0,-94.0,-9.0,0.0,-2349.0,8180.0,11010.0,8646.0,3.0,26.0,13.0,6.0,2.0,2.0,-2.0,3.0,0.23093008995056152
112,-8.0,-89.0,-27.0,0.0,-2333.0,8182.0,11013.0,8645.0,3.0,26.0,13.0,6.0,2.0,2.0,-2.0,3.0,0.2327563762664795
113,-8.0,-89.0,-27.0,0.0,-2333.0,8182.0,11013.0,8645.0,0.0,-7.0,-70.0,-6.0,3.0,1.0,-2.0,-1.0,0.23459339141845703
114,-8.0,-89.0,-27.0,0.0,-2333.0,8182.0,11013.0,8645.0,-5.0,-1.0,0.0,0.0,0.0,-2.0,-2.0,-1.0,0.23729443550109863
115,-35.0,-86.0,-41.0,0.0,-2315.0,8183.0,11014.0,8647.0,-5.0,-1.0,0.0,0.0,0.0,-2.0,-2.0,-1.0,0.23987340927124023
116,-35.0,-86.0,-41.0,0.0,-2315.0,8183.0,11014.0,8647.0,-1.0,-9.0,-9.0,-8.0,-10.0,-1.0,-3.0,-2.0,0.2426927089691162
117,-35.0,-86.0,-41.0,0.0,-2315.0,8183.0,11014.0,8647.0,-2.0,0.0,-7.0,-4.0,0.0,2.0,-4.0,-2.0,0.24449777603149414
118,-77.0,-84.0,-64.0,0.0,-2293.0,8183.0,11012.0,8656.0,-2.0,0.0,-7.0,-4.0,0.0,2.0,-4.0,-2.0,0.2463221549987793
119,-77.0,-84.0,-64.0,0.0,-2293.0,8183.0,11012.0,8656.0,-3.0,1.0,21.0,0.0,-11.0,-3.0,0.0,-1.0,0.24818158149719238
120,-77.0,-84.0,-64.0,0.0,-2293.0,8183.0,11012.0,8656.0,-5.0,-11.0,21.0,6.0,3.0,-2.0,-1.0,-3.0,0.24994540214538574
121,-57.0,-75.0,-94.0,0.0,-2273.0,8179.0,11014.0,8662.0,-5.0,-11.0,21.0,6.0,3.0,-2.0,-1.0,-3.0,0.2517051696777344
122,-57.0,-75.0,-94.0,0.0,-2273.0,8179.0,11014.0,8662.0,-6.0,-6.0,19.0,5.0,3.0,3.0,-7.0,0.0,0.2537987232208252
123,-57.0,-75.0,-94.0,0.0,-2273.0,8179.0,11014.0,8662.0,-4.0,17.0,23.0,-3.0,-3.0,-4.0,-4.0,-4.0,0.25558972358703613
124,-15.0,-69.0,-126.0,0.0,-2252.0,8168.0,11022.0,8668.0,-4.0,17.0,23.0,-3.0,-3.0,-4.0,-4.0,-4.0,0.2573819160461426
125,-15.0,-69.0,-126.0,0.0,-2252.0,8168.0,11022.0,8668.0,1.0,-4.0,-8.0,1.0,5.0,1.0,1.0,0.0,0.25922727584838867
126,-15.0,-69.0,-126.0,0.0,-2252.0,8168.0,11022.0,8668.0,-10.0,-33.0,-13.0,-5.0,-2.0,-2.0,-1.0,-2.0,0.26102232933044434
127,-65.0,-65.0,-100.0,0.0,-2225.0,8157.0,11026.0,8680.0,-10.0,-33.0,-13.0,-5.0,-2.0,-2.0,-1.0,-2.0,0.26279473304748535
128,-65.0,-65.0,-100.0,0.0,-2225.0,8157.0,11026.0,8680.0,-2.0,-2.0,24.0,0.0,-3.0,-2.0,0.0,-1.0,0.2646491527557373
129,-65.0,-65.0,-100.0,0.0,-2225.0,8157.0,11026.0,8680.0,5.0,-1.0,0.0,2.0,1.0,1.0,-2.0,1.0,0.26653170585632324
130,-159.0,-37.0,-72.0,0.0,-2198.0,8153.0,11017.0,8702.0,5.0,-1.0,0.0,2.0,1.0,1.0,-2.0,1.0,0.2693793773651123
131,-159.0,-37.0,-72.0,0.0,-2198.0,8153.0,11017.0,8702.0,-4.0,-10.0,1.0,1.0,-2.0,0.0,-1.0,-1.0,0.2715914249420166
132,-159.0,-37.0,-72.0,0.0,-2198.0,8153.0,11017.0,8702.0,7.0,3.0,-3.0,-1.0,-5.0,-4.0,-3.0,1.0,0.2739572525024414
133,-178.0,-5.0,-40.0,0.0,-2182.0,8154.0,11001.0,8726.0,7.0,3.0,-3.0,-1.0,-5.0,-4.0,-3.0,1.0,0.2763369083404541
134,-178.0,-5.0,-40.0,0.0,-2182.0,8154.0,11001.0,8726.0,4.0,16.0,-6.0,2.0,6.0,0.0,-1.0,0.0,0.27819347381591797
135,-178.0,-5.0,-40.0,0.0,-2182.0,8154.0,11001.0,8726.0,8.0,36.0,9.0,-2.0,-1.0,1.0,4.0,1.0,0.2799723148345947
136,-105.0,11.0,-49.0,0.0,-2172.0,8149.0,10993.0,8743.0,8.0,36.0,9.0,-2.0,-1.0,1.0,4.0,1.0,0.28173017501831055
137,-105.0,11.0,-49.0,0.0,-2172.0,8149.0,10993.0,8743.0,-3.0,-22.0,-32.0,-2.0,2.0,0.0,-3.0,-3.0,0.2835655212402344
138,-105.0,11.0,-49.0,0.0,-2172.0,8149.0,10993.0,8743.0,4.0,-14.0,-22.0,1.0,12.0,6.0,0.0,4.0,0.28533363342285156
139,-66.0,18.0,-56.0,0.0,-2163.0,8143.0,10992.0,8753.0,4.0,-14.0,-22.0,1.0,12.0,6.0,0.0,4.0,0.2873814105987549
140,-66.0,18.0,-56.0,0.0,-2163.0,8143.0,10992.0,8753.0,-8.0,4.0,6.0,-2.0,0.0,-3.0,0.0,-1.0,0.289259672164917
141,-66.0,18.0,-56.0,0.0,-2163.0,8143.0,10992.0,8753.0,3.0,-3.0,-16.0,4.0,4.0,4.0,0.0,-1.0,0.2910475730895996
142,-88.0,21.0,-52.0,0.0,-2151.0,8137.0,10989.0,8765.0,3.0,-3.0,-16.0,4.0,4.0,4.0,0.0,-1.0,0.2928740978240967
143,-88.0,21.0,-52.0,0.0,-2151.0,8137.0,10989.0,8765.0,-3.0,-1.0,1.0,-3.0,-5.0,-1.0,-2.0,-1.0,0.2947378158569336
144,-88.0,21.0,-52.0,0.0,-2151.0,8137.0,10989.0,8765.0,-1.0,13.0,11.0,-2.0,-11.0,-7.0,-1.0,-1.0,0.2965102195739746
145,-87.0,22.0,-33.0,0.0,-2142.0,8135.0,10986.0,8772.0,-1.0,13.0,11.0,-2.0,-11.0,-7.0,-1.0,-1.0,0.2990283966064453
146,-87.0,22.0,-33.0,0.0,-2142.0,8135.0,10986.0,8772.0,4.0,16.0,2.0,-9.0,-12.0,-1.0,0.0,-3.0,0.30149197578430176
147,-87.0,22.0,-33.0,0.0,-2142.0,8135.0,10986.0,8772.0,-3.0,-4.0,-14.0,0.0,5.0,-1.0,-4.0,-2.0,0.30335116386413574
148,-75.0,15.0,-13.0,0.0,-2134.0,8137.0,10983.0,8776.0,-3.0,-4.0,-14.0,0.0,5.0,-1.0,-4.0,-2.0,0.30518293380737305
149,-75.0,15.0,-13.0,0.0,-2134.0,8137.0,10983.0,8776.0,9.0,22.0,11.0,3.0,-2.0,0.0,-9.0,-1.0,0.30753087997436523
150,-75.0,15.0,-13.0,0.0,-2134.0,8137.0,10983.0,8776.0,-2.0,-16.0,-5.0,2.0,2.0,2.0,-5.0,-1.0,0.3099815845489502
151,-53.0,13.0,12.0,0.0,-2129.0,8141.0,10981.0,8776.0,-2.0,-16.0,-5.0,2.0,2.0,2.0,-5.0,-1.0,0.31180691719055176
152,-53.0,13.0,12.0,0.0,-2129.0,8141.0,10981.0,8776.0,-1.0,-17.0,-14.0,-5.0,-16.0,-9.0,-5.0,1.0,0.3136467933654785
153,-53.0,13.0,12.0,0.0,-2129.0,8141.0,10981.0,8776.0,-8.0,-4.0,-10.0,-2.0,-5.0,-3.0,-7.0,-2.0,0.3154337406158447
154,-34.0,24.0,29.0,0.0,-2127.0,8145.0,10981.0,8772.0,-8.0,-4.0,-10.0,-2.0,-5.0,-3.0,-7.0,-2.0,0.3172128200531006
155,-34.0,24.0,29.0,0.0,-2127.0,8145.0,10981.0,8772.0,-13.0,-17.0,12.0,6.0,14.0,5.0,-5.0,-2.0,0.3191380500793457
156,-34.0,24.0,29.0,0.0,-2127.0,8145.0,10981.0,8772.0,-2.0,-20.0,0.0,-5.0,-13.0,-6.0,-3.0,0.0,0.321077823638916
157,-53.0,-6.0,38.0,0.0,-2118.0,8152.0,10980.0,8770.0,-2.0,-20.0,0.0,-5.0,-13.0,-6.0,-3.0,0.0,0.32286882400512695
158,-53.0,-6.0,38.0,0.0,-2118.0,8152.0,10980.0,8770.0,-9.0,-2.0,18.0,2.0,2.0,0.0,1.0,-4.0,0.3247368335723877
159,-53.0,-6.0,38.0,0.0,-2118.0,8152.0,10980.0,8770.0,-1.0,1.0,20.0,4.0,7.0,3.0,-1.0,-1.0,0.32651853561401367
160,-53.0,-32.0,29.0,0.0,-2108.0,8160.0,10977.0,8769.0,-1.0,1.0,20.0,4.0,7.0,3.0,-1.0,-1.0,0.32880258560180664
161,-53.0,-32.0,29.0,0.0,-2108.0,8160.0,10977.0,8769.0,-4.0,-43.0,-36.0,-9.0,-12.0,-9.0,-4.0,-1.0,0.3317606449127197
162,-53.0,-32.0,29.0,0.0,-2108.0,8160.0,10977.0,8769.0,-9.0,-22.0,-16.0,-2.0,-3.0,-2.0,-2.0,-2.0,0.3338289260864258
163,-83.0,-33.0,30.0,0.0,-2091.0,8166.0,10972.0,8773.0,-9.0,-22.0,-16.0,-2.0,-3.0,-2.0,-2.0,-2.0,0.33568334579467773
164,-83.0,-33.0,30.0,0.0,-2091.0,8166.0,10972.0,8773.0,15.0,-3.0,13.0,0.0,2.0,2.0,-6.0,3.0,0.3376016616821289
165,-83.0,-33.0,30.0,0.0,-2091.0,8166.0,10972.0,8773.0,-6.0,-9.0,6.0,-7.0,-4.0,-6.0,-1.0,0.0,0.3394162654876709
166,-105.0,-54.0,7.0,0.0,-2073.0,8173.0,10964.0,8781.0,-6.0,-9.0,6.0,-7.0,-4.0,-6.0,-1.0,0.0,0.34246087074279785
167,-105.0,-54.0,7.0,0.0,-2073.0,8173.0,10964.0,8781.0,1.0,-3.0,-43.0,0.0,7.0,5.0,7.0,2.0,0.34446001052856445
168,-105.0,-54.0,7.0,0.0,-2073.0,8173.0,10964.0,8781.0,5.0,3.0,-9.0,-5.0,-8.0,-4.0,-3.0,-2.0,0.35343337059020996
169,-109.0,-54.0,3.0,0.0,-2054.0,8180.0,10957.0,8788.0,5.0,3.0,-9.0,-5.0,-8.0,-4.0,-3.0,-2.0,0.35526156425476074
170,-109.0,-54.0,3.0,0.0,-2054.0,8180.0,10957.0,8788.0,-3.0,16.0,6.0,3.0,2.0,1.0,-13.0,-3.0,0.3571441173553467
171,-109.0,-54.0,3.0,0.0,-2054.0,8180.0,10957.0,8788.0,-5.0,-4.0,-2.0,5.0,6.0,-1.0,-4.0,0.0,0.3675060272216797
172,-87.0,-63.0,-22.0,0.0,-2031.0,8184.0,10955.0,8792.0,-5.0,-4.0,-2.0,5.0,6.0,-1.0,-4.0,0.0,0.3693375587463379
173,-87.0,-63.0,-22.0,0.0,-2031.0,8184.0,10955.0,8792.0,3.0,65.0,26.0,3.0,9.0,-1.0,-6.0,-2.0,0.37539029121398926
174,-87.0,-63.0,-22.0,0.0,-2031.0,8184.0,10955.0,8792.0,3.0,0.0,-2.0,1.0,1.0,1.0,-3.0,-1.0,0.3922150135040283
175,-100.0,-47.0,-24.0,0.0,-2008.0,8187.0,10953.0,8797.0,3.0,0.0,-2.0,1.0,1.0,1.0,-3.0,-1.0,0.39633893966674805
176,-100.0,-47.0,-24.0,0.0,-2008.0,8187.0,10953.0,8797.0,-3.0,1.0,6.0,-3.0,3.0,3.0,6.0,0.0,0.39989352226257324
177,-100.0,-47.0,-24.0,0.0,-2008.0,8187.0,10953.0,8797.0,-2.0,8.0,0.0,-4.0,0.0,0.0,4.0,-1.0,0.41327881813049316
178,-149.0,-38.0,-7.0,0.0,-1987.0,8194.0,10944.0,8806.0,-2.0,8.0,0.0,-4.0,0.0,0.0,4.0,-1.0,0.41506457328796387
179,-149.0,-38.0,-7.0,0.0,-1987.0,8194.0,10944.0,8806.0,-1.0,-6.0,10.0,-8.0,-12.0,-5.0,-4.0,-1.0,0.41692566871643066
180,-149.0,-38.0,-7.0,0.0,-1987.0,8194.0,10944.0,8806.0,-3.0,-7.0,13.0,2.0,-3.0,0.0,2.0,-2.0,0.42752575874328613
181,-109.0,-38.0,9.0,0.0,-1977.0,8204.0,10933.0,8812.0,-3.0,-7.0,13.0,2.0,-3.0,0.0,2.0,-2.0,0.42932748794555664
182,-109.0,-38.0,9.0,0.0,-1977.0,8204.0,10933.0,8812.0,0.0,1.0,15.0,1.0,2.0,0.0,-6.0,-3.0,0.43459320068359375
183,-109.0,-38.0,9.0,0.0,-1977.0,8204.0,10933.0,8812.0,-4.0,-6.0,10.0,1.0,-2.0,-5.0,-1.0,-3.0,0.44997334480285645
184,-58.0,-25.0,6.0,0.0,-1972.0,8211.0,10928.0,8813.0,-4.0,-6.0,10.0,1.0,-2.0,-5.0,-1.0,-3.0,0.451901912689209
185,-58.0,-25.0,6.0,0.0,-1972.0,8211.0,10928.0,8813.0,2.0,-2.0,-13.0,-1.0,-6.0,0.0,2.0,2.0,0.4583775997161865
186,-58.0,-25.0,6.0,0.0,-1972.0,8211.0,10928.0,8813.0,-7.0,-10.0,-1.0,2.0,3.0,0.0,-3.0,-1.0,0.4738762378692627
187,-61.0,-17.0,-9.0,0.0,-1962.0,8215.0,10926.0,8815.0,-7.0,-10.0,-1.0,2.0,3.0,0.0,-3.0,-1.0,0.47704267501831055
188,-61.0,-17.0,-9.0,0.0,-1962.0,8215.0,10926.0,8815.0,-10.0,-50.0,-4.0,-1.0,-12.0,-5.0,-6.0,-2.0,0.4802408218383789
189,-61.0,-17.0,-9.0,0.0,-1962.0,8215.0,10926.0,8815.0,7.0,13.0,0.0,-6.0,-6.0,-1.0,2.0,2.0,0.48805809020996094
190,-73.0,-15.0,-5.0,0.0,-1952.0,8220.0,10923.0,8815.0,7.0,13.0,0.0,-6.0,-6.0,-1.0,2.0,2.0,0.4902174472808838
191,-73.0,-15.0,-5.0,0.0,-1952.0,8220.0,10923.0,8815.0,-5.0,-10.0,6.0,0.0,3.0,1.0,-6.0,-5.0,0.494570255279541
192,-73.0,-15.0,-5.0,0.0,-1952.0,8220.0,10923.0,8815.0,51.0,97.0,-17.0,-6.0,3.0,2.0,-3.0,7.0,0.5110323429107666
193,-65.0,-22.0,10.0,0.0,-1945.0,8228.0,10919.0,8814.0,51.0,97.0,-17.0,-6.0,3.0,2.0,-3.0,7.0,0.5142736434936523
194,-65.0,-22.0,10.0,0.0,-1945.0,8228.0,10919.0,8814.0,9.0,27.0,0.0,-1.0,2.0,1.0,9.0,2.0,0.5179758071899414
195,-65.0,-22.0,10.0,0.0,-1945.0,8228.0,10919.0,8814.0,-6.0,-16.0,0.0,1.0,-8.0,-1.0,-2.0,-2.0,0.5332386493682861
196,-43.0,-11.0,14.0,0.0,-1942.0,8235.0,10916.0,8812.0,-6.0,-16.0,0.0,1.0,-8.0,-1.0,-2.0,-2.0,0.5350024700164795
197,-43.0,-11.0,14.0,0.0,-1942.0,8235.0,10916.0,8812.0,8.0,13.0,-2.0,-2.0,2.0,-2.0,0.0,3.0,0.5371646881103516
198,-43.0,-11.0,14.0,0.0,-1942.0,8235.0,10916.0,8812.0,-16.0,-31.0,-8.0,0.0,2.0,1.0,1.0,-2.0,0.5486099720001221
199,23.0,-5.0,8.0,0.0,-1946.0,8239.0,10919.0,8804.0,-16.0,-31.0,-8.0,0.0,2.0,1.0,1.0,-2.0,0.5517313480377197
200,23.0,-5.0,8.0,0.0,-1946.0,8239.0,10919.0,8804.0,-14.0,-19.0,31.0,6.0,-3.0,0.0,-5.0,-3.0,0.55483078956604
201,23.0,-5.0,8.0,0.0,-1946.0,8239.0,10919.0,8804.0,-12.0,-16.0,7.0,-2.0,1.0,0.0,-4.0,-3.0,0.570436954498291
202,80.0,5.0,-6.0,0.0,-1951.0,8238.0,10930.0,8790.0,-12.0,-16.0,7.0,-2.0,1.0,0.0,-4.0,-3.0,0.5727698802947998
203,80.0,5.0,-6.0,0.0,-1951.0,8238.0,10930.0,8790.0,3.0,5.0,16.0,2.0,8.0,1.0,0.0,-1.0,0.5793209075927734
204,80.0,5.0,-6.0,0.0,-1951.0,8238.0,10930.0,8790.0,-5.0,-10.0,-23.0,-2.0,-5.0,0.0,3.0,-3.0,0.5948412418365479
205,44.0,-3.0,-13.0,0.0,-1948.0,8236.0,10941.0,8780.0,-5.0,-10.0,-23.0,-2.0,-5.0,0.0,3.0,-3.0,0.5985615253448486
206,44.0,-3.0,-13.0,0.0,-1948.0,8236.0,10941.0,8780.0,-6.0,17.0,22.0,-2.0,-2.0,-4.0,-1.0,-1.0,0.6024253368377686
207,44.0,-3.0,-13.0,0.0,-1948.0,8236.0,10941.0,8780.0,5.0,15.0,8.0,3.0,3.0,0.0,2.0,-1.0,0.6083955764770508
208,5.0,-18.0,-29.0,0.0,-1941.0,8234.0,10947.0,8774.0,5.0,15.0,8.0,3.0,3.0,0.0,2.0,-1.0,0.6108598709106445
209,5.0,-18.0,-29.0,0.0,-1941.0,8234.0,10947.0,8774.0,10.0,17.0,-22.0,-7.0,-7.0,-4.0,-6.0,0.0,0.6146020889282227
210,5.0,-18.0,-29.0,0.0,-1941.0,8234.0,10947.0,8774.0,8.0,15.0,24.0,3.0,1.0,1.0,2.0,3.0,0.6300623416900635
211,25.0,-36.0,-34.0,0.0,-1934.0,8236.0,10957.0,8763.0,8.0,15.0,24.0,3.0,1.0,1.0,2.0,3.0,0.63187575340271
212,25.0,-36.0,-34.0,0.0,-1934.0,8236.0,10957.0,8763.0,-1.0,2.0,1.0,5.0,5.0,2.0,4.0,1.0,0.6375677585601807
213,25.0,-36.0,-34.0,0.0,-1934.0,8236.0,10957.0,8763.0,-12.0,-11.0,-16.0,-5.0,-10.0,-3.0,-6.0,-3.0,0.6542227268218994
214,41.0,-36.0,-40.0,0.0,-1926.0,8234.0,10968.0,8752.0,-12.0,-11.0,-16.0,-5.0,-10.0,-3.0,-6.0,-3.0,0.6574528217315674
215,41.0,-36.0,-40.0,0.0,-1926.0,8234.0,10968.0,8752.0,4.0,-10.0,-14.0,0.0,4.0,3.0,-2.0,3.0,0.6607797145843506
216,41.0,-36.0,-40.0,0.0,-1926.0,8234.0,10968.0,8752.0,-11.0,-29.0,24.0,3.0,-3.0,-3.0,1.0,-3.0,0.6686539649963379
217,53.0,-37.0,-23.0,0.0,-1919.0,8232.0,10980.0,8741.0,-11.0,-29.0,24.0,3.0,-3.0,-3.0,1.0,-3.0,0.6716587543487549
218,53.0,-37.0,-23.0,0.0,-1919.0,8232.0,10980.0,8741.0,4.0,-3.0,-22.0,-4.0,1.0,0.0,-4.0,-2.0,0.6750304698944092
219,53.0,-37.0,-23.0,0.0,-1919.0,8232.0,10980.0,8741.0,-7.0,-16.0,-5.0,2.0,7.0,1.0,1.0,-2.0,0.6900415420532227
220,17.0,-48.0,-6.0,0.0,-1910.0,8235.0,10986.0,8732.0,-7.0,-16.0,-5.0,2.0,7.0,1.0,1.0,-2.0,0.691856861114502
221,17.0,-48.0,-6.0,0.0,-1910.0,8235.0,10986.0,8732.0,2.0,5.0,-14.0,-4.0,-4.0,-4.0,4.0,-2.0,0.6968393325805664
222,17.0,-48.0,-6.0,0.0,-1910.0,8235.0,10986.0,8732.0,-3.0,-10.0,-17.0,-8.0,0.0,-2.0,0.0,2.0,0.7128956317901611
223,-43.0,-54.0,3.0,0.0,-1898.0,8242.0,10985.0,8730.0,-3.0,-10.0,-17.0,-8.0,0.0,-2.0,0.0,2.0,0.7150800228118896
224,-43.0,-54.0,3.0,0.0,-1898.0,8242.0,10985.0,8730.0,-6.0,-2.0,12.0,0.0,-2.0,-1.0,-1.0,-2.0,0.7173840999603271
225,-43.0,-54.0,3.0,0.0,-1898.0,8242.0,10985.0,8730.0,-1.0,-2.0,-9.0,-3.0,-4.0,-5.0,-4.0,1.0,0.728151798248291
226,-51.0,-58.0,9.0,0.0,-1887.0,8251.0,10982.0,8727.0,-1.0,-2.0,-9.0,-3.0,-4.0,-5.0,-4.0,1.0,0.730762243270874
227,-51.0,-58.0,9.0,0.0,-1887.0,8251.0,10982.0,8727.0,-13.0,-17.0,2.0,-2.0,0.0,0.0,-7.0,-2.0,0.7344965934753418
228,-51.0,-58.0,9.0,0.0,-1887.0,8251.0,10982.0,8727.0,1.0,-11.0,5.0,3.0,-6.0,0.0,4.0,0.0,0.7501671314239502
229,-26.0,-77.0,4.0,0.0,-1880.0,8263.0,10981.0,8720.0,1.0,-11.0,5.0,3.0,-6.0,0.0,4.0,0.0,0.7519769668579102
230,-26.0,-77.0,4.0,0.0,-1880.0,8263.0,10981.0,8720.0,-2.0,1.0,-15.0,-1.0,-1.0,0.0,3.0,1.0,0.7570319175720215
231,-26.0,-77.0,4.0,0.0,-1880.0,8263.0,10981.0,8720.0,16.0,43.0,22.0,8.0,4.0,4.0,2.0,3.0,0.7744665145874023
232,31.0,-87.0,-6.0,0.0,-1873.0,8272.0,10986.0,8705.0,16.0,43.0,22.0,8.0,4.0,4.0,2.0,3.0,0.7777891159057617
233,31.0,-87.0,-6.0,0.0,-1873.0,8272.0,10986.0,8705.0,3.0,-3.0,4.0,1.0,-3.0,1.0,-2.0,-1.0,0.780764102935791
234,31.0,-87.0,-6.0,0.0,-1873.0,8272.0,10986.0,8705.0,-3.0,-15.0,5.0,1.0,4.0,-2.0,-3.0,-2.0,0.7878544330596924
235,57.0,-108.0,-15.0,0.0,-1863.0,8280.0,10997.0,8686.0,-3.0,-15.0,5.0,1.0,4.0,-2.0,-3.0,-2.0,0.7897906303405762
236,57.0,-108.0,-15.0,0.0,-1863.0,8280.0,10997.0,8686.0,0.0,-5.0,-15.0,-7.0,-1.0,-2.0,-10.0,0.0,0.7950162887573242
237,57.0,-108.0,-15.0,0.0,-1863.0,8280.0,10997.0,8686.0,-6.0,2.0,-4.0,0.0,-3.0,-2.0,0.0,-4.0,0.8110506534576416
238,24.0,-99.0,-20.0,0.0,-1851.0,8287.0,11004.0,8673.0,-6.0,2.0,-4.0,0.0,-3.0,-2.0,0.0,-4.0,0.8140175342559814
239,24.0,-99.0,-20.0,0.0,-1851.0,8287.0,11004.0,8673.0,10.0,27.0,8.0,-3.0,-3.0,-1.0,3.0,-1.0,0.817878007888794
240,24.0,-99.0,-20.0,0.0,-1851.0,8287.0,11004.0,8673.0,18.0,37.0,3.0,-1.0,4.0,3.0,-1.0,4.0,0.8346059322357178
241,11.0,-77.0,-23.0,0.0,-1839.0,8292.0,11011.0,8663.0,18.0,37.0,3.0,-1.0,4.0,3.0,-1.0,4.0,0.8385396003723145
242,11.0,-77.0,-23.0,0.0,-1839.0,8292.0,11011.0,8663.0,-10.0,-18.0,-3.0,-3.0,-6.0,-1.0,0.0,0.0,0.843766450881958
243,11.0,-77.0,-23.0,0.0,-1839.0,8292.0,11011.0,8663.0,-12.0,-13.0,12.0,-2.0,-3.0,-3.0,-3.0,-7.0,0.8469188213348389
244,74.0,-65.0,-37.0,0.0,-1834.0,8294.0,11025.0,8643.0,-12.0,-13.0,12.0,-2.0,-3.0,-3.0,-3.0,-7.0,0.8624927997589111
245,74.0,-65.0,-37.0,0.0,-1834.0,8294.0,11025.0,8643.0,-7.0,-23.0,-1.0,4.0,10.0,2.0,-5.0,-2.0,0.8648257255554199
246,74.0,-65.0,-37.0,0.0,-1834.0,8294.0,11025.0,8643.0,-7.0,-17.0,-4.0,-3.0,-5.0,-2.0,4.0,0.0,0.8708696365356445
247,89.0,-79.0,-55.0,0.0,-1823.0,8293.0,11043.0,8623.0,-7.0,-17.0,-4.0,-3.0,-5.0,-2.0,4.0,0.0,0.8746914863586426
248,89.0,-79.0,-55.0,0.0,-1823.0,8293.0,11043.0,8623.0,2.0,-27.0,0.0,2.0,3.0,-4.0,-2.0,0.0,0.8776566982269287
249,89.0,-79.0,-55.0,0.0,-1823.0,8293.0,11043.0,8623.0,6.0,3.0,-14.0,-7.0,-3.0,0.0,-4.0,0.0,0.8953375816345215
250,95.0,-85.0,-115.0,0.0,-1805.0,8283.0,11067.0,8606.0,6.0,3.0,-14.0,-7.0,-3.0,0.0,-4.0,0.0,0.8989992141723633
251,95.0,-85.0,-115.0,0.0,-1805.0,8283.0,11067.0,8606.0,-6.0,-5.0,5.0,0.0,-8.0,-3.0,2.0,-1.0,0.9016640186309814
252,95.0,-85.0,-115.0,0.0,-1805.0,8283.0,11067.0,8606.0,-4.0,13.0,8.0,-8.0,-10.0,-9.0,-14.0,-4.0,0.907189130783081
253,157.0,-90.0,-209.0,0.0,-1784.0,8261.0,11105.0,8582.0,-4.0,13.0,8.0,-8.0,-10.0,-9.0,-14.0,-4.0,0.9150998592376709
254,157.0,-90.0,-209.0,0.0,-1784.0,8261.0,11105.0,8582.0,25.0,54.0,18.0,-2.0,2.0,3.0,8.0,9.0,0.9175724983215332
255,157.0,-90.0,-209.0,0.0,-1784.0,8261.0,11105.0,8582.0,33.0,74.0,-10.0,5.0,8.0,4.0,7.0,3.0,0.9299280643463135
256,205.0,-24.0,-321.0,0.0,-1757.0,8216.0,11161.0,8559.0,33.0,74.0,-10.0,5.0,8.0,4.0,7.0,3.0,0.9316883087158203
257,205.0,-24.0,-321.0,0.0,-1757.0,8216.0,11161.0,8559.0,-3.0,25.0,1.0,-1.0,-9.0,-5.0,4.0,-4.0,0.9372406005859375
258,205.0,-24.0,-321.0,0.0,-1757.0,8216.0,11161.0,8559.0,3.0,15.0,4.0,5.0,8.0,5.0,8.0,1.0,0.9532666206359863
259,278.0,12.0,-350.0,0.0,-1734.0,8155.0,11221.0,8544.0,3.0,15.0,4.0,5.0,8.0,5.0,8.0,1.0,0.9550862312316895
260,278.0,12.0,-350.0,0.0,-1734.0,8155.0,11221.0,8544.0,7.0,22.0,-37.0,-3.0,9.0,8.0,-1.0,-2.0,0.9573245048522949
261,278.0,12.0,-350.0,0.0,-1734.0,8155.0,11221.0,8544.0,-4.0,-15.0,20.0,28.0,11.0,1.0,0.0,3.0,0.9671356678009033
262,231.0,-41.0,-395.0,0.0,-1683.0,8079.0,11278.0,8551.0,-4.0,-15.0,20.0,28.0,11.0,1.0,0.0,3.0,0.976060152053833
263,231.0,-41.0,-395.0,0.0,-1683.0,8079.0,11278.0,8551.0,-17.0,-47.0,15.0,-6.0,-10.0,-8.0,-6.0,-5.0,0.9804904460906982
264,231.0,-41.0,-395.0,0.0,-1683.0,8079.0,11278.0,8551.0,-9.0,-46.0,-42.0,-26.0,-25.0,-5.0,-6.0,-4.0,0.9904913902282715
265,76.0,-90.0,-529.0,0.0,-1598.0,7990.0,11331.0,8581.0,-9.0,-46.0,-42.0,-26.0,-25.0,-5.0,-6.0,-4.0,0.9928989410400391
266,76.0,-90.0,-529.0,0.0,-1598.0,7990.0,11331.0,8581.0,-5.0,-20.0,-20.0,-1.0,-22.0,0.0,-4.0,-1.0,0.9971580505371094
267,76.0,-90.0,-529.0,0.0,-1598.0,7990.0,11331.0,8581.0,-4.0,7.0,-51.0,2.0,21.0,5.0,-10.0,-3.0,1.0137231349945068
268,-42.0,-11.0,-688.0,0.0,-1489.0,7873.0,11389.0,8632.0,-4.0,7.0,-51.0,2.0,21.0,5.0,-10.0,-3.0,1.0155518054962158
269,-42.0,-11.0,-688.0,0.0,-1489.0,7873.0,11389.0,8632.0,9.0,-3.0,-15.0,13.0,35.0,9.0,-7.0,2.0,1.017418622970581
270,-42.0,-11.0,-688.0,0.0,-1489.0,7873.0,11389.0,8632.0,7.0,30.0,20.0,-15.0,-10.0,-5.0,-13.0,4.0,1.0269663333892822
271,-180.0,34.0,-866.0,0.0,-1342.0,7718.0,11446.0,8720.0,7.0,30.0,20.0,-15.0,-10.0,-5.0,-13.0,4.0,1.0349664688110352
272,-180.0,34.0,-866.0,0.0,-1342.0,7718.0,11446.0,8720.0,3.0,-1.0,-17.0,10.0,8.0,3.0,-2.0,-2.0,1.0373964309692383
273,-180.0,34.0,-866.0,0.0,-1342.0,7718.0,11446.0,8720.0,-15.0,-59.0,-15.0,11.0,-1.0,0.0,-22.0,-3.0,1.0514419078826904
274,123.0,-204.0,-1196.0,0.0,-1181.0,7555.0,11556.0,8740.0,-15.0,-59.0,-15.0,11.0,-1.0,0.0,-22.0,-3.0,1.0552246570587158
275,123.0,-204.0,-1196.0,0.0,-1181.0,7555.0,11556.0,8740.0,-2.0,-5.0,9.0,-1.0,-18.0,-10.0,3.0,5.0,1.0599067211151123
276,123.0,-204.0,-1196.0,0.0,-1181.0,7555.0,11556.0,8740.0,0.0,-14.0,-23.0,8.0,9.0,5.0,8.0,-2.0,1.076977252960205
277,206.0,-185.0,-1637.0,0.0,-994.0,7344.0,11713.0,8734.0,0.0,-14.0,-23.0,8.0,9.0,5.0,8.0,-2.0,1.0790972709655762
278,206.0,-185.0,-1637.0,0.0,-994.0,7344.0,11713.0,8734.0,-3.0,-3.0,11.0,0.0,-2.0,-1.0,9.0,-5.0,1.0810232162475586
279,206.0,-185.0,-1637.0,0.0,-994.0,7344.0,11713.0,8734.0,19.0,12.0,-24.0,5.0,16.0,12.0,27.0,7.0,1.0871737003326416
280,-614.0,-135.0,-1587.0,0.0,-671.0,7083.0,11791.0,8874.0,19.0,12.0,-24.0,5.0,16.0,12.0,27.0,7.0,1.0955400466918945
281,-614.0,-135.0,-1587.0,0.0,-671.0,7083.0,11791.0,8874.0,22.0,27.0,6.0,3.0,8.0,1.0,10.0,9.0,1.0974712371826172
282,-614.0,-135.0,-1587.0,0.0,-671.0,7083.0,11791.0,8874.0,-8.0,7.0,22.0,-7.0,4.0,0.0,7.0,-3.0,1.1108171939849854
283,-1544.0,-148.0,-1711.0,0.0,-344.0,6869.0,11773.0,9083.0,-8.0,7.0,22.0,-7.0,4.0,0.0,7.0,-3.0,1.1126296520233154
284,-1544.0,-148.0,-1711.0,0.0,-344.0,6869.0,11773.0,9083.0,-3.0,17.0,-27.0,-23.0,4.0,3.0,4.0,0.0,1.1173043251037598
285,-1544.0,-148.0,-1711.0,0.0,-344.0,6869.0,11773.0,9083.0,-16.0,-50.0,-3.0,-18.0,-16.0,-7.0,4.0,-4.0,1.1345417499542236
286,-1914.0,-130.0,-1903.0,0.0,22.0,6628.0,11722.0,9331.0,-16.0,-50.0,-3.0,-18.0,-16.0,-7.0,4.0,-4.0,1.137784719467163
287,-1914.0,-130.0,-1903.0,0.0,22.0,6628.0,11722.0,9331.0,-5.0,-1.0,15.0,-5.0,12.0,3.0,-12.0,-5.0,1.1417934894561768
288,-1914.0,-130.0,-1903.0,0.0,22.0,6628.0,11722.0,9331.0,-11.0,-29.0,4.0,-2.0,-7.0,-7.0,-6.0,-5.0,1.1559991836547852
289,-2034.0,98.0,-2189.0,0.0,393.0,6324.0,11669.0,9597.0,-11.0,-29.0,4.0,-2.0,-7.0,-7.0,-6.0,-5.0,1.1579875946044922
290,-2034.0,98.0,-2189.0,0.0,393.0,6324.0,11669.0,9597.0,-8.0,-8.0,13.0,8.0,5.0,5.0,6.0,2.0,1.1598412990570068
291,-2034.0,98.0,-2189.0,0.0,393.0,6324.0,11669.0,9597.0,25.0,57.0,-2.0,-7.0,11.0,6.0,8.0,8.0,1.1715342998504639
292,-2102.0,190.0,-2587.0,0.0,796.0,5954.0,11624.0,9859.0,25.0,57.0,-2.0,-7.0,11.0,6.0,8.0,8.0,1.1750028133392334
293,-2102.0,190.0,-2587.0,0.0,796.0,5954.0,11624.0,9859.0,-10.0,-22.0,-26.0,10.0,-4.0,-6.0,-11.0,-7.0,1.1771721839904785
294,-2102.0,190.0,-2587.0,0.0,796.0,5954.0,11624.0,9859.0,-10.0,-10.0,-13.0,-17.0,-9.0,-1.0,2.0,0.0,1.1940271854400635
295,-2427.0,193.0,-2780.0,0.0,1233.0,5552.0,11541.0,10142.0,-10.0,-10.0,-13.0,-17.0,-9.0,-1.0,2.0,0.0,1.1976127624511719
296,-2427.0,193.0,-2780.0,0.0,1233.0,5552.0,11541.0,10142.0,-9.0,-16.0,-4.0,-5.0,-6.0,-3.0,6.0,-4.0,1.2007334232330322
297,-2427.0,193.0,-2780.0,0.0,1233.0,5552.0,11541.0,10142.0,-4.0,-1.0,24.0,9.0,-5.0,-8.0,-13.0,-3.0,1.2160167694091797
298,-2980.0,170.0,-2919.0,0.0,1712.0,5123.0,11384.0,10471.0,-4.0,-1.0,24.0,9.0,-5.0,-8.0,-13.0,-3.0,1.217867136001587
299,-2980.0,170.0,-2919.0,0.0,1712.0,5123.0,11384.0,10471.0,1.0,17.0,8.0,-2.0,-5.0,-3.0,-8.0,1.0,1.2199909687042236
300,-2980.0,170.0,-2919.0,0.0,1712.0,5123.0,11384.0,10471.0,3.0,5.0,9.0,-5.0,-4.0,-1.0,2.0,2.0,1.2309296131134033
301,-3183.0,327.0,-3308.0,0.0,2208.0,4625.0,11202.0,10801.0,3.0,5.0,9.0,-5.0,-4.0,-1.0,2.0,2.0,1.233560562133789
302,-3183.0,327.0,-3308.0,0.0,2208.0,4625.0,11202.0,10801.0,-5.0,-1.0,37.0,14.0,-5.0,-2.0,-6.0,-3.0,1.2370758056640625
303,-3183.0,327.0,-3308.0,0.0,2208.0,4625.0,11202.0,10801.0,-14.0,-19.0,18.0,1.0,-5.0,-3.0,-14.0,-7.0,1.2540597915649414
304,-2854.0,335.0,-3590.0,0.0,2707.0,4096.0,11042.0,11062.0,-14.0,-19.0,18.0,1.0,-5.0,-3.0,-14.0,-7.0,1.2580735683441162
305,-2854.0,335.0,-3590.0,0.0,2707.0,4096.0,11042.0,11062.0,2.0,30.0,8.0,9.0,8.0,3.0,5.0,1.0,1.2615222930908203
306,-2854.0,335.0,-3590.0,0.0,2707.0,4096.0,11042.0,11062.0,3.0,2.0,9.0,14.0,-6.0,-4.0,0.0,0.0,1.2766554355621338
307,-2797.0,273.0,-3623.0,0.0,3207.0,3566.0,10864.0,11287.0,3.0,2.0,9.0,14.0,-6.0,-4.0,0.0,0.0,1.2784667015075684
308,-2797.0,273.0,-3623.0,0.0,3207.0,3566.0,10864.0,11287.0,2.0,0.0,-10.0,-3.0,-5.0,-4.0,-2.0,0.0,1.2803575992584229
309,-2797.0,273.0,-3623.0,0.0,3207.0,3566.0,10864.0,11287.0,0.0,8.0,6.0,-4.0,0.0,0.0,1.0,0.0,1.2915618419647217
310,-2998.0,326.0,-3525.0,0.0,3689.0,3026.0,10636.0,11512.0,0.0,8.0,6.0,-4.0,0.0,0.0,1.0,0.0,1.2940118312835693
311,-2998.0,326.0,-3525.0,0.0,3689.0,3026.0,10636.0,11512.0,-6.0,-19.0,-3.0,-4.0,-8.0,-4.0,-6.0,-3.0,1.2962207794189453
312,-2998.0,326.0,-3525.0,0.0,3689.0,3026.0,10636.0,11512.0,-1.0,-11.0,2.0,-19.0,-13.0,-9.0,0.0,-2.0,1.3131089210510254
313,-3325.0,380.0,-3480.0,0.0,4160.0,2466.0,10346.0,11746.0,-1.0,-11.0,2.0,-19.0,-13.0,-9.0,0.0,-2.0,1.3149077892303467
314,-3325.0,380.0,-3480.0,0.0,4160.0,2466.0,10346.0,11746.0,4.0,11.0,12.0,-8.0,-11.0,-6.0,7.0,0.0,1.3173625469207764
315,-3325.0,380.0,-3480.0,0.0,4160.0,2466.0,10346.0,11746.0,-8.0,14.0,19.0,9.0,-10.0,-4.0,-6.0,-9.0,1.335705041885376
316,-3533.0,447.0,-3439.0,0.0,4614.0,1887.0,10006.0,11976.0,-8.0,14.0,19.0,9.0,-10.0,-4.0,-6.0,-9.0,1.3376250267028809
317,-3533.0,447.0,-3439.0,0.0,4614.0,1887.0,10006.0,11976.0,2.0,4.0,11.0,11.0,7.0,3.0,2.0,-1.0,1.3394863605499268
318,-3533.0,447.0,-3439.0,0.0,4614.0,1887.0,10006.0,11976.0,0.0,3.0,-3.0,5.0,0.0,4.0,7.0,2.0,1.3506407737731934
319,-3590.0,531.0,-3424.0,0.0,5044.0,1292.0,9639.0,12181.0,0.0,3.0,-3.0,5.0,0.0,4.0,7.0,2.0,1.3525598049163818
320,-3590.0,531.0,-3424.0,0.0,5044.0,1292.0,9639.0,12181.0,-9.0,-24.0,-16.0,0.0,0.0,-2.0,-8.0,0.0,1.3578476905822754
321,-3590.0,531.0,-3424.0,0.0,5044.0,1292.0,9639.0,12181.0,5.0,1.0,-25.0,4.0,9.0,5.0,-2.0,2.0,1.3740699291229248
322,-3465.0,678.0,-3522.0,0.0,5455.0,674.0,9271.0,12339.0,5.0,1.0,-25.0,4.0,9.0,5.0,-2.0,2.0,1.3773810863494873
323,-3465.0,678.0,-3522.0,0.0,5455.0,674.0,9271.0,12339.0,-2.0,-20.0,-3.0,3.0,-1.0,-1.0,0.0,-1.0,1.3816795349121094
324,-3465.0,678.0,-3522.0,0.0,5455.0,674.0,9271.0,12339.0,10.0,1.0,-23.0,-6.0,-3.0,-6.0,-4.0,1.0,1.3965747356414795
325,-3498.0,769.0,-3549.0,0.0,5848.0,35.0,8879.0,12465.0,10.0,1.0,-23.0,-6.0,-3.0,-6.0,-4.0,1.0,1.3983662128448486
326,-3498.0,769.0,-3549.0,0.0,5848.0,35.0,8879.0,12465.0,3.0,7.0,-9.0,-12.0,-6.0,-2.0,2.0,0.0,1.4002251625061035
327,-3498.0,769.0,-3549.0,0.0,5848.0,35.0,8879.0,12465.0,-5.0,-20.0,15.0,2.0,0.0,-1.0,2.0,0.0,1.4121038913726807
328,-3370.0,755.0,-3502.0,0.0,6223.0,-593.0,8477.0,12549.0,-5.0,-20.0,15.0,2.0,0.0,-1.0,2.0,0.0,1.4144158363342285
329,-3370.0,755.0,-3502.0,0.0,6223.0,-593.0,8477.0,12549.0,4.0,3.0,5.0,-11.0,-2.0,-1.0,-11.0,-1.0,1.4162869453430176
330,-3370.0,755.0,-3502.0,0.0,6223.0,-593.0,8477.0,12549.0,-14.0,-21.0,22.0,2.0,3.0,1.0,0.0,-5.0,1.4333915710449219
331,-3256.0,774.0,-3446.0,0.0,6579.0,-1216.0,8064.0,12594.0,-14.0,-21.0,22.0,2.0,3.0,1.0,0.0,-5.0,1.4352002143859863
332,-3256.0,774.0,-3446.0,0.0,6579.0,-1216.0,8064.0,12594.0,-3.0,-15.0,-6.0,-2.0,5.0,4.0,9.0,-1.0,1.4375734329223633
333,-3256.0,774.0,-3446.0,0.0,6579.0,-1216.0,8064.0,12594.0,-6.0,-20.0,-53.0,-7.0,2.0,1.0,2.0,2.0,1.4565834999084473
334,-2917.0,872.0,-3517.0,0.0,6926.0,-1837.0,7682.0,12572.0,-6.0,-20.0,-53.0,-7.0,2.0,1.0,2.0,2.0,1.459789514541626
335,-2917.0,872.0,-3517.0,0.0,6926.0,-1837.0,7682.0,12572.0,-10.0,-21.0,6.0,19.0,18.0,6.0,-5.0,-2.0,1.461653232574463
336,-2917.0,872.0,-3517.0,0.0,6926.0,-1837.0,7682.0,12572.0,-9.0,-7.0,13.0,-3.0,-14.0,-8.0,-5.0,-5.0,1.471158504486084
337,-2712.0,960.0,-3639.0,0.0,7272.0,-2466.0,7314.0,12488.0,-9.0,-7.0,13.0,-3.0,-14.0,-8.0,-5.0,-5.0,1.4753193855285645
338,-2712.0,960.0,-3639.0,0.0,7272.0,-2466.0,7314.0,12488.0,17.0,31.0,18.0,0.0,-8.0,3.0,6.0,3.0,1.4775714874267578
339,-2712.0,960.0,-3639.0,0.0,7272.0,-2466.0,7314.0,12488.0,2.0,21.0,20.0,7.0,1.0,-2.0,0.0,-1.0,1.4933867454528809
340,-2630.0,1022.0,-3741.0,0.0,7614.0,-3103.0,6937.0,12357.0,2.0,21.0,20.0,7.0,1.0,-2.0,0.0,-1.0,1.4952406883239746
341,-2630.0,1022.0,-3741.0,0.0,7614.0,-3103.0,6937.0,12357.0,-2.0,-13.0,-31.0,-9.0,-21.0,-7.0,3.0,0.0,1.4971094131469727
342,-2630.0,1022.0,-3741.0,0.0,7614.0,-3103.0,6937.0,12357.0,0.0,18.0,3.0,-13.0,-13.0,-6.0,-13.0,-2.0,1.5158069133758545
343,-2439.0,1067.0,-3703.0,0.0,7939.0,-3724.0,6565.0,12183.0,0.0,18.0,3.0,-13.0,-13.0,-6.0,-13.0,-2.0,1.5176000595092773
344,-2439.0,1067.0,-3703.0,0.0,7939.0,-3724.0,6565.0,12183.0,-10.0,-5.0,6.0,-1.0,-5.0,1.0,2.0,-2.0,1.5201685428619385
345,-2439.0,1067.0,-3703.0,0.0,7939.0,-3724.0,6565.0,12183.0,-2.0,-13.0,1.0,7.0,18.0,16.0,21.0,5.0,1.53070068359375
346,-1950.0,943.0,-3741.0,0.0,8284.0,-4287.0,6224.0,11945.0,-2.0,-13.0,1.0,7.0,18.0,16.0,21.0,5.0,1.5336790084838867
347,-1950.0,943.0,-3741.0,0.0,8284.0,-4287.0,6224.0,11945.0,-12.0,-10.0,3.0,-6.0,-18.0,-6.0,-11.0,-10.0,1.5367951393127441
348,-1950.0,943.0,-3741.0,0.0,8284.0,-4287.0,6224.0,11945.0,-4.0,-20.0,-3.0,2.0,10.0,2.0,0.0,-4.0,1.553530216217041
349,-1562.0,703.0,-3876.0,0.0,8664.0,-4788.0,5889.0,11651.0,-4.0,-20.0,-3.0,2.0,10.0,2.0,0.0,-4.0,1.5553584098815918
350,-1562.0,703.0,-3876.0,0.0,8664.0,-4788.0,5889.0,11651.0,2.0,1.0,-21.0,-2.0,5.0,-1.0,-3.0,-2.0,1.557232141494751
351,-1562.0,703.0,-3876.0,0.0,8664.0,-4788.0,5889.0,11651.0,-1.0,16.0,-3.0,0.0,8.0,3.0,-2.0,1.0,1.5772266387939453
352,-1192.0,561.0,-3936.0,0.0,9060.0,-5232.0,5574.0,11309.0,-1.0,16.0,-3.0,0.0,8.0,3.0,-2.0,1.0,1.5790843963623047
353,-1192.0,561.0,-3936.0,0.0,9060.0,-5232.0,5574.0,11309.0,-16.0,-44.0,42.0,0.0,-7.0,-15.0,-13.0,-5.0,1.580949068069458
354,-1192.0,561.0,-3936.0,0.0,9060.0,-5232.0,5574.0,11309.0,2.0,-13.0,1.0,2.0,18.0,0.0,-4.0,-1.0,1.5900917053222656
355,-1164.0,416.0,-3866.0,0.0,9438.0,-5644.0,5243.0,10955.0,2.0,-13.0,1.0,2.0,18.0,0.0,-4.0,-1.0,1.5918974876403809
356,-1164.0,416.0,-3866.0,0.0,9438.0,-5644.0,5243.0,10955.0,-10.0,-20.0,-3.0,-14.0,-3.0,-24.0,-48.0,-9.0,1.5973000526428223
357,-1164.0,416.0,-3866.0,0.0,9438.0,-5644.0,5243.0,10955.0,-8.0,-16.0,11.0,6.0,7.0,11.0,7.0,-1.0,1.6133031845092773
358,-1107.0,262.0,-3619.0,0.0,9785.0,-6014.0,4898.0,10607.0,-8.0,-16.0,11.0,6.0,7.0,11.0,7.0,-1.0,1.6151230335235596
359,-1107.0,262.0,-3619.0,0.0,9785.0,-6014.0,4898.0,10607.0,6.0,48.0,-19.0,-16.0,13.0,7.0,7.0,0.0,1.6169910430908203
360,-702.0,84.0,-3340.0,0.0,10117.0,-6299.0,4593.0,10260.0,6.0,48.0,-19.0,-16.0,13.0,7.0,7.0,0.0,1.636143445968628
361,-702.0,84.0,-3340.0,0.0,10117.0,-6299.0,4593.0,10260.0,-6.0,-16.0,23.0,14.0,21.0,7.0,10.0,1.0,1.6382300853729248
362,-702.0,84.0,-3340.0,0.0,10117.0,-6299.0,4593.0,10260.0,-6.0,-6.0,-29.0,-3.0,17.0,19.0,41.0,-7.0,1.6409969329833984
363,-842.0,76.0,-2735.0,0.0,10368.0,-6570.0,4289.0,9969.0,-6.0,-6.0,-29.0,-3.0,17.0,19.0,41.0,-7.0,1.6494157314300537
364,-842.0,76.0,-2735.0,0.0,10368.0,-6570.0,4289.0,9969.0,-6.0,-1.0,-6.0,-8.0,-2.0,-2.0,-11.0,-9.0,1.6594324111938477
365,-842.0,76.0,-2735.0,0.0,10368.0,-6570.0,4289.0,9969.0,5.0,10.0,13.0,-4.0,-10.0,-11.0,-7.0,0.0,1.6640253067016602
366,-566.0,388.0,-2062.0,0.0,10541.0,-6813.0,4089.0,9704.0,5.0,10.0,13.0,-4.0,-10.0,-11.0,-7.0,0.0,1.673990249633789
367,-566.0,388.0,-2062.0,0.0,10541.0,-6813.0,4089.0,9704.0,0.0,18.0,25.0,5.0,8.0,-2.0,-16.0,1.0,1.6758649349212646
368,-566.0,388.0,-2062.0,0.0,10541.0,-6813.0,4089.0,9704.0,6.0,16.0,-13.0,1.0,-7.0,12.0,14.0,3.0,1.677978754043579
369,-361.0,662.0,-1356.0,0.0,10683.0,-7161.0,3861.0,9387.0,6.0,16.0,-13.0,1.0,-7.0,12.0,14.0,3.0,1.6959247589111328
370,-361.0,662.0,-1356.0,0.0,10683.0,-7161.0,3861.0,9387.0,29.0,70.0,-18.0,-9.0,-44.0,-29.0,-24.0,2.0,1.6977930068969727
371,-361.0,662.0,-1356.0,0.0,10683.0,-7161.0,3861.0,9387.0,0.0,-12.0,-15.0,-5.0,-26.0,-17.0,-24.0,2.0,1.6995744705200195
372,121.0,718.0,-608.0,0.0,10723.0,-7245.0,3909.0,9255.0,0.0,-12.0,-15.0,-5.0,-26.0,-17.0,-24.0,2.0,1.7093112468719482
373,121.0,718.0,-608.0,0.0,10723.0,-7245.0,3909.0,9255.0,5.0,7.0,4.0,-4.0,-44.0,-16.0,-56.0,-8.0,1.7181131839752197
374,121.0,718.0,-608.0,0.0,10723.0,-7245.0,3909.0,9255.0,17.0,41.0,-6.0,10.0,16.0,23.0,-47.0,6.0,1.7203736305236816
375,349.0,616.0,334.0,0.0,10691.0,-7252.0,4043.0,9230.0,17.0,41.0,-6.0,10.0,16.0,23.0,-47.0,6.0,1.733335256576538
376,349.0,616.0,334.0,0.0,10691.0,-7252.0,4043.0,9230.0,3.0,-32.0,3.0,7.0,20.0,31.0,61.0,16.0,1.7351999282836914
377,349.0,616.0,334.0,0.0,10691.0,-7252.0,4043.0,9230.0,-17.0,-2.0,16.0,2.0,-9.0,0.0,49.0,-1.0,1.7388544082641602
378,414.0,500.0,1385.0,0.0,10657.0,-7323.0,4034.0,9217.0,-17.0,-2.0,16.0,2.0,-9.0,0.0,49.0,-1.0,1.7563600540161133
379,414.0,500.0,1385.0,0.0,10657.0,-7323.0,4034.0,9217.0,6.0,-6.0,-17.0,-13.0,-22.0,-7.0,-9.0,-7.0,1.7604551315307617
380,414.0,500.0,1385.0,0.0,10657.0,-7323.0,4034.0,9217.0,12.0,17.0,8.0,9.0,17.0,21.0,54.0,6.0,1.7625620365142822
381,375.0,335.0,2331.0,0.0,10457.0,-7239.0,4246.0,9415.0,12.0,17.0,8.0,9.0,17.0,21.0,54.0,6.0,1.7693703174591064
382,375.0,335.0,2331.0,0.0,10457.0,-7239.0,4246.0,9415.0,-2.0,1.0,13.0,-4.0,0.0,-10.0,41.0,9.0,1.7790768146514893
383,375.0,335.0,2331.0,0.0,10457.0,-7239.0,4246.0,9415.0,-10.0,-37.0,7.0,-1.0,8.0,-20.0,-35.0,-8.0,1.7812519073486328
384,186.0,-16.0,3281.0,0.0,10150.0,-7090.0,4475.0,9752.0,-10.0,-37.0,7.0,-1.0,8.0,-20.0,-35.0,-8.0,1.7929425239562988
385,186.0,-16.0,3281.0,0.0,10150.0,-7090.0,4475.0,9752.0,21.0,20.0,-3.0,-9.0,-20.0,-20.0,-20.0,-11.0,1.7948267459869385
386,186.0,-16.0,3281.0,0.0,10150.0,-7090.0,4475.0,9752.0,17.0,7.0,9.0,-6.0,-28.0,-13.0,12.0,8.0,1.7992186546325684
387,34.0,-553.0,4036.0,0.0,9762.0,-6852.0,4685.0,10209.0,17.0,7.0,9.0,-6.0,-28.0,-13.0,12.0,8.0,1.815535306930542
388,34.0,-553.0,4036.0,0.0,9762.0,-6852.0,4685.0,10209.0,-14.0,-16.0,-12.0,-13.0,-21.0,-25.0,3.0,-2.0,1.8174238204956055
389,34.0,-553.0,4036.0,0.0,9762.0,-6852.0,4685.0,10209.0,-14.0,-16.0,-12.0,-13.0,-21.0,-25.0,3.0,-2.0,1.8192379474639893
390,34.0,-553.0,4036.0,0.0,9762.0,-6852.0,4685.0,10209.0,-4.0,-18.0,-10.0,4.0,-3.0,-25.0,7.0,-4.0,1.84012770652771
391,81.0,-1076.0,4693.0,0.0,9304.0,-6501.0,4892.0,10754.0,-4.0,-18.0,-10.0,4.0,-3.0,-25.0,7.0,-4.0,1.84486985206604
392,81.0,-1076.0,4693.0,0.0,9304.0,-6501.0,4892.0,10754.0,-2.0,9.0,-5.0,6.0,6.0,-2.0,-12.0,-5.0,1.8486676216125488
393,81.0,-1076.0,4693.0,0.0,9304.0,-6501.0,4892.0,10754.0,17.0,2.0,5.0,-6.0,-16.0,-39.0,14.0,20.0,1.8508598804473877
394,407.0,-1528.0,5122.0,0.0,8812.0,-6017.0,5115.0,11331.0,17.0,2.0,5.0,-6.0,-16.0,-39.0,14.0,20.0,1.8526735305786133
395,407.0,-1528.0,5122.0,0.0,8812.0,-6017.0,5115.0,11331.0,-8.0,-1.0,15.0,8.0,15.0,27.0,19.0,8.0,1.8545238971710205
396,407.0,-1528.0,5122.0,0.0,8812.0,-6017.0,5115.0,11331.0,-22.0,-15.0,-15.0,4.0,15.0,49.0,17.0,-16.0,1.8598144054412842
397,1271.0,-1990.0,5700.0,0.0,8291.0,-5333.0,5430.0,11905.0,-22.0,-15.0,-15.0,4.0,15.0,49.0,17.0,-16.0,1.8766016960144043
398,1271.0,-1990.0,5700.0,0.0,8291.0,-5333.0,5430.0,11905.0,13.0,7.0,-5.0,-2.0,14.0,54.0,46.0,19.0,1.8785114288330078
399,1271.0,-1990.0,5700.0,0.0,8291.0,-5333.0,5430.0,11905.0,-14.0,-22.0,23.0,30.0,21.0,18.0,19.0,20.0,1.880310297012329
400,2077.0,-2302.0,6047.0,0.0,7736.0,-4472.0,5839.0,12429.0,-14.0,-22.0,23.0,30.0,21.0,18.0,19.0,20.0,1.8891525268554688
401,2077.0,-2302.0,6047.0,0.0,7736.0,-4472.0,5839.0,12429.0,-16.0,-8.0,-25.0,3.0,45.0,4.0,-42.0,-7.0,1.897977590560913
402,2077.0,-2302.0,6047.0,0.0,7736.0,-4472.0,5839.0,12429.0,22.0,34.0,57.0,1.0,5.0,-29.0,-33.0,-9.0,1.8998267650604248
403,2701.0,-2203.0,6155.0,0.0,7152.0,-3542.0,6301.0,12846.0,22.0,34.0,57.0,1.0,5.0,-29.0,-33.0,-9.0,1.9127528667449951
404,2701.0,-2203.0,6155.0,0.0,7152.0,-3542.0,6301.0,12846.0,6.0,12.0,34.0,2.0,-15.0,-18.0,-32.0,-4.0,1.9146475791931152
405,2701.0,-2203.0,6155.0,0.0,7152.0,-3542.0,6301.0,12846.0,3.0,-3.0,10.0,10.0,3.0,-29.0,-44.0,12.0,1.9202423095703125
406,3454.0,-2248.0,5266.0,0.0,6684.0,-2589.0,6795.0,13071.0,3.0,-3.0,10.0,10.0,3.0,-29.0,-44.0,12.0,1.93727707862854
407,3454.0,-2248.0,5266.0,0.0,6684.0,-2589.0,6795.0,13071.0,15.0,13.0,10.0,11.0,-6.0,-23.0,19.0,5.0,1.941957950592041
408,3454.0,-2248.0,5266.0,0.0,6684.0,-2589.0,6795.0,13071.0,9.0,-18.0,-66.0,-22.0,-1.0,29.0,14.0,-4.0,1.9444730281829834
409,4536.0,-1392.0,6413.0,0.0,5978.0,-1579.0,7493.0,13192.0,9.0,-18.0,-66.0,-22.0,-1.0,29.0,14.0,-4.0,1.9592106342315674
410,4536.0,-1392.0,6413.0,0.0,5978.0,-1579.0,7493.0,13192.0,16.0,1.0,-18.0,3.0,-12.0,-9.0,-61.0,-12.0,1.9625685214996338
411,4536.0,-1392.0,6413.0,0.0,5978.0,-1579.0,7493.0,13192.0,30.0,84.0,-48.0,-32.0,-3.0,37.0,-13.0,-3.0,1.9665086269378662
412,3737.0,-1345.0,6148.0,0.0,5251.0,-637.0,8023.0,13269.0,30.0,84.0,-48.0,-32.0,-3.0,37.0,-13.0,-3.0,1.9724829196929932
413,3737.0,-1345.0,6148.0,0.0,5251.0,-637.0,8023.0,13269.0,26.0,-26.0,-32.0,-29.0,-27.0,2.0,-3.0,-16.0,1.975846529006958
414,3737.0,-1345.0,6148.0,0.0,5251.0,-637.0,8023.0,13269.0,10.0,-46.0,5.0,-9.0,18.0,14.0,-11.0,-12.0,1.979217290878296
415,3751.0,-1727.0,4548.0,0.0,4759.0,226.0,8480.0,13183.0,10.0,-46.0,5.0,-9.0,18.0,14.0,-11.0,-12.0,1.996825933456421
416,3751.0,-1727.0,4548.0,0.0,4759.0,226.0,8480.0,13183.0,-29.0,-29.0,-40.0,-43.0,-72.0,-56.0,-14.0,6.0,1.9988110065460205
417,3751.0,-1727.0,4548.0,0.0,4759.0,226.0,8480.0,13183.0,-37.0,-80.0,-9.0,9.0,58.0,10.0,-1.0,-53.0,2.00061297416687
418,4952.0,-1694.0,4011.0,0.0,4316.0,1095.0,9071.0,12896.0,-37.0,-80.0,-9.0,9.0,58.0,10.0,-1.0,-53.0,2.0182394981384277
419,4952.0,-1694.0,4011.0,0.0,4316.0,1095.0,9071.0,12896.0,-53.0,-120.0,99.0,31.0,-57.0,-33.0,-42.0,0.0,2.0204432010650635
420,4952.0,-1694.0,4011.0,0.0,4316.0,1095.0,9071.0,12896.0,-10.0,-3.0,-36.0,-5.0,-86.0,-63.0,-93.0,-33.0,2.0222437381744385
421,4921.0,-1111.0,3789.0,0.0,3825.0,1853.0,9643.0,12544.0,-10.0,-3.0,-36.0,-5.0,-86.0,-63.0,-93.0,-33.0,2.0327768325805664
422,4921.0,-1111.0,3789.0,0.0,3825.0,1853.0,9643.0,12544.0,-20.0,36.0,-35.0,10.0,6.0,-24.0,-24.0,-38.0,2.0346922874450684
423,4921.0,-1111.0,3789.0,0.0,3825.0,1853.0,9643.0,12544.0,-37.0,-10.0,26.0,75.0,64.0,8.0,-58.0,-9.0,2.039701223373413
424,4562.0,-906.0,2412.0,0.0,3492.0,2417.0,10164.0,12127.0,-37.0,-10.0,26.0,75.0,64.0,8.0,-58.0,-9.0,2.05606746673584
425,4562.0,-906.0,2412.0,0.0,3492.0,2417.0,10164.0,12127.0,-25.0,-6.0,-38.0,2.0,-29.0,34.0,33.0,34.0,2.059937000274658
426,4562.0,-906.0,2412.0,0.0,3492.0,2417.0,10164.0,12127.0,1.0,-1.0,-69.0,1.0,37.0,43.0,96.0,27.0,2.062941074371338
427,3966.0,-654.0,1797.0,0.0,3218.0,2851.0,10604.0,11725.0,1.0,-1.0,-69.0,1.0,37.0,43.0,96.0,27.0,2.069620132446289
428,3966.0,-654.0,1797.0,0.0,3218.0,2851.0,10604.0,11725.0,18.0,8.0,-70.0,1.0,118.0,42.0,38.0,2.0,2.0776453018188477
429,3966.0,-654.0,1797.0,0.0,3218.0,2851.0,10604.0,11725.0,-18.0,-7.0,-18.0,-36.0,-97.0,-53.0,-22.0,-22.0,2.0794501304626465
430,3227.0,-229.0,1746.0,0.0,2904.0,3207.0,10927.0,11414.0,-18.0,-7.0,-18.0,-36.0,-97.0,-53.0,-22.0,-22.0,2.0934338569641113
431,3227.0,-229.0,1746.0,0.0,2904.0,3207.0,10927.0,11414.0,90.0,127.0,3.0,-44.0,32.0,27.0,-3.0,34.0,2.095310688018799
432,3227.0,-229.0,1746.0,0.0,2904.0,3207.0,10927.0,11414.0,-58.0,-15.0,81.0,8.0,11.0,20.0,66.0,13.0,2.0994338989257812
433,2516.0,-183.0,1772.0,0.0,2624.0,3509.0,11148.0,11177.0,-58.0,-15.0,81.0,8.0,11.0,20.0,66.0,13.0,2.117037057876587
434,2516.0,-183.0,1772.0,0.0,2624.0,3509.0,11148.0,11177.0,62.0,17.0,-20.0,-67.0,-3.0,18.0,-34.0,-37.0,2.121208667755127
435,2516.0,-183.0,1772.0,0.0,2624.0,3509.0,11148.0,11177.0,67.0,-14.0,-79.0,17.0,103.0,36.0,31.0,46.0,2.1256439685821533
436,1950.0,-289.0,1377.0,0.0,2412.0,3769.0,11304.0,10983.0,67.0,-14.0,-79.0,17.0,103.0,36.0,31.0,46.0,2.1383538246154785
437,1950.0,-289.0,1377.0,0.0,2412.0,3769.0,11304.0,10983.0,-66.0,-9.0,87.0,-5.0,-2.0,-28.0,13.0,-28.0,2.1406748294830322
438,1950.0,-289.0,1377.0,0.0,2412.0,3769.0,11304.0,10983.0,0.0,51.0,126.0,30.0,-48.0,38.0,72.0,4.0,2.143850803375244
439,1686.0,-12.0,1427.0,0.0,2165.0,3995.0,11438.0,10813.0,0.0,51.0,126.0,30.0,-48.0,38.0,72.0,4.0,2.1537551879882812
440,1686.0,-12.0,1427.0,0.0,2165.0,3995.0,11438.0,10813.0,-50.0,-77.0,-36.0,-5.0,-18.0,72.0,26.0,10.0,2.158191442489624
441,1686.0,-12.0,1427.0,0.0,2165.0,3995.0,11438.0,10813.0,2.0,1.0,-41.0,16.0,5.0,-11.0,-4.0,-11.0,2.160640239715576
442,1131.0,165.0,1683.0,0.0,1905.0,4206.0,11514.0,10701.0,2.0,1.0,-41.0,16.0,5.0,-11.0,-4.0,-11.0,2.176457166671753
443,1131.0,165.0,1683.0,0.0,1905.0,4206.0,11514.0,10701.0,16.0,4.0,9.0,9.0,-44.0,-28.0,-39.0,-29.0,2.1798453330993652
444,1131.0,165.0,1683.0,0.0,1905.0,4206.0,11514.0,10701.0,54.0,65.0,8.0,-29.0,-100.0,-50.0,-83.0,2.0,2.1832685470581055
445,387.0,37.0,1280.0,0.0,1802.0,4312.0,11522.0,10668.0,54.0,65.0,8.0,-29.0,-100.0,-50.0,-83.0,2.0,2.2228989601135254
446,387.0,37.0,1280.0,0.0,1802.0,4312.0,11522.0,10668.0,-63.0,-70.0,1.0,-25.0,-49.0,-47.0,-42.0,5.0,2.2274982929229736
447,387.0,37.0,1280.0,0.0,1802.0,4312.0,11522.0,10668.0,-14.0,-16.0,48.0,-25.0,52.0,9.0,-6.0,11.0,2.229424476623535
448,-133.0,-77.0,670.0,0.0,1715.0,4421.0,11457.0,10708.0,-14.0,-16.0,48.0,-25.0,52.0,9.0,-6.0,11.0,2.2312099933624268
449,-133.0,-77.0,670.0,0.0,1715.0,4421.0,11457.0,10708.0,-20.0,-3.0,11.0,56.0,52.0,-3.0,16.0,-10.0,2.2330784797668457
450,-133.0,-77.0,670.0,0.0,1715.0,4421.0,11457.0,10708.0,-25.0,-6.0,32.0,-8.0,-14.0,-16.0,-6.0,-2.0,2.2366087436676025
451,296.0,-108.0,802.0,0.0,1558.0,4590.0,11428.0,10692.0,-25.0,-6.0,32.0,-8.0,-14.0,-16.0,-6.0,-2.0,2.2386176586151123
452,296.0,-108.0,802.0,0.0,1558.0,4590.0,11428.0,10692.0,5.0,-19.0,41.0,23.0,15.0,19.0,26.0,10.0,2.240678310394287
453,296.0,-108.0,802.0,0.0,1558.0,4590.0,11428.0,10692.0,-1.0,7.0,12.0,27.0,28.0,6.0,-48.0,-47.0,2.243237257003784
454,710.0,102.0,1046.0,0.0,1414.0,4711.0,11511.0,10570.0,-1.0,7.0,12.0,27.0,28.0,6.0,-48.0,-47.0,2.259439468383789
455,710.0,102.0,1046.0,0.0,1414.0,4711.0,11511.0,10570.0,-1.0,-25.0,-26.0,-10.0,-32.0,-59.0,6.0,-18.0,2.261385679244995
456,710.0,102.0,1046.0,0.0,1414.0,4711.0,11511.0,10570.0,55.0,53.0,-3.0,-3.0,10.0,12.0,8.0,12.0,2.2631680965423584
457,419.0,148.0,517.0,0.0,1375.0,4725.0,11586.0,10486.0,55.0,53.0,-3.0,-3.0,10.0,12.0,8.0,12.0,2.2733209133148193
458,419.0,148.0,517.0,0.0,1375.0,4725.0,11586.0,10486.0,10.0,49.0,33.0,34.0,66.0,44.0,37.0,31.0,2.2801661491394043
459,419.0,148.0,517.0,0.0,1375.0,4725.0,11586.0,10486.0,-22.0,-6.0,47.0,-11.0,-21.0,-1.0,21.0,11.0,2.2819559574127197
460,-32.0,-86.0,340.0,0.0,1331.0,4792.0,11563.0,10486.0,-22.0,-6.0,47.0,-11.0,-21.0,-1.0,21.0,11.0,2.2959039211273193
461,-32.0,-86.0,340.0,0.0,1331.0,4792.0,11563.0,10486.0,17.0,40.0,-49.0,-6.0,11.0,8.0,2.0,0.0,2.297802209854126
462,-32.0,-86.0,340.0,0.0,1331.0,4792.0,11563.0,10486.0,-30.0,-38.0,43.0,7.0,1.0,-8.0,-1.0,-2.0,2.2995877265930176
463,65.0,-68.0,398.0,0.0,1232.0,4896.0,11525.0,10493.0,-30.0,-38.0,43.0,7.0,1.0,-8.0,-1.0,-2.0,2.325798988342285
464,65.0,-68.0,398.0,0.0,1232.0,4896.0,11525.0,10493.0,12.0,14.0,6.0,13.0,6.0,-6.0,8.0,-13.0,2.328080892562866
465,65.0,-68.0,398.0,0.0,1232.0,4896.0,11525.0,10493.0,-3.0,-43.0,-67.0,-22.0,-10.0,49.0,21.0,9.0,2.331043243408203
466,327.0,67.0,455.0,0.0,1165.0,4948.0,11566.0,10431.0,-3.0,-43.0,-67.0,-22.0,-10.0,49.0,21.0,9.0,2.3345277309417725
467,327.0,67.0,455.0,0.0,1165.0,4948.0,11566.0,10431.0,8.0,28.0,38.0,17.0,7.0,-12.0,-6.0,-1.0,2.3411006927490234
468,327.0,67.0,455.0,0.0,1165.0,4948.0,11566.0,10431.0,15.0,17.0,24.0,-6.0,-20.0,-17.0,16.0,15.0,2.343329429626465
469,82.0,-34.0,72.0,0.0,1176.0,4953.0,11594.0,10396.0,15.0,17.0,24.0,-6.0,-20.0,-17.0,16.0,15.0,2.3557441234588623
470,82.0,-34.0,72.0,0.0,1176.0,4953.0,11594.0,10396.0,-18.0,-14.0,-66.0,3.0,13.0,21.0,-13.0,-1.0,2.3576066493988037
471,82.0,-34.0,72.0,0.0,1176.0,4953.0,11594.0,10396.0,9.0,23.0,23.0,8.0,30.0,1.0,13.0,3.0,2.359386682510376
472,-201.0,-127.0,55.0,0.0,1155.0,5006.0,11562.0,10408.0,9.0,23.0,23.0,8.0,30.0,1.0,13.0,3.0,2.3787927627563477
473,-201.0,-127.0,55.0,0.0,1155.0,5006.0,11562.0,10408.0,9.0,9.0,23.0,7.0,-5.0,-33.0,-17.0,7.0,2.3813843727111816
474,-201.0,-127.0,55.0,0.0,1155.0,5006.0,11562.0,10408.0,-25.0,-34.0,-62.0,-25.0,-29.0,-22.0,-53.0,-17.0,2.3850860595703125
475,4.0,-46.0,68.0,0.0,1107.0,5058.0,11553.0,10399.0,-25.0,-34.0,-62.0,-25.0,-29.0,-22.0,-53.0,-17.0,2.392483711242676
476,4.0,-46.0,68.0,0.0,1107.0,5058.0,11553.0,10399.0,-2.0,3.0,21.0,2.0,30.0,23.0,42.0,1.0,2.3999645709991455
477,4.0,-46.0,68.0,0.0,1107.0,5058.0,11553.0,10399.0,7.0,29.0,62.0,19.0,-18.0,-16.0,16.0,13.0,2.4017715454101562
478,198.0,112.0,-33.0,0.0,1082.0,5052.0,11595.0,10358.0,7.0,29.0,62.0,19.0,-18.0,-16.0,16.0,13.0,2.416086435317993
479,198.0,112.0,-33.0,0.0,1082.0,5052.0,11595.0,10358.0,6.0,61.0,58.0,-4.0,6.0,28.0,23.0,12.0,2.417954683303833
480,198.0,112.0,-33.0,0.0,1082.0,5052.0,11595.0,10358.0,25.0,16.0,-56.0,-38.0,5.0,10.0,11.0,5.0,2.421173572540283
481,176.0,-5.0,-73.0,0.0,1076.0,5052.0,11626.0,10323.0,25.0,16.0,-56.0,-38.0,5.0,10.0,11.0,5.0,2.440229654312134
482,176.0,-5.0,-73.0,0.0,1076.0,5052.0,11626.0,10323.0,-2.0,-11.0,10.0,-8.0,-32.0,-14.0,-24.0,-1.0,2.4442851543426514
483,176.0,-5.0,-73.0,0.0,1076.0,5052.0,11626.0,10323.0,-32.0,-34.0,-10.0,7.0,-16.0,-6.0,-33.0,-7.0,2.4476847648620605
484,43.0,-56.0,-36.0,0.0,1050.0,5080.0,11621.0,10318.0,-32.0,-34.0,-10.0,7.0,-16.0,-6.0,-33.0,-7.0,2.4528961181640625
485,43.0,-56.0,-36.0,0.0,1050.0,5080.0,11621.0,10318.0,-28.0,-42.0,-10.0,5.0,11.0,-8.0,-1.0,-3.0,2.4549505710601807
486,43.0,-56.0,-36.0,0.0,1050.0,5080.0,11621.0,10318.0,15.0,-8.0,-31.0,-9.0,-4.0,-13.0,0.0,-3.0,2.459507703781128
487,18.0,25.0,101.0,0.0,1019.0,5103.0,11617.0,10314.0,15.0,-8.0,-31.0,-9.0,-4.0,-13.0,0.0,-3.0,2.4766831398010254
488,18.0,25.0,101.0,0.0,1019.0,5103.0,11617.0,10314.0,-3.0,-32.0,-21.0,3.0,-19.0,8.0,-1.0,-3.0,2.478606939315796
489,18.0,25.0,101.0,0.0,1019.0,5103.0,11617.0,10314.0,-20.0,-33.0,-4.0,6.0,20.0,-11.0,-14.0,-8.0,2.480401039123535
490,79.0,0.0,-11.0,0.0,1000.0,5119.0,11634.0,10289.0,-20.0,-33.0,-4.0,6.0,20.0,-11.0,-14.0,-8.0,2.498588800430298
491,79.0,0.0,-11.0,0.0,1000.0,5119.0,11634.0,10289.0,1.0,-7.0,-14.0,-21.0,5.0,16.0,10.0,4.0,2.500506639480591
492,79.0,0.0,-11.0,0.0,1000.0,5119.0,11634.0,10289.0,15.0,50.0,11.0,3.0,-6.0,-22.0,0.0,9.0,2.50253963470459
493,97.0,-30.0,13.0,0.0,972.0,5146.0,11643.0,10268.0,15.0,50.0,11.0,3.0,-6.0,-22.0,0.0,9.0,2.5126543045043945
494,97.0,-30.0,13.0,0.0,972.0,5146.0,11643.0,10268.0,8.0,14.0,5.0,-1.0,-23.0,-25.0,42.0,11.0,2.5145232677459717
495,97.0,-30.0,13.0,0.0,972.0,5146.0,11643.0,10268.0,-7.0,-4.0,-23.0,-4.0,26.0,35.0,-9.0,-8.0,2.5202207565307617
496,-6.0,2.0,89.0,0.0,951.0,5167.0,11641.0,10261.0,-7.0,-4.0,-23.0,-4.0,26.0,35.0,-9.0,-8.0,2.5358641147613525
497,-6.0,2.0,89.0,0.0,951.0,5167.0,11641.0,10261.0,4.0,-5.0,-3.0,-23.0,-18.0,-30.0,24.0,22.0,2.5377860069274902
498,-6.0,2.0,89.0,0.0,951.0,5167.0,11641.0,10261.0,8.0,15.0,-10.0,3.0,-22.0,-3.0,7.0,17.0,2.5395798683166504
499,-71.0,-17.0,65.0,0.0,943.0,5186.0,11638.0,10256.0,8.0,15.0,-10.0,3.0,-22.0,-3.0,7.0,17.0,2.559861183166504
