,Gyro 0,Gyro 1,Gyro 2,Label,Orientation 0,Orientation 1,Orientation 2,Orientation 3,Sensor 0,Sensor 1,Sensor 2,Sensor 3,Sensor 4,Sensor 5,Sensor 6,Sensor 7,Timestamp
0,504.0,187.0,-52.0,0.0,-1555.0,8114.0,11438.0,8326.0,-3.0,-10.0,-3.0,1.0,-2.0,-2.0,-1.0,-3.0,1.9073486328125e-06
1,504.0,187.0,-52.0,0.0,-1555.0,8114.0,11438.0,8326.0,-9.0,22.0,10.0,1.0,1.0,1.0,-6.0,-2.0,0.002074718475341797
2,504.0,187.0,-52.0,0.0,-1555.0,8114.0,11438.0,8326.0,-6.0,1.0,-17.0,0.0,8.0,4.0,-4.0,-3.0,0.003996849060058594
3,547.0,193.0,-67.0,0.0,-1610.0,8073.0,11494.0,8277.0,-6.0,1.0,-17.0,0.0,8.0,4.0,-4.0,-3.0,0.007200002670288086
4,547.0,193.0,-67.0,0.0,-1610.0,8073.0,11494.0,8277.0,5.0,3.0,-1.0,0.0,-8.0,-4.0,2.0,1.0,0.010187864303588867
5,454.0,185.0,-81.0,0.0,-1652.0,8030.0,11543.0,8243.0,5.0,3.0,-1.0,0.0,-8.0,-4.0,2.0,1.0,0.012018203735351562
6,454.0,185.0,-81.0,0.0,-1652.0,8030.0,11543.0,8243.0,-1.0,-19.0,-2.0,1.0,-1.0,0.0,-1.0,-2.0,0.014060258865356445
7,454.0,185.0,-81.0,0.0,-1652.0,8030.0,11543.0,8243.0,11.0,7.0,-22.0,4.0,13.0,4.0,4.0,7.0,0.015866994857788086
8,322.0,166.0,-55.0,0.0,-1681.0,7994.0,11578.0,8225.0,11.0,7.0,-22.0,4.0,13.0,4.0,4.0,7.0,0.017628908157348633
9,322.0,166.0,-55.0,0.0,-1681.0,7994.0,11578.0,8225.0,6.0,1.0,-18.0,-11.0,-5.0,-5.0,5.0,-3.0,0.01959395408630371
10,322.0,166.0,-55.0,0.0,-1681.0,7994.0,11578.0,8225.0,3.0,1.0,9.0,-1.0,-11.0,-3.0,-2.0,2.0,0.021951913833618164
11,172.0,142.0,-35.0,0.0,-1699.0,7967.0,11597.0,8219.0,3.0,1.0,9.0,-1.0,-11.0,-3.0,-2.0,2.0,0.024171829223632812
12,172.0,142.0,-35.0,0.0,-1699.0,7967.0,11597.0,8219.0,13.0,8.0,-16.0,1.0,5.0,0.0,-1.0,5.0,0.026000499725341797
13,172.0,142.0,-35.0,0.0,-1699.0,7967.0,11597.0,8219.0,-9.0,-20.0,2.0,-4.0,-9.0,-1.0,-12.0,-2.0,0.028023481369018555
14,112.0,95.0,-24.0,0.0,-1712.0,7950.0,11610.0,8214.0,-9.0,-20.0,2.0,-4.0,-9.0,-1.0,-12.0,-2.0,0.030733823776245117
15,112.0,95.0,-24.0,0.0,-1712.0,7950.0,11610.0,8214.0,-7.0,-7.0,0.0,2.0,6.0,0.0,-9.0,-7.0,0.032708168029785156
16,112.0,95.0,-24.0,0.0,-1712.0,7950.0,11610.0,8214.0,-4.0,-4.0,-8.0,9.0,16.0,4.0,-8.0,-3.0,0.03518939018249512
17,33.0,72.0,-41.0,0.0,-1716.0,7937.0,11619.0,8213.0,-4.0,-4.0,-8.0,9.0,16.0,4.0,-8.0,-3.0,0.03760552406311035
18,33.0,72.0,-41.0,0.0,-1716.0,7937.0,11619.0,8213.0,-14.0,-40.0,5.0,1.0,-8.0,-8.0,-15.0,-1.0,0.0394594669342041
19,33.0,72.0,-41.0,0.0,-1716.0,7937.0,11619.0,8213.0,-13.0,-32.0,-5.0,-4.0,-5.0,-3.0,-13.0,-9.0,0.041211843490600586
20,44.0,53.0,-52.0,0.0,-1714.0,7926.0,11633.0,8205.0,-13.0,-32.0,-5.0,-4.0,-5.0,-3.0,-13.0,-9.0,0.043050289154052734
21,44.0,53.0,-52.0,0.0,-1714.0,7926.0,11633.0,8205.0,3.0,42.0,-4.0,-8.0,-5.0,-2.0,-7.0,-1.0,0.04491758346557617
22,44.0,53.0,-52.0,0.0,-1714.0,7926.0,11633.0,8205.0,19.0,56.0,11.0,0.0,-2.0,-1.0,-7.0,3.0,0.04667782783508301
23,26.0,23.0,-63.0,0.0,-1705.0,7916.0,11648.0,8195.0,19.0,56.0,11.0,0.0,-2.0,-1.0,-7.0,3.0,0.04873514175415039
24,26.0,23.0,-63.0,0.0,-1705.0,7916.0,11648.0,8195.0,7.0,-1.0,5.0,8.0,3.0,4.0,-3.0,2.0,0.05075669288635254
25,26.0,23.0,-63.0,0.0,-1705.0,7916.0,11648.0,8195.0,-15.0,-8.0,-11.0,-2.0,2.0,-2.0,-1.0,-6.0,0.05344867706298828
26,2.0,-8.0,-60.0,0.0,-1689.0,7909.0,11662.0,8185.0,-15.0,-8.0,-11.0,-2.0,2.0,-2.0,-1.0,-6.0,0.05553841590881348
27,2.0,-8.0,-60.0,0.0,-1689.0,7909.0,11662.0,8185.0,-4.0,3.0,24.0,7.0,-1.0,2.0,1.0,2.0,0.057431697845458984
28,2.0,-8.0,-60.0,0.0,-1689.0,7909.0,11662.0,8185.0,-16.0,5.0,11.0,-5.0,8.0,4.0,-7.0,-7.0,0.05919361114501953
29,-41.0,-33.0,-67.0,0.0,-1667.0,7904.0,11671.0,8182.0,-16.0,5.0,11.0,-5.0,8.0,4.0,-7.0,-7.0,0.060951948165893555
30,-41.0,-33.0,-67.0,0.0,-1667.0,7904.0,11671.0,8182.0,-16.0,-45.0,-3.0,-1.0,-15.0,-6.0,12.0,-3.0,0.06279277801513672
31,-41.0,-33.0,-67.0,0.0,-1667.0,7904.0,11671.0,8182.0,16.0,-5.0,2.0,-6.0,-33.0,-10.0,-3.0,10.0,0.064849853515625
32,-52.0,-13.0,-50.0,0.0,-1645.0,7896.0,11677.0,8185.0,16.0,-5.0,2.0,-6.0,-33.0,-10.0,-3.0,10.0,0.06682348251342773
33,-52.0,-13.0,-50.0,0.0,-1645.0,7896.0,11677.0,8185.0,-2.0,13.0,-7.0,-10.0,-2.0,1.0,5.0,4.0,0.06954717636108398
34,-52.0,-13.0,-50.0,0.0,-1645.0,7896.0,11677.0,8185.0,-15.0,-13.0,19.0,5.0,15.0,2.0,15.0,-3.0,0.07164311408996582
35,-154.0,18.0,-49.0,0.0,-1618.0,7888.0,11674.0,8204.0,-15.0,-13.0,19.0,5.0,15.0,2.0,15.0,-3.0,0.07343006134033203
36,-154.0,18.0,-49.0,0.0,-1618.0,7888.0,11674.0,8204.0,21.0,10.0,-1.0,6.0,2.0,-2.0,1.0,5.0,0.07529020309448242
37,-154.0,18.0,-49.0,0.0,-1618.0,7888.0,11674.0,8204.0,-7.0,-26.0,-5.0,-5.0,6.0,7.0,6.0,-2.0,0.0770573616027832
38,-132.0,50.0,-14.0,0.0,-1601.0,7879.0,11667.0,8224.0,-7.0,-26.0,-5.0,-5.0,6.0,7.0,6.0,-2.0,0.07883954048156738
39,-132.0,50.0,-14.0,0.0,-1601.0,7879.0,11667.0,8224.0,-3.0,3.0,8.0,-4.0,-3.0,-2.0,4.0,-2.0,0.08098959922790527
40,-132.0,50.0,-14.0,0.0,-1601.0,7879.0,11667.0,8224.0,4.0,-3.0,22.0,-3.0,-16.0,-9.0,-19.0,-2.0,0.083404541015625
41,-221.0,58.0,12.0,0.0,-1570.0,7870.0,11653.0,8259.0,4.0,-3.0,22.0,-3.0,-16.0,-9.0,-19.0,-2.0,0.08706116676330566
42,-221.0,58.0,12.0,0.0,-1570.0,7870.0,11653.0,8259.0,2.0,-12.0,-25.0,1.0,-5.0,-3.0,-16.0,-7.0,0.08923506736755371
43,-221.0,58.0,12.0,0.0,-1570.0,7870.0,11653.0,8259.0,1.0,10.0,-17.0,-10.0,-4.0,-3.0,10.0,5.0,0.09101009368896484
44,-367.0,44.0,79.0,0.0,-1533.0,7874.0,11620.0,8309.0,1.0,10.0,-17.0,-10.0,-4.0,-3.0,10.0,5.0,0.09276318550109863
45,-367.0,44.0,79.0,0.0,-1533.0,7874.0,11620.0,8309.0,-20.0,-42.0,-10.0,4.0,-2.0,-6.0,-5.0,-4.0,0.09458136558532715
46,-367.0,44.0,79.0,0.0,-1533.0,7874.0,11620.0,8309.0,3.0,15.0,7.0,8.0,11.0,6.0,0.0,0.0,0.09633970260620117
47,-515.0,47.0,205.0,0.0,-1506.0,7907.0,11563.0,8362.0,3.0,15.0,7.0,8.0,11.0,6.0,0.0,0.0,0.0983436107635498
48,-515.0,47.0,205.0,0.0,-1506.0,7907.0,11563.0,8362.0,1.0,10.0,13.0,16.0,18.0,8.0,8.0,2.0,0.10020565986633301
49,-515.0,47.0,205.0,0.0,-1506.0,7907.0,11563.0,8362.0,2.0,4.0,10.0,-4.0,-13.0,2.0,5.0,1.0,0.10195231437683105
50,-487.0,-29.0,210.0,0.0,-1471.0,7946.0,11511.0,8402.0,2.0,4.0,10.0,-4.0,-13.0,2.0,5.0,1.0,0.1040811538696289
51,-487.0,-29.0,210.0,0.0,-1471.0,7946.0,11511.0,8402.0,1.0,31.0,5.0,-4.0,7.0,8.0,3.0,-1.0,0.1067962646484375
52,-487.0,-29.0,210.0,0.0,-1471.0,7946.0,11511.0,8402.0,14.0,23.0,0.0,12.0,20.0,10.0,15.0,6.0,0.10860848426818848
53,-408.0,97.0,243.0,0.0,-1501.0,7978.0,11428.0,8480.0,14.0,23.0,0.0,12.0,20.0,10.0,15.0,6.0,0.1103816032409668
54,-408.0,97.0,243.0,0.0,-1501.0,7978.0,11428.0,8480.0,-10.0,-2.0,-16.0,-13.0,-9.0,-4.0,-4.0,-9.0,0.11273765563964844
55,-408.0,97.0,243.0,0.0,-1501.0,7978.0,11428.0,8480.0,7.0,26.0,12.0,14.0,26.0,4.0,-7.0,-1.0,0.11541867256164551
56,-262.0,219.0,49.0,0.0,-1529.0,7975.0,11387.0,8533.0,7.0,26.0,12.0,14.0,26.0,4.0,-7.0,-1.0,0.11750411987304688
57,-262.0,219.0,49.0,0.0,-1529.0,7975.0,11387.0,8533.0,42.0,56.0,9.0,-31.0,-10.0,-2.0,-3.0,1.0,0.12073016166687012
58,-262.0,219.0,49.0,0.0,-1529.0,7975.0,11387.0,8533.0,-22.0,-40.0,-16.0,-14.0,-24.0,-19.0,-40.0,-14.0,0.1225898265838623
59,-212.0,60.0,212.0,0.0,-1531.0,8001.0,11355.0,8550.0,-22.0,-40.0,-16.0,-14.0,-24.0,-19.0,-40.0,-14.0,0.12441205978393555
60,-212.0,60.0,212.0,0.0,-1531.0,8001.0,11355.0,8550.0,-18.0,-15.0,6.0,0.0,2.0,-1.0,1.0,-9.0,0.1262977123260498
61,-212.0,60.0,212.0,0.0,-1531.0,8001.0,11355.0,8550.0,10.0,12.0,-4.0,13.0,16.0,16.0,32.0,22.0,0.1280956268310547
62,-398.0,-84.0,168.0,0.0,-1516.0,8044.0,11299.0,8587.0,10.0,12.0,-4.0,13.0,16.0,16.0,32.0,22.0,0.12986350059509277
63,-398.0,-84.0,168.0,0.0,-1516.0,8044.0,11299.0,8587.0,-3.0,-20.0,-21.0,-52.0,-21.0,-6.0,-14.0,-9.0,0.13202691078186035
64,-398.0,-84.0,168.0,0.0,-1516.0,8044.0,11299.0,8587.0,-16.0,-9.0,-18.0,11.0,5.0,-5.0,1.0,-8.0,0.13380646705627441
65,-379.0,-86.0,47.0,0.0,-1502.0,8077.0,11252.0,8620.0,-16.0,-9.0,-18.0,11.0,5.0,-5.0,1.0,-8.0,0.13557767868041992
66,-379.0,-86.0,47.0,0.0,-1502.0,8077.0,11252.0,8620.0,22.0,-2.0,19.0,20.0,9.0,13.0,31.0,8.0,0.13740754127502441
67,-379.0,-86.0,47.0,0.0,-1502.0,8077.0,11252.0,8620.0,-5.0,-22.0,-6.0,-23.0,-13.0,-2.0,-6.0,14.0,0.13919687271118164
68,-198.0,-84.0,-37.0,0.0,-1477.0,8084.0,11232.0,8644.0,-5.0,-22.0,-6.0,-23.0,-13.0,-2.0,-6.0,14.0,0.14101362228393555
69,-198.0,-84.0,-37.0,0.0,-1477.0,8084.0,11232.0,8644.0,-1.0,-1.0,-4.0,10.0,5.0,-1.0,2.0,0.0,0.14301514625549316
70,-198.0,-84.0,-37.0,0.0,-1477.0,8084.0,11232.0,8644.0,-7.0,-6.0,2.0,6.0,-1.0,-3.0,-14.0,-13.0,0.14545369148254395
71,-199.0,-130.0,-176.0,0.0,-1438.0,8077.0,11220.0,8672.0,-7.0,-6.0,2.0,6.0,-1.0,-3.0,-14.0,-13.0,0.14753317832946777
72,-199.0,-130.0,-176.0,0.0,-1438.0,8077.0,11220.0,8672.0,-9.0,-10.0,14.0,18.0,17.0,-1.0,-4.0,16.0,0.1493675708770752
73,-199.0,-130.0,-176.0,0.0,-1438.0,8077.0,11220.0,8672.0,17.0,-8.0,14.0,10.0,4.0,-6.0,-2.0,9.0,0.15133404731750488
74,-286.0,-257.0,-203.0,0.0,-1368.0,8082.0,11212.0,8690.0,17.0,-8.0,14.0,10.0,4.0,-6.0,-2.0,9.0,0.15421414375305176
75,-286.0,-257.0,-203.0,0.0,-1368.0,8082.0,11212.0,8690.0,-7.0,6.0,-11.0,-13.0,-12.0,-5.0,-12.0,-11.0,0.15610432624816895
76,-286.0,-257.0,-203.0,0.0,-1368.0,8082.0,11212.0,8690.0,-17.0,-18.0,-7.0,-13.0,1.0,1.0,1.0,-17.0,0.15785837173461914
77,-280.0,-300.0,-243.0,0.0,-1299.0,8095.0,11207.0,8695.0,-17.0,-18.0,-7.0,-13.0,1.0,1.0,1.0,-17.0,0.15962505340576172
78,-280.0,-300.0,-243.0,0.0,-1299.0,8095.0,11207.0,8695.0,18.0,-9.0,-10.0,15.0,29.0,2.0,7.0,23.0,0.16145539283752441
79,-280.0,-300.0,-243.0,0.0,-1299.0,8095.0,11207.0,8695.0,5.0,26.0,-16.0,4.0,7.0,8.0,7.0,-9.0,0.16328144073486328
80,-99.0,-158.0,-177.0,0.0,-1261.0,8098.0,11218.0,8683.0,5.0,26.0,-16.0,4.0,7.0,8.0,7.0,-9.0,0.16534733772277832
81,-99.0,-158.0,-177.0,0.0,-1261.0,8098.0,11218.0,8683.0,-18.0,-41.0,-36.0,8.0,8.0,3.0,1.0,-8.0,0.16719937324523926
82,-99.0,-158.0,-177.0,0.0,-1261.0,8098.0,11218.0,8683.0,40.0,66.0,13.0,5.0,-4.0,-1.0,4.0,15.0,0.16895318031311035
83,30.0,-48.0,-109.0,0.0,-1224.0,8083.0,11246.0,8666.0,40.0,66.0,13.0,5.0,-4.0,-1.0,4.0,15.0,0.1707134246826172
84,30.0,-48.0,-109.0,0.0,-1224.0,8083.0,11246.0,8666.0,-9.0,-8.0,6.0,-12.0,-32.0,-11.0,-18.0,1.0,0.1725609302520752
85,30.0,-48.0,-109.0,0.0,-1224.0,8083.0,11246.0,8666.0,-19.0,-25.0,-12.0,-25.0,-21.0,-7.0,-6.0,-14.0,0.17485880851745605
86,3.0,5.0,-27.0,0.0,-1200.0,8072.0,11262.0,8659.0,-19.0,-25.0,-12.0,-25.0,-21.0,-7.0,-6.0,-14.0,0.17725443840026855
87,3.0,5.0,-27.0,0.0,-1200.0,8072.0,11262.0,8659.0,-2.0,14.0,8.0,3.0,-6.0,-2.0,15.0,6.0,0.17913222312927246
88,3.0,5.0,-27.0,0.0,-1200.0,8072.0,11262.0,8659.0,-23.0,-39.0,9.0,3.0,10.0,-1.0,2.0,1.0,0.1809096336364746
89,-204.0,109.0,80.0,0.0,-1182.0,8063.0,11242.0,8696.0,-23.0,-39.0,9.0,3.0,10.0,-1.0,2.0,1.0,0.18267083168029785
90,-204.0,109.0,80.0,0.0,-1182.0,8063.0,11242.0,8696.0,-1.0,43.0,-2.0,2.0,9.0,-6.0,-35.0,-18.0,0.18473315238952637
91,-204.0,109.0,80.0,0.0,-1182.0,8063.0,11242.0,8696.0,28.0,8.0,4.0,4.0,-19.0,-6.0,-2.0,6.0,0.18764877319335938
92,-284.0,167.0,129.0,0.0,-1165.0,8054.0,11211.0,8746.0,28.0,8.0,4.0,4.0,-19.0,-6.0,-2.0,6.0,0.18943190574645996
93,-284.0,167.0,129.0,0.0,-1165.0,8054.0,11211.0,8746.0,-10.0,-31.0,13.0,10.0,4.0,5.0,12.0,3.0,0.19126605987548828
94,-284.0,167.0,129.0,0.0,-1165.0,8054.0,11211.0,8746.0,-18.0,-16.0,4.0,-3.0,-6.0,10.0,-7.0,-14.0,0.19301891326904297
95,-316.0,226.0,221.0,0.0,-1159.0,8046.0,11166.0,8812.0,-18.0,-16.0,4.0,-3.0,-6.0,10.0,-7.0,-14.0,0.19477343559265137
96,-316.0,226.0,221.0,0.0,-1159.0,8046.0,11166.0,8812.0,9.0,24.0,13.0,1.0,-12.0,-1.0,10.0,-4.0,0.19660019874572754
97,-316.0,226.0,221.0,0.0,-1159.0,8046.0,11166.0,8812.0,5.0,-6.0,-2.0,7.0,11.0,-4.0,-4.0,7.0,0.1986558437347412
98,-649.0,374.0,328.0,0.0,-1137.0,8031.0,11082.0,8933.0,5.0,-6.0,-2.0,7.0,11.0,-4.0,-4.0,7.0,0.20048189163208008
99,-649.0,374.0,328.0,0.0,-1137.0,8031.0,11082.0,8933.0,-6.0,-9.0,-5.0,16.0,13.0,6.0,0.0,-1.0,0.2023460865020752
100,-649.0,374.0,328.0,0.0,-1137.0,8031.0,11082.0,8933.0,0.0,24.0,-27.0,-9.0,-11.0,-9.0,-12.0,-1.0,0.2042250633239746
101,-1277.0,300.0,373.0,0.0,-1075.0,8047.0,10927.0,9116.0,0.0,24.0,-27.0,-9.0,-11.0,-9.0,-12.0,-1.0,0.20653605461120605
102,-1277.0,300.0,373.0,0.0,-1075.0,8047.0,10927.0,9116.0,-8.0,-11.0,17.0,-5.0,-28.0,-11.0,-2.0,5.0,0.2087545394897461
103,-1277.0,300.0,373.0,0.0,-1075.0,8047.0,10927.0,9116.0,-23.0,-39.0,9.0,-9.0,-26.0,-14.0,-7.0,-10.0,0.21050786972045898
104,-1709.0,-94.0,454.0,0.0,-946.0,8131.0,10731.0,9287.0,-23.0,-39.0,9.0,-9.0,-26.0,-14.0,-7.0,-10.0,0.2123548984527588
105,-1709.0,-94.0,454.0,0.0,-946.0,8131.0,10731.0,9287.0,0.0,-8.0,-52.0,9.0,32.0,8.0,10.0,2.0,0.2142031192779541
106,-1709.0,-94.0,454.0,0.0,-946.0,8131.0,10731.0,9287.0,-12.0,7.0,2.0,1.0,0.0,6.0,7.0,-12.0,0.21596932411193848
107,-1445.0,-685.0,422.0,0.0,-776.0,8286.0,10582.0,9337.0,-12.0,7.0,2.0,1.0,0.0,6.0,7.0,-12.0,0.2182903289794922
108,-1445.0,-685.0,422.0,0.0,-776.0,8286.0,10582.0,9337.0,25.0,40.0,-43.0,30.0,-21.0,-4.0,10.0,7.0,0.2209033966064453
109,-1445.0,-685.0,422.0,0.0,-776.0,8286.0,10582.0,9337.0,38.0,90.0,-73.0,-39.0,21.0,11.0,6.0,0.0,0.2227189540863037
110,-905.0,-699.0,-148.0,0.0,-642.0,8382.0,10501.0,9352.0,38.0,90.0,-73.0,-39.0,21.0,11.0,6.0,0.0,0.2245473861694336
111,-905.0,-699.0,-148.0,0.0,-642.0,8382.0,10501.0,9352.0,-18.0,11.0,-1.0,35.0,10.0,4.0,12.0,4.0,0.22638440132141113
112,-905.0,-699.0,-148.0,0.0,-642.0,8382.0,10501.0,9352.0,24.0,26.0,-34.0,-70.0,24.0,-1.0,-12.0,3.0,0.2281494140625
113,-480.0,-387.0,-570.0,0.0,-522.0,8367.0,10488.0,9387.0,24.0,26.0,-34.0,-70.0,24.0,-1.0,-12.0,3.0,0.2298905849456787
114,-480.0,-387.0,-570.0,0.0,-522.0,8367.0,10488.0,9387.0,-9.0,0.0,55.0,-69.0,-48.0,-4.0,8.0,-5.0,0.232041597366333
115,-480.0,-387.0,-570.0,0.0,-522.0,8367.0,10488.0,9387.0,-3.0,5.0,-17.0,39.0,37.0,14.0,6.0,4.0,0.23380327224731445
116,-142.0,260.0,62.0,0.0,-572.0,8350.0,10439.0,9454.0,-3.0,5.0,-17.0,39.0,37.0,14.0,6.0,4.0,0.23861241340637207
117,-142.0,260.0,62.0,0.0,-572.0,8350.0,10439.0,9454.0,-24.0,-87.0,28.0,79.0,13.0,1.0,-11.0,-9.0,0.24675488471984863
118,-142.0,260.0,62.0,0.0,-572.0,8350.0,10439.0,9454.0,-7.0,-21.0,-15.0,-95.0,-44.0,-14.0,2.0,0.0,0.24854826927185059
119,107.0,376.0,-146.0,0.0,-618.0,8298.0,10457.0,9477.0,-7.0,-21.0,-15.0,-95.0,-44.0,-14.0,2.0,0.0,0.26221418380737305
120,107.0,376.0,-146.0,0.0,-618.0,8298.0,10457.0,9477.0,86.0,115.0,-55.0,-65.0,26.0,17.0,2.0,27.0,0.26497435569763184
121,107.0,376.0,-146.0,0.0,-618.0,8298.0,10457.0,9477.0,-35.0,-65.0,49.0,-32.0,4.0,-48.0,-35.0,-21.0,0.2696051597595215
122,-229.0,-527.0,-312.0,0.0,-550.0,8336.0,10437.0,9470.0,-35.0,-65.0,49.0,-32.0,4.0,-48.0,-35.0,-21.0,0.2846405506134033
123,-229.0,-527.0,-312.0,0.0,-550.0,8336.0,10437.0,9470.0,-22.0,-13.0,-7.0,-8.0,-7.0,-14.0,-10.0,-18.0,0.28649353981018066
124,-229.0,-527.0,-312.0,0.0,-550.0,8336.0,10437.0,9470.0,-3.0,-21.0,40.0,50.0,14.0,23.0,3.0,3.0,0.2882850170135498
125,-471.0,-20.0,277.0,0.0,-587.0,8404.0,10341.0,9513.0,-3.0,-21.0,40.0,50.0,14.0,23.0,3.0,3.0,0.29908037185668945
126,-471.0,-20.0,277.0,0.0,-587.0,8404.0,10341.0,9513.0,-13.0,-16.0,-26.0,6.0,20.0,-1.0,-19.0,-14.0,0.30675292015075684
127,-471.0,-20.0,277.0,0.0,-587.0,8404.0,10341.0,9513.0,-8.0,29.0,-6.0,39.0,-11.0,-5.0,10.0,3.0,0.3085300922393799
128,-325.0,215.0,255.0,0.0,-620.0,8420.0,10278.0,9565.0,-8.0,29.0,-6.0,39.0,-11.0,-5.0,10.0,3.0,0.32169151306152344
129,-325.0,215.0,255.0,0.0,-620.0,8420.0,10278.0,9565.0,20.0,83.0,-8.0,-14.0,-4.0,0.0,-1.0,2.0,0.3235805034637451
130,-325.0,215.0,255.0,0.0,-620.0,8420.0,10278.0,9565.0,5.0,-33.0,4.0,25.0,0.0,-2.0,-5.0,2.0,0.32865095138549805
131,-60.0,106.0,173.0,0.0,-656.0,8438.0,10253.0,9573.0,5.0,-33.0,4.0,25.0,0.0,-2.0,-5.0,2.0,0.34566330909729004
132,-60.0,106.0,173.0,0.0,-656.0,8438.0,10253.0,9573.0,-7.0,-18.0,9.0,-10.0,3.0,-3.0,7.0,7.0,0.34914326667785645
133,-60.0,106.0,173.0,0.0,-656.0,8438.0,10253.0,9573.0,5.0,5.0,11.0,-3.0,-38.0,-6.0,-7.0,-8.0,0.3522968292236328
134,-36.0,128.0,267.0,0.0,-696.0,8453.0,10220.0,9593.0,5.0,5.0,11.0,-3.0,-38.0,-6.0,-7.0,-8.0,0.3592205047607422
135,-36.0,128.0,267.0,0.0,-696.0,8453.0,10220.0,9593.0,-43.0,-98.0,86.0,17.0,7.0,0.0,-5.0,-11.0,0.36677050590515137
136,-36.0,128.0,267.0,0.0,-696.0,8453.0,10220.0,9593.0,5.0,-30.0,-5.0,15.0,-16.0,0.0,7.0,5.0,0.369373083114624
137,-131.0,72.0,239.0,0.0,-712.0,8463.0,10180.0,9626.0,5.0,-30.0,-5.0,15.0,-16.0,0.0,7.0,5.0,0.3817098140716553
138,-131.0,72.0,239.0,0.0,-712.0,8463.0,10180.0,9626.0,-20.0,-71.0,-3.0,9.0,11.0,-1.0,1.0,-1.0,0.3842635154724121
139,-131.0,72.0,239.0,0.0,-712.0,8463.0,10180.0,9626.0,21.0,9.0,-62.0,8.0,64.0,25.0,13.0,13.0,0.3890371322631836
140,115.0,-50.0,170.0,0.0,-730.0,8486.0,10182.0,9601.0,21.0,9.0,-62.0,8.0,64.0,25.0,13.0,13.0,0.40611743927001953
141,115.0,-50.0,170.0,0.0,-730.0,8486.0,10182.0,9601.0,-17.0,-40.0,-18.0,-15.0,19.0,6.0,5.0,-3.0,0.40987133979797363
142,115.0,-50.0,170.0,0.0,-730.0,8486.0,10182.0,9601.0,20.0,27.0,-47.0,23.0,48.0,9.0,-5.0,7.0,0.4134705066680908
143,169.0,-52.0,148.0,0.0,-759.0,8505.0,10180.0,9585.0,20.0,27.0,-47.0,23.0,48.0,9.0,-5.0,7.0,0.4285874366760254
144,169.0,-52.0,148.0,0.0,-759.0,8505.0,10180.0,9585.0,5.0,11.0,26.0,31.0,13.0,11.0,10.0,6.0,0.4320962429046631
145,169.0,-52.0,148.0,0.0,-759.0,8505.0,10180.0,9585.0,-9.0,16.0,37.0,-22.0,-48.0,-11.0,0.0,-6.0,0.4365663528442383
146,57.0,165.0,172.0,0.0,-801.0,8506.0,10168.0,9593.0,-9.0,16.0,37.0,-22.0,-48.0,-11.0,0.0,-6.0,0.44972705841064453
147,57.0,165.0,172.0,0.0,-801.0,8506.0,10168.0,9593.0,7.0,33.0,-25.0,-27.0,-42.0,-11.0,-6.0,-4.0,0.4531838893890381
148,57.0,165.0,172.0,0.0,-801.0,8506.0,10168.0,9593.0,10.0,-7.0,54.0,14.0,7.0,1.0,-2.0,12.0,0.4565737247467041
149,80.0,126.0,83.0,0.0,-824.0,8489.0,10163.0,9611.0,10.0,-7.0,54.0,14.0,7.0,1.0,-2.0,12.0,0.4646735191345215
150,80.0,126.0,83.0,0.0,-824.0,8489.0,10163.0,9611.0,29.0,11.0,-8.0,14.0,17.0,0.0,7.0,10.0,0.4665341377258301
151,80.0,126.0,83.0,0.0,-824.0,8489.0,10163.0,9611.0,-11.0,-10.0,15.0,43.0,-15.0,-2.0,-3.0,-3.0,0.47150516510009766
152,214.0,35.0,-36.0,0.0,-846.0,8473.0,10180.0,9605.0,-11.0,-10.0,15.0,43.0,-15.0,-2.0,-3.0,-3.0,0.48791980743408203
153,214.0,35.0,-36.0,0.0,-846.0,8473.0,10180.0,9605.0,-1.0,2.0,7.0,-10.0,-9.0,-9.0,-27.0,-12.0,0.4898104667663574
154,214.0,35.0,-36.0,0.0,-846.0,8473.0,10180.0,9605.0,-10.0,-7.0,4.0,-57.0,-51.0,-22.0,-10.0,-6.0,0.49160075187683105
155,96.0,-4.0,-65.0,0.0,-863.0,8465.0,10181.0,9610.0,-10.0,-7.0,4.0,-57.0,-51.0,-22.0,-10.0,-6.0,0.5098721981048584
156,96.0,-4.0,-65.0,0.0,-863.0,8465.0,10181.0,9610.0,4.0,11.0,-14.0,-33.0,-9.0,-1.0,-2.0,1.0,0.5119075775146484
157,96.0,-4.0,-65.0,0.0,-863.0,8465.0,10181.0,9610.0,-16.0,13.0,81.0,18.0,-3.0,0.0,-9.0,-6.0,0.5144147872924805
158,258.0,94.0,-41.0,0.0,-899.0,8445.0,10202.0,9602.0,-16.0,13.0,81.0,18.0,-3.0,0.0,-9.0,-6.0,0.5231945514678955
159,258.0,94.0,-41.0,0.0,-899.0,8445.0,10202.0,9602.0,11.0,14.0,27.0,-44.0,-21.0,-2.0,14.0,9.0,0.5320112705230713
160,258.0,94.0,-41.0,0.0,-899.0,8445.0,10202.0,9602.0,-14.0,-20.0,-15.0,15.0,11.0,7.0,-9.0,-7.0,0.5338234901428223
161,136.0,6.0,10.0,0.0,-890.0,8424.0,10219.0,9603.0,-14.0,-20.0,-15.0,15.0,11.0,7.0,-9.0,-7.0,0.5483555793762207
162,136.0,6.0,10.0,0.0,-890.0,8424.0,10219.0,9603.0,13.0,31.0,-12.0,3.0,6.0,2.0,-9.0,-9.0,0.5521557331085205
163,136.0,6.0,10.0,0.0,-890.0,8424.0,10219.0,9603.0,0.0,-10.0,-5.0,11.0,0.0,4.0,7.0,3.0,0.5556108951568604
164,126.0,124.0,-28.0,0.0,-901.0,8410.0,10248.0,9584.0,0.0,-10.0,-5.0,11.0,0.0,4.0,7.0,3.0,0.5696718692779541
165,126.0,124.0,-28.0,0.0,-901.0,8410.0,10248.0,9584.0,-34.0,-69.0,2.0,9.0,2.0,3.0,-5.0,-6.0,0.5715384483337402
166,126.0,124.0,-28.0,0.0,-901.0,8410.0,10248.0,9584.0,0.0,-1.0,-6.0,-2.0,4.0,7.0,1.0,2.0,0.5734536647796631
167,-160.0,-3.0,7.0,0.0,-880.0,8418.0,10243.0,9584.0,0.0,-1.0,-6.0,-2.0,4.0,7.0,1.0,2.0,0.583277702331543
168,-160.0,-3.0,7.0,0.0,-880.0,8418.0,10243.0,9584.0,-18.0,-5.0,15.0,13.0,13.0,-1.0,-2.0,-1.0,0.5919466018676758
169,-160.0,-3.0,7.0,0.0,-880.0,8418.0,10243.0,9584.0,-7.0,3.0,18.0,-13.0,15.0,4.0,-1.0,2.0,0.5937149524688721
170,-45.0,48.0,19.0,0.0,-910.0,8437.0,10231.0,9577.0,-7.0,3.0,18.0,-13.0,15.0,4.0,-1.0,2.0,0.6083652973175049
171,-45.0,48.0,19.0,0.0,-910.0,8437.0,10231.0,9577.0,8.0,24.0,-32.0,16.0,-9.0,-5.0,6.0,1.0,0.6117303371429443
172,-45.0,48.0,19.0,0.0,-910.0,8437.0,10231.0,9577.0,10.0,22.0,-12.0,28.0,-15.0,5.0,11.0,7.0,0.6148653030395508
173,261.0,134.0,113.0,0.0,-965.0,8438.0,10248.0,9553.0,10.0,22.0,-12.0,28.0,-15.0,5.0,11.0,7.0,0.6295461654663086
174,261.0,134.0,113.0,0.0,-965.0,8438.0,10248.0,9553.0,0.0,2.0,25.0,26.0,0.0,-3.0,-4.0,1.0,0.6325252056121826
175,261.0,134.0,113.0,0.0,-965.0,8438.0,10248.0,9553.0,6.0,0.0,-18.0,-12.0,13.0,1.0,9.0,6.0,0.6365752220153809
176,133.0,9.0,97.0,0.0,-959.0,8431.0,10267.0,9539.0,6.0,0.0,-18.0,-12.0,13.0,1.0,9.0,6.0,0.6440155506134033
177,133.0,9.0,97.0,0.0,-959.0,8431.0,10267.0,9539.0,25.0,35.0,-14.0,-1.0,0.0,-1.0,-5.0,2.0,0.652069091796875
178,133.0,9.0,97.0,0.0,-959.0,8431.0,10267.0,9539.0,-21.0,-46.0,-28.0,-12.0,-3.0,-6.0,-20.0,-14.0,0.6544198989868164
179,-111.0,102.0,82.0,0.0,-965.0,8425.0,10245.0,9568.0,-21.0,-46.0,-28.0,-12.0,-3.0,-6.0,-20.0,-14.0,0.6690192222595215
180,-111.0,102.0,82.0,0.0,-965.0,8425.0,10245.0,9568.0,5.0,12.0,9.0,-3.0,0.0,1.0,6.0,0.0,0.6726381778717041
181,-111.0,102.0,82.0,0.0,-965.0,8425.0,10245.0,9568.0,6.0,12.0,6.0,-7.0,-14.0,-13.0,-3.0,-6.0,0.6758270263671875
182,-147.0,131.0,86.0,0.0,-976.0,8424.0,10222.0,9592.0,6.0,12.0,6.0,-7.0,-14.0,-13.0,-3.0,-6.0,0.6897094249725342
183,-147.0,131.0,86.0,0.0,-976.0,8424.0,10222.0,9592.0,-6.0,2.0,1.0,1.0,0.0,-2.0,-7.0,-2.0,0.6915750503540039
184,-147.0,131.0,86.0,0.0,-976.0,8424.0,10222.0,9592.0,10.0,-8.0,-6.0,1.0,-4.0,1.0,16.0,6.0,0.6933414936065674
185,42.0,211.0,30.0,0.0,-1033.0,8408.0,10197.0,9626.0,10.0,-8.0,-6.0,1.0,-4.0,1.0,16.0,6.0,0.7050108909606934
186,42.0,211.0,30.0,0.0,-1033.0,8408.0,10197.0,9626.0,-27.0,-7.0,19.0,12.0,-35.0,-5.0,-27.0,-24.0,0.7117855548858643
187,42.0,211.0,30.0,0.0,-1033.0,8408.0,10197.0,9626.0,0.0,-10.0,-15.0,2.0,11.0,7.0,-10.0,-4.0,0.7136521339416504
188,176.0,407.0,89.0,0.0,-1110.0,8371.0,10194.0,9653.0,0.0,-10.0,-15.0,2.0,11.0,7.0,-10.0,-4.0,0.7274296283721924
189,176.0,407.0,89.0,0.0,-1110.0,8371.0,10194.0,9653.0,-3.0,-21.0,-5.0,-8.0,3.0,-7.0,-6.0,3.0,0.7313895225524902
190,176.0,407.0,89.0,0.0,-1110.0,8371.0,10194.0,9653.0,-13.0,-34.0,11.0,0.0,-2.0,-1.0,-3.0,-3.0,0.7345654964447021
191,193.0,188.0,63.0,0.0,-1141.0,8349.0,10215.0,9647.0,-13.0,-34.0,11.0,0.0,-2.0,-1.0,-3.0,-3.0,0.7505810260772705
192,193.0,188.0,63.0,0.0,-1141.0,8349.0,10215.0,9647.0,5.0,10.0,-22.0,2.0,-5.0,2.0,3.0,7.0,0.753664493560791
193,193.0,188.0,63.0,0.0,-1141.0,8349.0,10215.0,9647.0,12.0,28.0,9.0,10.0,10.0,9.0,10.0,9.0,0.7565927505493164
194,23.0,102.0,27.0,0.0,-1149.0,8339.0,10220.0,9649.0,12.0,28.0,9.0,10.0,10.0,9.0,10.0,9.0,0.7640931606292725
195,23.0,102.0,27.0,0.0,-1149.0,8339.0,10220.0,9649.0,-22.0,-49.0,17.0,-14.0,-8.0,-1.0,1.0,-7.0,0.7717320919036865
196,23.0,102.0,27.0,0.0,-1149.0,8339.0,10220.0,9649.0,-4.0,-13.0,-12.0,-4.0,-5.0,5.0,1.0,-5.0,0.7735154628753662
197,-20.0,122.0,20.0,0.0,-1162.0,8331.0,10218.0,9657.0,-4.0,-13.0,-12.0,-4.0,-5.0,5.0,1.0,-5.0,0.7865326404571533
198,-20.0,122.0,20.0,0.0,-1162.0,8331.0,10218.0,9657.0,15.0,6.0,-9.0,-11.0,1.0,0.0,8.0,4.0,0.7900526523590088
199,-20.0,122.0,20.0,0.0,-1162.0,8331.0,10218.0,9657.0,-5.0,-14.0,17.0,-3.0,-7.0,-9.0,4.0,-1.0,0.7947564125061035
200,116.0,114.0,-58.0,0.0,-1185.0,8324.0,10240.0,9636.0,-5.0,-14.0,17.0,-3.0,-7.0,-9.0,4.0,-1.0,0.8100018501281738
201,116.0,114.0,-58.0,0.0,-1185.0,8324.0,10240.0,9636.0,3.0,-2.0,21.0,5.0,10.0,-1.0,-14.0,-1.0,0.8119015693664551
202,116.0,114.0,-58.0,0.0,-1185.0,8324.0,10240.0,9636.0,-2.0,17.0,1.0,7.0,27.0,6.0,5.0,-3.0,0.8140156269073486
203,253.0,60.0,-10.0,0.0,-1218.0,8321.0,10270.0,9603.0,-2.0,17.0,1.0,7.0,27.0,6.0,5.0,-3.0,0.8245208263397217
204,253.0,60.0,-10.0,0.0,-1218.0,8321.0,10270.0,9603.0,1.0,9.0,4.0,3.0,15.0,4.0,-1.0,-2.0,0.8316097259521484
205,253.0,60.0,-10.0,0.0,-1218.0,8321.0,10270.0,9603.0,-7.0,-20.0,26.0,-6.0,-15.0,-18.0,-15.0,-1.0,0.8333823680877686
206,215.0,59.0,29.0,0.0,-1239.0,8315.0,10297.0,9576.0,-7.0,-20.0,26.0,-6.0,-15.0,-18.0,-15.0,-1.0,0.8464236259460449
207,215.0,59.0,29.0,0.0,-1239.0,8315.0,10297.0,9576.0,-17.0,-34.0,-37.0,3.0,16.0,8.0,14.0,-2.0,0.8499999046325684
208,215.0,59.0,29.0,0.0,-1239.0,8315.0,10297.0,9576.0,-4.0,6.0,-24.0,-2.0,4.0,5.0,-6.0,-5.0,0.8549439907073975
209,119.0,30.0,73.0,0.0,-1253.0,8319.0,10312.0,9556.0,-4.0,6.0,-24.0,-2.0,4.0,5.0,-6.0,-5.0,0.8718051910400391
210,119.0,30.0,73.0,0.0,-1253.0,8319.0,10312.0,9556.0,6.0,11.0,-8.0,-6.0,-12.0,-9.0,-2.0,8.0,0.8738532066345215
211,119.0,30.0,73.0,0.0,-1253.0,8319.0,10312.0,9556.0,2.0,30.0,-3.0,-4.0,-15.0,-4.0,2.0,-4.0,0.8756182193756104
212,133.0,-14.0,60.0,0.0,-1273.0,8329.0,10320.0,9536.0,2.0,30.0,-3.0,-4.0,-15.0,-4.0,2.0,-4.0,0.8839728832244873
213,133.0,-14.0,60.0,0.0,-1273.0,8329.0,10320.0,9536.0,-15.0,2.0,-8.0,-4.0,-1.0,2.0,5.0,-7.0,0.891831636428833
214,133.0,-14.0,60.0,0.0,-1273.0,8329.0,10320.0,9536.0,5.0,18.0,0.0,2.0,-1.0,3.0,10.0,7.0,0.8936307430267334
215,193.0,-4.0,32.0,0.0,-1301.0,8336.0,10335.0,9509.0,5.0,18.0,0.0,2.0,-1.0,3.0,10.0,7.0,0.9063448905944824
216,193.0,-4.0,32.0,0.0,-1301.0,8336.0,10335.0,9509.0,9.0,32.0,-6.0,-1.0,-7.0,-7.0,-4.0,-2.0,0.9158239364624023
217,193.0,-4.0,32.0,0.0,-1301.0,8336.0,10335.0,9509.0,-11.0,-35.0,-23.0,-1.0,0.0,-4.0,-8.0,-4.0,0.9197807312011719
218,290.0,-42.0,11.0,0.0,-1323.0,8339.0,10368.0,9467.0,-11.0,-35.0,-23.0,-1.0,0.0,-4.0,-8.0,-4.0,0.9299964904785156
219,290.0,-42.0,11.0,0.0,-1323.0,8339.0,10368.0,9467.0,3.0,11.0,13.0,0.0,-2.0,5.0,1.0,-2.0,0.9321630001068115
220,290.0,-42.0,11.0,0.0,-1323.0,8339.0,10368.0,9467.0,-1.0,-8.0,7.0,4.0,-1.0,-3.0,5.0,3.0,0.9339327812194824
221,284.0,-120.0,36.0,0.0,-1328.0,8348.0,10403.0,9419.0,-1.0,-8.0,7.0,4.0,-1.0,-3.0,5.0,3.0,0.95432448387146
222,284.0,-120.0,36.0,0.0,-1328.0,8348.0,10403.0,9419.0,2.0,21.0,3.0,-4.0,-4.0,0.0,-2.0,-1.0,0.9564588069915771
223,284.0,-120.0,36.0,0.0,-1328.0,8348.0,10403.0,9419.0,-5.0,5.0,16.0,-1.0,-2.0,-2.0,4.0,-3.0,0.9582188129425049
224,187.0,-163.0,13.0,0.0,-1316.0,8362.0,10433.0,9376.0,-5.0,5.0,16.0,-1.0,-2.0,-2.0,4.0,-3.0,0.9673824310302734
225,187.0,-163.0,13.0,0.0,-1316.0,8362.0,10433.0,9376.0,-6.0,-42.0,-38.0,-3.0,6.0,6.0,16.0,0.0,0.9697813987731934
226,187.0,-163.0,13.0,0.0,-1316.0,8362.0,10433.0,9376.0,2.0,14.0,0.0,-2.0,-4.0,-6.0,-7.0,-4.0,0.9717342853546143
227,184.0,-149.0,-3.0,0.0,-1308.0,8374.0,10461.0,9335.0,2.0,14.0,0.0,-2.0,-4.0,-6.0,-7.0,-4.0,0.9895608425140381
228,184.0,-149.0,-3.0,0.0,-1308.0,8374.0,10461.0,9335.0,-18.0,-23.0,24.0,-3.0,-8.0,-6.0,-6.0,-7.0,0.9914352893829346
229,184.0,-149.0,-3.0,0.0,-1308.0,8374.0,10461.0,9335.0,5.0,1.0,-1.0,0.0,3.0,2.0,8.0,0.0,0.9931948184967041
230,296.0,-119.0,-40.0,0.0,-1312.0,8375.0,10501.0,9288.0,5.0,1.0,-1.0,0.0,3.0,2.0,8.0,0.0,1.0129477977752686
231,296.0,-119.0,-40.0,0.0,-1312.0,8375.0,10501.0,9288.0,-1.0,-12.0,-1.0,2.0,1.0,0.0,-3.0,-3.0,1.0160093307495117
232,296.0,-119.0,-40.0,0.0,-1312.0,8375.0,10501.0,9288.0,1.0,4.0,2.0,0.0,-1.0,-3.0,-8.0,-1.0,1.0201056003570557
233,358.0,-94.0,-96.0,0.0,-1311.0,8362.0,10554.0,9240.0,1.0,4.0,2.0,0.0,-1.0,-3.0,-8.0,-1.0,1.026902675628662
234,358.0,-94.0,-96.0,0.0,-1311.0,8362.0,10554.0,9240.0,13.0,13.0,10.0,1.0,0.0,3.0,-4.0,6.0,1.0287463665008545
235,358.0,-94.0,-96.0,0.0,-1311.0,8362.0,10554.0,9240.0,13.0,10.0,-34.0,-4.0,-5.0,-2.0,-11.0,2.0,1.0334434509277344
236,271.0,-95.0,-40.0,0.0,-1305.0,8352.0,10590.0,9209.0,13.0,10.0,-34.0,-4.0,-5.0,-2.0,-11.0,2.0,1.0503506660461426
237,271.0,-95.0,-40.0,0.0,-1305.0,8352.0,10590.0,9209.0,7.0,17.0,-1.0,1.0,0.0,-2.0,-5.0,-2.0,1.0545110702514648
238,271.0,-95.0,-40.0,0.0,-1305.0,8352.0,10590.0,9209.0,-3.0,-4.0,12.0,-2.0,1.0,-3.0,-11.0,-2.0,1.056431531906128
239,191.0,-139.0,-20.0,0.0,-1292.0,8354.0,10618.0,9177.0,-3.0,-4.0,12.0,-2.0,1.0,-3.0,-11.0,-2.0,1.0720710754394531
240,191.0,-139.0,-20.0,0.0,-1292.0,8354.0,10618.0,9177.0,3.0,3.0,-9.0,4.0,5.0,3.0,-3.0,0.0,1.0739202499389648
241,191.0,-139.0,-20.0,0.0,-1292.0,8354.0,10618.0,9177.0,0.0,6.0,-2.0,3.0,0.0,0.0,-3.0,4.0,1.075693130493164
242,142.0,-57.0,17.0,0.0,-1288.0,8353.0,10637.0,9155.0,0.0,6.0,-2.0,3.0,0.0,0.0,-3.0,4.0,1.087245225906372
243,142.0,-57.0,17.0,0.0,-1288.0,8353.0,10637.0,9155.0,-3.0,-9.0,5.0,1.0,-2.0,-3.0,-2.0,-1.0,1.0941708087921143
244,142.0,-57.0,17.0,0.0,-1288.0,8353.0,10637.0,9155.0,1.0,-1.0,3.0,-1.0,-2.0,0.0,-3.0,-2.0,1.0959627628326416
245,135.0,-44.0,2.0,0.0,-1283.0,8348.0,10656.0,9140.0,1.0,-1.0,3.0,-1.0,-2.0,0.0,-3.0,-2.0,1.1096267700195312
246,135.0,-44.0,2.0,0.0,-1283.0,8348.0,10656.0,9140.0,-1.0,-6.0,-12.0,-8.0,1.0,-3.0,-10.0,-2.0,1.1114928722381592
247,135.0,-44.0,2.0,0.0,-1283.0,8348.0,10656.0,9140.0,-1.0,-6.0,-12.0,-8.0,1.0,-3.0,-10.0,-2.0,1.1132493019104004
248,135.0,-44.0,2.0,0.0,-1283.0,8348.0,10656.0,9140.0,2.0,2.0,19.0,-10.0,-3.0,-2.0,0.0,-1.0,1.1328649520874023
249,44.0,-25.0,-15.0,0.0,-1273.0,8339.0,10663.0,9140.0,2.0,2.0,19.0,-10.0,-3.0,-2.0,0.0,-1.0,1.1358163356781006
250,44.0,-25.0,-15.0,0.0,-1273.0,8339.0,10663.0,9140.0,1.0,4.0,1.0,1.0,-2.0,-4.0,-4.0,-2.0,1.138597011566162
251,44.0,-25.0,-15.0,0.0,-1273.0,8339.0,10663.0,9140.0,-7.0,-7.0,-2.0,9.0,2.0,6.0,1.0,-4.0,1.140376091003418
252,-66.0,-17.0,-31.0,0.0,-1256.0,8330.0,10657.0,9157.0,-7.0,-7.0,-2.0,9.0,2.0,6.0,1.0,-4.0,1.145918846130371
253,-66.0,-17.0,-31.0,0.0,-1256.0,8330.0,10657.0,9157.0,-1.0,-1.0,10.0,5.0,-2.0,-2.0,-1.0,4.0,1.1544146537780762
254,-66.0,-17.0,-31.0,0.0,-1256.0,8330.0,10657.0,9157.0,0.0,-4.0,-19.0,-9.0,7.0,6.0,-3.0,3.0,1.156233787536621
255,-282.0,-11.0,-11.0,0.0,-1215.0,8329.0,10638.0,9187.0,0.0,-4.0,-19.0,-9.0,7.0,6.0,-3.0,3.0,1.1711061000823975
256,-282.0,-11.0,-11.0,0.0,-1215.0,8329.0,10638.0,9187.0,1.0,0.0,31.0,-10.0,-4.0,2.0,5.0,2.0,1.1729958057403564
257,-282.0,-11.0,-11.0,0.0,-1215.0,8329.0,10638.0,9187.0,0.0,1.0,-10.0,8.0,7.0,-9.0,5.0,4.0,1.1747674942016602
258,-356.0,-112.0,9.0,0.0,-1173.0,8348.0,10603.0,9216.0,0.0,1.0,-10.0,8.0,7.0,-9.0,5.0,4.0,1.1938457489013672
259,-356.0,-112.0,9.0,0.0,-1173.0,8348.0,10603.0,9216.0,-1.0,-7.0,-10.0,4.0,-1.0,7.0,5.0,-2.0,1.197009563446045
260,-356.0,-112.0,9.0,0.0,-1173.0,8348.0,10603.0,9216.0,-1.0,-1.0,29.0,-8.0,10.0,-6.0,-18.0,-4.0,1.199951171875
261,-345.0,-230.0,-146.0,0.0,-1113.0,8365.0,10578.0,9237.0,-1.0,-1.0,29.0,-8.0,10.0,-6.0,-18.0,-4.0,1.2057054042816162
262,-345.0,-230.0,-146.0,0.0,-1113.0,8365.0,10578.0,9237.0,3.0,7.0,7.0,26.0,-13.0,-17.0,-10.0,-1.0,1.2144715785980225
263,-345.0,-230.0,-146.0,0.0,-1113.0,8365.0,10578.0,9237.0,-2.0,-1.0,-42.0,16.0,-5.0,2.0,1.0,-4.0,1.2163066864013672
264,-176.0,-406.0,-246.0,0.0,-1038.0,8384.0,10580.0,9225.0,-2.0,-1.0,-42.0,16.0,-5.0,2.0,1.0,-4.0,1.2299647331237793
265,-176.0,-406.0,-246.0,0.0,-1038.0,8384.0,10580.0,9225.0,-2.0,-7.0,-13.0,5.0,16.0,18.0,7.0,1.0,1.233062505722046
266,-176.0,-406.0,-246.0,0.0,-1038.0,8384.0,10580.0,9225.0,-3.0,2.0,45.0,-14.0,-3.0,1.0,3.0,-3.0,1.2375447750091553
267,-26.0,-486.0,-440.0,0.0,-948.0,8388.0,10616.0,9190.0,-3.0,2.0,45.0,-14.0,-3.0,1.0,3.0,-3.0,1.2539300918579102
268,-26.0,-486.0,-440.0,0.0,-948.0,8388.0,10616.0,9190.0,1.0,3.0,-13.0,-9.0,-10.0,-9.0,7.0,-2.0,1.258007287979126
269,-26.0,-486.0,-440.0,0.0,-948.0,8388.0,10616.0,9190.0,-3.0,-4.0,-23.0,-30.0,-12.0,-2.0,9.0,10.0,1.2618556022644043
270,371.0,-572.0,-474.0,0.0,-876.0,8387.0,10696.0,9104.0,-3.0,-4.0,-23.0,-30.0,-12.0,-2.0,9.0,10.0,1.2657780647277832
271,371.0,-572.0,-474.0,0.0,-876.0,8387.0,10696.0,9104.0,0.0,-11.0,1.0,13.0,3.0,-2.0,-1.0,-1.0,1.2743721008300781
272,371.0,-572.0,-474.0,0.0,-876.0,8387.0,10696.0,9104.0,0.0,-1.0,41.0,14.0,-8.0,-2.0,-4.0,-2.0,1.2762000560760498
273,852.0,-637.0,-482.0,0.0,-834.0,8383.0,10824.0,8959.0,0.0,-1.0,41.0,14.0,-8.0,-2.0,-4.0,-2.0,1.289801836013794
274,852.0,-637.0,-482.0,0.0,-834.0,8383.0,10824.0,8959.0,-1.0,9.0,2.0,-1.0,-1.0,6.0,2.0,2.0,1.2916858196258545
275,852.0,-637.0,-482.0,0.0,-834.0,8383.0,10824.0,8959.0,-6.0,-8.0,26.0,-7.0,-2.0,0.0,3.0,-9.0,1.2934644222259521
276,1158.0,-493.0,-527.0,0.0,-837.0,8357.0,10983.0,8789.0,-6.0,-8.0,26.0,-7.0,-2.0,0.0,3.0,-9.0,1.3123185634613037
277,1158.0,-493.0,-527.0,0.0,-837.0,8357.0,10983.0,8789.0,1.0,-5.0,11.0,-4.0,-4.0,-6.0,-4.0,1.0,1.3153183460235596
278,1158.0,-493.0,-527.0,0.0,-837.0,8357.0,10983.0,8789.0,9.0,-21.0,-37.0,24.0,2.0,-4.0,-1.0,5.0,1.3181633949279785
279,1477.0,-536.0,-663.0,0.0,-829.0,8303.0,11190.0,8577.0,9.0,-21.0,-37.0,24.0,2.0,-4.0,-1.0,5.0,1.3258297443389893
280,1477.0,-536.0,-663.0,0.0,-829.0,8303.0,11190.0,8577.0,1.0,4.0,-10.0,-47.0,-10.0,-7.0,-11.0,-13.0,1.3351986408233643
281,1477.0,-536.0,-663.0,0.0,-829.0,8303.0,11190.0,8577.0,-12.0,-13.0,-8.0,13.0,1.0,-2.0,2.0,-6.0,1.338301420211792
282,1269.0,-386.0,-639.0,0.0,-826.0,8246.0,11375.0,8387.0,-12.0,-13.0,-8.0,13.0,1.0,-2.0,2.0,-6.0,1.350851058959961
283,1269.0,-386.0,-639.0,0.0,-826.0,8246.0,11375.0,8387.0,0.0,6.0,-1.0,-10.0,3.0,4.0,4.0,0.0,1.3549494743347168
284,1269.0,-386.0,-639.0,0.0,-826.0,8246.0,11375.0,8387.0,30.0,40.0,-60.0,-24.0,1.0,1.0,11.0,12.0,1.357905387878418
285,1132.0,-390.0,-382.0,0.0,-816.0,8213.0,11528.0,8209.0,30.0,40.0,-60.0,-24.0,1.0,1.0,11.0,12.0,1.3731045722961426
286,1132.0,-390.0,-382.0,0.0,-816.0,8213.0,11528.0,8209.0,-4.0,-23.0,2.0,31.0,3.0,2.0,1.0,1.0,1.3768324851989746
287,1132.0,-390.0,-382.0,0.0,-816.0,8213.0,11528.0,8209.0,-8.0,-8.0,9.0,13.0,4.0,-6.0,0.0,3.0,1.3811991214752197
288,219.0,-252.0,-176.0,0.0,-757.0,8193.0,11573.0,8172.0,-8.0,-8.0,9.0,13.0,4.0,-6.0,0.0,3.0,1.3872096538543701
289,219.0,-252.0,-176.0,0.0,-757.0,8193.0,11573.0,8172.0,-7.0,-16.0,-14.0,10.0,21.0,-6.0,-14.0,-6.0,1.394146203994751
290,219.0,-252.0,-176.0,0.0,-757.0,8193.0,11573.0,8172.0,-6.0,3.0,2.0,-25.0,-10.0,3.0,5.0,-3.0,1.3959527015686035
291,-211.0,-317.0,-126.0,0.0,-677.0,8207.0,11577.0,8160.0,-6.0,3.0,2.0,-25.0,-10.0,3.0,5.0,-3.0,1.4117224216461182
292,-211.0,-317.0,-126.0,0.0,-677.0,8207.0,11577.0,8160.0,2.0,18.0,-42.0,-29.0,-53.0,-15.0,-15.0,-2.0,1.4149925708770752
293,-211.0,-317.0,-126.0,0.0,-677.0,8207.0,11577.0,8160.0,-17.0,-28.0,44.0,10.0,34.0,0.0,2.0,-2.0,1.4171853065490723
294,-430.0,-315.0,54.0,0.0,-599.0,8243.0,11538.0,8184.0,-17.0,-28.0,44.0,10.0,34.0,0.0,2.0,-2.0,1.4335315227508545
295,-430.0,-315.0,54.0,0.0,-599.0,8243.0,11538.0,8184.0,-19.0,-11.0,31.0,-6.0,-22.0,-20.0,-5.0,-4.0,1.436821699142456
296,-430.0,-315.0,54.0,0.0,-599.0,8243.0,11538.0,8184.0,7.0,20.0,50.0,36.0,56.0,31.0,8.0,3.0,1.4412574768066406
297,-592.0,-157.0,93.0,0.0,-552.0,8285.0,11476.0,8231.0,7.0,20.0,50.0,36.0,56.0,31.0,8.0,3.0,1.4460816383361816
298,-592.0,-157.0,93.0,0.0,-552.0,8285.0,11476.0,8231.0,8.0,2.0,17.0,32.0,36.0,11.0,0.0,6.0,1.4545886516571045
299,-592.0,-157.0,93.0,0.0,-552.0,8285.0,11476.0,8231.0,-5.0,8.0,17.0,15.0,-4.0,-1.0,-7.0,-2.0,1.456390142440796
300,-777.0,72.0,311.0,0.0,-515.0,8326.0,11386.0,8317.0,-5.0,8.0,17.0,15.0,-4.0,-1.0,-7.0,-2.0,1.4706883430480957
301,-777.0,72.0,311.0,0.0,-515.0,8326.0,11386.0,8317.0,3.0,2.0,-23.0,-5.0,1.0,9.0,15.0,5.0,1.4731776714324951
302,-777.0,72.0,311.0,0.0,-515.0,8326.0,11386.0,8317.0,1.0,7.0,-33.0,-1.0,11.0,8.0,4.0,-5.0,1.4750292301177979
303,-760.0,36.0,224.0,0.0,-452.0,8345.0,11302.0,8416.0,1.0,7.0,-33.0,-1.0,11.0,8.0,4.0,-5.0,1.4934005737304688
304,-760.0,36.0,224.0,0.0,-452.0,8345.0,11302.0,8416.0,-11.0,-33.0,-31.0,-28.0,-27.0,-15.0,-2.0,2.0,1.496506690979004
305,-760.0,36.0,224.0,0.0,-452.0,8345.0,11302.0,8416.0,10.0,50.0,-59.0,-32.0,-26.0,-15.0,-20.0,-3.0,1.4999053478240967
306,-208.0,147.0,-227.0,0.0,-432.0,8305.0,11302.0,8457.0,10.0,50.0,-59.0,-32.0,-26.0,-15.0,-20.0,-3.0,1.507519245147705
307,-208.0,147.0,-227.0,0.0,-432.0,8305.0,11302.0,8457.0,4.0,35.0,29.0,-16.0,12.0,-3.0,-5.0,-1.0,1.5142266750335693
308,-208.0,147.0,-227.0,0.0,-432.0,8305.0,11302.0,8457.0,0.0,24.0,78.0,2.0,-18.0,-3.0,-5.0,-3.0,1.5162067413330078
309,276.0,127.0,-141.0,0.0,-442.0,8267.0,11348.0,8432.0,0.0,24.0,78.0,2.0,-18.0,-3.0,-5.0,-3.0,1.5299427509307861
310,276.0,127.0,-141.0,0.0,-442.0,8267.0,11348.0,8432.0,13.0,22.0,-42.0,-3.0,-2.0,3.0,11.0,7.0,1.5326738357543945
311,276.0,127.0,-141.0,0.0,-442.0,8267.0,11348.0,8432.0,0.0,-35.0,-20.0,-4.0,-9.0,-4.0,5.0,-1.0,1.5357997417449951
312,138.0,112.0,-94.0,0.0,-422.0,8217.0,11370.0,8451.0,0.0,-35.0,-20.0,-4.0,-9.0,-4.0,5.0,-1.0,1.5524520874023438
313,138.0,112.0,-94.0,0.0,-422.0,8217.0,11370.0,8451.0,-1.0,6.0,30.0,-10.0,-55.0,-17.0,-18.0,-5.0,1.5555121898651123
314,138.0,112.0,-94.0,0.0,-422.0,8217.0,11370.0,8451.0,-7.0,-3.0,18.0,5.0,-12.0,-11.0,-19.0,-1.0,1.5584359169006348
315,-57.0,160.0,-431.0,0.0,-375.0,8123.0,11391.0,8517.0,-7.0,-3.0,18.0,5.0,-12.0,-11.0,-19.0,-1.0,1.5663793087005615
316,-57.0,160.0,-431.0,0.0,-375.0,8123.0,11391.0,8517.0,-17.0,-48.0,-13.0,9.0,72.0,29.0,20.0,0.0,1.574357032775879
317,-57.0,160.0,-431.0,0.0,-375.0,8123.0,11391.0,8517.0,-17.0,-35.0,0.0,-2.0,-17.0,-12.0,-25.0,-10.0,1.5772087574005127
318,-99.0,197.0,-718.0,0.0,-289.0,7982.0,11436.0,8592.0,-17.0,-35.0,0.0,-2.0,-17.0,-12.0,-25.0,-10.0,1.590463399887085
319,-99.0,197.0,-718.0,0.0,-289.0,7982.0,11436.0,8592.0,17.0,71.0,18.0,16.0,-4.0,-7.0,4.0,0.0,1.594282865524292
320,-99.0,197.0,-718.0,0.0,-289.0,7982.0,11436.0,8592.0,-2.0,-27.0,-22.0,-11.0,-17.0,-9.0,-7.0,0.0,1.5981154441833496
321,-128.0,132.0,-1011.0,0.0,-144.0,7799.0,11508.0,8668.0,-2.0,-27.0,-22.0,-11.0,-17.0,-9.0,-7.0,0.0,1.6124141216278076
322,-128.0,132.0,-1011.0,0.0,-144.0,7799.0,11508.0,8668.0,2.0,-35.0,-30.0,1.0,-2.0,19.0,1.0,1.0,1.61458420753479
323,-128.0,132.0,-1011.0,0.0,-144.0,7799.0,11508.0,8668.0,19.0,46.0,-46.0,-18.0,34.0,23.0,22.0,11.0,1.6163983345031738
324,-428.0,36.0,-1087.0,0.0,61.0,7600.0,11550.0,8788.0,19.0,46.0,-46.0,-18.0,34.0,23.0,22.0,11.0,1.6266682147979736
325,-428.0,36.0,-1087.0,0.0,61.0,7600.0,11550.0,8788.0,3.0,27.0,24.0,-5.0,3.0,3.0,1.0,1.0,1.634840488433838
326,-428.0,36.0,-1087.0,0.0,61.0,7600.0,11550.0,8788.0,-16.0,-42.0,36.0,17.0,-23.0,-3.0,12.0,0.0,1.6373655796051025
327,-867.0,100.0,-1252.0,0.0,319.0,7366.0,11561.0,8967.0,-16.0,-42.0,36.0,17.0,-23.0,-3.0,12.0,0.0,1.6485893726348877
328,-867.0,100.0,-1252.0,0.0,319.0,7366.0,11561.0,8967.0,-1.0,-37.0,28.0,37.0,34.0,0.0,-18.0,-6.0,1.6581590175628662
329,-867.0,100.0,-1252.0,0.0,319.0,7366.0,11561.0,8967.0,8.0,44.0,-15.0,3.0,32.0,7.0,-8.0,6.0,1.6616344451904297
330,-1258.0,109.0,-1559.0,0.0,640.0,7090.0,11560.0,9171.0,8.0,44.0,-15.0,3.0,32.0,7.0,-8.0,6.0,1.6722850799560547
331,-1258.0,109.0,-1559.0,0.0,640.0,7090.0,11560.0,9171.0,-8.0,-22.0,-10.0,0.0,-25.0,-17.0,-1.0,1.0,1.6741461753845215
332,-1258.0,109.0,-1559.0,0.0,640.0,7090.0,11560.0,9171.0,-3.0,-23.0,32.0,43.0,5.0,-2.0,-7.0,-3.0,1.6759450435638428
333,-1624.0,140.0,-1895.0,0.0,954.0,6810.0,11540.0,9378.0,-3.0,-23.0,32.0,43.0,5.0,-2.0,-7.0,-3.0,1.6861145496368408
334,-1624.0,140.0,-1895.0,0.0,954.0,6810.0,11540.0,9378.0,-4.0,-24.0,-4.0,-12.0,7.0,9.0,9.0,2.0,1.694031000137329
335,-1624.0,140.0,-1895.0,0.0,954.0,6810.0,11540.0,9378.0,-1.0,32.0,30.0,-29.0,-13.0,-3.0,11.0,-2.0,1.6958272457122803
336,-1940.0,25.0,-2118.0,0.0,1325.0,6506.0,11491.0,9606.0,-1.0,32.0,30.0,-29.0,-13.0,-3.0,11.0,-2.0,1.7092864513397217
337,-1940.0,25.0,-2118.0,0.0,1325.0,6506.0,11491.0,9606.0,-2.0,2.0,13.0,14.0,18.0,0.0,-8.0,-3.0,1.7111585140228271
338,-1940.0,25.0,-2118.0,0.0,1325.0,6506.0,11491.0,9606.0,1.0,-14.0,-10.0,-35.0,-80.0,-29.0,-6.0,-6.0,1.7164037227630615
339,-2434.0,176.0,-2185.0,0.0,1710.0,6168.0,11384.0,9891.0,1.0,-14.0,-10.0,-35.0,-80.0,-29.0,-6.0,-6.0,1.7332649230957031
340,-2434.0,176.0,-2185.0,0.0,1710.0,6168.0,11384.0,9891.0,-12.0,2.0,-21.0,-33.0,-6.0,4.0,6.0,-7.0,1.7379875183105469
341,-2434.0,176.0,-2185.0,0.0,1710.0,6168.0,11384.0,9891.0,2.0,-8.0,-6.0,-32.0,-2.0,1.0,-4.0,-2.0,1.7414255142211914
342,-2866.0,338.0,-2457.0,0.0,2126.0,5767.0,11237.0,10215.0,2.0,-8.0,-6.0,-32.0,-2.0,1.0,-4.0,-2.0,1.7466728687286377
343,-2866.0,338.0,-2457.0,0.0,2126.0,5767.0,11237.0,10215.0,-6.0,-13.0,23.0,1.0,-23.0,-9.0,-6.0,4.0,1.7544777393341064
344,-2866.0,338.0,-2457.0,0.0,2126.0,5767.0,11237.0,10215.0,2.0,3.0,-18.0,29.0,4.0,1.0,-8.0,-2.0,1.7564730644226074
345,-3022.0,256.0,-2687.0,0.0,2582.0,5333.0,11069.0,10524.0,2.0,3.0,-18.0,29.0,4.0,1.0,-8.0,-2.0,1.7699520587921143
346,-3022.0,256.0,-2687.0,0.0,2582.0,5333.0,11069.0,10524.0,25.0,74.0,1.0,16.0,19.0,12.0,9.0,5.0,1.7718827724456787
347,-3022.0,256.0,-2687.0,0.0,2582.0,5333.0,11069.0,10524.0,-6.0,-25.0,-22.0,15.0,-3.0,-4.0,10.0,2.0,1.7761626243591309
348,-3192.0,189.0,-2990.0,0.0,3078.0,4863.0,10873.0,10820.0,-6.0,-25.0,-22.0,15.0,-3.0,-4.0,10.0,2.0,1.7932562828063965
349,-3192.0,189.0,-2990.0,0.0,3078.0,4863.0,10873.0,10820.0,10.0,-3.0,-23.0,17.0,-15.0,-4.0,7.0,2.0,1.796773910522461
350,-3192.0,189.0,-2990.0,0.0,3078.0,4863.0,10873.0,10820.0,11.0,-12.0,-48.0,-8.0,-1.0,0.0,4.0,0.0,1.8000679016113281
351,-3609.0,531.0,-2989.0,0.0,3539.0,4334.0,10619.0,11150.0,11.0,-12.0,-48.0,-8.0,-1.0,0.0,4.0,0.0,1.8068397045135498
352,-3609.0,531.0,-2989.0,0.0,3539.0,4334.0,10619.0,11150.0,4.0,-8.0,-4.0,-27.0,14.0,3.0,-5.0,2.0,1.814159631729126
353,-3609.0,531.0,-2989.0,0.0,3539.0,4334.0,10619.0,11150.0,2.0,11.0,-1.0,-9.0,21.0,5.0,-3.0,2.0,1.815960168838501
354,-3729.0,719.0,-3223.0,0.0,3999.0,3746.0,10341.0,11466.0,2.0,11.0,-1.0,-9.0,21.0,5.0,-3.0,2.0,1.829336166381836
355,-3729.0,719.0,-3223.0,0.0,3999.0,3746.0,10341.0,11466.0,-9.0,-34.0,-1.0,-30.0,-10.0,-7.0,-2.0,-3.0,1.8322014808654785
356,-3729.0,719.0,-3223.0,0.0,3999.0,3746.0,10341.0,11466.0,-5.0,-15.0,-19.0,10.0,4.0,-2.0,-6.0,-1.0,1.836848497390747
357,-3444.0,870.0,-3422.0,0.0,4437.0,3125.0,10091.0,11710.0,-5.0,-15.0,-19.0,10.0,4.0,-2.0,-6.0,-1.0,1.8548729419708252
358,-3444.0,870.0,-3422.0,0.0,4437.0,3125.0,10091.0,11710.0,-3.0,16.0,-8.0,12.0,-4.0,-4.0,-9.0,-3.0,1.8586974143981934
359,-3444.0,870.0,-3422.0,0.0,4437.0,3125.0,10091.0,11710.0,-7.0,-13.0,-3.0,18.0,3.0,3.0,4.0,-3.0,1.8622839450836182
360,-3576.0,959.0,-3626.0,0.0,4880.0,2460.0,9816.0,11924.0,-7.0,-13.0,-3.0,18.0,3.0,3.0,4.0,-3.0,1.875394344329834
361,-3576.0,959.0,-3626.0,0.0,4880.0,2460.0,9816.0,11924.0,-7.0,-12.0,-18.0,10.0,0.0,1.0,-7.0,-6.0,1.8791978359222412
362,-3576.0,959.0,-3626.0,0.0,4880.0,2460.0,9816.0,11924.0,-2.0,-12.0,10.0,-3.0,1.0,3.0,0.0,1.0,1.8828239440917969
363,-3536.0,965.0,-3673.0,0.0,5312.0,1785.0,9515.0,12102.0,-2.0,-12.0,10.0,-3.0,1.0,3.0,0.0,1.0,1.8905508518218994
364,-3536.0,965.0,-3673.0,0.0,5312.0,1785.0,9515.0,12102.0,-9.0,5.0,1.0,9.0,3.0,0.0,7.0,1.0,1.8931457996368408
365,-3536.0,965.0,-3673.0,0.0,5312.0,1785.0,9515.0,12102.0,-6.0,-14.0,-15.0,7.0,-6.0,-2.0,-1.0,0.0,1.8949568271636963
366,-3474.0,1342.0,-3703.0,0.0,5691.0,1057.0,9210.0,12251.0,-6.0,-14.0,-15.0,7.0,-6.0,-2.0,-1.0,0.0,1.9132449626922607
367,-3474.0,1342.0,-3703.0,0.0,5691.0,1057.0,9210.0,12251.0,-7.0,-3.0,53.0,7.0,-6.0,-2.0,-1.0,-4.0,1.916778564453125
368,-3474.0,1342.0,-3703.0,0.0,5691.0,1057.0,9210.0,12251.0,4.0,4.0,-13.0,-4.0,7.0,2.0,3.0,0.0,1.9209439754486084
369,-3014.0,1573.0,-3899.0,0.0,6059.0,298.0,8946.0,12311.0,4.0,4.0,-13.0,-4.0,7.0,2.0,3.0,0.0,1.938063144683838
370,-3014.0,1573.0,-3899.0,0.0,6059.0,298.0,8946.0,12311.0,-6.0,-17.0,-18.0,-6.0,1.0,-5.0,-4.0,-1.0,1.9422354698181152
371,-3014.0,1573.0,-3899.0,0.0,6059.0,298.0,8946.0,12311.0,0.0,0.0,16.0,-17.0,-1.0,1.0,1.0,-1.0,1.9461338520050049
372,-2628.0,1602.0,-3860.0,0.0,6401.0,-440.0,8714.0,12301.0,0.0,0.0,16.0,-17.0,-1.0,1.0,1.0,-1.0,1.9491627216339111
373,-2628.0,1602.0,-3860.0,0.0,6401.0,-440.0,8714.0,12301.0,1.0,0.0,5.0,-16.0,-1.0,-1.0,2.0,0.0,1.9513835906982422
374,-2628.0,1602.0,-3860.0,0.0,6401.0,-440.0,8714.0,12301.0,22.0,64.0,8.0,-6.0,0.0,-1.0,-1.0,3.0,1.9559216499328613
375,-2500.0,1472.0,-3854.0,0.0,6735.0,-1148.0,8472.0,12246.0,22.0,64.0,8.0,-6.0,0.0,-1.0,-1.0,3.0,1.9725227355957031
376,-2500.0,1472.0,-3854.0,0.0,6735.0,-1148.0,8472.0,12246.0,3.0,3.0,-3.0,-2.0,5.0,6.0,10.0,5.0,1.9744017124176025
377,-2500.0,1472.0,-3854.0,0.0,6735.0,-1148.0,8472.0,12246.0,-10.0,-5.0,-9.0,-1.0,-3.0,0.0,-1.0,-6.0,1.9761722087860107
378,-2779.0,1372.0,-4032.0,0.0,7080.0,-1879.0,8162.0,12171.0,-10.0,-5.0,-9.0,-1.0,-3.0,0.0,-1.0,-6.0,1.9956331253051758
379,-2779.0,1372.0,-4032.0,0.0,7080.0,-1879.0,8162.0,12171.0,11.0,57.0,4.0,0.0,1.0,0.0,-8.0,-2.0,1.9993467330932617
380,-2779.0,1372.0,-4032.0,0.0,7080.0,-1879.0,8162.0,12171.0,-3.0,3.0,24.0,0.0,-3.0,-2.0,2.0,0.0,2.0018675327301025
381,-2886.0,1343.0,-3946.0,0.0,7397.0,-2605.0,7807.0,12081.0,-3.0,3.0,24.0,0.0,-3.0,-2.0,2.0,0.0,2.0093374252319336
382,-2886.0,1343.0,-3946.0,0.0,7397.0,-2605.0,7807.0,12081.0,0.0,-22.0,1.0,18.0,3.0,0.0,-1.0,0.0,2.0111823081970215
383,-2886.0,1343.0,-3946.0,0.0,7397.0,-2605.0,7807.0,12081.0,-4.0,-22.0,-22.0,-1.0,0.0,0.0,-5.0,-2.0,2.016191005706787
384,-2704.0,1260.0,-3919.0,0.0,7711.0,-3308.0,7441.0,11944.0,-4.0,-22.0,-22.0,-1.0,0.0,0.0,-5.0,-2.0,2.0333046913146973
385,-2704.0,1260.0,-3919.0,0.0,7711.0,-3308.0,7441.0,11944.0,-4.0,-13.0,-9.0,-4.0,0.0,1.0,-3.0,0.0,2.037295341491699
386,-2704.0,1260.0,-3919.0,0.0,7711.0,-3308.0,7441.0,11944.0,0.0,1.0,16.0,5.0,-4.0,0.0,11.0,4.0,2.039285659790039
387,-2276.0,1114.0,-3864.0,0.0,8028.0,-3947.0,7093.0,11750.0,0.0,1.0,16.0,5.0,-4.0,0.0,11.0,4.0,2.0546844005584717
388,-2276.0,1114.0,-3864.0,0.0,8028.0,-3947.0,7093.0,11750.0,2.0,10.0,10.0,-2.0,-1.0,1.0,-20.0,-5.0,2.058526039123535
389,-2276.0,1114.0,-3864.0,0.0,8028.0,-3947.0,7093.0,11750.0,0.0,50.0,-4.0,-7.0,-3.0,-1.0,-3.0,-2.0,2.061924457550049
390,-1989.0,1031.0,-3960.0,0.0,8360.0,-4556.0,6751.0,11498.0,0.0,50.0,-4.0,-7.0,-3.0,-1.0,-3.0,-2.0,2.069842576980591
391,-1989.0,1031.0,-3960.0,0.0,8360.0,-4556.0,6751.0,11498.0,-6.0,5.0,29.0,-3.0,-3.0,-4.0,7.0,1.0,2.076972723007202
392,-1989.0,1031.0,-3960.0,0.0,8360.0,-4556.0,6751.0,11498.0,9.0,26.0,26.0,1.0,-6.0,-5.0,-12.0,-2.0,2.078826427459717
393,-1796.0,894.0,-3924.0,0.0,8688.0,-5123.0,6404.0,11210.0,9.0,26.0,26.0,1.0,-6.0,-5.0,-12.0,-2.0,2.092956304550171
394,-1796.0,894.0,-3924.0,0.0,8688.0,-5123.0,6404.0,11210.0,6.0,6.0,-5.0,-5.0,-2.0,-3.0,-5.0,2.0,2.0960302352905273
395,-1796.0,894.0,-3924.0,0.0,8688.0,-5123.0,6404.0,11210.0,-5.0,-2.0,14.0,-1.0,0.0,-1.0,6.0,-4.0,2.0989787578582764
396,-1532.0,560.0,-3885.0,0.0,9032.0,-5615.0,6043.0,10899.0,-5.0,-2.0,14.0,-1.0,0.0,-1.0,6.0,-4.0,2.116604804992676
397,-1532.0,560.0,-3885.0,0.0,9032.0,-5615.0,6043.0,10899.0,-3.0,-17.0,-10.0,-2.0,-1.0,3.0,16.0,0.0,2.1209232807159424
398,-1532.0,560.0,-3885.0,0.0,9032.0,-5615.0,6043.0,10899.0,-7.0,10.0,17.0,1.0,-3.0,-13.0,-36.0,-10.0,2.124485731124878
399,-1507.0,198.0,-3737.0,0.0,9367.0,-6045.0,5640.0,10598.0,-7.0,10.0,17.0,1.0,-3.0,-13.0,-36.0,-10.0,2.128636360168457
400,-1507.0,198.0,-3737.0,0.0,9367.0,-6045.0,5640.0,10598.0,-8.0,-15.0,-19.0,-7.0,-9.0,-14.0,-17.0,-9.0,2.13759708404541
401,-1507.0,198.0,-3737.0,0.0,9367.0,-6045.0,5640.0,10598.0,-7.0,-49.0,-2.0,4.0,1.0,3.0,15.0,3.0,2.139434576034546
402,-1200.0,5.0,-3631.0,0.0,9704.0,-6408.0,5249.0,10278.0,-7.0,-49.0,-2.0,4.0,1.0,3.0,15.0,3.0,2.153825521469116
403,-1200.0,5.0,-3631.0,0.0,9704.0,-6408.0,5249.0,10278.0,2.0,-12.0,0.0,-3.0,1.0,10.0,20.0,2.0,2.1557397842407227
404,-1200.0,5.0,-3631.0,0.0,9704.0,-6408.0,5249.0,10278.0,0.0,-26.0,-51.0,8.0,29.0,24.0,33.0,5.0,2.157528877258301
405,-1360.0,103.0,-3209.0,0.0,9963.0,-6770.0,4862.0,9984.0,0.0,-26.0,-51.0,8.0,29.0,24.0,33.0,5.0,2.175978183746338
406,-1360.0,103.0,-3209.0,0.0,9963.0,-6770.0,4862.0,9984.0,5.0,-8.0,-19.0,-11.0,8.0,-8.0,-14.0,-1.0,2.1806585788726807
407,-1360.0,103.0,-3209.0,0.0,9963.0,-6770.0,4862.0,9984.0,-2.0,-12.0,7.0,-4.0,13.0,17.0,15.0,11.0,2.1846208572387695
408,-1163.0,228.0,-2608.0,0.0,10154.0,-7097.0,4539.0,9714.0,-2.0,-12.0,7.0,-4.0,13.0,17.0,15.0,11.0,2.188507080078125
409,-1163.0,228.0,-2608.0,0.0,10154.0,-7097.0,4539.0,9714.0,-18.0,-47.0,20.0,-30.0,-37.0,-16.0,0.0,-15.0,2.1971466541290283
410,-1163.0,228.0,-2608.0,0.0,10154.0,-7097.0,4539.0,9714.0,7.0,3.0,-18.0,-20.0,7.0,24.0,38.0,22.0,2.1990468502044678
411,-960.0,484.0,-1736.0,0.0,10237.0,-7338.0,4356.0,9529.0,7.0,3.0,-18.0,-20.0,7.0,24.0,38.0,22.0,2.214467763900757
412,-960.0,484.0,-1736.0,0.0,10237.0,-7338.0,4356.0,9529.0,-14.0,-19.0,-35.0,-13.0,-22.0,-32.0,-74.0,-2.0,2.217756509780884
413,-960.0,484.0,-1736.0,0.0,10237.0,-7338.0,4356.0,9529.0,17.0,34.0,-6.0,35.0,94.0,65.0,27.0,14.0,2.221606731414795
414,-548.0,911.0,-773.0,0.0,10229.0,-7530.0,4338.0,9395.0,17.0,34.0,-6.0,35.0,94.0,65.0,27.0,14.0,2.2352521419525146
415,-548.0,911.0,-773.0,0.0,10229.0,-7530.0,4338.0,9395.0,-31.0,-20.0,45.0,-35.0,-92.0,-52.0,-49.0,-36.0,2.239093542098999
416,-548.0,911.0,-773.0,0.0,10229.0,-7530.0,4338.0,9395.0,1.0,37.0,1.0,7.0,-14.0,-34.0,0.0,-17.0,2.2430715560913086
417,-420.0,1172.0,88.0,0.0,10129.0,-7692.0,4433.0,9327.0,1.0,37.0,1.0,7.0,-14.0,-34.0,0.0,-17.0,2.249988079071045
418,-420.0,1172.0,88.0,0.0,10129.0,-7692.0,4433.0,9327.0,6.0,-4.0,42.0,23.0,-2.0,-15.0,46.0,12.0,2.2566895484924316
419,-420.0,1172.0,88.0,0.0,10129.0,-7692.0,4433.0,9327.0,-4.0,-20.0,10.0,-6.0,-13.0,-10.0,-12.0,-4.0,2.2584445476531982
420,-161.0,1090.0,1119.0,0.0,9947.0,-7766.0,4630.0,9366.0,-4.0,-20.0,10.0,-6.0,-13.0,-10.0,-12.0,-4.0,2.2727649211883545
421,-161.0,1090.0,1119.0,0.0,9947.0,-7766.0,4630.0,9366.0,43.0,95.0,25.0,15.0,46.0,33.0,42.0,23.0,2.275301456451416
422,-161.0,1090.0,1119.0,0.0,9947.0,-7766.0,4630.0,9366.0,-6.0,-20.0,-10.0,-14.0,-32.0,-28.0,-57.0,-2.0,2.2771103382110596
423,125.0,609.0,1983.0,0.0,9722.0,-7712.0,4876.0,9521.0,-6.0,-20.0,-10.0,-14.0,-32.0,-28.0,-57.0,-2.0,2.302466630935669
424,125.0,609.0,1983.0,0.0,9722.0,-7712.0,4876.0,9521.0,-7.0,-16.0,-31.0,19.0,34.0,9.0,-9.0,0.0,2.3051507472991943
425,125.0,609.0,1983.0,0.0,9722.0,-7712.0,4876.0,9521.0,-14.0,-19.0,-6.0,-12.0,-52.0,-25.0,-29.0,-31.0,2.307032823562622
426,262.0,-33.0,2394.0,0.0,9525.0,-7581.0,5046.0,9734.0,-14.0,-19.0,-6.0,-12.0,-52.0,-25.0,-29.0,-31.0,2.3089046478271484
427,262.0,-33.0,2394.0,0.0,9525.0,-7581.0,5046.0,9734.0,1.0,11.0,5.0,8.0,-1.0,19.0,17.0,5.0,2.316662311553955
428,262.0,-33.0,2394.0,0.0,9525.0,-7581.0,5046.0,9734.0,5.0,0.0,14.0,3.0,12.0,3.0,17.0,11.0,2.31994366645813
429,-256.0,-643.0,3249.0,0.0,9209.0,-7381.0,5184.0,10113.0,5.0,0.0,14.0,3.0,12.0,3.0,17.0,11.0,2.3326354026794434
430,-256.0,-643.0,3249.0,0.0,9209.0,-7381.0,5184.0,10113.0,1.0,3.0,-18.0,10.0,28.0,31.0,15.0,-5.0,2.3360583782196045
431,-256.0,-643.0,3249.0,0.0,9209.0,-7381.0,5184.0,10113.0,5.0,-1.0,1.0,0.0,0.0,-10.0,-7.0,-5.0,2.3384194374084473
432,-692.0,-1316.0,3788.0,0.0,8819.0,-7115.0,5245.0,10607.0,5.0,-1.0,1.0,0.0,0.0,-10.0,-7.0,-5.0,2.3557426929473877
433,-692.0,-1316.0,3788.0,0.0,8819.0,-7115.0,5245.0,10607.0,7.0,10.0,-14.0,5.0,16.0,4.0,10.0,-9.0,2.3588311672210693
434,-692.0,-1316.0,3788.0,0.0,8819.0,-7115.0,5245.0,10607.0,0.0,-5.0,-2.0,-7.0,-5.0,-38.0,15.0,19.0,2.361748218536377
435,-377.0,-1935.0,4372.0,0.0,8399.0,-6699.0,5322.0,11166.0,0.0,-5.0,-2.0,-7.0,-5.0,-38.0,15.0,19.0,2.370867967605591
436,-377.0,-1935.0,4372.0,0.0,8399.0,-6699.0,5322.0,11166.0,-1.0,-10.0,-21.0,1.0,14.0,3.0,-9.0,-7.0,2.3766274452209473
437,-377.0,-1935.0,4372.0,0.0,8399.0,-6699.0,5322.0,11166.0,0.0,-2.0,5.0,2.0,5.0,34.0,3.0,-3.0,2.378387212753296
438,560.0,-2483.0,4772.0,0.0,7999.0,-6077.0,5487.0,11721.0,0.0,-2.0,5.0,2.0,5.0,34.0,3.0,-3.0,2.392941951751709
439,560.0,-2483.0,4772.0,0.0,7999.0,-6077.0,5487.0,11721.0,10.0,11.0,2.0,-1.0,1.0,2.0,40.0,58.0,2.396536350250244
440,560.0,-2483.0,4772.0,0.0,7999.0,-6077.0,5487.0,11721.0,-4.0,0.0,4.0,1.0,-11.0,10.0,17.0,-2.0,2.4003121852874756
441,1661.0,-3020.0,5116.0,0.0,7617.0,-5228.0,5765.0,12240.0,-4.0,0.0,4.0,1.0,-11.0,10.0,17.0,-2.0,2.415752649307251
442,1661.0,-3020.0,5116.0,0.0,7617.0,-5228.0,5765.0,12240.0,1.0,1.0,-6.0,-1.0,14.0,-15.0,-72.0,-34.0,2.4188337326049805
443,1661.0,-3020.0,5116.0,0.0,7617.0,-5228.0,5765.0,12240.0,14.0,11.0,7.0,-4.0,2.0,48.0,-16.0,11.0,2.421767234802246
444,2401.0,-3329.0,5400.0,0.0,7210.0,-4211.0,6117.0,12700.0,14.0,11.0,7.0,-4.0,2.0,48.0,-16.0,11.0,2.4298858642578125
445,2401.0,-3329.0,5400.0,0.0,7210.0,-4211.0,6117.0,12700.0,-5.0,2.0,-6.0,0.0,-6.0,6.0,18.0,15.0,2.437317132949829
446,2401.0,-3329.0,5400.0,0.0,7210.0,-4211.0,6117.0,12700.0,2.0,-3.0,-14.0,-5.0,-27.0,-27.0,-7.0,-13.0,2.439126968383789
447,3300.0,-3217.0,5492.0,0.0,6795.0,-3130.0,6554.0,13019.0,2.0,-3.0,-14.0,-5.0,-27.0,-27.0,-7.0,-13.0,2.4523425102233887
448,3300.0,-3217.0,5492.0,0.0,6795.0,-3130.0,6554.0,13019.0,-15.0,-20.0,-11.0,2.0,-1.0,1.0,2.0,-9.0,2.4542031288146973
449,3300.0,-3217.0,5492.0,0.0,6795.0,-3130.0,6554.0,13019.0,-17.0,-9.0,-2.0,-5.0,-7.0,-8.0,26.0,-8.0,2.4561266899108887
450,3885.0,-2960.0,5329.0,0.0,6362.0,-2035.0,7046.0,13196.0,-17.0,-9.0,-2.0,-5.0,-7.0,-8.0,26.0,-8.0,2.474653959274292
451,3885.0,-2960.0,5329.0,0.0,6362.0,-2035.0,7046.0,13196.0,-5.0,-3.0,-14.0,2.0,-5.0,-5.0,0.0,11.0,2.477912425994873
452,3885.0,-2960.0,5329.0,0.0,6362.0,-2035.0,7046.0,13196.0,-16.0,-21.0,-3.0,6.0,5.0,-1.0,-20.0,-13.0,2.48124098777771
453,4250.0,-2502.0,5653.0,0.0,5815.0,-942.0,7584.0,13273.0,-16.0,-21.0,-3.0,6.0,5.0,-1.0,-20.0,-13.0,2.4896767139434814
454,4250.0,-2502.0,5653.0,0.0,5815.0,-942.0,7584.0,13273.0,9.0,-8.0,5.0,4.0,-10.0,-4.0,2.0,1.0,2.4967448711395264
455,4250.0,-2502.0,5653.0,0.0,5815.0,-942.0,7584.0,13273.0,-6.0,35.0,-13.0,11.0,14.0,7.0,14.0,8.0,2.4985315799713135
456,4258.0,-2140.0,5196.0,0.0,5268.0,68.0,8095.0,13233.0,-6.0,35.0,-13.0,11.0,14.0,7.0,14.0,8.0,2.5132391452789307
457,4258.0,-2140.0,5196.0,0.0,5268.0,68.0,8095.0,13233.0,31.0,33.0,6.0,-10.0,8.0,10.0,16.0,7.0,2.5167324542999268
458,4258.0,-2140.0,5196.0,0.0,5268.0,68.0,8095.0,13233.0,-22.0,-16.0,11.0,13.0,17.0,-37.0,-12.0,-10.0,2.5204923152923584
459,4336.0,-2072.0,4042.0,0.0,4853.0,971.0,8579.0,13051.0,-22.0,-16.0,11.0,13.0,17.0,-37.0,-12.0,-10.0,2.536397695541382
460,4336.0,-2072.0,4042.0,0.0,4853.0,971.0,8579.0,13051.0,-42.0,-16.0,-12.0,-20.0,-32.0,27.0,-13.0,-54.0,2.539997100830078
461,4336.0,-2072.0,4042.0,0.0,4853.0,971.0,8579.0,13051.0,49.0,90.0,24.0,25.0,36.0,31.0,30.0,20.0,2.543351650238037
462,5050.0,-1794.0,3078.0,0.0,4519.0,1778.0,9149.0,12693.0,49.0,90.0,24.0,25.0,36.0,31.0,30.0,20.0,2.5496578216552734
463,5050.0,-1794.0,3078.0,0.0,4519.0,1778.0,9149.0,12693.0,34.0,-31.0,-65.0,35.0,-5.0,-28.0,-59.0,-21.0,2.5567691326141357
464,5050.0,-1794.0,3078.0,0.0,4519.0,1778.0,9149.0,12693.0,-115.0,-114.0,34.0,-8.0,28.0,15.0,7.0,-7.0,2.558546781539917
465,5709.0,-1484.0,2608.0,0.0,4185.0,2519.0,9792.0,12193.0,-115.0,-114.0,34.0,-8.0,28.0,15.0,7.0,-7.0,2.5809123516082764
466,5709.0,-1484.0,2608.0,0.0,4185.0,2519.0,9792.0,12193.0,-1.0,-5.0,-71.0,15.0,-12.0,47.0,103.0,26.0,2.5862793922424316
467,5709.0,-1484.0,2608.0,0.0,4185.0,2519.0,9792.0,12193.0,-17.0,-34.0,-4.0,101.0,-10.0,-23.0,11.0,-10.0,2.5900349617004395
468,4977.0,-1332.0,2057.0,0.0,3909.0,3137.0,10318.0,11697.0,-17.0,-34.0,-4.0,101.0,-10.0,-23.0,11.0,-10.0,2.594900608062744
469,4977.0,-1332.0,2057.0,0.0,3909.0,3137.0,10318.0,11697.0,-64.0,-44.0,74.0,12.0,-59.0,-79.0,-71.0,-8.0,2.597008228302002
470,4977.0,-1332.0,2057.0,0.0,3909.0,3137.0,10318.0,11697.0,87.0,102.0,12.0,27.0,-18.0,2.0,49.0,65.0,2.5988569259643555
471,4226.0,-161.0,1492.0,0.0,3588.0,3502.0,10786.0,11266.0,87.0,102.0,12.0,27.0,-18.0,2.0,49.0,65.0,2.6085400581359863
472,4226.0,-161.0,1492.0,0.0,3588.0,3502.0,10786.0,11266.0,62.0,106.0,-38.0,-68.0,62.0,3.0,-77.0,-57.0,2.6171350479125977
473,4226.0,-161.0,1492.0,0.0,3588.0,3502.0,10786.0,11266.0,-25.0,-21.0,23.0,-80.0,28.0,-6.0,-46.0,-83.0,2.6202616691589355
474,3877.0,-550.0,1415.0,0.0,3333.0,3877.0,11165.0,10844.0,-25.0,-21.0,23.0,-80.0,28.0,-6.0,-46.0,-83.0,2.6324853897094727
475,3877.0,-550.0,1415.0,0.0,3333.0,3877.0,11165.0,10844.0,-60.0,-39.0,-12.0,-108.0,-57.0,-38.0,63.0,13.0,2.6343655586242676
476,3877.0,-550.0,1415.0,0.0,3333.0,3877.0,11165.0,10844.0,53.0,4.0,-53.0,2.0,-32.0,-19.0,-31.0,-4.0,2.63618803024292
477,2979.0,-70.0,1172.0,0.0,3079.0,4130.0,11443.0,10533.0,53.0,4.0,-53.0,2.0,-32.0,-19.0,-31.0,-4.0,2.6556854248046875
478,2979.0,-70.0,1172.0,0.0,3079.0,4130.0,11443.0,10533.0,-43.0,-54.0,65.0,-59.0,14.0,11.0,-18.0,-5.0,2.6588094234466553
479,2023.0,70.0,1649.0,0.0,2804.0,4378.0,11579.0,10359.0,-43.0,-54.0,65.0,-59.0,14.0,11.0,-18.0,-5.0,2.661783456802368
480,2023.0,70.0,1649.0,0.0,2804.0,4378.0,11579.0,10359.0,24.0,25.0,-9.0,-60.0,-21.0,-15.0,-19.0,3.0,2.668450117111206
481,2023.0,70.0,1649.0,0.0,2804.0,4378.0,11579.0,10359.0,-29.0,-40.0,19.0,71.0,20.0,15.0,33.0,33.0,2.6777331829071045
482,1227.0,19.0,1827.0,0.0,2536.0,4642.0,11623.0,10263.0,-29.0,-40.0,19.0,71.0,20.0,15.0,33.0,33.0,2.6809639930725098
483,1227.0,19.0,1827.0,0.0,2536.0,4642.0,11623.0,10263.0,-20.0,-88.0,-68.0,18.0,-13.0,-14.0,-23.0,0.0,2.6926605701446533
484,1227.0,19.0,1827.0,0.0,2536.0,4642.0,11623.0,10263.0,-1.0,18.0,-23.0,-28.0,-5.0,-55.0,-33.0,-64.0,2.695651054382324
485,1211.0,136.0,1703.0,0.0,2265.0,4876.0,11678.0,10155.0,-1.0,18.0,-23.0,-28.0,-5.0,-55.0,-33.0,-64.0,2.7000246047973633
486,1211.0,136.0,1703.0,0.0,2265.0,4876.0,11678.0,10155.0,6.0,-34.0,-38.0,52.0,93.0,37.0,70.0,98.0,2.70318603515625
487,1211.0,136.0,1703.0,0.0,2265.0,4876.0,11678.0,10155.0,11.0,8.0,28.0,-3.0,45.0,-7.0,6.0,11.0,2.715078592300415
488,1122.0,298.0,1253.0,0.0,2057.0,5003.0,11728.0,10079.0,11.0,8.0,28.0,-3.0,45.0,-7.0,6.0,11.0,2.7193751335144043
489,1122.0,298.0,1253.0,0.0,2057.0,5003.0,11728.0,10079.0,11.0,8.0,28.0,-3.0,45.0,-7.0,6.0,11.0,2.7228686809539795
490,1122.0,298.0,1253.0,0.0,2057.0,5003.0,11728.0,10079.0,12.0,-7.0,-33.0,-18.0,23.0,14.0,-23.0,-1.0,2.738456964492798
491,1122.0,298.0,1253.0,0.0,2057.0,5003.0,11728.0,10079.0,57.0,73.0,-23.0,78.0,-6.0,18.0,4.0,40.0,2.7408335208892822
492,754.0,179.0,965.0,0.0,1916.0,5099.0,11756.0,10027.0,57.0,73.0,-23.0,78.0,-6.0,18.0,4.0,40.0,2.742611885070801
493,754.0,179.0,965.0,0.0,1916.0,5099.0,11756.0,10027.0,-12.0,4.0,34.0,-11.0,-60.0,-22.0,-9.0,-27.0,2.744466781616211
494,754.0,179.0,965.0,0.0,1916.0,5099.0,11756.0,10027.0,-15.0,-38.0,-17.0,63.0,-13.0,21.0,23.0,5.0,2.7518677711486816
495,669.0,-17.0,952.0,0.0,1755.0,5254.0,11775.0,9954.0,-15.0,-38.0,-17.0,63.0,-13.0,21.0,23.0,5.0,2.767498254776001
496,669.0,-17.0,952.0,0.0,1755.0,5254.0,11775.0,9954.0,10.0,13.0,48.0,26.0,23.0,-25.0,-5.0,-10.0,2.7711901664733887
497,669.0,-17.0,952.0,0.0,1755.0,5254.0,11775.0,9954.0,11.0,7.0,21.0,-20.0,-26.0,-22.0,30.0,44.0,2.7746379375457764
498,749.0,321.0,847.0,0.0,1591.0,5339.0,11838.0,9861.0,11.0,7.0,21.0,-20.0,-26.0,-22.0,30.0,44.0,2.777764320373535
499,749.0,321.0,847.0,0.0,1591.0,5339.0,11838.0,9861.0,-12.0,-5.0,36.0,7.0,-10.0,5.0,2.0,-6.0,2.781118154525757
