,Gyro 0,Gyro 1,Gyro 2,Label,Orientation 0,Orientation 1,Orientation 2,Orientation 3,Sensor 0,Sensor 1,Sensor 2,Sensor 3,Sensor 4,Sensor 5,Sensor 6,Sensor 7,Timestamp
0,-39.0,-52.0,-16.0,0.0,-1183.0,8632.0,10792.0,8719.0,1.0,-5.0,-3.0,5.0,1.0,1.0,-5.0,0.0,1.6689300537109375e-06
1,-39.0,-52.0,-16.0,0.0,-1183.0,8632.0,10792.0,8719.0,5.0,28.0,-8.0,-3.0,-2.0,-4.0,-9.0,0.0,0.002155780792236328
2,-39.0,-52.0,-16.0,0.0,-1183.0,8632.0,10792.0,8719.0,-8.0,-10.0,5.0,6.0,2.0,1.0,-1.0,-3.0,0.004760026931762695
3,-39.0,-52.0,-16.0,0.0,-1183.0,8632.0,10792.0,8719.0,-5.0,-2.0,-5.0,-9.0,-15.0,-6.0,-5.0,-5.0,0.0075473785400390625
4,-37.0,-31.0,0.0,0.0,-1175.0,8636.0,10791.0,8718.0,-5.0,-2.0,-5.0,-9.0,-15.0,-6.0,-5.0,-5.0,0.010166645050048828
5,-37.0,-31.0,0.0,0.0,-1175.0,8636.0,10791.0,8718.0,-11.0,-3.0,0.0,-4.0,1.0,-3.0,0.0,-6.0,0.012057781219482422
6,-37.0,-31.0,0.0,0.0,-1175.0,8636.0,10791.0,8718.0,-8.0,-25.0,16.0,3.0,2.0,-1.0,0.0,-1.0,0.013858556747436523
7,-23.0,-20.0,-14.0,0.0,-1167.0,8636.0,10791.0,8718.0,-8.0,-25.0,16.0,3.0,2.0,-1.0,0.0,-1.0,0.015642166137695312
8,-23.0,-20.0,-14.0,0.0,-1167.0,8636.0,10791.0,8718.0,4.0,7.0,1.0,-3.0,-4.0,-4.0,-1.0,-1.0,0.017559051513671875
9,-23.0,-20.0,-14.0,0.0,-1167.0,8636.0,10791.0,8718.0,-7.0,-15.0,-5.0,-4.0,-3.0,0.0,-1.0,-1.0,0.02006840705871582
10,-14.0,-12.0,-8.0,0.0,-1168.0,8637.0,10792.0,8717.0,-7.0,-15.0,-5.0,-4.0,-3.0,0.0,-1.0,-1.0,0.023988008499145508
11,-14.0,-12.0,-8.0,0.0,-1168.0,8637.0,10792.0,8717.0,4.0,5.0,1.0,-1.0,0.0,-3.0,-5.0,3.0,0.026790857315063477
12,-14.0,-12.0,-8.0,0.0,-1168.0,8637.0,10792.0,8717.0,1.0,1.0,-3.0,-4.0,-2.0,2.0,5.0,-2.0,0.028764009475708008
13,16.0,-9.0,-2.0,0.0,-1169.0,8639.0,10795.0,8711.0,1.0,1.0,-3.0,-4.0,-2.0,2.0,5.0,-2.0,0.030553340911865234
14,16.0,-9.0,-2.0,0.0,-1169.0,8639.0,10795.0,8711.0,20.0,17.0,11.0,-1.0,-5.0,1.0,-10.0,4.0,0.032402753829956055
15,16.0,-9.0,-2.0,0.0,-1169.0,8639.0,10795.0,8711.0,7.0,8.0,-8.0,-1.0,4.0,1.0,7.0,0.0,0.03419232368469238
16,37.0,-10.0,-7.0,0.0,-1169.0,8639.0,10800.0,8705.0,7.0,8.0,-8.0,-1.0,4.0,1.0,7.0,0.0,0.03597116470336914
17,37.0,-10.0,-7.0,0.0,-1169.0,8639.0,10800.0,8705.0,-3.0,-12.0,-1.0,8.0,-2.0,1.0,-4.0,-5.0,0.03815174102783203
18,37.0,-10.0,-7.0,0.0,-1169.0,8639.0,10800.0,8705.0,-5.0,-11.0,3.0,0.0,1.0,0.0,5.0,-1.0,0.03995943069458008
19,14.0,8.0,-13.0,0.0,-1169.0,8639.0,10800.0,8705.0,-5.0,-11.0,3.0,0.0,1.0,0.0,5.0,-1.0,0.04175734519958496
20,14.0,8.0,-13.0,0.0,-1169.0,8639.0,10800.0,8705.0,-1.0,13.0,5.0,-8.0,-4.0,0.0,-11.0,-2.0,0.04362058639526367
21,14.0,8.0,-13.0,0.0,-1169.0,8639.0,10800.0,8705.0,-4.0,48.0,35.0,8.0,1.0,-1.0,2.0,-2.0,0.04545116424560547
22,16.0,19.0,-17.0,0.0,-1169.0,8635.0,10805.0,8702.0,-4.0,48.0,35.0,8.0,1.0,-1.0,2.0,-2.0,0.04725170135498047
23,16.0,19.0,-17.0,0.0,-1169.0,8635.0,10805.0,8702.0,11.0,0.0,-20.0,-1.0,5.0,3.0,-2.0,4.0,0.04923748970031738
24,16.0,19.0,-17.0,0.0,-1169.0,8635.0,10805.0,8702.0,-4.0,-5.0,20.0,-1.0,-1.0,0.0,3.0,4.0,0.0516204833984375
25,42.0,18.0,-2.0,0.0,-1175.0,8634.0,10810.0,8696.0,-4.0,-5.0,20.0,-1.0,-1.0,0.0,3.0,4.0,0.053905487060546875
26,42.0,18.0,-2.0,0.0,-1175.0,8634.0,10810.0,8696.0,-10.0,-23.0,-10.0,1.0,-1.0,-4.0,-2.0,-4.0,0.05580019950866699
27,42.0,18.0,-2.0,0.0,-1175.0,8634.0,10810.0,8696.0,3.0,-9.0,-16.0,-1.0,4.0,0.0,1.0,-1.0,0.05864095687866211
28,13.0,20.0,-16.0,0.0,-1177.0,8630.0,10813.0,8696.0,3.0,-9.0,-16.0,-1.0,4.0,0.0,1.0,-1.0,0.06080317497253418
29,13.0,20.0,-16.0,0.0,-1177.0,8630.0,10813.0,8696.0,-9.0,-12.0,1.0,-6.0,-2.0,-2.0,-10.0,-1.0,0.06268167495727539
30,13.0,20.0,-16.0,0.0,-1177.0,8630.0,10813.0,8696.0,13.0,22.0,-35.0,-3.0,-3.0,-1.0,4.0,1.0,0.06445837020874023
31,7.0,12.0,-24.0,0.0,-1175.0,8626.0,10818.0,8694.0,13.0,22.0,-35.0,-3.0,-3.0,-1.0,4.0,1.0,0.06624603271484375
32,7.0,12.0,-24.0,0.0,-1175.0,8626.0,10818.0,8694.0,-3.0,3.0,-1.0,-7.0,-5.0,-5.0,-8.0,-4.0,0.06808972358703613
33,7.0,12.0,-24.0,0.0,-1175.0,8626.0,10818.0,8694.0,-13.0,-39.0,26.0,2.0,-9.0,-5.0,-3.0,-3.0,0.07011222839355469
34,26.0,1.0,-30.0,0.0,-1172.0,8623.0,10827.0,8687.0,-13.0,-39.0,26.0,2.0,-9.0,-5.0,-3.0,-3.0,0.07194042205810547
35,26.0,1.0,-30.0,0.0,-1172.0,8623.0,10827.0,8687.0,3.0,-1.0,-30.0,-2.0,2.0,2.0,4.0,3.0,0.07381653785705566
36,26.0,1.0,-30.0,0.0,-1172.0,8623.0,10827.0,8687.0,-12.0,-21.0,-30.0,0.0,4.0,0.0,-5.0,-6.0,0.07559537887573242
37,23.0,-9.0,-18.0,0.0,-1166.0,8621.0,10835.0,8679.0,-12.0,-21.0,-30.0,0.0,4.0,0.0,-5.0,-6.0,0.07759809494018555
38,23.0,-9.0,-18.0,0.0,-1166.0,8621.0,10835.0,8679.0,-7.0,-15.0,0.0,0.0,0.0,-3.0,-7.0,-2.0,0.080169677734375
39,23.0,-9.0,-18.0,0.0,-1166.0,8621.0,10835.0,8679.0,0.0,-11.0,-17.0,-1.0,0.0,0.0,7.0,0.0,0.08272457122802734
40,-14.0,19.0,-2.0,0.0,-1161.0,8619.0,10839.0,8678.0,0.0,-11.0,-17.0,-1.0,0.0,0.0,7.0,0.0,0.08502078056335449
41,-14.0,19.0,-2.0,0.0,-1161.0,8619.0,10839.0,8678.0,6.0,21.0,-1.0,-1.0,3.0,0.0,-1.0,1.0,0.08696269989013672
42,-14.0,19.0,-2.0,0.0,-1161.0,8619.0,10839.0,8678.0,0.0,13.0,30.0,3.0,6.0,3.0,1.0,1.0,0.08877730369567871
43,10.0,22.0,-14.0,0.0,-1160.0,8614.0,10842.0,8678.0,0.0,13.0,30.0,3.0,6.0,3.0,1.0,1.0,0.09136557579040527
44,10.0,22.0,-14.0,0.0,-1160.0,8614.0,10842.0,8678.0,-5.0,-10.0,4.0,0.0,2.0,2.0,0.0,-2.0,0.09378290176391602
45,10.0,22.0,-14.0,0.0,-1160.0,8614.0,10842.0,8678.0,5.0,-2.0,19.0,3.0,2.0,2.0,1.0,4.0,0.09558892250061035
46,29.0,27.0,2.0,0.0,-1165.0,8611.0,10846.0,8676.0,5.0,-2.0,19.0,3.0,2.0,2.0,1.0,4.0,0.09752082824707031
47,29.0,27.0,2.0,0.0,-1165.0,8611.0,10846.0,8676.0,3.0,-15.0,-6.0,-5.0,-5.0,-5.0,-7.0,-2.0,0.09943461418151855
48,29.0,27.0,2.0,0.0,-1165.0,8611.0,10846.0,8676.0,-10.0,-8.0,-4.0,-6.0,-4.0,-3.0,-2.0,-4.0,0.10128283500671387
49,39.0,30.0,5.0,0.0,-1173.0,8609.0,10848.0,8674.0,-10.0,-8.0,-4.0,-6.0,-4.0,-3.0,-2.0,-4.0,0.10329198837280273
50,39.0,30.0,5.0,0.0,-1173.0,8609.0,10848.0,8674.0,8.0,6.0,5.0,4.0,-1.0,3.0,-1.0,3.0,0.10519003868103027
51,39.0,30.0,5.0,0.0,-1173.0,8609.0,10848.0,8674.0,-1.0,-11.0,-16.0,-2.0,-1.0,2.0,3.0,-2.0,0.10699129104614258
52,24.0,36.0,-8.0,0.0,-1177.0,8603.0,10852.0,8674.0,-1.0,-11.0,-16.0,-2.0,-1.0,2.0,3.0,-2.0,0.10880184173583984
53,24.0,36.0,-8.0,0.0,-1177.0,8603.0,10852.0,8674.0,5.0,31.0,8.0,3.0,2.0,-1.0,6.0,0.0,0.11066770553588867
54,24.0,36.0,-8.0,0.0,-1177.0,8603.0,10852.0,8674.0,-9.0,-15.0,3.0,1.0,0.0,-2.0,-4.0,-2.0,0.11320018768310547
55,22.0,45.0,-23.0,0.0,-1180.0,8595.0,10856.0,8677.0,-9.0,-15.0,3.0,1.0,0.0,-2.0,-4.0,-2.0,0.11558341979980469
56,22.0,45.0,-23.0,0.0,-1180.0,8595.0,10856.0,8677.0,14.0,48.0,15.0,-2.0,-5.0,-3.0,-1.0,2.0,0.11748147010803223
57,22.0,45.0,-23.0,0.0,-1180.0,8595.0,10856.0,8677.0,5.0,4.0,-4.0,-1.0,2.0,-3.0,-5.0,1.0,0.1192634105682373
58,40.0,39.0,-18.0,0.0,-1186.0,8589.0,10862.0,8674.0,5.0,4.0,-4.0,-1.0,2.0,-3.0,-5.0,1.0,0.12108159065246582
59,40.0,39.0,-18.0,0.0,-1186.0,8589.0,10862.0,8674.0,-8.0,-9.0,4.0,4.0,2.0,1.0,-2.0,-2.0,0.12294459342956543
60,40.0,39.0,-18.0,0.0,-1186.0,8589.0,10862.0,8674.0,3.0,4.0,-2.0,-2.0,-3.0,-3.0,1.0,0.0,0.12572169303894043
61,57.0,37.0,-18.0,0.0,-1192.0,8583.0,10871.0,8668.0,3.0,4.0,-2.0,-2.0,-3.0,-3.0,1.0,0.0,0.1278553009033203
62,57.0,37.0,-18.0,0.0,-1192.0,8583.0,10871.0,8668.0,-5.0,-41.0,-32.0,2.0,7.0,4.0,5.0,2.0,0.12973618507385254
63,57.0,37.0,-18.0,0.0,-1192.0,8583.0,10871.0,8668.0,-7.0,-3.0,0.0,-2.0,-6.0,-4.0,-10.0,-2.0,0.1315140724182129
64,31.0,50.0,-15.0,0.0,-1196.0,8575.0,10878.0,8667.0,-7.0,-3.0,0.0,-2.0,-6.0,-4.0,-10.0,-2.0,0.1333014965057373
65,31.0,50.0,-15.0,0.0,-1196.0,8575.0,10878.0,8667.0,-3.0,5.0,-11.0,-3.0,-2.0,0.0,-4.0,-3.0,0.13515949249267578
66,31.0,50.0,-15.0,0.0,-1196.0,8575.0,10878.0,8667.0,-2.0,16.0,16.0,2.0,2.0,-1.0,-1.0,-2.0,0.137237548828125
67,51.0,47.0,-13.0,0.0,-1204.0,8569.0,10885.0,8662.0,-2.0,16.0,16.0,2.0,2.0,-1.0,-1.0,-2.0,0.1390376091003418
68,51.0,47.0,-13.0,0.0,-1204.0,8569.0,10885.0,8662.0,-11.0,-16.0,-4.0,-1.0,-6.0,-1.0,-3.0,-1.0,0.14100313186645508
69,51.0,47.0,-13.0,0.0,-1204.0,8569.0,10885.0,8662.0,-1.0,9.0,5.0,1.0,-7.0,-6.0,-3.0,-5.0,0.14337515830993652
70,56.0,44.0,-5.0,0.0,-1209.0,8563.0,10894.0,8657.0,-1.0,9.0,5.0,1.0,-7.0,-6.0,-3.0,-5.0,0.14569473266601562
71,56.0,44.0,-5.0,0.0,-1209.0,8563.0,10894.0,8657.0,-7.0,-5.0,10.0,0.0,2.0,-2.0,4.0,-3.0,0.14758038520812988
72,56.0,44.0,-5.0,0.0,-1209.0,8563.0,10894.0,8657.0,6.0,-7.0,-46.0,-1.0,8.0,5.0,3.0,2.0,0.14936304092407227
73,12.0,50.0,1.0,0.0,-1213.0,8558.0,10897.0,8657.0,6.0,-7.0,-46.0,-1.0,8.0,5.0,3.0,2.0,0.15132498741149902
74,12.0,50.0,1.0,0.0,-1213.0,8558.0,10897.0,8657.0,6.0,3.0,2.0,-3.0,0.0,-1.0,-4.0,0.0,0.1532299518585205
75,12.0,50.0,1.0,0.0,-1213.0,8558.0,10897.0,8657.0,3.0,12.0,19.0,4.0,1.0,0.0,1.0,1.0,0.15501117706298828
76,8.0,47.0,13.0,0.0,-1219.0,8555.0,10898.0,8659.0,3.0,12.0,19.0,4.0,1.0,0.0,1.0,1.0,0.15680265426635742
77,8.0,47.0,13.0,0.0,-1219.0,8555.0,10898.0,8659.0,-6.0,-6.0,9.0,-4.0,-6.0,-1.0,-5.0,-7.0,0.16022729873657227
78,8.0,47.0,13.0,0.0,-1219.0,8555.0,10898.0,8659.0,5.0,15.0,13.0,-2.0,1.0,1.0,-1.0,2.0,0.16249918937683105
79,41.0,35.0,9.0,0.0,-1227.0,8552.0,10901.0,8657.0,5.0,15.0,13.0,-2.0,1.0,1.0,-1.0,2.0,0.16460657119750977
80,41.0,35.0,9.0,0.0,-1227.0,8552.0,10901.0,8657.0,-6.0,0.0,7.0,-1.0,-2.0,-6.0,0.0,-3.0,0.16655611991882324
81,41.0,35.0,9.0,0.0,-1227.0,8552.0,10901.0,8657.0,1.0,-3.0,1.0,0.0,-1.0,-1.0,-2.0,0.0,0.16835641860961914
82,27.0,40.0,-1.0,0.0,-1233.0,8547.0,10903.0,8658.0,1.0,-3.0,1.0,0.0,-1.0,-1.0,-2.0,0.0,0.17040681838989258
83,27.0,40.0,-1.0,0.0,-1233.0,8547.0,10903.0,8658.0,3.0,6.0,14.0,-3.0,-6.0,-1.0,-3.0,3.0,0.17242813110351562
84,27.0,40.0,-1.0,0.0,-1233.0,8547.0,10903.0,8658.0,4.0,-10.0,13.0,-2.0,-7.0,-3.0,0.0,1.0,0.1750636100769043
85,30.0,52.0,11.0,0.0,-1240.0,8542.0,10906.0,8658.0,4.0,-10.0,13.0,-2.0,-7.0,-3.0,0.0,1.0,0.1770927906036377
86,30.0,52.0,11.0,0.0,-1240.0,8542.0,10906.0,8658.0,-10.0,-27.0,-11.0,3.0,1.0,-1.0,-5.0,-3.0,0.17899107933044434
87,30.0,52.0,11.0,0.0,-1240.0,8542.0,10906.0,8658.0,2.0,13.0,-8.0,-4.0,-2.0,-1.0,-1.0,0.0,0.18079781532287598
88,15.0,52.0,8.0,0.0,-1245.0,8536.0,10907.0,8661.0,2.0,13.0,-8.0,-4.0,-2.0,-1.0,-1.0,0.0,0.1826157569885254
89,15.0,52.0,8.0,0.0,-1245.0,8536.0,10907.0,8661.0,2.0,15.0,-8.0,-2.0,4.0,2.0,5.0,1.0,0.18446969985961914
90,15.0,52.0,8.0,0.0,-1245.0,8536.0,10907.0,8661.0,-8.0,-14.0,-1.0,-1.0,-1.0,1.0,-2.0,-3.0,0.18627309799194336
91,-2.0,45.0,1.0,0.0,-1247.0,8531.0,10909.0,8664.0,-8.0,-14.0,-1.0,-1.0,-1.0,1.0,-2.0,-3.0,0.18805432319641113
92,-2.0,45.0,1.0,0.0,-1247.0,8531.0,10909.0,8664.0,0.0,3.0,-11.0,-3.0,4.0,1.0,-4.0,0.0,0.18992376327514648
93,-2.0,45.0,1.0,0.0,-1247.0,8531.0,10909.0,8664.0,1.0,22.0,5.0,1.0,0.0,-1.0,3.0,1.0,0.1930391788482666
94,11.0,17.0,7.0,0.0,-1249.0,8530.0,10911.0,8662.0,1.0,22.0,5.0,1.0,0.0,-1.0,3.0,1.0,0.19499444961547852
95,11.0,17.0,7.0,0.0,-1249.0,8530.0,10911.0,8662.0,-5.0,-9.0,8.0,-2.0,-5.0,-4.0,-3.0,-3.0,0.1969127655029297
96,11.0,17.0,7.0,0.0,-1249.0,8530.0,10911.0,8662.0,-10.0,-26.0,-31.0,2.0,8.0,1.0,-6.0,-6.0,0.19870829582214355
97,9.0,14.0,0.0,0.0,-1249.0,8531.0,10911.0,8662.0,-10.0,-26.0,-31.0,2.0,8.0,1.0,-6.0,-6.0,0.20049142837524414
98,9.0,14.0,0.0,0.0,-1249.0,8531.0,10911.0,8662.0,-3.0,2.0,28.0,1.0,-7.0,-5.0,5.0,2.0,0.2023487091064453
99,9.0,14.0,0.0,0.0,-1249.0,8531.0,10911.0,8662.0,11.0,32.0,-13.0,0.0,1.0,2.0,1.0,1.0,0.20506858825683594
100,17.0,22.0,-2.0,0.0,-1250.0,8529.0,10916.0,8658.0,11.0,32.0,-13.0,0.0,1.0,2.0,1.0,1.0,0.2082812786102295
101,17.0,22.0,-2.0,0.0,-1250.0,8529.0,10916.0,8658.0,2.0,7.0,10.0,1.0,-2.0,1.0,-2.0,1.0,0.21079254150390625
102,17.0,22.0,-2.0,0.0,-1250.0,8529.0,10916.0,8658.0,-4.0,-10.0,5.0,0.0,-5.0,-4.0,-6.0,-4.0,0.2125873565673828
103,45.0,19.0,-1.0,0.0,-1252.0,8526.0,10924.0,8651.0,-4.0,-10.0,5.0,0.0,-5.0,-4.0,-6.0,-4.0,0.21438002586364746
104,45.0,19.0,-1.0,0.0,-1252.0,8526.0,10924.0,8651.0,8.0,0.0,-21.0,0.0,-3.0,-1.0,-5.0,2.0,0.21622896194458008
105,45.0,19.0,-1.0,0.0,-1252.0,8526.0,10924.0,8651.0,3.0,-14.0,-30.0,-3.0,0.0,0.0,-2.0,-1.0,0.21801137924194336
106,20.0,18.0,5.0,0.0,-1252.0,8523.0,10928.0,8648.0,3.0,-14.0,-30.0,-3.0,0.0,0.0,-2.0,-1.0,0.22011160850524902
107,20.0,18.0,5.0,0.0,-1252.0,8523.0,10928.0,8648.0,-7.0,-33.0,-9.0,-2.0,1.0,0.0,2.0,-2.0,0.2223811149597168
108,20.0,18.0,5.0,0.0,-1252.0,8523.0,10928.0,8648.0,1.0,-9.0,-4.0,-1.0,0.0,1.0,3.0,1.0,0.22435760498046875
109,6.0,19.0,8.0,0.0,-1255.0,8523.0,10929.0,8646.0,1.0,-9.0,-4.0,-1.0,0.0,1.0,3.0,1.0,0.22613048553466797
110,6.0,19.0,8.0,0.0,-1255.0,8523.0,10929.0,8646.0,-3.0,9.0,8.0,1.0,0.0,0.0,5.0,0.0,0.22810626029968262
111,6.0,19.0,8.0,0.0,-1255.0,8523.0,10929.0,8646.0,-3.0,-11.0,3.0,0.0,0.0,-1.0,-2.0,0.0,0.22989678382873535
112,33.0,18.0,5.0,0.0,-1261.0,8523.0,10932.0,8641.0,-3.0,-11.0,3.0,0.0,0.0,-1.0,-2.0,0.0,0.23169898986816406
113,33.0,18.0,5.0,0.0,-1261.0,8523.0,10932.0,8641.0,3.0,19.0,-5.0,1.0,5.0,1.0,-7.0,0.0,0.23369956016540527
114,33.0,18.0,5.0,0.0,-1261.0,8523.0,10932.0,8641.0,-6.0,-9.0,12.0,1.0,-1.0,-4.0,-5.0,-2.0,0.23608827590942383
115,71.0,14.0,-2.0,0.0,-1266.0,8519.0,10940.0,8633.0,-6.0,-9.0,12.0,1.0,-1.0,-4.0,-5.0,-2.0,0.23827242851257324
116,71.0,14.0,-2.0,0.0,-1266.0,8519.0,10940.0,8633.0,0.0,17.0,-5.0,2.0,1.0,0.0,3.0,0.0,0.24054551124572754
117,71.0,14.0,-2.0,0.0,-1266.0,8519.0,10940.0,8633.0,8.0,-2.0,-5.0,-2.0,-5.0,-2.0,-3.0,2.0,0.2432565689086914
118,57.0,5.0,-7.0,0.0,-1267.0,8515.0,10948.0,8628.0,8.0,-2.0,-5.0,-2.0,-5.0,-2.0,-3.0,2.0,0.24504637718200684
119,57.0,5.0,-7.0,0.0,-1267.0,8515.0,10948.0,8628.0,8.0,11.0,-8.0,0.0,0.0,2.0,-1.0,2.0,0.2469029426574707
120,57.0,5.0,-7.0,0.0,-1267.0,8515.0,10948.0,8628.0,-6.0,4.0,29.0,-2.0,-4.0,-2.0,-3.0,-1.0,0.24867820739746094
121,25.0,4.0,2.0,0.0,-1266.0,8512.0,10952.0,8627.0,-6.0,4.0,29.0,-2.0,-4.0,-2.0,-3.0,-1.0,0.2504713535308838
122,25.0,4.0,2.0,0.0,-1266.0,8512.0,10952.0,8627.0,10.0,16.0,-13.0,1.0,3.0,2.0,-4.0,4.0,0.25232672691345215
123,25.0,4.0,2.0,0.0,-1266.0,8512.0,10952.0,8627.0,2.0,10.0,7.0,0.0,-2.0,0.0,3.0,-1.0,0.2544083595275879
124,4.0,-1.0,14.0,0.0,-1265.0,8511.0,10952.0,8627.0,2.0,10.0,7.0,0.0,-2.0,0.0,3.0,-1.0,0.25624656677246094
125,4.0,-1.0,14.0,0.0,-1265.0,8511.0,10952.0,8627.0,-7.0,6.0,38.0,0.0,-8.0,-7.0,-6.0,-7.0,0.2581467628479004
126,4.0,-1.0,14.0,0.0,-1265.0,8511.0,10952.0,8627.0,-2.0,-6.0,3.0,0.0,0.0,-2.0,-8.0,1.0,0.25992250442504883
127,-10.0,-11.0,13.0,0.0,-1265.0,8511.0,10952.0,8627.0,-2.0,-6.0,3.0,0.0,0.0,-2.0,-8.0,1.0,0.2617325782775879
128,-10.0,-11.0,13.0,0.0,-1265.0,8511.0,10952.0,8627.0,-13.0,-30.0,-14.0,-5.0,-6.0,0.0,-1.0,-2.0,0.2636232376098633
129,-10.0,-11.0,13.0,0.0,-1265.0,8511.0,10952.0,8627.0,6.0,22.0,25.0,-2.0,-5.0,-3.0,2.0,0.0,0.266216516494751
130,-12.0,-9.0,4.0,0.0,-1264.0,8511.0,10952.0,8626.0,6.0,22.0,25.0,-2.0,-5.0,-3.0,2.0,0.0,0.2686030864715576
131,-12.0,-9.0,4.0,0.0,-1264.0,8511.0,10952.0,8626.0,3.0,-25.0,-32.0,3.0,1.0,0.0,-4.0,2.0,0.2705504894256592
132,-12.0,-9.0,4.0,0.0,-1264.0,8511.0,10952.0,8626.0,-12.0,-11.0,-8.0,-3.0,-5.0,-3.0,-2.0,-4.0,0.281740665435791
133,-5.0,-3.0,-2.0,0.0,-1264.0,8512.0,10953.0,8625.0,-12.0,-11.0,-8.0,-3.0,-5.0,-3.0,-2.0,-4.0,0.28353309631347656
134,-5.0,-3.0,-2.0,0.0,-1264.0,8512.0,10953.0,8625.0,4.0,23.0,3.0,-3.0,-3.0,0.0,6.0,2.0,0.28539299964904785
135,-5.0,-3.0,-2.0,0.0,-1264.0,8512.0,10953.0,8625.0,-3.0,-11.0,-2.0,2.0,6.0,0.0,-2.0,-3.0,0.29703855514526367
136,5.0,12.0,-1.0,0.0,-1264.0,8512.0,10953.0,8625.0,-3.0,-11.0,-2.0,2.0,6.0,0.0,-2.0,-3.0,0.2995626926422119
137,5.0,12.0,-1.0,0.0,-1264.0,8512.0,10953.0,8625.0,-13.0,-36.0,11.0,-2.0,-3.0,-5.0,-4.0,-2.0,0.3033285140991211
138,5.0,12.0,-1.0,0.0,-1264.0,8512.0,10953.0,8625.0,12.0,30.0,-10.0,-7.0,-4.0,-2.0,-3.0,0.0,0.31893444061279297
139,10.0,25.0,7.0,0.0,-1269.0,8511.0,10953.0,8625.0,12.0,30.0,-10.0,-7.0,-4.0,-2.0,-3.0,0.0,0.321058988571167
140,10.0,25.0,7.0,0.0,-1269.0,8511.0,10953.0,8625.0,5.0,8.0,1.0,2.0,0.0,-1.0,0.0,0.0,0.3257291316986084
141,10.0,25.0,7.0,0.0,-1269.0,8511.0,10953.0,8625.0,-1.0,10.0,-3.0,-2.0,4.0,4.0,8.0,2.0,0.3436405658721924
142,19.0,30.0,-1.0,0.0,-1273.0,8507.0,10956.0,8624.0,-1.0,10.0,-3.0,-2.0,4.0,4.0,8.0,2.0,0.34583449363708496
143,19.0,30.0,-1.0,0.0,-1273.0,8507.0,10956.0,8624.0,7.0,4.0,1.0,0.0,2.0,1.0,-1.0,0.0,0.3476901054382324
144,19.0,30.0,-1.0,0.0,-1273.0,8507.0,10956.0,8624.0,-3.0,-9.0,-8.0,3.0,2.0,0.0,-4.0,-1.0,0.35625433921813965
145,16.0,31.0,4.0,0.0,-1276.0,8504.0,10958.0,8624.0,-3.0,-9.0,-8.0,3.0,2.0,0.0,-4.0,-1.0,0.3586571216583252
146,16.0,31.0,4.0,0.0,-1276.0,8504.0,10958.0,8624.0,-4.0,-3.0,-4.0,-4.0,-1.0,-3.0,-2.0,-2.0,0.3630180358886719
147,-5.0,33.0,15.0,0.0,-1282.0,8503.0,10955.0,8628.0,-4.0,-3.0,-4.0,-4.0,-1.0,-3.0,-2.0,-2.0,0.3877851963043213
148,-5.0,33.0,15.0,0.0,-1282.0,8503.0,10955.0,8628.0,-4.0,-8.0,-5.0,1.0,1.0,1.0,-3.0,-1.0,0.39300036430358887
149,-5.0,33.0,15.0,0.0,-1282.0,8503.0,10955.0,8628.0,5.0,16.0,20.0,0.0,-1.0,0.0,-10.0,-3.0,0.3957960605621338
150,2.0,38.0,4.0,0.0,-1287.0,8500.0,10955.0,8632.0,5.0,16.0,20.0,0.0,-1.0,0.0,-10.0,-3.0,0.400465726852417
151,2.0,38.0,4.0,0.0,-1287.0,8500.0,10955.0,8632.0,2.0,-6.0,-9.0,-5.0,-8.0,-1.0,-7.0,2.0,0.4089953899383545
152,2.0,38.0,4.0,0.0,-1287.0,8500.0,10955.0,8632.0,1.0,-10.0,5.0,2.0,-3.0,0.0,-7.0,-2.0,0.4111182689666748
153,19.0,30.0,9.0,0.0,-1290.0,8497.0,10957.0,8630.0,1.0,-10.0,5.0,2.0,-3.0,0.0,-7.0,-2.0,0.4267442226409912
154,19.0,30.0,9.0,0.0,-1290.0,8497.0,10957.0,8630.0,-6.0,-3.0,0.0,3.0,6.0,1.0,-5.0,-1.0,0.4292793273925781
155,19.0,30.0,9.0,0.0,-1290.0,8497.0,10957.0,8630.0,15.0,32.0,-27.0,-4.0,9.0,1.0,2.0,3.0,0.43120503425598145
156,-11.0,27.0,0.0,0.0,-1290.0,8495.0,10958.0,8632.0,15.0,32.0,-27.0,-4.0,9.0,1.0,2.0,3.0,0.4471268653869629
157,-11.0,27.0,0.0,0.0,-1290.0,8495.0,10958.0,8632.0,-6.0,-10.0,-28.0,-2.0,3.0,3.0,-2.0,-1.0,0.44913434982299805
158,-11.0,27.0,0.0,0.0,-1290.0,8495.0,10958.0,8632.0,17.0,45.0,-3.0,-5.0,-2.0,-2.0,-7.0,1.0,0.4522511959075928
159,-21.0,29.0,8.0,0.0,-1291.0,8494.0,10957.0,8633.0,17.0,45.0,-3.0,-5.0,-2.0,-2.0,-7.0,1.0,0.46176648139953613
160,-21.0,29.0,8.0,0.0,-1291.0,8494.0,10957.0,8633.0,3.0,-9.0,17.0,6.0,8.0,2.0,-1.0,4.0,0.4688122272491455
161,-21.0,29.0,8.0,0.0,-1291.0,8494.0,10957.0,8633.0,-17.0,-33.0,-16.0,-1.0,-1.0,0.0,-6.0,-6.0,0.4709208011627197
162,19.0,21.0,6.0,0.0,-1293.0,8493.0,10961.0,8629.0,-17.0,-33.0,-16.0,-1.0,-1.0,0.0,-6.0,-6.0,0.4857182502746582
163,19.0,21.0,6.0,0.0,-1293.0,8493.0,10961.0,8629.0,1.0,-6.0,-8.0,-4.0,-8.0,-2.0,0.0,0.0,0.4890437126159668
164,19.0,21.0,6.0,0.0,-1293.0,8493.0,10961.0,8629.0,6.0,29.0,5.0,1.0,3.0,-3.0,3.0,-1.0,0.4935612678527832
165,10.0,22.0,-2.0,0.0,-1293.0,8490.0,10964.0,8628.0,6.0,29.0,5.0,1.0,3.0,-3.0,3.0,-1.0,0.5078489780426025
166,10.0,22.0,-2.0,0.0,-1293.0,8490.0,10964.0,8628.0,-13.0,-11.0,1.0,-1.0,-2.0,0.0,0.0,-5.0,0.5111908912658691
167,10.0,22.0,-2.0,0.0,-1293.0,8490.0,10964.0,8628.0,-32.0,-60.0,15.0,1.0,-11.0,-6.0,-7.0,-7.0,0.5152289867401123
168,-2.0,28.0,-5.0,0.0,-1292.0,8487.0,10967.0,8628.0,-32.0,-60.0,15.0,1.0,-11.0,-6.0,-7.0,-7.0,0.5205681324005127
169,-2.0,28.0,-5.0,0.0,-1292.0,8487.0,10967.0,8628.0,-12.0,-32.0,3.0,1.0,-2.0,-2.0,-2.0,-5.0,0.5290610790252686
170,-2.0,28.0,-5.0,0.0,-1292.0,8487.0,10967.0,8628.0,-5.0,-7.0,5.0,2.0,2.0,1.0,-1.0,-1.0,0.530937910079956
171,-14.0,32.0,8.0,0.0,-1293.0,8485.0,10966.0,8631.0,-5.0,-7.0,5.0,2.0,2.0,1.0,-1.0,-1.0,0.5458986759185791
172,-14.0,32.0,8.0,0.0,-1293.0,8485.0,10966.0,8631.0,3.0,8.0,22.0,3.0,-4.0,-1.0,-3.0,4.0,0.5495080947875977
173,-14.0,32.0,8.0,0.0,-1293.0,8485.0,10966.0,8631.0,-7.0,-8.0,-17.0,-6.0,-6.0,0.0,1.0,-2.0,0.5528974533081055
174,-9.0,36.0,6.0,0.0,-1297.0,8482.0,10965.0,8634.0,-7.0,-8.0,-17.0,-6.0,-6.0,0.0,1.0,-2.0,0.5670499801635742
175,-9.0,36.0,6.0,0.0,-1297.0,8482.0,10965.0,8634.0,15.0,25.0,6.0,-5.0,0.0,-4.0,-3.0,1.0,0.5689511299133301
176,-9.0,36.0,6.0,0.0,-1297.0,8482.0,10965.0,8634.0,7.0,-3.0,-5.0,0.0,4.0,2.0,-3.0,3.0,0.5720076560974121
177,24.0,16.0,0.0,0.0,-1301.0,8480.0,10968.0,8632.0,7.0,-3.0,-5.0,0.0,4.0,2.0,-3.0,3.0,0.5812623500823975
178,24.0,16.0,0.0,0.0,-1301.0,8480.0,10968.0,8632.0,-8.0,-14.0,-2.0,-6.0,-10.0,-3.0,0.0,-2.0,0.5891027450561523
179,24.0,16.0,0.0,0.0,-1301.0,8480.0,10968.0,8632.0,-5.0,-8.0,16.0,1.0,3.0,5.0,6.0,0.0,0.5915873050689697
180,22.0,18.0,-9.0,0.0,-1302.0,8476.0,10971.0,8631.0,-5.0,-8.0,16.0,1.0,3.0,5.0,6.0,0.0,0.604773759841919
181,22.0,18.0,-9.0,0.0,-1302.0,8476.0,10971.0,8631.0,-2.0,-13.0,2.0,1.0,-2.0,-1.0,0.0,-3.0,0.6092772483825684
182,22.0,18.0,-9.0,0.0,-1302.0,8476.0,10971.0,8631.0,0.0,4.0,8.0,0.0,-1.0,-3.0,3.0,1.0,0.6120357513427734
183,-3.0,32.0,-8.0,0.0,-1301.0,8470.0,10973.0,8636.0,0.0,4.0,8.0,0.0,-1.0,-3.0,3.0,1.0,0.6269943714141846
184,-3.0,32.0,-8.0,0.0,-1301.0,8470.0,10973.0,8636.0,8.0,14.0,-15.0,2.0,3.0,1.0,-1.0,3.0,0.6298472881317139
185,-3.0,32.0,-8.0,0.0,-1301.0,8470.0,10973.0,8636.0,5.0,12.0,-15.0,1.0,-2.0,0.0,-4.0,0.0,0.6329984664916992
186,-6.0,27.0,-3.0,0.0,-1299.0,8466.0,10974.0,8638.0,5.0,12.0,-15.0,1.0,-2.0,0.0,-4.0,0.0,0.6421065330505371
187,-6.0,27.0,-3.0,0.0,-1299.0,8466.0,10974.0,8638.0,-10.0,-7.0,5.0,-3.0,-5.0,-2.0,-8.0,-4.0,0.6443564891815186
188,-6.0,27.0,-3.0,0.0,-1299.0,8466.0,10974.0,8638.0,-5.0,-23.0,5.0,-1.0,2.0,-1.0,-1.0,-2.0,0.6481819152832031
189,-8.0,19.0,-1.0,0.0,-1298.0,8464.0,10976.0,8638.0,-5.0,-23.0,5.0,-1.0,2.0,-1.0,-1.0,-2.0,0.6643643379211426
190,-8.0,19.0,-1.0,0.0,-1298.0,8464.0,10976.0,8638.0,-1.0,-7.0,-27.0,-1.0,3.0,1.0,-5.0,-3.0,0.6677093505859375
191,-8.0,19.0,-1.0,0.0,-1298.0,8464.0,10976.0,8638.0,1.0,-8.0,8.0,-2.0,-6.0,-7.0,-1.0,-1.0,0.6711437702178955
192,-37.0,31.0,2.0,0.0,-1295.0,8462.0,10975.0,8642.0,1.0,-8.0,8.0,-2.0,-6.0,-7.0,-1.0,-1.0,0.6870951652526855
193,-37.0,31.0,2.0,0.0,-1295.0,8462.0,10975.0,8642.0,-8.0,-19.0,10.0,4.0,5.0,1.0,1.0,-1.0,0.6890051364898682
194,-37.0,31.0,2.0,0.0,-1295.0,8462.0,10975.0,8642.0,3.0,-8.0,12.0,0.0,0.0,-1.0,-2.0,1.0,0.6908090114593506
195,-9.0,34.0,5.0,0.0,-1299.0,8461.0,10974.0,8643.0,3.0,-8.0,12.0,0.0,0.0,-1.0,-2.0,1.0,0.702186107635498
196,-9.0,34.0,5.0,0.0,-1299.0,8461.0,10974.0,8643.0,-3.0,15.0,6.0,-2.0,0.0,-2.0,0.0,-2.0,0.704226016998291
197,-9.0,34.0,5.0,0.0,-1299.0,8461.0,10974.0,8643.0,2.0,-9.0,-46.0,-5.0,-5.0,-4.0,-9.0,0.0,0.7094156742095947
198,30.0,24.0,7.0,0.0,-1304.0,8460.0,10978.0,8639.0,2.0,-9.0,-46.0,-5.0,-5.0,-4.0,-9.0,0.0,0.7244036197662354
199,30.0,24.0,7.0,0.0,-1304.0,8460.0,10978.0,8639.0,-2.0,8.0,7.0,-2.0,-4.0,-1.0,-5.0,-2.0,0.7265026569366455
200,30.0,24.0,7.0,0.0,-1304.0,8460.0,10978.0,8639.0,4.0,24.0,15.0,3.0,-1.0,1.0,5.0,2.0,0.7289481163024902
201,22.0,24.0,-1.0,0.0,-1307.0,8456.0,10981.0,8638.0,4.0,24.0,15.0,3.0,-1.0,1.0,5.0,2.0,0.7477226257324219
202,22.0,24.0,-1.0,0.0,-1307.0,8456.0,10981.0,8638.0,8.0,8.0,-7.0,1.0,2.0,0.0,-3.0,3.0,0.7511007785797119
203,22.0,24.0,-1.0,0.0,-1307.0,8456.0,10981.0,8638.0,-6.0,-6.0,1.0,1.0,6.0,1.0,-3.0,-3.0,0.7545485496520996
204,7.0,28.0,7.0,0.0,-1309.0,8454.0,10982.0,8639.0,-6.0,-6.0,1.0,1.0,6.0,1.0,-3.0,-3.0,0.7625501155853271
205,7.0,28.0,7.0,0.0,-1309.0,8454.0,10982.0,8639.0,6.0,2.0,-7.0,-1.0,-3.0,-3.0,0.0,-1.0,0.7645668983459473
206,7.0,28.0,7.0,0.0,-1309.0,8454.0,10982.0,8639.0,-10.0,24.0,43.0,3.0,2.0,0.0,-5.0,-6.0,0.7680563926696777
207,3.0,30.0,16.0,0.0,-1314.0,8453.0,10981.0,8639.0,-10.0,24.0,43.0,3.0,2.0,0.0,-5.0,-6.0,0.7844641208648682
208,3.0,30.0,16.0,0.0,-1314.0,8453.0,10981.0,8639.0,1.0,-17.0,-19.0,-5.0,1.0,1.0,2.0,3.0,0.7865903377532959
209,3.0,30.0,16.0,0.0,-1314.0,8453.0,10981.0,8639.0,-4.0,-15.0,-24.0,-3.0,-3.0,1.0,6.0,-1.0,0.7885692119598389
210,2.0,22.0,7.0,0.0,-1317.0,8452.0,10981.0,8640.0,-4.0,-15.0,-24.0,-3.0,-3.0,1.0,6.0,-1.0,0.8086984157562256
211,2.0,22.0,7.0,0.0,-1317.0,8452.0,10981.0,8640.0,-1.0,2.0,2.0,2.0,2.0,1.0,1.0,2.0,0.8123157024383545
212,2.0,22.0,7.0,0.0,-1317.0,8452.0,10981.0,8640.0,0.0,33.0,6.0,-2.0,0.0,0.0,1.0,2.0,0.8154900074005127
213,29.0,6.0,-16.0,0.0,-1320.0,8450.0,10985.0,8636.0,0.0,33.0,6.0,-2.0,0.0,0.0,1.0,2.0,0.8220126628875732
214,29.0,6.0,-16.0,0.0,-1320.0,8450.0,10985.0,8636.0,3.0,-3.0,-2.0,2.0,-2.0,0.0,0.0,0.0,0.8258867263793945
215,29.0,6.0,-16.0,0.0,-1320.0,8450.0,10985.0,8636.0,-2.0,-17.0,-9.0,-3.0,-8.0,-4.0,-7.0,-2.0,0.8281550407409668
216,37.0,-6.0,-13.0,0.0,-1320.0,8449.0,10991.0,8630.0,-2.0,-17.0,-9.0,-3.0,-8.0,-4.0,-7.0,-2.0,0.844702959060669
217,37.0,-6.0,-13.0,0.0,-1320.0,8449.0,10991.0,8630.0,-3.0,2.0,-12.0,2.0,2.0,-2.0,-2.0,-3.0,0.8477115631103516
218,37.0,-6.0,-13.0,0.0,-1320.0,8449.0,10991.0,8630.0,-13.0,-15.0,23.0,-5.0,-10.0,-4.0,1.0,-5.0,0.8509089946746826
219,44.0,1.0,-16.0,0.0,-1322.0,8447.0,10998.0,8623.0,-13.0,-15.0,23.0,-5.0,-10.0,-4.0,1.0,-5.0,0.8681352138519287
220,44.0,1.0,-16.0,0.0,-1322.0,8447.0,10998.0,8623.0,-1.0,13.0,20.0,1.0,0.0,0.0,-2.0,-3.0,0.8718910217285156
221,44.0,1.0,-16.0,0.0,-1322.0,8447.0,10998.0,8623.0,-1.0,-18.0,-8.0,-2.0,1.0,-1.0,-8.0,0.0,0.8753135204315186
222,50.0,7.0,-4.0,0.0,-1322.0,8443.0,11006.0,8617.0,-1.0,-18.0,-8.0,-2.0,1.0,-1.0,-8.0,0.0,0.881645679473877
223,50.0,7.0,-4.0,0.0,-1322.0,8443.0,11006.0,8617.0,7.0,59.0,13.0,1.0,5.0,0.0,-2.0,-1.0,0.8889780044555664
224,50.0,7.0,-4.0,0.0,-1322.0,8443.0,11006.0,8617.0,7.0,8.0,-4.0,2.0,1.0,0.0,3.0,4.0,0.8918826580047607
225,36.0,6.0,-16.0,0.0,-1319.0,8438.0,11014.0,8612.0,7.0,8.0,-4.0,2.0,1.0,0.0,3.0,4.0,0.9047935009002686
226,36.0,6.0,-16.0,0.0,-1319.0,8438.0,11014.0,8612.0,2.0,11.0,1.0,-2.0,-3.0,0.0,-1.0,2.0,0.9066951274871826
227,36.0,6.0,-16.0,0.0,-1319.0,8438.0,11014.0,8612.0,-2.0,-5.0,-8.0,0.0,-6.0,-4.0,4.0,-1.0,0.9084787368774414
228,55.0,1.0,-20.0,0.0,-1319.0,8433.0,11023.0,8605.0,-2.0,-5.0,-8.0,0.0,-6.0,-4.0,4.0,-1.0,0.928194522857666
229,55.0,1.0,-20.0,0.0,-1319.0,8433.0,11023.0,8605.0,4.0,-2.0,-20.0,-4.0,3.0,1.0,1.0,3.0,0.9315280914306641
230,55.0,1.0,-20.0,0.0,-1319.0,8433.0,11023.0,8605.0,-2.0,-8.0,-2.0,1.0,6.0,2.0,-3.0,-4.0,0.9346988201141357
231,85.0,9.0,-26.0,0.0,-1322.0,8427.0,11034.0,8596.0,-2.0,-8.0,-2.0,1.0,6.0,2.0,-3.0,-4.0,0.9414713382720947
232,85.0,9.0,-26.0,0.0,-1322.0,8427.0,11034.0,8596.0,-11.0,-35.0,-10.0,1.0,-4.0,-2.0,-1.0,-4.0,0.9492354393005371
233,85.0,9.0,-26.0,0.0,-1322.0,8427.0,11034.0,8596.0,1.0,0.0,-24.0,-1.0,8.0,2.0,-8.0,-1.0,0.9510586261749268
234,94.0,17.0,-44.0,0.0,-1323.0,8415.0,11049.0,8588.0,1.0,0.0,-24.0,-1.0,8.0,2.0,-8.0,-1.0,0.964275598526001
235,94.0,17.0,-44.0,0.0,-1323.0,8415.0,11049.0,8588.0,-6.0,-11.0,-7.0,-3.0,-4.0,-2.0,-3.0,-3.0,0.9668059349060059
236,94.0,17.0,-44.0,0.0,-1323.0,8415.0,11049.0,8588.0,4.0,23.0,38.0,0.0,-14.0,-1.0,6.0,2.0,0.9699180126190186
237,107.0,-1.0,-36.0,0.0,-1325.0,8407.0,11065.0,8576.0,4.0,23.0,38.0,0.0,-14.0,-1.0,6.0,2.0,0.9883842468261719
238,107.0,-1.0,-36.0,0.0,-1325.0,8407.0,11065.0,8576.0,-7.0,-9.0,11.0,-3.0,-6.0,-3.0,-5.0,-6.0,0.9938814640045166
239,107.0,-1.0,-36.0,0.0,-1325.0,8407.0,11065.0,8576.0,1.0,0.0,-8.0,2.0,0.0,2.0,3.0,1.0,0.9977209568023682
240,160.0,-20.0,-36.0,0.0,-1330.0,8400.0,11084.0,8557.0,1.0,0.0,-8.0,2.0,0.0,2.0,3.0,1.0,1.000178337097168
241,160.0,-20.0,-36.0,0.0,-1330.0,8400.0,11084.0,8557.0,-12.0,-33.0,10.0,2.0,-2.0,-2.0,-3.0,-3.0,1.0093903541564941
242,160.0,-20.0,-36.0,0.0,-1330.0,8400.0,11084.0,8557.0,-3.0,-3.0,-2.0,-2.0,0.0,-1.0,-7.0,1.0,1.0114631652832031
243,174.0,-40.0,-44.0,0.0,-1330.0,8389.0,11104.0,8542.0,-3.0,-3.0,-2.0,-2.0,0.0,-1.0,-7.0,1.0,1.0255146026611328
244,174.0,-40.0,-44.0,0.0,-1330.0,8389.0,11104.0,8542.0,2.0,-1.0,8.0,-2.0,2.0,-1.0,-4.0,-4.0,1.0275719165802002
245,174.0,-40.0,-44.0,0.0,-1330.0,8389.0,11104.0,8542.0,3.0,-8.0,-7.0,4.0,-2.0,3.0,5.0,-2.0,1.029416561126709
246,120.0,-27.0,-92.0,0.0,-1319.0,8369.0,11123.0,8538.0,3.0,-8.0,-7.0,4.0,-2.0,3.0,5.0,-2.0,1.04685378074646
247,120.0,-27.0,-92.0,0.0,-1319.0,8369.0,11123.0,8538.0,16.0,7.0,2.0,6.0,0.0,5.0,0.0,6.0,1.048703670501709
248,120.0,-27.0,-92.0,0.0,-1319.0,8369.0,11123.0,8538.0,-1.0,-27.0,-37.0,-11.0,0.0,-2.0,-8.0,1.0,1.0504841804504395
249,140.0,-31.0,-145.0,0.0,-1306.0,8344.0,11150.0,8529.0,-1.0,-27.0,-37.0,-11.0,0.0,-2.0,-8.0,1.0,1.0609338283538818
250,140.0,-31.0,-145.0,0.0,-1306.0,8344.0,11150.0,8529.0,9.0,17.0,-9.0,-7.0,-14.0,-5.0,3.0,1.0,1.0700151920318604
251,140.0,-31.0,-145.0,0.0,-1306.0,8344.0,11150.0,8529.0,-12.0,-21.0,6.0,3.0,-4.0,-3.0,-5.0,-5.0,1.0735127925872803
252,192.0,-20.0,-192.0,0.0,-1288.0,8310.0,11190.0,8513.0,-12.0,-21.0,6.0,3.0,-4.0,-3.0,-5.0,-5.0,1.0843567848205566
253,192.0,-20.0,-192.0,0.0,-1288.0,8310.0,11190.0,8513.0,3.0,15.0,-25.0,1.0,11.0,-1.0,-14.0,-4.0,1.0871570110321045
254,192.0,-20.0,-192.0,0.0,-1288.0,8310.0,11190.0,8513.0,-13.0,-12.0,7.0,-6.0,0.0,1.0,-6.0,-8.0,1.090151309967041
255,134.0,-25.0,-258.0,0.0,-1254.0,8265.0,11228.0,8512.0,-13.0,-12.0,7.0,-6.0,0.0,1.0,-6.0,-8.0,1.1093268394470215
256,134.0,-25.0,-258.0,0.0,-1254.0,8265.0,11228.0,8512.0,-1.0,-4.0,21.0,5.0,2.0,3.0,8.0,5.0,1.113476037979126
257,134.0,-25.0,-258.0,0.0,-1254.0,8265.0,11228.0,8512.0,1.0,-8.0,-14.0,11.0,9.0,1.0,-17.0,0.0,1.1171672344207764
258,170.0,-32.0,-394.0,0.0,-1206.0,8200.0,11282.0,8511.0,1.0,-8.0,-14.0,11.0,9.0,1.0,-17.0,0.0,1.120870590209961
259,170.0,-32.0,-394.0,0.0,-1206.0,8200.0,11282.0,8511.0,-17.0,-35.0,2.0,-3.0,-13.0,0.0,11.0,-6.0,1.1289362907409668
260,170.0,-32.0,-394.0,0.0,-1206.0,8200.0,11282.0,8511.0,-1.0,-5.0,27.0,-16.0,-8.0,-3.0,-3.0,1.0,1.131819486618042
261,128.0,6.0,-566.0,0.0,-1128.0,8100.0,11348.0,8529.0,-1.0,-5.0,27.0,-16.0,-8.0,-3.0,-3.0,1.0,1.1447358131408691
262,128.0,6.0,-566.0,0.0,-1128.0,8100.0,11348.0,8529.0,18.0,29.0,15.0,-12.0,-15.0,1.0,0.0,5.0,1.146681785583496
263,128.0,6.0,-566.0,0.0,-1128.0,8100.0,11348.0,8529.0,29.0,83.0,49.0,2.0,6.0,2.0,13.0,10.0,1.14847993850708
264,122.0,-8.0,-703.0,0.0,-1023.0,7970.0,11421.0,8567.0,29.0,83.0,49.0,2.0,6.0,2.0,13.0,10.0,1.1678740978240967
265,122.0,-8.0,-703.0,0.0,-1023.0,7970.0,11421.0,8567.0,-4.0,27.0,-9.0,11.0,11.0,-3.0,-9.0,0.0,1.171053409576416
266,122.0,-8.0,-703.0,0.0,-1023.0,7970.0,11421.0,8567.0,-20.0,-52.0,-39.0,-10.0,-2.0,-2.0,-9.0,-6.0,1.1742570400238037
267,-141.0,-104.0,-891.0,0.0,-853.0,7821.0,11487.0,8635.0,-20.0,-52.0,-39.0,-10.0,-2.0,-2.0,-9.0,-6.0,1.1807396411895752
268,-141.0,-104.0,-891.0,0.0,-853.0,7821.0,11487.0,8635.0,-7.0,-17.0,18.0,13.0,5.0,0.0,-13.0,0.0,1.1899845600128174
269,-141.0,-104.0,-891.0,0.0,-853.0,7821.0,11487.0,8635.0,1.0,-9.0,18.0,5.0,-6.0,-5.0,-18.0,-1.0,1.194383144378662
270,-71.0,-210.0,-1420.0,0.0,-623.0,7611.0,11602.0,8688.0,1.0,-9.0,18.0,5.0,-6.0,-5.0,-18.0,-1.0,1.2048046588897705
271,-71.0,-210.0,-1420.0,0.0,-623.0,7611.0,11602.0,8688.0,-15.0,-58.0,-16.0,6.0,-12.0,-10.0,1.0,-1.0,1.2079834938049316
272,-71.0,-210.0,-1420.0,0.0,-623.0,7611.0,11602.0,8688.0,-12.0,-30.0,-4.0,10.0,-3.0,0.0,11.0,-7.0,1.2102382183074951
273,-502.0,-34.0,-1358.0,0.0,-356.0,7376.0,11669.0,8815.0,-12.0,-30.0,-4.0,10.0,-3.0,0.0,11.0,-7.0,1.2275028228759766
274,-502.0,-34.0,-1358.0,0.0,-356.0,7376.0,11669.0,8815.0,-13.0,-31.0,-6.0,-13.0,10.0,8.0,10.0,2.0,1.2294752597808838
275,-502.0,-34.0,-1358.0,0.0,-356.0,7376.0,11669.0,8815.0,4.0,3.0,-41.0,-8.0,3.0,5.0,7.0,0.0,1.2312798500061035
276,-1061.0,45.0,-1502.0,0.0,-46.0,7117.0,11687.0,9009.0,4.0,3.0,-41.0,-8.0,3.0,5.0,7.0,0.0,1.2409145832061768
277,-1061.0,45.0,-1502.0,0.0,-46.0,7117.0,11687.0,9009.0,6.0,-17.0,-42.0,-11.0,10.0,6.0,2.0,-4.0,1.2490158081054688
278,-1061.0,45.0,-1502.0,0.0,-46.0,7117.0,11687.0,9009.0,-18.0,-7.0,-16.0,-1.0,-5.0,-8.0,8.0,-5.0,1.2521591186523438
279,-1534.0,-15.0,-1749.0,0.0,264.0,6882.0,11670.0,9209.0,-18.0,-7.0,-16.0,-1.0,-5.0,-8.0,8.0,-5.0,1.2648708820343018
280,-1534.0,-15.0,-1749.0,0.0,264.0,6882.0,11670.0,9209.0,3.0,18.0,-25.0,-12.0,-1.0,-4.0,-4.0,0.0,1.2675304412841797
281,-1534.0,-15.0,-1749.0,0.0,264.0,6882.0,11670.0,9209.0,5.0,-8.0,13.0,3.0,0.0,-9.0,-4.0,3.0,1.270395040512085
282,-1776.0,-26.0,-2014.0,0.0,610.0,6613.0,11635.0,9430.0,5.0,-8.0,13.0,3.0,0.0,-9.0,-4.0,3.0,1.289489984512329
283,-1776.0,-26.0,-2014.0,0.0,610.0,6613.0,11635.0,9430.0,18.0,36.0,-16.0,-14.0,-14.0,-6.0,0.0,5.0,1.2939741611480713
284,-1776.0,-26.0,-2014.0,0.0,610.0,6613.0,11635.0,9430.0,0.0,6.0,36.0,17.0,3.0,2.0,6.0,0.0,1.2971961498260498
285,-1839.0,153.0,-2195.0,0.0,955.0,6297.0,11597.0,9661.0,0.0,6.0,36.0,17.0,3.0,2.0,6.0,0.0,1.3096423149108887
286,-1839.0,153.0,-2195.0,0.0,955.0,6297.0,11597.0,9661.0,-5.0,-3.0,17.0,5.0,7.0,5.0,1.0,2.0,1.3132402896881104
287,-1839.0,153.0,-2195.0,0.0,955.0,6297.0,11597.0,9661.0,2.0,-8.0,16.0,1.0,-8.0,-3.0,1.0,3.0,1.3174231052398682
288,-2060.0,305.0,-2454.0,0.0,1321.0,5925.0,11546.0,9912.0,2.0,-8.0,16.0,1.0,-8.0,-3.0,1.0,3.0,1.3256349563598633
289,-2060.0,305.0,-2454.0,0.0,1321.0,5925.0,11546.0,9912.0,6.0,24.0,5.0,0.0,-1.0,-2.0,9.0,-2.0,1.3281123638153076
290,-2060.0,305.0,-2454.0,0.0,1321.0,5925.0,11546.0,9912.0,6.0,21.0,-5.0,0.0,7.0,5.0,-1.0,0.0,1.3299291133880615
291,-2187.0,296.0,-2794.0,0.0,1726.0,5506.0,11486.0,10158.0,6.0,21.0,-5.0,0.0,7.0,5.0,-1.0,0.0,1.3472135066986084
292,-2187.0,296.0,-2794.0,0.0,1726.0,5506.0,11486.0,10158.0,12.0,14.0,5.0,4.0,-1.0,-3.0,-4.0,1.0,1.3513729572296143
293,-2187.0,296.0,-2794.0,0.0,1726.0,5506.0,11486.0,10158.0,10.0,35.0,-23.0,-6.0,6.0,4.0,6.0,3.0,1.3544962406158447
294,-2322.0,315.0,-2988.0,0.0,2148.0,5055.0,11405.0,10400.0,10.0,35.0,-23.0,-6.0,6.0,4.0,6.0,3.0,1.3704502582550049
295,-2322.0,315.0,-2988.0,0.0,2148.0,5055.0,11405.0,10400.0,9.0,18.0,25.0,-2.0,0.0,-1.0,-3.0,2.0,1.3738429546356201
296,-2322.0,315.0,-2988.0,0.0,2148.0,5055.0,11405.0,10400.0,3.0,-5.0,-18.0,0.0,0.0,0.0,-4.0,0.0,1.377056360244751
297,-2552.0,366.0,-3222.0,0.0,2595.0,4559.0,11294.0,10645.0,3.0,-5.0,-18.0,0.0,0.0,0.0,-4.0,0.0,1.383863925933838
298,-2552.0,366.0,-3222.0,0.0,2595.0,4559.0,11294.0,10645.0,-7.0,-11.0,13.0,2.0,-4.0,-1.0,1.0,-3.0,1.3858997821807861
299,-2552.0,366.0,-3222.0,0.0,2595.0,4559.0,11294.0,10645.0,0.0,8.0,4.0,-5.0,-2.0,-2.0,4.0,-1.0,1.3905749320983887
300,-2626.0,314.0,-3420.0,0.0,3066.0,4036.0,11162.0,10869.0,0.0,8.0,4.0,-5.0,-2.0,-2.0,4.0,-1.0,1.4076104164123535
301,-2626.0,314.0,-3420.0,0.0,3066.0,4036.0,11162.0,10869.0,-3.0,-8.0,-4.0,-3.0,-2.0,-4.0,-6.0,-1.0,1.4114677906036377
302,-2626.0,314.0,-3420.0,0.0,3066.0,4036.0,11162.0,10869.0,0.0,-5.0,2.0,-6.0,-5.0,-6.0,-4.0,-2.0,1.4144432544708252
303,-2731.0,281.0,-3500.0,0.0,3545.0,3500.0,10996.0,11076.0,0.0,-5.0,2.0,-6.0,-5.0,-6.0,-4.0,-2.0,1.4294521808624268
304,-2731.0,281.0,-3500.0,0.0,3545.0,3500.0,10996.0,11076.0,-6.0,-3.0,1.0,5.0,0.0,-2.0,-6.0,-2.0,1.4313161373138428
305,-2731.0,281.0,-3500.0,0.0,3545.0,3500.0,10996.0,11076.0,-4.0,-12.0,-8.0,3.0,-3.0,2.0,-2.0,-2.0,1.4331398010253906
306,-2886.0,299.0,-3654.0,0.0,4032.0,2933.0,10797.0,11268.0,-4.0,-12.0,-8.0,3.0,-3.0,2.0,-2.0,-2.0,1.4445037841796875
307,-2886.0,299.0,-3654.0,0.0,4032.0,2933.0,10797.0,11268.0,-5.0,-2.0,-2.0,0.0,-2.0,-2.0,-4.0,-3.0,1.4464445114135742
308,-2886.0,299.0,-3654.0,0.0,4032.0,2933.0,10797.0,11268.0,0.0,3.0,-5.0,-13.0,-3.0,-1.0,1.0,0.0,1.4507803916931152
309,-3049.0,425.0,-3783.0,0.0,4512.0,2325.0,10563.0,11448.0,0.0,3.0,-5.0,-13.0,-3.0,-1.0,1.0,0.0,1.4681284427642822
310,-3049.0,425.0,-3783.0,0.0,4512.0,2325.0,10563.0,11448.0,-6.0,-8.0,-7.0,-5.0,-3.0,-3.0,-3.0,-3.0,1.4730122089385986
311,-3049.0,425.0,-3783.0,0.0,4512.0,2325.0,10563.0,11448.0,6.0,21.0,-1.0,5.0,2.0,2.0,5.0,0.0,1.4773976802825928
312,-2988.0,427.0,-3728.0,0.0,4972.0,1721.0,10309.0,11595.0,6.0,21.0,-1.0,5.0,2.0,2.0,5.0,0.0,1.489499807357788
313,-2988.0,427.0,-3728.0,0.0,4972.0,1721.0,10309.0,11595.0,0.0,0.0,1.0,-1.0,-3.0,-1.0,-2.0,0.0,1.4915766716003418
314,-2988.0,427.0,-3728.0,0.0,4972.0,1721.0,10309.0,11595.0,-4.0,-5.0,2.0,2.0,-2.0,-1.0,-6.0,-2.0,1.4934008121490479
315,-3101.0,433.0,-3512.0,0.0,5392.0,1131.0,10011.0,11740.0,-4.0,-5.0,2.0,2.0,-2.0,-1.0,-6.0,-2.0,1.5046424865722656
316,-3101.0,433.0,-3512.0,0.0,5392.0,1131.0,10011.0,11740.0,-1.0,-3.0,0.0,-2.0,2.0,1.0,-1.0,-1.0,1.5087025165557861
317,-3101.0,433.0,-3512.0,0.0,5392.0,1131.0,10011.0,11740.0,1.0,0.0,-7.0,-4.0,1.0,2.0,1.0,-1.0,1.5120670795440674
318,-2970.0,464.0,-3434.0,0.0,5789.0,548.0,9703.0,11851.0,1.0,0.0,-7.0,-4.0,1.0,2.0,1.0,-1.0,1.5453248023986816
319,-2970.0,464.0,-3434.0,0.0,5789.0,548.0,9703.0,11851.0,-4.0,-1.0,-2.0,0.0,-1.0,-2.0,-2.0,0.0,1.5477657318115234
320,-2970.0,464.0,-3434.0,0.0,5789.0,548.0,9703.0,11851.0,-3.0,-10.0,7.0,3.0,2.0,-3.0,-1.0,0.0,1.549623727798462
321,-2740.0,444.0,-3381.0,0.0,6172.0,-22.0,9400.0,11914.0,-3.0,-10.0,7.0,3.0,2.0,-3.0,-1.0,0.0,1.5514295101165771
322,-2740.0,444.0,-3381.0,0.0,6172.0,-22.0,9400.0,11914.0,-4.0,0.0,9.0,7.0,1.0,-1.0,-1.0,-1.0,1.5535948276519775
323,-2740.0,444.0,-3381.0,0.0,6172.0,-22.0,9400.0,11914.0,-5.0,-5.0,-16.0,-3.0,-2.0,0.0,0.0,0.0,1.5554189682006836
324,-2641.0,427.0,-3283.0,0.0,6534.0,-578.0,9091.0,11947.0,-5.0,-5.0,-16.0,-3.0,-2.0,0.0,0.0,0.0,1.5631556510925293
325,-2641.0,427.0,-3283.0,0.0,6534.0,-578.0,9091.0,11947.0,3.0,10.0,-10.0,2.0,-1.0,0.0,-5.0,-3.0,1.5725584030151367
326,-2641.0,427.0,-3283.0,0.0,6534.0,-578.0,9091.0,11947.0,-1.0,2.0,6.0,-2.0,0.0,-1.0,-5.0,1.0,1.57692289352417
327,-2683.0,511.0,-3198.0,0.0,6862.0,-1138.0,8767.0,11965.0,-1.0,2.0,6.0,-2.0,0.0,-1.0,-5.0,1.0,1.5872795581817627
328,-2683.0,511.0,-3198.0,0.0,6862.0,-1138.0,8767.0,11965.0,-1.0,-4.0,9.0,-1.0,-2.0,-3.0,2.0,-1.0,1.5891849994659424
329,-2683.0,511.0,-3198.0,0.0,6862.0,-1138.0,8767.0,11965.0,0.0,3.0,-5.0,-2.0,2.0,2.0,11.0,-1.0,1.5909819602966309
330,-2850.0,539.0,-3297.0,0.0,7183.0,-1723.0,8405.0,11967.0,0.0,3.0,-5.0,-2.0,2.0,2.0,11.0,-1.0,1.6105849742889404
331,-2850.0,539.0,-3297.0,0.0,7183.0,-1723.0,8405.0,11967.0,0.0,7.0,9.0,1.0,-4.0,0.0,0.0,-1.0,1.613917350769043
332,-2850.0,539.0,-3297.0,0.0,7183.0,-1723.0,8405.0,11967.0,-2.0,1.0,11.0,5.0,-2.0,2.0,0.0,2.0,1.6170649528503418
333,-2900.0,489.0,-3422.0,0.0,7512.0,-2317.0,8006.0,11938.0,-2.0,1.0,11.0,5.0,-2.0,2.0,0.0,2.0,1.62306547164917
334,-2900.0,489.0,-3422.0,0.0,7512.0,-2317.0,8006.0,11938.0,1.0,-6.0,-1.0,15.0,7.0,2.0,0.0,0.0,1.6312801837921143
335,-2900.0,489.0,-3422.0,0.0,7512.0,-2317.0,8006.0,11938.0,3.0,20.0,1.0,1.0,0.0,0.0,-3.0,2.0,1.6330575942993164
336,-2595.0,468.0,-3354.0,0.0,7830.0,-2878.0,7619.0,11865.0,3.0,20.0,1.0,1.0,0.0,0.0,-3.0,2.0,1.6483426094055176
337,-2595.0,468.0,-3354.0,0.0,7830.0,-2878.0,7619.0,11865.0,-8.0,-7.0,0.0,-4.0,-6.0,-1.0,4.0,-3.0,1.6524357795715332
338,-2595.0,468.0,-3354.0,0.0,7830.0,-2878.0,7619.0,11865.0,-7.0,-17.0,-5.0,-3.0,-3.0,-5.0,-1.0,-2.0,1.6567599773406982
339,-2134.0,519.0,-3451.0,0.0,8158.0,-3414.0,7274.0,11717.0,-7.0,-17.0,-5.0,-3.0,-3.0,-5.0,-1.0,-2.0,1.6698963642120361
340,-2134.0,519.0,-3451.0,0.0,8158.0,-3414.0,7274.0,11717.0,-2.0,-14.0,-5.0,-2.0,-1.0,-1.0,-5.0,0.0,1.6741242408752441
341,-2134.0,519.0,-3451.0,0.0,8158.0,-3414.0,7274.0,11717.0,-1.0,-4.0,-7.0,-4.0,-3.0,-3.0,-6.0,0.0,1.6781995296478271
342,-1678.0,376.0,-3566.0,0.0,8514.0,-3898.0,6955.0,11504.0,-1.0,-4.0,-7.0,-4.0,-3.0,-3.0,-6.0,0.0,1.6835124492645264
343,-1678.0,376.0,-3566.0,0.0,8514.0,-3898.0,6955.0,11504.0,-3.0,-2.0,-3.0,-3.0,1.0,-1.0,-8.0,-1.0,1.6929123401641846
344,-1678.0,376.0,-3566.0,0.0,8514.0,-3898.0,6955.0,11504.0,4.0,12.0,-7.0,-5.0,-10.0,-4.0,-11.0,-5.0,1.694777250289917
345,-1506.0,153.0,-3655.0,0.0,8889.0,-4339.0,6621.0,11257.0,4.0,12.0,-7.0,-5.0,-10.0,-4.0,-11.0,-5.0,1.7071404457092285
346,-1506.0,153.0,-3655.0,0.0,8889.0,-4339.0,6621.0,11257.0,4.0,15.0,10.0,0.0,1.0,3.0,0.0,3.0,1.7090721130371094
347,-1506.0,153.0,-3655.0,0.0,8889.0,-4339.0,6621.0,11257.0,-5.0,-20.0,0.0,-3.0,-13.0,-7.0,12.0,0.0,1.7108709812164307
348,-1392.0,-17.0,-3649.0,0.0,9265.0,-4740.0,6271.0,10990.0,-5.0,-20.0,0.0,-3.0,-13.0,-7.0,12.0,0.0,1.729262351989746
349,-1392.0,-17.0,-3649.0,0.0,9265.0,-4740.0,6271.0,10990.0,21.0,41.0,2.0,-5.0,7.0,11.0,23.0,5.0,1.731278896331787
350,-1392.0,-17.0,-3649.0,0.0,9265.0,-4740.0,6271.0,10990.0,-2.0,3.0,16.0,10.0,7.0,7.0,5.0,-3.0,1.7330870628356934
351,-1288.0,-109.0,-3590.0,0.0,9631.0,-5108.0,5911.0,10707.0,-2.0,3.0,16.0,10.0,7.0,7.0,5.0,-3.0,1.743150234222412
352,-1288.0,-109.0,-3590.0,0.0,9631.0,-5108.0,5911.0,10707.0,-5.0,-11.0,19.0,-3.0,-2.0,-4.0,-14.0,-3.0,1.751936674118042
353,-1288.0,-109.0,-3590.0,0.0,9631.0,-5108.0,5911.0,10707.0,4.0,-5.0,-44.0,-10.0,-4.0,0.0,-1.0,2.0,1.754103183746338
354,-1235.0,-262.0,-3360.0,0.0,9967.0,-5432.0,5543.0,10433.0,4.0,-5.0,-44.0,-10.0,-4.0,0.0,-1.0,2.0,1.7680237293243408
355,-1235.0,-262.0,-3360.0,0.0,9967.0,-5432.0,5543.0,10433.0,-4.0,4.0,-4.0,-1.0,-1.0,0.0,4.0,0.0,1.7719898223876953
356,-1235.0,-262.0,-3360.0,0.0,9967.0,-5432.0,5543.0,10433.0,-2.0,-4.0,27.0,-1.0,2.0,-8.0,-11.0,-1.0,1.7755861282348633
357,-1612.0,-322.0,-3071.0,0.0,10235.0,-5766.0,5134.0,10201.0,-2.0,-4.0,27.0,-1.0,2.0,-8.0,-11.0,-1.0,1.7918453216552734
358,-1612.0,-322.0,-3071.0,0.0,10235.0,-5766.0,5134.0,10201.0,-16.0,-37.0,-7.0,1.0,-13.0,5.0,26.0,-9.0,1.7964365482330322
359,-1612.0,-322.0,-3071.0,0.0,10235.0,-5766.0,5134.0,10201.0,-2.0,5.0,0.0,5.0,-1.0,-5.0,-28.0,-3.0,1.800452709197998
360,-2016.0,-156.0,-2442.0,0.0,10388.0,-6129.0,4722.0,10032.0,-2.0,5.0,0.0,5.0,-1.0,-5.0,-28.0,-3.0,1.8033156394958496
361,-2016.0,-156.0,-2442.0,0.0,10388.0,-6129.0,4722.0,10032.0,-7.0,-10.0,6.0,-1.0,-2.0,-2.0,-9.0,-6.0,1.8122518062591553
362,-2016.0,-156.0,-2442.0,0.0,10388.0,-6129.0,4722.0,10032.0,8.0,3.0,4.0,19.0,28.0,27.0,34.0,10.0,1.8147304058074951
363,-1804.0,-66.0,-2031.0,0.0,10502.0,-6459.0,4346.0,9875.0,8.0,3.0,4.0,19.0,28.0,27.0,34.0,10.0,1.8280715942382812
364,-1804.0,-66.0,-2031.0,0.0,10502.0,-6459.0,4346.0,9875.0,17.0,16.0,-40.0,-10.0,1.0,5.0,4.0,7.0,1.8300225734710693
365,-1804.0,-66.0,-2031.0,0.0,10502.0,-6459.0,4346.0,9875.0,-13.0,-4.0,4.0,8.0,-6.0,19.0,73.0,11.0,1.8318290710449219
366,-1197.0,305.0,-1556.0,0.0,10568.0,-6701.0,4142.0,9729.0,-13.0,-4.0,4.0,8.0,-6.0,19.0,73.0,11.0,1.8496572971343994
367,-1197.0,305.0,-1556.0,0.0,10568.0,-6701.0,4142.0,9729.0,-3.0,-13.0,15.0,15.0,-29.0,-14.0,-29.0,-3.0,1.8534862995147705
368,-1197.0,305.0,-1556.0,0.0,10568.0,-6701.0,4142.0,9729.0,9.0,19.0,-4.0,-9.0,-11.0,-8.0,-17.0,-8.0,1.857407569885254
369,-561.0,823.0,-682.0,0.0,10562.0,-6884.0,4127.0,9615.0,9.0,19.0,-4.0,-9.0,-11.0,-8.0,-17.0,-8.0,1.8648066520690918
370,-561.0,823.0,-682.0,0.0,10562.0,-6884.0,4127.0,9615.0,-6.0,-7.0,10.0,-5.0,12.0,-3.0,-26.0,1.0,1.871898889541626
371,-561.0,823.0,-682.0,0.0,10562.0,-6884.0,4127.0,9615.0,1.0,-5.0,1.0,-26.0,-22.0,-15.0,-30.0,5.0,1.8792288303375244
372,-71.0,839.0,-261.0,0.0,10545.0,-6991.0,4197.0,9525.0,1.0,-5.0,1.0,-26.0,-22.0,-15.0,-30.0,5.0,1.8872478008270264
373,-71.0,839.0,-261.0,0.0,10545.0,-6991.0,4197.0,9525.0,7.0,14.0,-24.0,-7.0,-32.0,-31.0,-86.0,-13.0,1.8905868530273438
374,-71.0,839.0,-261.0,0.0,10545.0,-6991.0,4197.0,9525.0,-13.0,-14.0,-3.0,6.0,0.0,19.0,9.0,-15.0,1.8924882411956787
375,177.0,908.0,881.0,0.0,10425.0,-7024.0,4387.0,9548.0,-13.0,-14.0,-3.0,6.0,0.0,19.0,9.0,-15.0,1.9105091094970703
376,177.0,908.0,881.0,0.0,10425.0,-7024.0,4387.0,9548.0,6.0,2.0,10.0,8.0,11.0,26.0,80.0,19.0,1.9124066829681396
377,177.0,908.0,881.0,0.0,10425.0,-7024.0,4387.0,9548.0,2.0,-10.0,-21.0,-11.0,-15.0,-16.0,17.0,-3.0,1.9141967296600342
378,311.0,873.0,1922.0,0.0,10230.0,-7018.0,4612.0,9656.0,2.0,-10.0,-21.0,-11.0,-15.0,-16.0,17.0,-3.0,1.9319863319396973
379,311.0,873.0,1922.0,0.0,10230.0,-7018.0,4612.0,9656.0,2.0,-1.0,5.0,1.0,0.0,2.0,44.0,4.0,1.933988094329834
380,311.0,873.0,1922.0,0.0,10230.0,-7018.0,4612.0,9656.0,3.0,14.0,-2.0,4.0,28.0,-1.0,-11.0,-4.0,1.9365780353546143
381,127.0,618.0,2777.0,0.0,9940.0,-6950.0,4852.0,9888.0,3.0,14.0,-2.0,4.0,28.0,-1.0,-11.0,-4.0,1.9470205307006836
382,127.0,618.0,2777.0,0.0,9940.0,-6950.0,4852.0,9888.0,-11.0,-11.0,-8.0,-6.0,-2.0,-8.0,-14.0,-8.0,1.948875904083252
383,127.0,618.0,2777.0,0.0,9940.0,-6950.0,4852.0,9888.0,-7.0,-9.0,-3.0,-2.0,2.0,-21.0,1.0,-5.0,1.9506545066833496
384,-198.0,57.0,3782.0,0.0,9528.0,-6792.0,5080.0,10281.0,-7.0,-9.0,-3.0,-2.0,2.0,-21.0,1.0,-5.0,1.9701316356658936
385,-198.0,57.0,3782.0,0.0,9528.0,-6792.0,5080.0,10281.0,9.0,2.0,0.0,1.0,11.0,6.0,17.0,-6.0,1.9737324714660645
386,-198.0,57.0,3782.0,0.0,9528.0,-6792.0,5080.0,10281.0,-2.0,-5.0,10.0,1.0,2.0,10.0,26.0,18.0,1.9780395030975342
387,-606.0,-605.0,4523.0,0.0,9020.0,-6548.0,5241.0,10804.0,-2.0,-5.0,10.0,1.0,2.0,10.0,26.0,18.0,1.9834632873535156
388,-606.0,-605.0,4523.0,0.0,9020.0,-6548.0,5241.0,10804.0,4.0,3.0,-11.0,-3.0,26.0,12.0,-18.0,7.0,1.991816520690918
389,-606.0,-605.0,4523.0,0.0,9020.0,-6548.0,5241.0,10804.0,-7.0,-6.0,-6.0,-2.0,4.0,-3.0,-35.0,-22.0,1.9937589168548584
390,-353.0,-1286.0,4861.0,0.0,8502.0,-6159.0,5379.0,11369.0,-7.0,-6.0,-6.0,-2.0,4.0,-3.0,-35.0,-22.0,2.0080647468566895
391,-353.0,-1286.0,4861.0,0.0,8502.0,-6159.0,5379.0,11369.0,-7.0,-4.0,-6.0,-4.0,-11.0,-29.0,7.0,2.0,2.012270450592041
392,-353.0,-1286.0,4861.0,0.0,8502.0,-6159.0,5379.0,11369.0,8.0,5.0,9.0,2.0,-1.0,-12.0,-12.0,8.0,2.0157265663146973
393,629.0,-1959.0,5353.0,0.0,7989.0,-5538.0,5607.0,11936.0,8.0,5.0,9.0,2.0,-1.0,-12.0,-12.0,8.0,2.0306098461151123
394,629.0,-1959.0,5353.0,0.0,7989.0,-5538.0,5607.0,11936.0,-7.0,-4.0,3.0,0.0,10.0,34.0,12.0,-9.0,2.0343058109283447
395,629.0,-1959.0,5353.0,0.0,7989.0,-5538.0,5607.0,11936.0,-1.0,3.0,6.0,2.0,9.0,-1.0,-13.0,-1.0,2.0377860069274902
396,1724.0,-2254.0,5836.0,0.0,7446.0,-4713.0,5983.0,12449.0,-1.0,3.0,6.0,2.0,9.0,-1.0,-13.0,-1.0,2.0437209606170654
397,1724.0,-2254.0,5836.0,0.0,7446.0,-4713.0,5983.0,12449.0,-9.0,-3.0,17.0,2.0,1.0,7.0,-17.0,-2.0,2.0514252185821533
398,1724.0,-2254.0,5836.0,0.0,7446.0,-4713.0,5983.0,12449.0,-7.0,3.0,29.0,0.0,-8.0,-17.0,-35.0,-8.0,2.0534520149230957
399,2817.0,-2314.0,6347.0,0.0,6835.0,-3706.0,6512.0,12867.0,-7.0,3.0,29.0,0.0,-8.0,-17.0,-35.0,-8.0,2.0668816566467285
400,2817.0,-2314.0,6347.0,0.0,6835.0,-3706.0,6512.0,12867.0,4.0,9.0,9.0,0.0,-3.0,-9.0,-7.0,1.0,2.068772792816162
401,2817.0,-2314.0,6347.0,0.0,6835.0,-3706.0,6512.0,12867.0,7.0,-1.0,-27.0,0.0,4.0,20.0,35.0,8.0,2.0706241130828857
402,3919.0,-2401.0,6513.0,0.0,6226.0,-2605.0,7119.0,13122.0,7.0,-1.0,-27.0,0.0,4.0,20.0,35.0,8.0,2.0927846431732178
403,3919.0,-2401.0,6513.0,0.0,6226.0,-2605.0,7119.0,13122.0,-10.0,-4.0,-5.0,-2.0,5.0,-11.0,-12.0,-10.0,2.0972821712493896
404,3919.0,-2401.0,6513.0,0.0,6226.0,-2605.0,7119.0,13122.0,-7.0,-4.0,2.0,8.0,-19.0,-1.0,-7.0,-6.0,2.099701166152954
405,4497.0,-1807.0,6902.0,0.0,5483.0,-1498.0,7804.0,13237.0,-7.0,-4.0,2.0,8.0,-19.0,-1.0,-7.0,-6.0,2.1033809185028076
406,4497.0,-1807.0,6902.0,0.0,5483.0,-1498.0,7804.0,13237.0,-5.0,-6.0,-19.0,-8.0,-1.0,-1.0,-13.0,-5.0,2.11102294921875
407,4497.0,-1807.0,6902.0,0.0,5483.0,-1498.0,7804.0,13237.0,27.0,9.0,-23.0,-29.0,-34.0,-14.0,-24.0,5.0,2.113258123397827
408,3686.0,-1727.0,6550.0,0.0,4728.0,-469.0,8310.0,13296.0,27.0,9.0,-23.0,-29.0,-34.0,-14.0,-24.0,5.0,2.127401828765869
409,3686.0,-1727.0,6550.0,0.0,4728.0,-469.0,8310.0,13296.0,-3.0,-16.0,-42.0,32.0,18.0,17.0,4.0,3.0,2.129713296890259
410,3686.0,-1727.0,6550.0,0.0,4728.0,-469.0,8310.0,13296.0,-10.0,-25.0,16.0,4.0,16.0,29.0,27.0,3.0,2.1329543590545654
411,3335.0,-2072.0,5524.0,0.0,4120.0,503.0,8692.0,13253.0,-10.0,-25.0,16.0,4.0,16.0,29.0,27.0,3.0,2.149386405944824
412,3335.0,-2072.0,5524.0,0.0,4120.0,503.0,8692.0,13253.0,7.0,23.0,31.0,-17.0,-47.0,-22.0,-20.0,3.0,2.152432680130005
413,3335.0,-2072.0,5524.0,0.0,4120.0,503.0,8692.0,13253.0,7.0,1.0,-38.0,-42.0,-19.0,-10.0,9.0,-6.0,2.155505418777466
414,3597.0,-2309.0,4960.0,0.0,3593.0,1465.0,9058.0,13089.0,7.0,1.0,-38.0,-42.0,-19.0,-10.0,9.0,-6.0,2.1636102199554443
415,3597.0,-2309.0,4960.0,0.0,3593.0,1465.0,9058.0,13089.0,-21.0,-22.0,-39.0,4.0,-56.0,-83.0,-32.0,-11.0,2.179790496826172
416,3597.0,-2309.0,4960.0,0.0,3593.0,1465.0,9058.0,13089.0,2.0,23.0,80.0,43.0,6.0,6.0,37.0,7.0,2.18537974357605
417,3229.0,-2202.0,4484.0,0.0,3112.0,2344.0,9341.0,12883.0,2.0,23.0,80.0,43.0,6.0,6.0,37.0,7.0,2.189260482788086
418,3229.0,-2202.0,4484.0,0.0,3112.0,2344.0,9341.0,12883.0,2.0,0.0,-15.0,-18.0,-56.0,1.0,4.0,-18.0,2.1926517486572266
419,3229.0,-2202.0,4484.0,0.0,3112.0,2344.0,9341.0,12883.0,37.0,29.0,-9.0,-7.0,33.0,-62.0,-18.0,6.0,2.19450044631958
420,1627.0,-1855.0,3357.0,0.0,2785.0,2999.0,9411.0,12770.0,37.0,29.0,-9.0,-7.0,33.0,-62.0,-18.0,6.0,2.209301471710205
421,1627.0,-1855.0,3357.0,0.0,2785.0,2999.0,9411.0,12770.0,30.0,30.0,-68.0,-66.0,-18.0,-25.0,-64.0,-10.0,2.2116928100585938
422,1627.0,-1855.0,3357.0,0.0,2785.0,2999.0,9411.0,12770.0,-59.0,-97.0,-44.0,4.0,-10.0,9.0,-38.0,-6.0,2.2144548892974854
423,1518.0,-1956.0,2252.0,0.0,2620.0,3547.0,9483.0,12611.0,-59.0,-97.0,-44.0,4.0,-10.0,9.0,-38.0,-6.0,2.2238385677337646
424,1518.0,-1956.0,2252.0,0.0,2620.0,3547.0,9483.0,12611.0,76.0,48.0,-23.0,-27.0,15.0,95.0,96.0,49.0,2.231682300567627
425,1518.0,-1956.0,2252.0,0.0,2620.0,3547.0,9483.0,12611.0,20.0,23.0,-113.0,-30.0,-25.0,-16.0,-50.0,-17.0,2.2335431575775146
426,1360.0,-2031.0,1531.0,0.0,2566.0,4018.0,9534.0,12441.0,20.0,23.0,-113.0,-30.0,-25.0,-16.0,-50.0,-17.0,2.2467291355133057
427,1360.0,-2031.0,1531.0,0.0,2566.0,4018.0,9534.0,12441.0,-30.0,-9.0,31.0,18.0,68.0,9.0,48.0,61.0,2.248652696609497
428,1360.0,-2031.0,1531.0,0.0,2566.0,4018.0,9534.0,12441.0,-11.0,-30.0,-19.0,16.0,71.0,21.0,30.0,6.0,2.2530767917633057
429,1710.0,-1261.0,919.0,0.0,2501.0,4321.0,9669.0,12247.0,-11.0,-30.0,-19.0,16.0,71.0,21.0,30.0,6.0,2.271164894104004
430,1710.0,-1261.0,919.0,0.0,2501.0,4321.0,9669.0,12247.0,31.0,17.0,-33.0,-49.0,41.0,-1.0,-9.0,-15.0,2.2752811908721924
431,1710.0,-1261.0,919.0,0.0,2501.0,4321.0,9669.0,12247.0,-15.0,-18.0,-18.0,-7.0,35.0,33.0,18.0,12.0,2.2793426513671875
432,2568.0,-560.0,1044.0,0.0,2317.0,4549.0,9928.0,11991.0,-15.0,-18.0,-18.0,-7.0,35.0,33.0,18.0,12.0,2.292982578277588
433,2568.0,-560.0,1044.0,0.0,2317.0,4549.0,9928.0,11991.0,58.0,38.0,-35.0,-40.0,22.0,48.0,92.0,47.0,2.2962231636047363
434,2568.0,-560.0,1044.0,0.0,2317.0,4549.0,9928.0,11991.0,-6.0,-11.0,14.0,-85.0,-95.0,-2.0,13.0,-18.0,2.2994065284729004
435,2879.0,-674.0,870.0,0.0,2136.0,4792.0,10219.0,11682.0,-6.0,-11.0,14.0,-85.0,-95.0,-2.0,13.0,-18.0,2.314365863800049
436,2879.0,-674.0,870.0,0.0,2136.0,4792.0,10219.0,11682.0,-61.0,-63.0,119.0,11.0,-55.0,-54.0,-49.0,-44.0,2.316220998764038
437,2879.0,-674.0,870.0,0.0,2136.0,4792.0,10219.0,11682.0,-61.0,-63.0,119.0,11.0,-55.0,-54.0,-49.0,-44.0,2.3179993629455566
438,2879.0,-674.0,870.0,0.0,2136.0,4792.0,10219.0,11682.0,-35.0,-3.0,8.0,-34.0,-85.0,9.0,65.0,-9.0,2.3299524784088135
439,1764.0,-202.0,897.0,0.0,1947.0,4960.0,10379.0,11502.0,-35.0,-3.0,8.0,-34.0,-85.0,9.0,65.0,-9.0,2.331895112991333
440,1764.0,-202.0,897.0,0.0,1947.0,4960.0,10379.0,11502.0,-22.0,-51.0,6.0,77.0,24.0,20.0,34.0,-4.0,2.333770751953125
441,1764.0,-202.0,897.0,0.0,1947.0,4960.0,10379.0,11502.0,37.0,59.0,1.0,15.0,-2.0,-5.0,-4.0,1.0,2.3362700939178467
442,641.0,-25.0,1563.0,0.0,1709.0,5162.0,10374.0,11455.0,37.0,59.0,1.0,15.0,-2.0,-5.0,-4.0,1.0,2.3519723415374756
443,641.0,-25.0,1563.0,0.0,1709.0,5162.0,10374.0,11455.0,13.0,38.0,70.0,85.0,4.0,-7.0,-24.0,4.0,2.3548617362976074
444,641.0,-25.0,1563.0,0.0,1709.0,5162.0,10374.0,11455.0,12.0,21.0,-15.0,45.0,15.0,14.0,6.0,6.0,2.357848882675171
445,922.0,-311.0,961.0,0.0,1545.0,5352.0,10422.0,11347.0,12.0,21.0,-15.0,45.0,15.0,14.0,6.0,6.0,2.366854190826416
446,922.0,-311.0,961.0,0.0,1545.0,5352.0,10422.0,11347.0,-74.0,-77.0,-1.0,20.0,54.0,-44.0,-128.0,-44.0,2.3695051670074463
447,922.0,-311.0,961.0,0.0,1545.0,5352.0,10422.0,11347.0,-13.0,30.0,73.0,7.0,15.0,-10.0,-24.0,-5.0,2.373405933380127
448,1690.0,-109.0,1216.0,0.0,1304.0,5537.0,10562.0,11157.0,-13.0,30.0,73.0,7.0,15.0,-10.0,-24.0,-5.0,2.390352725982666
449,1690.0,-109.0,1216.0,0.0,1304.0,5537.0,10562.0,11157.0,34.0,64.0,-37.0,13.0,29.0,23.0,-1.0,8.0,2.393674612045288
450,1690.0,-109.0,1216.0,0.0,1304.0,5537.0,10562.0,11157.0,14.0,8.0,37.0,51.0,64.0,4.0,-12.0,9.0,2.3969998359680176
451,1538.0,-151.0,1239.0,0.0,1097.0,5713.0,10699.0,10959.0,14.0,8.0,37.0,51.0,64.0,4.0,-12.0,9.0,2.4119622707366943
452,1538.0,-151.0,1239.0,0.0,1097.0,5713.0,10699.0,10959.0,26.0,-15.0,70.0,50.0,23.0,10.0,-10.0,8.0,2.4138360023498535
453,1538.0,-151.0,1239.0,0.0,1097.0,5713.0,10699.0,10959.0,-53.0,-70.0,20.0,20.0,-26.0,-15.0,-25.0,-19.0,2.4156086444854736
454,1045.0,-237.0,875.0,0.0,950.0,5856.0,10760.0,10836.0,-53.0,-70.0,20.0,20.0,-26.0,-15.0,-25.0,-19.0,2.426283836364746
455,1045.0,-237.0,875.0,0.0,950.0,5856.0,10760.0,10836.0,-46.0,-67.0,-97.0,-24.0,26.0,19.0,14.0,-41.0,2.4287571907043457
456,1045.0,-237.0,875.0,0.0,950.0,5856.0,10760.0,10836.0,14.0,15.0,-37.0,-41.0,0.0,6.0,8.0,-1.0,2.43300461769104
457,586.0,76.0,1034.0,0.0,805.0,5963.0,10787.0,10763.0,14.0,15.0,-37.0,-41.0,0.0,6.0,8.0,-1.0,2.4495511054992676
458,586.0,76.0,1034.0,0.0,805.0,5963.0,10787.0,10763.0,0.0,-8.0,3.0,-20.0,-15.0,-7.0,-21.0,-6.0,2.451421022415161
459,586.0,76.0,1034.0,0.0,805.0,5963.0,10787.0,10763.0,63.0,108.0,-84.0,1.0,43.0,13.0,3.0,24.0,2.453500986099243
460,448.0,-3.0,986.0,0.0,700.0,6057.0,10801.0,10703.0,63.0,108.0,-84.0,1.0,43.0,13.0,3.0,24.0,2.472057580947876
461,448.0,-3.0,986.0,0.0,700.0,6057.0,10801.0,10703.0,-67.0,-43.0,8.0,1.0,-57.0,-1.0,58.0,1.0,2.475867509841919
462,448.0,-3.0,986.0,0.0,700.0,6057.0,10801.0,10703.0,54.0,5.0,21.0,2.0,-13.0,-32.0,-14.0,19.0,2.479114055633545
463,564.0,-178.0,531.0,0.0,639.0,6123.0,10821.0,10650.0,54.0,5.0,21.0,2.0,-13.0,-32.0,-14.0,19.0,2.486515760421753
464,564.0,-178.0,531.0,0.0,639.0,6123.0,10821.0,10650.0,9.0,-16.0,86.0,0.0,-26.0,36.0,49.0,-9.0,2.493891477584839
465,564.0,-178.0,531.0,0.0,639.0,6123.0,10821.0,10650.0,2.0,-5.0,-4.0,9.0,25.0,3.0,-44.0,-17.0,2.4956860542297363
466,322.0,-16.0,-39.0,0.0,633.0,6110.0,10854.0,10624.0,2.0,-5.0,-4.0,9.0,25.0,3.0,-44.0,-17.0,2.511051654815674
467,322.0,-16.0,-39.0,0.0,633.0,6110.0,10854.0,10624.0,9.0,3.0,-56.0,30.0,19.0,-10.0,-12.0,33.0,2.514631748199463
468,322.0,-16.0,-39.0,0.0,633.0,6110.0,10854.0,10624.0,-28.0,-51.0,94.0,-25.0,-14.0,-83.0,-44.0,18.0,2.5178956985473633
469,-133.0,156.0,58.0,0.0,631.0,6100.0,10866.0,10617.0,-28.0,-51.0,94.0,-25.0,-14.0,-83.0,-44.0,18.0,2.5319976806640625
470,-133.0,156.0,58.0,0.0,631.0,6100.0,10866.0,10617.0,28.0,45.0,28.0,-34.0,-3.0,35.0,17.0,-7.0,2.533867835998535
471,-133.0,156.0,58.0,0.0,631.0,6100.0,10866.0,10617.0,-74.0,-11.0,99.0,42.0,-37.0,-4.0,-3.0,-19.0,2.535733938217163
472,-512.0,32.0,162.0,0.0,647.0,6114.0,10811.0,10664.0,-74.0,-11.0,99.0,42.0,-37.0,-4.0,-3.0,-19.0,2.5453922748565674
473,-512.0,32.0,162.0,0.0,647.0,6114.0,10811.0,10664.0,-31.0,-38.0,18.0,-60.0,-10.0,-34.0,-14.0,-10.0,2.5555942058563232
474,-512.0,32.0,162.0,0.0,647.0,6114.0,10811.0,10664.0,-37.0,-89.0,8.0,-32.0,-5.0,-3.0,4.0,-21.0,2.559769868850708
475,-379.0,59.0,-65.0,0.0,672.0,6103.0,10783.0,10697.0,-37.0,-89.0,8.0,-32.0,-5.0,-3.0,4.0,-21.0,2.570772886276245
476,-379.0,59.0,-65.0,0.0,672.0,6103.0,10783.0,10697.0,34.0,65.0,-57.0,9.0,20.0,16.0,6.0,16.0,2.5728771686553955
477,-379.0,59.0,-65.0,0.0,672.0,6103.0,10783.0,10697.0,-15.0,-14.0,-6.0,-11.0,4.0,-25.0,28.0,-27.0,2.574681520462036
478,-346.0,-114.0,-240.0,0.0,717.0,6108.0,10767.0,10708.0,-15.0,-14.0,-6.0,-11.0,4.0,-25.0,28.0,-27.0,2.593431234359741
479,-346.0,-114.0,-240.0,0.0,717.0,6108.0,10767.0,10708.0,7.0,10.0,28.0,6.0,-22.0,-19.0,42.0,9.0,2.5965847969055176
480,-346.0,-114.0,-240.0,0.0,717.0,6108.0,10767.0,10708.0,37.0,19.0,-45.0,-26.0,-25.0,5.0,-23.0,1.0,2.599560499191284
481,-417.0,97.0,-114.0,0.0,721.0,6110.0,10737.0,10736.0,37.0,19.0,-45.0,-26.0,-25.0,5.0,-23.0,1.0,2.6058428287506104
482,-417.0,97.0,-114.0,0.0,721.0,6110.0,10737.0,10736.0,-3.0,34.0,21.0,25.0,2.0,6.0,-5.0,-5.0,2.614525556564331
483,-417.0,97.0,-114.0,0.0,721.0,6110.0,10737.0,10736.0,29.0,60.0,10.0,46.0,24.0,44.0,57.0,15.0,2.6167261600494385
484,-143.0,101.0,-226.0,0.0,734.0,6091.0,10755.0,10728.0,29.0,60.0,10.0,46.0,24.0,44.0,57.0,15.0,2.6295676231384277
485,-143.0,101.0,-226.0,0.0,734.0,6091.0,10755.0,10728.0,11.0,10.0,-41.0,-16.0,44.0,14.0,93.0,18.0,2.631420373916626
486,-143.0,101.0,-226.0,0.0,734.0,6091.0,10755.0,10728.0,21.0,20.0,13.0,-45.0,0.0,27.0,127.0,9.0,2.6331942081451416
487,18.0,-126.0,-299.0,0.0,756.0,6097.0,10778.0,10700.0,21.0,20.0,13.0,-45.0,0.0,27.0,127.0,9.0,2.6518263816833496
488,18.0,-126.0,-299.0,0.0,756.0,6097.0,10778.0,10700.0,-18.0,2.0,11.0,19.0,66.0,-40.0,-14.0,-44.0,2.653721809387207
489,18.0,-126.0,-299.0,0.0,756.0,6097.0,10778.0,10700.0,-19.0,-26.0,57.0,-17.0,-30.0,11.0,-89.0,-3.0,2.6554996967315674
490,-202.0,3.0,-55.0,0.0,750.0,6112.0,10756.0,10714.0,-19.0,-26.0,57.0,-17.0,-30.0,11.0,-89.0,-3.0,2.665670156478882
491,-202.0,3.0,-55.0,0.0,750.0,6112.0,10756.0,10714.0,-23.0,-56.0,-66.0,-17.0,-24.0,10.0,-128.0,-16.0,2.6754446029663086
492,-202.0,3.0,-55.0,0.0,750.0,6112.0,10756.0,10714.0,38.0,-24.0,-116.0,16.0,29.0,6.0,-121.0,11.0,2.6792891025543213
493,-90.0,5.0,56.0,0.0,722.0,6139.0,10734.0,10722.0,38.0,-24.0,-116.0,16.0,29.0,6.0,-121.0,11.0,2.6895978450775146
494,-90.0,5.0,56.0,0.0,722.0,6139.0,10734.0,10722.0,-1.0,-19.0,26.0,-17.0,-70.0,-23.0,-69.0,5.0,2.693626642227173
495,-90.0,5.0,56.0,0.0,722.0,6139.0,10734.0,10722.0,-20.0,-25.0,-10.0,29.0,17.0,1.0,-70.0,-5.0,2.696808099746704
496,37.0,-92.0,-21.0,0.0,717.0,6163.0,10740.0,10703.0,-20.0,-25.0,-10.0,29.0,17.0,1.0,-70.0,-5.0,2.710994005203247
497,37.0,-92.0,-21.0,0.0,717.0,6163.0,10740.0,10703.0,-8.0,-10.0,41.0,19.0,-5.0,-33.0,-36.0,-12.0,2.7198219299316406
498,37.0,-92.0,-21.0,0.0,717.0,6163.0,10740.0,10703.0,-21.0,-13.0,-4.0,55.0,105.0,34.0,81.0,6.0,2.7231760025024414
499,-177.0,12.0,-14.0,0.0,726.0,6168.0,10733.0,10707.0,-21.0,-13.0,-4.0,55.0,105.0,34.0,81.0,6.0,2.7277162075042725
