Gyro 0,Gyro 1,Gyro 2,Orientation 0,Orientation 1,Orientation 2,Orientation 3,Sensor 0,Sensor 1,Sensor 2,Sensor 3,Sensor 4,Sensor 5,Sensor 6,Sensor 7,Sensor Mean,Sensor Variance,Gyro Mean,Gyro Variance,Orientation Mean,Orientation Variance,Label
-19.79944813746394,27.397449521785354,-24.386006861420096,-127.0,123.3829838370486,108.94958433896488,-121.52534343912839,52.5959595959596,7.227642276422752,19.197674418604645,-7.215909090909096,-5.0,9.251655629139076,19.977528089887635,-29.790123456790116,18.782061569714116,259.1733353359617,23.86096817355646,821.6850040962152,59.59448546106848,3409.894739417749,0
-19.79944813746394,27.397449521785354,-24.386006861420096,-127.0,123.3829838370486,108.94958433896488,-121.52534343912839,24.373737373737377,23.747967479674784,-4.43023255813954,-14.431818181818187,-7.0,5.88741721854305,1.426966292134824,-32.92592592592592,14.278008128746709,132.12453613129438,23.86096817355646,821.6850040962152,59.59448546106848,3409.894739417749,0
-19.79944813746394,27.397449521785354,-24.386006861420096,-127.0,123.3829838370486,108.94958433896488,-121.52534343912839,55.161616161616166,42.333333333333314,-28.058139534883725,-12.988636363636369,5.0,0.8410596026490103,-7.134831460674164,-32.92592592592592,23.05544279783983,385.59730512709183,23.86096817355646,821.6850040962152,59.59448546106848,3409.894739417749,0
-21.583469208578954,27.397449521785354,-24.25397650483417,-126.95896938857928,123.3829838370486,108.88146956288551,-121.28469919469444,55.161616161616166,42.333333333333314,-28.058139534883725,-12.988636363636369,5.0,0.8410596026490103,-7.134831460674164,-32.92592592592592,23.05544279783983,385.59730512709183,24.41163174506616,845.6886365788756,59.536798471732936,3411.7822040074057,0
-21.583469208578954,27.397449521785354,-24.25397650483417,-126.95896938857928,123.3829838370486,108.88146956288551,-121.28469919469444,6.414141414141419,-44.398373983739845,-4.43023255813954,-24.534090909090914,-39.0,-2.5231788079470157,11.415730337078644,-51.74074074074073,23.057061093859765,387.95292175340484,24.41163174506616,845.6886365788756,59.536798471732936,3411.7822040074057,0
-21.20117897905431,26.22777187389304,-23.80507329244203,-126.9384540828689,123.41350718019588,108.7792973987664,-121.22453813358595,6.414141414141419,-44.398373983739845,-4.43023255813954,-24.534090909090914,-39.0,-2.5231788079470157,11.415730337078644,-51.74074074074073,23.057061093859765,387.95292175340484,23.744674715129793,793.2618733408412,58.99043308306799,3464.167535446181,0
-21.20117897905431,26.22777187389304,-23.80507329244203,-126.9384540828689,123.41350718019588,108.7792973987664,-121.22453813358595,16.676767676767682,-1.032520325203265,-10.337209302325586,-20.20454545454546,-1.0,0.8410596026490103,-5.707865168539334,-51.74074074074073,13.442588533846383,294.28972829533086,23.744674715129793,793.2618733408412,58.99043308306799,3464.167535446181,0
-21.20117897905431,26.22777187389304,-23.80507329244203,-126.9384540828689,123.41350718019588,108.7792973987664,-121.22453813358595,39.767676767676775,40.26829268292681,13.290697674418599,-11.54545454545455,3.0,7.569536423841063,7.13483146067415,-29.790123456790116,19.045826626472756,230.80724836569127,23.744674715129793,793.2618733408412,58.99043308306799,3464.167535446181,0
-21.424181612943684,24.068366985476462,-23.567418650587367,-126.79484694289637,123.48981553806404,108.67712523464735,-121.22453813358595,39.767676767676775,40.26829268292681,13.290697674418599,-11.54545454545455,3.0,7.569536423841063,7.13483146067415,-29.790123456790116,19.045826626472756,230.80724836569127,23.019989083002503,723.8889193573618,58.14354419298673,3534.8137642533693,0
-21.424181612943684,24.068366985476462,-23.567418650587367,-126.79484694289637,123.48981553806404,108.67712523464735,-121.22453813358595,19.24242424242425,11.35772357723576,-1.476744186046517,-14.431818181818187,-13.0,4.205298013245036,7.13483146067415,-39.197530864197525,13.755796315705178,138.56974913931634,23.019989083002503,723.8889193573618,58.14354419298673,3534.8137642533693,0
-21.424181612943684,24.068366985476462,-23.567418650587367,-126.79484694289637,123.48981553806404,108.67712523464735,-121.22453813358595,19.24242424242425,-23.747967479674806,-44.30232558139535,-20.20454545454546,-17.0,0.8410596026490103,1.426966292134824,-42.33333333333333,21.137327748269627,259.24546993556186,23.019989083002503,723.8889193573618,58.14354419298673,3534.8137642533693,0
-23.30377524143986,22.89868933758415,-23.329764008732706,-126.5076326629513,123.61190891065313,108.43872351836956,-121.04405495026049,19.24242424242425,-23.747967479674806,-44.30232558139535,-20.20454545454546,-17.0,0.8410596026490103,1.426966292134824,-42.33333333333333,21.137327748269627,259.24546993556186,23.17740952925224,711.9563845640978,57.57869533642272,3563.4452570664043,0
-23.30377524143986,22.89868933758415,-23.329764008732706,-126.5076326629513,123.61190891065313,108.43872351836956,-121.04405495026049,39.767676767676775,42.333333333333314,-33.965116279069775,-17.318181818181824,-3.0,4.205298013245036,11.415730337078644,-39.197530864197525,23.90035842659786,278.6800807068431,23.17740952925224,711.9563845640978,57.57869533642272,3563.4452570664043,0
-23.30377524143986,22.89868933758415,-23.329764008732706,-126.5076326629513,123.61190891065313,108.43872351836956,-121.04405495026049,32.07070707070707,-40.26829268292684,20.67441860465116,-11.54545454545455,-27.0,5.88741721854305,-5.707865168539334,-51.74074074074073,24.361862003945344,276.59112131546095,23.17740952925224,711.9563845640978,57.57869533642272,3563.4452570664043,0
-25.119653831681926,22.26886291179598,-22.696018297120272,-126.15887246587513,123.825572312684,107.92786269777423,-120.5627664613927,32.07070707070707,-40.26829268292684,20.67441860465116,-11.54545454545455,-27.0,5.88741721854305,-5.707865168539334,-51.74074074074073,24.361862003945344,276.59112131546095,23.361511680199396,712.2310117472043,57.04125122493047,3582.979789935817,0
-25.119653831681926,22.26886291179598,-22.696018297120272,-126.15887246587513,123.825572312684,107.92786269777423,-120.5627664613927,75.68686868686869,112.54471544715446,17.720930232558132,-10.102272727272734,-9.0,5.88741721854305,11.415730337078644,-29.790123456790116,34.018507263283226,1526.609099156589,23.361511680199396,712.2310117472043,57.04125122493047,3582.979789935817,0
-25.119653831681926,22.26886291179598,-22.696018297120272,-126.15887246587513,123.825572312684,107.92786269777423,-120.5627664613927,21.808080808080813,25.813008130081286,-5.906976744186052,-12.988636363636369,11.0,14.298013245033115,-1.4269662921348392,-39.197530864197525,16.55490155591875,145.2712204704311,23.361511680199396,712.2310117472043,57.04125122493047,3582.979789935817,0
-25.597516618587733,19.83953241232733,-22.273521156045316,-125.87165818593004,124.14606741573034,107.21265754894074,-120.20180009474177,21.808080808080813,25.813008130081286,-5.906976744186052,-12.988636363636369,11.0,14.298013245033115,-1.4269662921348392,-39.197530864197525,16.55490155591875,145.2712204704311,22.570190062320126,641.5139418875676,55.994903918100896,3663.5516655560705,0
-25.597516618587733,19.83953241232733,-22.273521156045316,-125.87165818593004,124.14606741573034,107.21265754894074,-120.20180009474177,44.8989898989899,19.617886178861774,29.534883720930225,-24.534090909090914,-37.0,2.523178807947023,12.842696629213474,-29.790123456790116,25.09273120022793,180.80045658618909,22.570190062320126,641.5139418875676,55.994903918100896,3663.5516655560705,0
-25.597516618587733,19.83953241232733,-22.273521156045316,-125.87165818593004,124.14606741573034,107.21265754894074,-120.20180009474177,60.2929292929293,19.617886178861774,-22.15116279069768,-23.090909090909093,-5.0,9.251655629139076,1.426966292134824,-23.518518518518512,20.543753474148783,333.3352142865332,22.570190062320126,641.5139418875676,55.994903918100896,3663.5516655560705,0
-26.33023955850997,19.38965639390721,-22.03586651419065,-125.6254745174057,124.51234753349756,106.32716545990883,-119.54002842254852,60.2929292929293,19.617886178861774,-22.15116279069768,-23.090909090909093,-5.0,9.251655629139076,1.426966292134824,-23.518518518518512,20.543753474148783,333.3352142865332,22.58525415553594,637.4707456588282,55.68366580850119,3670.6430611049163,0
-26.33023955850997,19.38965639390721,-22.03586651419065,-125.6254745174057,124.51234753349756,106.32716545990883,-119.54002842254852,21.808080808080813,-38.20325203252034,-7.383720930232563,-10.102272727272734,-3.0,0.8410596026490103,7.13483146067415,-39.197530864197525,15.95884355320339,235.89117572228352,22.58525415553594,637.4707456588282,55.68366580850119,3670.6430611049163,0
-26.33023955850997,19.38965639390721,-22.03586651419065,-125.6254745174057,124.51234753349756,106.32716545990883,-119.54002842254852,80.81818181818183,56.78861788617885,1.4767441860465063,-10.102272727272734,5.0,10.933774834437088,11.415730337078644,-26.654320987654312,25.398705347106244,812.1896590807626,22.58525415553594,637.4707456588282,55.68366580850119,3670.6430611049163,0
-25.470086542079517,18.759829968119043,-22.405551512631238,-125.48186737743316,124.84810430811753,105.44167337087691,-118.87825675035526,80.81818181818183,56.78861788617885,1.4767441860465063,-10.102272727272734,5.0,10.933774834437088,11.415730337078644,-26.654320987654312,25.398705347106244,812.1896590807626,22.2118226742766,610.044253650258,55.549082952727815,3671.2685744392634,0
-25.470086542079517,18.759829968119043,-22.405551512631238,-125.48186737743316,124.84810430811753,105.44167337087691,-118.87825675035526,16.676767676767682,-34.07317073170733,-2.9534883720930285,-18.76136363636364,-15.0,9.251655629139076,12.842696629213474,-51.74074074074073,20.16248542700312,242.89044216496444,22.2118226742766,610.044253650258,55.549082952727815,3671.2685744392634,0
-25.470086542079517,18.759829968119043,-22.405551512631238,-125.48186737743316,124.84810430811753,105.44167337087691,-118.87825675035526,29.505050505050512,27.87804878048779,-11.813953488372098,-18.76136363636364,-3.0,-0.8410596026490031,-1.4269662921348392,-51.74074074074073,18.12089788072483,314.45774543707296,22.2118226742766,610.044253650258,55.549082952727815,3671.2685744392634,0
-22.73033989715289,17.320226709174655,-23.25054579478115,-125.44083676601244,125.15333773959021,104.93081255028159,-118.93841781146375,29.505050505050512,27.87804878048779,-11.813953488372098,-18.76136363636364,-3.0,-0.8410596026490031,-1.4269662921348392,-51.74074074074073,18.12089788072483,314.45774543707296,21.100370800369564,541.7176802052572,55.33720308998941,3694.6817620507995,0
-22.73033989715289,17.320226709174655,-23.25054579478115,-125.44083676601244,125.15333773959021,104.93081255028159,-118.93841781146375,3.8484848484848513,-50.59349593495936,-7.383720930232563,-7.215909090909096,-7.0,7.569536423841063,15.696629213483138,-45.469135802469125,18.0971140305474,354.45448805961576,21.100370800369564,541.7176802052572,55.33720308998941,3694.6817620507995,0
-22.73033989715289,17.320226709174655,-23.25054579478115,-125.44083676601244,125.15333773959021,104.93081255028159,-118.93841781146375,19.24242424242425,-25.813008130081315,-16.244186046511633,-7.215909090909096,1.0,9.251655629139076,1.426966292134824,-42.33333333333333,15.315935345566691,193.80609649779663,21.100370800369564,541.7176802052572,55.33720308998941,3694.6817620507995,0
-21.71089928508717,17.23025150549063,-24.227570433516988,-125.35877554317099,125.35173947004746,104.62429605792437,-119.05873993368073,19.24242424242425,-25.813008130081315,-16.244186046511633,-7.215909090909096,1.0,9.251655629139076,1.426966292134824,-42.33333333333333,15.315935345566691,193.80609649779663,21.056240408031595,540.2496430817198,55.60553249405954,3661.376804946441,0
-21.71089928508717,17.23025150549063,-24.227570433516988,-125.35877554317099,125.35173947004746,104.62429605792437,-119.05873993368073,44.8989898989899,36.13821138211381,4.430232558139529,-23.090909090909093,-21.0,-5.8874172185430425,-4.2808988764045015,-42.33333333333333,22.75749904480415,288.22506351771136,21.056240408031595,540.2496430817198,55.60553249405954,3661.376804946441,0
-21.71089928508717,17.23025150549063,-24.227570433516988,-125.35877554317099,125.35173947004746,104.62429605792437,-119.05873993368073,29.505050505050512,23.747967479674784,13.290697674418599,-25.977272727272734,-25.0,0.8410596026490103,11.415730337078644,-36.06172839506172,20.729938340150753,129.22958489612378,21.056240408031595,540.2496430817198,55.60553249405954,3661.376804946441,0
-21.80647184246833,19.209705986539163,-24.570849360640388,-125.2972296260399,125.5043561857838,104.35183695360689,-119.05873993368073,29.505050505050512,23.747967479674784,13.290697674418599,-25.977272727272734,-25.0,0.8410596026490103,11.415730337078644,-36.06172839506172,20.729938340150753,129.22958489612378,21.86234239654929,601.1176088785321,56.359261657739815,3571.5180352681937,0
-21.80647184246833,19.209705986539163,-24.570849360640388,-125.2972296260399,125.5043561857838,104.35183695360689,-119.05873993368073,83.3838383838384,54.723577235772346,-28.058139534883725,-17.318181818181824,5.0,5.88741721854305,7.13483146067415,-14.111111111111104,26.952137095375576,790.4374901360595,21.86234239654929,601.1176088785321,56.359261657739815,3571.5180352681937,0
-21.80647184246833,19.209705986539163,-24.570849360640388,-125.2972296260399,125.5043561857838,104.35183695360689,-119.05873993368073,-3.848484848484844,-7.2276422764227775,4.430232558139529,-25.977272727272734,-31.0,-0.8410596026490031,-2.8539325842696694,-51.74074074074073,15.989920667247413,337.57590980909197,21.86234239654929,601.1176088785321,56.359261657739815,3571.5180352681937,0
-21.583469208578954,21.36911087495574,-24.70287971722631,-125.25619901461917,125.61118788679924,104.18155001340841,-119.11890099478921,-3.848484848484844,-7.2276422764227775,4.430232558139529,-25.977272727272734,-31.0,-0.8410596026490031,-2.8539325842696694,-51.74074074074073,15.989920667247413,337.57590980909197,22.551819933587,662.8805291466722,57.10939653560041,3485.768519759222,0
-21.583469208578954,21.36911087495574,-24.70287971722631,-125.25619901461917,125.61118788679924,104.18155001340841,-119.11890099478921,47.46464646464647,52.65853658536584,29.534883720930225,-30.306818181818187,-45.0,-5.8874172185430425,7.13483146067415,-39.197530864197525,32.148083062021925,313.66381355238485,22.551819933587,662.8805291466722,57.10939653560041,3485.768519759222,0
-21.583469208578954,21.36911087495574,-24.70287971722631,-125.25619901461917,125.61118788679924,104.18155001340841,-119.11890099478921,50.03030303030304,34.07317073170731,33.96511627906976,-15.875000000000005,-31.0,0.8410596026490103,-2.8539325842696694,-39.197530864197525,25.97951413652454,310.92491914402996,22.551819933587,662.8805291466722,57.10939653560041,3485.768519759222,0
-19.926878213972156,22.62876372653208,-24.491631146688835,-125.37929084888135,125.70275791624105,104.07937784928936,-119.35954523922305,50.03030303030304,34.07317073170731,33.96511627906976,-15.875000000000005,-31.0,0.8410596026490103,-2.8539325842696694,-39.197530864197525,25.97951413652454,310.92491914402996,22.349091029064354,675.3585405522354,57.49989524070076,3456.5768298551866,0
-19.926878213972156,22.62876372653208,-24.491631146688835,-125.37929084888135,125.70275791624105,104.07937784928936,-119.35954523922305,47.46464646464647,21.68292682926828,22.15116279069767,-7.215909090909096,-1.0,9.251655629139076,8.561797752808982,-26.654320987654312,17.997802443140486,220.68121922573116,22.349091029064354,675.3585405522354,57.49989524070076,3456.5768298551866,0
-19.926878213972156,22.62876372653208,-24.491631146688835,-125.37929084888135,125.70275791624105,104.07937784928936,-119.35954523922305,47.46464646464647,25.813008130081286,-4.43023255813954,-10.102272727272734,-11.0,5.88741721854305,19.977528089887635,-26.654320987654312,18.916178272028127,206.2183802228687,22.349091029064354,675.3585405522354,57.49989524070076,3456.5768298551866,0
-18.429574815000628,25.687920651788897,-24.386006861420096,-125.6254745174057,125.71801958781468,104.18155001340841,-119.72051160587398,47.46464646464647,25.813008130081286,-4.43023255813954,-10.102272727272734,-11.0,5.88741721854305,19.977528089887635,-26.654320987654312,18.916178272028127,206.2183802228687,22.834500776069873,748.2051175973193,58.56646734353823,3373.1065772379957,0
-18.429574815000628,25.687920651788897,-24.386006861420096,-125.6254745174057,125.71801958781468,104.18155001340841,-119.72051160587398,37.20202020202021,-19.6178861788618,-14.767441860465121,-23.090909090909093,-19.0,5.88741721854305,2.8539325842696552,-36.06172839506172,19.81016694126633,154.97604865690928,22.834500776069873,748.2051175973193,58.56646734353823,3373.1065772379957,0
-18.429574815000628,25.687920651788897,-24.386006861420096,-125.6254745174057,125.71801958781468,104.18155001340841,-119.72051160587398,39.767676767676775,-17.552845528455297,-2.9534883720930285,-11.54545454545455,-1.0,5.88741721854305,-4.2808988764045015,-42.33333333333333,15.665139330245065,273.50246882683723,22.834500776069873,748.2051175973193,58.56646734353823,3373.1065772379957,0
-17.856139470713657,27.75735033652145,-24.280382576151357,-125.89217349164042,125.68749624466743,104.41995172968626,-120.14163903363328,39.767676767676775,-17.552845528455297,-2.9534883720930285,-11.54545454545455,-1.0,5.88741721854305,-4.2808988764045015,-42.33333333333333,15.665139330245065,273.50246882683723,23.29795746112882,804.9644997605292,59.30996880143775,3327.9148122576994,0
-17.856139470713657,27.75735033652145,-24.280382576151357,-125.89217349164042,125.68749624466743,104.41995172968626,-120.14163903363328,19.24242424242425,-3.0975609756097686,-28.058139534883725,-23.090909090909093,-13.0,4.205298013245036,19.977528089887635,-39.197530864197525,18.733673851394627,144.99190708220644,23.29795746112882,804.9644997605292,59.30996880143775,3327.9148122576994,0
-17.856139470713657,27.75735033652145,-24.280382576151357,-125.89217349164042,125.68749624466743,104.41995172968626,-120.14163903363328,29.505050505050512,-1.032520325203265,-16.244186046511633,-12.988636363636369,-19.0,5.88741721854305,-1.4269662921348392,-45.469135802469125,16.4442390691936,229.43265640530285,23.29795746112882,804.9644997605292,59.30996880143775,3327.9148122576994,0
-18.557004891508843,27.937300743889498,-24.2011643621998,-126.09732654874404,125.64171122994652,104.556181281845,-120.44244433917572,29.505050505050512,-1.032520325203265,-16.244186046511633,-12.988636363636369,-19.0,5.88741721854305,-1.4269662921348392,-45.469135802469125,16.4442390691936,229.43265640530285,23.565156665866045,818.6660893778858,59.41193055161111,3338.6962082364703,0
-18.557004891508843,27.937300743889498,-24.2011643621998,-126.09732654874404,125.64171122994652,104.556181281845,-120.44244433917572,-1.2828282828282767,-17.552845528455297,-14.767441860465121,-14.431818181818187,-5.0,2.523178807947023,-2.8539325842696694,-58.01234567901234,14.55304886559949,349.5309304402501,23.565156665866045,818.6660893778858,59.41193055161111,3338.6962082364703,0
-18.557004891508843,27.937300743889498,-24.2011643621998,-126.09732654874404,125.64171122994652,104.556181281845,-120.44244433917572,47.46464646464647,79.50406504065039,5.906976744186041,-7.215909090909096,3.0,12.615894039735103,17.12359550561797,-23.518518518518512,24.543700675532946,693.7291166047077,23.565156665866045,818.6660893778858,59.41193055161111,3338.6962082364703,0
-18.429574815000628,27.667375132837428,-23.937103649027954,-126.32299491155803,125.64171122994652,104.69241083400374,-120.86357176693514,47.46464646464647,79.50406504065039,5.906976744186041,-7.215909090909096,3.0,12.615894039735103,17.12359550561797,-23.518518518518512,24.543700675532946,693.7291166047077,23.34468453228867,803.0473164498537,59.30915789780781,3371.6194948148404,0
-18.429574815000628,27.667375132837428,-23.937103649027954,-126.32299491155803,125.64171122994652,104.69241083400374,-120.86357176693514,50.03030303030304,3.0975609756097437,-17.720930232558146,-7.215909090909096,5.0,17.66225165562914,11.415730337078644,-20.382716049382708,16.565675171433814,223.7261732512561,23.34468453228867,803.0473164498537,59.30915789780781,3371.6194948148404,0
-18.429574815000628,27.667375132837428,-23.937103649027954,-126.32299491155803,125.64171122994652,104.69241083400374,-120.86357176693514,44.8989898989899,-9.29268292682928,-17.720930232558146,-18.76136363636364,-11.0,7.569536423841063,4.280898876404487,-20.382716049382708,16.73838975554615,162.71184875346924,23.34468453228867,803.0473164498537,59.30915789780781,3371.6194948148404,0
-17.696851875078387,26.497697484945114,-24.174758290882618,-126.5076326629513,125.64171122994652,104.99892732636096,-121.64566556134537,44.8989898989899,-9.29268292682928,-17.720930232558146,-18.76136363636364,-11.0,7.569536423841063,4.280898876404487,-20.382716049382708,16.73838975554615,162.71184875346924,22.789769216968708,760.4698731701149,59.060029479593005,3413.233393009651,0
-17.696851875078387,26.497697484945114,-24.174758290882618,-126.5076326629513,125.64171122994652,104.99892732636096,-121.64566556134537,55.161616161616166,44.39837398373982,5.906976744186041,-8.659090909090914,1.0,-0.8410596026490031,-2.8539325842696694,-45.469135802469125,20.536273223502594,546.7540313401574,22.789769216968708,760.4698731701149,59.060029479593005,3413.233393009651,0
-17.696851875078387,26.497697484945114,-24.174758290882618,-126.5076326629513,125.64171122994652,104.99892732636096,-121.64566556134537,11.54545454545455,5.162601626016247,19.197674418604645,-37.52272727272728,-55.0,-4.205298013245029,-7.105427357601002e-15,-51.74074074074073,23.04681207709856,486.7143071029004,22.789769216968708,760.4698731701149,59.060029479593005,3413.233393009651,0
-18.93929512103349,25.597945448104873,-24.095540076931062,-126.5691785800824,125.65697290152015,105.2373290426388,-122.24727617243013,11.54545454545455,5.162601626016247,19.197674418604645,-37.52272727272728,-55.0,-4.205298013245029,-7.105427357601002e-15,-51.74074074074073,23.04681207709856,486.7143071029004,22.877593548689806,746.5991938642466,58.754221368372775,3449.715621694337,0
-18.93929512103349,25.597945448104873,-24.095540076931062,-126.5691785800824,125.65697290152015,105.2373290426388,-122.24727617243013,8.979797979797986,-32.00813008130083,-1.476744186046517,-11.54545454545455,-11.0,7.569536423841063,5.7078651685393185,-54.87654320987654,16.6455089493571,320.909187538021,22.877593548689806,746.5991938642466,58.754221368372775,3449.715621694337,0
-18.93929512103349,25.597945448104873,-24.095540076931062,-126.5691785800824,125.65697290152015,105.2373290426388,-122.24727617243013,96.21212121212122,118.73983739837396,-8.860465116279075,-5.772727272727279,9.0,2.523178807947023,7.13483146067415,-17.246913580246904,33.1862593560462,2156.122753529967,22.877593548689806,746.5991938642466,58.754221368372775,3449.715621694337,0
-19.99059325222626,24.698193411264633,-24.333194718785727,-126.54866327437202,125.65697290152015,105.27138643067849,-122.30743723353862,96.21212121212122,118.73983739837396,-8.860465116279075,-5.772727272727279,9.0,2.523178807947023,7.13483146067415,-17.246913580246904,33.1862593560462,2156.122753529967,23.00732712742554,736.6704771520015,58.52668380147413,3470.275574569885,0
-19.99059325222626,24.698193411264633,-24.333194718785727,-126.54866327437202,125.65697290152015,105.27138643067849,-122.30743723353862,42.33333333333334,44.39837398373982,1.4767441860465063,-11.54545454545455,-1.0,9.251655629139076,5.7078651685393185,-39.197530864197525,19.363869713806267,364.96409967561857,23.00732712742554,736.6704771520015,58.52668380147413,3470.275574569885,0
-19.99059325222626,24.698193411264633,-24.333194718785727,-126.54866327437202,125.65697290152015,105.27138643067849,-122.30743723353862,21.808080808080813,-100.15447154471545,-38.395348837209305,-14.431818181818187,-3.0,0.8410596026490103,-2.8539325842696694,-39.197530864197525,27.585280302867496,1093.672567213625,23.00732712742554,736.6704771520015,58.52668380147413,3470.275574569885,0
-21.80647184246833,25.148069429684753,-24.095540076931062,-126.40505613439947,125.68749624466743,105.16921426655938,-122.12695405021316,21.808080808080813,-100.15447154471545,-38.395348837209305,-14.431818181818187,-3.0,0.8410596026490103,-2.8539325842696694,-39.197530864197525,27.585280302867496,1093.672567213625,23.683360449694714,772.4836427834028,58.54955521367176,3453.553708411761,0
-21.80647184246833,25.148069429684753,-24.095540076931062,-126.40505613439947,125.68749624466743,105.16921426655938,-122.12695405021316,39.767676767676775,-23.747967479674806,10.337209302325576,-12.988636363636369,3.0,9.251655629139076,9.988764044943812,-29.790123456790116,17.359004130523317,156.01949214704428,23.683360449694714,772.4836427834028,58.54955521367176,3453.553708411761,0
-21.80647184246833,25.148069429684753,-24.095540076931062,-126.40505613439947,125.68749624466743,105.16921426655938,-122.12695405021316,8.979797979797986,-3.0975609756097686,-4.43023255813954,-18.76136363636364,-3.0,0.8410596026490103,5.7078651685393185,-45.469135802469125,11.28587696544605,221.80123534257123,23.683360449694714,772.4836427834028,58.54955521367176,3453.553708411761,0
-22.698482378025837,25.148069429684753,-23.8578854350764,-126.26144899442694,125.76380460253559,104.93081255028159,-121.82614874467072,8.979797979797986,-3.0975609756097686,-4.43023255813954,-18.76136363636364,-3.0,0.8410596026490103,5.7078651685393185,-45.469135802469125,11.28587696544605,221.80123534257123,23.901479080928997,782.0367245906065,58.4224679530627,3452.011655232918,0
-22.698482378025837,25.148069429684753,-23.8578854350764,-126.26144899442694,125.76380460253559,104.93081255028159,-121.82614874467072,8.979797979797986,-42.33333333333334,2.953488372093018,-15.875000000000005,-21.0,2.523178807947023,-7.105427357601002e-15,-48.60493827160493,17.78371709559704,344.7440438895343,23.901479080928997,782.0367245906065,58.4224679530627,3452.011655232918,0
-22.698482378025837,25.148069429684753,-23.8578854350764,-126.26144899442694,125.76380460253559,104.93081255028159,-121.82614874467072,1.2828282828282909,23.747967479674784,29.534883720930225,-20.20454545454546,-33.0,0.8410596026490103,8.561797752808982,-45.469135802469125,20.330277261988236,252.86247221380629,23.901479080928997,782.0367245906065,58.4224679530627,3452.011655232918,0
-24.41878841088674,24.158342189160486,-23.8578854350764,-126.07681124303369,125.87063630355105,104.41995172968626,-121.04405495026049,1.2828282828282909,23.747967479674784,29.534883720930225,-20.20454545454546,-33.0,0.8410596026490103,8.561797752808982,-45.469135802469125,20.330277261988236,252.86247221380629,24.14500534504121,777.601724124141,58.031012955756864,3472.6955669798435,0
-24.41878841088674,24.158342189160486,-23.8578854350764,-126.07681124303369,125.87063630355105,104.41995172968626,-121.04405495026049,16.676767676767682,-44.398373983739845,-16.244186046511633,-10.102272727272734,-15.0,4.205298013245036,1.426966292134824,-29.790123456790116,17.23049852455773,196.04446737519862,24.14500534504121,777.601724124141,58.031012955756864,3472.6955669798435,0
-24.41878841088674,24.158342189160486,-23.8578854350764,-126.07681124303369,125.87063630355105,104.41995172968626,-121.04405495026049,55.161616161616166,67.11382113821136,-16.244186046511633,-7.215909090909096,13.0,9.251655629139076,-7.105427357601002e-15,-36.06172839506172,25.50611455768113,601.936879676886,24.14500534504121,777.601724124141,58.031012955756864,3472.6955669798435,0
-23.431205317948073,23.168614948636222,-24.280382576151357,-125.91268879735078,125.96220633299284,104.04532046124967,-120.5627664613927,55.161616161616166,67.11382113821136,-16.244186046511633,-7.215909090909096,13.0,9.251655629139076,-7.105427357601002e-15,-36.06172839506172,25.50611455768113,601.936879676886,23.626734280911887,737.2786195001847,57.78722877404613,3481.1177343545587,0
-23.431205317948073,23.168614948636222,-24.280382576151357,-125.91268879735078,125.96220633299284,104.04532046124967,-120.5627664613927,32.07070707070707,-27.878048780487816,-36.918604651162795,-20.20454545454546,-21.0,-2.5231788079470157,1.426966292134824,-42.33333333333333,23.04442304878979,224.29616974716166,23.626734280911887,737.2786195001847,57.78722877404613,3481.1177343545587,0
-23.431205317948073,23.168614948636222,-24.280382576151357,-125.91268879735078,125.96220633299284,104.04532046124967,-120.5627664613927,26.939393939393945,-29.943089430894318,-2.9534883720930285,-21.647727272727277,-25.0,0.8410596026490103,7.13483146067415,-45.469135802469125,19.991090735112607,235.22465453451883,23.626734280911887,737.2786195001847,57.78722877404613,3481.1177343545587,0
-22.188762071992976,22.448813319164028,-24.095540076931062,-125.81011226879897,126.08429970558193,103.80691874497182,-120.44244433917572,26.939393939393945,-29.943089430894318,-2.9534883720930285,-21.647727272727277,-25.0,0.8410596026490103,7.13483146067415,-45.469135802469125,19.991090735112607,235.22465453451883,22.911038489362685,693.7542953703215,57.45148855496469,3505.354004290876,0
-22.188762071992976,22.448813319164028,-24.095540076931062,-125.81011226879897,126.08429970558193,103.80691874497182,-120.44244433917572,39.767676767676775,13.422764227642263,-2.9534883720930285,-8.659090909090914,-5.0,9.251655629139076,14.269662921348306,-39.197530864197525,16.565233711398484,214.3926797511514,22.911038489362685,693.7542953703215,57.45148855496469,3505.354004290876,0
-22.188762071992976,22.448813319164028,-24.095540076931062,-125.81011226879897,126.08429970558193,103.80691874497182,-120.44244433917572,37.20202020202021,32.0081300813008,8.860465116279064,-10.102272727272734,-1.0,7.569536423841063,15.696629213483138,-39.197530864197525,18.954573078549316,222.28517231608626,22.911038489362685,693.7542953703215,57.45148855496469,3505.354004290876,0
-22.125047033738866,23.798441374424392,-24.14835221956543,-125.74856635166788,126.17586973502374,103.60257441673372,-120.32212221695875,37.20202020202021,32.0081300813008,8.860465116279064,-10.102272727272734,-1.0,7.569536423841063,15.696629213483138,-39.197530864197525,18.954573078549316,222.28517231608626,23.357280209242898,735.3259278990603,57.89845331521923,3452.7589886940304,0
-22.125047033738866,23.798441374424392,-24.14835221956543,-125.74856635166788,126.17586973502374,103.60257441673372,-120.32212221695875,62.85858585858587,52.65853658536584,-13.29069767441861,-10.102272727272734,3.0,0.8410596026490103,4.280898876404487,-17.246913580246904,20.53487061311793,564.9805808703254,23.357280209242898,735.3259278990603,57.89845331521923,3452.7589886940304,0
-22.125047033738866,23.798441374424392,-24.14835221956543,-125.74856635166788,126.17586973502374,103.60257441673372,-120.32212221695875,29.505050505050512,9.292682926829256,-14.767441860465121,-17.318181818181824,1.0,2.523178807947023,-1.4269662921348392,-32.92592592592592,13.594928517066812,155.69161899657965,23.357280209242898,735.3259278990603,57.89845331521923,3452.7589886940304,0
-21.583469208578954,24.068366985476462,-23.91069757771077,-125.70753574024715,126.2521780928919,103.39823008849555,-120.20180009474177,29.505050505050512,9.292682926829256,-14.767441860465121,-17.318181818181824,1.0,2.523178807947023,-1.4269662921348392,-32.92592592592592,13.594928517066812,155.69161899657965,23.187511257255398,731.9161293549081,57.89553343447813,3448.856957448754,0
-21.583469208578954,24.068366985476462,-23.91069757771077,-125.70753574024715,126.2521780928919,103.39823008849555,-120.20180009474177,6.414141414141419,-7.2276422764227775,7.383720930232553,-17.318181818181824,-11.0,2.523178807947023,4.280898876404487,-51.74074074074073,13.486063108008853,259.37491041164844,23.187511257255398,731.9161293549081,57.89553343447813,3448.856957448754,0
-21.583469208578954,24.068366985476462,-23.91069757771077,-125.70753574024715,126.2521780928919,103.39823008849555,-120.20180009474177,57.727272727272734,7.227642276422752,-10.337209302325586,-10.102272727272734,-7.0,10.933774834437088,4.280898876404487,-29.790123456790116,17.17489927511569,329.7283288327368,23.187511257255398,731.9161293549081,57.89553343447813,3448.856957448754,0
-21.71089928508717,24.608218207580606,-24.01632186297951,-125.70753574024715,126.34374812233371,103.19388576025744,-120.14163903363328,57.727272727272734,7.227642276422752,-10.337209302325586,-10.102272727272734,-7.0,10.933774834437088,4.280898876404487,-29.790123456790116,17.17489927511569,329.7283288327368,23.445146451882426,752.520252605954,58.11069193693576,3427.087554447647,0
-21.71089928508717,24.608218207580606,-24.01632186297951,-125.70753574024715,126.34374812233371,103.19388576025744,-120.14163903363328,37.20202020202021,21.68292682926828,10.337209302325576,-18.76136363636364,-17.0,4.205298013245036,5.7078651685393185,-42.33333333333333,19.653752060636926,193.45741306235615,23.445146451882426,752.520252605954,58.11069193693576,3427.087554447647,0
-21.71089928508717,24.608218207580606,-24.01632186297951,-125.70753574024715,126.34374812233371,103.19388576025744,-120.14163903363328,34.63636363636364,11.35772357723576,23.62790697674418,-24.534090909090914,-37.0,-0.8410596026490031,17.12359550561797,-39.197530864197525,23.539783883987376,179.3250147644023,23.445146451882426,752.520252605954,58.11069193693576,3427.087554447647,0
-21.5516116894519,24.788168614948656,-24.30678864746854,-125.74856635166788,126.43531815177552,103.02359882005902,-120.20180009474177,34.63636363636364,11.35772357723576,23.62790697674418,-24.534090909090914,-37.0,-0.8410596026490031,17.12359550561797,-39.197530864197525,23.539783883987376,179.3250147644023,23.5488563172897,760.8801778881111,58.28117453802836,3413.944650269638,0
-21.5516116894519,24.788168614948656,-24.30678864746854,-125.74856635166788,126.43531815177552,103.02359882005902,-120.20180009474177,37.20202020202021,54.723577235772346,8.860465116279064,-18.76136363636364,-27.0,0.8410596026490103,-1.4269662921348392,-45.469135802469125,24.28557348596103,412.8614440721567,23.5488563172897,760.8801778881111,58.28117453802836,3413.944650269638,0
-21.5516116894519,24.788168614948656,-24.30678864746854,-125.74856635166788,126.43531815177552,103.02359882005902,-120.20180009474177,14.111111111111114,-9.29268292682928,4.430232558139529,-15.875000000000005,-17.0,5.88741721854305,2.8539325842696552,-58.01234567901234,15.932840259738121,317.64509603303253,23.5488563172897,760.8801778881111,58.28117453802836,3413.944650269638,0
-20.691458673021447,25.507970244420846,-24.597255431957574,-125.76908165737824,126.45057982334914,103.02359882005902,-120.26196115585026,14.111111111111114,-9.29268292682928,4.430232558139529,-15.875000000000005,-17.0,5.88741721854305,2.8539325842696552,-58.01234567901234,15.932840259738121,317.64509603303253,23.59889478313329,776.6960201167884,58.62476911125222,3381.4763808363014,0
-20.691458673021447,25.507970244420846,-24.597255431957574,-125.76908165737824,126.45057982334914,103.02359882005902,-120.26196115585026,65.42424242424244,56.78861788617885,-5.329070518200751e-15,-17.318181818181824,-15.0,2.523178807947023,2.8539325842696552,-23.518518518518512,22.92833400491729,627.4517305094336,23.59889478313329,776.6960201167884,58.62476911125222,3381.4763808363014,0
-20.691458673021447,25.507970244420846,-24.597255431957574,-125.76908165737824,126.45057982334914,103.02359882005902,-120.26196115585026,26.939393939393945,3.0975609756097437,-13.29069767441861,-11.54545454545455,-1.0,5.88741721854305,-7.105427357601002e-15,-42.33333333333333,13.011732210844155,216.9424838222832,23.59889478313329,776.6960201167884,58.62476911125222,3381.4763808363014,0
-19.512730465320455,26.137796670209017,-24.518037218006018,-125.93320410306114,126.48110316649642,103.09171359613839,-120.50260540028421,26.939393939393945,3.0975609756097437,-13.29069767441861,-11.54545454545455,-1.0,5.88741721854305,-7.105427357601002e-15,-42.33333333333333,13.011732210844155,216.9424838222832,23.389521451178496,779.1728717251044,58.863012663758724,3374.4638399492574,0
-19.512730465320455,26.137796670209017,-24.518037218006018,-125.93320410306114,126.48110316649642,103.09171359613839,-120.50260540028421,44.8989898989899,40.26829268292681,25.10465116279069,-7.215909090909096,-11.0,9.251655629139076,22.831460674157295,-26.654320987654312,23.403160015820898,196.6322727801234,23.389521451178496,779.1728717251044,58.863012663758724,3374.4638399492574,0
-19.512730465320455,26.137796670209017,-24.518037218006018,-125.93320410306114,126.48110316649642,103.09171359613839,-120.50260540028421,32.07070707070707,21.68292682926828,-5.329070518200751e-15,-21.647727272727277,-9.0,5.88741721854305,15.696629213483138,-39.197530864197525,18.147867308615794,175.86217674062337,23.389521451178496,779.1728717251044,58.863012663758724,3374.4638399492574,0
-19.13044023579581,25.597945448104873,-24.227570433516988,-126.09732654874404,126.49636483807005,103.15982837221776,-120.86357176693514,32.07070707070707,21.68292682926828,-5.329070518200751e-15,-21.647727272727277,-9.0,5.88741721854305,15.696629213483138,-39.197530864197525,18.147867308615794,175.86217674062337,22.98531870580589,751.5318758350076,58.64094747678863,3413.241790044659,0
-19.13044023579581,25.597945448104873,-24.227570433516988,-126.09732654874404,126.49636483807005,103.15982837221776,-120.86357176693514,34.63636363636364,-9.29268292682928,25.10465116279069,-10.102272727272734,5.0,7.569536423841063,4.280898876404487,-32.92592592592592,16.114041459928476,160.82471196481023,22.98531870580589,751.5318758350076,58.64094747678863,3413.241790044659,0
-19.13044023579581,25.597945448104873,-24.227570433516988,-126.09732654874404,126.49636483807005,103.15982837221776,-120.86357176693514,32.07070707070707,-36.13821138211383,-2.9534883720930285,-8.659090909090914,-23.0,2.523178807947023,5.7078651685393185,-42.33333333333333,19.173234380478064,262.47963673852445,22.98531870580589,751.5318758350076,58.64094747678863,3413.241790044659,0
-19.831305656590995,26.317747077577064,-24.25397650483417,-126.15887246587513,126.49636483807005,103.19388576025744,-120.92373282804351,32.07070707070707,-36.13821138211383,-2.9534883720930285,-8.659090909090914,-23.0,2.523178807947023,5.7078651685393185,-42.33333333333333,19.173234380478064,262.47963673852445,23.467676413000742,784.4657186314557,58.91019868276212,3392.8528814348942,0
-19.831305656590995,26.317747077577064,-24.25397650483417,-126.15887246587513,126.49636483807005,103.19388576025744,-120.92373282804351,24.373737373737377,-34.07317073170733,-20.674418604651166,-20.20454545454546,-21.0,2.523178807947023,7.13483146067415,-42.33333333333333,21.53965197082448,167.06368358962933,23.467676413000742,784.4657186314557,58.91019868276212,3392.8528814348942,0
-19.831305656590995,26.317747077577064,-24.25397650483417,-126.15887246587513,126.49636483807005,103.19388576025744,-120.92373282804351,50.03030303030304,11.35772357723576,-13.29069767441861,-17.318181818181824,-5.0,4.205298013245036,-5.707865168539334,-32.92592592592592,17.47949940098119,260.5298331560028,23.467676413000742,784.4657186314557,58.91019868276212,3392.8528814348942,0
-20.118023328734477,25.417995040736823,-24.227570433516988,-126.19990307729586,126.5116265096437,103.22794314829713,-121.10421601136898,50.03030303030304,11.35772357723576,-13.29069767441861,-17.318181818181824,-5.0,4.205298013245036,-5.707865168539334,-32.92592592592592,17.47949940098119,260.5298331560028,23.254529600996097,759.183252934946,58.6151561838499,3426.1277871747343,0
-20.118023328734477,25.417995040736823,-24.227570433516988,-126.19990307729586,126.5116265096437,103.22794314829713,-121.10421601136898,44.8989898989899,-13.42276422764229,-29.53488372093024,-17.318181818181824,-15.0,4.205298013245036,9.988764044943812,-32.92592592592592,20.911850956232378,185.20730351955055,23.254529600996097,759.183252934946,58.6151561838499,3426.1277871747343,0
-20.118023328734477,25.417995040736823,-24.227570433516988,-126.19990307729586,126.5116265096437,103.22794314829713,-121.10421601136898,44.8989898989899,-21.682926829268304,-4.43023255813954,-5.772727272727279,5.0,14.298013245033115,12.842696629213474,-32.92592592592592,17.731439044912193,214.61044903353013,23.254529600996097,759.183252934946,58.6151561838499,3426.1277871747343,0
-21.23303649818136,25.507970244420846,-23.884291506393584,-126.13835716016476,126.55741152436458,103.12577098417808,-121.04405495026049,44.8989898989899,-21.682926829268304,-4.43023255813954,-5.772727272727279,5.0,14.298013245033115,12.842696629213474,-32.92592592592592,17.731439044912193,214.61044903353013,23.541766082998596,771.8910642152537,58.510206303659736,3430.834174363731,0
-21.23303649818136,25.507970244420846,-23.884291506393584,-126.13835716016476,126.55741152436458,103.12577098417808,-121.04405495026049,8.979797979797986,3.0975609756097437,11.813953488372087,-14.431818181818187,5.0,7.569536423841063,8.561797752808982,-54.87654320987654,14.291376001515573,281.5954802539753,23.541766082998596,771.8910642152537,58.510206303659736,3430.834174363731,0
-21.23303649818136,25.507970244420846,-23.884291506393584,-126.13835716016476,126.55741152436458,103.12577098417808,-121.04405495026049,62.85858585858587,50.593495934959336,5.906976744186041,-14.431818181818187,-13.0,4.205298013245036,2.8539325842696552,-23.518518518518512,22.17107822944783,509.93855634038056,23.541766082998596,771.8910642152537,58.510206303659736,3430.834174363731,0
-21.933901918976545,24.87814381863268,-23.96350972034514,-126.05629593732331,126.63371988223277,102.95548404397965,-120.92373282804351,62.85858585858587,50.593495934959336,5.906976744186041,-14.431818181818187,-13.0,4.205298013245036,2.8539325842696552,-23.518518518518512,22.17107822944783,509.93855634038056,23.591851819318123,763.4990090648232,58.29931649210038,3443.4653365387103,0
-21.933901918976545,24.87814381863268,-23.96350972034514,-126.05629593732331,126.63371988223277,102.95548404397965,-120.92373282804351,1.2828282828282909,-40.26829268292684,11.813953488372087,-20.20454545454546,-25.0,-4.205298013245029,-4.2808988764045015,-51.74074074074073,19.849569692382868,336.72082017713313,23.591851819318123,763.4990090648232,58.29931649210038,3443.4653365387103,0
-21.933901918976545,24.87814381863268,-23.96350972034514,-126.05629593732331,126.63371988223277,102.95548404397965,-120.92373282804351,37.20202020202021,-7.2276422764227775,-2.9534883720930285,-5.772727272727279,-5.0,5.88741721854305,-1.4269662921348392,-36.06172839506172,12.691498753625362,221.68994827913224,23.591851819318123,763.4990090648232,58.29931649210038,3443.4653365387103,0
-21.424181612943684,24.788168614948656,-24.01632186297951,-126.01526532590259,126.6947665685273,102.85331187986054,-120.92373282804351,37.20202020202021,-7.2276422764227775,-2.9534883720930285,-5.772727272727279,-5.0,5.88741721854305,-1.4269662921348392,-36.06172839506172,12.691498753625362,221.68994827913224,23.40955736362395,754.0297992452363,58.27325193461025,3441.884220581655,0
-21.424181612943684,24.788168614948656,-24.01632186297951,-126.01526532590259,126.6947665685273,102.85331187986054,-120.92373282804351,55.161616161616166,36.13821138211381,-4.43023255813954,-15.875000000000005,-1.0,-0.8410596026490031,-1.4269662921348392,-32.92592592592592,18.474876490322412,425.3869323501899,23.40955736362395,754.0297992452363,58.27325193461025,3441.884220581655,0
-21.424181612943684,24.788168614948656,-24.01632186297951,-126.01526532590259,126.6947665685273,102.85331187986054,-120.92373282804351,26.939393939393945,-3.0975609756097686,1.4767441860465063,-15.875000000000005,-9.0,-0.8410596026490031,8.561797752808982,-32.92592592592592,12.339685297804266,144.3582746163568,23.40955736362395,754.0297992452363,58.27325193461025,3441.884220581655,0
-20.05430829048037,23.97839178179244,-24.25397650483417,-126.01526532590259,126.7405515832482,102.88736926790023,-121.22453813358595,26.939393939393945,-3.0975609756097686,1.4767441860465063,-15.875000000000005,-9.0,-0.8410596026490031,8.561797752808982,-32.92592592592592,12.339685297804266,144.3582746163568,22.76222552570233,713.8128732170286,58.082544537509726,3461.1599020202,0
-20.05430829048037,23.97839178179244,-24.25397650483417,-126.01526532590259,126.7405515832482,102.88736926790023,-121.22453813358595,65.42424242424244,85.69918699186991,35.44186046511627,-14.431818181818187,-17.0,7.569536423841063,5.7078651685393185,-29.790123456790116,32.63307913902716,833.7244609125939,22.76222552570233,713.8128732170286,58.082544537509726,3461.1599020202,0
-20.05430829048037,23.97839178179244,-24.25397650483417,-126.01526532590259,126.7405515832482,102.88736926790023,-121.22453813358595,21.808080808080813,-1.032520325203265,14.767441860465112,-7.215909090909096,-5.0,4.205298013245036,1.426966292134824,-45.469135802469125,12.615669024063408,226.53248646699853,22.76222552570233,713.8128732170286,58.082544537509726,3461.1599020202,0
-20.277310924369747,23.618490967056342,-24.676473645909127,-125.99475002019223,126.7405515832482,102.92142665593991,-121.22453813358595,21.808080808080813,-1.032520325203265,14.767441860465112,-7.215909090909096,-5.0,4.205298013245036,1.426966292134824,-45.469135802469125,12.615669024063408,226.53248646699853,22.85742517911174,713.0996105515824,58.0965715443859,3457.901812086526,0
-20.277310924369747,23.618490967056342,-24.676473645909127,-125.99475002019223,126.7405515832482,102.92142665593991,-121.22453813358595,65.42424242424244,13.422764227642263,-22.15116279069768,-18.76136363636364,-11.0,10.933774834437088,29.966292134831452,-17.246913580246904,23.613314203557685,325.4911625499998,22.85742517911174,713.0996105515824,58.0965715443859,3457.901812086526,0
-20.277310924369747,23.618490967056342,-24.676473645909127,-125.99475002019223,126.7405515832482,102.92142665593991,-121.22453813358595,65.42424242424244,46.463414634146325,-39.872093023255815,-20.20454545454546,-13.0,9.251655629139076,5.7078651685393185,-29.790123456790116,28.714242473832318,430.8214858279315,22.85742517911174,713.0996105515824,58.0965715443859,3457.901812086526,0
-21.679041765960115,22.358838115480005,-24.518037218006018,-125.74856635166788,126.77107492639549,102.88736926790023,-121.16437707247746,65.42424242424244,46.463414634146325,-39.872093023255815,-20.20454545454546,-13.0,9.251655629139076,5.7078651685393185,-29.790123456790116,28.714242473832318,430.8214858279315,22.851972366482045,690.806033443346,57.5418138950513,3490.286345699716,0
-21.679041765960115,22.358838115480005,-24.518037218006018,-125.74856635166788,126.77107492639549,102.88736926790023,-121.16437707247746,52.5959595959596,23.747967479674784,-56.116279069767444,-15.875000000000005,11.0,9.251655629139076,-8.561797752808996,-51.74074074074073,28.61117503351133,448.508628218069,22.851972366482045,690.806033443346,57.5418138950513,3490.286345699716,0
-21.679041765960115,22.358838115480005,-24.518037218006018,-125.74856635166788,126.77107492639549,102.88736926790023,-121.16437707247746,14.111111111111114,-11.357723577235785,-2.9534883720930285,-12.988636363636369,-5.0,-2.5231788079470157,-4.2808988764045015,-64.28395061728395,14.687373465713971,423.13091838275597,22.851972366482045,690.806033443346,57.5418138950513,3490.286345699716,0
-23.080772607550482,21.998937300743908,-24.993346501715344,-125.44083676601244,126.83212161269002,102.7170823277018,-120.92373282804351,14.111111111111114,-11.357723577235785,-2.9534883720930285,-12.988636363636369,-5.0,-2.5231788079470157,-4.2808988764045015,-64.28395061728395,14.687373465713971,423.13091838275597,23.357685470003247,707.3521535479151,57.477706856157226,3466.481891973607,0
-23.080772607550482,21.998937300743908,-24.993346501715344,-125.44083676601244,126.83212161269002,102.7170823277018,-120.92373282804351,78.25252525252526,69.17886178861787,-50.2093023255814,-15.875000000000005,-1.0,10.933774834437088,14.269662921348306,-20.382716049382708,32.51273039648658,852.1667163827553,23.357685470003247,707.3521535479151,57.477706856157226,3466.481891973607,0
-23.080772607550482,21.998937300743908,-24.993346501715344,-125.44083676601244,126.83212161269002,102.7170823277018,-120.92373282804351,37.20202020202021,-11.357723577235785,4.430232558139529,-27.42045454545455,-29.0,-2.5231788079470157,1.426966292134824,-32.92592592592592,18.285812738607227,220.4354517215707,23.357685470003247,707.3521535479151,57.477706856157226,3466.481891973607,0
-23.30377524143986,20.91923485653562,-25.231001143570005,-125.15362248606736,126.89316829898455,102.54679538750338,-120.62292752250119,37.20202020202021,-11.357723577235785,4.430232558139529,-27.42045454545455,-29.0,-2.5231788079470157,1.426966292134824,-32.92592592592592,18.285812738607227,220.4354517215707,23.151337080515162,681.5388507781547,57.10128616205767,3477.9881914955995,0
-23.30377524143986,20.91923485653562,-25.231001143570005,-125.15362248606736,126.89316829898455,102.54679538750338,-120.62292752250119,-3.848484848484844,1.0325203252032402,16.244186046511622,-12.988636363636369,-13.0,0.8410596026490103,-1.4269662921348392,-51.74074074074073,12.640324277420081,288.44009607134234,23.151337080515162,681.5388507781547,57.10128616205767,3477.9881914955995,0
-23.30377524143986,20.91923485653562,-25.231001143570005,-125.15362248606736,126.89316829898455,102.54679538750338,-120.62292752250119,24.373737373737377,32.0081300813008,4.430232558139529,-14.431818181818187,5.0,9.251655629139076,8.561797752808982,-32.92592592592592,16.372912187858734,138.56284057810493,23.151337080515162,681.5388507781547,57.10128616205767,3477.9881914955995,0
-22.985200050169322,21.549061282323787,-25.70631042727933,-124.86640820612229,126.93895331370545,102.41056583534458,-120.38228327806723,24.373737373737377,32.0081300813008,4.430232558139529,-14.431818181818187,5.0,9.251655629139076,8.561797752808982,-32.92592592592592,16.372912187858734,138.56284057810493,23.413523919924145,703.9625049213275,57.373926638575135,3420.7469812225772,0
-22.985200050169322,21.549061282323787,-25.70631042727933,-124.86640820612229,126.93895331370545,102.41056583534458,-120.38228327806723,37.20202020202021,21.68292682926828,10.337209302325576,-12.988636363636369,5.0,4.205298013245036,-2.8539325842696694,-39.197530864197525,16.683444269870336,212.89708293147254,23.413523919924145,703.9625049213275,57.373926638575135,3420.7469812225772,0
-22.985200050169322,21.549061282323787,-25.70631042727933,-124.86640820612229,126.93895331370545,102.41056583534458,-120.38228327806723,24.373737373737377,21.68292682926828,17.720930232558132,-12.988636363636369,-13.0,2.523178807947023,9.988764044943812,-45.469135802469125,18.468413681820014,165.84145000348795,23.413523919924145,703.9625049213275,57.373926638575135,3420.7469812225772,0
-22.188762071992976,23.34856535600427,-25.178189000935635,-124.66125514901866,126.96947665685273,102.3765084473049,-120.32212221695875,24.373737373737377,21.68292682926828,17.720930232558132,-12.988636363636369,-13.0,2.523178807947023,9.988764044943812,-45.469135802469125,18.468413681820014,165.84145000348795,23.57183880964429,739.5717918444839,57.72933650198619,3360.748181000252,0
-22.188762071992976,23.34856535600427,-25.178189000935635,-124.66125514901866,126.96947665685273,102.3765084473049,-120.32212221695875,24.373737373737377,-15.487804878048792,1.4767441860465063,-11.54545454545455,-1.0,0.8410596026490103,2.8539325842696552,-42.33333333333333,12.489008312942403,217.65575171321896,23.57183880964429,739.5717918444839,57.72933650198619,3360.748181000252,0
-22.188762071992976,23.34856535600427,-25.178189000935635,-124.66125514901866,126.96947665685273,102.3765084473049,-120.32212221695875,16.676767676767682,38.20325203252031,19.197674418604645,-23.090909090909093,-21.0,2.523178807947023,11.415730337078644,-39.197530864197525,21.413130403503118,155.0426226555112,23.57183880964429,739.5717918444839,57.72933650198619,3360.748181000252,0
-22.762197416279943,25.148069429684753,-25.046158644349713,-124.51764800904613,126.98473832842636,102.20622150710648,-119.96115585030793,16.676767676767682,38.20325203252031,19.197674418604645,-23.090909090909093,-21.0,2.523178807947023,11.415730337078644,-39.197530864197525,21.413130403503118,155.0426226555112,24.31880849677147,803.3451133485098,58.237292027693535,3294.8167882131584,0
-22.762197416279943,25.148069429684753,-25.046158644349713,-124.51764800904613,126.98473832842636,102.20622150710648,-119.96115585030793,62.85858585858587,60.91869918699186,32.48837209302325,-10.102272727272734,-25.0,9.251655629139076,4.280898876404487,-36.06172839506172,30.120276595809877,513.0512780759988,24.31880849677147,803.3451133485098,58.237292027693535,3294.8167882131584,0
-22.762197416279943,25.148069429684753,-25.046158644349713,-124.51764800904613,126.98473832842636,102.20622150710648,-119.96115585030793,60.2929292929293,17.552845528455272,-5.906976744186052,-11.54545454545455,-15.0,12.615894039735103,-7.105427357601002e-15,-29.790123456790116,19.088027950943797,352.6170504757175,24.31880849677147,803.3451133485098,58.237292027693535,3294.8167882131584,0
-21.64718424683306,24.068366985476462,-25.151782929618452,-124.4150714804943,126.99999999999999,102.13810673102711,-119.84083372809096,60.2929292929293,17.552845528455272,-5.906976744186052,-11.54545454545455,-15.0,12.615894039735103,-7.105427357601002e-15,-29.790123456790116,19.088027950943797,352.6170504757175,23.622444720642658,754.1361656776193,57.87840713186308,3320.639224508817,0
-21.64718424683306,24.068366985476462,-25.151782929618452,-124.4150714804943,126.99999999999999,102.13810673102711,-119.84083372809096,42.33333333333334,9.292682926829256,-11.813953488372098,-20.20454545454546,-31.0,2.523178807947023,21.404494382022463,-36.06172839506172,21.829239598513922,191.44281077591262,23.622444720642658,754.1361656776193,57.87840713186308,3320.639224508817,0
-21.64718424683306,24.068366985476462,-25.151782929618452,-124.4150714804943,126.99999999999999,102.13810673102711,-119.84083372809096,37.20202020202021,73.30894308943087,17.720930232558132,-14.431818181818187,-21.0,4.205298013245036,5.7078651685393185,-42.33333333333333,26.988776027618133,533.8176148376058,23.622444720642658,754.1361656776193,57.87840713186308,3320.639224508817,0
-20.88260378778377,25.3280198370528,-25.336625428838744,-124.45610209191503,126.99999999999999,102.13810673102711,-119.78067266698247,37.20202020202021,73.30894308943087,17.720930232558132,-14.431818181818187,-21.0,4.205298013245036,5.7078651685393185,-42.33333333333333,26.988776027618133,533.8176148376058,23.849083017891772,787.0277207489861,58.37358245260219,3275.1745699241774,0
-20.88260378778377,25.3280198370528,-25.336625428838744,-124.45610209191503,126.99999999999999,102.13810673102711,-119.78067266698247,57.727272727272734,-3.0975609756097686,-62.02325581395349,-8.659090909090914,15.0,2.523178807947023,-7.105427357601002e-15,-32.92592592592592,22.74453564497498,634.4098333419568,23.849083017891772,787.0277207489861,58.37358245260219,3275.1745699241774,0
-20.88260378778377,25.3280198370528,-25.336625428838744,-124.45610209191503,126.99999999999999,102.13810673102711,-119.78067266698247,39.767676767676775,-5.162601626016272,-22.15116279069768,-23.090909090909093,-19.0,0.8410596026490103,12.842696629213474,-48.60493827160493,21.432630597345906,263.74367063506065,23.849083017891772,787.0277207489861,58.37358245260219,3275.1745699241774,0
-19.417157907939295,27.217499114417308,-25.389437571473113,-124.59970923188757,126.93895331370545,102.27433628318585,-119.96115585030793,39.767676767676775,-5.162601626016272,-22.15116279069768,-23.090909090909093,-19.0,0.8410596026490103,12.842696629213474,-48.60493827160493,21.432630597345906,263.74367063506065,24.008031531276572,829.6581912409296,59.06888197259266,3221.5524432168595,0
-19.417157907939295,27.217499114417308,-25.389437571473113,-124.59970923188757,126.93895331370545,102.27433628318585,-119.96115585030793,3.8484848484848513,1.0325203252032402,36.91860465116278,-12.988636363636369,-15.0,4.205298013245036,2.8539325842696552,-54.87654320987654,16.465502499484806,377.275322083356,24.008031531276572,829.6581912409296,59.06888197259266,3221.5524432168595,0
-19.417157907939295,27.217499114417308,-25.389437571473113,-124.59970923188757,126.93895331370545,102.27433628318585,-119.96115585030793,70.55555555555557,79.50406504065039,-42.82558139534884,-27.42045454545455,-25.0,2.523178807947023,2.8539325842696552,-29.790123456790116,35.05911142325201,796.9609992613239,24.008031531276572,829.6581912409296,59.06888197259266,3221.5524432168595,0
-19.13044023579581,27.847325540205475,-25.231001143570005,-124.68177045472902,126.8626449558373,102.5127379994637,-120.20180009474177,70.55555555555557,79.50406504065039,-42.82558139534884,-27.42045454545455,-25.0,2.523178807947023,2.8539325842696552,-29.790123456790116,35.05911142325201,796.9609992613239,24.06958897319043,843.5726807073154,59.253365712834835,3212.3683986389487,0
-19.13044023579581,27.847325540205475,-25.231001143570005,-124.68177045472902,126.8626449558373,102.5127379994637,-120.20180009474177,29.505050505050512,-27.878048780487816,-38.395348837209305,-33.19318181818183,-23.0,0.8410596026490103,11.415730337078644,-39.197530864197525,25.42824384310683,178.2045381909323,24.06958897319043,843.5726807073154,59.253365712834835,3212.3683986389487,0
-19.13044023579581,27.847325540205475,-25.231001143570005,-124.68177045472902,126.8626449558373,102.5127379994637,-120.20180009474177,42.33333333333334,-17.552845528455297,17.720930232558132,-12.988636363636369,-23.0,4.205298013245036,2.8539325842696552,-39.197530864197525,19.981563364961918,211.44606178749493,24.06958897319043,843.5726807073154,59.253365712834835,3212.3683986389487,0
-21.010033864291984,29.01700318809779,-24.75569185986068,-124.7433163718601,126.81685994111639,102.5127379994637,-120.02131691141642,42.33333333333334,-17.552845528455297,17.720930232558132,-12.988636363636369,-23.0,4.205298013245036,2.8539325842696552,-39.197530864197525,19.981563364961918,211.44606178749493,24.927576304083484,901.3728537969475,59.505337139939535,3196.5351442574165,0
-21.010033864291984,29.01700318809779,-24.75569185986068,-124.7433163718601,126.81685994111639,102.5127379994637,-120.02131691141642,1.2828282828282909,-23.747967479674806,-20.674418604651166,-17.318181818181824,-5.0,7.569536423841063,2.8539325842696552,-48.60493827160493,15.881475433131467,246.86790796221973,24.927576304083484,901.3728537969475,59.505337139939535,3196.5351442574165,0
-20.022450771353316,29.46687920651791,-24.729285788543496,-124.94846942896373,126.77107492639549,102.5127379994637,-120.02131691141642,1.2828282828282909,-23.747967479674806,-20.674418604651166,-17.318181818181824,-5.0,7.569536423841063,2.8539325842696552,-48.60493827160493,15.881475433131467,246.86790796221973,24.739538588804905,901.4287296182652,59.71487814134172,3197.177272058895,0
-20.022450771353316,29.46687920651791,-24.729285788543496,-124.94846942896373,126.77107492639549,102.5127379994637,-120.02131691141642,65.42424242424244,50.593495934959336,7.383720930232553,-15.875000000000005,-5.0,5.88741721854305,5.7078651685393185,-20.382716049382708,22.031807215737427,538.722939112596,24.739538588804905,901.4287296182652,59.71487814134172,3197.177272058895,0
-20.022450771353316,29.46687920651791,-24.729285788543496,-124.94846942896373,126.77107492639549,102.5127379994637,-120.02131691141642,24.373737373737377,-5.162601626016272,16.244186046511622,-1.4431818181818237,15.0,14.298013245033115,5.7078651685393185,-39.197530864197525,15.178389517777132,148.8684499638617,24.739538588804905,901.4287296182652,59.71487814134172,3197.177272058895,0
-18.365859776746518,28.747077577045715,-24.966940430398157,-125.17413779177772,126.6947665685273,102.7170823277018,-120.26196115585026,24.373737373737377,-5.162601626016272,16.244186046511622,-1.4431818181818237,15.0,14.298013245033115,5.7078651685393185,-39.197530864197525,15.178389517777132,148.8684499638617,24.026625928063464,858.0664770670617,59.62938526640719,3225.6582969209157,0
-18.365859776746518,28.747077577045715,-24.966940430398157,-125.17413779177772,126.6947665685273,102.7170823277018,-120.26196115585026,3.8484848484848513,-65.04878048780489,-29.53488372093024,-15.875000000000005,-3.0,-2.5231788079470157,-15.696629213483153,-48.60493827160493,23.016486918781887,536.6572748111178,24.026625928063464,858.0664770670617,59.62938526640719,3225.6582969209157,0
-18.365859776746518,28.747077577045715,-24.966940430398157,-125.17413779177772,126.6947665685273,102.7170823277018,-120.26196115585026,32.07070707070707,15.487804878048767,2.953488372093018,-20.20454545454546,-23.0,10.933774834437088,11.415730337078644,-36.06172839506172,19.015972417746468,124.54371895754366,24.026625928063464,858.0664770670617,59.62938526640719,3225.6582969209157,0
-18.684434968017058,29.106978391781812,-25.4158436427903,-125.27671432032953,126.54214985279096,103.0576562080987,-120.38228327806723,32.07070707070707,15.487804878048767,2.953488372093018,-20.20454545454546,-23.0,10.933774834437088,11.415730337078644,-36.06172839506172,19.015972417746468,124.54371895754366,24.402419000863052,883.6781960479328,59.93317878496722,3205.7393461296724,0
-18.684434968017058,29.106978391781812,-25.4158436427903,-125.27671432032953,126.54214985279096,103.0576562080987,-120.38228327806723,21.808080808080813,-52.658536585365866,-11.813953488372098,-11.54545454545455,-7.0,9.251655629139076,5.7078651685393185,-36.06172839506172,19.480909327501678,278.99362388879206,24.402419000863052,883.6781960479328,59.93317878496722,3205.7393461296724,0
-18.684434968017058,29.106978391781812,-25.4158436427903,-125.27671432032953,126.54214985279096,103.0576562080987,-120.38228327806723,19.24242424242425,1.0325203252032402,-19.197674418604656,-15.875000000000005,-11.0,2.523178807947023,2.8539325842696552,-45.469135802469125,14.649233272614744,211.15095804886965,24.402419000863052,883.6781960479328,59.93317878496722,3205.7393461296724,0
-19.767590618336886,28.927027984413762,-25.52146792805904,-125.25619901461917,126.40479480862824,103.2960579243765,-120.32212221695875,19.24242424242425,1.0325203252032402,-19.197674418604656,-15.875000000000005,-11.0,2.523178807947023,2.8539325842696552,-45.469135802469125,14.649233272614744,211.15095804886965,24.738695510269896,894.8186153488755,59.90156497569732,3206.3206025954123,0
-19.767590618336886,28.927027984413762,-25.52146792805904,-125.25619901461917,126.40479480862824,103.2960579243765,-120.32212221695875,44.8989898989899,81.56910569105689,17.720930232558132,-20.20454545454546,-11.0,0.8410596026490103,-4.2808988764045015,-42.33333333333333,27.856107886192152,730.8765625056143,24.738695510269896,894.8186153488755,59.90156497569732,3206.3206025954123,0
-19.767590618336886,28.927027984413762,-25.52146792805904,-125.25619901461917,126.40479480862824,103.2960579243765,-120.32212221695875,52.5959595959596,21.68292682926828,-4.43023255813954,-18.76136363636364,-27.0,-5.8874172185430425,-7.105427357601002e-15,-29.790123456790116,20.018502911883026,293.3270677328177,24.738695510269896,894.8186153488755,59.90156497569732,3206.3206025954123,0
-20.659601153894393,28.11725115125755,-25.151782929618452,-125.21516840319845,126.31322477918646,103.39823008849555,-120.20180009474177,52.5959595959596,21.68292682926828,-4.43023255813954,-18.76136363636364,-27.0,-5.8874172185430425,-7.105427357601002e-15,-29.790123456790116,20.018502911883026,293.3270677328177,24.642878411590132,872.8251683023805,59.49473416135816,3241.5801081454283,0
-20.659601153894393,28.11725115125755,-25.151782929618452,-125.21516840319845,126.31322477918646,103.39823008849555,-120.20180009474177,32.07070707070707,21.68292682926828,-20.674418604651166,-15.875000000000005,3.0,7.569536423841063,-7.105427357601002e-15,-51.74074074074073,19.07666620865104,287.16790893156366,24.642878411590132,872.8251683023805,59.49473416135816,3241.5801081454283,0
-20.659601153894393,28.11725115125755,-25.151782929618452,-125.21516840319845,126.31322477918646,103.39823008849555,-120.20180009474177,39.767676767676775,-13.42276422764229,7.383720930232553,-14.431818181818187,-3.0,2.523178807947023,5.7078651685393185,-32.92592592592592,14.895368751222758,197.36029972819077,24.642878411590132,872.8251683023805,59.49473416135816,3241.5801081454283,0
-21.169321459927254,27.217499114417308,-24.993346501715344,-125.15362248606736,126.26743976446555,103.46634486457498,-120.08147797252491,39.767676767676775,-13.42276422764229,7.383720930232553,-14.431818181818187,-3.0,2.523178807947023,5.7078651685393185,-32.92592592592592,14.895368751222758,197.36029972819077,24.460055692019967,846.9799954609456,59.12148936740001,3271.418666862203,0
-21.169321459927254,27.217499114417308,-24.993346501715344,-125.15362248606736,126.26743976446555,103.46634486457498,-120.08147797252491,19.24242424242425,-34.07317073170733,23.62790697674418,-11.54545454545455,-27.0,0.8410596026490103,-1.4269662921348392,-39.197530864197525,19.61931415691396,201.66821417181217,24.460055692019967,846.9799954609456,59.12148936740001,3271.418666862203,0
-21.169321459927254,27.217499114417308,-24.993346501715344,-125.15362248606736,126.26743976446555,103.46634486457498,-120.08147797252491,67.98989898989899,100.15447154471543,48.73255813953487,-8.659090909090914,-11.0,12.615894039735103,5.7078651685393185,-39.197530864197525,36.75716370696402,1163.4086965803247,24.460055692019967,846.9799954609456,59.12148936740001,3271.418666862203,0
-21.010033864291984,26.767623095997184,-24.993346501715344,-125.11259187464664,126.23691642131827,103.50040225261466,-120.02131691141642,67.98989898989899,100.15447154471543,48.73255813953487,-8.659090909090914,-11.0,12.615894039735103,5.7078651685393185,-39.197530864197525,36.75716370696402,1163.4086965803247,24.2570011540015,829.6282096463076,58.957853824119724,3283.1240392586296,0
-21.010033864291984,26.767623095997184,-24.993346501715344,-125.11259187464664,126.23691642131827,103.50040225261466,-120.02131691141642,1.2828282828282909,-23.747967479674806,-22.15116279069768,-27.42045454545455,-11.0,2.523178807947023,1.426966292134824,-45.469135802469125,16.877711750150787,246.59352737542326,24.2570011540015,829.6282096463076,58.957853824119724,3283.1240392586296,0
-21.010033864291984,26.767623095997184,-24.993346501715344,-125.11259187464664,126.23691642131827,103.50040225261466,-120.02131691141642,14.111111111111114,-17.552845528455297,22.15116279069767,-23.090909090909093,-57.0,-2.5231788079470157,2.8539325842696552,-54.87654320987654,24.269960390408297,441.96978241464683,24.2570011540015,829.6282096463076,58.957853824119724,3283.1240392586296,0
-20.7233161921485,25.867871059156943,-25.178189000935635,-125.03053065180518,126.19113140659736,103.60257441673372,-120.08147797252491,14.111111111111114,-17.552845528455297,22.15116279069767,-23.090909090909093,-57.0,-2.5231788079470157,2.8539325842696552,-54.87654320987654,24.269960390408297,441.96978241464683,23.92312541741369,799.3808114812093,58.69219690396593,3300.6998086651397,0
-20.7233161921485,25.867871059156943,-25.178189000935635,-125.03053065180518,126.19113140659736,103.60257441673372,-120.08147797252491,24.373737373737377,9.292682926829256,-7.383720930232563,-27.42045454545455,-15.0,-2.5231788079470157,7.13483146067415,-23.518518518518512,14.58089057042418,88.77252825127411,23.92312541741369,799.3808114812093,58.69219690396593,3300.6998086651397,0
-20.7233161921485,25.867871059156943,-25.178189000935635,-125.03053065180518,126.19113140659736,103.60257441673372,-120.08147797252491,26.939393939393945,-15.487804878048792,4.430232558139529,-4.32954545454546,13.0,4.205298013245036,4.280898876404487,-39.197530864197525,13.983838072996846,168.72145779001343,23.92312541741369,799.3808114812093,58.69219690396593,3300.6998086651397,0
-20.914461306910823,25.687920651788897,-25.151782929618452,-124.92795412325337,126.16060806345008,103.70474658085277,-120.02131691141642,26.939393939393945,-15.487804878048792,4.430232558139529,-4.32954545454546,13.0,4.205298013245036,4.280898876404487,-39.197530864197525,13.983838072996846,168.72145779001343,23.918054962772725,795.7353931673616,58.58921923488691,3300.692670856011,0
-20.914461306910823,25.687920651788897,-25.151782929618452,-124.92795412325337,126.16060806345008,103.70474658085277,-120.02131691141642,70.55555555555557,71.24390243902437,-22.15116279069768,-14.431818181818187,-1.0,7.569536423841063,7.13483146067415,-32.92592592592592,28.376591597192117,786.3148768343325,23.918054962772725,795.7353931673616,58.58921923488691,3300.692670856011,0
-20.914461306910823,25.687920651788897,-25.151782929618452,-124.92795412325337,126.16060806345008,103.70474658085277,-120.02131691141642,19.24242424242425,1.0325203252032402,-20.674418604651166,-23.090909090909093,-7.0,2.523178807947023,-12.842696629213489,-58.01234567901234,18.052311672420075,330.0863630964174,23.918054962772725,795.7353931673616,58.58921923488691,3300.692670856011,0
-21.99761695723065,24.248317392844513,-25.231001143570005,-124.72280106614974,126.14534639187646,103.67068919281309,-119.90099478919944,19.24242424242425,1.0325203252032402,-20.674418604651166,-23.090909090909093,-7.0,2.523178807947023,-12.842696629213489,-58.01234567901234,18.052311672420075,330.0863630964174,23.825645164548387,766.2240300059841,58.06737320085475,3332.450964767643,0
-21.99761695723065,24.248317392844513,-25.231001143570005,-124.72280106614974,126.14534639187646,103.67068919281309,-119.90099478919944,19.24242424242425,-32.00813008130083,10.337209302325576,-11.54545454545455,-23.0,-0.8410596026490031,5.7078651685393185,-45.469135802469125,18.51890984314533,217.2965630400867,23.825645164548387,766.2240300059841,58.06737320085475,3332.450964767643,0
-21.99761695723065,24.248317392844513,-25.231001143570005,-124.72280106614974,126.14534639187646,103.67068919281309,-119.90099478919944,70.55555555555557,-5.162601626016272,-26.581395348837212,-15.875000000000005,-9.0,0.8410596026490103,-7.105427357601002e-15,-32.92592592592592,20.117692257373,555.910960604152,23.825645164548387,766.2240300059841,58.06737320085475,3332.450964767643,0
-22.029474476357706,22.89868933758415,-24.914128287763788,-124.59970923188757,126.20639307817099,103.56851702869403,-119.84083372809096,70.55555555555557,-5.162601626016272,-26.581395348837212,-15.875000000000005,-9.0,0.8410596026490103,-7.105427357601002e-15,-32.92592592592592,20.117692257373,555.910960604152,23.280764033901878,718.8211100964728,57.47084228574517,3380.729081645143,0
-22.029474476357706,22.89868933758415,-24.914128287763788,-124.59970923188757,126.20639307817099,103.56851702869403,-119.84083372809096,42.33333333333334,-40.26829268292684,-17.720930232558146,-12.988636363636369,-1.0,10.933774834437088,12.842696629213474,1.5679012345679126,17.456945663834148,249.48050534914563,23.280764033901878,718.8211100964728,57.47084228574517,3380.729081645143,0
-22.029474476357706,22.89868933758415,-24.914128287763788,-124.59970923188757,126.20639307817099,103.56851702869403,-119.84083372809096,19.24242424242425,5.162601626016247,-13.29069767441861,-18.76136363636364,-21.0,5.88741721854305,12.842696629213474,-36.06172839506172,16.531116177755123,97.19673326256542,23.280764033901878,718.8211100964728,57.47084228574517,3380.729081645143,0
-21.010033864291984,21.729011689691838,-25.151782929618452,-124.49713270333575,126.2521780928919,103.56851702869403,-119.96115585030793,19.24242424242425,5.162601626016247,-13.29069767441861,-18.76136363636364,-21.0,5.88741721854305,12.842696629213474,-36.06172839506172,16.531116177755123,97.19673326256542,22.630276161200758,673.5981673872648,57.125975774215355,3407.0834302163425,0
-21.010033864291984,21.729011689691838,-25.151782929618452,-124.49713270333575,126.2521780928919,103.56851702869403,-119.96115585030793,42.33333333333334,-7.2276422764227775,2.953488372093018,-12.988636363636369,-7.0,5.88741721854305,7.13483146067415,-51.74074074074073,17.15826122068043,354.0288601541479,22.630276161200758,673.5981673872648,57.125975774215355,3407.0834302163425,0
-21.010033864291984,21.729011689691838,-25.151782929618452,-124.49713270333575,126.2521780928919,103.56851702869403,-119.96115585030793,1.2828282828282909,-23.747967479674806,5.906976744186041,-17.318181818181824,-13.0,9.251655629139076,9.988764044943812,-32.92592592592592,14.177787490609973,104.40446794814362,22.630276161200758,673.5981673872648,57.125975774215355,3407.0834302163425,0
-20.277310924369747,22.53878852284805,-25.151782929618452,-124.39455617478394,126.26743976446555,103.70474658085277,-120.20180009474177,1.2828282828282909,-23.747967479674806,5.906976744186041,-17.318181818181824,-13.0,9.251655629139076,9.988764044943812,-32.92592592592592,14.177787490609973,104.40446794814362,22.655960792278748,688.5615757778019,57.36170920908348,3371.7588641877155,0
-20.277310924369747,22.53878852284805,-25.151782929618452,-124.39455617478394,126.26743976446555,103.70474658085277,-120.20180009474177,75.68686868686869,-3.0975609756097686,-20.674418604651166,-7.215909090909096,-15.0,4.205298013245036,7.13483146067415,-32.92592592592592,20.742601594735476,593.3229551940203,22.655960792278748,688.5615757778019,57.36170920908348,3371.7588641877155,0
-20.277310924369747,22.53878852284805,-25.151782929618452,-124.39455617478394,126.26743976446555,103.70474658085277,-120.20180009474177,34.63636363636364,9.292682926829256,-4.43023255813954,-11.54545454545455,-11.0,0.8410596026490103,4.280898876404487,-29.790123456790116,13.227101950328827,152.39874958431704,22.655960792278748,688.5615757778019,57.36170920908348,3371.7588641877155,0
-21.20117897905431,23.258590152320245,-25.098970786984083,-124.20991842339068,126.28270143603918,103.77286135693214,-120.32212221695875,34.63636363636364,9.292682926829256,-4.43023255813954,-11.54545454545455,-11.0,0.8410596026490103,4.280898876404487,-29.790123456790116,13.227101950328827,152.39874958431704,23.18624663945288,721.7195920319369,57.52249312089833,3336.256270326733,0
-21.20117897905431,23.258590152320245,-25.098970786984083,-124.20991842339068,126.28270143603918,103.77286135693214,-120.32212221695875,-8.97979797979798,-23.747967479674806,32.48837209302325,-23.090909090909093,-43.0,-0.8410596026490031,-2.8539325842696694,-51.74074074074073,23.342847446383068,344.16221209763546,23.18624663945288,721.7195920319369,57.52249312089833,3336.256270326733,0
-21.20117897905431,23.258590152320245,-25.098970786984083,-124.20991842339068,126.28270143603918,103.77286135693214,-120.32212221695875,60.2929292929293,21.68292682926828,-1.476744186046517,-12.988636363636369,-15.0,2.523178807947023,4.280898876404487,-29.790123456790116,18.504429726627762,382.0149589399147,23.18624663945288,721.7195920319369,57.52249312089833,3336.256270326733,0
-21.010033864291984,23.708466170740365,-24.75569185986068,-124.12785720054923,126.31322477918646,103.77286135693214,-120.44244433917572,60.2929292929293,21.68292682926828,-1.476744186046517,-12.988636363636369,-15.0,2.523178807947023,4.280898876404487,-29.790123456790116,18.504429726627762,382.0149589399147,23.15806396496434,727.0914688030047,57.530671743716766,3326.6630034897926,0
-21.010033864291984,23.708466170740365,-24.75569185986068,-124.12785720054923,126.31322477918646,103.77286135693214,-120.44244433917572,42.33333333333334,9.292682926829256,-8.860465116279075,-4.32954545454546,25.0,10.933774834437088,12.842696629213474,-32.92592592592592,18.314803027570452,183.69438291708295,23.15806396496434,727.0914688030047,57.530671743716766,3326.6630034897926,0
-21.010033864291984,23.708466170740365,-24.75569185986068,-124.12785720054923,126.31322477918646,103.77286135693214,-120.44244433917572,26.939393939393945,-50.59349593495936,-5.329070518200751e-15,-27.42045454545455,-33.0,-2.5231788079470157,5.7078651685393185,-39.197530864197525,23.172739907561464,343.6999553661177,23.15806396496434,727.0914688030047,57.530671743716766,3326.6630034897926,0
-21.360466574689575,24.698193411264633,-24.676473645909127,-124.0868265891285,126.34374812233371,103.67068919281309,-120.32212221695875,26.939393939393945,-50.59349593495936,-5.329070518200751e-15,-27.42045454545455,-33.0,-2.5231788079470157,5.7078651685393185,-39.197530864197525,23.172739907561464,343.6999553661177,23.578377877287778,761.7089682674795,57.820497882100746,3293.419858167939,0
-21.360466574689575,24.698193411264633,-24.676473645909127,-124.0868265891285,126.34374812233371,103.67068919281309,-120.32212221695875,26.939393939393945,19.617886178861774,-1.476744186046517,-20.20454545454546,1.0,9.251655629139076,21.404494382022463,-36.06172839506172,16.99455602063387,150.81016087516517,23.578377877287778,761.7089682674795,57.820497882100746,3293.419858167939,0
-21.360466574689575,24.698193411264633,-24.676473645909127,-124.0868265891285,126.34374812233371,103.67068919281309,-120.32212221695875,65.42424242424244,-1.032520325203265,16.244186046511622,-8.659090909090914,-3.0,5.88741721854305,14.269662921348306,-20.382716049382708,16.86247948679029,429.7493414425803,23.578377877287778,761.7089682674795,57.820497882100746,3293.419858167939,0
-20.3091684434968,24.87814381863268,-25.019752573032527,-124.0868265891285,126.34374812233371,103.67068919281309,-120.32212221695875,65.42424242424244,-1.032520325203265,16.244186046511622,-8.659090909090914,-3.0,5.88741721854305,14.269662921348306,-20.382716049382708,16.86247948679029,429.7493414425803,23.402354945054004,758.9804761049978,57.99490766026457,3276.1113240344735,0
-20.3091684434968,24.87814381863268,-25.019752573032527,-124.0868265891285,126.34374812233371,103.67068919281309,-120.32212221695875,11.54545454545455,21.68292682926828,-11.813953488372098,-14.431818181818187,-3.0,4.205298013245036,-4.2808988764045015,-58.01234567901234,16.121586951696873,326.07029437506844,23.402354945054004,758.9804761049978,57.99490766026457,3276.1113240344735,0
-20.3091684434968,24.87814381863268,-25.019752573032527,-124.0868265891285,126.34374812233371,103.67068919281309,-120.32212221695875,11.54545454545455,17.552845528455272,11.813953488372087,-15.875000000000005,-17.0,5.88741721854305,4.280898876404487,-67.41975308641975,18.92191534295615,408.01212425619957,23.402354945054004,758.9804761049978,57.99490766026457,3276.1113240344735,0
-19.831305656590995,24.42826780021256,-25.25740721488719,-124.06631128341814,126.31322477918646,103.84097613301151,-120.50260540028421,11.54545454545455,17.552845528455272,11.813953488372087,-15.875000000000005,-17.0,5.88741721854305,4.280898876404487,-67.41975308641975,18.92191534295615,408.01212425619957,23.172326890563582,742.836453734207,57.91732876617263,3281.9377840923808,0
-19.831305656590995,24.42826780021256,-25.25740721488719,-124.06631128341814,126.31322477918646,103.84097613301151,-120.50260540028421,26.939393939393945,1.0325203252032402,-5.329070518200751e-15,-21.647727272727277,-27.0,-0.8410596026490031,1.426966292134824,-36.06172839506172,14.368674478396251,225.13465126893783,23.172326890563582,742.836453734207,57.91732876617263,3281.9377840923808,0
-19.831305656590995,24.42826780021256,-25.25740721488719,-124.06631128341814,126.31322477918646,103.84097613301151,-120.50260540028421,11.54545454545455,17.552845528455272,10.337209302325576,-12.988636363636369,-9.0,4.205298013245036,-1.4269662921348392,-54.87654320987654,15.241619156891023,281.5232286012445,23.172326890563582,742.836453734207,57.91732876617263,3281.9377840923808,0
-20.372883481750907,25.148069429684753,-25.31021935752156,-123.96373475486632,126.26743976446555,104.01126307320999,-120.62292752250119,11.54545454545455,17.552845528455272,10.337209302325576,-12.988636363636369,-9.0,4.205298013245036,-1.4269662921348392,-54.87654320987654,15.241619156891023,281.5232286012445,23.610390756319074,773.7622244747375,58.14067451402422,3249.513017751921,0
-20.372883481750907,25.148069429684753,-25.31021935752156,-123.96373475486632,126.26743976446555,104.01126307320999,-120.62292752250119,24.373737373737377,-1.032520325203265,56.11627906976744,-11.54545454545455,-21.0,5.88741721854305,9.988764044943812,-45.469135802469125,21.926663547514828,382.0186105356958,23.610390756319074,773.7622244747375,58.14067451402422,3249.513017751921,0
-20.372883481750907,25.148069429684753,-25.31021935752156,-123.96373475486632,126.26743976446555,104.01126307320999,-120.62292752250119,42.33333333333334,7.227642276422752,-35.441860465116285,-18.76136363636364,-9.0,5.88741721854305,11.415730337078644,-32.92592592592592,20.374159149097952,208.81577902330952,23.610390756319074,773.7622244747375,58.14067451402422,3249.513017751921,0
-20.372883481750907,24.608218207580606,-24.70287971722631,-123.94321944915596,126.26743976446555,104.01126307320999,-120.68308858360967,42.33333333333334,7.227642276422752,-35.441860465116285,-18.76136363636364,-9.0,5.88741721854305,11.415730337078644,-32.92592592592592,20.374159149097952,208.81577902330952,23.22799380218594,745.605459189185,57.75143912465429,3286.0160770956672,0
-20.372883481750907,24.608218207580606,-24.70287971722631,-123.94321944915596,126.26743976446555,104.01126307320999,-120.68308858360967,78.25252525252526,34.07317073170731,-59.06976744186047,-10.102272727272734,19.0,14.298013245033115,11.415730337078644,-20.382716049382708,30.82427447310753,626.5502904409875,23.22799380218594,745.605459189185,57.75143912465429,3286.0160770956672,0
-20.372883481750907,24.608218207580606,-24.70287971722631,-123.94321944915596,126.26743976446555,104.01126307320999,-120.68308858360967,16.676767676767682,-23.747967479674806,7.383720930232553,-21.647727272727277,-15.0,5.88741721854305,12.842696629213474,-26.654320987654312,16.230077274351643,56.13572418388886,23.22799380218594,745.605459189185,57.75143912465429,3286.0160770956672,0
-20.787031230402608,23.52851576337232,-24.782097931177866,-123.9227041434456,126.26743976446555,104.04532046124967,-120.74324964471816,16.676767676767682,-23.747967479674806,7.383720930232553,-21.647727272727277,-15.0,5.88741721854305,12.842696629213474,-26.654320987654312,16.230077274351643,56.13572418388886,23.032548308317597,718.9572764741962,57.4111059459986,3318.237388146837,0
-20.787031230402608,23.52851576337232,-24.782097931177866,-123.9227041434456,126.26743976446555,104.04532046124967,-120.74324964471816,14.111111111111114,13.422764227642263,4.430232558139529,-11.54545454545455,-11.0,7.569536423841063,-1.4269662921348392,-58.01234567901234,15.189801354666962,318.8777687970546,23.032548308317597,718.9572764741962,57.4111059459986,3318.237388146837,0
-20.787031230402608,23.52851576337232,-24.782097931177866,-123.9227041434456,126.26743976446555,104.04532046124967,-120.74324964471816,37.20202020202021,3.0975609756097437,-51.68604651162791,-8.659090909090914,11.0,9.251655629139076,4.280898876404487,-23.518518518518512,18.586973952801358,307.7496550117651,23.032548308317597,718.9572764741962,57.4111059459986,3318.237388146837,0
-21.80647184246833,23.0786397449522,-24.650067574591944,-123.75858169776271,126.31322477918646,103.9772056851703,-120.68308858360967,37.20202020202021,3.0975609756097437,-51.68604651162791,-8.659090909090914,11.0,9.251655629139076,4.280898876404487,-23.518518518518512,18.586973952801358,307.7496550117651,23.178393054004157,716.7981302162751,57.16242967243562,3326.9029447913,0
-21.80647184246833,23.0786397449522,-24.650067574591944,-123.75858169776271,126.31322477918646,103.9772056851703,-120.68308858360967,26.939393939393945,-34.07317073170733,16.244186046511622,-24.534090909090914,-23.0,0.8410596026490103,4.280898876404487,-45.469135802469125,21.922741988528305,217.58999475529797,23.178393054004157,716.7981302162751,57.16242967243562,3326.9029447913,0
-21.80647184246833,23.0786397449522,-24.650067574591944,-123.75858169776271,126.31322477918646,103.9772056851703,-120.68308858360967,37.20202020202021,42.333333333333314,60.546511627906966,-7.215909090909096,-15.0,10.933774834437088,15.696629213483138,-36.06172839506172,28.12373833714394,351.12477481785584,23.178393054004157,716.7981302162751,57.16242967243562,3326.9029447913,0
-21.29675153643547,23.258590152320245,-24.887722216446605,-123.67652047492125,126.37427146548099,103.9772056851703,-120.86357176693514,37.20202020202021,42.333333333333314,60.546511627906966,-7.215909090909096,-15.0,10.933774834437088,15.696629213483138,-36.06172839506172,28.12373833714394,351.12477481785584,23.147687968400774,719.3568230228907,57.2742776145627,3307.6069104851194,0
-21.29675153643547,23.258590152320245,-24.887722216446605,-123.67652047492125,126.37427146548099,103.9772056851703,-120.86357176693514,93.64646464646465,81.56910569105689,-20.674418604651166,-8.659090909090914,-1.0,0.8410596026490103,2.8539325842696552,-36.06172839506172,30.663225054155504,1387.7177693640367,23.147687968400774,719.3568230228907,57.2742776145627,3307.6069104851194,0
-21.29675153643547,23.258590152320245,-24.887722216446605,-123.67652047492125,126.37427146548099,103.9772056851703,-120.86357176693514,103.90909090909092,116.67479674796746,23.62790697674418,-23.090909090909093,-15.0,4.205298013245036,12.842696629213474,-10.9753086419753,38.79075087614318,1998.839057153765,23.147687968400774,719.3568230228907,57.2742776145627,3307.6069104851194,0
-20.05430829048037,23.888416578108416,-24.966940430398157,-123.65600516921089,126.37427146548099,103.9772056851703,-120.92373282804351,103.90909090909092,116.67479674796746,23.62790697674418,-23.090909090909093,-15.0,4.205298013245036,12.842696629213474,-10.9753086419753,38.79075087614318,1998.839057153765,22.969888432995646,723.6571553078795,57.503787392572484,3282.377741000834,0
-20.05430829048037,23.888416578108416,-24.966940430398157,-123.65600516921089,126.37427146548099,103.9772056851703,-120.92373282804351,11.54545454545455,44.39837398373982,-17.720930232558146,-8.659090909090914,11.0,10.933774834437088,4.280898876404487,-48.60493827160493,19.64293270666124,289.72563798565676,22.969888432995646,723.6571553078795,57.503787392572484,3282.377741000834,0
-20.05430829048037,23.888416578108416,-24.966940430398157,-123.65600516921089,126.37427146548099,103.9772056851703,-120.92373282804351,47.46464646464647,-25.813008130081315,-53.162790697674424,-10.102272727272734,11.0,4.205298013245036,2.8539325842696552,-32.92592592592592,23.440984317889445,383.23576801163796,22.969888432995646,723.6571553078795,57.503787392572484,3282.377741000834,0
-19.70387558008278,23.52851576337232,-24.650067574591944,-123.5944592520798,126.38953313705461,104.14749262536873,-121.28469919469444,47.46464646464647,-25.813008130081315,-53.162790697674424,-10.102272727272734,11.0,4.205298013245036,2.8539325842696552,-32.92592592592592,23.440984317889445,383.23576801163796,22.62748630601568,702.4467281622276,57.257680863348014,3300.7405948630962,0
-19.70387558008278,23.52851576337232,-24.650067574591944,-123.5944592520798,126.38953313705461,104.14749262536873,-121.28469919469444,-6.414141414141412,-44.398373983739845,-10.337209302325586,-8.659090909090914,11.0,4.205298013245036,7.13483146067415,-42.33333333333333,16.810284802068786,273.60151935183427,22.62748630601568,702.4467281622276,57.257680863348014,3300.7405948630962,0
-19.70387558008278,23.52851576337232,-24.650067574591944,-123.5944592520798,126.38953313705461,104.14749262536873,-121.28469919469444,-11.54545454545454,17.552845528455272,4.430232558139529,-11.54545454545455,-19.0,-0.8410596026490031,-8.561797752808996,-67.41975308641975,17.612074702422703,441.89683623522876,22.62748630601568,702.4467281622276,57.257680863348014,3300.7405948630962,0
-20.3091684434968,23.888416578108416,-24.834910073812235,-123.57394394636944,126.38953313705461,104.18155001340841,-121.28469919469444,-11.54545454545454,17.552845528455272,4.430232558139529,-11.54545454545455,-19.0,-0.8410596026490031,-8.561797752808996,-67.41975308641975,17.612074702422703,441.89683623522876,23.010831698472487,724.6452365126922,57.43242353276336,3281.2495044519555,0
-20.3091684434968,23.888416578108416,-24.834910073812235,-123.57394394636944,126.38953313705461,104.18155001340841,-121.28469919469444,34.63636363636364,25.813008130081286,2.953488372093018,-11.54545454545455,-11.0,0.8410596026490103,9.988764044943812,-48.60493827160493,18.172884575398783,278.55751876578034,23.010831698472487,724.6452365126922,57.43242353276336,3281.2495044519555,0
-20.3091684434968,23.888416578108416,-24.834910073812235,-123.57394394636944,126.38953313705461,104.18155001340841,-121.28469919469444,19.24242424242425,-48.528455284552855,-5.329070518200751e-15,-12.988636363636369,-7.0,2.523178807947023,4.280898876404487,-42.33333333333333,17.11211586353729,345.31344294257826,23.010831698472487,724.6452365126922,57.43242353276336,3281.2495044519555,0
-20.245453405242692,24.338292596528536,-24.914128287763788,-123.57394394636944,126.38953313705461,104.18155001340841,-121.34486025580293,19.24242424242425,-48.528455284552855,-5.329070518200751e-15,-12.988636363636369,-7.0,2.523178807947023,4.280898876404487,-42.33333333333333,17.11211586353729,345.31344294257826,23.165958096511673,739.2179826121017,57.60878827688725,3263.6342185600884,0
-20.245453405242692,24.338292596528536,-24.914128287763788,-123.57394394636944,126.38953313705461,104.18155001340841,-121.34486025580293,24.373737373737377,5.162601626016247,19.197674418604645,-18.76136363636364,-23.0,-2.5231788079470157,-4.2808988764045015,-32.92592592592592,16.27817258312492,122.74984301284564,23.165958096511673,739.2179826121017,57.60878827688725,3263.6342185600884,0
-20.245453405242692,24.338292596528536,-24.914128287763788,-123.57394394636944,126.38953313705461,104.18155001340841,-121.34486025580293,37.20202020202021,-15.487804878048792,-20.674418604651166,-24.534090909090914,1.0,7.569536423841063,1.426966292134824,-36.06172839506172,17.994570713106086,203.36591093515136,23.165958096511673,739.2179826121017,57.60878827688725,3263.6342185600884,0
-20.277310924369747,24.42826780021256,-24.544443289323205,-123.57394394636944,126.38953313705461,104.18155001340841,-121.34486025580293,37.20202020202021,-15.487804878048792,-20.674418604651166,-24.534090909090914,1.0,7.569536423841063,1.426966292134824,-36.06172839506172,17.994570713106086,203.36591093515136,23.08334067130184,735.8539365298332,57.51555167863506,3272.7867659344683,0
-20.277310924369747,24.42826780021256,-24.544443289323205,-123.57394394636944,126.38953313705461,104.18155001340841,-121.34486025580293,55.161616161616166,19.617886178861774,17.720930232558132,-10.102272727272734,-3.0,10.933774834437088,14.269662921348306,-23.518518518518512,19.29058269682659,250.2902024731098,23.08334067130184,735.8539365298332,57.51555167863506,3272.7867659344683,0
-20.277310924369747,24.42826780021256,-24.544443289323205,-123.57394394636944,126.38953313705461,104.18155001340841,-121.34486025580293,47.46464646464647,62.98373983739836,14.767441860465112,-18.76136363636364,-29.0,7.569536423841063,-7.105427357601002e-15,-42.33333333333333,27.860007694506002,467.2684307709347,23.08334067130184,735.8539365298332,57.51555167863506,3272.7867659344683,0
-20.564028596513232,24.248317392844513,-24.41241293273728,-123.55342864065908,126.37427146548099,104.2156074014481,-121.28469919469444,47.46464646464647,62.98373983739836,14.767441860465112,-18.76136363636364,-29.0,7.569536423841063,-7.105427357601002e-15,-42.33333333333333,27.860007694506002,467.2684307709347,23.07491964069834,731.8038484813662,57.40471965541363,3281.7455071475724,0
-20.564028596513232,24.248317392844513,-24.41241293273728,-123.55342864065908,126.37427146548099,104.2156074014481,-121.28469919469444,60.2929292929293,36.13821138211381,-31.01162790697675,-23.090909090909093,-9.0,10.933774834437088,14.269662921348306,-14.111111111111104,24.85602831747818,299.54797310869964,23.07491964069834,731.8038484813662,57.40471965541363,3281.7455071475724,0
-20.564028596513232,24.248317392844513,-24.41241293273728,-123.55342864065908,126.37427146548099,104.2156074014481,-121.28469919469444,37.20202020202021,-5.162601626016272,-2.9534883720930285,-11.54545454545455,-11.0,7.569536423841063,17.12359550561797,-29.790123456790116,15.29335251647915,148.64816966028442,23.07491964069834,731.8038484813662,57.40471965541363,3281.7455071475724,0
-20.022450771353316,24.158342189160486,-24.438819004054466,-123.53291333494872,126.37427146548099,104.2156074014481,-121.28469919469444,37.20202020202021,-5.162601626016272,-2.9534883720930285,-11.54545454545455,-11.0,7.569536423841063,17.12359550561797,-29.790123456790116,15.29335251647915,148.64816966028442,22.87320398818942,722.1884751709858,57.37669150938789,3282.5039314855317,0
-20.022450771353316,24.158342189160486,-24.438819004054466,-123.53291333494872,126.37427146548099,104.2156074014481,-121.28469919469444,50.03030303030304,27.87804878048779,20.67441860465116,-2.886363636363642,-5.0,10.933774834437088,-5.707865168539334,-29.790123456790116,19.11261218894652,265.46036568507554,22.87320398818942,722.1884751709858,57.37669150938789,3282.5039314855317,0
-20.022450771353316,24.158342189160486,-24.438819004054466,-123.53291333494872,126.37427146548099,104.2156074014481,-121.28469919469444,29.505050505050512,38.20325203252031,-4.43023255813954,-14.431818181818187,-1.0,5.88741721854305,5.7078651685393185,-45.469135802469125,18.079346433385005,296.96034070887123,22.87320398818942,722.1884751709858,57.37669150938789,3282.5039314855317,0
-19.767590618336886,25.687920651788897,-24.729285788543496,-123.5944592520798,126.35900979390733,104.28372217752747,-121.4651823780199,29.505050505050512,38.20325203252031,-4.43023255813954,-14.431818181818187,-1.0,5.88741721854305,5.7078651685393185,-45.469135802469125,18.079346433385005,296.96034070887123,23.394932352889757,772.1194381729463,58.003888564137405,3226.8219675777345,0
-19.767590618336886,25.687920651788897,-24.729285788543496,-123.5944592520798,126.35900979390733,104.28372217752747,-121.4651823780199,8.979797979797986,-42.33333333333334,-14.767441860465121,-24.534090909090914,-9.0,-2.5231788079470157,-7.134831460674164,-51.74074074074073,20.12667688650616,323.92262320370395,23.394932352889757,772.1194381729463,58.003888564137405,3226.8219675777345,0
-19.767590618336886,25.687920651788897,-24.729285788543496,-123.5944592520798,126.35900979390733,104.28372217752747,-121.4651823780199,-16.676767676767675,-36.13821138211383,28.058139534883715,-14.431818181818187,-15.0,4.205298013245036,2.8539325842696552,-64.28395061728395,22.706014748797756,405.48177079935397,23.394932352889757,772.1194381729463,58.003888564137405,3226.8219675777345,0
-18.015427066348927,26.317747077577064,-25.151782929618452,-123.82012761489379,126.32848645076008,104.59023866988468,-122.12695405021316,-16.676767676767675,-36.13821138211383,28.058139534883715,-14.431818181818187,-15.0,4.205298013245036,2.8539325842696552,-64.28395061728395,22.706014748797756,405.48177079935397,23.161652357848144,777.5784039740815,58.42988587402977,3207.2526542950577,0
-18.015427066348927,26.317747077577064,-25.151782929618452,-123.82012761489379,126.32848645076008,104.59023866988468,-122.12695405021316,34.63636363636364,19.617886178861774,-7.383720930232563,-10.102272727272734,-13.0,4.205298013245036,14.269662921348306,-42.33333333333333,18.19356721758217,182.21231581195892,23.161652357848144,777.5784039740815,58.42988587402977,3207.2526542950577,0
-18.015427066348927,26.317747077577064,-25.151782929618452,-123.82012761489379,126.32848645076008,104.59023866988468,-122.12695405021316,3.8484848484848513,-67.11382113821139,-31.01162790697675,-28.863636363636367,-27.0,-4.205298013245029,5.7078651685393185,-54.87654320987654,27.828409581121278,558.4632293263701,23.161652357848144,777.5784039740815,58.42988587402977,3207.2526542950577,0
-15.148250344914084,25.3280198370528,-25.547873999376222,-124.06631128341814,126.20639307817099,105.2373290426388,-123.14969208905734,3.8484848484848513,-67.11382113821139,-31.01162790697675,-28.863636363636367,-27.0,-4.205298013245029,5.7078651685393185,-54.87654320987654,27.828409581121278,558.4632293263701,22.008048060447702,722.4728656089377,58.314068373282396,3242.5301697482964,0
-15.148250344914084,25.3280198370528,-25.547873999376222,-124.06631128341814,126.20639307817099,105.2373290426388,-123.14969208905734,34.63636363636364,-11.357723577235785,-2.9534883720930285,-23.090909090909093,-33.0,5.88741721854305,-2.8539325842696694,-48.60493827160493,20.2980965938774,295.5333687754698,22.008048060447702,722.4728656089377,58.314068373282396,3242.5301697482964,0
-15.148250344914084,25.3280198370528,-25.547873999376222,-124.06631128341814,126.20639307817099,105.2373290426388,-123.14969208905734,47.46464646464647,32.0081300813008,-10.337209302325586,-14.431818181818187,-9.0,5.88741721854305,17.12359550561797,-26.654320987654312,20.363392217738298,199.21977406558057,22.008048060447702,722.4728656089377,58.314068373282396,3242.5301697482964,0
-14.319954847610685,26.047821466524994,-26.128807568354286,-124.29197964623214,126.00799134771374,106.05470635559129,-124.2325911890099,47.46464646464647,32.0081300813008,-10.337209302325586,-14.431818181818187,-9.0,5.88741721854305,17.12359550561797,-26.654320987654312,20.363392217738298,199.21977406558057,22.16552796082999,748.5678307619525,58.82286956037047,3214.6549212631776,0
-14.319954847610685,26.047821466524994,-26.128807568354286,-124.29197964623214,126.00799134771374,106.05470635559129,-124.2325911890099,52.5959595959596,44.39837398373982,1.4767441860465063,-33.19318181818183,-41.0,0.8410596026490103,17.12359550561797,-51.74074074074073,30.296206929116934,450.0952275980759,22.16552796082999,748.5678307619525,58.82286956037047,3214.6549212631776,0
-14.319954847610685,26.047821466524994,-26.128807568354286,-124.29197964623214,126.00799134771374,106.05470635559129,-124.2325911890099,37.20202020202021,25.813008130081286,-14.767441860465121,2.8863636363636296,11.0,4.205298013245036,-9.988764044943828,-54.87654320987654,20.092429887124457,328.1370218596881,22.16552796082999,748.5678307619525,58.82286956037047,3214.6549212631776,0
-12.44036121911451,29.646829613885956,-27.105832207090124,-124.6407398433083,125.6722345730938,107.17860016090106,-125.43581241117954,37.20202020202021,25.813008130081286,-14.767441860465121,2.8863636363636296,11.0,4.205298013245036,-9.988764044943828,-54.87654320987654,20.092429887124457,328.1370218596881,23.06434101336353,867.8787158797716,60.46446722142812,3090.5596426837506,0
-12.44036121911451,29.646829613885956,-27.105832207090124,-124.6407398433083,125.6722345730938,107.17860016090106,-125.43581241117954,-24.37373737373737,-85.69918699186992,-28.058139534883725,-34.63636363636364,-75.0,-9.25165562913907,-12.842696629213489,-61.14814814814814,41.37624099291942,834.8634379493899,23.06434101336353,867.8787158797716,60.46446722142812,3090.5596426837506,0
-12.44036121911451,29.646829613885956,-27.105832207090124,-124.6407398433083,125.6722345730938,107.17860016090106,-125.43581241117954,-8.97979797979798,-62.98373983739839,-5.329070518200751e-15,-12.988636363636369,-15.0,-2.5231788079470157,4.280898876404487,-39.197530864197525,18.24422284117272,477.08836370849855,23.06434101336353,867.8787158797716,60.46446722142812,3090.5596426837506,0
-10.305907437601906,34.235565001771185,-28.294105416363436,-124.98950004038446,125.0617677101484,108.71118262268703,-126.5187115111321,-8.97979797979798,-62.98373983739839,-5.329070518200751e-15,-12.988636363636369,-15.0,-2.5231788079470157,4.280898876404487,-39.197530864197525,18.24422284117272,477.08836370849855,24.278525951912176,1036.2462860318487,62.50639015283969,2936.929501415504,0
-10.305907437601906,34.235565001771185,-28.294105416363436,-124.98950004038446,125.0617677101484,108.71118262268703,-126.5187115111321,50.03030303030304,79.50406504065039,1.4767441860465063,-7.215909090909096,-23.0,-4.205298013245029,4.280898876404487,-39.197530864197525,26.113843637719512,789.1674446898594,24.278525951912176,1036.2462860318487,62.50639015283969,2936.929501415504,0
-10.305907437601906,34.235565001771185,-28.294105416363436,-124.98950004038446,125.0617677101484,108.71118262268703,-126.5187115111321,44.8989898989899,-5.162601626016272,33.96511627906976,5.772727272727266,1.0,14.298013245033115,8.561797752808982,-4.703703703703695,14.795368722293624,254.16630864756422,24.278525951912176,1036.2462860318487,62.50639015283969,2936.929501415504,0
-11.038630377524143,31.356358483882413,-30.48580933568977,-124.84589290041193,124.2223757735985,110.44810941271118,-127.0,44.8989898989899,-5.162601626016272,33.96511627906976,5.772727272727266,1.0,14.298013245033115,8.561797752808982,-4.703703703703695,14.795368722293624,254.16630864756422,24.293599399032107,999.9969284356391,62.229353573328034,2940.812711930037,0
-11.038630377524143,31.356358483882413,-30.48580933568977,-124.84589290041193,124.2223757735985,110.44810941271118,-127.0,6.414141414141419,-79.50406504065042,-5.329070518200751e-15,-23.090909090909093,-13.0,12.615894039735103,25.68539325842696,-7.839506172839496,21.01873862708781,630.0409613169137,24.293599399032107,999.9969284356391,62.229353573328034,2940.812711930037,0
-11.038630377524143,31.356358483882413,-30.48580933568977,-124.84589290041193,124.2223757735985,110.44810941271118,-127.0,109.04040404040404,44.39837398373982,-10.337209302325586,-1.4431818181818237,31.0,27.754966887417222,19.977528089887635,-23.518518518518512,33.433772830059326,1101.5698856012386,24.293599399032107,999.9969284356391,62.229353573328034,2940.812711930037,0
-15.498683055311677,25.238044633368776,-33.97141074955815,-123.73806639205233,123.04722706242863,112.11692142665595,-125.43581241117954,109.04040404040404,44.39837398373982,-10.337209302325586,-1.4431818181818237,31.0,27.754966887417222,19.977528089887635,-23.518518518518512,33.433772830059326,1101.5698856012386,24.902712812746202,917.7470429983834,60.98250725832642,2972.7630725697786,0
-15.498683055311677,25.238044633368776,-33.97141074955815,-123.73806639205233,123.04722706242863,112.11692142665595,-125.43581241117954,83.3838383838384,93.95934959349592,-16.244186046511633,-2.886363636363642,37.0,17.66225165562914,14.269662921348306,-23.518518518518512,36.11552134446319,1150.9258036989188,24.902712812746202,917.7470429983834,60.98250725832642,2972.7630725697786,0
-15.498683055311677,25.238044633368776,-33.97141074955815,-123.73806639205233,123.04722706242863,112.11692142665595,-125.43581241117954,8.979797979797986,36.13821138211381,10.337209302325576,-1.4431818181818237,11.0,9.251655629139076,1.426966292134824,-48.60493827160493,15.897745084412252,292.10153749867214,24.902712812746202,917.7470429983834,60.98250725832642,2972.7630725697786,0
-22.284334629374136,26.497697484945114,-37.721072876598384,-121.7275664324368,121.50579823349155,113.58138911236256,-121.70582662245386,8.979797979797986,36.13821138211381,10.337209302325576,-1.4431818181818237,11.0,9.251655629139076,1.426966292134824,-48.60493827160493,15.897745084412252,292.10153749867214,28.834368330305878,1123.6716686107416,61.982112264660095,2708.630509080922,0
-22.284334629374136,26.497697484945114,-37.721072876598384,-121.7275664324368,121.50579823349155,113.58138911236256,-121.70582662245386,60.2929292929293,58.85365853658535,14.767441860465112,-12.988636363636369,31.0,15.980132450331128,-1.4269662921348392,-29.790123456790116,28.13748603160903,465.4114028028598,28.834368330305878,1123.6716686107416,61.982112264660095,2708.630509080922,0
-22.284334629374136,26.497697484945114,-37.721072876598384,-121.7275664324368,121.50579823349155,113.58138911236256,-121.70582662245386,52.5959595959596,69.17886178861787,7.383720930232553,-30.306818181818187,-57.0,-0.8410596026490031,-5.707865168539334,-32.92592592592592,31.992526399217805,671.9003125928076,28.834368330305878,1123.6716686107416,61.982112264660095,2708.630509080922,0
-29.229273799071866,22.988664541268175,-41.31229857573551,-118.73233179872385,119.6743976446554,114.77339769375169,-116.11084793936527,52.5959595959596,69.17886178861787,7.383720930232553,-30.306818181818187,-57.0,-0.8410596026490031,-5.707865168539334,-32.92592592592592,31.992526399217805,671.9003125928076,31.176745638691852,1167.8877383405484,61.01109830524251,2582.744488064016,0
-29.229273799071866,22.988664541268175,-41.31229857573551,-118.73233179872385,119.6743976446554,114.77339769375169,-116.11084793936527,26.939393939393945,23.747967479674784,16.244186046511622,-4.32954545454546,-19.0,15.980132450331128,7.13483146067415,-23.518518518518512,17.111821918706198,64.3130029689061,31.176745638691852,1167.8877383405484,61.01109830524251,2582.744488064016,0
-29.229273799071866,22.988664541268175,-41.31229857573551,-118.73233179872385,119.6743976446554,114.77339769375169,-116.11084793936527,32.07070707070707,-23.747967479674806,-33.965116279069775,-34.63636363636364,-15.0,4.205298013245036,-27.112359550561806,-48.60493827160493,27.417843787653382,181.72890766918565,31.176745638691852,1167.8877383405484,61.01109830524251,2582.744488064016,0
-38.27680923115515,23.0786397449522,-47.09522819419897,-115.20369921654148,117.72090368323019,115.45454545454544,-109.07200378967309,32.07070707070707,-23.747967479674806,-33.965116279069775,-34.63636363636364,-15.0,4.205298013245036,-27.112359550561806,-48.60493827160493,27.417843787653382,181.72890766918565,36.15022572343543,1461.1045622681515,61.79252238523088,2283.764488064271,0
-38.27680923115515,23.0786397449522,-47.09522819419897,-115.20369921654148,117.72090368323019,115.45454545454544,-109.07200378967309,70.55555555555557,27.87804878048779,10.337209302325576,-20.20454545454546,-5.0,-2.5231788079470157,-17.123595505617985,-48.60493827160493,25.27838395976054,549.343427218859,36.15022572343543,1461.1045622681515,61.79252238523088,2283.764488064271,0
-38.27680923115515,23.0786397449522,-47.09522819419897,-115.20369921654148,117.72090368323019,115.45454545454544,-109.07200378967309,57.727272727272734,3.0975609756097437,4.430232558139529,-30.306818181818187,-23.0,-4.205298013245029,9.988764044943812,-17.246913580246904,18.750357510159493,344.4959716930637,36.15022572343543,1461.1045622681515,61.79252238523088,2283.764488064271,0
-29.61156402859651,29.556854410201932,-68.1408670339952,-111.20321460302075,114.51595265276693,119.57548940734785,-105.16153481762194,57.727272727272734,3.0975609756097437,4.430232558139529,-30.306818181818187,-23.0,-4.205298013245029,9.988764044943812,-17.246913580246904,18.750357510159493,344.4959716930637,42.43642849093121,2421.708951003084,69.63364534907264,1668.2033235073513,0
-29.61156402859651,29.556854410201932,-68.1408670339952,-111.20321460302075,114.51595265276693,119.57548940734785,-105.16153481762194,21.808080808080813,56.78861788617885,22.15116279069767,14.431818181818176,19.0,12.615894039735103,47.089887640449426,-23.518518518518512,27.17549748318482,254.5955150023514,42.43642849093121,2421.708951003084,69.63364534907264,1668.2033235073513,0
-29.61156402859651,29.556854410201932,-68.1408670339952,-111.20321460302075,114.51595265276693,119.57548940734785,-105.16153481762194,62.85858585858587,1.0325203252032402,-107.80232558139535,-15.875000000000005,3.0,12.615894039735103,39.95505617977527,-32.92592592592592,34.50816348882759,1306.828865139641,42.43642849093121,2421.708951003084,69.63364534907264,1668.2033235073513,0
-29.993854258121157,24.788168614948656,-58.423432789271224,-106.87448509813424,111.40257165174548,122.30008045052296,-99.26575082899103,62.85858585858587,1.0325203252032402,-107.80232558139535,-15.875000000000005,3.0,12.615894039735103,39.95505617977527,-32.92592592592592,34.50816348882759,1306.828865139641,37.73515188744701,1788.9135956298564,63.36202883411804,1702.8331366150592,0
-29.993854258121157,24.788168614948656,-58.423432789271224,-106.87448509813424,111.40257165174548,122.30008045052296,-99.26575082899103,21.808080808080813,-17.552845528455297,4.430232558139529,-15.875000000000005,-51.0,-19.34437086092715,-1.4269662921348392,-70.55555555555554,25.249131450411646,558.6450835360749,37.73515188744701,1788.9135956298564,63.36202883411804,1702.8331366150592,0
-29.993854258121157,24.788168614948656,-58.423432789271224,-106.87448509813424,111.40257165174548,122.30008045052296,-99.26575082899103,32.07070707070707,21.68292682926828,-16.244186046511633,-41.852272727272734,-37.0,2.523178807947023,12.842696629213474,-45.469135802469125,26.21063798917367,232.2755898406223,37.73515188744701,1788.9135956298564,63.36202883411804,1702.8331366150592,0
-49.93666123165684,35.0453418349274,-63.07090134109574,-101.47895969630886,107.98395721925134,123.42397425583266,-89.51965892941735,32.07070707070707,21.68292682926828,-16.244186046511633,-41.852272727272734,-37.0,2.523178807947023,12.842696629213474,-45.469135802469125,26.21063798917367,232.2755898406223,49.35096813589333,2836.8743805729723,66.53173429077734,1112.339419067217,0
-49.93666123165684,35.0453418349274,-63.07090134109574,-101.47895969630886,107.98395721925134,123.42397425583266,-89.51965892941735,-8.97979797979798,-83.63414634146342,-16.244186046511633,-23.090909090909093,-41.0,4.205298013245036,14.269662921348306,-54.87654320987654,30.787567950394003,743.3027075021633,49.35096813589333,2836.8743805729723,66.53173429077734,1112.339419067217,0
-49.93666123165684,35.0453418349274,-63.07090134109574,-101.47895969630886,107.98395721925134,123.42397425583266,-89.51965892941735,24.373737373737377,21.68292682926828,10.337209302325576,-14.431818181818187,-21.0,-2.5231788079470157,-1.4269662921348392,-54.87654320987654,18.831547499638475,286.16912436465094,49.35096813589333,2836.8743805729723,66.53173429077734,1112.339419067217,0
-57.26389063087922,35.31526744597947,-71.83771701840107,-95.85776593166949,104.38220272787358,124.41163850898363,-79.77356702984366,24.373737373737377,21.68292682926828,10.337209302325576,-14.431818181818187,-21.0,-2.5231788079470157,-1.4269662921348392,-54.87654320987654,18.831547499638475,286.16912436465094,54.805625031753245,3377.509834236232,67.67025013201668,929.3743659092773,0
-57.26389063087922,35.31526744597947,-71.83771701840107,-95.85776593166949,104.38220272787358,124.41163850898363,-79.77356702984366,44.8989898989899,9.292682926829256,-29.53488372093024,-40.409090909090914,-19.0,-4.205298013245029,2.8539325842696552,-17.246913580246904,20.930223954200237,255.3097895532385,54.805625031753245,3377.509834236232,67.67025013201668,929.3743659092773,0
-57.26389063087922,35.31526744597947,-71.83771701840107,-95.85776593166949,104.38220272787358,124.41163850898363,-79.77356702984366,67.98989898989899,126.99999999999999,28.058139534883715,-18.76136363636364,-11.0,0.8410596026490103,8.561797752808982,-23.518518518518512,35.71634725439036,1776.249587151867,54.805625031753245,3377.509834236232,67.67025013201668,929.3743659092773,0
-56.021447384924116,28.83705278072974,-78.86173198877222,-89.55956707858816,100.32259808928679,125.97827835880935,-70.8697299857887,67.98989898989899,126.99999999999999,28.058139534883715,-18.76136363636364,-11.0,0.8410596026490103,8.561797752808982,-23.518518518518512,35.71634725439036,1776.249587151867,54.57341071814202,3220.2786486627606,65.75278394936338,1050.689324688346,0
-56.021447384924116,28.83705278072974,-78.86173198877222,-89.55956707858816,100.32259808928679,125.97827835880935,-70.8697299857887,24.373737373737377,-34.07317073170733,-29.53488372093024,-11.54545454545455,7.0,0.8410596026490103,9.988764044943812,-26.654320987654312,18.001423875884576,146.88463394079525,54.57341071814202,3220.2786486627606,65.75278394936338,1050.689324688346,0
-56.021447384924116,28.83705278072974,-78.86173198877222,-89.55956707858816,100.32259808928679,125.97827835880935,-70.8697299857887,52.5959595959596,-15.487804878048792,4.430232558139529,-41.852272727272734,-75.0,-12.615894039735096,2.8539325842696552,-51.74074074074073,32.07210464052076,716.8425080221944,54.57341071814202,3220.2786486627606,65.75278394936338,1050.689324688346,0
-63.63539445628998,23.438540559688295,-84.80309803513879,-82.2356029399887,95.83566664663822,127.0,-61.06347702510652,52.5959595959596,-15.487804878048792,4.430232558139529,-41.852272727272734,-75.0,-12.615894039735096,2.8539325842696552,-51.74074074074073,32.07210464052076,716.8425080221944,57.29234435037235,3291.0323599436624,63.492413844938596,1204.8825816290707,0
-63.63539445628998,23.438540559688295,-84.80309803513879,-82.2356029399887,95.83566664663822,127.0,-61.06347702510652,57.727272727272734,38.20325203252031,-1.476744186046517,-12.988636363636369,-13.0,7.569536423841063,2.8539325842696552,-45.469135802469125,22.411063765006972,463.80726017487393,57.29234435037235,3291.0323599436624,63.492413844938596,1204.8825816290707,0
-63.63539445628998,23.438540559688295,-84.80309803513879,-82.2356029399887,95.83566664663822,127.0,-61.06347702510652,-8.97979797979798,-21.682926829268304,-10.337209302325586,-1.4431818181818237,15.0,4.205298013245036,-2.8539325842696694,-42.33333333333333,13.354459982552717,182.27635997769406,57.29234435037235,3291.0323599436624,63.492413844938596,1204.8825816290707,0
-79.46858146243571,28.83705278072974,-88.65838444744776,-74.07051126726435,90.89088505678063,126.25073746312682,-48.18900994789203,-8.97979797979798,-21.682926829268304,-10.337209302325586,-1.4431818181818237,15.0,4.205298013245036,-2.8539325842696694,-42.33333333333333,13.354459982552717,182.27635997769406,65.65467289687108,4269.956776193045,63.85531616514728,972.9105888256074,0
-79.46858146243571,28.83705278072974,-88.65838444744776,-74.07051126726435,90.89088505678063,126.25073746312682,-48.18900994789203,14.111111111111114,-46.46341463414635,-78.26744186046511,-14.431818181818187,13.0,5.88741721854305,2.8539325842696552,-48.60493827160493,27.9525092327448,716.5066636432695,65.65467289687108,4269.956776193045,63.85531616514728,972.9105888256074,0
-79.46858146243571,28.83705278072974,-88.65838444744776,-74.07051126726435,90.89088505678063,126.25073746312682,-48.18900994789203,96.21212121212122,106.34959349593494,39.87209302325581,-4.32954545454546,1.0,7.569536423841063,15.696629213483138,-17.246913580246904,36.03455405042857,1769.966066322932,65.65467289687108,4269.956776193045,63.85531616514728,972.9105888256074,0
-84.374639408002,21.279135671271717,-97.29316976816716,-64.87965430902189,85.39668329027218,125.22901582193617,-35.73567029843673,96.21212121212122,106.34959349593494,39.87209302325581,-4.32954545454546,1.0,7.569536423841063,15.696629213483138,-17.246913580246904,36.03455405042857,1769.966066322932,67.64898161581363,4231.500038731975,61.150653249486915,1454.9624315975054,0
-84.374639408002,21.279135671271717,-97.29316976816716,-64.87965430902189,85.39668329027218,125.22901582193617,-35.73567029843673,14.111111111111114,-23.747967479674806,22.15116279069767,-10.102272727272734,19.0,5.88741721854305,-5.707865168539334,-54.87654320987654,19.448042463214406,252.81212845527807,67.64898161581363,4231.500038731975,61.150653249486915,1454.9624315975054,0
-84.374639408002,21.279135671271717,-97.29316976816716,-64.87965430902189,85.39668329027218,125.22901582193617,-35.73567029843673,42.33333333333334,11.35772357723576,8.860465116279064,-18.76136363636364,-13.0,-0.8410596026490031,-8.561797752808996,-39.197530864197525,17.864159235358414,225.4340442736678,67.64898161581363,4231.500038731975,61.150653249486915,1454.9624315975054,0
-89.7585601404741,11.291888062345041,-106.19201580205842,-54.6014861481302,79.3530613471129,123.66237597211051,-23.883941260066308,42.33333333333334,11.35772357723576,8.860465116279064,-18.76136363636364,-13.0,-0.8410596026490031,-8.561797752808996,-39.197530864197525,17.864159235358414,225.4340442736678,69.08082133495918,4047.286535698715,57.36179667084455,2257.223046889835,0
-89.7585601404741,11.291888062345041,-106.19201580205842,-54.6014861481302,79.3530613471129,123.66237597211051,-23.883941260066308,52.5959595959596,56.78861788617885,17.720930232558132,-4.32954545454546,7.0,4.205298013245036,-1.4269662921348392,-39.197530864197525,22.90810604235243,532.9964328342733,69.08082133495918,4047.286535698715,57.36179667084455,2257.223046889835,0
-89.7585601404741,11.291888062345041,-106.19201580205842,-54.6014861481302,79.3530613471129,123.66237597211051,-23.883941260066308,8.979797979797986,-15.487804878048792,-5.906976744186052,-21.647727272727277,-7.0,5.88741721854305,7.13483146067415,-42.33333333333333,14.297236110913829,159.34518161828822,69.08082133495918,4047.286535698715,57.36179667084455,2257.223046889835,0
-98.39194782390568,17.410201912858682,-111.23557542364071,-43.83095065018981,72.65318752628733,120.9377849289354,-11.370440549502632,8.979797979797986,-15.487804878048792,-5.906976744186052,-21.647727272727277,-7.0,5.88741721854305,7.13483146067415,-42.33333333333333,14.297236110913829,159.34518161828822,75.67924172013502,5020.805446681476,57.492242662229735,2340.7733531881086,0
-98.39194782390568,17.410201912858682,-111.23557542364071,-43.83095065018981,72.65318752628733,120.9377849289354,-11.370440549502632,-3.848484848484844,-127.0,-8.860465116279075,-17.318181818181824,-7.0,5.88741721854305,5.7078651685393185,-45.469135802469125,27.636443746562154,1799.3910903498668,75.67924172013502,5020.805446681476,57.492242662229735,2340.7733531881086,0
-98.39194782390568,17.410201912858682,-111.23557542364071,-43.83095065018981,72.65318752628733,120.9377849289354,-11.370440549502632,-11.54545454545454,-50.59349593495936,-57.59302325581396,-11.54545454545455,5.0,9.251655629139076,9.988764044943812,-48.60493827160493,25.51534827842128,501.11396874956773,75.67924172013502,5020.805446681476,57.492242662229735,2340.7733531881086,0
-107.78991596638654,28.47715196599364,-114.45711612433725,-32.89629270656651,65.2665384846482,116.74872620005362,1.9853150165798752,-11.54545454545454,-50.59349593495936,-57.59302325581396,-11.54545454545455,5.0,9.251655629139076,9.988764044943812,-48.60493827160493,25.51534827842128,501.11396874956773,83.57472801890582,6507.22839255878,58.610186932299136,2344.0418263566366,0
-107.78991596638654,28.47715196599364,-114.45711612433725,-32.89629270656651,65.2665384846482,116.74872620005362,1.9853150165798752,62.85858585858587,60.91869918699186,17.720930232558132,-30.306818181818187,-27.0,2.523178807947023,5.7078651685393185,-42.33333333333333,31.171176346221714,525.9633874459404,83.57472801890582,6507.22839255878,58.610186932299136,2344.0418263566366,0
-107.78991596638654,28.47715196599364,-114.45711612433725,-32.89629270656651,65.2665384846482,116.74872620005362,1.9853150165798752,39.767676767676775,11.35772357723576,28.058139534883715,-20.20454545454546,-31.0,0.8410596026490103,9.988764044943812,-36.06172839506172,22.159954672124535,191.33873803059637,83.57472801890582,6507.22839255878,58.610186932299136,2344.0418263566366,0
-109.76508215226389,32.61601133545875,-118.39162075059777,-21.900088845812135,57.40677762422639,111.81040493429873,14.077688299384135,39.767676767676775,11.35772357723576,28.058139534883715,-20.20454545454546,-31.0,0.8410596026490103,9.988764044943812,-36.06172839506172,22.159954672124535,191.33873803059637,86.92423807944014,7191.682983197661,57.63590697728955,2797.150315779144,0
-109.76508215226389,32.61601133545875,-118.39162075059777,-21.900088845812135,57.40677762422639,111.81040493429873,14.077688299384135,39.767676767676775,25.813008130081286,-29.53488372093024,-14.431818181818187,-11.0,7.569536423841063,18.5505617977528,-23.518518518518512,21.273250442577357,111.92838564472116,86.92423807944014,7191.682983197661,57.63590697728955,2797.150315779144,0
-109.76508215226389,32.61601133545875,-118.39162075059777,-21.900088845812135,57.40677762422639,111.81040493429873,14.077688299384135,37.20202020202021,21.68292682926828,-10.337209302325586,-5.329070518200751e-15,7.0,7.569536423841063,5.7078651685393185,-48.60493827160493,17.263062024699924,296.88695232093175,86.92423807944014,7191.682983197661,57.63590697728955,2797.150315779144,0
