Gyro 0,Gyro 1,Gyro 2,Orientation 0,Orientation 1,Orientation 2,Orientation 3,Sensor 0,Sensor 1,Sensor 2,Sensor 3,Sensor 4,Sensor 5,Sensor 6,Sensor 7,Sensor Mean,Sensor Variance,Gyro Mean,Gyro Variance,Orientation Mean,Orientation Variance,Label
-24.637799420900226,53.310063463281985,-37.45222274216191,-123.86182551689359,126.88648407073994,96.92989417989423,-115.95882967607105,5.329070518200751e-15,-13.009756097560974,-4.863829787234037,7.470588235294118,-5.079999999999995,-7.134831460674168,-4.482352941176469,-20.56190476190477,7.825407910480568,39.774263724910206,38.466695208781374,2412.9785617511125,71.54137057411249,2115.9402821487934,0
-24.637799420900226,53.310063463281985,-37.45222274216191,-123.86182551689359,126.88648407073994,96.92989417989423,-115.95882967607105,6.773333333333339,27.87804878048781,-10.268085106382973,-4.482352941176471,-8.889999999999993,-14.269662921348324,-8.466666666666665,-20.56190476190477,12.698756813912542,62.2361518161096,38.466695208781374,2412.9785617511125,71.54137057411249,2115.9402821487934,0
-24.637799420900226,53.310063463281985,-37.45222274216191,-123.86182551689359,126.88648407073994,96.92989417989423,-115.95882967607105,-15.239999999999995,-19.204878048780486,3.782978723404261,8.964705882352941,-3.8099999999999943,-7.134831460674168,-0.49803921568627274,-27.819047619047627,10.806810118743218,85.86200491003048,38.466695208781374,2412.9785617511125,71.54137057411249,2115.9402821487934,0
-24.637799420900226,53.310063463281985,-37.45222274216191,-123.86182551689359,126.88648407073994,96.92989417989423,-115.95882967607105,-10.159999999999995,-9.292682926829267,-7.025531914893611,-13.447058823529412,-25.399999999999995,-17.12359550561799,-4.482352941176469,-32.657142857142865,14.9485456211487,93.86384381283601,38.466695208781374,2412.9785617511125,71.54137057411249,2115.9402821487934,0
-24.570939720979194,54.92203082502269,-37.071876462330366,-123.69104051101024,126.9513503160314,96.89629629629633,-116.01191222570532,-10.159999999999995,-9.292682926829267,-7.025531914893611,-13.447058823529412,-25.399999999999995,-17.12359550561799,-4.482352941176469,-32.657142857142865,14.9485456211487,93.86384381283601,38.85494900277742,2489.714127272149,71.89498259945442,2091.7807140759182,0
-24.570939720979194,54.92203082502269,-37.071876462330366,-123.69104051101024,126.9513503160314,96.89629629629633,-116.01191222570532,-20.319999999999993,-10.531707317073169,-1.6212765957446749,-5.976470588235294,-5.079999999999995,-12.842696629213494,0.4980392156862763,-35.07619047619048,11.493297602767923,132.38961675864073,38.85494900277742,2489.714127272149,71.89498259945442,2091.7807140759182,0
-24.570939720979194,54.92203082502269,-37.071876462330366,-123.69104051101024,126.9513503160314,96.89629629629633,-116.01191222570532,-15.239999999999995,-37.79024390243902,15.672340425531921,4.482352941176471,-3.8099999999999943,-9.988764044943832,0.4980392156862763,-22.980952380952388,13.807836613841237,149.0695404877304,38.85494900277742,2489.714127272149,71.89498259945442,2091.7807140759182,0
-24.10292182153197,55.766394681172585,-37.404679457182965,-123.5202555051269,126.9513503160314,96.89629629629633,-116.01191222570532,-15.239999999999995,-37.79024390243902,15.672340425531921,4.482352941176471,-3.8099999999999943,-9.988764044943832,0.4980392156862763,-22.980952380952388,13.807836613841237,149.0695404877304,39.09133198662917,2539.4822551502903,72.23044321449414,2057.2717800979794,0
-24.10292182153197,55.766394681172585,-37.404679457182965,-123.5202555051269,126.9513503160314,96.89629629629633,-116.01191222570532,5.080000000000005,1.8585365853658562,-0.5404255319148876,-4.482352941176471,-11.429999999999994,-14.269662921348324,-0.49803921568627274,-22.980952380952388,7.642496197055525,63.574645170394675,39.09133198662917,2539.4822551502903,72.23044321449414,2057.2717800979794,0
-24.10292182153197,55.766394681172585,-37.404679457182965,-123.5202555051269,126.9513503160314,96.89629629629633,-116.01191222570532,-13.546666666666662,-25.4,-7.025531914893611,-5.976470588235294,-10.159999999999995,-8.561797752809,-0.49803921568627274,-22.980952380952388,11.768682314905403,72.94794369709116,39.09133198662917,2539.4822551502903,72.23044321449414,2057.2717800979794,0
-23.802053171887326,56.38047748564524,-37.26204960224614,-123.54160363086233,126.96756687735426,96.92989417989423,-116.06499477533958,-13.546666666666662,-25.4,-7.025531914893611,-5.976470588235294,-10.159999999999995,-8.561797752809,-0.49803921568627274,-22.980952380952388,11.768682314905403,72.94794369709116,39.14819341992624,2563.2221009929817,72.39471023958457,2053.382098867233,0
-23.802053171887326,56.38047748564524,-37.26204960224614,-123.54160363086233,126.96756687735426,96.92989417989423,-116.06499477533958,5.080000000000005,-0.6195121951219491,-0.5404255319148876,-1.4941176470588236,-6.349999999999994,-12.842696629213494,-4.482352941176469,-13.304761904761914,5.589233356155942,25.880562931980286,39.14819341992624,2563.2221009929817,72.39471023958457,2053.382098867233,0
-23.802053171887326,56.38047748564524,-37.26204960224614,-123.54160363086233,126.96756687735426,96.92989417989423,-116.06499477533958,5.329070518200751e-15,-5.575609756097559,-4.863829787234037,-5.976470588235294,-8.889999999999993,-5.707865168539337,5.4784313725490215,-25.40000000000001,7.736525834081907,56.916692039733896,39.14819341992624,2563.2221009929817,72.39471023958457,2053.382098867233,0
-22.79915767307185,56.61075853732248,-37.11941974730931,-123.56295175659774,126.99999999999999,97.0306878306879,-116.38349007314525,5.329070518200751e-15,-5.575609756097559,-4.863829787234037,-5.976470588235294,-8.889999999999993,-5.707865168539337,5.4784313725490215,-25.40000000000001,7.736525834081907,56.916692039733896,38.84311198590121,2549.391836614259,72.43104334707651,2055.8321151565187,0
-22.79915767307185,56.61075853732248,-37.11941974730931,-123.56295175659774,126.99999999999999,97.0306878306879,-116.38349007314525,32.17333333333334,14.24878048780488,10.268085106382985,-1.4941176470588236,-12.699999999999994,-7.134831460674168,-9.462745098039214,-10.885714285714295,12.295950927375962,79.50456415257098,38.84311198590121,2549.391836614259,72.43104334707651,2055.8321151565187,0
-22.79915767307185,56.61075853732248,-37.11941974730931,-123.56295175659774,126.99999999999999,97.0306878306879,-116.38349007314525,10.160000000000005,3.097560975609758,-10.268085106382973,-1.4941176470588236,-1.2699999999999942,-7.134831460674168,7.4705882352941195,-20.56190476190477,7.682136023365577,39.92643831886447,38.84311198590121,2549.391836614259,72.43104334707651,2055.8321151565187,0
-22.097130823901015,56.5339981867634,-37.238277959756665,-123.56295175659774,126.99999999999999,97.19867724867731,-116.70198537095087,10.160000000000005,3.097560975609758,-10.268085106382973,-1.4941176470588236,-1.2699999999999942,-7.134831460674168,7.4705882352941195,-20.56190476190477,7.682136023365577,39.92643831886447,38.62313565680702,2534.224759963433,72.44507596770593,2052.8591236461575,0
-22.097130823901015,56.5339981867634,-37.238277959756665,-123.56295175659774,126.99999999999999,97.19867724867731,-116.70198537095087,-6.773333333333328,-21.68292682926829,-2.702127659574462,11.952941176470588,-8.889999999999993,-7.134831460674168,-3.48627450980392,-32.657142857142865,11.909947228283452,105.71541752320695,38.62313565680702,2534.224759963433,72.44507596770593,2052.8591236461575,0
-22.097130823901015,56.5339981867634,-37.238277959756665,-123.56295175659774,126.99999999999999,97.19867724867731,-116.70198537095087,-10.159999999999995,-20.443902439024388,1.6212765957446869,0.0,-5.079999999999995,-8.561797752809,5.4784313725490215,-22.980952380952388,9.290795067634935,70.0720663178965,38.62313565680702,2534.224759963433,72.44507596770593,2052.8591236461575,0
-22.866017372992882,57.91568449682686,-37.380907814693494,-123.56295175659774,126.99999999999999,97.19867724867731,-116.70198537095087,-10.159999999999995,-20.443902439024388,1.6212765957446869,0.0,-5.079999999999995,-8.561797752809,5.4784313725490215,-22.980952380952388,9.290795067634935,70.0720663178965,39.38753656150441,2636.300984617855,72.95318135603937,2026.430908344198,0
-22.866017372992882,57.91568449682686,-37.380907814693494,-123.56295175659774,126.99999999999999,97.19867724867731,-116.70198537095087,-3.3866666666666614,9.292682926829269,3.782978723404261,-11.952941176470588,-11.429999999999994,-8.561797752809,-10.458823529411763,-25.40000000000001,10.533236346948943,46.55870353335469,39.38753656150441,2636.300984617855,72.95318135603937,2026.430908344198,0
-22.866017372992882,57.91568449682686,-37.380907814693494,-123.56295175659774,126.99999999999999,97.19867724867731,-116.70198537095087,-8.466666666666661,52.65853658536585,36.20851063829788,11.952941176470588,-5.079999999999995,-9.988764044943832,2.4901960784313744,-25.40000000000001,19.030701898772023,311.16241867769315,39.38753656150441,2636.300984617855,72.95318135603937,2026.430908344198,0
-22.79915767307185,58.76004835297675,-37.47599438465138,-123.56295175659774,126.93513375470853,97.36666666666673,-116.86123301985373,-8.466666666666661,52.65853658536585,36.20851063829788,11.952941176470588,-5.079999999999995,-9.988764044943832,2.4901960784313744,-25.40000000000001,19.030701898772023,311.16241867769315,39.678400136899995,2688.1149242093998,73.26633149807529,2010.565245404155,0
-22.79915767307185,58.76004835297675,-37.47599438465138,-123.56295175659774,126.93513375470853,97.36666666666673,-116.86123301985373,16.933333333333337,-6.8146341463414615,-23.238297872340418,-1.4941176470588236,5.329070518200751e-15,-4.280898876404505,-1.4941176470588218,-10.885714285714295,8.14263922603146,69.15208022773477,39.678400136899995,2688.1149242093998,73.26633149807529,2010.565245404155,0
-22.79915767307185,58.76004835297675,-37.47599438465138,-123.56295175659774,126.93513375470853,97.36666666666673,-116.86123301985373,-8.466666666666661,-13.009756097560974,19.995744680851068,-1.4941176470588236,-7.619999999999994,-8.561797752809,3.4862745098039234,-10.885714285714295,9.190008955058092,32.767420074720036,39.678400136899995,2688.1149242093998,73.26633149807529,2010.565245404155,0
-21.929981574098434,58.683288002417676,-37.11941974730931,-123.69104051101024,126.91891719338567,97.53465608465615,-117.17972831765934,-8.466666666666661,-13.009756097560974,19.995744680851068,-1.4941176470588236,-7.619999999999994,-8.561797752809,3.4862745098039234,-10.885714285714295,9.190008955058092,32.767420074720036,39.24422977460847,2651.2295126689087,73.16458275357907,2030.9423036660246,0
-21.929981574098434,58.683288002417676,-37.11941974730931,-123.69104051101024,126.91891719338567,97.53465608465615,-117.17972831765934,-18.62666666666666,-35.31219512195122,-12.429787234042546,1.4941176470588236,-7.619999999999994,-14.269662921348324,-1.4941176470588218,-30.238095238095248,15.185580309527705,154.86907286171942,39.24422977460847,2651.2295126689087,73.16458275357907,2030.9423036660246,0
-21.929981574098434,58.683288002417676,-37.11941974730931,-123.69104051101024,126.91891719338567,97.53465608465615,-117.17972831765934,3.386666666666672,-17.96585365853658,-18.91489361702127,-1.4941176470588236,-1.2699999999999942,-8.561797752809,1.4941176470588253,-22.980952380952388,9.508549921262944,82.31723781074439,39.24422977460847,2651.2295126689087,73.16458275357907,2030.9423036660246,0
-22.8994472229534,58.83680870353584,-37.45222274216191,-123.73373676248107,126.85405094809421,97.63544973544975,-117.17972831765934,3.386666666666672,-17.96585365853658,-18.91489361702127,-1.4941176470588236,-1.2699999999999942,-8.561797752809,1.4941176470588253,-22.980952380952388,9.508549921262944,82.31723781074439,39.72949288955038,2694.0293974905985,73.34092273605961,2018.9019083109729,0
-22.8994472229534,58.83680870353584,-37.45222274216191,-123.73373676248107,126.85405094809421,97.63544973544975,-117.17972831765934,-16.93333333333333,-21.68292682926829,-0.5404255319148876,-8.964705882352941,-8.889999999999993,-11.415730337078662,-9.462745098039214,-22.980952380952388,12.608852424117464,56.09979222905728,39.72949288955038,2694.0293974905985,73.34092273605961,2018.9019083109729,0
-22.8994472229534,58.83680870353584,-37.45222274216191,-123.73373676248107,126.85405094809421,97.63544973544975,-117.17972831765934,20.320000000000007,20.44390243902439,-39.45106382978723,-4.482352941176471,-10.159999999999995,-9.988764044943832,4.482352941176472,-18.142857142857153,15.933911667370694,132.63898632570724,39.72949288955038,2694.0293974905985,73.34092273605961,2018.9019083109729,0
-23.10002632271649,58.222725899063185,-37.64239588207767,-123.69104051101024,126.78918470280276,97.80343915343917,-117.28589341692788,20.320000000000007,20.44390243902439,-39.45106382978723,-4.482352941176471,-10.159999999999995,-9.988764044943832,4.482352941176472,-18.142857142857153,15.933911667370694,132.63898632570724,39.65504936795245,2669.1653525731626,73.18538743071703,2019.003240702207,0
-23.10002632271649,58.222725899063185,-37.64239588207767,-123.69104051101024,126.78918470280276,97.80343915343917,-117.28589341692788,-6.773333333333328,-3.0975609756097544,-2.702127659574462,-10.458823529411765,-12.699999999999994,-15.696629213483156,-7.470588235294116,-30.238095238095248,11.142144773100227,79.54407880961251,39.65504936795245,2669.1653525731626,73.18538743071703,2019.003240702207,0
-23.10002632271649,58.222725899063185,-37.64239588207767,-123.69104051101024,126.78918470280276,97.80343915343917,-117.28589341692788,-23.706666666666663,-55.136585365853655,26.480851063829792,2.988235294117647,-17.779999999999994,-15.696629213483156,-2.490196078431371,-27.819047619047627,21.51227641267874,278.94326820710756,39.65504936795245,2669.1653525731626,73.18538743071703,2019.003240702207,0
-22.46485917346669,57.378362042913295,-37.7850257370145,-123.626996133804,126.74053501883417,98.10582010582016,-117.65747126436781,-23.706666666666663,-55.136585365853655,26.480851063829792,2.988235294117647,-17.779999999999994,-15.696629213483156,-2.490196078431371,-27.819047619047627,21.51227641267874,278.94326820710756,39.2094156511315,2610.952975249258,72.93012797124393,2023.6040380180104,0
-22.46485917346669,57.378362042913295,-37.7850257370145,-123.626996133804,126.74053501883417,98.10582010582016,-117.65747126436781,3.386666666666672,-8.053658536585363,-34.04680851063829,-2.988235294117647,-3.8099999999999943,-5.707865168539337,4.482352941176472,-13.304761904761914,9.472543627810712,110.1167123765416,39.2094156511315,2610.952975249258,72.93012797124393,2023.6040380180104,0
-22.46485917346669,57.378362042913295,-37.7850257370145,-123.626996133804,126.74053501883417,98.10582010582016,-117.65747126436781,-22.01333333333333,-32.83414634146341,-34.04680851063829,0.0,-1.2699999999999942,-8.561797752809,-4.482352941176469,-35.07619047619048,17.285578669451372,236.69589252086968,39.2094156511315,2610.952975249258,72.93012797124393,2023.6040380180104,0
-22.565148723348237,56.61075853732248,-37.49976602714085,-123.49890737939148,126.70810189618847,98.37460317460324,-118.08213166144202,-22.01333333333333,-32.83414634146341,-34.04680851063829,0.0,-1.2699999999999942,-8.561797752809,-4.482352941176469,-35.07619047619048,17.285578669451372,236.69589252086968,38.89189109593719,2558.1096530599216,72.53647731461827,2039.1844672612299,0
-22.565148723348237,56.61075853732248,-37.49976602714085,-123.49890737939148,126.70810189618847,98.37460317460324,-118.08213166144202,-13.546666666666662,-25.4,-1.6212765957446749,0.0,-6.349999999999994,-12.842696629213494,-6.474509803921567,-25.40000000000001,11.4543937119433,96.2874667175894,38.89189109593719,2558.1096530599216,72.53647731461827,2039.1844672612299,0
-22.565148723348237,56.61075853732248,-37.49976602714085,-123.49890737939148,126.70810189618847,98.37460317460324,-118.08213166144202,-1.693333333333328,-20.443902439024388,-19.995744680851057,-1.4941176470588236,-6.349999999999994,-8.561797752809,7.4705882352941195,-20.56190476190477,10.821423606284435,68.32650620641756,38.89189109593719,2558.1096530599216,72.53647731461827,2039.1844672612299,0
-23.802053171887326,58.76004835297675,-37.11941974730931,-123.3921667507144,126.67566877354274,98.50899470899475,-118.13521421107629,-1.693333333333328,-20.443902439024388,-19.995744680851057,-1.4941176470588236,-6.349999999999994,-8.561797752809,7.4705882352941195,-20.56190476190477,10.821423606284435,68.32650620641756,39.89384042405779,2697.7875439833174,73.0905449503335,2014.769068423525,0
-23.802053171887326,58.76004835297675,-37.11941974730931,-123.3921667507144,126.67566877354274,98.50899470899475,-118.13521421107629,8.466666666666672,19.20487804878049,-2.702127659574462,-1.4941176470588236,-2.5399999999999943,-8.561797752809,-0.49803921568627274,-18.142857142857153,7.701310516679109,54.961640925265264,39.89384042405779,2697.7875439833174,73.0905449503335,2014.769068423525,0
-23.802053171887326,58.76004835297675,-37.11941974730931,-123.3921667507144,126.67566877354274,98.50899470899475,-118.13521421107629,-1.693333333333328,9.292682926829269,30.804255319148943,4.482352941176471,1.2700000000000058,-4.280898876404505,1.4941176470588253,-18.142857142857153,8.932562273351062,110.17489504485295,39.89384042405779,2697.7875439833174,73.0905449503335,2014.769068423525,0
-22.999736772834947,58.990329404654,-37.404679457182965,-123.37081862497898,126.59458596692842,98.60978835978841,-118.13521421107629,-1.693333333333328,9.292682926829269,30.804255319148943,4.482352941176471,1.2700000000000058,-4.280898876404505,1.4941176470588253,-18.142857142857153,8.932562273351062,110.17489504485295,39.79824854489063,2703.6451765003326,73.25527582893865,2000.1607932200018,0
-22.999736772834947,58.990329404654,-37.404679457182965,-123.37081862497898,126.59458596692842,98.60978835978841,-118.13521421107629,-10.159999999999995,-19.204878048780486,2.702127659574474,0.0,-3.8099999999999943,-5.707865168539337,0.4980392156862763,-25.40000000000001,8.435363761572571,86.08791546847718,39.79824854489063,2703.6451765003326,73.25527582893865,2000.1607932200018,0
-22.999736772834947,58.990329404654,-37.404679457182965,-123.37081862497898,126.59458596692842,98.60978835978841,-118.13521421107629,6.773333333333339,-9.292682926829267,18.91489361702128,4.482352941176471,-3.8099999999999943,-5.707865168539337,1.4941176470588253,-10.885714285714295,7.670119989959101,29.61110734403632,39.79824854489063,2703.6451765003326,73.25527582893865,2000.1607932200018,0
-22.364569623585144,59.374131157449405,-37.02433317735142,-123.47755925365607,126.54593628295983,98.74417989417992,-118.24137931034483,6.773333333333339,-9.292682926829267,18.91489361702128,4.482352941176471,-3.8099999999999943,-5.707865168539337,1.4941176470588253,-10.885714285714295,7.670119989959101,29.61110734403632,39.58767798612866,2698.13129982195,73.29200786281896,2013.820543739562,0
-22.364569623585144,59.374131157449405,-37.02433317735142,-123.47755925365607,126.54593628295983,98.74417989417992,-118.24137931034483,3.386666666666672,-25.4,-8.1063829787234,-7.470588235294118,-12.699999999999994,-15.696629213483156,-6.474509803921567,-25.40000000000001,13.079347112261114,72.05021764181527,39.58767798612866,2698.13129982195,73.29200786281896,2013.820543739562,0
-22.364569623585144,59.374131157449405,-37.02433317735142,-123.47755925365607,126.54593628295983,98.74417989417992,-118.24137931034483,-18.62666666666666,-16.726829268292683,-5.944680851063824,-8.964705882352941,-11.429999999999994,-12.842696629213494,-1.4941176470588218,-30.238095238095248,13.283474022842958,77.57054305955072,39.58767798612866,2698.13129982195,73.29200786281896,2013.820543739562,0
-22.030271123979983,59.60441220912665,-36.95301824988301,-123.64834425953941,126.5135031603141,98.81137566137568,-118.34754440961336,-18.62666666666666,-16.726829268292683,-5.944680851063824,-8.964705882352941,-11.429999999999994,-12.842696629213494,-1.4941176470588218,-30.238095238095248,13.283474022842958,77.57054305955072,39.52923386099655,2701.707880254455,73.40192490618303,2021.7984054492254,0
-22.030271123979983,59.60441220912665,-36.95301824988301,-123.64834425953941,126.5135031603141,98.81137566137568,-118.34754440961336,11.853333333333339,0.6195121951219527,3.782978723404261,5.976470588235294,-7.619999999999994,-4.280898876404505,-0.49803921568627274,-13.304761904761914,5.991999354618441,22.47674466451013,39.52923386099655,2701.707880254455,73.40192490618303,2021.7984054492254,0
-22.030271123979983,59.60441220912665,-36.95301824988301,-123.64834425953941,126.5135031603141,98.81137566137568,-118.34754440961336,-3.3866666666666614,-20.443902439024388,-18.91489361702127,-2.988235294117647,-7.619999999999994,-5.707865168539337,3.4862745098039234,-25.40000000000001,10.993479711896654,82.46155344236682,39.52923386099655,2701.707880254455,73.40192490618303,2021.7984054492254,0
-22.53171887338772,60.06497431248114,-37.26204960224614,-123.73373676248107,126.41620379237692,98.94576719576725,-118.34754440961336,-3.3866666666666614,-20.443902439024388,-18.91489361702127,-2.988235294117647,-7.619999999999994,-5.707865168539337,3.4862745098039234,-25.40000000000001,10.993479711896654,82.46155344236682,39.952914262705,2751.9576587866673,73.68692022573612,2008.5062279321178,0
-22.53171887338772,60.06497431248114,-37.26204960224614,-123.73373676248107,126.41620379237692,98.94576719576725,-118.34754440961336,6.773333333333339,31.59512195121951,7.025531914893623,4.482352941176471,-3.8099999999999943,-9.988764044943832,6.4745098039215705,-20.56190476190477,11.33893984392414,94.85851709208258,39.952914262705,2751.9576587866673,73.68692022573612,2008.5062279321178,0
-22.53171887338772,60.06497431248114,-37.26204960224614,-123.73373676248107,126.41620379237692,98.94576719576725,-118.34754440961336,-16.93333333333333,-25.4,1.6212765957446869,1.4941176470588236,-6.349999999999994,-11.415730337078662,-3.48627450980392,-25.40000000000001,11.512591552877428,100.62801401435271,39.952914262705,2751.9576587866673,73.68692022573612,2008.5062279321178,0
-22.598578573308753,60.75581746751287,-37.6186242395882,-123.79778113968733,126.28647130179401,99.08015873015876,-118.18829676071056,-16.93333333333333,-25.4,1.6212765957446869,1.4941176470588236,-6.349999999999994,-11.415730337078662,-3.48627450980392,-25.40000000000001,11.512591552877428,100.62801401435271,40.32434009346994,2808.5146487218476,74.05740761559613,1989.4109963536653,0
-22.598578573308753,60.75581746751287,-37.6186242395882,-123.79778113968733,126.28647130179401,99.08015873015876,-118.18829676071056,22.01333333333334,52.65853658536585,14.591489361702134,-2.988235294117647,-12.699999999999994,-12.842696629213494,-0.49803921568627274,-15.723809523809532,16.752017492903533,258.288542396212,40.32434009346994,2808.5146487218476,74.05740761559613,1989.4109963536653,0
-22.598578573308753,60.75581746751287,-37.6186242395882,-123.79778113968733,126.28647130179401,99.08015873015876,-118.18829676071056,6.773333333333339,-1.8585365853658518,-5.944680851063824,-1.4941176470588236,-3.8099999999999943,-12.842696629213494,-4.482352941176469,-18.142857142857153,6.918571891258618,33.23949063387746,40.32434009346994,2808.5146487218476,74.05740761559613,1989.4109963536653,0
-21.996841274019467,60.29525536415838,-37.49976602714085,-123.92586989409983,126.18917193385685,99.28174603174608,-118.34754440961336,6.773333333333339,-1.8585365853658518,-5.944680851063824,-1.4941176470588236,-3.8099999999999943,-12.842696629213494,-4.482352941176469,-18.142857142857153,6.918571891258618,33.23949063387746,39.93062088843956,2762.6993423221365,73.90696376179969,2006.32681153241,0
-21.996841274019467,60.29525536415838,-37.49976602714085,-123.92586989409983,126.18917193385685,99.28174603174608,-118.34754440961336,-15.239999999999995,-17.96585365853658,2.702127659574474,5.976470588235294,-3.8099999999999943,-7.134831460674168,-1.4941176470588218,-25.40000000000001,9.965425126759918,73.76941658852095,39.93062088843956,2762.6993423221365,73.90696376179969,2006.32681153241,0
-21.996841274019467,60.29525536415838,-37.49976602714085,-123.92586989409983,126.18917193385685,99.28174603174608,-118.34754440961336,3.386666666666672,-1.8585365853658518,-3.7829787234042493,-2.988235294117647,-10.159999999999995,-12.842696629213494,1.4941176470588253,-20.56190476190477,7.134392038466439,46.30750302394771,39.93062088843956,2762.6993423221365,73.90696376179969,2006.32681153241,0
-21.428533824690696,60.14173466304022,-37.49976602714085,-124.05395864851235,126.09187256591967,99.58412698412701,-118.66603970741903,3.386666666666672,-1.8585365853658518,-3.7829787234042493,-2.988235294117647,-10.159999999999995,-12.842696629213494,1.4941176470588253,-20.56190476190477,7.134392038466439,46.30750302394771,39.690011504957255,2740.9759771160343,73.89848644623113,2014.843229802615,0
-21.428533824690696,60.14173466304022,-37.49976602714085,-124.05395864851235,126.09187256591967,99.58412698412701,-118.66603970741903,-10.159999999999995,-57.61463414634146,-36.20851063829787,2.988235294117647,2.5400000000000063,-2.853932584269674,5.4784313725490215,-15.723809523809532,16.69594419492315,400.6384239419914,39.690011504957255,2740.9759771160343,73.89848644623113,2014.843229802615,0
-21.428533824690696,60.14173466304022,-37.49976602714085,-124.05395864851235,126.09187256591967,99.58412698412701,-118.66603970741903,-13.546666666666662,-10.531707317073169,-1.6212765957446749,-2.988235294117647,-13.969999999999995,-14.269662921348324,-9.462745098039214,-25.40000000000001,11.473786736623712,55.18465611748301,39.690011504957255,2740.9759771160343,73.89848644623113,2014.843229802615,0
-22.29770992366411,61.139619220308276,-37.428451099672436,-124.13935115145402,125.96214007533676,99.81931216931218,-118.7191222570533,-13.546666666666662,-10.531707317073169,-1.6212765957446749,-2.988235294117647,-13.969999999999995,-14.269662921348324,-9.462745098039214,-25.40000000000001,11.473786736623712,55.18465611748301,40.288593414548274,2817.7319516366,74.2358071571449,2008.327650805223,0
-22.29770992366411,61.139619220308276,-37.428451099672436,-124.13935115145402,125.96214007533676,99.81931216931218,-118.7191222570533,-6.773333333333328,-0.6195121951219491,-13.510638297872335,-4.482352941176471,-8.889999999999993,-8.561797752809,-3.48627450980392,-27.819047619047627,9.267869581145579,71.44763192473175,40.288593414548274,2817.7319516366,74.2358071571449,2008.327650805223,0
-22.29770992366411,61.139619220308276,-37.428451099672436,-124.13935115145402,125.96214007533676,99.81931216931218,-118.7191222570533,-5.079999999999995,13.009756097560977,15.672340425531921,2.988235294117647,-3.8099999999999943,-9.988764044943832,-0.49803921568627274,-25.40000000000001,9.55589188473008,68.39870725850288,40.288593414548274,2817.7319516366,74.2358071571449,2008.327650805223,0
-21.629112924453793,60.90933816863103,-37.380907814693494,-124.31013615733735,125.86484070739958,100.05449735449741,-118.98453500522464,-5.079999999999995,13.009756097560977,15.672340425531921,2.988235294117647,-3.8099999999999943,-9.988764044943832,-0.49803921568627274,-25.40000000000001,9.55589188473008,68.39870725850288,39.97311963592611,2786.9479010953632,74.20012738022062,2021.656493462059,0
-21.629112924453793,60.90933816863103,-37.380907814693494,-124.31013615733735,125.86484070739958,100.05449735449741,-118.98453500522464,-20.319999999999993,-26.6390243902439,-5.944680851063824,-1.4941176470588236,-13.969999999999995,-9.988764044943832,-2.490196078431371,-22.980952380952388,12.978466924086767,91.69262354593596,39.97311963592611,2786.9479010953632,74.20012738022062,2021.656493462059,0
-21.629112924453793,60.90933816863103,-37.380907814693494,-124.31013615733735,125.86484070739958,100.05449735449741,-118.98453500522464,-3.3866666666666614,4.33658536585366,3.782978723404261,1.4941176470588236,-15.239999999999995,-17.12359550561799,-2.490196078431371,-32.657142857142865,10.063910355521953,119.24652075720938,39.97311963592611,2786.9479010953632,74.20012738022062,2021.656493462059,0
-21.461963674651212,60.679057116953786,-37.19073467477772,-124.41687678601446,125.76754133946243,100.35687830687834,-119.24994775339604,-3.3866666666666614,4.33658536585366,3.782978723404261,1.4941176470588236,-15.239999999999995,-17.12359550561799,-2.490196078431371,-32.657142857142865,10.063910355521953,119.24652075720938,39.777251822127575,2762.1729465363633,74.09555619258198,2037.101802487166,0
-21.461963674651212,60.679057116953786,-37.19073467477772,-124.41687678601446,125.76754133946243,100.35687830687834,-119.24994775339604,-13.546666666666662,-13.009756097560974,9.187234042553197,0.0,-3.8099999999999943,-11.415730337078662,4.482352941176472,-27.819047619047627,10.408848463010449,72.74915538430602,39.777251822127575,2762.1729465363633,74.09555619258198,2037.101802487166,0
-21.461963674651212,60.679057116953786,-37.19073467477772,-124.41687678601446,125.76754133946243,100.35687830687834,-119.24994775339604,8.466666666666672,-15.48780487804878,-51.34042553191489,-1.4941176470588236,3.810000000000006,-1.4269662921348427,3.4862745098039234,-15.723809523809532,12.654508131179684,277.7828922981723,39.777251822127575,2762.1729465363633,74.09555619258198,2037.101802487166,0
-22.932877072913914,61.139619220308276,-37.048104819840894,-124.50226928895611,125.6864585328481,100.457671957672,-119.24994775339604,8.466666666666672,-15.48780487804878,-51.34042553191489,-1.4941176470588236,3.810000000000006,-1.4269662921348427,3.4862745098039234,-15.723809523809532,12.654508131179684,277.7828922981723,40.373533704354365,2818.0422399176605,74.22999777636842,2040.5762288034834,0
-22.932877072913914,61.139619220308276,-37.048104819840894,-124.50226928895611,125.6864585328481,100.457671957672,-119.24994775339604,8.466666666666672,-3.0975609756097544,0.5404255319148996,-4.482352941176471,-6.349999999999994,-9.988764044943832,-3.48627450980392,-20.56190476190477,7.12174367900254,38.707565198928016,40.373533704354365,2818.0422399176605,74.22999777636842,2040.5762288034834,0
-22.932877072913914,61.139619220308276,-37.048104819840894,-124.50226928895611,125.6864585328481,100.457671957672,-119.24994775339604,3.386666666666672,8.053658536585367,18.91489361702128,5.976470588235294,-5.079999999999995,-8.561797752809,1.4941176470588253,-18.142857142857153,8.701307743904199,42.08953002095181,40.373533704354365,2818.0422399176605,74.22999777636842,2040.5762288034834,0
-23.066596472755975,60.90933816863103,-36.76284510996724,-124.63035804336863,125.63780884887952,100.49126984126991,-119.1437826541275,3.386666666666672,8.053658536585367,18.91489361702128,5.976470588235294,-5.079999999999995,-8.561797752809,1.4941176470588253,-18.142857142857153,8.701307743904199,42.08953002095181,40.246259917118074,2796.5667020058177,74.1008471073223,2060.686888335044,0
-23.066596472755975,60.90933816863103,-36.76284510996724,-124.63035804336863,125.63780884887952,100.49126984126991,-119.1437826541275,-11.853333333333328,-14.248780487804876,8.10638297872341,-5.976470588235294,-13.969999999999995,-9.988764044943832,-4.482352941176469,-37.49523809523811,13.265165308681915,108.3092416729577,40.246259917118074,2796.5667020058177,74.1008471073223,2060.686888335044,0
-23.066596472755975,60.90933816863103,-36.76284510996724,-124.63035804336863,125.63780884887952,100.49126984126991,-119.1437826541275,6.773333333333339,11.770731707317076,12.429787234042559,-2.988235294117647,-5.079999999999995,-7.134831460674168,-0.49803921568627274,-15.723809523809532,7.799845971122574,26.47928597348515,40.246259917118074,2796.5667020058177,74.1008471073223,2060.686888335044,0
-21.96341142405895,59.98821396192206,-36.85793167992512,-124.80114304925196,125.58915916491092,100.59206349206352,-119.24994775339604,6.773333333333339,11.770731707317076,12.429787234042559,-2.988235294117647,-5.079999999999995,-7.134831460674168,-0.49803921568627274,-15.723809523809532,7.799845971122574,26.47928597348515,39.60318568863537,2719.515260456408,73.88242956369972,2078.2890268790356,0
-21.96341142405895,59.98821396192206,-36.85793167992512,-124.80114304925196,125.58915916491092,100.59206349206352,-119.24994775339604,-11.853333333333328,-6.8146341463414615,5.944680851063836,-1.4941176470588236,-8.889999999999993,-17.12359550561799,0.4980392156862763,-27.819047619047627,10.054681039768667,80.30522252331495,39.60318568863537,2719.515260456408,73.88242956369972,2078.2890268790356,0
-21.96341142405895,59.98821396192206,-36.85793167992512,-124.80114304925196,125.58915916491092,100.59206349206352,-119.24994775339604,5.329070518200751e-15,-10.531707317073169,-0.5404255319148876,0.0,-7.619999999999994,-9.988764044943832,-1.4941176470588218,-20.56190476190477,6.342114912861935,53.18480976441847,39.60318568863537,2719.515260456408,73.88242956369972,2078.2890268790356,0
-22.431429323506173,60.37201571471746,-37.09564810481984,-124.92923180366446,125.5080763582966,100.65925925925933,-119.19686520376177,5.329070518200751e-15,-10.531707317073169,-0.5404255319148876,0.0,-7.619999999999994,-9.988764044943832,-1.4941176470588218,-20.56190476190477,6.342114912861935,53.18480976441847,39.96636438101449,2761.899218850449,74.13229854106726,2070.693643941339,0
-22.431429323506173,60.37201571471746,-37.09564810481984,-124.92923180366446,125.5080763582966,100.65925925925933,-119.19686520376177,3.386666666666672,0.6195121951219527,13.510638297872347,-4.482352941176471,-13.969999999999995,-9.988764044943832,-2.490196078431371,-13.304761904761914,7.71911151612182,30.85125054094711,39.96636438101449,2761.899218850449,74.13229854106726,2070.693643941339,0
-22.431429323506173,60.37201571471746,-37.09564810481984,-124.92923180366446,125.5080763582966,100.65925925925933,-119.19686520376177,5.080000000000005,-19.204878048780486,12.429787234042559,-2.988235294117647,-15.239999999999995,-12.842696629213494,0.4980392156862763,-18.142857142857153,10.803311695587201,50.139188295073474,39.96636438101449,2761.899218850449,74.13229854106726,2070.693643941339,0
-22.331139773624628,61.29313992142644,-36.81038839494618,-125.0786686838124,125.42699355168229,100.76005291005293,-119.19686520376177,5.080000000000005,-19.204878048780486,12.429787234042559,-2.988235294117647,-15.239999999999995,-12.842696629213494,0.4980392156862763,-18.142857142857153,10.803311695587201,50.139188295073474,40.14488936333242,2804.495177212583,74.39406566672834,2076.5480178263974,0
-22.331139773624628,61.29313992142644,-36.81038839494618,-125.0786686838124,125.42699355168229,100.76005291005293,-119.19686520376177,-18.62666666666666,-40.26829268292683,-13.510638297872335,4.482352941176471,-5.079999999999995,-9.988764044943832,-4.482352941176469,-27.819047619047627,15.532264399226278,165.81139262001088,40.14488936333242,2804.495177212583,74.39406566672834,2076.5480178263974,0
-22.331139773624628,61.29313992142644,-36.81038839494618,-125.0786686838124,125.42699355168229,100.76005291005293,-119.19686520376177,1.6933333333333387,9.292682926829269,-10.268085106382973,-5.976470588235294,-8.889999999999993,-9.988764044943832,-0.49803921568627274,-20.56190476190477,8.396159997164467,38.32236603714495,40.14488936333242,2804.495177212583,74.39406566672834,2076.5480178263974,0
-22.832587523032366,61.29313992142644,-36.881703322414594,-125.18540931248948,125.3296941837451,100.79365079365084,-119.03761755485891,1.6933333333333387,9.292682926829269,-10.268085106382973,-5.976470588235294,-8.889999999999993,-9.988764044943832,-0.49803921568627274,-20.56190476190477,8.396159997164467,38.32236603714495,40.335810255624466,2818.80258645943,74.45341751877685,2079.2808027248893,0
-22.832587523032366,61.29313992142644,-36.881703322414594,-125.18540931248948,125.3296941837451,100.79365079365084,-119.03761755485891,1.6933333333333387,11.770731707317076,-10.268085106382973,-2.988235294117647,-1.2699999999999942,-5.707865168539337,5.4784313725490215,-18.142857142857153,7.1649423906370675,34.06550419017774,40.335810255624466,2818.80258645943,74.45341751877685,2079.2808027248893,0
-22.832587523032366,61.29313992142644,-36.881703322414594,-125.18540931248948,125.3296941837451,100.79365079365084,-119.03761755485891,-15.239999999999995,-24.160975609756097,-2.702127659574462,-1.4941176470588236,-7.619999999999994,-7.134831460674168,-1.4941176470588218,-27.819047619047627,10.958152205396248,107.14249196291303,40.335810255624466,2818.80258645943,74.45341751877685,2079.2808027248893,0
-23.400894972361137,60.75581746751287,-37.048104819840894,-125.22810556396033,125.24861137713081,100.8608465608466,-118.8783699059561,-15.239999999999995,-24.160975609756097,-2.702127659574462,-1.4941176470588236,-7.619999999999994,-7.134831460674168,-1.4941176470588218,-27.819047619047627,10.958152205396248,107.14249196291303,40.4016057532383,2805.7009666832546,74.34400928377136,2082.4073504348016,0
-23.400894972361137,60.75581746751287,-37.048104819840894,-125.22810556396033,125.24861137713081,100.8608465608466,-118.8783699059561,-1.693333333333328,-3.0975609756097544,-13.510638297872335,-4.482352941176471,-1.2699999999999942,-7.134831460674168,-3.48627450980392,-20.56190476190477,6.904612035046842,45.8809307731533,40.4016057532383,2805.7009666832546,74.34400928377136,2082.4073504348016,0
-23.400894972361137,60.75581746751287,-37.048104819840894,-125.22810556396033,125.24861137713081,100.8608465608466,-118.8783699059561,5.329070518200751e-15,20.44390243902439,3.782978723404261,1.4941176470588236,-6.349999999999994,-9.988764044943832,3.4862745098039234,-18.142857142857153,7.961111813386548,58.41104778125436,40.4016057532383,2805.7009666832546,74.34400928377136,2082.4073504348016,0
-22.96630692287443,58.60652765185859,-36.905474964904066,-125.27080181543116,125.23239481580795,100.92804232804235,-118.98453500522464,5.329070518200751e-15,20.44390243902439,3.782978723404261,1.4941176470588236,-6.349999999999994,-9.988764044943832,3.4862745098039234,-18.142857142857153,7.961111813386548,58.41104778125436,39.49276984654569,2661.828398354196,73.5942681440646,2120.5820211464047,0
-22.96630692287443,58.60652765185859,-36.905474964904066,-125.27080181543116,125.23239481580795,100.92804232804235,-118.98453500522464,-10.159999999999995,-17.96585365853658,7.025531914893623,-2.988235294117647,-12.699999999999994,-14.269662921348324,-2.490196078431371,-27.819047619047627,11.927315935796894,70.17314141577319,39.49276984654569,2661.828398354196,73.5942681440646,2120.5820211464047,0
-22.96630692287443,58.60652765185859,-36.905474964904066,-125.27080181543116,125.23239481580795,100.92804232804235,-118.98453500522464,-18.62666666666666,-39.02926829268292,-35.127659574468076,2.988235294117647,3.810000000000006,-7.134831460674168,-5.478431372549018,-35.07619047619048,18.40891039216862,246.82698941555205,39.49276984654569,2661.828398354196,73.5942681440646,2120.5820211464047,0
-23.033166622795463,58.37624660018135,-37.071876462330366,-125.27080181543116,125.24861137713081,100.92804232804235,-118.98453500522464,-18.62666666666666,-39.02926829268292,-35.127659574468076,2.988235294117647,3.810000000000006,-7.134831460674168,-5.478431372549018,-35.07619047619048,18.40891039216862,246.82698941555205,39.493763228435725,2655.8203552374043,73.5729749593143,2117.968022976418,0
-23.033166622795463,58.37624660018135,-37.071876462330366,-125.27080181543116,125.24861137713081,100.92804232804235,-118.98453500522464,-6.773333333333328,-4.336585365853656,28.64255319148937,1.4941176470588236,-15.239999999999995,-15.696629213483156,5.4784313725490215,-15.723809523809532,11.67318245594711,79.0142733802893,39.493763228435725,2655.8203552374043,73.5729749593143,2117.968022976418,0
-23.033166622795463,58.37624660018135,-37.071876462330366,-125.27080181543116,125.24861137713081,100.92804232804235,-118.98453500522464,16.933333333333337,32.834146341463416,-15.672340425531909,0.0,-5.079999999999995,-5.707865168539337,1.4941176470588253,-18.142857142857153,11.983082507347996,121.63840639607125,39.493763228435725,2655.8203552374043,73.5729749593143,2117.968022976418,0
-22.765727823111334,58.990329404654,-37.11941974730931,-125.29214994116657,125.21617825448509,101.09603174603177,-119.19686520376177,16.933333333333337,32.834146341463416,-15.672340425531909,0.0,-5.079999999999995,-5.707865168539337,1.4941176470588253,-18.142857142857153,11.983082507347996,121.63840639607125,39.62515899169154,2687.8608745562897,73.80063303104329,2108.116407589067,0
-22.765727823111334,58.990329404654,-37.11941974730931,-125.29214994116657,125.21617825448509,101.09603174603177,-119.19686520376177,1.6933333333333387,1.8585365853658562,9.187234042553197,1.4941176470588236,-8.889999999999993,-7.134831460674168,-1.4941176470588218,-18.142857142857153,6.236878482362668,34.729077157765076,39.62515899169154,2687.8608745562897,73.80063303104329,2108.116407589067,0
-22.765727823111334,58.990329404654,-37.11941974730931,-125.29214994116657,125.21617825448509,101.09603174603177,-119.19686520376177,-8.466666666666661,-19.204878048780486,3.782978723404261,0.0,-12.699999999999994,-14.269662921348324,-5.478431372549018,-30.238095238095248,11.767589121355499,93.75462533187157,39.62515899169154,2687.8608745562897,73.80063303104329,2108.116407589067,0
-21.829692024216886,58.76004835297675,-37.09564810481984,-125.33484619263741,125.1675285705165,101.36481481481485,-119.56844305120165,-8.466666666666661,-19.204878048780486,3.782978723404261,0.0,-12.699999999999994,-14.269662921348324,-5.478431372549018,-30.238095238095248,11.767589121355499,93.75462533187157,39.22846282733783,2652.678368754602,73.73018088347801,2114.6176707808563,0
-21.829692024216886,58.76004835297675,-37.09564810481984,-125.33484619263741,125.1675285705165,101.36481481481485,-119.56844305120165,11.853333333333339,-6.8146341463414615,-24.31914893617021,0.0,-10.159999999999995,-9.988764044943832,-4.482352941176469,-15.723809523809532,10.417755365721854,54.35077439069859,39.22846282733783,2652.678368754602,73.73018088347801,2114.6176707808563,0
-21.829692024216886,58.76004835297675,-37.09564810481984,-125.33484619263741,125.1675285705165,101.36481481481485,-119.56844305120165,3.386666666666672,-24.160975609756097,-34.04680851063829,-4.482352941176471,-6.349999999999994,-8.561797752809,-1.4941176470588218,-22.980952380952388,13.182958938632218,146.87987154189142,39.22846282733783,2652.678368754602,73.73018088347801,2114.6176707808563,0
-22.665438273229785,58.683288002417676,-36.95301824988301,-125.33484619263741,125.1188788865479,101.49920634920642,-119.72769070010452,3.386666666666672,-24.160975609756097,-34.04680851063829,-4.482352941176471,-6.349999999999994,-8.561797752809,-1.4941176470588218,-22.980952380952388,13.182958938632218,146.87987154189142,39.43391484184349,2661.3422136405543,73.65705081497937,2120.9970572008024,0
-22.665438273229785,58.683288002417676,-36.95301824988301,-125.33484619263741,125.1188788865479,101.49920634920642,-119.72769070010452,-13.546666666666662,-47.702439024390245,-11.34893617021276,-2.988235294117647,-5.079999999999995,-8.561797752809,2.4901960784313744,-25.40000000000001,14.639783873328462,233.23549306127384,39.43391484184349,2661.3422136405543,73.65705081497937,2120.9970572008024,0
-22.665438273229785,58.683288002417676,-36.95301824988301,-125.33484619263741,125.1188788865479,101.49920634920642,-119.72769070010452,5.329070518200751e-15,-17.96585365853658,-5.944680851063824,-1.4941176470588236,-6.349999999999994,-7.134831460674168,3.4862745098039234,-18.142857142857153,7.564826908749309,47.86805165793799,39.43391484184349,2661.3422136405543,73.65705081497937,2120.9970572008024,0
-23.133456172677008,58.76004835297675,-36.881703322414594,-125.39889056984366,125.1188788865479,101.53280423280427,-119.83385579937305,5.329070518200751e-15,-17.96585365853658,-5.944680851063824,-1.4941176470588236,-6.349999999999994,-7.134831460674168,3.4862745098039234,-18.142857142857153,7.564826908749309,47.86805165793799,39.591735949356114,2673.817507786794,73.680214081745,2125.7816185795377,0
-23.133456172677008,58.76004835297675,-36.881703322414594,-125.39889056984366,125.1188788865479,101.53280423280427,-119.83385579937305,-6.773333333333328,4.33658536585366,7.025531914893623,1.4941176470588236,-6.349999999999994,-8.561797752809,5.4784313725490215,-20.56190476190477,7.572712768550278,31.99124177312618,39.591735949356114,2673.817507786794,73.680214081745,2125.7816185795377,0
-23.133456172677008,58.76004835297675,-36.881703322414594,-125.39889056984366,125.1188788865479,101.53280423280427,-119.83385579937305,-6.773333333333328,-20.443902439024388,1.6212765957446869,0.0,-6.349999999999994,-9.988764044943832,-1.4941176470588218,-20.56190476190477,8.404162352751227,66.64891321370715,39.591735949356114,2673.817507786794,73.680214081745,2125.7816185795377,0
-22.23085022374308,58.683288002417676,-36.95301824988301,-125.52697932425616,125.1188788865479,101.63359788359793,-120.0992685475444,-6.773333333333328,-20.443902439024388,1.6212765957446869,0.0,-6.349999999999994,-9.988764044943832,-1.4941176470588218,-20.56190476190477,8.404162352751227,66.64891321370715,39.28905215868125,2651.6905116426656,73.72109519218562,2130.9383789086196,0
-22.23085022374308,58.683288002417676,-36.95301824988301,-125.52697932425616,125.1188788865479,101.63359788359793,-120.0992685475444,3.386666666666672,16.726829268292686,-7.025531914893611,1.4941176470588236,5.329070518200751e-15,-7.134831460674168,-6.474509803921567,-20.56190476190477,7.850548940426538,52.20212714212169,39.28905215868125,2651.6905116426656,73.72109519218562,2130.9383789086196,0
-22.23085022374308,58.683288002417676,-36.95301824988301,-125.52697932425616,125.1188788865479,101.63359788359793,-120.0992685475444,-11.853333333333328,-17.96585365853658,11.348936170212772,1.4941176470588236,-7.619999999999994,-14.269662921348324,-4.482352941176469,-25.40000000000001,11.804282083958288,58.073530309541084,39.28905215868125,2651.6905116426656,73.72109519218562,2130.9383789086196,0
-20.960515925243474,58.37624660018135,-37.11941974730931,-125.63371995293326,125.05401264125645,101.90238095238101,-120.5239289446186,-11.853333333333328,-17.96585365853658,11.348936170212772,1.4941176470588236,-7.619999999999994,-14.269662921348324,-4.482352941176469,-25.40000000000001,11.804282083958288,58.073530309541084,38.818727424244706,2612.4757253162807,73.70979543347464,2135.0336250900727,0
-20.960515925243474,58.37624660018135,-37.11941974730931,-125.63371995293326,125.05401264125645,101.90238095238101,-120.5239289446186,-1.693333333333328,14.24878048780488,-7.025531914893611,2.988235294117647,-5.079999999999995,-8.561797752809,3.4862745098039234,-20.56190476190477,7.955732256833394,41.69859774908954,38.818727424244706,2612.4757253162807,73.70979543347464,2135.0336250900727,0
-20.960515925243474,58.37624660018135,-37.11941974730931,-125.63371995293326,125.05401264125645,101.90238095238101,-120.5239289446186,11.853333333333339,-9.292682926829267,-7.025531914893611,-2.988235294117647,-12.699999999999994,-11.415730337078662,-2.490196078431371,-15.723809523809532,9.186189926061678,22.15751352392204,38.818727424244706,2612.4757253162807,73.70979543347464,2135.0336250900727,0
-21.428533824690696,57.68540344514962,-37.238277959756665,-125.65506807866868,124.989146395965,102.17116402116409,-120.78934169278995,11.853333333333339,-9.292682926829267,-7.025531914893611,-2.988235294117647,-12.699999999999994,-11.415730337078662,-2.490196078431371,-15.723809523809532,9.186189926061678,22.15751352392204,38.784071743198986,2586.578061902105,73.52624982785831,2142.5815043233656,0
-21.428533824690696,57.68540344514962,-37.238277959756665,-125.65506807866868,124.989146395965,102.17116402116409,-120.78934169278995,11.853333333333339,6.814634146341465,-10.268085106382973,0.0,-6.349999999999994,-5.707865168539337,-0.49803921568627274,-15.723809523809532,7.151970811761614,29.07961189383239,38.784071743198986,2586.578061902105,73.52624982785831,2142.5815043233656,0
-21.428533824690696,57.68540344514962,-37.238277959756665,-125.65506807866868,124.989146395965,102.17116402116409,-120.78934169278995,-11.853333333333328,-1.8585365853658518,29.723404255319156,-2.988235294117647,-11.429999999999994,-11.415730337078662,-2.490196078431371,-22.980952380952388,11.842548533074801,101.38391170800959,38.784071743198986,2586.578061902105,73.52624982785831,2142.5815043233656,0
-22.498289023427205,57.60864309459053,-37.02433317735142,-125.63371995293326,124.9404967119964,102.3055555555556,-120.84242424242427,-11.853333333333328,-1.8585365853658518,29.723404255319156,-2.988235294117647,-11.429999999999994,-11.415730337078662,-2.490196078431371,-22.980952380952388,11.842548533074801,101.38391170800959,39.04375509845639,2597.254455034731,73.4222320749584,2150.4580535161735,0
-22.498289023427205,57.60864309459053,-37.02433317735142,-125.63371995293326,124.9404967119964,102.3055555555556,-120.84242424242427,15.240000000000006,13.009756097560977,-15.672340425531909,1.4941176470588236,-2.5399999999999943,-5.707865168539337,-3.48627450980392,-10.885714285714295,8.50450851677616,34.34812643283304,39.04375509845639,2597.254455034731,73.4222320749584,2150.4580535161735,0
-22.498289023427205,57.60864309459053,-37.02433317735142,-125.63371995293326,124.9404967119964,102.3055555555556,-120.84242424242427,1.6933333333333387,5.575609756097563,5.944680851063836,0.0,-8.889999999999993,-8.561797752809,3.4862745098039234,-22.980952380952388,7.141581073007506,50.55590766081083,39.04375509845639,2597.254455034731,73.4222320749584,2150.4580535161735,0
-23.20031587259804,57.22484134179513,-36.739073467477766,-125.61237182719785,124.92428015067354,102.3055555555556,-120.84242424242427,1.6933333333333387,5.575609756097563,5.944680851063836,0.0,-8.889999999999993,-8.561797752809,3.4862745098039234,-22.980952380952388,7.141581073007506,50.55590766081083,39.05474356062364,2580.120192742844,73.19209554549025,2165.8306954380205,0
-23.20031587259804,57.22484134179513,-36.739073467477766,-125.61237182719785,124.92428015067354,102.3055555555556,-120.84242424242427,-13.546666666666662,0.6195121951219527,39.45106382978724,0.0,-16.509999999999994,-18.55056179775282,-5.478431372549018,-37.49523809523811,16.456434244639475,232.3397313127225,39.05474356062364,2580.120192742844,73.19209554549025,2165.8306954380205,0
-23.20031587259804,57.22484134179513,-36.739073467477766,-125.61237182719785,124.92428015067354,102.3055555555556,-120.84242424242427,-5.079999999999995,-14.248780487804876,1.6212765957446869,0.0,-6.349999999999994,-11.415730337078662,-7.470588235294116,-18.142857142857153,8.041154099847436,38.54225173513547,39.05474356062364,2580.120192742844,73.19209554549025,2165.8306954380205,0
-23.668333772045262,56.457237836204314,-36.76284510996724,-125.61237182719785,124.92428015067354,102.3055555555556,-120.84242424242427,-5.079999999999995,-14.248780487804876,1.6212765957446869,0.0,-6.349999999999994,-11.415730337078662,-7.470588235294116,-18.142857142857153,8.041154099847436,38.54225173513547,38.96280557273894,2546.9262195364668,72.94415159112313,2177.4233433405675,0
-23.668333772045262,56.457237836204314,-36.76284510996724,-125.61237182719785,124.92428015067354,102.3055555555556,-120.84242424242427,-23.706666666666663,-43.985365853658536,-16.753191489361697,-7.470588235294118,-13.969999999999995,-8.561797752809,-0.49803921568627274,-25.40000000000001,17.543206151684537,183.56546208021717,38.96280557273894,2546.9262195364668,72.94415159112313,2177.4233433405675,0
-23.668333772045262,56.457237836204314,-36.76284510996724,-125.61237182719785,124.92428015067354,102.3055555555556,-120.84242424242427,8.466666666666672,20.44390243902439,25.400000000000006,-2.988235294117647,-12.699999999999994,-12.842696629213494,2.4901960784313744,-20.56190476190477,13.236700233669794,71.03759108603136,38.96280557273894,2546.9262195364668,72.94415159112313,2177.4233433405675,0
-23.735193471966294,56.61075853732248,-36.97678989237248,-125.59102370146242,124.92428015067354,102.3055555555556,-120.89550679205854,8.466666666666672,20.44390243902439,25.400000000000006,-2.988235294117647,-12.699999999999994,-12.842696629213494,2.4901960784313744,-20.56190476190477,13.236700233669794,71.03759108603136,39.10758063388709,2564.906850186725,73.05952404371914,2166.0420234063326,0
-23.735193471966294,56.61075853732248,-36.97678989237248,-125.59102370146242,124.92428015067354,102.3055555555556,-120.89550679205854,3.386666666666672,-37.79024390243902,-36.20851063829787,4.482352941176471,-5.079999999999995,-8.561797752809,-3.48627450980392,-15.723809523809532,14.339956991875308,212.02113146829038,39.10758063388709,2564.906850186725,73.05952404371914,2166.0420234063326,0
-23.735193471966294,56.61075853732248,-36.97678989237248,-125.59102370146242,124.92428015067354,102.3055555555556,-120.89550679205854,-22.01333333333333,-20.443902439024388,-10.268085106382973,-4.482352941176471,-12.699999999999994,-12.842696629213494,-1.4941176470588218,-30.238095238095248,14.31032291678559,90.3688518631344,39.10758063388709,2564.906850186725,73.05952404371914,2166.0420234063326,0
-23.501184522242685,57.071320640676966,-37.11941974730931,-125.59102370146242,124.9404967119964,102.3391534391535,-120.94858934169281,-22.01333333333333,-20.443902439024388,-10.268085106382973,-4.482352941176471,-12.699999999999994,-12.842696629213494,-1.4941176470588218,-30.238095238095248,14.31032291678559,90.3688518631344,39.23064163674299,2591.5467489518314,73.26058802981623,2153.375460502916,0
-23.501184522242685,57.071320640676966,-37.11941974730931,-125.59102370146242,124.9404967119964,102.3391534391535,-120.94858934169281,5.080000000000005,21.682926829268293,1.6212765957446869,-4.482352941176471,-10.159999999999995,-8.561797752809,6.4745098039215705,-15.723809523809532,9.223334180841194,43.40057688327466,39.23064163674299,2591.5467489518314,73.26058802981623,2153.375460502916,0
-23.501184522242685,57.071320640676966,-37.11941974730931,-125.59102370146242,124.9404967119964,102.3391534391535,-120.94858934169281,-6.773333333333328,-20.443902439024388,-3.7829787234042493,2.988235294117647,1.2700000000000058,-8.561797752809,-1.4941176470588218,-27.819047619047627,9.141676601099384,95.651248525275,39.23064163674299,2591.5467489518314,73.26058802981623,2153.375460502916,0
-23.166886022637524,58.222725899063185,-37.09564810481984,-125.59102370146242,124.9404967119964,102.3391534391535,-120.94858934169281,-6.773333333333328,-20.443902439024388,-3.7829787234042493,2.988235294117647,1.2700000000000058,-8.561797752809,-1.4941176470588218,-27.819047619047627,9.141676601099384,95.651248525275,39.49508667550685,2650.645294108535,73.63646590178182,2136.045411151267,0
-23.166886022637524,58.222725899063185,-37.09564810481984,-125.59102370146242,124.9404967119964,102.3391534391535,-120.94858934169281,-23.706666666666663,-51.419512195121946,10.268085106382985,-2.988235294117647,-10.159999999999995,-15.696629213483156,-3.48627450980392,-25.40000000000001,17.89067537319704,252.37845098628605,39.49508667550685,2650.645294108535,73.63646590178182,2136.045411151267,0
-23.166886022637524,58.222725899063185,-37.09564810481984,-125.59102370146242,124.9404967119964,102.3391534391535,-120.94858934169281,18.626666666666672,30.356097560975613,-12.429787234042546,-10.458823529411765,-11.429999999999994,-11.415730337078662,-2.490196078431371,-20.56190476190477,14.721150771063924,69.79864763227604,39.49508667550685,2650.645294108535,73.63646590178182,2136.045411151267,0
-22.999736772834947,59.220610456331244,-36.905474964904066,-125.6977643301395,124.92428015067354,102.3391534391535,-120.94858934169281,18.626666666666672,30.356097560975613,-12.429787234042546,-10.458823529411765,-11.429999999999994,-11.415730337078662,-2.490196078431371,-20.56190476190477,14.721150771063924,69.79864763227604,39.70860739802342,2698.9632252602755,73.94128325045827,2133.5413183137393,0
-22.999736772834947,59.220610456331244,-36.905474964904066,-125.6977643301395,124.92428015067354,102.3391534391535,-120.94858934169281,6.773333333333339,3.097560975609758,-0.5404255319148876,2.988235294117647,-6.349999999999994,-9.988764044943832,0.4980392156862763,-20.56190476190477,6.349782894688813,43.61063907667511,39.70860739802342,2698.9632252602755,73.94128325045827,2133.5413183137393,0
-22.999736772834947,59.220610456331244,-36.905474964904066,-125.6977643301395,124.92428015067354,102.3391534391535,-120.94858934169281,-3.3866666666666614,5.575609756097563,-4.863829787234037,-2.988235294117647,-1.2699999999999942,-2.853932584269674,8.466666666666669,-15.723809523809532,5.641093784857722,21.321182071451073,39.70860739802342,2698.9632252602755,73.94128325045827,2133.5413183137393,0
-22.6988681231903,59.60441220912665,-37.09564810481984,-125.78315683308118,124.85941390538208,102.43994708994711,-121.00167189132708,-3.3866666666666614,5.575609756097563,-4.863829787234037,-2.988235294117647,-1.2699999999999942,-2.853932584269674,8.466666666666669,-15.723809523809532,5.641093784857722,21.321182071451073,39.79964281237893,2721.9998153367146,74.16107238234255,2125.2908176552255,0
-22.6988681231903,59.60441220912665,-37.09564810481984,-125.78315683308118,124.85941390538208,102.43994708994711,-121.00167189132708,10.160000000000005,-1.8585365853658518,-0.5404255319148876,0.0,-3.8099999999999943,-7.134831460674168,-0.49803921568627274,-20.56190476190477,5.5704671944432445,49.5989814785673,39.79964281237893,2721.9998153367146,74.16107238234255,2125.2908176552255,0
-22.6988681231903,59.60441220912665,-37.09564810481984,-125.78315683308118,124.85941390538208,102.43994708994711,-121.00167189132708,-6.773333333333328,-17.96585365853658,-10.268085106382973,4.482352941176471,-3.8099999999999943,-8.561797752809,-3.48627450980392,-22.980952380952388,9.791081210374331,50.76451352482093,39.79964281237893,2721.9998153367146,74.16107238234255,2125.2908176552255,0
-22.79915767307185,59.681172559685734,-36.97678989237248,-125.84720121028744,124.81076422141349,102.50714285714292,-121.00167189132708,-6.773333333333328,-17.96585365853658,-10.268085106382973,4.482352941176471,-3.8099999999999943,-8.561797752809,-3.48627450980392,-22.980952380952388,9.791081210374331,50.76451352482093,39.81904004171002,2724.4619726723317,74.16838788744855,2131.897057918571,0
-22.79915767307185,59.681172559685734,-36.97678989237248,-125.84720121028744,124.81076422141349,102.50714285714292,-121.00167189132708,-8.466666666666661,-10.531707317073169,-5.944680851063824,-5.976470588235294,-7.619999999999994,-12.842696629213494,-1.4941176470588218,-25.40000000000001,9.784542462413908,51.16460131900018,39.81904004171002,2724.4619726723317,74.16838788744855,2131.897057918571,0
-23.501184522242685,59.834693260803895,-36.715301824988295,-125.97528996469994,124.79454766009066,102.40634920634926,-120.78934169278995,-8.466666666666661,-10.531707317073169,-5.944680851063824,-5.976470588235294,-7.619999999999994,-12.842696629213494,-1.4941176470588218,-25.40000000000001,9.784542462413908,51.16460131900018,40.01705986934496,2740.230495504682,74.17509501683071,2146.0717125685587,0
-23.501184522242685,59.834693260803895,-36.715301824988295,-125.97528996469994,124.79454766009066,102.40634920634926,-120.78934169278995,-8.466666666666661,-16.726829268292683,-7.025531914893611,1.4941176470588236,-5.079999999999995,-7.134831460674168,-2.490196078431371,-22.980952380952388,8.924890677121212,53.83854686769132,40.01705986934496,2740.230495504682,74.17509501683071,2146.0717125685587,0
-23.501184522242685,59.834693260803895,-36.715301824988295,-125.97528996469994,124.79454766009066,102.40634920634926,-120.78934169278995,6.773333333333339,13.009756097560977,19.995744680851068,0.0,-7.619999999999994,-8.561797752809,-9.462745098039214,-27.819047619047627,11.655303072705152,74.71494596466881,40.01705986934496,2740.230495504682,74.17509501683071,2146.0717125685587,0
-23.267175572519072,60.2184950135993,-36.97678989237248,-126.08203059337703,124.74589797612207,102.40634920634926,-120.57701149425287,6.773333333333339,13.009756097560977,19.995744680851068,0.0,-7.619999999999994,-8.561797752809,-9.462745098039214,-27.819047619047627,11.655303072705152,74.71494596466881,40.15415349283028,2767.455687661004,74.42577183311626,2136.3210160657773,0
-23.267175572519072,60.2184950135993,-36.97678989237248,-126.08203059337703,124.74589797612207,102.40634920634926,-120.57701149425287,1.6933333333333387,-14.248780487804876,-11.34893617021276,-7.470588235294118,-16.509999999999994,-9.988764044943832,-6.474509803921567,-15.723809523809532,10.432340199915002,25.906622551126674,40.15415349283028,2767.455687661004,74.42577183311626,2136.3210160657773,0
-23.267175572519072,60.2184950135993,-36.97678989237248,-126.08203059337703,124.74589797612207,102.40634920634926,-120.57701149425287,5.329070518200751e-15,-19.204878048780486,3.782978723404261,2.988235294117647,-10.159999999999995,-8.561797752809,-6.474509803921567,-25.40000000000001,9.57154995287912,74.68007557438143,40.15415349283028,2767.455687661004,74.42577183311626,2136.3210160657773,0
-22.6988681231903,59.60441220912665,-36.85793167992512,-126.14607497058329,124.69724829215347,102.47354497354502,-120.68317659352141,5.329070518200751e-15,-19.204878048780486,3.782978723404261,2.988235294117647,-10.159999999999995,-8.561797752809,-6.474509803921567,-25.40000000000001,9.57154995287912,74.68007557438143,39.720404004080685,2713.215470472215,74.20280628654501,2152.927965302979,0
-22.6988681231903,59.60441220912665,-36.85793167992512,-126.14607497058329,124.69724829215347,102.47354497354502,-120.68317659352141,-11.853333333333328,-10.531707317073169,-1.6212765957446749,4.482352941176471,1.2700000000000058,-7.134831460674168,-4.482352941176469,-22.980952380952388,8.044600871266335,51.02113579800774,39.720404004080685,2713.215470472215,74.20280628654501,2152.927965302979,0
-22.6988681231903,59.60441220912665,-36.85793167992512,-126.14607497058329,124.69724829215347,102.47354497354502,-120.68317659352141,23.70666666666667,32.834146341463416,-30.80425531914893,-5.976470588235294,5.080000000000005,-7.134831460674168,2.4901960784313744,-13.304761904761914,15.166416044922721,149.2108767883695,39.720404004080685,2713.215470472215,74.20280628654501,2152.927965302979,0
-23.701763622005778,59.374131157449405,-37.071876462330366,-126.14607497058329,124.66481516950775,102.50714285714292,-120.57701149425287,23.70666666666667,32.834146341463416,-30.80425531914893,-5.976470588235294,5.080000000000005,-7.134831460674168,2.4901960784313744,-13.304761904761914,15.166416044922721,149.2108767883695,40.04925708059518,2730.366099427456,74.19736086345436,2148.3493141596523,0
-23.701763622005778,59.374131157449405,-37.071876462330366,-126.14607497058329,124.66481516950775,102.50714285714292,-120.57701149425287,-11.853333333333328,-19.204878048780486,-31.88510638297872,-2.988235294117647,-2.5399999999999943,-4.280898876404505,-1.4941176470588218,-22.980952380952388,12.153440245453236,129.77196969670828,40.04925708059518,2730.366099427456,74.19736086345436,2148.3493141596523,0
-23.701763622005778,59.374131157449405,-37.071876462330366,-126.14607497058329,124.66481516950775,102.50714285714292,-120.57701149425287,27.09333333333334,48.94146341463415,-4.863829787234037,-7.470588235294118,-8.889999999999993,-11.415730337078662,-6.474509803921567,-18.142857142857153,16.66153900679413,224.0515094420434,40.04925708059518,2730.366099427456,74.19736086345436,2148.3493141596523,0
-24.03606212161094,59.527651858567566,-36.881703322414594,-126.1674230963187,124.64859860818488,102.47354497354502,-120.5239289446186,27.09333333333334,48.94146341463415,-4.863829787234037,-7.470588235294118,-8.889999999999993,-11.415730337078662,-6.474509803921567,-18.142857142857153,16.66153900679413,224.0515094420434,40.1484724341977,2740.4447597389394,74.19225942576695,2154.272975211004,0
-24.03606212161094,59.527651858567566,-36.881703322414594,-126.1674230963187,124.64859860818488,102.47354497354502,-120.5239289446186,3.386666666666672,-17.96585365853658,16.753191489361708,8.964705882352941,3.810000000000006,-5.707865168539337,-0.49803921568627274,-10.885714285714295,8.496504545857226,40.51353039971265,40.1484724341977,2740.4447597389394,74.19225942576695,2154.272975211004,0
-24.03606212161094,59.527651858567566,-36.881703322414594,-126.1674230963187,124.64859860818488,102.47354497354502,-120.5239289446186,-30.479999999999997,-47.702439024390245,-18.91489361702127,-1.4941176470588236,-7.619999999999994,-8.561797752809,-5.478431372549018,-35.07619047619048,19.415983736252354,277.2052015395081,40.1484724341977,2740.4447597389394,74.19225942576695,2154.272975211004,0
-22.6988681231903,58.91356905409492,-36.92924660739354,-126.21011934778954,124.63238204686202,102.60793650793653,-120.73625914315568,-30.479999999999997,-47.702439024390245,-18.91489361702127,-1.4941176470588236,-7.619999999999994,-8.561797752809,-5.478431372549018,-35.07619047619048,19.415983736252354,277.2052015395081,39.51389459489292,2674.8231479570095,74.01764500309267,2163.8683920265157,0
-22.6988681231903,58.91356905409492,-36.92924660739354,-126.21011934778954,124.63238204686202,102.60793650793653,-120.73625914315568,5.329070518200751e-15,-14.248780487804876,-10.268085106382973,-5.976470588235294,-16.509999999999994,-11.415730337078662,0.4980392156862763,-20.56190476190477,9.934876312136605,54.35776410869875,39.51389459489292,2674.8231479570095,74.01764500309267,2163.8683920265157,0
-22.6988681231903,58.91356905409492,-36.92924660739354,-126.21011934778954,124.63238204686202,102.60793650793653,-120.73625914315568,8.466666666666672,29.117073170731707,3.782978723404261,1.4941176470588236,-2.5399999999999943,-12.842696629213494,3.4862745098039234,-22.980952380952388,10.588844965978907,107.24390676202817,39.51389459489292,2674.8231479570095,74.01764500309267,2163.8683920265157,0
-22.999736772834947,58.990329404654,-37.11941974730931,-126.21011934778954,124.58373236289343,102.70873015873019,-120.78934169278995,8.466666666666672,29.117073170731707,3.782978723404261,1.4941176470588236,-2.5399999999999943,-12.842696629213494,3.4862745098039234,-22.980952380952388,10.588844965978907,107.24390676202817,39.70316197493275,2693.136713523665,74.10662283325095,2155.664934090335,0
-22.999736772834947,58.990329404654,-37.11941974730931,-126.21011934778954,124.58373236289343,102.70873015873019,-120.78934169278995,-23.706666666666663,-20.443902439024388,-0.5404255319148876,-1.4941176470588236,-8.889999999999993,-8.561797752809,0.4980392156862763,-32.657142857142865,12.099011513787861,147.2097864579462,39.70316197493275,2693.136713523665,74.10662283325095,2155.664934090335,0
-22.999736772834947,58.990329404654,-37.11941974730931,-126.21011934778954,124.58373236289343,102.70873015873019,-120.78934169278995,-55.879999999999995,-81.15609756097561,14.591489361702134,1.4941176470588236,-20.319999999999993,-17.12359550561799,-6.474509803921567,-37.49523809523811,29.316880996814277,743.1609299530345,39.70316197493275,2693.136713523665,74.10662283325095,2155.664934090335,0
-23.400894972361137,59.45089150800849,-37.19073467477772,-126.18877122205411,124.53508267892484,102.80952380952385,-120.78934169278995,-55.879999999999995,-81.15609756097561,14.591489361702134,1.4941176470588236,-20.319999999999993,-17.12359550561799,-6.474509803921567,-37.49523809523811,29.316880996814277,743.1609299530345,40.014173718382445,2732.3636855434156,74.27679913494678,2145.018280039466,0
-23.400894972361137,59.45089150800849,-37.19073467477772,-126.18877122205411,124.53508267892484,102.80952380952385,-120.78934169278995,-22.01333333333333,-46.46341463414634,1.6212765957446869,1.4941176470588236,-8.889999999999993,-11.415730337078662,-1.4941176470588218,-32.657142857142865,15.75614163144544,277.18872037640756,40.014173718382445,2732.3636855434156,74.27679913494678,2145.018280039466,0
-23.400894972361137,59.45089150800849,-37.19073467477772,-126.18877122205411,124.53508267892484,102.80952380952385,-120.78934169278995,-10.159999999999995,-15.48780487804878,3.782978723404261,2.988235294117647,-3.8099999999999943,-7.134831460674168,-0.49803921568627274,-22.980952380952388,8.355355244110438,57.37666049445274,40.014173718382445,2732.3636855434156,74.27679913494678,2145.018280039466,0
-23.802053171887326,59.75793291024481,-36.881703322414594,-126.21011934778954,124.50264955627911,102.77592592592595,-120.63009404388714,-10.159999999999995,-15.48780487804878,3.782978723404261,2.988235294117647,-3.8099999999999943,-7.134831460674168,-0.49803921568627274,-22.980952380952388,8.355355244110438,57.37666049445274,40.14722980151558,2748.761302214507,74.28325186014966,2153.1301453479646,0
-23.802053171887326,59.75793291024481,-36.881703322414594,-126.21011934778954,124.50264955627911,102.77592592592595,-120.63009404388714,3.386666666666672,3.097560975609758,22.157446808510645,4.482352941176471,-11.429999999999994,-9.988764044943832,-2.490196078431371,-10.885714285714295,8.489837725131629,44.372819206034244,40.14722980151558,2748.761302214507,74.28325186014966,2153.1301453479646,0
-23.802053171887326,59.75793291024481,-36.881703322414594,-126.21011934778954,124.50264955627911,102.77592592592595,-120.63009404388714,-13.546666666666662,-16.726829268292683,-19.995744680851057,-8.964705882352941,-13.969999999999995,-8.561797752809,1.4941176470588253,-25.40000000000001,13.582482737253898,54.78310312687493,40.14722980151558,2748.761302214507,74.28325186014966,2153.1301453479646,0
-23.634903922084746,60.06497431248114,-36.92924660739354,-126.2955118507312,124.45399987231052,102.7423280423281,-120.47084639498433,-13.546666666666662,-16.726829268292683,-19.995744680851057,-8.964705882352941,-13.969999999999995,-8.561797752809,1.4941176470588253,-25.40000000000001,13.582482737253898,54.78310312687493,40.20970828065314,2765.048009294839,74.42991092353529,2151.3458937653486,0
-23.634903922084746,60.06497431248114,-36.92924660739354,-126.2955118507312,124.45399987231052,102.7423280423281,-120.47084639498433,23.70666666666667,24.1609756097561,4.863829787234049,-7.470588235294118,-6.349999999999994,-14.269662921348324,-2.490196078431371,-18.142857142857153,12.681847055198473,73.98592564180935,40.20970828065314,2765.048009294839,74.42991092353529,2151.3458937653486,0
-23.634903922084746,60.06497431248114,-36.92924660739354,-126.2955118507312,124.45399987231052,102.7423280423281,-120.47084639498433,10.160000000000005,-10.531707317073169,-7.025531914893611,0.0,-1.2699999999999942,-5.707865168539337,-2.490196078431371,-13.304761904761914,6.311257797962425,23.179306913516086,40.20970828065314,2765.048009294839,74.42991092353529,2151.3458937653486,0
-22.53171887338772,58.529767301299515,-37.071876462330366,-126.38090435367288,124.42156674966479,102.84312169312176,-120.57701149425287,10.160000000000005,-10.531707317073169,-7.025531914893611,0.0,-1.2699999999999942,-5.707865168539337,-2.490196078431371,-13.304761904761914,6.311257797962425,23.179306913516086,39.37778754567253,2653.675835644715,73.99418270576759,2173.3867235756106,0
-22.53171887338772,58.529767301299515,-37.071876462330366,-126.38090435367288,124.42156674966479,102.84312169312176,-120.57701149425287,-15.239999999999995,-24.160975609756097,-3.7829787234042493,-8.964705882352941,-19.049999999999994,-12.842696629213494,0.4980392156862763,-25.40000000000001,13.74242450755163,81.87125299976843,39.37778754567253,2653.675835644715,73.99418270576759,2173.3867235756106,0
-22.53171887338772,58.529767301299515,-37.071876462330366,-126.38090435367288,124.42156674966479,102.84312169312176,-120.57701149425287,-10.159999999999995,-16.726829268292683,15.672340425531921,1.4941176470588236,-2.5399999999999943,-1.4269662921348427,6.4745098039215705,-20.56190476190477,9.382083524855576,57.125452375186235,39.37778754567253,2653.675835644715,73.99418270576759,2173.3867235756106,0
-22.598578573308753,58.683288002417676,-37.28582124473561,-126.4022524794083,124.35670050437334,102.94391534391536,-120.63009404388714,-10.159999999999995,-16.726829268292683,15.672340425531921,1.4941176470588236,-2.5399999999999943,-1.4269662921348427,6.4745098039215705,-20.56190476190477,9.382083524855576,57.125452375186235,39.52256260682068,2672.0878101692697,74.12378724218719,2164.2413415810292,0
-22.598578573308753,58.683288002417676,-37.28582124473561,-126.4022524794083,124.35670050437334,102.94391534391536,-120.63009404388714,-5.079999999999995,-22.92195121951219,0.5404255319148996,1.4941176470588236,-8.889999999999993,-9.988764044943832,0.4980392156862763,-27.819047619047627,9.654043159770454,108.72818014279603,39.52256260682068,2672.0878101692697,74.12378724218719,2164.2413415810292,0
-22.598578573308753,58.683288002417676,-37.28582124473561,-126.4022524794083,124.35670050437334,102.94391534391536,-120.63009404388714,-1.693333333333328,-1.8585365853658518,7.025531914893623,0.0,-7.619999999999994,-12.842696629213494,3.4862745098039234,-18.142857142857153,6.583653764433421,39.034327365492295,39.52256260682068,2672.0878101692697,74.12378724218719,2164.2413415810292,0
-23.434324822321653,59.75793291024481,-37.26204960224614,-126.38090435367288,124.25940113643618,103.01111111111118,-120.3646812957158,-1.693333333333328,-1.8585365853658518,7.025531914893623,0.0,-7.619999999999994,-12.842696629213494,3.4862745098039234,-18.142857142857153,6.583653764433421,39.034327365492295,40.151435778270866,2754.172454325859,74.46696228872128,2147.8092269941367,0
-23.434324822321653,59.75793291024481,-37.26204960224614,-126.38090435367288,124.25940113643618,103.01111111111118,-120.3646812957158,11.853333333333339,10.531707317073174,-17.834042553191484,2.988235294117647,-2.5399999999999943,-7.134831460674168,-0.49803921568627274,-13.304761904761914,8.33561888485475,36.73754413032471,40.151435778270866,2754.172454325859,74.46696228872128,2147.8092269941367,0
-23.434324822321653,59.75793291024481,-37.26204960224614,-126.38090435367288,124.25940113643618,103.01111111111118,-120.3646812957158,6.773333333333339,8.053658536585367,-17.834042553191484,1.4941176470588236,-8.889999999999993,-8.561797752809,-3.48627450980392,-20.56190476190477,9.456891136835837,43.2635885663283,40.151435778270866,2754.172454325859,74.46696228872128,2147.8092269941367,0
-23.5346143722032,59.374131157449405,-37.14319138979878,-126.33820810220205,124.19453489114473,103.04470899470903,-120.25851619644726,6.773333333333339,8.053658536585367,-17.834042553191484,1.4941176470588236,-8.889999999999993,-8.561797752809,-3.48627450980392,-20.56190476190477,9.456891136835837,43.2635885663283,40.017312306483795,2729.107834239011,74.28517688315007,2155.6922150569267,0
-23.5346143722032,59.374131157449405,-37.14319138979878,-126.33820810220205,124.19453489114473,103.04470899470903,-120.25851619644726,-18.62666666666666,-15.48780487804878,3.782978723404261,-4.482352941176471,-12.699999999999994,-11.415730337078662,-7.470588235294116,-30.238095238095248,13.025527127470523,75.09619467331318,40.017312306483795,2729.107834239011,74.28517688315007,2155.6922150569267,0
-23.5346143722032,59.374131157449405,-37.14319138979878,-126.33820810220205,124.19453489114473,103.04470899470903,-120.25851619644726,-10.159999999999995,-35.31219512195122,3.782978723404261,-1.4941176470588236,-3.8099999999999943,-9.988764044943832,-0.49803921568627274,-25.40000000000001,11.30576184413055,157.69394044172515,40.017312306483795,2729.107834239011,74.28517688315007,2155.6922150569267,0
-23.601474072124233,58.76004835297675,-37.09564810481984,-126.31685997646662,124.162101768499,103.11190476190478,-120.25851619644726,-10.159999999999995,-35.31219512195122,3.782978723404261,-1.4941176470588236,-3.8099999999999943,-9.988764044943832,-0.49803921568627274,-25.40000000000001,11.30576184413055,157.69394044172515,39.819056843306946,2692.304608735721,74.05751881142108,2165.6156137815533,0
-23.601474072124233,58.76004835297675,-37.09564810481984,-126.31685997646662,124.162101768499,103.11190476190478,-120.25851619644726,-3.3866666666666614,-15.48780487804878,-30.80425531914893,-1.4941176470588236,-2.5399999999999943,-7.134831460674168,-4.482352941176469,-27.819047619047627,11.643634566477681,138.4615221875911,39.819056843306946,2692.304608735721,74.05751881142108,2165.6156137815533,0
-23.601474072124233,58.76004835297675,-37.09564810481984,-126.31685997646662,124.162101768499,103.11190476190478,-120.25851619644726,5.329070518200751e-15,-16.726829268292683,7.025531914893623,-2.988235294117647,-13.969999999999995,-18.55056179775282,-0.49803921568627274,-22.980952380952388,10.342518733961931,78.569910648599,39.819056843306946,2692.304608735721,74.05751881142108,2165.6156137815533,0
-24.570939720979194,59.681172559685734,-37.02433317735142,-126.25281559926037,124.12966864585327,103.07830687830693,-120.04618599791013,5.329070518200751e-15,-16.726829268292683,7.025531914893623,-2.988235294117647,-13.969999999999995,-18.55056179775282,-0.49803921568627274,-22.980952380952388,10.342518733961931,78.569910648599,40.425481819338785,2767.5767120315186,74.3194404454325,2151.139683850393,0
-24.570939720979194,59.681172559685734,-37.02433317735142,-126.25281559926037,124.12966864585327,103.07830687830693,-120.04618599791013,-15.239999999999995,-30.35609756097561,9.187234042553197,5.976470588235294,5.329070518200751e-15,-7.134831460674168,1.4941176470588253,-22.980952380952388,11.546212960056184,112.65940561078335,40.425481819338785,2767.5767120315186,74.3194404454325,2151.139683850393,0
-24.570939720979194,59.681172559685734,-37.02433317735142,-126.25281559926037,124.12966864585327,103.07830687830693,-120.04618599791013,3.386666666666672,-16.726829268292683,11.348936170212772,0.0,-6.349999999999994,-9.988764044943832,-1.4941176470588218,-18.142857142857153,8.42977136750399,46.151411172157815,40.425481819338785,2767.5767120315186,74.3194404454325,2151.139683850393,0
-23.634903922084746,59.91145361136297,-36.95301824988301,-126.33820810220205,124.11345208453041,103.04470899470903,-119.99310344827586,3.386666666666672,-16.726829268292683,11.348936170212772,0.0,-6.349999999999994,-9.988764044943832,-1.4941176470588218,-18.142857142857153,8.42977136750399,46.151411172157815,40.166458594443576,2756.681989218849,74.40089332114934,2154.8859385614305,0
-23.634903922084746,59.91145361136297,-36.95301824988301,-126.33820810220205,124.11345208453041,103.04470899470903,-119.99310344827586,-6.773333333333328,11.770731707317076,4.863829787234049,-2.988235294117647,-6.349999999999994,-11.415730337078662,0.4980392156862763,-25.40000000000001,8.757487459345882,59.93075844667664,40.166458594443576,2756.681989218849,74.40089332114934,2154.8859385614305,0
-23.634903922084746,59.91145361136297,-36.95301824988301,-126.33820810220205,124.11345208453041,103.04470899470903,-119.99310344827586,1.6933333333333387,-17.96585365853658,-51.34042553191489,-7.470588235294118,-12.699999999999994,-14.269662921348324,-8.466666666666665,-20.56190476190477,16.808554388624835,230.92255778932275,40.166458594443576,2756.681989218849,74.40089332114934,2154.8859385614305,0
-22.331139773624628,59.14385010577216,-36.905474964904066,-126.44494873087913,124.09723552320754,103.1791005291006,-120.20543364681293,1.6933333333333387,-17.96585365853658,-51.34042553191489,-7.470588235294118,-12.699999999999994,-14.269662921348324,-8.466666666666665,-20.56190476190477,16.808554388624835,230.92255778932275,39.46015494810029,2679.3430114413345,74.16475793385179,2173.5500945566823,0
-22.331139773624628,59.14385010577216,-36.905474964904066,-126.44494873087913,124.09723552320754,103.1791005291006,-120.20543364681293,-5.079999999999995,3.097560975609758,5.944680851063836,-2.988235294117647,-11.429999999999994,-9.988764044943832,-4.482352941176469,-25.40000000000001,8.551449263363942,55.76051194219578,39.46015494810029,2679.3430114413345,74.16475793385179,2173.5500945566823,0
-22.331139773624628,59.14385010577216,-36.905474964904066,-126.44494873087913,124.09723552320754,103.1791005291006,-120.20543364681293,5.080000000000005,22.921951219512195,14.591489361702134,4.482352941176471,-7.619999999999994,-7.134831460674168,5.4784313725490215,-15.723809523809532,10.37910823492794,44.09140165569189,39.46015494810029,2679.3430114413345,74.16475793385179,2173.5500945566823,0
-22.598578573308753,59.14385010577216,-37.09564810481984,-126.50899310808538,124.03236927791609,103.2798941798942,-120.25851619644726,5.080000000000005,22.921951219512195,14.591489361702134,4.482352941176471,-7.619999999999994,-7.134831460674168,5.4784313725490215,-15.723809523809532,10.37910823492794,44.09140165569189,39.61269226130025,2692.3384478637727,74.24949710622579,2169.821994644983,0
-22.598578573308753,59.14385010577216,-37.09564810481984,-126.50899310808538,124.03236927791609,103.2798941798942,-120.25851619644726,11.853333333333339,3.097560975609758,-9.187234042553186,1.4941176470588236,-3.8099999999999943,-8.561797752809,-2.490196078431371,-13.304761904761914,6.724875216819673,20.854389308816135,39.61269226130025,2692.3384478637727,74.24949710622579,2169.821994644983,0
-22.598578573308753,59.14385010577216,-37.09564810481984,-126.50899310808538,124.03236927791609,103.2798941798942,-120.25851619644726,-11.853333333333328,-14.248780487804876,-0.5404255319148876,1.4941176470588236,1.2700000000000058,-7.134831460674168,-2.490196078431371,-27.819047619047627,8.356341519783136,88.57790884994945,39.61269226130025,2692.3384478637727,74.24949710622579,2169.821994644983,0
-23.10002632271649,59.45089150800849,-36.905474964904066,-126.55168935955622,123.99993615527036,103.3134920634921,-120.20543364681293,-11.853333333333328,-14.248780487804876,-0.5404255319148876,1.4941176470588236,1.2700000000000058,-7.134831460674168,-2.490196078431371,-27.819047619047627,8.356341519783136,88.57790884994945,39.81879759854302,2714.965634461569,74.3026852774896,2174.5427724513834,0
-23.10002632271649,59.45089150800849,-36.905474964904066,-126.55168935955622,123.99993615527036,103.3134920634921,-120.20543364681293,8.466666666666672,-4.336585365853656,-9.187234042553186,-1.4941176470588236,-10.159999999999995,-12.842696629213494,0.4980392156862763,-22.980952380952388,8.745786493498061,51.67864213754723,39.81879759854302,2714.965634461569,74.3026852774896,2174.5427724513834,0
-23.10002632271649,59.45089150800849,-36.905474964904066,-126.55168935955622,123.99993615527036,103.3134920634921,-120.20543364681293,-18.62666666666666,22.921951219512195,44.855319148936175,4.482352941176471,-3.8099999999999943,-8.561797752809,-4.482352941176469,-35.07619047619048,17.85207889330843,241.87672044728694,39.81879759854302,2714.965634461569,74.3026852774896,2174.5427724513834,0
-23.233745722558556,59.60441220912665,-36.69153018249882,-126.65842998823331,123.9837195939475,103.2798941798942,-120.20543364681293,-18.62666666666666,22.921951219512195,44.855319148936175,4.482352941176471,-3.8099999999999943,-8.561797752809,-4.482352941176469,-35.07619047619048,17.85207889330843,241.87672044728694,39.84322937139468,2719.363482196047,74.3181241266196,2185.880753956997,0
-23.233745722558556,59.60441220912665,-36.69153018249882,-126.65842998823331,123.9837195939475,103.2798941798942,-120.20543364681293,5.329070518200751e-15,-27.878048780487802,-22.15744680851063,-7.470588235294118,-5.079999999999995,-7.134831460674168,2.4901960784313744,-13.304761904761914,10.689484158520001,95.67959352603063,39.84322937139468,2719.363482196047,74.3181241266196,2185.880753956997,0
-23.233745722558556,59.60441220912665,-36.69153018249882,-126.65842998823331,123.9837195939475,103.2798941798942,-120.20543364681293,-8.466666666666661,-25.4,-27.56170212765957,-4.482352941176471,-10.159999999999995,-7.134831460674168,6.4745098039215705,-22.980952380952388,14.082626922631354,90.59931109718342,39.84322937139468,2719.363482196047,74.3181241266196,2185.880753956997,0
-23.267175572519072,58.990329404654,-36.905474964904066,-126.72247436543957,123.96750303262463,103.2798941798942,-120.15235109717867,-8.466666666666661,-25.4,-27.56170212765957,-4.482352941176471,-10.159999999999995,-7.134831460674168,6.4745098039215705,-22.980952380952388,14.082626922631354,90.59931109718342,39.72099331402571,2691.3842718450887,74.20609291166588,2190.4129396549347,0
-23.267175572519072,58.990329404654,-36.905474964904066,-126.72247436543957,123.96750303262463,103.2798941798942,-120.15235109717867,-3.3866666666666614,-4.336585365853656,0.5404255319148996,2.988235294117647,-3.8099999999999943,-7.134831460674168,1.4941176470588253,-15.723809523809532,4.926833936261923,22.885720863929652,39.72099331402571,2691.3842718450887,74.20609291166588,2190.4129396549347,0
-23.267175572519072,58.990329404654,-36.905474964904066,-126.72247436543957,123.96750303262463,103.2798941798942,-120.15235109717867,-1.693333333333328,34.07317073170732,4.863829787234049,-2.988235294117647,-6.349999999999994,-8.561797752809,1.4941176470588253,-15.723809523809532,9.468536758758713,120.32952561294736,39.72099331402571,2691.3842718450887,74.20609291166588,2190.4129396549347,0
-22.364569623585144,57.7621637957087,-37.45222274216191,-126.78651874264581,123.9350699099789,103.41428571428577,-120.3646812957158,-1.693333333333328,34.07317073170732,4.863829787234049,-2.988235294117647,-6.349999999999994,-8.561797752809,1.4941176470588253,-15.723809523809532,9.468536758758713,120.32952561294736,39.192985387151914,2618.951681476019,74.00030176017214,2192.91195389023,0
-22.364569623585144,57.7621637957087,-37.45222274216191,-126.78651874264581,123.9350699099789,103.41428571428577,-120.3646812957158,3.386666666666672,-10.531707317073169,-3.7829787234042493,2.988235294117647,-8.889999999999993,-8.561797752809,0.4980392156862763,-20.56190476190477,7.4001662164577215,40.41480276096205,39.192985387151914,2618.951681476019,74.00030176017214,2192.91195389023,0
-22.364569623585144,57.7621637957087,-37.45222274216191,-126.78651874264581,123.9350699099789,103.41428571428577,-120.3646812957158,-5.079999999999995,-27.878048780487802,-11.34893617021276,-4.482352941176471,-16.509999999999994,-14.269662921348324,-6.474509803921567,-25.40000000000001,13.930438827143366,80.38678480682954,39.192985387151914,2618.951681476019,74.00030176017214,2192.91195389023,0
-22.097130823901015,56.84103958899972,-37.380907814693494,-126.78651874264581,123.91885334865604,103.61587301587304,-120.68317659352141,-5.079999999999995,-27.878048780487802,-11.34893617021276,-4.482352941176471,-16.509999999999994,-14.269662921348324,-6.474509803921567,-25.40000000000001,13.930438827143366,80.38678480682954,38.77302607586474,2557.1006599641273,73.66948871544635,2210.7383413511484,0
-22.097130823901015,56.84103958899972,-37.380907814693494,-126.78651874264581,123.91885334865604,103.61587301587304,-120.68317659352141,-6.773333333333328,-4.336585365853656,-14.591489361702122,2.988235294117647,-3.8099999999999943,-11.415730337078662,-1.4941176470588218,-27.819047619047627,9.153567369773981,76.74136591493132,38.77302607586474,2557.1006599641273,73.66948871544635,2210.7383413511484,0
-22.097130823901015,56.84103958899972,-37.380907814693494,-126.78651874264581,123.91885334865604,103.61587301587304,-120.68317659352141,-23.706666666666663,-25.4,23.238297872340432,-7.470588235294118,-19.049999999999994,-14.269662921348324,1.4941176470588253,-32.657142857142865,18.410809524981403,103.79687273317232,38.77302607586474,2557.1006599641273,73.66948871544635,2210.7383413511484,0
-21.863121874177402,57.378362042913295,-37.45222274216191,-126.82921499411665,123.88642022601032,103.85105820105827,-121.05475444096135,-23.706666666666663,-25.4,23.238297872340432,-7.470588235294118,-19.049999999999994,-14.269662921348324,1.4941176470588253,-32.657142857142865,18.410809524981403,103.79687273317232,38.89790221975087,2585.845441655679,73.8865999263973,2201.453124514767,0
-21.863121874177402,57.378362042913295,-37.45222274216191,-126.82921499411665,123.88642022601032,103.85105820105827,-121.05475444096135,-3.3866666666666614,9.292682926829269,19.995744680851068,1.4941176470588236,-6.349999999999994,-8.561797752809,-1.4941176470588218,-27.819047619047627,9.799271867540158,88.776929376731,38.89790221975087,2585.845441655679,73.8865999263973,2201.453124514767,0
-21.863121874177402,57.378362042913295,-37.45222274216191,-126.82921499411665,123.88642022601032,103.85105820105827,-121.05475444096135,-3.3866666666666614,-29.117073170731704,-10.268085106382973,-2.988235294117647,-5.079999999999995,-9.988764044943832,-7.470588235294116,-20.56190476190477,11.107664660005213,84.39689894818274,38.89790221975087,2585.845441655679,73.8865999263973,2201.453124514767,0
-21.66254277441431,57.83892414626778,-37.16696303228825,-126.82921499411665,123.82155398071889,104.11984126984129,-121.37324973876696,-3.3866666666666614,-29.117073170731704,-10.268085106382973,-2.988235294117647,-5.079999999999995,-9.988764044943832,-7.470588235294116,-20.56190476190477,11.107664660005213,84.39689894818274,38.88947665099011,2597.8314814429327,73.94503405755756,2204.3849390725104,0
-21.66254277441431,57.83892414626778,-37.16696303228825,-126.82921499411665,123.82155398071889,104.11984126984129,-121.37324973876696,10.160000000000005,66.28780487804879,12.429787234042559,1.4941176470588236,5.329070518200751e-15,-8.561797752809,-1.4941176470588218,-22.980952380952388,15.4260721924963,479.1402840158697,38.88947665099011,2597.8314814429327,73.94503405755756,2204.3849390725104,0
-21.66254277441431,57.83892414626778,-37.16696303228825,-126.82921499411665,123.82155398071889,104.11984126984129,-121.37324973876696,10.160000000000005,3.097560975609758,-5.944680851063824,2.988235294117647,-5.079999999999995,-8.561797752809,3.4862745098039234,-10.885714285714295,6.275532958639806,10.25634564282259,38.88947665099011,2597.8314814429327,73.94503405755756,2204.3849390725104,0
-22.13056067386153,57.7621637957087,-37.45222274216191,-126.7651706169104,123.74047117410457,104.38862433862437,-121.63866248693836,10.160000000000005,3.097560975609758,-5.944680851063824,2.988235294117647,-5.079999999999995,-8.561797752809,3.4862745098039234,-10.885714285714295,6.275532958639806,10.25634564282259,39.11498240391071,2613.896692581483,73.99318571826034,2191.785219007149,0
-22.13056067386153,57.7621637957087,-37.45222274216191,-126.7651706169104,123.74047117410457,104.38862433862437,-121.63866248693836,1.6933333333333387,6.814634146341465,-0.5404255319148876,-2.988235294117647,-10.159999999999995,-8.561797752809,-0.49803921568627274,-15.723809523809532,5.8725343497515174,29.52159407201926,39.11498240391071,2613.896692581483,73.99318571826034,2191.785219007149,0
-22.13056067386153,57.7621637957087,-37.45222274216191,-126.7651706169104,123.74047117410457,104.38862433862437,-121.63866248693836,-5.079999999999995,-13.009756097560974,-10.268085106382973,0.0,-13.969999999999995,-14.269662921348324,4.482352941176472,-22.980952380952388,10.50760118092764,52.03087213775298,39.11498240391071,2613.896692581483,73.99318571826034,2191.785219007149,0
-21.49539352461173,57.378362042913295,-37.54730931211979,-126.7651706169104,123.65938836749025,104.69100529100535,-122.0102403343783,-5.079999999999995,-13.009756097560974,-10.268085106382973,0.0,-13.969999999999995,-14.269662921348324,4.482352941176472,-22.980952380952388,10.50760118092764,52.03087213775298,38.80702162654827,2581.6027333297807,73.89694732398117,2194.6044387161473,0
-21.49539352461173,57.378362042913295,-37.54730931211979,-126.7651706169104,123.65938836749025,104.69100529100535,-122.0102403343783,5.080000000000005,-9.292682926829267,-23.238297872340418,-5.976470588235294,-2.5399999999999943,-7.134831460674168,1.4941176470588253,-13.304761904761914,8.507645299987486,49.351901875562284,38.80702162654827,2581.6027333297807,73.89694732398117,2194.6044387161473,0
-21.49539352461173,57.378362042913295,-37.54730931211979,-126.7651706169104,123.65938836749025,104.69100529100535,-122.0102403343783,-5.079999999999995,-16.726829268292683,-3.7829787234042493,1.4941176470588236,1.2700000000000058,-5.707865168539337,-2.490196078431371,-30.238095238095248,8.348760265477715,102.75117915594522,38.80702162654827,2581.6027333297807,73.89694732398117,2194.6044387161473,0
-20.49249802579625,57.99244484738594,-37.689939167056615,-126.82921499411665,123.56208899955307,105.06058201058204,-122.48798328108671,-5.079999999999995,-16.726829268292683,-3.7829787234042493,1.4941176470588236,1.2700000000000058,-5.707865168539337,-2.490196078431371,-30.238095238095248,8.348760265477715,102.75117915594522,38.7249606800796,2601.7928083835063,74.17053300285308,2182.750526017722,0
-20.49249802579625,57.99244484738594,-37.689939167056615,-126.82921499411665,123.56208899955307,105.06058201058204,-122.48798328108671,-20.319999999999993,-50.18048780487805,-12.429787234042546,1.4941176470588236,-11.429999999999994,-11.415730337078662,-0.49803921568627274,-30.238095238095248,17.25078218460495,268.9363017906063,38.7249606800796,2601.7928083835063,74.17053300285308,2182.750526017722,0
-20.49249802579625,57.99244484738594,-37.689939167056615,-126.82921499411665,123.56208899955307,105.06058201058204,-122.48798328108671,5.329070518200751e-15,-6.8146341463414615,-27.56170212765957,-1.4941176470588236,3.810000000000006,-5.707865168539337,-7.470588235294116,-22.980952380952388,9.479982463230714,102.9125994199165,38.7249606800796,2601.7928083835063,74.17053300285308,2182.750526017722,0
-20.191629376151607,58.60652765185859,-38.1178287318671,-126.85056311985207,123.3674902636787,105.56455026455029,-122.91264367816092,5.329070518200751e-15,-6.8146341463414615,-27.56170212765957,-1.4941176470588236,3.810000000000006,-5.707865168539337,-7.470588235294116,-22.980952380952388,9.479982463230714,102.9125994199165,38.97199525329243,2647.683215366297,74.52497316785924,2158.4222187265837,0
-20.191629376151607,58.60652765185859,-38.1178287318671,-126.85056311985207,123.3674902636787,105.56455026455029,-122.91264367816092,-11.853333333333328,-20.443902439024388,-9.187234042553186,-4.482352941176471,-11.429999999999994,-11.415730337078662,-2.490196078431371,-27.819047619047627,12.390224598830628,67.98205378320162,38.97199525329243,2647.683215366297,74.52497316785924,2158.4222187265837,0
-20.191629376151607,58.60652765185859,-38.1178287318671,-126.85056311985207,123.3674902636787,105.56455026455029,-122.91264367816092,5.080000000000005,21.682926829268293,39.45106382978724,0.0,-24.129999999999995,-9.988764044943832,6.4745098039215705,-15.723809523809532,15.316384253966309,163.82841579312222,38.97199525329243,2647.683215366297,74.52497316785924,2158.4222187265837,0
-19.7570413266649,57.22484134179513,-37.92765559195133,-126.8932593713229,123.23775777309582,106.10211640211645,-123.5496342737722,5.080000000000005,21.682926829268293,39.45106382978724,0.0,-24.129999999999995,-9.988764044943832,6.4745098039215705,-15.723809523809532,15.316384253966309,163.82841579312222,38.30317942013712,2551.7298591141675,74.01525210168978,2190.158084071523,0
-19.7570413266649,57.22484134179513,-37.92765559195133,-126.8932593713229,123.23775777309582,106.10211640211645,-123.5496342737722,-13.546666666666662,-17.96585365853658,10.268085106382985,-4.482352941176471,-13.969999999999995,-12.842696629213494,-4.482352941176469,-35.07619047619048,14.079274802417892,93.78966947488757,38.30317942013712,2551.7298591141675,74.01525210168978,2190.158084071523,0
-19.7570413266649,57.22484134179513,-37.92765559195133,-126.8932593713229,123.23775777309582,106.10211640211645,-123.5496342737722,5.329070518200751e-15,-6.8146341463414615,-10.268085106382973,2.988235294117647,-6.349999999999994,-5.707865168539337,3.4862745098039234,-18.142857142857153,6.719743921005312,30.540327658338633,38.30317942013712,2551.7298591141675,74.01525210168978,2190.158084071523,0
-17.985259278757557,55.766394681172585,-37.92765559195133,-127.0,123.12424184383578,106.74047619047622,-124.55820271682342,5.329070518200751e-15,-6.8146341463414615,-10.268085106382973,2.988235294117647,-6.349999999999994,-5.707865168539337,3.4862745098039234,-18.142857142857153,6.719743921005312,30.540327658338633,37.22643651729382,2435.930114853406,73.56468342437464,2221.0549462263043,0
-17.985259278757557,55.766394681172585,-37.92765559195133,-127.0,123.12424184383578,106.74047619047622,-124.55820271682342,-22.01333333333333,-47.702439024390245,9.187234042553197,2.988235294117647,-8.889999999999993,-11.415730337078662,-2.490196078431371,-27.819047619047627,16.56327696611901,235.45124115194236,37.22643651729382,2435.930114853406,73.56468342437464,2221.0549462263043,0
-17.985259278757557,55.766394681172585,-37.92765559195133,-127.0,123.12424184383578,106.74047619047622,-124.55820271682342,-6.773333333333328,-10.531707317073169,-3.7829787234042493,-2.988235294117647,-6.349999999999994,-9.988764044943832,-6.474509803921567,-18.142857142857153,8.129048207456368,23.223490461605962,37.22643651729382,2435.930114853406,73.56468342437464,2221.0549462263043,0
-17.517241379310335,54.23118766999096,-38.1178287318671,-127.0,122.94585966928427,107.41243386243389,-125.3544409613375,-6.773333333333328,-10.531707317073169,-3.7829787234042493,-2.988235294117647,-6.349999999999994,-9.988764044943832,-6.474509803921567,-18.142857142857153,8.129048207456368,23.223490461605962,36.62208592705613,2350.0936834505983,73.11633880061935,2242.496792254434,0
-17.517241379310335,54.23118766999096,-38.1178287318671,-127.0,122.94585966928427,107.41243386243389,-125.3544409613375,1.6933333333333387,-8.053658536585363,7.025531914893623,-2.988235294117647,-3.8099999999999943,-9.988764044943832,-3.48627450980392,-30.238095238095248,8.41048660897162,85.84488331367905,36.62208592705613,2350.0936834505983,73.11633880061935,2242.496792254434,0
-17.517241379310335,54.23118766999096,-38.1178287318671,-127.0,122.94585966928427,107.41243386243389,-125.3544409613375,3.386666666666672,-16.726829268292683,-9.187234042553186,5.976470588235294,-8.889999999999993,-4.280898876404505,5.4784313725490215,-25.40000000000001,9.91581635183767,56.76055609045343,36.62208592705613,2350.0936834505983,73.11633880061935,2242.496792254434,0
-19.32245327717819,55.22907222725902,-39.25886757136172,-126.7651706169104,122.62152844282703,108.05079365079371,-125.56677115987463,3.386666666666672,-16.726829268292683,-9.187234042553186,5.976470588235294,-8.889999999999993,-4.280898876404505,5.4784313725490215,-25.40000000000001,9.91581635183767,56.76055609045343,37.93679769193297,2480.5602228893085,73.75103680517704,2171.6356470440883,0
-19.32245327717819,55.22907222725902,-39.25886757136172,-126.7651706169104,122.62152844282703,108.05079365079371,-125.56677115987463,25.400000000000006,1.8585365853658562,0.5404255319148996,8.964705882352941,-6.349999999999994,-1.4269662921348427,0.4980392156862763,-6.047619047619058,6.3857865693842335,68.8894972397619,37.93679769193297,2480.5602228893085,73.75103680517704,2171.6356470440883,0
-19.32245327717819,55.22907222725902,-39.25886757136172,-126.7651706169104,122.62152844282703,108.05079365079371,-125.56677115987463,-3.3866666666666614,-40.26829268292683,-41.612765957446804,-16.43529411764706,-6.349999999999994,-11.415730337078662,-7.470588235294116,-18.142857142857153,18.13527439248966,222.7507178229976,37.93679769193297,2480.5602228893085,73.75103680517704,2171.6356470440883,0
-18.653856277967876,54.92203082502269,-40.518764623303696,-126.48764498234996,122.21611440975546,108.95793650793655,-126.04451410658305,-3.3866666666666614,-40.26829268292683,-41.612765957446804,-16.43529411764706,-6.349999999999994,-11.415730337078662,-7.470588235294116,-18.142857142857153,18.13527439248966,222.7507178229976,38.03155057543142,2500.0718026252043,73.97614681022544,2119.9565995301723,0
-18.653856277967876,54.92203082502269,-40.518764623303696,-126.48764498234996,122.21611440975546,108.95793650793655,-126.04451410658305,13.546666666666672,14.24878048780488,-11.34893617021276,-10.458823529411765,-24.129999999999995,-15.696629213483156,3.4862745098039234,-18.142857142857153,13.882370965030038,36.13170286087135,38.03155057543142,2500.0718026252043,73.97614681022544,2119.9565995301723,0
-18.653856277967876,54.92203082502269,-40.518764623303696,-126.48764498234996,122.21611440975546,108.95793650793655,-126.04451410658305,-22.01333333333333,-32.83414634146341,4.863829787234049,4.482352941176471,-11.429999999999994,-12.842696629213494,-4.482352941176469,-32.657142857142865,15.700731853842509,145.2103881037916,38.03155057543142,2500.0718026252043,73.97614681022544,2119.9565995301723,0
-16.915504080021044,55.766394681172585,-41.636031820308844,-126.10337871911244,121.66475132477812,110.3018518518519,-126.89383490073146,-22.01333333333333,-32.83414634146341,4.863829787234049,4.482352941176471,-11.429999999999994,-12.842696629213494,-4.482352941176469,-32.657142857142865,15.700731853842509,145.2103881037916,38.105976860500824,2563.499264611205,74.50193507353129,2046.9485283759848,0
-16.915504080021044,55.766394681172585,-41.636031820308844,-126.10337871911244,121.66475132477812,110.3018518518519,-126.89383490073146,3.386666666666672,11.770731707317076,-28.642553191489355,1.4941176470588236,7.620000000000006,-9.988764044943832,-13.44705882352941,-30.238095238095248,13.323498414887553,115.07551408462182,38.105976860500824,2563.499264611205,74.50193507353129,2046.9485283759848,0
-16.915504080021044,55.766394681172585,-41.636031820308844,-126.10337871911244,121.66475132477812,110.3018518518519,-126.89383490073146,-23.706666666666663,-21.68292682926829,5.944680851063836,-8.964705882352941,-6.349999999999994,-7.134831460674168,-5.478431372549018,-39.914285714285725,14.89706609710758,155.2673786072568,38.105976860500824,2563.499264611205,74.50193507353129,2046.9485283759848,0
-18.85443537773097,55.38259292837718,-43.20496022461394,-125.37754244410824,120.93500606524931,111.57857142857148,-126.94691745036573,-23.706666666666663,-21.68292682926829,5.944680851063836,-8.964705882352941,-6.349999999999994,-7.134831460674168,-5.478431372549018,-39.914285714285725,14.89706609710758,155.2673786072568,39.147329510240695,2637.265011455736,74.6550318656998,1966.6534940995093,0
-18.85443537773097,55.38259292837718,-43.20496022461394,-125.37754244410824,120.93500606524931,111.57857142857148,-126.94691745036573,-3.3866666666666614,-11.770731707317072,21.07659574468086,7.470588235294118,-3.8099999999999943,-4.280898876404505,8.466666666666669,-8.466666666666676,8.591101820462068,33.68672185218309,39.147329510240695,2637.265011455736,74.6550318656998,1966.6534940995093,0
-18.85443537773097,55.38259292837718,-43.20496022461394,-125.37754244410824,120.93500606524931,111.57857142857148,-126.94691745036573,5.329070518200751e-15,-16.726829268292683,-16.753191489361697,16.43529411764706,5.080000000000005,-7.134831460674168,-16.435294117647057,-20.56190476190477,12.390918151940932,53.13133630600514,39.147329510240695,2637.265011455736,74.6550318656998,1966.6534940995093,0
-17.650960779152395,54.84527047446361,-46.43790360318203,-124.3528324088082,119.88092957926322,113.39285714285717,-127.0,5.329070518200751e-15,-16.726829268292683,-16.753191489361697,16.43529411764706,5.080000000000005,-7.134831460674168,-16.435294117647057,-20.56190476190477,12.390918151940932,53.13133630600514,39.64471161893268,2723.7788290623985,75.21200216215128,1828.7868524251444,0
-17.650960779152395,54.84527047446361,-46.43790360318203,-124.3528324088082,119.88092957926322,113.39285714285717,-127.0,-30.479999999999997,-50.18048780487805,0.5404255319148996,-4.482352941176471,-22.859999999999996,-8.561797752809,11.454901960784316,-35.07619047619048,20.45451955846915,296.83346272159116,39.64471161893268,2723.7788290623985,75.21200216215128,1828.7868524251444,0
-17.650960779152395,54.84527047446361,-46.43790360318203,-124.3528324088082,119.88092957926322,113.39285714285717,-127.0,-3.3866666666666614,-13.009756097560974,27.56170212765958,-23.905882352941177,-16.509999999999994,-12.842696629213494,-2.490196078431371,-18.142857142857153,14.731219636916302,78.38150609603669,39.64471161893268,2723.7788290623985,75.21200216215128,1828.7868524251444,0
-19.055014477494066,57.7621637957087,-50.52662611137108,-122.68767860144561,118.25927344697693,115.6103174603175,-126.04451410658305,-3.3866666666666614,-13.009756097560974,27.56170212765958,-23.905882352941177,-16.509999999999994,-12.842696629213494,-2.490196078431371,-18.142857142857153,14.731219636916302,78.38150609603669,42.44793479485795,3102.9672060383773,76.99215616950848,1579.1488291411206,0
-19.055014477494066,57.7621637957087,-50.52662611137108,-122.68767860144561,118.25927344697693,115.6103174603175,-126.04451410658305,28.786666666666672,29.117073170731707,14.591489361702134,-17.929411764705883,-25.399999999999995,-7.134831460674168,0.4980392156862763,-8.466666666666676,16.49052228835419,114.76445722342058,42.44793479485795,3102.9672060383773,76.99215616950848,1579.1488291411206,0
-19.055014477494066,57.7621637957087,-50.52662611137108,-122.68767860144561,118.25927344697693,115.6103174603175,-126.04451410658305,47.41333333333334,96.02439024390245,51.3404255319149,2.988235294117647,1.2700000000000058,-5.707865168539337,13.447058823529414,3.6285714285714192,27.72748497798856,1170.1645291747764,42.44793479485795,3102.9672060383773,76.99215616950848,1579.1488291411206,0
-19.255593577257162,56.68751888788156,-53.78334113242863,-120.44612539922676,116.15112047500476,118.06296296296301,-124.02737722048067,47.41333333333334,96.02439024390245,51.3404255319149,2.988235294117647,1.2700000000000058,-5.707865168539337,13.447058823529414,3.6285714285714192,27.72748497798856,1170.1645291747764,43.24215119918912,3193.8887659588877,76.97232847317899,1419.5868264842475,0
-19.255593577257162,56.68751888788156,-53.78334113242863,-120.44612539922676,116.15112047500476,118.06296296296301,-124.02737722048067,-8.466666666666661,26.639024390243904,-11.34893617021276,16.43529411764706,7.620000000000006,-12.842696629213494,-8.466666666666665,-20.56190476190477,14.047648675319415,45.574781712579025,43.24215119918912,3193.8887659588877,76.97232847317899,1419.5868264842475,0
-19.255593577257162,56.68751888788156,-53.78334113242863,-120.44612539922676,116.15112047500476,118.06296296296301,-124.02737722048067,-35.559999999999995,-71.24390243902438,-43.77446808510638,-14.941176470588236,-8.889999999999993,-11.415730337078662,-8.466666666666665,-35.07619047619048,28.671016809331846,487.82956972112896,43.24215119918912,3193.8887659588877,76.97232847317899,1419.5868264842475,0
-28.04764411687285,49.31852523420976,-58.252409920449225,-116.81694402420574,113.73485283789822,120.28042328042335,-120.41776384535007,-35.559999999999995,-71.24390243902438,-43.77446808510638,-14.941176470588236,-8.889999999999993,-11.415730337078662,-8.466666666666665,-35.07619047619048,28.671016809331846,487.82956972112896,45.2061930905106,3078.2263545595233,74.79595972628825,1344.2759149211277,0
-28.04764411687285,49.31852523420976,-58.252409920449225,-116.81694402420574,113.73485283789822,120.28042328042335,-120.41776384535007,-13.546666666666662,-27.878048780487802,17.834042553191495,19.423529411764704,5.329070518200751e-15,-8.561797752809,-12.450980392156861,-20.56190476190477,15.032121289872663,71.34717247424955,45.2061930905106,3078.2263545595233,74.79595972628825,1344.2759149211277,0
-28.04764411687285,49.31852523420976,-58.252409920449225,-116.81694402420574,113.73485283789822,120.28042328042335,-120.41776384535007,5.329070518200751e-15,-17.96585365853658,17.834042553191495,7.470588235294118,-13.969999999999995,-15.696629213483156,-17.431372549019606,-22.980952380952388,14.168679823809669,52.02067805673586,45.2061930905106,3078.2263545595233,74.79595972628825,1344.2759149211277,0
-25.707554619636735,41.18192807494714,-70.8276087973795,-111.90687510505967,110.32937496009703,124.14417989417996,-117.60438871473355,5.329070518200751e-15,-17.96585365853658,17.834042553191495,7.470588235294118,-13.969999999999995,-15.696629213483156,-17.431372549019606,-22.980952380952388,14.168679823809669,52.02067805673586,45.90569716398779,3176.02642241743,74.6388039924621,1261.3984397143213,0
-25.707554619636735,41.18192807494714,-70.8276087973795,-111.90687510505967,110.32937496009703,124.14417989417996,-117.60438871473355,-27.093333333333327,-78.6780487804878,-18.91489361702127,8.964705882352941,-21.589999999999996,-22.831460674157313,1.4941176470588253,-22.980952380952388,25.318439039420483,535.9995194811271,45.90569716398779,3176.02642241743,74.6388039924621,1261.3984397143213,0
-25.707554619636735,41.18192807494714,-70.8276087973795,-111.90687510505967,110.32937496009703,124.14417989417996,-117.60438871473355,-22.01333333333333,-43.985365853658536,-5.944680851063824,14.941176470588236,-10.159999999999995,-8.561797752809,11.454901960784316,-37.49523809523811,19.319561789684418,200.79301943102945,45.90569716398779,3176.02642241743,74.6388039924621,1261.3984397143213,0
-40.115819952619105,54.69174977334545,-69.35376696303229,-106.20692553370313,106.51848304922427,126.39523809523814,-110.86290491118075,-22.01333333333333,-43.985365853658536,-5.944680851063824,14.941176470588236,-10.159999999999995,-8.561797752809,11.454901960784316,-37.49523809523811,19.319561789684418,200.79301943102945,54.72044556299895,4205.1038408537215,76.75081409002695,704.4905630543709,0
-40.115819952619105,54.69174977334545,-69.35376696303229,-106.20692553370313,106.51848304922427,126.39523809523814,-110.86290491118075,-23.706666666666663,-45.224390243902434,-8.1063829787234,-19.423529411764704,6.350000000000005,2.8539325842696517,10.458823529411767,-15.723809523809532,16.48094186731852,183.194215038452,54.72044556299895,4205.1038408537215,76.75081409002695,704.4905630543709,0
-40.115819952619105,54.69174977334545,-69.35376696303229,-106.20692553370313,106.51848304922427,126.39523809523814,-110.86290491118075,5.080000000000005,-3.0975609756097544,-45.93617021276595,-11.952941176470588,-2.5399999999999943,-1.4269662921348427,7.4705882352941195,-20.56190476190477,12.258266456772503,224.76778531399535,54.72044556299895,4205.1038408537215,76.75081409002695,704.4905630543709,0
-58.8031060805475,60.75581746751287,-72.77688348151614,-99.58900655572364,102.3183936666028,127.00000000000006,-100.56489028213167,5.080000000000005,-3.0975609756097544,-45.93617021276595,-11.952941176470588,-2.5399999999999943,-1.4269662921348427,7.4705882352941195,-20.56190476190477,12.258266456772503,224.76778531399535,64.1119356765255,5386.76414626093,77.70723583491755,395.23542443670124,0
-58.8031060805475,60.75581746751287,-72.77688348151614,-99.58900655572364,102.3183936666028,127.00000000000006,-100.56489028213167,8.466666666666672,-27.878048780487802,-47.01702127659574,-16.43529411764706,6.350000000000005,-1.0658141036401503e-14,2.4901960784313744,-30.238095238095248,17.359415269740488,268.52297468398314,64.1119356765255,5386.76414626093,77.70723583491755,395.23542443670124,0
-58.8031060805475,60.75581746751287,-72.77688348151614,-99.58900655572364,102.3183936666028,127.00000000000006,-100.56489028213167,-32.17333333333333,-15.48780487804878,-18.91489361702127,-1.4941176470588236,-12.699999999999994,-19.97752808988765,8.466666666666669,-32.657142857142865,17.73393588614492,116.80375175887369,64.1119356765255,5386.76414626093,77.70723583491755,395.23542443670124,0
-74.61542511187153,56.15019643396799,-78.64847917641553,-92.97108757774414,98.50750175573005,126.42883597883605,-89.94838035527692,-32.17333333333333,-15.48780487804878,-18.91489361702127,-1.4941176470588236,-12.699999999999994,-19.97752808988765,8.466666666666669,-32.657142857142865,17.73393588614492,116.80375175887369,69.80470024075169,5881.099374945112,75.92325439604257,344.51464373312245,0
-74.61542511187153,56.15019643396799,-78.64847917641553,-92.97108757774414,98.50750175573005,126.42883597883605,-89.94838035527692,3.386666666666672,15.487804878048781,-28.642553191489355,-17.929411764705883,-7.619999999999994,-14.269662921348324,-3.48627450980392,-20.56190476190477,13.923034836745963,77.0039707670877,69.80470024075169,5881.099374945112,75.92325439604257,344.51464373312245,0
-74.61542511187153,56.15019643396799,-78.64847917641553,-92.97108757774414,98.50750175573005,126.42883597883605,-89.94838035527692,6.773333333333339,-16.726829268292683,12.429787234042559,4.482352941176471,-6.349999999999994,-21.404494382022484,-3.48627450980392,-13.304761904761914,10.61972919667917,40.81035053594889,69.80470024075169,5881.099374945112,75.92325439604257,344.51464373312245,0
-82.7054488023164,55.305832577818094,-84.9479644361254,-85.58463607328962,94.14524675987995,125.25291005291007,-78.21713688610242,6.773333333333339,-16.726829268292683,12.429787234042559,4.482352941176471,-6.349999999999994,-21.404494382022484,-3.48627450980392,-13.304761904761914,10.61972919667917,40.81035053594889,74.31974860541997,6453.8783735638335,75.27947769574438,299.3112121660375,0
-82.7054488023164,55.305832577818094,-84.9479644361254,-85.58463607328962,94.14524675987995,125.25291005291007,-78.21713688610242,28.786666666666672,37.79024390243902,-18.91489361702127,-20.91764705882353,-24.129999999999995,-17.12359550561799,0.4980392156862763,-8.466666666666676,19.578469079115177,133.28159567060308,74.31974860541997,6453.8783735638335,75.27947769574438,299.3112121660375,0
-82.7054488023164,55.305832577818094,-84.9479644361254,-85.58463607328962,94.14524675987995,125.25291005291007,-78.21713688610242,-1.693333333333328,0.6195121951219527,37.289361702127664,25.4,-2.5399999999999943,-5.707865168539337,6.4745098039215705,-20.56190476190477,12.535810870618576,183.63968074848285,74.31974860541997,6453.8783735638335,75.27947769574438,299.3112121660375,0
-84.8115293498289,69.04593532789364,-89.2506317267197,-78.2195326945705,89.02081338185532,123.97619047619054,-65.95506792058518,-1.693333333333328,0.6195121951219527,37.289361702127664,25.4,-2.5399999999999943,-5.707865168539337,6.4745098039215705,-20.56190476190477,12.535810870618576,183.63968074848285,81.03603213481408,8124.938034707477,78.83869991639462,102.34496517861973,0
-84.8115293498289,69.04593532789364,-89.2506317267197,-78.2195326945705,89.02081338185532,123.97619047619054,-65.95506792058518,-10.159999999999995,-10.531707317073169,16.753191489361708,7.470588235294118,2.5400000000000063,-1.4269662921348427,1.4941176470588253,-15.723809523809532,8.262547563091525,37.488920156773766,81.03603213481408,8124.938034707477,78.83869991639462,102.34496517861973,0
-84.8115293498289,69.04593532789364,-89.2506317267197,-78.2195326945705,89.02081338185532,123.97619047619054,-65.95506792058518,1.6933333333333387,-16.726829268292683,15.672340425531921,1.4941176470588236,-16.509999999999994,-12.842696629213494,1.4941176470588253,-13.304761904761914,9.967274606906374,50.35719514074689,81.03603213481408,8124.938034707477,78.83869991639462,102.34496517861973,0
-92.19952619110292,80.71350861287401,-95.40748713149274,-70.40611867540761,82.98825256975036,122.26269841269846,-52.63134796238239,1.6933333333333387,-16.726829268292683,15.672340425531921,1.4941176470588236,-16.509999999999994,-12.842696629213494,1.4941176470588253,-13.304761904761914,9.967274606906374,50.35719514074689,89.4401739784899,10154.635626750609,82.17570480659145,157.8706194509235,0
-92.19952619110292,80.71350861287401,-95.40748713149274,-70.40611867540761,82.98825256975036,122.26269841269846,-52.63134796238239,8.466666666666672,22.921951219512195,3.782978723404261,0.0,-7.619999999999994,-11.415730337078662,9.462745098039218,-25.40000000000001,11.133759005587626,77.5447639056008,89.4401739784899,10154.635626750609,82.17570480659145,157.8706194509235,0
-92.19952619110292,80.71350861287401,-95.40748713149274,-70.40611867540761,82.98825256975036,122.26269841269846,-52.63134796238239,8.466666666666672,19.20487804878049,-7.025531914893611,0.0,2.5400000000000063,-1.4269662921348427,-0.49803921568627274,-20.56190476190477,7.465498362508333,67.93262298459139,89.4401739784899,10154.635626750609,82.17570480659145,157.8706194509235,0
-96.44511713608844,80.02266545784228,-103.48984557791296,-61.76012775256344,76.19351337547084,120.24682539682544,-39.57304075235106,8.466666666666672,19.20487804878049,-7.025531914893611,0.0,2.5400000000000063,-1.4269662921348427,-0.49803921568627274,-20.56190476190477,7.465498362508333,67.93262298459139,93.31920939061456,10811.224699847673,81.75754626277289,437.59969600131086,0
-96.44511713608844,80.02266545784228,-103.48984557791296,-61.76012775256344,76.19351337547084,120.24682539682544,-39.57304075235106,18.626666666666672,10.531707317073174,3.782978723404261,5.976470588235294,-7.619999999999994,-12.842696629213494,-3.48627450980392,-18.142857142857153,10.126206447156745,35.984982103958146,93.31920939061456,10811.224699847673,81.75754626277289,437.59969600131086,0
-96.44511713608844,80.02266545784228,-103.48984557791296,-61.76012775256344,76.19351337547084,120.24682539682544,-39.57304075235106,15.240000000000006,36.551219512195125,-26.480851063829782,-8.964705882352941,1.2700000000000058,-2.853932584269674,6.4745098039215705,-13.304761904761914,13.892497593916376,147.7903650019657,93.31920939061456,10811.224699847673,81.75754626277289,437.59969600131086,0
-100.9581468807581,81.48111211846482,-108.10154422087038,-52.751218692217165,68.87984421885972,117.52539682539685,-26.727063740856806,15.240000000000006,36.551219512195125,-26.480851063829782,-8.964705882352941,1.2700000000000058,-2.853932584269674,6.4745098039215705,-13.304761904761914,13.892497593916376,147.7903650019657,96.84693440669776,11546.11582240379,80.77795834385078,766.2854529550355,0
-100.9581468807581,81.48111211846482,-108.10154422087038,-52.751218692217165,68.87984421885972,117.52539682539685,-26.727063740856806,13.546666666666672,15.487804878048781,25.400000000000006,-2.988235294117647,-6.349999999999994,-9.988764044943832,-2.490196078431371,-15.723809523809532,11.49693456075223,59.082137590455524,96.84693440669776,11546.11582240379,80.77795834385078,766.2854529550355,0
-100.9581468807581,81.48111211846482,-108.10154422087038,-52.751218692217165,68.87984421885972,117.52539682539685,-26.727063740856806,3.386666666666672,-13.009756097560974,-21.076595744680844,0.0,-6.349999999999994,-8.561797752809,-3.48627450980392,-20.56190476190477,9.554124441678272,63.324102913228195,96.84693440669776,11546.11582240379,80.77795834385078,766.2854529550355,0
-108.64701237167675,85.39588999697797,-113.66410856340664,-43.208606488485444,60.83642980271978,113.79603174603182,-13.721839080459745,3.386666666666672,-13.009756097560974,-21.076595744680844,0.0,-6.349999999999994,-8.561797752809,-3.48627450980392,-20.56190476190477,9.554124441678272,63.324102913228195,102.56900364402047,12883.783706784778,80.75620168295669,1257.1394738957556,0
-108.64701237167675,85.39588999697797,-113.66410856340664,-43.208606488485444,60.83642980271978,113.79603174603182,-13.721839080459745,-13.546666666666662,-20.443902439024388,12.429787234042559,2.988235294117647,-11.429999999999994,-9.988764044943832,1.4941176470588253,-27.819047619047627,12.517565118112692,73.99015697154634,102.56900364402047,12883.783706784778,80.75620168295669,1257.1394738957556,0
-108.64701237167675,85.39588999697797,-113.66410856340664,-43.208606488485444,60.83642980271978,113.79603174603182,-13.721839080459745,-1.693333333333328,3.097560975609758,2.702127659574474,-7.470588235294118,-8.889999999999993,-11.415730337078662,4.482352941176472,-22.980952380952388,7.841580732877399,48.74528521103582,102.56900364402047,12883.783706784778,80.75620168295669,1257.1394738957556,0
-111.12082126875494,81.40435176790574,-118.37089377632195,-33.1536392671037,52.35516823086253,109.36111111111114,-1.8313479623824378,-1.693333333333328,3.097560975609758,2.702127659574474,-7.470588235294118,-8.889999999999993,-11.415730337078662,4.482352941176472,-22.980952380952388,7.841580732877399,48.74528521103582,103.6320222709942,12838.109089402931,77.64296160377712,1826.1061584973222,0
-111.12082126875494,81.40435176790574,-118.37089377632195,-33.1536392671037,52.35516823086253,109.36111111111114,-1.8313479623824378,-6.773333333333328,-16.726829268292683,-5.944680851063824,-4.482352941176471,-8.889999999999993,-14.269662921348324,-5.478431372549018,-22.980952380952388,10.693280383589503,43.87405425101262,103.6320222709942,12838.109089402931,77.64296160377712,1826.1061584973222,0
