Gyro 0,Gyro 1,Gyro 2,Orientation 0,Orientation 1,Orientation 2,Orientation 3,Sensor 0,Sensor 1,Sensor 2,Sensor 3,Sensor 4,Sensor 5,Sensor 6,Sensor 7,Sensor Mean,Sensor Variance,Gyro Mean,Gyro Variance,Orientation Mean,Orientation Variance,Label
-18.584640599391232,35.170970614425634,-25.267465455599574,-118.68579276667175,125.92453300124532,102.40075662042875,-127.0,-13.02564102564102,15.93927125506072,-37.79024390243903,-21.46478873239436,-20.9724770642202,-14.111111111111114,-10.079365079365076,6.4141414141414135,17.47462994804662,93.05270124531057,26.341025556472147,1097.8550732700523,59.70807627889898,2633.2981351918015,0
-23.966752516974935,38.56366874443454,-26.2982896898251,-117.92995574546009,126.19339975093399,101.95233291298865,-126.49472846628208,-13.02564102564102,15.93927125506072,-37.79024390243903,-21.46478873239436,-20.9724770642202,-14.111111111111114,-10.079365079365076,6.4141414141414135,17.47462994804662,93.05270124531057,29.60957031707819,1353.7605501075564,60.93063805990658,2474.301543302303,0
-23.966752516974935,38.56366874443454,-26.2982896898251,-117.92995574546009,126.19339975093399,101.95233291298865,-126.49472846628208,-4.88461538461538,4.627530364372463,-48.94146341463416,-17.88732394366197,-17.4770642201835,-14.111111111111114,-12.767195767195764,8.97979797979798,16.209512773196543,200.95993700961995,29.60957031707819,1353.7605501075564,60.93063805990658,2474.301543302303,0
-23.966752516974935,38.56366874443454,-26.2982896898251,-117.92995574546009,126.19339975093399,101.95233291298865,-126.49472846628208,-27.679487179487175,-12.854251012145754,-22.921951219512202,4.440892098500626e-15,-11.651376146789007,-15.992592592592594,-4.703703703703701,14.11111111111111,13.739309120667691,79.91693938217328,29.60957031707819,1353.7605501075564,60.93063805990658,2474.301543302303,0
-27.029501287754613,39.46838824577025,-27.72180887042226,-117.07721654204181,126.4464508094645,101.27969735182847,-125.38313109210264,-27.679487179487175,-12.854251012145754,-22.921951219512202,4.440892098500626e-15,-11.651376146789007,-15.992592592592594,-4.703703703703701,14.11111111111111,13.739309120667691,79.91693938217328,31.406566134649044,1489.49519845245,61.42247121941144,2357.583539450473,0
-27.029501287754613,39.46838824577025,-27.72180887042226,-117.07721654204181,126.4464508094645,101.27969735182847,-125.38313109210264,9.769230769230774,5.655870445344123,-42.74634146341464,-10.732394366197179,-8.155963302752308,-8.466666666666669,0.6719576719576756,16.676767676767675,12.85939904529138,166.24541090073868,31.406566134649044,1489.49519845245,61.42247121941144,2357.583539450473,0
-27.029501287754613,39.46838824577025,-27.72180887042226,-117.07721654204181,126.4464508094645,101.27969735182847,-125.38313109210264,-22.79487179487179,-12.854251012145754,-19.204878048780493,-5.3661971830985875,-11.651376146789007,-2.8222222222222237,-2.0158730158730123,21.80808080808081,12.31471877898271,70.37408719919411,31.406566134649044,1489.49519845245,61.42247121941144,2357.583539450473,0
-26.31585108873799,40.373107747105955,-29.29258865590878,-116.32137952083016,126.63623910336239,100.83127364438838,-124.67575094489757,-22.79487179487179,-12.854251012145754,-19.204878048780493,-5.3661971830985875,-11.651376146789007,-2.8222222222222237,-2.0158730158730123,21.80808080808081,12.31471877898271,70.37408719919411,31.993849163917577,1551.5979087449523,61.99569197461497,2244.154721359347,0
-26.31585108873799,40.373107747105955,-29.29258865590878,-116.32137952083016,126.63623910336239,100.83127364438838,-124.67575094489757,-37.44871794871794,-17.995951417004054,-35.31219512195123,-16.09859154929577,-24.467889908256893,-21.63703703703704,-7.391534391534388,-3.8484848484848495,20.52505027778527,142.63423299395032,31.993849163917577,1551.5979087449523,61.99569197461497,2244.154721359347,0
-26.31585108873799,40.373107747105955,-29.29258865590878,-116.32137952083016,126.63623910336239,100.83127364438838,-124.67575094489757,-32.564102564102555,-25.19433198380567,-29.117073170731715,-8.943661971830982,-3.4954128440367134,-10.34814814814815,-14.111111111111107,3.8484848484848477,15.952790830281467,131.4674672399206,31.993849163917577,1551.5979087449523,61.99569197461497,2244.154721359347,0
-25.36431749004916,38.71445532799049,-30.02889168035559,-115.48802075385319,126.84184308841841,100.67112232030263,-124.57469663815397,-32.564102564102555,-25.19433198380567,-29.117073170731715,-8.943661971830982,-3.4954128440367134,-10.34814814814815,-14.111111111111107,3.8484848484848477,15.952790830281467,131.4674672399206,31.36922149946508,1475.582522692116,61.41045592073309,2212.14701767951,0
-25.36431749004916,38.71445532799049,-30.02889168035559,-115.48802075385319,126.84184308841841,100.67112232030263,-124.57469663815397,-8.141025641025635,-11.825910931174095,-43.98536585365854,-14.309859154929573,-11.651376146789007,-4.703703703703706,-2.0158730158730123,8.97979797979798,13.201614053368944,170.56170680877912,31.36922149946508,1475.582522692116,61.41045592073309,2212.14701767951,0
-25.36431749004916,38.71445532799049,-30.02889168035559,-115.48802075385319,126.84184308841841,100.67112232030263,-124.57469663815397,-24.42307692307692,-12.854251012145754,-45.22439024390245,-17.88732394366197,-11.651376146789007,-8.466666666666669,7.391534391534396,8.97979797979798,17.109802163446894,161.09545838162234,31.36922149946508,1475.582522692116,61.41045592073309,2212.14701767951,0
-26.46452821353312,39.845354704660124,-31.059715914581115,-114.6159011139936,126.99999999999997,100.54300126103402,-124.32206087129504,-24.42307692307692,-12.854251012145754,-45.22439024390245,-17.88732394366197,-11.651376146789007,-8.466666666666669,7.391534391534396,8.97979797979798,17.109802163446894,161.09545838162234,32.45653294425812,1574.2742270253243,61.840323911078286,2108.243024063092,0
-26.46452821353312,39.845354704660124,-31.059715914581115,-114.6159011139936,126.99999999999997,100.54300126103402,-124.32206087129504,-32.564102564102555,-8.740890688259114,-20.4439024390244,4.440892098500626e-15,-1.5987211554602254e-14,-4.703703703703706,-19.486772486772484,8.97979797979798,11.864896232707531,130.152413443421,32.45653294425812,1574.2742270253243,61.840323911078286,2108.243024063092,0
-26.46452821353312,39.845354704660124,-31.059715914581115,-114.6159011139936,126.99999999999997,100.54300126103402,-124.32206087129504,-8.141025641025635,25.19433198380566,-40.268292682926834,-17.88732394366197,-11.651376146789007,-14.111111111111114,-3.3597883597883564,6.4141414141414135,15.878423910406248,144.69072283431214,32.45653294425812,1574.2742270253243,61.840323911078286,2108.243024063092,0
-26.01849683914773,43.61501929355891,-32.65503913421586,-113.76316191057532,126.96836861768367,100.67112232030263,-124.01889795106428,-8.141025641025635,25.19433198380566,-40.268292682926834,-17.88732394366197,-11.651376146789007,-14.111111111111114,-3.3597883597883564,6.4141414141414135,15.878423910406248,144.69072283431214,34.09618508897416,1784.9986792023867,63.344406779450026,1936.568443002578,0
-26.01849683914773,43.61501929355891,-32.65503913421586,-113.76316191057532,126.96836861768367,100.67112232030263,-124.01889795106428,8.141025641025646,26.22267206477732,-52.658536585365866,-3.57746478873239,-1.1651376146789154,0.9407407407407398,2.0158730158730194,14.11111111111111,13.604070195288127,323.4983558448127,34.09618508897416,1784.9986792023867,63.344406779450026,1936.568443002578,0
-26.01849683914773,43.61501929355891,-32.65503913421586,-113.76316191057532,126.96836861768367,100.67112232030263,-124.01889795106428,-29.307692307692303,5.655870445344123,-5.575609756097567,-1.7887323943661926,-9.321100917431208,-8.466666666666669,10.079365079365083,3.8484848484848477,9.255440301931,73.55472685092623,34.09618508897416,1784.9986792023867,63.344406779450026,1936.568443002578,0
-23.193631468040262,45.575244879786275,-33.31771185621799,-113.12360750801159,126.84184308841841,101.11954602774273,-124.22100656455143,-29.307692307692303,5.655870445344123,-5.575609756097567,-1.7887323943661926,-9.321100917431208,-8.466666666666669,10.079365079365083,3.8484848484848477,9.255440301931,73.55472685092623,34.0288627346815,1842.6256633996636,64.00552141467195,1847.0015650605103,0
-23.193631468040262,45.575244879786275,-33.31771185621799,-113.12360750801159,126.84184308841841,101.11954602774273,-124.22100656455143,-35.82051282051282,-38.56275303643725,-32.83414634146342,-5.3661971830985875,-11.651376146789007,-6.585185185185187,-14.111111111111107,3.8484848484848477,18.59747083413528,214.74263567121326,34.0288627346815,1842.6256633996636,64.00552141467195,1847.0015650605103,0
-23.193631468040262,45.575244879786275,-33.31771185621799,-113.12360750801159,126.84184308841841,101.11954602774273,-124.22100656455143,-16.282051282051277,-11.825910931174095,-56.37560975609757,-17.88732394366197,-23.302752293577996,-15.992592592592594,2.0158730158730194,1.282828282828282,18.1206177622321,297.251352367028,34.0288627346815,1842.6256633996636,64.00552141467195,1847.0015650605103,0
-21.79606649496604,49.42030276046303,-34.29944922214707,-112.52281397833053,126.52552926525527,101.88827238335438,-124.47364233141042,-16.282051282051277,-11.825910931174095,-56.37560975609757,-17.88732394366197,-23.302752293577996,-15.992592592592594,2.0158730158730194,1.282828282828282,18.1206177622321,297.251352367028,35.17193949252538,2039.5171169296234,65.41418865364687,1721.5769879178702,0
-21.79606649496604,49.42030276046303,-34.29944922214707,-112.52281397833053,126.52552926525527,101.88827238335438,-124.47364233141042,-26.051282051282044,12.854251012145742,-1.8585365853658615,-7.1549295774647845,-4.660550458715612,-10.34814814814815,-10.079365079365076,3.8484848484848477,9.606943470121514,57.9158107282626,35.17193949252538,2039.5171169296234,65.41418865364687,1721.5769879178702,0
-21.79606649496604,49.42030276046303,-34.29944922214707,-112.52281397833053,126.52552926525527,101.88827238335438,-124.47364233141042,-30.93589743589743,-20.052631578947373,-10.531707317073177,-12.521126760563376,-17.4770642201835,-17.874074074074077,2.0158730158730194,6.4141414141414135,14.72781447709417,80.24290792242128,35.17193949252538,2039.5171169296234,65.41418865364687,1721.5769879178702,0
-22.658393818777792,55.15019293558918,-34.56942699777756,-112.0189226308561,126.0352428393524,102.52887767969736,-123.8673164909489,-30.93589743589743,-20.052631578947373,-10.531707317073177,-12.521126760563376,-17.4770642201835,-17.874074074074077,2.0158730158730194,6.4141414141414135,14.72781447709417,80.24290792242128,37.45933791738151,2374.276514181811,67.24618085474094,1609.340786259762,0
-22.658393818777792,55.15019293558918,-34.56942699777756,-112.0189226308561,126.0352428393524,102.52887767969736,-123.8673164909489,-11.397435897435892,13.882591093117401,-29.117073170731715,-7.1549295774647845,-15.146788990825703,-10.34814814814815,-4.703703703703701,8.97979797979798,12.591308570153167,56.0810604044897,37.45933791738151,2374.276514181811,67.24618085474094,1609.340786259762,0
-22.658393818777792,55.15019293558918,-34.56942699777756,-112.0189226308561,126.0352428393524,102.52887767969736,-123.8673164909489,-22.79487179487179,-14.910931174089074,-25.400000000000006,-5.3661971830985875,-22.137614678899098,-12.229629629629631,-0.6719576719576683,6.4141414141414135,13.740667943335907,83.81157690594806,37.45933791738151,2374.276514181811,67.24618085474094,1609.340786259762,0
-21.379770545539674,60.50311665182546,-35.4284471929655,-111.72821608423624,125.40261519302615,103.32963430012609,-123.3115178038592,-22.79487179487179,-14.910931174089074,-25.400000000000006,-5.3661971830985875,-22.137614678899098,-12.229629629629631,-0.6719576719576683,6.4141414141414135,13.740667943335907,83.81157690594806,39.103778130110214,2684.1729121712588,69.21992664300906,1512.4007655321302,0
-21.379770545539674,60.50311665182546,-35.4284471929655,-111.72821608423624,125.40261519302615,103.32963430012609,-123.3115178038592,-27.679487179487175,-21.080971659919033,-47.70243902439025,-1.7887323943661926,-2.330275229357815,-2.8222222222222237,-0.6719576719576683,1.282828282828282,13.169864208066082,302.4590484944457,39.103778130110214,2684.1729121712588,69.21992664300906,1512.4007655321302,0
-21.379770545539674,60.50311665182546,-35.4284471929655,-111.72821608423624,125.40261519302615,103.32963430012609,-123.3115178038592,-11.397435897435892,5.655870445344123,-26.63902439024391,4.440892098500626e-15,6.990825688073379,2.822222222222221,-3.3597883597883564,8.97979797979798,8.230620622863233,68.33494870683708,39.103778130110214,2684.1729121712588,69.21992664300906,1512.4007655321302,0
-19.714586747834222,63.29266844761055,-34.32399265629529,-111.76697695711889,124.76998754669987,104.0343001261034,-122.75571911676946,-11.397435897435892,5.655870445344123,-26.63902439024391,4.440892098500626e-15,6.990825688073379,2.822222222222221,-3.3597883597883564,8.97979797979798,8.230620622863233,68.33494870683708,39.11041595058002,2772.108613525779,69.79454602034157,1531.0597633324896,0
-19.714586747834222,63.29266844761055,-34.32399265629529,-111.76697695711889,124.76998754669987,104.0343001261034,-122.75571911676946,-22.79487179487179,-0.514170040485836,-14.248780487804886,-10.732394366197179,-13.981651376146804,-12.229629629629631,-7.391534391534388,8.97979797979798,11.35910375830856,40.88152116592709,39.11041595058002,2772.108613525779,69.79454602034157,1531.0597633324896,0
-19.714586747834222,63.29266844761055,-34.32399265629529,-111.76697695711889,124.76998754669987,104.0343001261034,-122.75571911676946,-21.16666666666666,-7.712550607287455,-47.70243902439025,-5.3661971830985875,-4.660550458715612,-0.9407407407407424,-2.0158730158730123,1.282828282828282,11.355980747450074,258.3541002826473,39.11041595058002,2772.108613525779,69.79454602034157,1531.0597633324896,0
-20.785062046359155,68.04244582962302,-33.34225529036622,-112.11582481306272,124.15317559153175,104.29054224464062,-121.44201312910286,-21.16666666666666,-7.712550607287455,-47.70243902439025,-5.3661971830985875,-4.660550458715612,-0.9407407407407424,-2.0158730158730123,1.282828282828282,11.355980747450074,258.3541002826473,40.7232543887828,3054.47781313576,71.16684197768399,1558.6402023042883,0
-20.785062046359155,68.04244582962302,-33.34225529036622,-112.11582481306272,124.15317559153175,104.29054224464062,-121.44201312910286,-22.79487179487179,-7.712550607287455,-27.878048780487813,-8.943661971830982,-20.9724770642202,-12.229629629629631,-6.047619047619044,-1.2828282828282838,13.482710897346898,87.08919211317951,40.7232543887828,3054.47781313576,71.16684197768399,1558.6402023042883,0
-20.785062046359155,68.04244582962302,-33.34225529036622,-112.11582481306272,124.15317559153175,104.29054224464062,-121.44201312910286,-11.397435897435892,14.910931174089061,-43.98536585365854,-1.7887323943661926,-2.330275229357815,-4.703703703703706,-14.111111111111107,6.4141414141414135,12.455212097232966,188.1300853320688,40.7232543887828,3054.47781313576,71.16684197768399,1558.6402023042883,0
-20.547178646686948,72.26447016918965,-32.38506135858537,-112.8135205249504,123.55217932752177,104.3546027742749,-119.92619852794911,-11.397435897435892,14.910931174089061,-43.98536585365854,-1.7887323943661926,-2.330275229357815,-4.703703703703706,-14.111111111111107,6.4141414141414135,12.455212097232966,188.1300853320688,41.73223672482066,3284.2770120008418,72.48768401757515,1617.2216292854955,0
-20.547178646686948,72.26447016918965,-32.38506135858537,-112.8135205249504,123.55217932752177,104.3546027742749,-119.92619852794911,-16.282051282051277,11.825910931174082,-24.160975609756104,-5.3661971830985875,-15.146788990825703,-15.992592592592594,-2.0158730158730123,8.97979797979798,12.471273448146167,49.019090988343585,41.73223672482066,3284.2770120008418,72.48768401757515,1617.2216292854955,0
-20.547178646686948,72.26447016918965,-32.38506135858537,-112.8135205249504,123.55217932752177,104.3546027742749,-119.92619852794911,-19.538461538461533,-3.599190283400816,-43.98536585365854,-8.943661971830982,-8.155963302752308,-6.585185185185187,-0.6719576719576683,16.676767676767675,13.51956918550184,190.80394994526827,41.73223672482066,3284.2770120008418,72.48768401757515,1617.2216292854955,0
-20.10114727230156,74.14930246363905,-32.1396270171031,-113.54997710972074,122.90373599003735,104.38663303909203,-118.30932962005176,-19.538461538461533,-3.599190283400816,-43.98536585365854,-8.943661971830982,-8.155963302752308,-6.585185185185187,-0.6719576719576683,16.676767676767675,13.51956918550184,190.80394994526827,42.1300255843479,3387.5681333592074,73.2796355301543,1657.4785159820399,0
-20.10114727230156,74.14930246363905,-32.1396270171031,-113.54997710972074,122.90373599003735,104.38663303909203,-118.30932962005176,-42.33333333333333,-36.50607287449393,-36.55121951219513,-12.521126760563376,-16.311926605504603,-15.992592592592594,-12.767195767195764,-6.414141414141415,22.424701107502518,188.66020545423822,42.1300255843479,3387.5681333592074,73.2796355301543,1657.4785159820399,0
-20.10114727230156,74.14930246363905,-32.1396270171031,-113.54997710972074,122.90373599003735,104.38663303909203,-118.30932962005176,-17.910256410256405,-14.910931174089074,-42.74634146341464,-14.309859154929573,-9.321100917431208,-14.111111111111114,-0.6719576719576683,8.97979797979798,15.370169485373458,150.32753265734559,42.1300255843479,3387.5681333592074,73.2796355301543,1657.4785159820399,0
-19.149613673612727,76.03413475808844,-32.55686539762296,-114.44147718602167,122.22366127023659,104.57881462799497,-116.99562363238516,-17.910256410256405,-14.910931174089074,-42.74634146341464,-14.309859154929573,-9.321100917431208,-14.111111111111114,-0.6719576719576683,8.97979797979798,15.370169485373458,150.32753265734559,42.580204609774704,3505.2842798530105,74.34415911391102,1678.414425192626,0
-19.149613673612727,76.03413475808844,-32.55686539762296,-114.44147718602167,122.22366127023659,104.57881462799497,-116.99562363238516,-24.42307692307692,4.627530364372463,-6.814634146341472,-16.09859154929577,-9.321100917431208,-8.466666666666669,0.6719576719576756,11.545454545454545,10.24612659807459,53.708020643504355,42.580204609774704,3505.2842798530105,74.34415911391102,1678.414425192626,0
-19.149613673612727,76.03413475808844,-32.55686539762296,-114.44147718602167,122.22366127023659,104.57881462799497,-116.99562363238516,-13.02564102564102,16.96761133603238,-9.292682926829276,4.440892098500626e-15,-6.990825688073411,-4.703703703703706,6.047619047619051,16.676767676767675,9.213106425583316,35.79360330119652,42.580204609774704,3505.2842798530105,74.34415911391102,1678.414425192626,0
-17.454694450948246,78.14514692787176,-33.415885592810895,-115.48802075385319,121.48032378580322,104.99520807061793,-116.08613487169288,-13.02564102564102,16.96761133603238,-9.292682926829276,4.440892098500626e-15,-6.990825688073411,-4.703703703703706,6.047619047619051,16.676767676767675,9.213106425583316,35.79360330119652,43.00524232387696,3639.9922119005723,75.68301775817862,1688.5054025092893,0
-17.454694450948246,78.14514692787176,-33.415885592810895,-115.48802075385319,121.48032378580322,104.99520807061793,-116.08613487169288,-19.538461538461533,-10.797570850202435,-17.965853658536595,-8.943661971830982,-20.9724770642202,-19.75555555555556,-0.6719576719576683,3.8484848484848477,12.811752894906228,61.9087195771586,43.00524232387696,3639.9922119005723,75.68301775817862,1688.5054025092893,0
-17.454694450948246,78.14514692787176,-33.415885592810895,-115.48802075385319,121.48032378580322,104.99520807061793,-116.08613487169288,-16.282051282051277,-9.769230769230775,-42.74634146341464,-1.7887323943661926,-3.4954128440367134,-8.466666666666669,0.6719576719576756,6.4141414141414135,11.20431681323317,187.45624377673448,43.00524232387696,3639.9922119005723,75.68301775817862,1688.5054025092893,0
-14.362210255209543,77.01424755120212,-31.722388636583243,-116.86403174118723,120.84769613947694,105.50769230769231,-115.88402625820572,-16.282051282051277,-9.769230769230775,-42.74634146341464,-1.7887323943661926,-3.4954128440367134,-8.466666666666669,0.6719576719576756,6.4141414141414135,11.20431681323317,187.45624377673448,41.03294881433164,3412.448147352473,75.20022264299087,1814.7428624136478,0
-14.362210255209543,77.01424755120212,-31.722388636583243,-116.86403174118723,120.84769613947694,105.50769230769231,-115.88402625820572,-30.93589743589743,-12.854251012145754,-25.400000000000006,-1.7887323943661926,4.66055045871558,-2.8222222222222237,-3.3597883597883564,8.97979797979798,11.350154982866691,123.08907945370207,41.03294881433164,3412.448147352473,75.20022264299087,1814.7428624136478,0
-14.362210255209543,77.01424755120212,-31.722388636583243,-116.86403174118723,120.84769613947694,105.50769230769231,-115.88402625820572,-11.397435897435892,22.109311740890682,16.726829268292676,-3.57746478873239,-13.981651376146804,-10.34814814814815,-2.0158730158730123,3.8484848484848477,10.500649885500556,50.09206045423554,41.03294881433164,3412.448147352473,75.20022264299087,1814.7428624136478,0
-13.826972605947073,72.49065004452359,-30.34795632428254,-118.18190141919732,120.32577833125777,105.8279949558638,-115.63139049134674,-11.397435897435892,22.109311740890682,16.726829268292676,-3.57746478873239,-13.981651376146804,-10.34814814814815,-2.0158730158730123,3.8484848484848477,10.500649885500556,50.09206045423554,38.888526324917734,3049.908973821468,73.67350259600114,1929.7498328530287,0
-13.826972605947073,72.49065004452359,-30.34795632428254,-118.18190141919732,120.32577833125777,105.8279949558638,-115.63139049134674,-30.93589743589743,-4.6275303643724754,-40.268292682926834,-5.3661971830985875,-1.1651376146789154,-2.8222222222222237,-6.047619047619044,8.97979797979798,12.526586816326686,214.28359842048647,38.888526324917734,3049.908973821468,73.67350259600114,1929.7498328530287,0
-13.826972605947073,72.49065004452359,-30.34795632428254,-118.18190141919732,120.32577833125777,105.8279949558638,-115.63139049134674,-24.42307692307692,-19.024291497975714,-46.463414634146346,-10.732394366197179,-17.4770642201835,-14.111111111111114,-8.735449735449732,8.97979797979798,18.74332505849231,154.7802502979025,38.888526324917734,3049.908973821468,73.67350259600114,1929.7498328530287,0
-16.116600327792074,67.06233303650933,-29.169871485167647,-119.22844498702884,119.97783312577832,105.79596469104666,-115.12611895762882,-24.42307692307692,-19.024291497975714,-46.463414634146346,-10.732394366197179,-17.4770642201835,-14.111111111111114,-8.735449735449732,8.97979797979798,18.74332505849231,154.7802502979025,37.44960161648968,2724.960005105456,71.82021650290194,2044.6147566073628,0
-16.116600327792074,67.06233303650933,-29.169871485167647,-119.22844498702884,119.97783312577832,105.79596469104666,-115.12611895762882,-27.679487179487175,-8.740890688259114,-25.400000000000006,-7.1549295774647845,-18.642201834862398,-10.34814814814815,0.6719576719576756,8.97979797979798,13.452176634997162,89.56084375247399,37.44960161648968,2724.960005105456,71.82021650290194,2044.6147566073628,0
-16.116600327792074,67.06233303650933,-29.169871485167647,-119.22844498702884,119.97783312577832,105.79596469104666,-115.12611895762882,-3.256410256410252,16.96761133603238,-20.4439024390244,-7.1549295774647845,-8.155963302752308,-10.34814814814815,-8.735449735449732,14.11111111111111,11.146690738299139,31.813705349117516,37.44960161648968,2724.960005105456,71.82021650290194,2044.6147566073628,0
-19.000936548817595,60.50311665182546,-29.75891390472509,-119.9067602624752,119.72478206724782,105.50769230769231,-114.21663019693659,-3.256410256410252,16.96761133603238,-20.4439024390244,-7.1549295774647845,-8.155963302752308,-10.34814814814815,-8.735449735449732,14.11111111111111,11.146690738299139,31.813705349117516,36.420989035122716,2430.6437853854272,70.05626360634191,2100.10551328607,0
-19.000936548817595,60.50311665182546,-29.75891390472509,-119.9067602624752,119.72478206724782,105.50769230769231,-114.21663019693659,-17.910256410256405,-2.570850202429156,-27.878048780487813,-14.309859154929573,-24.467889908256893,-17.874074074074077,-7.391534391534388,3.8484848484848477,14.531374721306644,86.80902783081744,36.420989035122716,2430.6437853854272,70.05626360634191,2100.10551328607,0
-19.000936548817595,60.50311665182546,-29.75891390472509,-119.9067602624752,119.72478206724782,105.50769230769231,-114.21663019693659,-34.192307692307686,-19.024291497975714,-36.55121951219513,-16.09859154929577,-13.981651376146804,-14.111111111111114,-0.6719576719576683,-1.2828282828282838,16.989244836727273,173.40365093676715,36.420989035122716,2430.6437853854272,70.05626360634191,2100.10551328607,0
-20.279559822055713,57.41199168892845,-29.562566431539278,-120.52693422859758,119.6140722291407,105.05926860025221,-113.30714143624431,-34.192307692307686,-19.024291497975714,-36.55121951219513,-16.09859154929577,-13.981651376146804,-14.111111111111114,-0.6719576719576683,-1.2828282828282838,16.989244836727273,173.40365093676715,35.751372647507814,2281.120858024374,69.1671641163551,2172.2671112785233,0
-20.279559822055713,57.41199168892845,-29.562566431539278,-120.52693422859758,119.6140722291407,105.05926860025221,-113.30714143624431,-24.42307692307692,-23.137651821862352,-50.180487804878055,-7.1549295774647845,-15.146788990825703,-14.111111111111114,-6.047619047619044,6.4141414141414135,18.326975836372423,217.1930321581257,35.751372647507814,2281.120858024374,69.1671641163551,2172.2671112785233,0
-20.279559822055713,57.41199168892845,-29.562566431539278,-120.52693422859758,119.6140722291407,105.05926860025221,-113.30714143624431,-26.051282051282044,-15.939271255060735,-58.85365853658537,-14.309859154929573,-13.981651376146804,-12.229629629629631,-8.735449735449732,1.282828282828282,18.92295375273902,308.5190819388832,35.751372647507814,2281.120858024374,69.1671641163551,2172.2671112785233,0
-18.435963474596104,55.527159394479064,-29.955261377910908,-121.14710819471998,119.50336239103362,104.9311475409836,-113.05450566938532,-26.051282051282044,-15.939271255060735,-58.85365853658537,-14.309859154929573,-13.981651376146804,-12.229629629629631,-8.735449735449732,1.282828282828282,18.92295375273902,308.5190819388832,34.639461415662026,2151.747004973192,68.87650965570332,2212.642095762729,0
-18.435963474596104,55.527159394479064,-29.955261377910908,-121.14710819471998,119.50336239103362,104.9311475409836,-113.05450566938532,-26.051282051282044,3.5991902834008034,-21.6829268292683,-10.732394366197179,-10.486238532110107,-10.34814814814815,-0.6719576719576683,3.8484848484848477,10.927577841356136,79.13844906937605,34.639461415662026,2151.747004973192,68.87650965570332,2212.642095762729,0
-18.435963474596104,55.527159394479064,-29.955261377910908,-121.14710819471998,119.50336239103362,104.9311475409836,-113.05450566938532,-21.16666666666666,-6.684210526315796,-26.63902439024391,-14.309859154929573,-6.990825688073411,-2.8222222222222237,-4.703703703703701,6.4141414141414135,11.216331720787085,74.39571145077362,34.639461415662026,2151.747004973192,68.87650965570332,2212.642095762729,0
-18.257550924841947,53.64232710002967,-29.78345733887332,-121.59285823287044,119.3926525529265,104.89911727616646,-112.95345136264177,-21.16666666666666,-6.684210526315796,-26.63902439024391,-14.309859154929573,-6.990825688073411,-2.8222222222222237,-4.703703703703701,6.4141414141414135,11.216331720787085,74.39571145077362,33.89444512124831,2043.716747983789,68.3395475572578,2269.247740004944,0
-18.257550924841947,53.64232710002967,-29.78345733887332,-121.59285823287044,119.3926525529265,104.89911727616646,-112.95345136264177,-11.397435897435892,0.5141700404858236,-31.595121951219518,-3.57746478873239,-10.486238532110107,-6.585185185185187,-7.391534391534388,11.545454545454545,10.386575666519732,88.48949035441635,33.89444512124831,2043.716747983789,68.3395475572578,2269.247740004944,0
-18.257550924841947,53.64232710002967,-29.78345733887332,-121.59285823287044,119.3926525529265,104.89911727616646,-112.95345136264177,-34.192307692307686,-45.76113360323887,-32.83414634146342,-3.57746478873239,-9.321100917431208,-17.874074074074077,-6.047619047619044,6.4141414141414135,19.50274848487601,256.4710627279515,33.89444512124831,2043.716747983789,68.3395475572578,2269.247740004944,0
-21.55818309529383,55.60255268625704,-29.047154314426514,-121.96108652525561,119.37683686176837,104.51475409836064,-112.34712552218025,-34.192307692307686,-45.76113360323887,-32.83414634146342,-3.57746478873239,-9.321100917431208,-17.874074074074077,-6.047619047619044,6.4141414141414135,19.50274848487601,256.4710627279515,35.40263003199246,2195.9061219288133,68.87026450864639,2290.2738324711136,0
-21.55818309529383,55.60255268625704,-29.047154314426514,-121.96108652525561,119.37683686176837,104.51475409836064,-112.34712552218025,4.88461538461539,24.165991902834,-22.921951219512202,-12.521126760563376,-1.1651376146789154,-8.466666666666669,-10.079365079365076,19.242424242424242,12.930909858832484,71.04116259762694,35.40263003199246,2195.9061219288133,68.87026450864639,2290.2738324711136,0
-21.55818309529383,55.60255268625704,-29.047154314426514,-121.96108652525561,119.37683686176837,104.51475409836064,-112.34712552218025,-17.910256410256405,5.655870445344123,-51.41951219512195,-12.521126760563376,-11.651376146789007,-2.8222222222222237,2.0158730158730194,6.4141414141414135,13.80129732628894,259.80414289818503,35.40263003199246,2195.9061219288133,68.87026450864639,2290.2738324711136,0
-23.28283774291734,57.33659839715048,-28.605372499758428,-122.32931481764078,119.40846824408467,103.9061790668348,-111.4881639148598,-17.910256410256405,5.655870445344123,-51.41951219512195,-12.521126760563376,-11.651376146789007,-2.8222222222222237,2.0158730158730194,6.4141414141414135,13.80129732628894,259.80414289818503,36.40826954660875,2318.9742035708987,69.4237619048499,2305.6189821478297,0
-23.28283774291734,57.33659839715048,-28.605372499758428,-122.32931481764078,119.40846824408467,103.9061790668348,-111.4881639148598,-17.910256410256405,-1.542510121457496,-34.07317073170732,-5.3661971830985875,-15.146788990825703,-10.34814814814815,-0.6719576719576683,6.4141414141414135,11.434146333949093,120.73116614410525,36.40826954660875,2318.9742035708987,69.4237619048499,2305.6189821478297,0
-23.28283774291734,57.33659839715048,-28.605372499758428,-122.32931481764078,119.40846824408467,103.9061790668348,-111.4881639148598,-27.679487179487175,-8.740890688259114,-36.55121951219513,-10.732394366197179,-16.311926605504603,-14.111111111111114,-3.3597883597883564,3.8484848484848477,15.16691283387844,134.96465396358454,36.40826954660875,2318.9742035708987,69.4237619048499,2305.6189821478297,0
-22.83680636853195,57.03502523003858,-27.991786646052756,-122.89134747443919,119.51917808219176,103.1374527112232,-110.57867515416751,-27.679487179487175,-8.740890688259114,-36.55121951219513,-10.732394366197179,-16.311926605504603,-14.111111111111114,-3.3597883597883564,3.8484848484848477,15.16691283387844,134.96465396358454,35.954539414874425,2272.6070070640444,69.3060531168435,2364.415255404212,0
-22.83680636853195,57.03502523003858,-27.991786646052756,-122.89134747443919,119.51917808219176,103.1374527112232,-110.57867515416751,-26.051282051282044,-8.740890688259114,-31.595121951219518,-17.88732394366197,-9.321100917431208,-8.466666666666669,-3.3597883597883564,1.282828282828282,13.338125357642145,117.36243486446354,35.954539414874425,2272.6070070640444,69.3060531168435,2364.415255404212,0
-22.83680636853195,57.03502523003858,-27.991786646052756,-122.89134747443919,119.51917808219176,103.1374527112232,-110.57867515416751,-14.653846153846148,-5.655870445344135,-40.268292682926834,-8.943661971830982,-13.981651376146804,-8.466666666666669,3.3597883597883635,11.545454545454545,13.35940402525056,133.17369621608213,35.954539414874425,2272.6070070640444,69.3060531168435,2364.415255404212,0
-20.69585577148208,58.919857524487966,-28.82626340709247,-123.72470624141614,119.50336239103362,102.46481715006303,-109.71971354684706,-14.653846153846148,-5.655870445344135,-40.268292682926834,-8.943661971830982,-13.981651376146804,-8.466666666666669,3.3597883597883635,11.545454545454545,13.35940402525056,133.17369621608213,36.1473255676875,2350.6911784144722,70.4902757243322,2351.8345460843143,0
-20.69585577148208,58.919857524487966,-28.82626340709247,-123.72470624141614,119.50336239103362,102.46481715006303,-109.71971354684706,-29.307692307692303,3.5991902834008034,-31.595121951219518,-1.7887323943661926,-4.660550458715612,-4.703703703703706,-0.6719576719576683,11.545454545454545,10.984050414563795,155.10657037095422,36.1473255676875,2350.6911784144722,70.4902757243322,2351.8345460843143,0
-20.69585577148208,58.919857524487966,-28.82626340709247,-123.72470624141614,119.50336239103362,102.46481715006303,-109.71971354684706,-11.397435897435892,1.5425101214574832,-46.463414634146346,-16.09859154929577,-4.660550458715612,-4.703703703703706,-3.3597883597883564,8.97979797979798,12.150724088042644,214.99202480396096,36.1473255676875,2350.6911784144722,70.4902757243322,2351.8345460843143,0
-16.443690002341363,59.67379044226772,-29.14532805101942,-124.790630245689,119.3293897882939,102.14451450189154,-109.21444201312914,-11.397435897435892,1.5425101214574832,-46.463414634146346,-16.09859154929577,-4.660550458715612,-4.703703703703706,-3.3597883597883564,8.97979797979798,12.150724088042644,214.99202480396096,35.08760283187617,2307.3397080466093,71.20324957965872,2386.702278977993,0
-16.443690002341363,59.67379044226772,-29.14532805101942,-124.790630245689,119.3293897882939,102.14451450189154,-109.21444201312914,-32.564102564102555,-26.22267206477733,-37.79024390243903,-1.7887323943661926,-12.816513761467906,-6.585185185185187,2.0158730158730194,1.282828282828282,15.133268896379938,222.93740931800474,35.08760283187617,2307.3397080466093,71.20324957965872,2386.702278977993,0
-16.443690002341363,59.67379044226772,-29.14532805101942,-124.790630245689,119.3293897882939,102.14451450189154,-109.21444201312914,-14.653846153846148,3.5991902834008034,-31.595121951219518,-12.521126760563376,-25.633027522935794,-14.111111111111114,-7.391534391534388,8.97979797979798,14.81059451930114,88.47673619185016,35.08760283187617,2307.3397080466093,71.20324957965872,2386.702278977993,0
-15.432685553734478,58.16592460670821,-30.15160885109672,-125.64336944910728,118.98144458281442,102.08045397225726,-108.6586433260394,-14.653846153846148,3.5991902834008034,-31.595121951219518,-12.521126760563376,-25.633027522935794,-14.111111111111114,-7.391534391534388,8.97979797979798,14.81059451930114,88.47673619185016,34.5834063371798,2238.8981394421576,71.32030096897073,2409.4472986369788,0
-15.432685553734478,58.16592460670821,-30.15160885109672,-125.64336944910728,118.98144458281442,102.08045397225726,-108.6586433260394,-32.564102564102555,-23.137651821862352,-32.83414634146342,-7.1549295774647845,-5.825688073394511,-10.34814814814815,-6.047619047619044,6.4141414141414135,15.540803373524529,144.52157896572396,34.5834063371798,2238.8981394421576,71.32030096897073,2409.4472986369788,0
-15.432685553734478,58.16592460670821,-30.15160885109672,-125.64336944910728,118.98144458281442,102.08045397225726,-108.6586433260394,-13.02564102564102,-1.542510121457496,-19.204878048780493,-14.309859154929573,-16.311926605504603,-14.111111111111114,-3.3597883597883564,16.676767676767675,12.317810262997542,40.9176626350569,34.5834063371798,2238.8981394421576,71.32030096897073,2409.4472986369788,0
-17.424959025989217,55.451766102701086,-30.593390665764804,-126.24416297878835,118.63349937733497,101.88827238335438,-107.64810025860356,-13.02564102564102,-1.542510121457496,-19.204878048780493,-14.309859154929573,-16.311926605504603,-14.111111111111114,-3.3597883597883564,16.676767676767675,12.317810262997542,40.9176626350569,34.490038598151706,2148.032276773999,70.76310658241809,2463.0954214838334,0
-17.424959025989217,55.451766102701086,-30.593390665764804,-126.24416297878835,118.63349937733497,101.88827238335438,-107.64810025860356,-13.02564102564102,-11.825910931174095,-29.117073170731715,-14.309859154929573,-15.146788990825703,-10.34814814814815,-7.391534391534388,6.4141414141414135,13.447387153390757,49.67473144137456,34.490038598151706,2148.032276773999,70.76310658241809,2463.0954214838334,0
-17.424959025989217,55.451766102701086,-30.593390665764804,-126.24416297878835,118.63349937733497,101.88827238335438,-107.64810025860356,-24.42307692307692,-15.939271255060735,-30.356097560975616,-5.3661971830985875,-5.825688073394511,-2.8222222222222237,-3.3597883597883564,8.97979797979798,12.134017444676866,108.11275435302456,34.490038598151706,2148.032276773999,70.76310658241809,2463.0954214838334,0
-18.644111449309285,53.34075393291777,-31.157889651174024,-126.67053258049748,118.34881693648816,101.69609079445144,-106.6880843445395,-24.42307692307692,-15.939271255060735,-30.356097560975616,-5.3661971830985875,-5.825688073394511,-2.8222222222222237,-3.3597883597883564,8.97979797979798,12.134017444676866,108.11275435302456,34.38091834446703,2079.7393760890322,70.38972538819642,2498.66681059829,0
-18.644111449309285,53.34075393291777,-31.157889651174024,-126.67053258049748,118.34881693648816,101.69609079445144,-106.6880843445395,-9.769230769230763,17.99595141700404,-40.268292682926834,-7.1549295774647845,-8.155963302752308,-14.111111111111114,-4.703703703703701,1.282828282828282,12.93025135587773,149.12900288485676,34.38091834446703,2079.7393760890322,70.38972538819642,2498.66681059829,0
-18.644111449309285,53.34075393291777,-31.157889651174024,-126.67053258049748,118.34881693648816,101.69609079445144,-106.6880843445395,-43.96153846153845,-16.967611336032395,-58.85365853658537,-7.1549295774647845,-11.651376146789007,-14.111111111111114,-10.079365079365076,-1.2828282828282838,20.50780231646431,401.28863766520755,34.38091834446703,2079.7393760890322,70.38972538819642,2498.66681059829,0
-18.46569889955513,50.928168596022545,-30.765194704802393,-126.96123912711735,118.1432129514321,101.6640605296343,-106.23333996419336,-43.96153846153845,-16.967611336032395,-58.85365853658537,-7.1549295774647845,-11.651376146789007,-14.111111111111114,-10.079365079365076,-1.2828282828282838,20.50780231646431,401.28863766520755,33.38635406679335,1940.0986750762763,69.55153414264743,2573.5420488374093,0
-18.46569889955513,50.928168596022545,-30.765194704802393,-126.96123912711735,118.1432129514321,101.6640605296343,-106.23333996419336,-14.653846153846148,3.5991902834008034,-15.487804878048788,-10.732394366197179,-16.311926605504603,-14.111111111111114,-10.079365079365076,14.11111111111111,12.385843698573103,17.341748161669546,33.38635406679335,1940.0986750762763,69.55153414264743,2573.5420488374093,0
-18.46569889955513,50.928168596022545,-30.765194704802393,-126.96123912711735,118.1432129514321,101.6640605296343,-106.23333996419336,-26.051282051282044,-6.684210526315796,-21.6829268292683,-19.676056338028165,-22.137614678899098,-8.466666666666669,-4.703703703703701,3.8484848484848477,14.156368205331077,82.30235456200855,33.38635406679335,1940.0986750762763,69.55153414264743,2573.5420488374093,0
-20.190353547178635,48.66636984268328,-30.667020968209485,-127.0,118.00087173100871,101.60000000000002,-105.67754127710367,-26.051282051282044,-6.684210526315796,-21.6829268292683,-19.676056338028165,-22.137614678899098,-8.466666666666669,-4.703703703703701,3.8484848484848477,14.156368205331077,82.30235456200855,33.17458145269047,1857.4659689654488,68.77779693696425,2623.362837111282,0
-20.190353547178635,48.66636984268328,-30.667020968209485,-127.0,118.00087173100871,101.60000000000002,-105.67754127710367,-21.16666666666666,-17.995951417004054,-32.83414634146342,-5.3661971830985875,-12.816513761467906,-10.34814814814815,-4.703703703703701,3.8484848484848477,13.634976508754665,99.9630667803311,33.17458145269047,1857.4659689654488,68.77779693696425,2623.362837111282,0
-20.190353547178635,48.66636984268328,-30.667020968209485,-127.0,118.00087173100871,101.60000000000002,-105.67754127710367,-11.397435897435892,-4.6275303643724754,-22.921951219512202,-1.7887323943661926,2.330275229357781,0.9407407407407398,8.73544973544974,14.11111111111111,8.356653336543266,57.572638336709154,33.17458145269047,1857.4659689654488,68.77779693696425,2623.362837111282,0
-21.35003512058065,48.06322350845947,-30.56884723161658,-126.9224782542347,117.93760896637608,101.50390920554855,-105.22279689675753,-11.397435897435892,-4.6275303643724754,-22.921951219512202,-1.7887323943661926,2.330275229357781,0.9407407407407398,8.73544973544974,14.11111111111111,8.356653336543266,57.572638336709154,33.3273686202189,1847.698253185487,68.5181829981036,2634.8095786029457,0
-21.35003512058065,48.06322350845947,-30.56884723161658,-126.9224782542347,117.93760896637608,101.50390920554855,-105.22279689675753,-17.910256410256405,-3.599190283400816,-0.6195121951219598,-3.57746478873239,-9.321100917431208,-2.8222222222222237,0.6719576719576756,11.545454545454545,6.258394879322154,37.45290881231116,33.3273686202189,1847.698253185487,68.5181829981036,2634.8095786029457,0
-21.35003512058065,48.06322350845947,-30.56884723161658,-126.9224782542347,117.93760896637608,101.50390920554855,-105.22279689675753,-34.192307692307686,-15.939271255060735,5.575609756097556,-3.57746478873239,-22.137614678899098,-21.63703703703704,-11.42328042328042,-3.8484848484848495,14.791383809987472,117.18817121304623,33.3273686202189,1847.698253185487,68.5181829981036,2634.8095786029457,0
-20.874268321236233,44.896705253784496,-30.07797854865204,-126.80619563558676,118.00087173100871,101.47187894073141,-105.2733240501293,-34.192307692307686,-15.939271255060735,5.575609756097556,-3.57746478873239,-22.137614678899098,-21.63703703703704,-11.42328042328042,-3.8484848484848495,14.791383809987472,117.18817121304623,31.949650707890925,1671.9554097052758,67.26029314600777,2714.184542764189,0
-20.874268321236233,44.896705253784496,-30.07797854865204,-126.80619563558676,118.00087173100871,101.47187894073141,-105.2733240501293,-30.93589743589743,-7.712550607287455,-21.6829268292683,-8.943661971830982,-11.651376146789007,-14.111111111111114,-4.703703703703701,8.97979797979798,13.590128223210744,75.251219227421,31.949650707890925,1671.9554097052758,67.26029314600777,2714.184542764189,0
-20.874268321236233,44.896705253784496,-30.07797854865204,-126.80619563558676,118.00087173100871,101.47187894073141,-105.2733240501293,-16.282051282051277,12.854251012145742,-41.50731707317074,-7.1549295774647845,-11.651376146789007,-14.111111111111114,-0.6719576719576683,3.8484848484848477,13.510184840396898,156.33242588261365,31.949650707890925,1671.9554097052758,67.26029314600777,2714.184542764189,0
-19.030671973776624,40.14692787177203,-30.519760363320124,-126.63177170761483,118.1115815691158,101.72812105926857,-106.03123135070621,-16.282051282051277,12.854251012145742,-41.50731707317074,-7.1549295774647845,-11.651376146789007,-14.111111111111114,-0.6719576719576683,3.8484848484848477,13.510184840396898,156.33242588261365,29.899120069622928,1437.9613836030558,65.76615331423567,2801.6382153652908,0
-19.030671973776624,40.14692787177203,-30.519760363320124,-126.63177170761483,118.1115815691158,101.72812105926857,-106.03123135070621,-13.02564102564102,0.5141700404858236,-40.268292682926834,-1.7887323943661926,-6.990825688073411,-12.229629629629631,-8.735449735449732,8.97979797979798,11.566567397046327,154.25187740715484,29.899120069622928,1437.9613836030558,65.76615331423567,2801.6382153652908,0
-19.030671973776624,40.14692787177203,-30.519760363320124,-126.63177170761483,118.1115815691158,101.72812105926857,-106.03123135070621,-8.141025641025635,13.882591093117401,-19.204878048780493,-12.521126760563376,-15.146788990825703,-10.34814814814815,-3.3597883597883564,11.545454545454545,11.768725198462958,22.525790443716833,29.899120069622928,1437.9613836030558,65.76615331423567,2801.6382153652908,0
-19.625380472957143,39.46838824577025,-30.617934099913032,-126.34106516099496,118.19066002490658,101.98436317780579,-106.5870300377959,-8.141025641025635,13.882591093117401,-19.204878048780493,-12.521126760563376,-15.146788990825703,-10.34814814814815,-3.3597883597883564,11.545454545454545,11.768725198462958,22.525790443716833,29.903900939546805,1420.8337194278283,65.47579583555942,2798.0183921903345,0
-19.625380472957143,39.46838824577025,-30.617934099913032,-126.34106516099496,118.19066002490658,101.98436317780579,-106.5870300377959,-14.653846153846148,15.93927125506072,-42.74634146341464,-17.88732394366197,-11.651376146789007,-12.229629629629631,-0.6719576719576683,11.545454545454545,15.915650101226792,144.0865358891195,29.903900939546805,1420.8337194278283,65.47579583555942,2798.0183921903345,0
-19.625380472957143,39.46838824577025,-30.617934099913032,-126.34106516099496,118.19066002490658,101.98436317780579,-106.5870300377959,-14.653846153846148,23.13765182186234,-13.009756097560985,3.5774647887323994,-8.155963302752308,-4.703703703703706,-4.703703703703701,16.676767676767675,11.077357156116157,48.47991272212874,29.903900939546805,1420.8337194278283,65.47579583555942,2798.0183921903345,0
-20.487707796768895,39.845354704660124,-31.059715914581115,-126.03097817793378,118.22229140722291,102.08045397225726,-106.63755719116773,-14.653846153846148,23.13765182186234,-13.009756097560985,3.5774647887323994,-8.155963302752308,-4.703703703703706,-4.703703703703701,16.676767676767675,11.077357156116157,48.47991272212874,30.464259472003377,1463.2291376606695,65.64534959905833,2754.1149663868587,0
-20.487707796768895,39.845354704660124,-31.059715914581115,-126.03097817793378,118.22229140722291,102.08045397225726,-106.63755719116773,-19.538461538461533,-10.797570850202435,-115.84878048780489,-17.88732394366197,-6.990825688073411,-6.585185185185187,-4.703703703703701,6.4141414141414135,23.595749101404316,1420.094665002551,30.464259472003377,1463.2291376606695,65.64534959905833,2754.1149663868587,0
-20.487707796768895,39.845354704660124,-31.059715914581115,-126.03097817793378,118.22229140722291,102.08045397225726,-106.63755719116773,-27.679487179487175,-4.6275303643724754,-29.117073170731715,-7.1549295774647845,-10.486238532110107,-12.229629629629631,-4.703703703703701,6.4141414141414135,12.801591696455127,99.7585847745549,30.464259472003377,1463.2291376606695,65.64534959905833,2754.1149663868587,0
-21.2905642706626,40.07153457999405,-31.403323992656293,-125.68213032198993,118.23810709838105,102.1124842370744,-106.53650288442412,-27.679487179487175,-4.6275303643724754,-29.117073170731715,-7.1549295774647845,-10.486238532110107,-12.229629629629631,-4.703703703703701,6.4141414141414135,12.801591696455127,99.7585847745549,30.92180761443765,1496.0384154221508,65.71899629821343,2715.467550161646,0
-21.2905642706626,40.07153457999405,-31.403323992656293,-125.68213032198993,118.23810709838105,102.1124842370744,-106.53650288442412,-21.16666666666666,-12.854251012145754,-40.268292682926834,-21.46478873239436,-22.137614678899098,-10.34814814814815,-6.047619047619044,3.8484848484848477,17.266983227160594,136.98358645577443,30.92180761443765,1496.0384154221508,65.71899629821343,2715.467550161646,0
-21.2905642706626,40.07153457999405,-31.403323992656293,-125.68213032198993,118.23810709838105,102.1124842370744,-106.53650288442412,-22.79487179487179,-3.599190283400816,-37.79024390243903,-14.309859154929573,-10.486238532110107,-4.703703703703706,-7.391534391534388,3.8484848484848477,13.115515826434281,141.54750775824786,30.92180761443765,1496.0384154221508,65.71899629821343,2715.467550161646,0
-22.53945211894169,40.222321163550006,-31.967822978065513,-125.25576072028079,118.23810709838105,102.04842370744012,-106.08175850407798,-22.79487179487179,-3.599190283400816,-37.79024390243903,-14.309859154929573,-10.486238532110107,-4.703703703703706,-7.391534391534388,3.8484848484848477,13.115515826434281,141.54750775824786,31.5765320868524,1539.8918789678814,65.8153016206321,2666.910318556298,0
-22.53945211894169,40.222321163550006,-31.967822978065513,-125.25576072028079,118.23810709838105,102.04842370744012,-106.08175850407798,-24.42307692307692,-2.570850202429156,-3.0975609756097633,-7.1549295774647845,-23.302752293577996,-14.111111111111114,-2.0158730158730123,6.4141414141414135,10.38628693916052,84.03298324172273,31.5765320868524,1539.8918789678814,65.8153016206321,2666.910318556298,0
-22.53945211894169,40.222321163550006,-31.967822978065513,-125.25576072028079,118.23810709838105,102.04842370744012,-106.08175850407798,-27.679487179487175,-14.910931174089074,-3.0975609756097633,3.5774647887323994,-6.990825688073411,-12.229629629629631,-3.3597883597883564,1.282828282828282,9.14106450977976,79.11140646273596,31.5765320868524,1539.8918789678814,65.8153016206321,2666.910318556298,0
-21.94474361976117,40.900860789551786,-32.70412600251232,-124.8681519914543,118.17484433374844,102.1124842370744,-105.77859558384722,-27.679487179487175,-14.910931174089074,-3.0975609756097633,3.5774647887323994,-6.990825688073411,-12.229629629629631,-3.3597883597883564,1.282828282828282,9.14106450977976,79.11140646273596,31.84991013727509,1580.5047305816736,66.15771292783947,2601.9833565740882,0
-21.94474361976117,40.900860789551786,-32.70412600251232,-124.8681519914543,118.17484433374844,102.1124842370744,-105.77859558384722,-29.307692307692303,-9.769230769230775,-5.575609756097567,1.7887323943662015,-6.990825688073411,-2.8222222222222237,-11.42328042328042,8.97979797979798,9.58217394259511,74.58370224087503,31.84991013727509,1580.5047305816736,66.15771292783947,2601.9833565740882,0
-21.94474361976117,40.900860789551786,-32.70412600251232,-124.8681519914543,118.17484433374844,102.1124842370744,-105.77859558384722,-26.051282051282044,13.882591093117401,-0.6195121951219598,-12.521126760563376,-13.981651376146804,-15.992592592592594,-7.391534391534388,-1.2828282828282838,11.465389842898356,69.20667868461064,31.84991013727509,1580.5047305816736,66.15771292783947,2601.9833565740882,0
-20.69585577148208,41.35322054021964,-33.48951589525558,-124.46116282618648,118.00087173100871,102.36872635561161,-105.47543266361652,-26.051282051282044,13.882591093117401,-0.6195121951219598,-12.521126760563376,-13.981651376146804,-15.992592592592594,-7.391534391534388,-1.2828282828282838,11.465389842898356,69.20667868461064,31.846197402319103,1602.5334679413372,66.43463308722056,2540.768077846129,0
-20.69585577148208,41.35322054021964,-33.48951589525558,-124.46116282618648,118.00087173100871,102.36872635561161,-105.47543266361652,-17.910256410256405,-7.712550607287455,-39.029268292682936,-5.3661971830985875,-4.660550458715612,-6.585185185185187,-0.6719576719576683,8.97979797979798,11.36447047362273,149.32925106096891,31.846197402319103,1602.5334679413372,66.43463308722056,2540.768077846129,0
-20.69585577148208,41.35322054021964,-33.48951589525558,-124.46116282618648,118.00087173100871,102.36872635561161,-105.47543266361652,-35.82051282051282,-37.53441295546559,-45.22439024390245,-16.09859154929577,-12.816513761467906,-12.229629629629631,-3.3597883597883564,3.8484848484848477,20.866540521068423,264.71102717543675,31.846197402319103,1602.5334679413372,66.43463308722056,2540.768077846129,0
-22.182627019433376,41.65479370733154,-32.85138660740168,-123.93789104227072,117.82689912826896,102.49684741488022,-104.869106823155,-35.82051282051282,-37.53441295546559,-45.22439024390245,-16.09859154929577,-12.816513761467906,-12.229629629629631,-3.3597883597883564,3.8484848484848477,20.866540521068423,264.71102717543675,32.2296024447222,1623.3682702139,66.14802378566797,2524.126562293598,0
-22.182627019433376,41.65479370733154,-32.85138660740168,-123.93789104227072,117.82689912826896,102.49684741488022,-104.869106823155,-22.79487179487179,-5.655870445344135,0.619512195121942,-7.1549295774647845,-13.981651376146804,-12.229629629629631,-2.0158730158730123,6.4141414141414135,8.858309931074189,52.23857067950782,32.2296024447222,1623.3682702139,66.14802378566797,2524.126562293598,0
-22.182627019433376,41.65479370733154,-32.85138660740168,-123.93789104227072,117.82689912826896,102.49684741488022,-104.869106823155,-11.397435897435892,-4.6275303643724754,-29.117073170731715,-3.57746478873239,-9.321100917431208,-6.585185185185187,-4.703703703703701,11.545454545454545,10.109368571630888,68.57043696379995,32.2296024447222,1623.3682702139,66.14802378566797,2524.126562293598,0
-24.977756965581822,43.76580587711486,-32.16417045125132,-123.41461925835495,117.76363636363635,102.20857503152587,-103.75750944897555,-11.397435897435892,-4.6275303643724754,-29.117073170731715,-3.57746478873239,-9.321100917431208,-6.585185185185187,-4.703703703703701,11.545454545454545,10.109368571630888,68.57043696379995,33.635911097982664,1757.1138793868417,66.44819852890704,2467.529304182017,0
-24.977756965581822,43.76580587711486,-32.16417045125132,-123.41461925835495,117.76363636363635,102.20857503152587,-103.75750944897555,-26.051282051282044,-13.882591093117414,-27.878048780487813,-5.3661971830985875,-12.816513761467906,-8.466666666666669,-3.3597883597883564,6.4141414141414135,13.029403663756273,86.80446952428237,33.635911097982664,1757.1138793868417,66.44819852890704,2467.529304182017,0
-24.977756965581822,43.76580587711486,-32.16417045125132,-123.41461925835495,117.76363636363635,102.20857503152587,-103.75750944897555,-8.141025641025635,-0.514170040485836,-32.83414634146342,-8.943661971830982,-16.311926605504603,-15.992592592592594,-6.047619047619044,11.545454545454545,12.541324598247083,94.00650393584299,33.635911097982664,1757.1138793868417,66.44819852890704,2467.529304182017,0
-25.542730039803313,46.178391214010084,-31.378780558508065,-123.10453227529376,117.77945205479452,101.69609079445144,-102.54485776805257,-8.141025641025635,-0.514170040485836,-32.83414634146342,-8.943661971830982,-16.311926605504603,-15.992592592592594,-6.047619047619044,11.545454545454545,12.541324598247083,94.00650393584299,34.36663393744049,1865.5156021521607,66.88723468260396,2425.0455303573963,0
-25.542730039803313,46.178391214010084,-31.378780558508065,-123.10453227529376,117.77945205479452,101.69609079445144,-102.54485776805257,-13.02564102564102,12.854251012145742,-36.55121951219513,-3.57746478873239,-3.4954128440367134,-8.466666666666669,-3.3597883597883564,8.97979797979798,11.2887802736255,120.00340282872733,34.36663393744049,1865.5156021521607,66.88723468260396,2425.0455303573963,0
-25.542730039803313,46.178391214010084,-31.378780558508065,-123.10453227529376,117.77945205479452,101.69609079445144,-102.54485776805257,-6.5128205128205074,33.42105263157894,-17.965853658536595,-10.732394366197179,-11.651376146789007,-6.585185185185187,3.3597883597883635,11.545454545454545,12.72174067579379,89.47188835574593,34.36663393744049,1865.5156021521607,66.88723468260396,2425.0455303573963,0
-23.372044017794416,47.38468388245769,-31.599671465842107,-122.91072791088052,117.70037359900371,101.43984867591428,-101.68589616073206,-6.5128205128205074,33.42105263157894,-17.965853658536595,-10.732394366197179,-11.651376146789007,-6.585185185185187,3.3597883597883635,11.545454545454545,12.72174067579379,89.47188835574593,34.11879978869808,1885.4561310601132,67.29836108639344,2381.843162114161,0
-23.372044017794416,47.38468388245769,-31.599671465842107,-122.91072791088052,117.70037359900371,101.43984867591428,-101.68589616073206,-24.42307692307692,-26.22267206477733,-68.7658536585366,-10.732394366197179,-8.155963302752308,-8.466666666666669,-6.047619047619044,1.282828282828282,19.262134289056792,476.6038746082308,34.11879978869808,1885.4561310601132,67.29836108639344,2381.843162114161,0
-23.372044017794416,47.38468388245769,-31.599671465842107,-122.91072791088052,117.70037359900371,101.43984867591428,-101.68589616073206,-13.02564102564102,-17.995951417004054,-56.37560975609757,-5.3661971830985875,3.4954128440366805,2.822222222222221,-2.0158730158730123,19.242424242424242,15.042416463299674,326.40716837605163,34.11879978869808,1885.4561310601132,67.29836108639344,2381.843162114161,0
-22.212362444392404,47.91243692490352,-31.771475504879696,-122.7363039829086,117.60547945205477,101.40781841109708,-101.18062462701414,-13.02564102564102,-17.995951417004054,-56.37560975609757,-5.3661971830985875,3.4954128440366805,2.822222222222221,-2.0158730158730123,19.242424242424242,15.042416463299674,326.40716837605163,33.96542495805854,1893.065004867424,67.47340547089728,2355.623622852322,0
-22.212362444392404,47.91243692490352,-31.771475504879696,-122.7363039829086,117.60547945205477,101.40781841109708,-101.18062462701414,-32.564102564102555,0.5141700404858236,-21.6829268292683,-10.732394366197179,-10.486238532110107,-14.111111111111114,-2.0158730158730123,6.4141414141414135,12.315119734161188,112.43013832232293,33.96542495805854,1893.065004867424,67.47340547089728,2355.623622852322,0
-22.212362444392404,47.91243692490352,-31.771475504879696,-122.7363039829086,117.60547945205477,101.40781841109708,-101.18062462701414,-14.653846153846148,-6.684210526315796,-48.94146341463416,4.440892098500626e-15,-5.825688073394511,-0.9407407407407424,-2.0158730158730123,6.4141414141414135,10.684495417368224,260.2059669718693,33.96542495805854,1893.065004867424,67.47340547089728,2355.623622852322,0
-22.866541793490974,48.13861680023745,-31.673301768286787,-122.50373874561271,117.51058530510585,101.31172761664567,-100.57429878655262,-14.653846153846148,-6.684210526315796,-48.94146341463416,4.440892098500626e-15,-5.825688073394511,-0.9407407407407424,-2.0158730158730123,6.4141414141414135,10.684495417368224,260.2059669718693,34.22615345400507,1914.8723189604893,67.43855243804565,2341.907707090648,0
-22.866541793490974,48.13861680023745,-31.673301768286787,-122.50373874561271,117.51058530510585,101.31172761664567,-100.57429878655262,-24.42307692307692,-4.6275303643724754,-27.878048780487813,-12.521126760563376,-16.311926605504603,-10.34814814814815,-4.703703703703701,6.4141414141414135,13.403462837499806,78.72451040391427,34.22615345400507,1914.8723189604893,67.43855243804565,2341.907707090648,0
-22.866541793490974,48.13861680023745,-31.673301768286787,-122.50373874561271,117.51058530510585,101.31172761664567,-100.57429878655262,-21.16666666666666,9.769230769230763,-15.487804878048788,-10.732394366197179,-23.302752293577996,-21.63703703703704,-3.3597883597883564,6.4141414141414135,13.983726973086025,56.82487143014098,34.22615345400507,1914.8723189604893,67.43855243804565,2341.907707090648,0
-22.83680636853195,48.21401009201542,-31.206976519470476,-122.32931481764078,117.47895392278951,101.2156368221942,-100.22060871295008,-21.16666666666666,9.769230769230763,-15.487804878048788,-10.732394366197179,-23.302752293577996,-21.63703703703704,-3.3597883597883564,6.4141414141414135,13.983726973086025,56.82487143014098,34.08593099333928,1904.3285637346457,67.25010047637556,2347.599687072695,0
-22.83680636853195,48.21401009201542,-31.206976519470476,-122.32931481764078,117.47895392278951,101.2156368221942,-100.22060871295008,-13.02564102564102,12.854251012145742,-26.63902439024391,-23.25352112676056,-24.467889908256893,-10.34814814814815,-2.0158730158730123,1.282828282828282,14.235897113737195,96.49257492621203,34.08593099333928,1904.3285637346457,67.25010047637556,2347.599687072695,0
-22.83680636853195,48.21401009201542,-31.206976519470476,-122.32931481764078,117.47895392278951,101.2156368221942,-100.22060871295008,-24.42307692307692,-7.712550607287455,-46.463414634146346,-7.1549295774647845,-4.660550458715612,-10.34814814814815,-7.391534391534388,3.8484848484848477,14.000336198607313,213.74103536511757,34.08593099333928,1904.3285637346457,67.25010047637556,2347.599687072695,0
-22.47998126902364,47.68625704956959,-30.71610783650594,-122.17427132611019,117.51058530510585,101.11954602774273,-100.01850009946293,-24.42307692307692,-7.712550607287455,-46.463414634146346,-7.1549295774647845,-4.660550458715612,-10.34814814814815,-7.391534391534388,3.8484848484848477,14.000336198607313,213.74103536511757,33.62744871836639,1856.344266724423,66.85887873739524,2366.8409840111563,0
-22.47998126902364,47.68625704956959,-30.71610783650594,-122.17427132611019,117.51058530510585,101.11954602774273,-100.01850009946293,-4.88461538461538,19.0242914979757,-15.487804878048788,-1.7887323943661926,-12.816513761467906,-8.466666666666669,-14.111111111111107,6.4141414141414135,10.374234638549144,34.86699708606049,33.62744871836639,1856.344266724423,66.85887873739524,2366.8409840111563,0
-22.47998126902364,47.68625704956959,-30.71610783650594,-122.17427132611019,117.51058530510585,101.11954602774273,-100.01850009946293,-22.79487179487179,-20.052631578947373,-35.31219512195123,-3.57746478873239,-8.155963302752308,-4.703703703703706,-8.735449735449732,6.4141414141414135,13.718302680068742,126.00326039205945,33.62744871836639,1856.344266724423,66.85887873739524,2366.8409840111563,0
-21.825801919925066,47.53547046601364,-30.10252198280027,-122.07736914390355,117.57384806973846,101.05548549810845,-100.01850009946293,-22.79487179487179,-20.052631578947373,-35.31219512195123,-3.57746478873239,-8.155963302752308,-4.703703703703706,-8.735449735449732,6.4141414141414135,13.718302680068742,126.00326039205945,33.154598122912994,1817.8580122462783,66.57178719757248,2386.6291436052475,0
-21.825801919925066,47.53547046601364,-30.10252198280027,-122.07736914390355,117.57384806973846,101.05548549810845,-100.01850009946293,-21.16666666666666,-21.080971659919033,-46.463414634146346,-16.09859154929577,-29.12844036697249,-25.400000000000002,-8.735449735449732,11.545454545454545,22.452373644738074,140.11538227575957,33.154598122912994,1817.8580122462783,66.57178719757248,2386.6291436052475,0
-21.825801919925066,47.53547046601364,-30.10252198280027,-122.07736914390355,117.57384806973846,101.05548549810845,-100.01850009946293,-32.564102564102555,-7.712550607287455,-41.50731707317074,-10.732394366197179,-16.311926605504603,-14.111111111111114,-11.42328042328042,3.8484848484848477,17.276395949892365,168.66565623020372,33.154598122912994,1817.8580122462783,66.57178719757248,2386.6291436052475,0
-21.26082884570357,48.36479667557138,-29.68528360228041,-122.0386082710209,117.6371108343711,101.05548549810845,-100.22060871295008,-32.564102564102555,-7.712550607287455,-41.50731707317074,-10.732394366197179,-16.311926605504603,-14.111111111111114,-11.42328042328042,3.8484848484848477,17.276395949892365,168.66565623020372,33.10363637451845,1835.0856997589221,66.6962295162909,2384.3152168378056,0
-21.26082884570357,48.36479667557138,-29.68528360228041,-122.0386082710209,117.6371108343711,101.05548549810845,-100.22060871295008,-40.705128205128204,-21.080971659919033,-14.248780487804886,3.5774647887323994,5.825688073394478,0.9407407407407398,-8.735449735449732,3.8484848484848477,12.370338567456788,174.1258814596854,33.10363637451845,1835.0856997589221,66.6962295162909,2384.3152168378056,0
-21.26082884570357,48.36479667557138,-29.68528360228041,-122.0386082710209,117.6371108343711,101.05548549810845,-100.22060871295008,-22.79487179487179,-24.165991902834012,-29.117073170731715,-16.09859154929577,-25.633027522935794,-19.75555555555556,-6.047619047619044,8.97979797979798,19.07406606545521,66.36493110597394,33.10363637451845,1835.0856997589221,66.6962295162909,2384.3152168378056,0
-21.825801919925066,46.102997922232106,-29.46439269494637,-121.86418434304899,117.74782067247818,101.02345523329132,-100.32166301969369,-22.79487179487179,-24.165991902834012,-29.117073170731715,-16.09859154929577,-25.633027522935794,-19.75555555555556,-6.047619047619044,8.97979797979798,19.07406606545521,66.36493110597394,32.464397512367846,1730.5167402855543,65.8105249867425,2425.7203414020005,0
-21.825801919925066,46.102997922232106,-29.46439269494637,-121.86418434304899,117.74782067247818,101.02345523329132,-100.32166301969369,-34.192307692307686,-5.655870445344135,-6.814634146341472,-3.57746478873239,-8.155963302752308,-8.466666666666669,-0.6719576719576683,-1.2828282828282838,8.602211624616327,115.52246676600053,32.464397512367846,1730.5167402855543,65.8105249867425,2425.7203414020005,0
-21.825801919925066,46.102997922232106,-29.46439269494637,-121.86418434304899,117.74782067247818,101.02345523329132,-100.32166301969369,-21.16666666666666,-2.570850202429156,-4.336585365853665,4.440892098500626e-15,-2.330275229357815,-2.8222222222222237,-3.3597883597883564,6.4141414141414135,5.375066182557411,44.01954832297174,32.464397512367846,1730.5167402855543,65.8105249867425,2425.7203414020005,0
-21.825801919925066,44.14277233600474,-29.68528360228041,-121.67037997863574,117.87434620174344,100.92736443883985,-100.37219017306546,-21.16666666666666,-2.570850202429156,-4.336585365853665,4.440892098500626e-15,-2.330275229357815,-2.8222222222222237,-3.3597883597883564,6.4141414141414135,5.375066182557411,44.01954832297174,31.884619286070073,1644.0343475503275,65.1661453056403,2446.801147107147,0
-21.825801919925066,44.14277233600474,-29.68528360228041,-121.67037997863574,117.87434620174344,100.92736443883985,-100.37219017306546,-26.051282051282044,-47.81781376518219,-73.72195121951219,-23.25352112676056,-24.467889908256893,-25.400000000000002,-7.391534391534388,6.4141414141414135,29.314766734583714,486.5191691259866,31.884619286070073,1644.0343475503275,65.1661453056403,2446.801147107147,0
-21.825801919925066,44.14277233600474,-29.68528360228041,-121.67037997863574,117.87434620174344,100.92736443883985,-100.37219017306546,-34.192307692307686,-26.22267206477733,-48.94146341463416,-10.732394366197179,-13.981651376146804,-12.229629629629631,-4.703703703703701,3.8484848484848477,19.356538386985168,250.25357416692643,31.884619286070073,1644.0343475503275,65.1661453056403,2446.801147107147,0
-22.717864668695846,44.06737904422676,-29.660740168132186,-121.34091255913322,117.96924034869238,100.7672131147541,-100.1700815595783,-34.192307692307686,-26.22267206477733,-48.94146341463416,-10.732394366197179,-13.981651376146804,-12.229629629629631,-4.703703703703701,3.8484848484848477,19.356538386985168,250.25357416692643,32.14866129368493,1657.3846434311595,65.02301059049738,2430.667372538206,0
-22.717864668695846,44.06737904422676,-29.660740168132186,-121.34091255913322,117.96924034869238,100.7672131147541,-100.1700815595783,4.88461538461539,-6.684210526315796,-13.009756097560985,-7.1549295774647845,-8.155963302752308,-4.703703703703706,-10.079365079365076,16.676767676767675,8.918663918568214,17.285303789908433,32.14866129368493,1657.3846434311595,65.02301059049738,2430.667372538206,0
-22.717864668695846,44.06737904422676,-29.660740168132186,-121.34091255913322,117.96924034869238,100.7672131147541,-100.1700815595783,-29.307692307692303,-12.854251012145754,-21.6829268292683,-19.676056338028165,-15.146788990825703,-19.75555555555556,-3.3597883597883564,8.97979797979798,16.345357171637765,65.1050913515416,32.14866129368493,1657.3846434311595,65.02301059049738,2430.667372538206,0
-23.372044017794416,42.48411991688927,-30.225239153541402,-120.99206470318938,118.0799501867995,100.51097099621688,-99.76586433260394,-29.307692307692303,-12.854251012145754,-21.6829268292683,-19.676056338028165,-15.146788990825703,-19.75555555555556,-3.3597883597883564,8.97979797979798,16.345357171637765,65.1050913515416,32.02713436274169,1611.7752513655628,64.56714125787335,2425.3990287498264,0
-23.372044017794416,42.48411991688927,-30.225239153541402,-120.99206470318938,118.0799501867995,100.51097099621688,-99.76586433260394,-17.910256410256405,-6.684210526315796,-82.39512195121952,-7.1549295774647845,-2.330275229357815,0.9407407407407398,7.391534391534396,14.11111111111111,17.364772492250072,721.9137024617755,32.02713436274169,1611.7752513655628,64.56714125787335,2425.3990287498264,0
-23.372044017794416,42.48411991688927,-30.225239153541402,-120.99206470318938,118.0799501867995,100.51097099621688,-99.76586433260394,-11.397435897435892,-0.514170040485836,-40.268292682926834,-16.09859154929577,-19.8073394495413,-15.992592592592594,-6.047619047619044,3.8484848484848477,14.246815763547763,155.22430454399566,32.02713436274169,1611.7752513655628,64.56714125787335,2425.3990287498264,0
-23.490985717630522,42.48411991688927,-30.32341289013431,-120.62383641080422,118.19066002490658,100.28675914249686,-99.4121742590014,-11.397435897435892,-0.514170040485836,-40.268292682926834,-16.09859154929577,-19.8073394495413,-15.992592592592594,-6.047619047619044,3.8484848484848477,14.246815763547763,155.22430454399566,32.0995061748847,1616.7222429999051,64.47712307260927,2401.3107628587213,0
-23.490985717630522,42.48411991688927,-30.32341289013431,-120.62383641080422,118.19066002490658,100.28675914249686,-99.4121742590014,-24.42307692307692,12.854251012145742,-21.6829268292683,-1.7887323943661926,-8.155963302752308,-6.585185185185187,-19.486772486772484,1.282828282828282,12.032467052049427,81.15565424858316,32.0995061748847,1616.7222429999051,64.47712307260927,2401.3107628587213,0
-23.490985717630522,42.48411991688927,-30.32341289013431,-120.62383641080422,118.19066002490658,100.28675914249686,-99.4121742590014,-27.679487179487175,-7.712550607287455,-31.595121951219518,1.7887323943662015,-3.4954128440367134,-10.34814814814815,-7.391534391534388,8.97979797979798,12.373848186984699,122.3950605585137,32.0995061748847,1616.7222429999051,64.47712307260927,2401.3107628587213,0
-22.83680636853195,41.80558029088749,-30.936998743839982,-120.17808637265375,118.25392278953922,100.22269861286253,-99.21006564551425,-27.679487179487175,-7.712550607287455,-31.595121951219518,1.7887323943662015,-3.4954128440367134,-10.34814814814815,-7.391534391534388,8.97979797979798,12.373848186984699,122.3950605585137,31.85979513441981,1589.2890123610766,64.30688846912707,2370.7245825924883,0
-22.83680636853195,41.80558029088749,-30.936998743839982,-120.17808637265375,118.25392278953922,100.22269861286253,-99.21006564551425,-14.653846153846148,63.242914979757074,3.0975609756097455,-1.7887323943661926,-1.5987211554602254e-14,-10.34814814814815,-10.079365079365076,3.8484848484848477,13.382381572447157,431.13992336246093,31.85979513441981,1589.2890123610766,64.30688846912707,2370.7245825924883,0
-22.83680636853195,41.80558029088749,-30.936998743839982,-120.17808637265375,118.25392278953922,100.22269861286253,-99.21006564551425,-14.653846153846148,-3.599190283400816,-31.595121951219518,-5.3661971830985875,-9.321100917431208,-6.585185185185187,-6.047619047619044,6.4141414141414135,10.44780026699274,84.20677574672949,31.85979513441981,1589.2890123610766,64.30688846912707,2370.7245825924883,0
-23.223366892999287,43.0118729593351,-30.986085612136435,-119.73233633450329,118.30136986301369,100.15863808322825,-98.95742987865526,-14.653846153846148,-3.599190283400816,-31.595121951219518,-5.3661971830985875,-9.321100917431208,-6.585185185185187,-6.047619047619044,6.4141414141414135,10.44780026699274,84.20677574672949,32.40710848815694,1653.8441121589876,64.57676496865828,2317.7576798496275,0
-23.223366892999287,43.0118729593351,-30.986085612136435,-119.73233633450329,118.30136986301369,100.15863808322825,-98.95742987865526,-24.42307692307692,-2.570850202429156,-21.6829268292683,-12.521126760563376,-6.990825688073411,-2.8222222222222237,6.047619047619051,8.97979797979798,10.754805706631302,68.39202458114123,32.40710848815694,1653.8441121589876,64.57676496865828,2317.7576798496275,0
-23.223366892999287,43.0118729593351,-30.986085612136435,-119.73233633450329,118.30136986301369,100.15863808322825,-98.95742987865526,-22.79487179487179,4.627530364372463,-29.117073170731715,-14.309859154929573,-10.486238532110107,-8.466666666666669,3.3597883597883635,6.4141414141414135,12.447021182201512,84.03493955714869,32.40710848815694,1653.8441121589876,64.57676496865828,2317.7576798496275,0
-24.680402715991562,43.69041258533689,-30.56884723161658,-119.32534716923547,118.41207970112077,99.8703656998739,-98.50268549830918,-22.79487179487179,4.627530364372463,-29.117073170731715,-14.309859154929573,-10.486238532110107,-8.466666666666669,3.3597883597883635,6.4141414141414135,12.447021182201512,84.03493955714869,32.979887510981676,1703.9466387239604,64.52820232872965,2295.089181336519,0
-24.680402715991562,43.69041258533689,-30.56884723161658,-119.32534716923547,118.41207970112077,99.8703656998739,-98.50268549830918,-21.16666666666666,-9.769230769230775,-16.72682926829269,-21.46478873239436,-24.467889908256893,-17.874074074074077,-7.391534391534388,6.4141414141414135,15.659394403073907,48.02752957698952,32.979887510981676,1703.9466387239604,64.52820232872965,2295.089181336519,0
-24.680402715991562,43.69041258533689,-30.56884723161658,-119.32534716923547,118.41207970112077,99.8703656998739,-98.50268549830918,-24.42307692307692,-10.797570850202435,-13.009756097560985,-3.57746478873239,-13.981651376146804,-8.466666666666669,0.6719576719576756,3.8484848484848477,9.84707865285359,57.40570701641606,32.979887510981676,1703.9466387239604,64.52820232872965,2295.089181336519,0
-23.490985717630522,43.69041258533689,-30.17615228524495,-119.13154280482222,118.57023661270236,99.51803278688527,-98.19952257807842,-24.42307692307692,-10.797570850202435,-13.009756097560985,-3.57746478873239,-13.981651376146804,-8.466666666666669,0.6719576719576756,3.8484848484848477,9.84707865285359,57.40570701641606,32.452516862737454,1669.050189293096,64.33270255846801,2297.8434771237467,0
-23.490985717630522,43.69041258533689,-30.17615228524495,-119.13154280482222,118.57023661270236,99.51803278688527,-98.19952257807842,-19.538461538461533,-2.570850202429156,-10.531707317073177,-5.3661971830985875,-8.155963302752308,-8.466666666666669,-10.079365079365076,1.282828282828282,8.249004946584348,32.16406443572989,32.452516862737454,1669.050189293096,64.33270255846801,2297.8434771237467,0
-23.490985717630522,43.69041258533689,-30.17615228524495,-119.13154280482222,118.57023661270236,99.51803278688527,-98.19952257807842,-26.051282051282044,-9.769230769230775,-16.72682926829269,-5.3661971830985875,-12.816513761467906,-17.874074074074077,-3.3597883597883564,1.282828282828282,11.65584296875784,70.35714694955539,32.452516862737454,1669.050189293096,64.33270255846801,2297.8434771237467,0
-21.974479044720194,44.67052537845057,-30.24978258768963,-119.0346406226156,118.68094645080944,99.35788146279947,-98.14899542470658,-26.051282051282044,-9.769230769230775,-16.72682926829269,-5.3661971830985875,-12.816513761467906,-17.874074074074077,-3.3597883597883564,1.282828282828282,11.65584296875784,70.35714694955539,32.298262336953464,1687.181634839004,64.65164952958527,2270.1217458277833,0
-21.974479044720194,44.67052537845057,-30.24978258768963,-119.0346406226156,118.68094645080944,99.35788146279947,-98.14899542470658,-16.282051282051277,-5.655870445344135,-45.22439024390245,-8.943661971830982,-17.4770642201835,-8.466666666666669,0.6719576719576756,14.11111111111111,14.604096701630976,184.6855293120284,32.298262336953464,1687.181634839004,64.65164952958527,2270.1217458277833,0
-21.974479044720194,44.67052537845057,-30.24978258768963,-119.0346406226156,118.68094645080944,99.35788146279947,-98.14899542470658,-30.93589743589743,-13.882591093117414,-30.356097560975616,-3.57746478873239,-6.990825688073411,-8.466666666666669,-6.047619047619044,6.4141414141414135,13.333912961902925,122.85315921936228,32.298262336953464,1687.181634839004,64.65164952958527,2270.1217458277833,0
-22.063685319597273,45.27367171267437,-30.617934099913032,-118.84083625820236,118.74420921544208,99.2938209331652,-98.04794111796303,-30.93589743589743,-13.882591093117414,-30.356097560975616,-3.57746478873239,-6.990825688073411,-8.466666666666669,-6.047619047619044,6.4141414141414135,13.333912961902925,122.85315921936228,32.651763710728225,1727.8384428500513,64.91081402359659,2235.0331349123317,0
-22.063685319597273,45.27367171267437,-30.617934099913032,-118.84083625820236,118.74420921544208,99.2938209331652,-98.04794111796303,-35.82051282051282,-55.01619433198381,-34.07317073170732,-8.943661971830982,-24.467889908256893,-17.874074074074077,-10.079365079365076,3.8484848484848477,23.765419220776977,295.2948887662264,32.651763710728225,1727.8384428500513,64.91081402359659,2235.0331349123317,0
-22.063685319597273,45.27367171267437,-30.617934099913032,-118.84083625820236,118.74420921544208,99.2938209331652,-98.04794111796303,-8.141025641025635,9.769230769230763,-29.117073170731715,-17.88732394366197,-17.4770642201835,-10.34814814814815,0.6719576719576756,14.11111111111111,13.440366834506314,70.9191026846082,32.651763710728225,1727.8384428500513,64.91081402359659,2235.0331349123317,0
-22.420510419105586,45.42445829623033,-30.519760363320124,-118.6470318937891,118.82328767123286,99.19773013871372,-98.04794111796303,-8.141025641025635,9.769230769230763,-29.117073170731715,-17.88732394366197,-17.4770642201835,-10.34814814814815,0.6719576719576756,14.11111111111111,13.440366834506314,70.9191026846082,32.78824302621868,1739.3436629088965,64.86375018444652,2225.018548687703,0
-22.420510419105586,45.42445829623033,-30.519760363320124,-118.6470318937891,118.82328767123286,99.19773013871372,-98.04794111796303,-27.679487179487175,-13.882591093117414,-21.6829268292683,-7.1549295774647845,-6.990825688073411,-6.585185185185187,-10.079365079365076,-3.8484848484848495,12.237974435055776,70.1027538131004,32.78824302621868,1739.3436629088965,64.86375018444652,2225.018548687703,0
-22.420510419105586,45.42445829623033,-30.519760363320124,-118.6470318937891,118.82328767123286,99.19773013871372,-98.04794111796303,63.5,96.1497975708502,-50.180487804878055,-17.88732394366197,-6.990825688073411,-4.703703703703706,-6.047619047619044,26.939393939393938,34.049893962272535,1096.172881525814,32.78824302621868,1739.3436629088965,64.86375018444652,2225.018548687703,0
-22.182627019433376,44.896705253784496,-30.15160885109672,-118.51136883869984,118.94981320049811,99.06960907944517,-98.09846827133481,63.5,96.1497975708502,-50.180487804878055,-17.88732394366197,-6.990825688073411,-4.703703703703706,-6.047619047619044,26.939393939393938,34.049893962272535,1096.172881525814,32.410313708104866,1699.2318232731773,64.51989431452701,2240.6639579519406,0
-22.182627019433376,44.896705253784496,-30.15160885109672,-118.51136883869984,118.94981320049811,99.06960907944517,-98.09846827133481,-4.88461538461538,24.165991902834,-29.117073170731715,-8.943661971830982,-8.155963302752308,-6.585185185185187,10.079365079365083,14.11111111111111,13.255370888553223,77.23003870957413,32.410313708104866,1699.2318232731773,64.51989431452701,2240.6639579519406,0
-22.182627019433376,44.896705253784496,-30.15160885109672,-118.51136883869984,118.94981320049811,99.06960907944517,-98.09846827133481,-29.307692307692303,-20.052631578947373,-29.117073170731715,-5.3661971830985875,-19.8073394495413,-10.34814814814815,-4.703703703703701,3.8484848484848477,15.318908798793496,113.80681141737308,32.410313708104866,1699.2318232731773,64.51989431452701,2240.6639579519406,0
-21.528447670334806,45.726031463342224,-30.053435114503813,-118.45322752937585,119.06052303860523,98.9735182849937,-98.19952257807842,-29.307692307692303,-20.052631578947373,-29.117073170731715,-5.3661971830985875,-19.8073394495413,-10.34814814814815,-4.703703703703701,3.8484848484848477,15.318908798793496,113.80681141737308,32.435971416060276,1723.0613215480537,64.74423136907397,2224.899770488898,0
-21.528447670334806,45.726031463342224,-30.053435114503813,-118.45322752937585,119.06052303860523,98.9735182849937,-98.19952257807842,-6.5128205128205074,9.769230769230763,-31.595121951219518,-10.732394366197179,-8.155963302752308,-12.229629629629631,-2.0158730158730123,16.676767676767675,12.210975153061323,79.5270442462903,32.435971416060276,1723.0613215480537,64.74423136907397,2224.899770488898,0
-21.528447670334806,45.726031463342224,-30.053435114503813,-118.45322752937585,119.06052303860523,98.9735182849937,-98.19952257807842,-45.589743589743584,-35.47773279352227,-39.029268292682936,-7.1549295774647845,-8.155963302752308,-6.585185185185187,-0.6719576719576683,3.8484848484848477,18.314158157724197,336.2072424742423,32.435971416060276,1723.0613215480537,64.74423136907397,2224.899770488898,0
-19.56590962303909,46.178391214010084,-30.200695719393178,-118.53074927514115,119.12378580323784,99.06960907944517,-98.60373980505273,-45.589743589743584,-35.47773279352227,-39.029268292682936,-7.1549295774647845,-8.155963302752308,-6.585185185185187,-0.6719576719576683,3.8484848484848477,18.314158157724197,336.2072424742423,31.981665518814115,1711.529448108001,64.96994540284813,2215.391471914354,0
-19.56590962303909,46.178391214010084,-30.200695719393178,-118.53074927514115,119.12378580323784,99.06960907944517,-98.60373980505273,-42.33333333333333,-23.137651821862352,9.292682926829258,3.5774647887323994,-13.981651376146804,-8.466666666666669,-8.735449735449732,1.282828282828282,13.850966116481104,176.70641492673278,31.981665518814115,1711.529448108001,64.96994540284813,2215.391471914354,0
-19.56590962303909,46.178391214010084,-30.200695719393178,-118.53074927514115,119.12378580323784,99.06960907944517,-98.60373980505273,-39.07692307692307,-20.052631578947373,-20.4439024390244,-10.732394366197179,-9.321100917431208,-8.466666666666669,-7.391534391534388,1.282828282828282,14.595997714944072,138.96485537618713,31.981665518814115,1711.529448108001,64.96994540284813,2215.391471914354,0
-17.87099040037461,46.932324131789834,-30.544303797468352,-118.62765145734778,119.1079701120797,99.4219419924338,-99.31111995225785,-39.07692307692307,-20.052631578947373,-20.4439024390244,-10.732394366197179,-9.321100917431208,-8.466666666666669,-7.391534391534388,1.282828282828282,14.595997714944072,138.96485537618713,31.782539443210936,1727.1183870173832,65.36809312886867,2194.577217628036,0
-17.87099040037461,46.932324131789834,-30.544303797468352,-118.62765145734778,119.1079701120797,99.4219419924338,-99.31111995225785,-14.653846153846148,1.5425101214574832,-9.292682926829276,-3.57746478873239,-1.1651376146789154,-6.585185185185187,-2.0158730158730123,6.4141414141414135,5.655855152592979,21.46919121324936,31.782539443210936,1727.1183870173832,65.36809312886867,2194.577217628036,0
-17.87099040037461,46.932324131789834,-30.544303797468352,-118.62765145734778,119.1079701120797,99.4219419924338,-99.31111995225785,-27.679487179487175,-13.882591093117414,-57.61463414634147,-10.732394366197179,-16.311926605504603,-8.466666666666669,2.0158730158730194,1.282828282828282,17.248300169501977,336.7075170250976,31.782539443210936,1727.1183870173832,65.36809312886867,2194.577217628036,0
-18.941465698899545,46.32917779756603,-30.71610783650594,-118.56951014802381,119.07633872976336,99.77427490542243,-99.81639148597577,-27.679487179487175,-13.882591093117414,-57.61463414634147,-10.732394366197179,-16.311926605504603,-8.466666666666669,2.0158730158730194,1.282828282828282,17.248300169501977,336.7075170250976,31.995583777657174,1722.4791897245227,65.20493192736525,2196.775644903828,0
-18.941465698899545,46.32917779756603,-30.71610783650594,-118.56951014802381,119.07633872976336,99.77427490542243,-99.81639148597577,-29.307692307692303,13.882591093117401,-1.8585365853658615,-10.732394366197179,-12.816513761467906,-15.992592592592594,-3.3597883597883564,6.4141414141414135,11.795531310045376,75.66922436791774,31.995583777657174,1722.4791897245227,65.20493192736525,2196.775644903828,0
-18.941465698899545,46.32917779756603,-30.71610783650594,-118.56951014802381,119.07633872976336,99.77427490542243,-99.81639148597577,-11.397435897435892,11.825910931174082,-19.204878048780493,-1.7887323943661926,-6.990825688073411,-8.466666666666669,0.6719576719576756,6.4141414141414135,8.34506858907448,35.25829803193244,31.995583777657174,1722.4791897245227,65.20493192736525,2196.775644903828,0
-20.10114727230156,45.1982784208964,-31.10880278287757,-118.43384709293454,119.04470734744706,99.96645649432537,-100.11955440620653,-11.397435897435892,11.825910931174082,-19.204878048780493,-1.7887323943661926,-6.990825688073411,-8.466666666666669,0.6719576719576756,6.4141414141414135,8.34506858907448,35.25829803193244,32.13607615869184,1701.325686256725,64.9136427655695,2197.937534370759,0
-20.10114727230156,45.1982784208964,-31.10880278287757,-118.43384709293454,119.04470734744706,99.96645649432537,-100.11955440620653,-3.256410256410252,13.882591093117401,-56.37560975609757,-19.676056338028165,-18.642201834862398,-15.992592592592594,-10.079365079365076,8.97979797979798,18.36057811628393,265.3322229625723,32.13607615869184,1701.325686256725,64.9136427655695,2197.937534370759,0
-20.10114727230156,45.1982784208964,-31.10880278287757,-118.43384709293454,119.04470734744706,99.96645649432537,-100.11955440620653,-6.5128205128205074,11.825910931174082,0.619512195121942,-1.7887323943661926,-9.321100917431208,-6.585185185185187,0.6719576719576756,16.676767676767675,6.7502484356030585,32.877031611121566,32.13607615869184,1701.325686256725,64.9136427655695,2197.937534370759,0
-19.50643877312104,43.841199168892835,-31.231519953618704,-118.29818403784526,119.07633872976336,100.28675914249686,-100.67535309329622,-6.5128205128205074,11.825910931174082,0.619512195121942,-1.7887323943661926,-9.321100917431208,-6.585185185185187,0.6719576719576756,16.676767676767675,6.7502484356030585,32.877031611121566,31.52638596521086,1631.0523196615409,64.45696772011894,2213.908433407179,0
-19.50643877312104,43.841199168892835,-31.231519953618704,-118.29818403784526,119.07633872976336,100.28675914249686,-100.67535309329622,-21.16666666666666,-1.542510121457496,-27.878048780487813,1.7887323943662015,-4.660550458715612,-4.703703703703706,3.3597883597883635,11.545454545454545,9.58068187883005,97.8439740179923,31.52638596521086,1631.0523196615409,64.45696772011894,2213.908433407179,0
-19.50643877312104,43.841199168892835,-31.231519953618704,-118.29818403784526,119.07633872976336,100.28675914249686,-100.67535309329622,-39.07692307692307,-14.910931174089074,-48.94146341463416,-16.09859154929577,-22.137614678899098,-14.111111111111114,-10.079365079365076,1.282828282828282,20.829853545893204,246.44965371374542,31.52638596521086,1631.0523196615409,64.45696772011894,2213.908433407179,0
-19.030671973776624,43.841199168892835,-31.378780558508065,-118.14314054631467,119.04470734744706,100.63909205548549,-101.23115178038591,-39.07692307692307,-14.910931174089074,-48.94146341463416,-16.09859154929577,-22.137614678899098,-14.111111111111114,-10.079365079365076,1.282828282828282,20.829853545893204,246.44965371374542,31.41688390039251,1627.2322194652254,64.45437342457186,2200.690755694665,0
-19.030671973776624,43.841199168892835,-31.378780558508065,-118.14314054631467,119.04470734744706,100.63909205548549,-101.23115178038591,-13.02564102564102,-13.882591093117414,-46.463414634146346,-7.1549295774647845,-5.825688073394511,-2.8222222222222237,-4.703703703703701,16.676767676767675,13.81936975080721,198.1112460445233,31.41688390039251,1627.2322194652254,64.45437342457186,2200.690755694665,0
-19.030671973776624,43.841199168892835,-31.378780558508065,-118.14314054631467,119.04470734744706,100.63909205548549,-101.23115178038591,-37.44871794871794,-33.42105263157895,0.619512195121942,-1.7887323943661926,-13.981651376146804,-14.111111111111114,-0.6719576719576683,1.282828282828282,12.915695451478612,226.4488984987936,31.41688390039251,1627.2322194652254,64.45437342457186,2200.690755694665,0
-18.67384687426831,43.76580587711486,-30.96154217798821,-118.00747749122539,119.01307596513075,101.02345523329132,-101.78695046747566,-37.44871794871794,-33.42105263157895,0.619512195121942,-1.7887323943661926,-13.981651376146804,-14.111111111111114,-0.6719576719576683,1.282828282828282,12.915695451478612,226.4488984987936,31.13373164312379,1605.645706489815,64.24494184877615,2208.7949712484115,0
-18.67384687426831,43.76580587711486,-30.96154217798821,-118.00747749122539,119.01307596513075,101.02345523329132,-101.78695046747566,-13.02564102564102,-6.684210526315796,-56.37560975609757,-14.309859154929573,-9.321100917431208,-8.466666666666669,-7.391534391534388,3.8484848484848477,14.927888410887634,291.800800382718,31.13373164312379,1605.645706489815,64.24494184877615,2208.7949712484115,0
-18.67384687426831,43.76580587711486,-30.96154217798821,-118.00747749122539,119.01307596513075,101.02345523329132,-101.78695046747566,-30.93589743589743,-20.052631578947373,-35.31219512195123,-3.57746478873239,-2.330275229357815,-6.585185185185187,-0.6719576719576683,3.8484848484848477,12.914261482564243,192.67416774858015,31.13373164312379,1605.645706489815,64.24494184877615,2208.7949712484115,0
-19.744322172793247,42.93647966755713,-30.544303797468352,-117.83305356325347,119.06052303860523,101.2156368221942,-102.2416948478218,-30.93589743589743,-20.052631578947373,-35.31219512195123,-3.57746478873239,-2.330275229357815,-6.585185185185187,-0.6719576719576683,3.8484848484848477,12.914261482564243,192.67416774858015,31.07503521260624,1574.1580101794257,63.771279009426316,2230.3981066304277,0
-19.744322172793247,42.93647966755713,-30.544303797468352,-117.83305356325347,119.06052303860523,101.2156368221942,-102.2416948478218,-16.282051282051277,1.5425101214574832,-46.463414634146346,-14.309859154929573,-15.146788990825703,-15.992592592592594,3.3597883597883635,3.8484848484848477,14.618186248034524,204.6945420691001,31.07503521260624,1574.1580101794257,63.771279009426316,2230.3981066304277,0
-19.744322172793247,42.93647966755713,-30.544303797468352,-117.83305356325347,119.06052303860523,101.2156368221942,-102.2416948478218,-24.42307692307692,-13.882591093117414,-50.180487804878055,-21.46478873239436,-10.486238532110107,-12.229629629629631,-2.0158730158730123,14.11111111111111,18.599224605273825,209.042075201166,31.07503521260624,1574.1580101794257,63.771279009426316,2230.3981066304277,0
-21.528447670334806,42.48411991688927,-30.32341289013431,-117.60048832595757,119.17123287671231,101.18360655737706,-102.34274915456535,-24.42307692307692,-13.882591093117414,-50.180487804878055,-21.46478873239436,-10.486238532110107,-12.229629629629631,-2.0158730158730123,14.11111111111111,18.599224605273825,209.042075201166,31.44532682578613,1579.316175962038,63.46934037766039,2234.606582497971,0
-21.528447670334806,42.48411991688927,-30.32341289013431,-117.60048832595757,119.17123287671231,101.18360655737706,-102.34274915456535,-29.307692307692303,-5.655870445344135,-14.248780487804886,-7.1549295774647845,-12.816513761467906,-10.34814814814815,-3.3597883597883564,3.8484848484848477,10.842525992024422,71.73053014124531,31.44532682578613,1579.316175962038,63.46934037766039,2234.606582497971,0
-21.528447670334806,42.48411991688927,-30.32341289013431,-117.60048832595757,119.17123287671231,101.18360655737706,-102.34274915456535,-21.16666666666666,-5.655870445344135,-40.268292682926834,-12.521126760563376,-15.146788990825703,-17.874074074074077,-7.391534391534388,11.545454545454545,16.446226069673713,118.76341225802939,31.44532682578613,1579.316175962038,63.46934037766039,2234.606582497971,0
-21.766331070007013,42.18254674977737,-30.17615228524495,-117.38730352510301,119.31357409713573,101.08751576292559,-102.49433061468073,-21.16666666666666,-5.655870445344135,-40.268292682926834,-12.521126760563376,-15.146788990825703,-17.874074074074077,-7.391534391534388,11.545454545454545,16.446226069673713,118.76341225802939,31.37501003500978,1565.994232220486,63.24866752004177,2234.282308375873,0
-21.766331070007013,42.18254674977737,-30.17615228524495,-117.38730352510301,119.31357409713573,101.08751576292559,-102.49433061468073,-40.705128205128204,-21.080971659919033,-26.63902439024391,-10.732394366197179,-10.486238532110107,-8.466666666666669,-11.42328042328042,3.8484848484848477,16.672773636503795,147.03335799996145,31.37501003500978,1565.994232220486,63.24866752004177,2234.282308375873,0
-21.766331070007013,42.18254674977737,-30.17615228524495,-117.38730352510301,119.31357409713573,101.08751576292559,-102.49433061468073,-17.910256410256405,-14.910931174089074,-22.921951219512202,-1.7887323943661926,-17.4770642201835,-8.466666666666669,3.3597883597883635,8.97979797979798,11.976898553082549,56.1738486603819,31.37501003500978,1565.994232220486,63.24866752004177,2234.282308375873,0
-21.022945446031365,40.75007420599583,-30.298869455986082,-117.25164047001374,119.50336239103362,101.05548549810845,-102.84802068828327,-17.910256410256405,-14.910931174089074,-22.921951219512202,-1.7887323943661926,-17.4770642201835,-8.466666666666669,3.3597883597883635,8.97979797979798,11.976898553082549,56.1738486603819,30.690629702671092,1491.6501864419452,62.76686137733188,2253.750284765413,0
-21.022945446031365,40.75007420599583,-30.298869455986082,-117.25164047001374,119.50336239103362,101.05548549810845,-102.84802068828327,-22.79487179487179,-2.570850202429156,-47.70243902439025,-8.943661971830982,-11.651376146789007,-8.466666666666669,2.0158730158730194,11.545454545454545,14.461399171038178,221.92442523041117,30.690629702671092,1491.6501864419452,62.76686137733188,2253.750284765413,0
-21.022945446031365,40.75007420599583,-30.298869455986082,-117.25164047001374,119.50336239103362,101.05548549810845,-102.84802068828327,6.512820512820518,40.619433198380555,-1.8585365853658615,7.154929577464793,-5.825688073394511,-0.9407407407407424,0.6719576719576756,16.676767676767675,10.032609254611542,179.30944488133846,30.690629702671092,1491.6501864419452,62.76686137733188,2253.750284765413,0
-19.328026223366884,39.99614128821608,-30.544303797468352,-117.11597741492446,119.64570361145701,101.2156368221942,-103.60592798886017,6.512820512820518,40.619433198380555,-1.8585365853658615,7.154929577464793,-5.825688073394511,-0.9407407407407424,0.6719576719576756,16.676767676767675,10.032609254611542,179.30944488133846,29.956157103017105,1436.852687741351,62.5521408335363,2255.2435048482007,0
-19.328026223366884,39.99614128821608,-30.544303797468352,-117.11597741492446,119.64570361145701,101.2156368221942,-103.60592798886017,-14.653846153846148,-6.684210526315796,-24.160975609756104,-5.3661971830985875,-13.981651376146804,-6.585185185185187,-4.703703703703701,6.4141414141414135,10.318738894024218,46.03842727422459,29.956157103017105,1436.852687741351,62.5521408335363,2255.2435048482007,0
-19.328026223366884,39.99614128821608,-30.544303797468352,-117.11597741492446,119.64570361145701,101.2156368221942,-103.60592798886017,-24.42307692307692,-19.024291497975714,-22.921951219512202,-5.3661971830985875,-5.825688073394511,-12.229629629629631,-6.047619047619044,3.8484848484848477,12.460867302848932,72.18908228213526,29.956157103017105,1436.852687741351,62.5521408335363,2255.2435048482007,0
-18.554905174432207,38.41288216087859,-30.765194704802393,-116.92217305051122,119.77222914072229,101.56796973518283,-104.56594390292423,-24.42307692307692,-19.024291497975714,-22.921951219512202,-5.3661971830985875,-5.825688073394511,-12.229629629629631,-6.047619047619044,3.8484848484848477,12.460867302848932,72.18908228213526,29.244327346704395,1363.3377138551218,62.03341663873073,2274.2034661802863,0
-18.554905174432207,38.41288216087859,-30.765194704802393,-116.92217305051122,119.77222914072229,101.56796973518283,-104.56594390292423,-19.538461538461533,-8.740890688259114,-47.70243902439025,-19.676056338028165,-11.651376146789007,-12.229629629629631,-15.455026455026452,8.97979797979798,17.996709725047765,162.0835807516233,29.244327346704395,1363.3377138551218,62.03341663873073,2274.2034661802863,0
-18.554905174432207,38.41288216087859,-30.765194704802393,-116.92217305051122,119.77222914072229,101.56796973518283,-104.56594390292423,-29.307692307692303,-1.542510121457496,-34.07317073170732,-7.1549295774647845,-13.981651376146804,-12.229629629629631,-2.0158730158730123,-1.2828282828282838,12.698535630349955,162.0330711581365,29.244327346704395,1363.3377138551218,62.03341663873073,2274.2034661802863,0
-19.536174198080065,39.09142178688037,-30.88791187554353,-116.68960781321533,119.88293897882937,101.7921815889029,-105.22279689675753,-29.307692307692303,-1.542510121457496,-34.07317073170732,-7.1549295774647845,-13.981651376146804,-12.229629629629631,-2.0158730158730123,-1.2828282828282838,12.698535630349955,162.0330711581365,29.838502620167986,1410.5273498517577,62.222980491879746,2241.784512537296,0
-19.536174198080065,39.09142178688037,-30.88791187554353,-116.68960781321533,119.88293897882937,101.7921815889029,-105.22279689675753,-3.256410256410252,24.165991902834,-19.204878048780493,-12.521126760563376,-13.981651376146804,-10.34814814814815,2.0158730158730194,6.4141414141414135,11.488527615362187,58.87012769626591,29.838502620167986,1410.5273498517577,62.222980491879746,2241.784512537296,0
-19.536174198080065,39.09142178688037,-30.88791187554353,-116.68960781321533,119.88293897882937,101.7921815889029,-105.22279689675753,9.769230769230774,34.4493927125506,-25.400000000000006,-8.943661971830982,-5.825688073394511,-2.8222222222222237,-3.3597883597883564,19.242424242424242,13.726551043930211,131.92351962964634,29.838502620167986,1410.5273498517577,62.222980491879746,2241.784512537296,0
-19.922734722547403,40.75007420599583,-30.96154217798821,-116.45704257591943,119.96201743462015,102.01639344262293,-105.72806843047545,9.769230769230774,34.4493927125506,-25.400000000000006,-8.943661971830982,-5.825688073394511,-2.8222222222222237,-3.3597883597883564,19.242424242424242,13.726551043930211,131.92351962964634,30.544783702177146,1490.93348962025,62.72288631996782,2189.4735012201,0
-19.922734722547403,40.75007420599583,-30.96154217798821,-116.45704257591943,119.96201743462015,102.01639344262293,-105.72806843047545,-35.82051282051282,-22.109311740890693,-32.83414634146342,-12.521126760563376,-17.4770642201835,-10.34814814814815,-2.0158730158730123,8.97979797979798,17.76324762842912,139.96561640893566,30.544783702177146,1490.93348962025,62.72288631996782,2189.4735012201,0
-19.922734722547403,40.75007420599583,-30.96154217798821,-116.45704257591943,119.96201743462015,102.01639344262293,-105.72806843047545,-39.07692307692307,-16.967611336032395,-14.248780487804886,-10.732394366197179,-13.981651376146804,-14.111111111111114,-6.047619047619044,-8.97979797979798,15.51823609770406,102.63043900804367,30.544783702177146,1490.93348962025,62.72288631996782,2189.4735012201,0
-18.049402950128766,41.65479370733154,-31.305150256063385,-116.36014039371281,119.99364881693648,102.46481715006303,-106.73861149791128,-39.07692307692307,-16.967611336032395,-14.248780487804886,-10.732394366197179,-13.981651376146804,-14.111111111111114,-6.047619047619044,-8.97979797979798,15.51823609770406,102.63043900804367,30.336448971174566,1510.576559715536,63.10669478570259,2153.7258817360726,0
-18.049402950128766,41.65479370733154,-31.305150256063385,-116.36014039371281,119.99364881693648,102.46481715006303,-106.73861149791128,-30.93589743589743,-27.25101214574899,-30.356097560975616,4.440892098500626e-15,1.1651376146788834,-4.703703703703706,-8.735449735449732,3.8484848484848477,13.3744728806174,186.3898807845133,30.336448971174566,1510.576559715536,63.10669478570259,2153.7258817360726,0
-18.049402950128766,41.65479370733154,-31.305150256063385,-116.36014039371281,119.99364881693648,102.46481715006303,-106.73861149791128,-30.93589743589743,-21.080971659919033,-34.07317073170732,-12.521126760563376,-16.311926605504603,-12.229629629629631,3.3597883597883635,8.97979797979798,17.436538645350968,113.50019942173465,30.336448971174566,1510.576559715536,63.10669478570259,2153.7258817360726,0
-17.603371575743374,40.59928762243988,-31.746932070731468,-116.14695559285823,119.97783312577832,103.04136191677173,-107.74915456534717,-30.93589743589743,-21.080971659919033,-34.07317073170732,-12.521126760563376,-16.311926605504603,-12.229629629629631,3.3597883597883635,8.97979797979798,17.436538645350968,113.50019942173465,29.983197089638242,1470.2608908513114,62.83105842867653,2151.529717519665,0
-17.603371575743374,40.59928762243988,-31.746932070731468,-116.14695559285823,119.97783312577832,103.04136191677173,-107.74915456534717,-16.282051282051277,-31.364372469635633,-29.117073170731715,-3.57746478873239,-6.990825688073411,-15.992592592592594,-4.703703703703701,8.97979797979798,14.625985209414836,115.06742483792452,29.983197089638242,1470.2608908513114,62.83105842867653,2151.529717519665,0
-17.603371575743374,40.59928762243988,-31.746932070731468,-116.14695559285823,119.97783312577832,103.04136191677173,-107.74915456534717,-9.769230769230763,-0.514170040485836,-46.463414634146346,-19.676056338028165,-13.981651376146804,-8.466666666666669,-7.391534391534388,8.97979797979798,14.405315274504618,197.71943427709212,29.983197089638242,1470.2608908513114,62.83105842867653,2151.529717519665,0
-17.424959025989217,40.14692787177203,-33.219538119625085,-115.79810773691439,119.81967621419676,103.81008827238338,-108.60811617266762,-9.769230769230763,-0.514170040485836,-46.463414634146346,-19.676056338028165,-13.981651376146804,-8.466666666666669,-7.391534391534388,8.97979797979798,14.405315274504618,197.71943427709212,30.263808339128776,1491.1048702967603,63.05485790943717,2098.384983967295,0
-17.424959025989217,40.14692787177203,-33.219538119625085,-115.79810773691439,119.81967621419676,103.81008827238338,-108.60811617266762,-29.307692307692303,-8.740890688259114,-22.921951219512202,-7.1549295774647845,-19.8073394495413,-14.111111111111114,0.6719576719576756,6.4141414141414135,13.64125167995999,93.76139632564777,30.263808339128776,1491.1048702967603,63.05485790943717,2098.384983967295,0
-17.424959025989217,40.14692787177203,-33.219538119625085,-115.79810773691439,119.81967621419676,103.81008827238338,-108.60811617266762,-26.051282051282044,9.769230769230763,-19.204878048780493,-21.46478873239436,-22.137614678899098,-25.400000000000002,-20.83068783068783,-1.2828282828282838,18.26766379926286,72.11550352054269,30.263808339128776,1491.1048702967603,63.05485790943717,2098.384983967295,0
-15.581362678529608,39.76996141288215,-35.52662092955841,-115.39111857164657,119.47173100871728,105.02723833543507,-109.82076785359061,-26.051282051282044,9.769230769230763,-19.204878048780493,-21.46478873239436,-22.137614678899098,-25.400000000000002,-20.83068783068783,-1.2828282828282838,18.26766379926286,72.11550352054269,30.292648340323392,1521.8596196374438,63.56256697136238,2019.1505553518446,0
-15.581362678529608,39.76996141288215,-35.52662092955841,-115.39111857164657,119.47173100871728,105.02723833543507,-109.82076785359061,21.16666666666667,51.93117408906882,-6.814634146341472,-10.732394366197179,-8.155963302752308,-2.8222222222222237,8.73544973544974,32.07070707070707,17.803651449925685,278.5801596552292,30.292648340323392,1521.8596196374438,63.56256697136238,2019.1505553518446,0
-15.581362678529608,39.76996141288215,-35.52662092955841,-115.39111857164657,119.47173100871728,105.02723833543507,-109.82076785359061,34.1923076923077,72.49797570850201,-41.50731707317074,1.7887323943662015,-1.1651376146789154,-0.9407407407407424,7.391534391534396,16.676767676767675,22.020064161508547,658.1504879343287,30.292648340323392,1521.8596196374438,63.56256697136238,2019.1505553518446,0
-14.15406228049636,44.74591867022854,-38.27548555415982,-114.86784678773081,118.76002490660022,106.82093316519547,-110.98289238114188,34.1923076923077,72.49797570850201,-41.50731707317074,1.7887323943662015,-1.1651376146789154,-0.9407407407407424,7.391534391534396,16.676767676767675,22.020064161508547,658.1504879343287,32.39182216829491,1823.9340626887133,65.96308367070638,1804.223517826584,0
-14.15406228049636,44.74591867022854,-38.27548555415982,-114.86784678773081,118.76002490660022,106.82093316519547,-110.98289238114188,-24.42307692307692,22.109311740890682,-27.878048780487813,-8.943661971830982,-20.9724770642202,-17.874074074074077,3.3597883597883635,-1.2828282828282838,15.855408399649665,100.51319794330377,32.39182216829491,1823.9340626887133,65.96308367070638,1804.223517826584,0
-14.15406228049636,44.74591867022854,-38.27548555415982,-114.86784678773081,118.76002490660022,106.82093316519547,-110.98289238114188,-14.653846153846148,11.825910931174082,-24.160975609756104,1.7887323943662015,-1.1651376146789154,0.9407407407407398,8.73544973544974,11.545454545454545,9.35203096568331,64.81485121798538,32.39182216829491,1823.9340626887133,65.96308367070638,1804.223517826584,0
-11.983376258487462,47.460077174235664,-38.9872451444584,-114.42209674958035,117.79526774595266,108.74274905422448,-111.74079968171873,-14.653846153846148,11.825910931174082,-24.160975609756104,1.7887323943662015,-1.1651376146789154,0.9407407407407398,8.73544973544974,11.545454545454545,9.35203096568331,64.81485121798538,32.810232859060505,1955.9787711485353,66.95647302275815,1707.6862974834055,0
-11.983376258487462,47.460077174235664,-38.9872451444584,-114.42209674958035,117.79526774595266,108.74274905422448,-111.74079968171873,-8.141025641025635,19.0242914979757,-74.9609756097561,-12.521126760563376,-1.5987211554602254e-14,6.585185185185184,-3.3597883597883564,3.8484848484848477,16.055109737847403,601.6368190040747,32.810232859060505,1955.9787711485353,66.95647302275815,1707.6862974834055,0
-11.983376258487462,47.460077174235664,-38.9872451444584,-114.42209674958035,117.79526774595266,108.74274905422448,-111.74079968171873,-26.051282051282044,-19.024291497975714,-4.336585365853665,42.929577464788736,2.330275229357781,-6.585185185185187,-2.0158730158730123,16.676767676767675,14.993729685885476,204.9750412910794,32.810232859060505,1955.9787711485353,66.95647302275815,1707.6862974834055,0
-13.380941231561685,43.46423271000296,-40.09169968112861,-113.4336944910728,116.59327521793274,110.56847414880201,-111.38710960811619,-26.051282051282044,-19.024291497975714,-4.336585365853665,42.929577464788736,2.330275229357781,-6.585185185185187,-2.0158730158730123,16.676767676767675,14.993729685885476,204.9750412910794,32.31229120756442,1821.072042524867,65.66320896073479,1714.357960610887,0
-13.380941231561685,43.46423271000296,-40.09169968112861,-113.4336944910728,116.59327521793274,110.56847414880201,-111.38710960811619,-47.217948717948715,-51.931174089068826,-10.531707317073177,-17.88732394366197,-22.137614678899098,-23.51851851851852,-10.079365079365076,-3.8484848484848495,23.394017149127528,305.516223756867,32.31229120756442,1821.072042524867,65.66320896073479,1714.357960610887,0
-13.380941231561685,43.46423271000296,-40.09169968112861,-113.4336944910728,116.59327521793274,110.56847414880201,-111.38710960811619,-34.192307692307686,-50.902834008097166,-81.15609756097561,-53.66197183098591,-39.61467889908258,-17.874074074074077,-10.079365079365076,-1.2828282828282838,36.095519678464555,685.0120053884765,32.31229120756442,1821.072042524867,65.66320896073479,1714.357960610887,0
-17.989932100210712,39.76996141288215,-43.380519856991015,-111.7863573935602,115.18567870485677,112.266078184111,-109.87129500696244,-34.192307692307686,-50.902834008097166,-81.15609756097561,-53.66197183098591,-39.61467889908258,-17.874074074074077,-10.079365079365076,-1.2828282828282838,36.095519678464555,685.0120053884765,33.713471123361295,1815.8149634483527,64.97894622114445,1646.459338567274,0
-17.989932100210712,39.76996141288215,-43.380519856991015,-111.7863573935602,115.18567870485677,112.266078184111,-109.87129500696244,-27.679487179487175,-24.165991902834012,-53.897560975609764,-8.943661971830982,-36.119266055045884,-8.466666666666669,-7.391534391534388,6.4141414141414135,21.634788819643788,294.6620658757123,33.713471123361295,1815.8149634483527,64.97894622114445,1646.459338567274,0
-17.989932100210712,39.76996141288215,-43.380519856991015,-111.7863573935602,115.18567870485677,112.266078184111,-109.87129500696244,-26.051282051282044,3.5991902834008034,-92.30731707317074,-3.57746478873239,13.981651376146772,0.9407407407407398,-15.455026455026452,1.282828282828282,19.649437631416028,939.0191960571425,33.713471123361295,1815.8149634483527,64.97894622114445,1646.459338567274,0
-21.49871224537578,45.726031463342224,-47.282925886559084,-109.67388982145582,113.33524283935242,114.12383354350567,-107.29441018500103,-26.051282051282044,3.5991902834008034,-92.30731707317074,-3.57746478873239,13.981651376146772,0.9407407407407398,-15.455026455026452,1.282828282828282,19.649437631416028,939.0191960571425,38.1692231984257,2305.776331185461,67.56094905711905,1330.7308149266646,0
-21.49871224537578,45.726031463342224,-47.282925886559084,-109.67388982145582,113.33524283935242,114.12383354350567,-107.29441018500103,-4.88461538461538,-6.684210526315796,-47.70243902439025,16.09859154929578,30.29357798165136,8.466666666666665,-11.42328042328042,14.11111111111111,17.458061583415844,211.99346662194284,38.1692231984257,2305.776331185461,67.56094905711905,1330.7308149266646,0
-21.49871224537578,45.726031463342224,-47.282925886559084,-109.67388982145582,113.33524283935242,114.12383354350567,-107.29441018500103,-8.141025641025635,27.25101214574898,-4.336585365853665,-33.985915492957744,-22.137614678899098,-17.874074074074077,-19.486772486772484,19.242424242424242,19.05692801596949,90.99600615603127,38.1692231984257,2305.776331185461,67.56094905711905,1330.7308149266646,0
-25.602200889721367,49.118729593351134,-51.65165716494347,-106.8249656645811,110.88381070983809,115.9495586380832,-102.84802068828327,-8.141025641025635,27.25101214574898,-4.336585365853665,-33.985915492957744,-22.137614678899098,-17.874074074074077,-19.486772486772484,19.242424242424242,19.05692801596949,90.99600615603127,42.12419588267199,2736.07707865119,69.19845080762524,1063.4198957312735,0
-25.602200889721367,49.118729593351134,-51.65165716494347,-106.8249656645811,110.88381070983809,115.9495586380832,-102.84802068828327,-14.653846153846148,-4.6275303643724754,-50.180487804878055,10.732394366197187,-1.1651376146789154,-2.8222222222222237,-4.703703703703701,3.8484848484848477,11.591725884797944,262.96116653264534,42.12419588267199,2736.07707865119,69.19845080762524,1063.4198957312735,0
-25.602200889721367,49.118729593351134,-51.65165716494347,-106.8249656645811,110.88381070983809,115.9495586380832,-102.84802068828327,-43.96153846153845,-64.27125506072875,-47.70243902439025,12.521126760563384,-11.651376146789007,-8.466666666666669,-31.58201058201058,1.282828282828282,27.67990512318942,510.4004665071512,42.12419588267199,2736.07707865119,69.19845080762524,1063.4198957312735,0
-16.59236712713649,31.175126150192924,-59.75099043385834,-103.70471539752785,108.30585305105852,119.47288776796972,-101.83747762084744,-43.96153846153845,-64.27125506072875,-47.70243902439025,12.521126760563384,-11.651376146789007,-8.466666666666669,-31.58201058201058,1.282828282828282,27.67990512318942,510.4004665071512,35.83949457039592,2068.659809464618,64.87694399385971,1334.8418790212486,0
-16.59236712713649,31.175126150192924,-59.75099043385834,-103.70471539752785,108.30585305105852,119.47288776796972,-101.83747762084744,-22.79487179487179,-8.740890688259114,-17.965853658536595,-8.943661971830982,-31.45871559633029,-27.281481481481485,2.0158730158730194,21.80808080808081,17.62617862690801,103.84272925097628,35.83949457039592,2068.659809464618,64.87694399385971,1334.8418790212486,0
-16.59236712713649,31.175126150192924,-59.75099043385834,-103.70471539752785,108.30585305105852,119.47288776796972,-101.83747762084744,-19.538461538461533,-17.995951417004054,-57.61463414634147,7.154929577464793,-1.5987211554602254e-14,0.9407407407407398,8.73544973544974,3.8484848484848477,14.4785815004934,355.88773778397234,35.83949457039592,2068.659809464618,64.87694399385971,1334.8418790212486,0
-14.124326855537333,32.60759869397446,-70.5746448932264,-100.08057378300015,104.9687422166874,124.50163934426229,-102.1406405410782,-19.538461538461533,-17.995951417004054,-57.61463414634147,7.154929577464793,-1.5987211554602254e-14,0.9407407407407398,8.73544973544974,3.8484848484848477,14.4785815004934,355.88773778397234,39.1021901475794,2669.5144439683017,67.75427245673367,1144.116467351466,0
-14.124326855537333,32.60759869397446,-70.5746448932264,-100.08057378300015,104.9687422166874,124.50163934426229,-102.1406405410782,-24.42307692307692,-6.684210526315796,-15.487804878048788,-7.1549295774647845,-12.816513761467906,-10.34814814814815,10.079365079365083,-3.8484848484848495,11.355316717796535,41.205194711991396,39.1021901475794,2669.5144439683017,67.75427245673367,1144.116467351466,0
-14.124326855537333,32.60759869397446,-70.5746448932264,-100.08057378300015,104.9687422166874,124.50163934426229,-102.1406405410782,11.397435897435901,8.740890688259103,-58.85365853658537,1.7887323943662015,8.155963302752276,14.11111111111111,34.26984126984127,26.939393939393938,20.532128392468145,352.3581702642088,39.1021901475794,2669.5144439683017,67.75427245673367,1144.116467351466,0
-38.507375321938646,36.377263282873244,-69.34747318581506,-93.82069281245231,100.84084682440846,127.0,-95.06683906902725,11.397435897435901,8.740890688259103,-58.85365853658537,1.7887323943662015,8.155963302752276,14.11111111111111,34.26984126984127,26.939393939393938,20.532128392468145,352.3581702642088,48.07737059687565,2956.090106100058,66.51514309371353,830.9534693428968,0
-38.507375321938646,36.377263282873244,-69.34747318581506,-93.82069281245231,100.84084682440846,127.0,-95.06683906902725,16.282051282051285,24.165991902834,-21.6829268292683,-1.7887323943661926,-1.1651376146789154,-6.585185185185187,11.423280423280428,32.07070707070707,14.395501587796424,124.04990108222492,48.07737059687565,2956.090106100058,66.51514309371353,830.9534693428968,0
-38.507375321938646,36.377263282873244,-69.34747318581506,-93.82069281245231,100.84084682440846,127.0,-95.06683906902725,-32.564102564102555,3.5991902834008034,-1.8585365853658615,-19.676056338028165,-5.825688073394511,-8.466666666666669,7.391534391534396,1.282828282828282,10.083075398165155,116.07607670209245,48.07737059687565,2956.090106100058,66.51514309371353,830.9534693428968,0
-66.16132053383282,35.39715048975956,-72.3908590201952,-87.48329009613917,97.45628891656287,126.42345523329129,-84.50666401432267,-32.564102564102555,3.5991902834008034,-1.8585365853658615,-19.676056338028165,-5.825688073394511,-8.466666666666669,7.391534391534396,1.282828282828282,10.083075398165155,116.07607670209245,57.98311001459586,3661.864196753503,65.0904332020313,718.2136476187021,0
-66.16132053383282,35.39715048975956,-72.3908590201952,-87.48329009613917,97.45628891656287,126.42345523329129,-84.50666401432267,-24.42307692307692,13.882591093117401,-62.57073170731708,-48.29577464788732,-5.825688073394511,-2.8222222222222237,3.3597883597883635,8.97979797979798,21.269958875825225,507.332951689155,57.98311001459586,3661.864196753503,65.0904332020313,718.2136476187021,0
-66.16132053383282,35.39715048975956,-72.3908590201952,-87.48329009613917,97.45628891656287,126.42345523329129,-84.50666401432267,-45.589743589743584,-55.01619433198381,-32.83414634146342,-39.352112676056336,-29.12844036697249,-21.63703703703704,3.3597883597883635,-1.2828282828282838,28.525036373234165,364.5737046886235,57.98311001459586,3661.864196753503,65.0904332020313,718.2136476187021,0
-77.16342776867243,36.754229741763126,-77.10319837665475,-80.39005035861437,93.64470734744705,124.78991172761664,-71.97592997811819,-45.589743589743584,-55.01619433198381,-32.83414634146342,-39.352112676056336,-29.12844036697249,-21.63703703703704,3.3597883597883635,-1.2828282828282838,28.525036373234165,364.5737046886235,63.6736186290301,4323.458376330875,64.74915949234408,590.4879177928,0
-77.16342776867243,36.754229741763126,-77.10319837665475,-80.39005035861437,93.64470734744705,124.78991172761664,-71.97592997811819,-27.679487179487175,-4.6275303643724754,-10.531707317073177,-16.09859154929577,3.4954128440366805,-2.8222222222222237,-18.14285714285714,-3.8484848484848495,10.905786683478686,81.47386304982956,63.6736186290301,4323.458376330875,64.74915949234408,590.4879177928,0
-77.16342776867243,36.754229741763126,-77.10319837665475,-80.39005035861437,93.64470734744705,124.78991172761664,-71.97592997811819,-37.44871794871794,-33.42105263157895,-24.160975609756104,-10.732394366197179,-18.642201834862398,-21.63703703703704,-10.079365079365076,-3.8484848484848495,19.99627866949994,135.9426397502606,63.6736186290301,4323.458376330875,64.74915949234408,590.4879177928,0
-80.73167876375555,53.94390026714157,-84.12262054304763,-73.19990843888296,88.83673723536737,123.09230769230771,-58.535707181221426,-37.44871794871794,-33.42105263157895,-24.160975609756104,-10.732394366197179,-18.642201834862398,-21.63703703703704,-10.079365079365076,-3.8484848484848495,19.99627866949994,135.9426397502606,72.93273319131492,6201.895707014728,70.42214308302405,233.47577465200334,0
-80.73167876375555,53.94390026714157,-84.12262054304763,-73.19990843888296,88.83673723536737,123.09230769230771,-58.535707181221426,-32.564102564102555,-11.825910931174095,-13.009756097560985,7.154929577464793,-4.660550458715612,0.9407407407407398,6.047619047619051,14.11111111111111,11.289340066061119,94.20414282447835,72.93273319131492,6201.895707014728,70.42214308302405,233.47577465200334,0
-80.73167876375555,53.94390026714157,-84.12262054304763,-73.19990843888296,88.83673723536737,123.09230769230771,-58.535707181221426,21.16666666666667,55.0161943319838,-31.595121951219518,-19.676056338028165,2.330275229357781,2.822222222222221,8.73544973544974,29.505050505050505,21.3558796224973,310.2672561970894,72.93273319131492,6201.895707014728,70.42214308302405,233.47577465200334,0
-82.75368766096932,60.88008311071533,-93.89090733404194,-65.38959255302915,82.9849315068493,121.65094577553594,-45.29759299781182,21.16666666666667,55.0161943319838,-31.595121951219518,-19.676056338028165,2.330275229357781,2.822222222222221,8.73544973544974,29.505050505050505,21.3558796224973,310.2672561970894,79.17489270190886,7451.45954189838,73.38686099926214,320.3958559266771,0
-82.75368766096932,60.88008311071533,-93.89090733404194,-65.38959255302915,82.9849315068493,121.65094577553594,-45.29759299781182,-35.82051282051282,-26.22267206477733,-61.331707317073175,10.732394366197187,-15.146788990825703,-19.75555555555556,-16.798941798941797,-8.97979797979798,24.348546361710195,298.17643001953394,79.17489270190886,7451.45954189838,73.38686099926214,320.3958559266771,0
-82.75368766096932,60.88008311071533,-93.89090733404194,-65.38959255302915,82.9849315068493,121.65094577553594,-45.29759299781182,-35.82051282051282,-13.882591093117414,-45.22439024390245,-37.56338028169014,-20.9724770642202,-10.34814814814815,0.6719576719576756,8.97979797979798,21.68290691291835,256.9883044178234,79.17489270190886,7451.45954189838,73.38686099926214,320.3958559266771,0
-92.41770077265276,61.10626298604926,-98.62779012464972,-56.9203418281703,76.62702366127023,118.99243379571249,-30.998408593594604,-35.82051282051282,-13.882591093117414,-45.22439024390245,-37.56338028169014,-20.9724770642202,-10.34814814814815,0.6719576719576756,8.97979797979798,21.68290691291835,256.9883044178234,84.05058462778392,8187.190063519107,72.21813164628976,527.4830296927023,0
-92.41770077265276,61.10626298604926,-98.62779012464972,-56.9203418281703,76.62702366127023,118.99243379571249,-30.998408593594604,-34.192307692307686,-20.052631578947373,-34.07317073170732,-16.09859154929577,-17.4770642201835,-14.111111111111114,6.047619047619051,-1.2828282828282838,17.916915526750014,138.00446161469998,84.05058462778392,8187.190063519107,72.21813164628976,527.4830296927023,0
-92.41770077265276,61.10626298604926,-98.62779012464972,-56.9203418281703,76.62702366127023,118.99243379571249,-30.998408593594604,-26.051282051282044,-4.6275303643724754,0.619512195121942,8.943661971830991,-16.311926605504603,-23.51851851851852,-19.486772486772484,1.282828282828282,12.605254059528917,101.41377037378321,84.05058462778392,8187.190063519107,72.21813164628976,527.4830296927023,0
-108.86139077499413,59.37221727515582,-102.03932747125326,-47.63711277277582,69.84209215442091,113.96368221941992,-14.374975134274905,-26.051282051282044,-4.6275303643724754,0.619512195121942,8.943661971830991,-16.311926605504603,-23.51851851851852,-19.486772486772484,1.282828282828282,12.605254059528917,101.41377037378321,90.09097850713441,9067.129033785624,69.6828858397283,819.6326557111558,0
