Gyro 0,Gyro 1,Gyro 2,Orientation 0,Orientation 1,Orientation 2,Orientation 3,Sensor 0,Sensor 1,Sensor 2,Sensor 3,Sensor 4,Sensor 5,Sensor 6,Sensor 7,Sensor Mean,Sensor Variance,Gyro Mean,Gyro Variance,Orientation Mean,Orientation Variance,Label
-21.54115902108274,43.523243243243236,-30.569853883619583,-122.97658402203857,125.14469565217392,56.4125074449077,-27.48618139353829,-1.739726027397258,-1.509903313490213e-14,11.678160919540232,-9.130718954248355,8.64397905759163,-13.13793103448276,-21.35398230088495,24.96581196581195,11.331288782494642,74.59988671284766,31.87808538264852,1634.1134691309255,65.68989371630046,2503.271238614664,0
-21.54115902108274,43.523243243243236,-30.569853883619583,-122.97658402203857,125.14469565217392,56.4125074449077,-27.48618139353829,4.05936073059361,13.655913978494606,10.218390804597703,-12.450980392156852,5.984293193717286,-14.389162561576356,-19.106194690265482,20.62393162393161,12.561028496916688,33.346045672920454,31.87808538264852,1634.1134691309255,65.68989371630046,2503.271238614664,0
-21.54115902108274,43.523243243243236,-30.569853883619583,-122.97658402203857,125.14469565217392,56.4125074449077,-27.48618139353829,-0.5799086757990843,-13.655913978494638,4.379310344827588,-19.091503267973845,7.314136125654459,-10.635467980295568,-14.610619469026545,20.62393162393161,11.361348933250419,49.038380492131274,31.87808538264852,1634.1134691309255,65.68989371630046,2503.271238614664,0
-21.54115902108274,43.523243243243236,-30.569853883619583,-122.97658402203857,125.14469565217392,56.4125074449077,-27.48618139353829,1.7397260273972628,-9.55913978494625,11.678160919540232,-30.712418300653585,-32.581151832460726,-18.142857142857146,-19.106194690265482,29.307692307692292,19.10341762572662,124.17051207611993,31.87808538264852,1634.1134691309255,65.68989371630046,2503.271238614664,0
-21.54115902108274,43.523243243243236,-30.569853883619583,-122.97658402203857,125.14469565217392,56.4125074449077,-27.48618139353829,-2.8995433789954315,-1.509903313490213e-14,26.275862068965523,-14.1111111111111,-0.664921465968578,-19.39408866995074,-19.106194690265482,27.136752136752122,13.698559190251125,124.96719041732278,31.87808538264852,1634.1134691309255,65.68989371630046,2503.271238614664,0
-24.958682063777943,43.88936936936936,-30.179184824403997,-122.82108968472605,125.04162318840581,56.71506849315068,-27.634488127676093,-2.8995433789954315,-1.509903313490213e-14,26.275862068965523,-14.1111111111111,-0.664921465968578,-19.39408866995074,-19.106194690265482,27.136752136752122,13.698559190251125,124.96719041732278,33.0090787525171,1708.9097592618236,65.62988129283313,2500.1180280579433,0
-24.958682063777943,43.88936936936936,-30.179184824403997,-122.82108968472605,125.04162318840581,56.71506849315068,-27.634488127676093,-1.739726027397258,-8.193548387096788,4.379310344827588,-19.091503267973845,-3.324607329842923,-20.645320197044335,-19.106194690265482,24.96581196581195,12.680752776282521,84.71907325066215,33.0090787525171,1708.9097592618236,65.62988129283313,2500.1180280579433,0
-24.958682063777943,43.88936936936936,-30.179184824403997,-122.82108968472605,125.04162318840581,56.71506849315068,-27.634488127676093,9.858447488584478,15.02150537634407,1.4597701149425308,-20.751633986928095,-5.984293193717269,-19.39408866995074,-21.35398230088495,24.96581196581195,14.84869163714551,68.9933533539156,33.0090787525171,1708.9097592618236,65.62988129283313,2500.1180280579433,0
-23.909206483737684,43.34018018018018,-30.200888661027086,-122.84052647689012,125.07107246376812,56.71506849315068,-27.683923705722066,9.858447488584478,15.02150537634407,1.4597701149425308,-20.751633986928095,-5.984293193717269,-19.39408866995074,-21.35398230088495,24.96581196581195,14.84869163714551,68.9933533539156,32.48342510831498,1661.7256796000565,65.46053177269913,2512.508089596062,0
-23.909206483737684,43.34018018018018,-30.200888661027086,-122.84052647689012,125.07107246376812,56.71506849315068,-27.683923705722066,6.378995433789957,-2.731182795698939,5.839080459770117,-5.8104575163398575,19.282722513089013,-8.133004926108375,-11.238938053097343,29.307692307692292,11.090259250698235,79.32573299996149,32.48342510831498,1661.7256796000565,65.46053177269913,2512.508089596062,0
-23.909206483737684,43.34018018018018,-30.200888661027086,-122.84052647689012,125.07107246376812,56.71506849315068,-27.683923705722066,-4.059360730593605,-27.31182795698926,4.379310344827588,-27.39215686274509,-7.314136125654441,-20.645320197044335,-21.35398230088495,20.62393162393161,16.63500326783386,97.02875026489585,32.48342510831498,1661.7256796000565,65.46053177269913,2512.508089596062,0
-23.02118868524208,43.614774774774766,-30.417927027257967,-122.97658402203857,125.07107246376812,56.8966051220965,-28.02997275204359,-4.059360730593605,-27.31182795698926,4.379310344827588,-27.39215686274509,-7.314136125654441,-20.645320197044335,-21.35398230088495,20.62393162393161,16.63500326783386,97.02875026489585,32.35129682909161,1662.650716742275,65.6697619413571,2506.5930903579456,0
-23.02118868524208,43.614774774774766,-30.417927027257967,-122.97658402203857,125.07107246376812,56.8966051220965,-28.02997275204359,15.657534246575345,42.333333333333314,-4.379310344827584,-27.39215686274509,-19.282722513088995,-14.389162561576356,-14.610619469026545,27.136752136752122,20.64769893349067,132.1290344341772,32.35129682909161,1662.650716742275,65.6697619413571,2506.5930903579456,0
-23.02118868524208,43.614774774774766,-30.417927027257967,-122.97658402203857,125.07107246376812,56.8966051220965,-28.02997275204359,6.378995433789957,23.215053763440842,-2.9195402298850563,-12.450980392156852,27.26178010471205,-9.384236453201972,-21.35398230088495,20.62393162393161,15.448562537750412,78.07484571766611,32.35129682909161,1662.650716742275,65.6697619413571,2506.5930903579456,0
-23.828477592965356,46.452252252252244,-30.439630863881057,-123.03489439853075,124.99744927536234,57.01762954139372,-28.02997275204359,6.378995433789957,23.215053763440842,-2.9195402298850563,-12.450980392156852,27.26178010471205,-9.384236453201972,-21.35398230088495,20.62393162393161,15.448562537750412,78.07484571766611,33.57345356969955,1815.908337382184,66.64225917155468,2449.1979918139173,0
-23.828477592965356,46.452252252252244,-30.439630863881057,-123.03489439853075,124.99744927536234,57.01762954139372,-28.02997275204359,-16.817351598173513,-47.79569892473119,18.977011494252878,-10.790849673202603,7.314136125654459,-15.640394088669952,-12.362831858407077,22.79487179487178,19.06164319474543,158.2308469071307,33.57345356969955,1815.908337382184,66.64225917155468,2449.1979918139173,0
-23.828477592965356,46.452252252252244,-30.439630863881057,-123.03489439853075,124.99744927536234,57.01762954139372,-28.02997275204359,6.378995433789957,-17.752688172043023,-11.678160919540229,-9.130718954248355,-12.633507853403131,-18.142857142857146,-22.477876106194685,33.64957264957263,16.480547153956145,75.57842213492943,33.57345356969955,1815.908337382184,66.64225917155468,2449.1979918139173,0
-25.631422820214006,47.55063063063062,-29.962146458173116,-122.97658402203857,124.92382608695654,56.92686122692078,-27.585052549630177,6.378995433789957,-17.752688172043023,-11.678160919540229,-9.130718954248355,-12.633507853403131,-18.142857142857146,-22.477876106194685,33.64957264957263,16.480547153956145,75.57842213492943,34.38139996967258,1897.0997877548723,66.82978703694744,2441.6858026349755,0
-25.631422820214006,47.55063063063062,-29.962146458173116,-122.97658402203857,124.92382608695654,56.92686122692078,-27.585052549630177,-1.739726027397258,-10.924731182795714,2.91954022988506,-35.69281045751633,1.9947643979057674,-24.399014778325125,-20.230088495575217,16.28205128205127,14.272840856431468,149.8310891884192,34.38139996967258,1897.0997877548723,66.82978703694744,2441.6858026349755,0
-25.631422820214006,47.55063063063062,-29.962146458173116,-122.97658402203857,124.92382608695654,56.92686122692078,-27.585052549630177,-5.219178082191778,-27.31182795698926,32.11494252873564,-12.450980392156852,11.303664921465977,-15.640394088669952,-24.725663716814154,18.45299145299144,18.40245539250188,82.09077206833479,34.38139996967258,1897.0997877548723,66.82978703694744,2441.6858026349755,0
-26.653988769996822,46.08612612612612,-29.72340425531915,-122.8988368533823,124.92382608695654,56.56378796902919,-26.942390035033043,-5.219178082191778,-27.31182795698926,32.11494252873564,-12.450980392156852,11.303664921465977,-15.640394088669952,-24.725663716814154,18.45299145299144,18.40245539250188,82.09077206833479,34.15450638381403,1841.2717538629959,66.23612241160919,2474.9320726877886,0
-26.653988769996822,46.08612612612612,-29.72340425531915,-122.8988368533823,124.92382608695654,56.56378796902919,-26.942390035033043,1.7397260273972628,-30.043010752688186,-14.597701149425287,-9.130718954248355,16.62303664921467,-11.886699507389164,-14.610619469026545,24.96581196581195,15.449665559400177,78.13080900407036,34.15450638381403,1841.2717538629959,66.23612241160919,2474.9320726877886,0
-26.653988769996822,46.08612612612612,-29.72340425531915,-122.8988368533823,124.92382608695654,56.56378796902919,-26.942390035033043,-6.378995433789952,-13.655913978494638,-2.9195402298850563,-14.1111111111111,-29.921465968586375,-16.891625615763548,-16.858407079646014,20.62393162393161,15.170123880151037,69.13357992963226,34.15450638381403,1841.2717538629959,66.23612241160919,2474.9320726877886,0
-26.22343468587774,46.17765765765765,-29.202512176365033,-122.99602081420264,124.98272463768116,56.140202501489,-26.497469832619686,-6.378995433789952,-13.655913978494638,-2.9195402298850563,-14.1111111111111,-29.921465968586375,-16.891625615763548,-16.858407079646014,20.62393162393161,15.170123880151037,69.13357992963226,33.867868173300145,1822.160513239595,66.12539688274177,2497.7397907929994,0
-26.22343468587774,46.17765765765765,-29.202512176365033,-122.99602081420264,124.98272463768116,56.140202501489,-26.497469832619686,1.7397260273972628,9.559139784946222,-10.2183908045977,-19.091503267973845,-0.664921465968578,-20.645320197044335,-20.230088495575217,22.79487179487178,13.117995229796868,77.45492060444849,33.867868173300145,1822.160513239595,66.12539688274177,2497.7397907929994,0
-26.22343468587774,46.17765765765765,-29.202512176365033,-122.99602081420264,124.98272463768116,56.140202501489,-26.497469832619686,-9.858447488584472,-34.139784946236574,13.137931034482762,-42.33333333333333,-3.324607329842923,-19.39408866995074,-25.849557522123888,16.28205128205127,20.539975200825744,167.54201475865688,33.867868173300145,1822.160513239595,66.12539688274177,2497.7397907929994,0
-24.366670198114207,45.99459459459459,-29.462958215842093,-123.15151515151516,125.02689855072465,56.04943418701606,-26.497469832619686,-9.858447488584472,-34.139784946236574,13.137931034482762,-42.33333333333333,-3.324607329842923,-19.39408866995074,-25.849557522123888,16.28205128205127,20.539975200825744,167.54201475865688,33.2747410028503,1778.42033515486,66.20302265398395,2500.67184864585,0
-24.366670198114207,45.99459459459459,-29.462958215842093,-123.15151515151516,125.02689855072465,56.04943418701606,-26.497469832619686,5.2191780821917835,-1.509903313490213e-14,27.73563218390805,-10.790849673202603,1.9947643979057674,-15.640394088669952,-15.73451327433628,33.64957264957263,13.845613043723386,143.97274349190346,33.2747410028503,1778.42033515486,66.20302265398395,2500.67184864585,0
-24.366670198114207,45.99459459459459,-29.462958215842093,-123.15151515151516,125.02689855072465,56.04943418701606,-26.497469832619686,1.7397260273972628,-1.3655913978494771,17.51724137931035,-7.470588235294106,15.293193717277495,-13.13793103448276,-16.858407079646014,24.96581196581195,12.293561354633676,67.49805381625995,33.2747410028503,1778.42033515486,66.20302265398395,2500.67184864585,0
-23.828477592965356,45.262342342342336,-29.224216012988123,-123.30700948882767,125.07107246376812,56.019178082191786,-26.695212144803406,1.7397260273972628,-1.3655913978494771,17.51724137931035,-7.470588235294106,15.293193717277495,-13.13793103448276,-16.858407079646014,24.96581196581195,12.293561354633676,67.49805381625995,32.77167864943194,1725.1504613420784,65.93118928138604,2533.2939323965816,0
-23.828477592965356,45.262342342342336,-29.224216012988123,-123.30700948882767,125.07107246376812,56.019178082191786,-26.695212144803406,-9.858447488584472,-25.9462365591398,14.59770114942529,-10.790849673202603,13.963350785340323,-11.886699507389164,-15.73451327433628,16.28205128205127,14.88248121493365,25.28205847826108,32.77167864943194,1725.1504613420784,65.93118928138604,2533.2939323965816,0
-23.828477592965356,45.262342342342336,-29.224216012988123,-123.30700948882767,125.07107246376812,56.019178082191786,-26.695212144803406,-2.8995433789954315,8.193548387096758,-2.9195402298850563,-29.052287581699336,11.303664921465977,-16.891625615763548,-15.73451327433628,16.28205128205127,12.909596833911706,74.3741644400596,32.77167864943194,1725.1504613420784,65.93118928138604,2533.2939323965816,0
-25.200868736094925,45.99459459459459,-28.76843544390327,-123.38475665748393,125.12997101449277,55.77712924359736,-26.497469832619686,-2.8995433789954315,8.193548387096758,-2.9195402298850563,-29.052287581699336,11.303664921465977,-16.891625615763548,-15.73451327433628,16.28205128205127,12.909596833911706,74.3741644400596,33.321299591530924,1778.5053652705915,66.04926223199392,2539.704330532783,0
-25.200868736094925,45.99459459459459,-28.76843544390327,-123.38475665748393,125.12997101449277,55.77712924359736,-26.497469832619686,-0.5799086757990843,4.096774193548372,27.73563218390805,-24.07189542483659,-1.994764397905751,-19.39408866995074,-20.230088495575217,24.96581196581195,15.383620500916969,126.46472358754009,33.321299591530924,1778.5053652705915,66.04926223199392,2539.704330532783,0
-25.200868736094925,45.99459459459459,-28.76843544390327,-123.38475665748393,125.12997101449277,55.77712924359736,-26.497469832619686,15.657534246575345,-8.193548387096788,-37.95402298850575,-15.771241830065348,15.293193717277495,-14.389162561576356,-20.230088495575217,29.307692307692292,19.599560566795574,91.07391866795926,33.321299591530924,1778.5053652705915,66.04926223199392,2539.704330532783,0
-24.60885687043119,47.45909909909909,-28.594804750918566,-123.59856137128864,125.17414492753623,55.504824300178655,-26.299727520435965,15.657534246575345,-8.193548387096788,-37.95402298850575,-15.771241830065348,15.293193717277495,-14.389162561576356,-20.230088495575217,29.307692307692292,19.599560566795574,91.07391866795926,33.55425357348295,1832.312391493308,66.55082174043544,2529.7988480559134,0
-24.60885687043119,47.45909909909909,-28.594804750918566,-123.59856137128864,125.17414492753623,55.504824300178655,-26.299727520435965,-8.6986301369863,-23.215053763440874,14.59770114942529,-4.15032679738561,11.303664921465977,-13.13793103448276,-15.73451327433628,18.45299145299144,13.661351566314316,34.332662856157505,33.55425357348295,1832.312391493308,66.55082174043544,2529.7988480559134,0
-24.60885687043119,47.45909909909909,-28.594804750918566,-123.59856137128864,125.17414492753623,55.504824300178655,-26.299727520435965,-24.93607305936073,-55.98924731182797,30.655172413793107,-5.8104575163398575,-0.664921465968578,-16.891625615763548,-20.230088495575217,18.45299145299144,21.703822166452554,285.31370056763,33.55425357348295,1832.312391493308,66.55082174043544,2529.7988480559134,0
-25.120139845322598,47.001441441441436,-28.20413569170298,-123.87067646158555,125.27721739130435,55.08123883263846,-26.003114052160356,-24.93607305936073,-55.98924731182797,30.655172413793107,-5.8104575163398575,-0.664921465968578,-16.891625615763548,-20.230088495575217,18.45299145299144,21.703822166452554,285.31370056763,33.44190565948901,1811.1520582688563,66.35875119824333,2569.0508364844836,0
-25.120139845322598,47.001441441441436,-28.20413569170298,-123.87067646158555,125.27721739130435,55.08123883263846,-26.003114052160356,0.5799086757990892,4.096774193548372,27.73563218390805,-12.450980392156852,12.633507853403149,-11.886699507389164,-16.858407079646014,27.136752136752122,14.172332752825351,93.72575494759947,33.44190565948901,1811.1520582688563,66.35875119824333,2569.0508364844836,0
-25.120139845322598,47.001441441441436,-28.20413569170298,-123.87067646158555,125.27721739130435,55.08123883263846,-26.003114052160356,-13.337899543378994,-40.967741935483886,24.816091954022994,-12.450980392156852,-12.633507853403131,-16.891625615763548,-11.238938053097343,27.136752136752122,19.934192185507356,107.97060187516153,33.44190565948901,1811.1520582688563,66.35875119824333,2569.0508364844836,0
-23.478652399618603,44.89621621621621,-28.55139707767239,-124.16222834404653,125.39501449275365,54.92995830851697,-26.250291942389993,-13.337899543378994,-40.967741935483886,24.816091954022994,-12.450980392156852,-12.633507853403131,-16.891625615763548,-11.238938053097343,27.136752136752122,19.934192185507356,107.97060187516153,32.308755231169066,1682.5678825616662,65.86994721264504,2615.280807794686,0
-23.478652399618603,44.89621621621621,-28.55139707767239,-124.16222834404653,125.39501449275365,54.92995830851697,-26.250291942389993,-9.858447488584472,-21.84946236559141,39.413793103448285,-2.49019607843136,3.32460732984294,-11.886699507389164,-15.73451327433628,18.45299145299144,15.376338825076918,140.4594615962205,32.308755231169066,1682.5678825616662,65.86994721264504,2615.280807794686,0
-23.478652399618603,44.89621621621621,-28.55139707767239,-124.16222834404653,125.39501449275365,54.92995830851697,-26.250291942389993,6.378995433789957,4.096774193548372,23.356321839080465,7.47058823529413,25.931937172774877,-5.630541871921183,-16.858407079646014,31.478632478632463,15.150274788085934,114.54779286074798,32.308755231169066,1682.5678825616662,65.86994721264504,2615.280807794686,0
-24.232122046826994,44.25549549549549,-28.68162009741092,-124.29828588919497,125.48336231884058,54.80893388921976,-26.398598676527797,6.378995433789957,4.096774193548372,23.356321839080465,7.47058823529413,25.931937172774877,-5.630541871921183,-16.858407079646014,31.478632478632463,15.150274788085934,114.54779286074798,32.38974587991114,1671.6957700897628,65.74513382736713,2631.9901110104165,0
-24.232122046826994,44.25549549549549,-28.68162009741092,-124.29828588919497,125.48336231884058,54.80893388921976,-26.398598676527797,-5.219178082191778,-12.290322580645174,-14.597701149425287,-27.39215686274509,8.64397905759163,-19.39408866995074,-19.106194690265482,29.307692307692292,16.993914175063434,72.31522667806097,32.38974587991114,1671.6957700897628,65.74513382736713,2631.9901110104165,0
-24.232122046826994,44.25549549549549,-28.68162009741092,-124.29828588919497,125.48336231884058,54.80893388921976,-26.398598676527797,2.8995433789954363,21.849462365591382,26.275862068965523,-15.771241830065348,5.984293193717286,-11.886699507389164,-15.73451327433628,24.96581196581195,15.670928448109045,72.61534738508972,32.38974587991114,1671.6957700897628,65.74513382736713,2631.9901110104165,0
-25.523784299184236,46.54378378378377,-29.13740066649577,-124.35659626568717,125.54226086956523,54.56688505062539,-26.200856364344077,2.8995433789954363,21.849462365591382,26.275862068965523,-15.771241830065348,5.984293193717286,-11.886699507389164,-15.73451327433628,24.96581196581195,15.670928448109045,72.61534738508972,33.734989583154594,1822.4057120734276,66.67926023865557,2570.7518616877906,0
-25.523784299184236,46.54378378378377,-29.13740066649577,-124.35659626568717,125.54226086956523,54.56688505062539,-26.200856364344077,-12.17808219178082,-27.31182795698926,10.218390804597703,-9.130718954248355,20.612565445026185,-10.635467980295568,-15.73451327433628,16.28205128205127,15.26295223616568,38.433802726871235,33.734989583154594,1822.4057120734276,66.67926023865557,2570.7518616877906,0
-25.523784299184236,46.54378378378377,-29.13740066649577,-124.35659626568717,125.54226086956523,54.56688505062539,-26.200856364344077,6.378995433789957,12.290322580645146,8.758620689655174,-10.790849673202603,-16.62303664921465,-16.891625615763548,-11.238938053097343,22.79487179487178,13.220907561280026,27.733226153500567,33.734989583154594,1822.4057120734276,66.67926023865557,2570.7518616877906,0
-23.263375357559063,44.07243243243243,-29.007177646757242,-124.53152739516375,125.61588405797103,54.59714115544966,-26.5469054106656,6.378995433789957,12.290322580645146,8.758620689655174,-10.790849673202603,-16.62303664921465,-16.891625615763548,-11.238938053097343,22.79487179487178,13.220907561280026,27.733226153500567,32.11432847891624,1651.2886141324127,65.87037915811781,2637.588209805836,0
-23.263375357559063,44.07243243243243,-29.007177646757242,-124.53152739516375,125.61588405797103,54.59714115544966,-26.5469054106656,4.05936073059361,-12.290322580645174,17.51724137931035,-12.450980392156852,0.6649214659685949,-13.13793103448276,-16.858407079646014,29.307692307692292,13.285857121311956,76.21331020701861,32.11432847891624,1651.2886141324127,65.87037915811781,2637.588209805836,0
-23.263375357559063,44.07243243243243,-29.007177646757242,-124.53152739516375,125.61588405797103,54.59714115544966,-26.5469054106656,8.698630136986305,15.02150537634407,37.954022988505756,-7.470588235294106,13.963350785340323,-11.886699507389164,-20.230088495575217,20.62393162393161,16.98110214367082,94.51978943079227,32.11432847891624,1651.2886141324127,65.87037915811781,2637.588209805836,0
-23.77465833245047,43.7063063063063,-29.072289156626507,-124.60927456382001,125.68950724637683,54.65765336509827,-26.942390035033043,8.698630136986305,15.02150537634407,37.954022988505756,-7.470588235294106,13.963350785340323,-11.886699507389164,-20.230088495575217,20.62393162393161,16.98110214367082,94.51978943079227,32.18441793179443,1646.4115730806043,65.79595667558428,2647.7933852512824,0
-23.77465833245047,43.7063063063063,-29.072289156626507,-124.60927456382001,125.68950724637683,54.65765336509827,-26.942390035033043,9.858447488584478,4.096774193548372,-2.9195402298850563,-14.1111111111111,-1.994764397905751,-18.142857142857146,-14.610619469026545,27.136752136752122,11.60885827120882,75.21583754907536,32.18441793179443,1646.4115730806043,65.79595667558428,2647.7933852512824,0
-23.77465833245047,43.7063063063063,-29.072289156626507,-124.60927456382001,125.68950724637683,54.65765336509827,-26.942390035033043,7.538812785388131,10.924731182795682,43.793103448275865,-5.8104575163398575,24.602094240837705,-14.389162561576356,-17.982300884955748,22.79487179487178,18.479441801880142,150.16328383681602,32.18441793179443,1646.4115730806043,65.79595667558428,2647.7933852512824,0
-25.76597097150122,44.89621621621621,-29.549773562334444,-124.49265381083563,125.70423188405799,54.50637284097678,-26.695212144803406,7.538812785388131,10.924731182795682,43.793103448275865,-5.8104575163398575,24.602094240837705,-14.389162561576356,-17.982300884955748,22.79487179487178,18.479441801880142,150.16328383681602,33.403986916683955,1758.277875717747,66.3128811964621,2597.5427816273773,0
-25.76597097150122,44.89621621621621,-29.549773562334444,-124.49265381083563,125.70423188405799,54.50637284097678,-26.695212144803406,-2.8995433789954315,-16.387096774193562,7.298850574712646,-7.470588235294106,5.984293193717286,-14.389162561576356,-17.982300884955748,20.62393162393161,11.629470903422092,42.23427397656555,33.403986916683955,1758.277875717747,66.3128811964621,2597.5427816273773,0
-25.76597097150122,44.89621621621621,-29.549773562334444,-124.49265381083563,125.70423188405799,54.50637284097678,-26.695212144803406,-0.5799086757990843,-24.580645161290334,-20.4367816091954,-24.07189542483659,3.32460732984294,-15.640394088669952,-15.73451327433628,18.45299145299144,15.352717127120254,79.9682799588234,33.403986916683955,1758.277875717747,66.3128811964621,2597.5427816273773,0
-25.227778366352368,44.621621621621614,-29.37614286934974,-124.55096418732782,125.79257971014495,54.32483621203096,-26.695212144803406,-0.5799086757990843,-24.580645161290334,-20.4367816091954,-24.07189542483659,3.32460732984294,-15.640394088669952,-15.73451327433628,18.45299145299144,15.352717127120254,79.9682799588234,33.07518095244124,1728.6361260651615,66.18290955943306,2613.2285063801737,0
-25.227778366352368,44.621621621621614,-29.37614286934974,-124.55096418732782,125.79257971014495,54.32483621203096,-26.695212144803406,2.8995433789954363,-6.827956989247326,-26.275862068965516,-15.771241830065348,4.654450261780113,-15.640394088669952,-20.230088495575217,20.62393162393161,14.115433592153815,71.58664164043638,33.07518095244124,1728.6361260651615,66.18290955943306,2613.2285063801737,0
-25.227778366352368,44.621621621621614,-29.37614286934974,-124.55096418732782,125.79257971014495,54.32483621203096,-26.695212144803406,14.497716894977172,24.580645161290306,-2.9195402298850563,-35.69281045751633,-8.643979057591615,-23.14778325123153,-21.35398230088495,22.79487179487178,19.203916143531096,104.6723095550441,33.07518095244124,1728.6361260651615,66.18290955943306,2613.2285063801737,0
-22.563724970865557,44.34702702702702,-29.61488507220371,-124.80364248546067,125.82202898550726,54.44586063132817,-27.090696769170847,14.497716894977172,24.580645161290306,-2.9195402298850563,-35.69281045751633,-8.643979057591615,-23.14778325123153,-21.35398230088495,22.79487179487178,19.203916143531096,104.6723095550441,32.17521235669876,1666.1886721787532,66.2551848615638,2625.2004192472023,0
-22.563724970865557,44.34702702702702,-29.61488507220371,-124.80364248546067,125.82202898550726,54.44586063132817,-27.090696769170847,0.5799086757990892,-32.77419354838711,-13.137931034482758,-30.712418300653585,-7.314136125654441,-18.142857142857146,-17.982300884955748,22.79487179487178,17.929827188457708,120.59164004704891,32.17521235669876,1666.1886721787532,66.2551848615638,2625.2004192472023,0
-22.563724970865557,44.34702702702702,-29.61488507220371,-124.80364248546067,125.82202898550726,54.44586063132817,-27.090696769170847,-6.378995433789952,-24.580645161290334,7.298850574712646,-10.790849673202603,21.942408376963357,-9.384236453201972,-19.106194690265482,20.62393162393161,15.013263998419744,53.050999849031314,32.17521235669876,1666.1886721787532,66.2551848615638,2625.2004192472023,0
-22.617544231380442,44.98774774774774,-30.179184824403997,-124.88138965411693,125.74840579710146,54.71816557474688,-27.33787465940054,-6.378995433789952,-24.580645161290334,7.298850574712646,-10.790849673202603,21.942408376963357,-9.384236453201972,-19.106194690265482,20.62393162393161,15.013263998419744,53.050999849031314,32.5948256011774,1712.9536107246067,66.68277407542288,2595.132525421114,0
-22.617544231380442,44.98774774774774,-30.179184824403997,-124.88138965411693,125.74840579710146,54.71816557474688,-27.33787465940054,-0.5799086757990843,-15.0215053763441,10.218390804597703,-12.450980392156852,7.314136125654459,-16.891625615763548,-16.858407079646014,22.79487179487178,12.766228233104194,46.32104963184758,32.5948256011774,1712.9536107246067,66.68277407542288,2595.132525421114,0
-22.617544231380442,44.98774774774774,-30.179184824403997,-124.88138965411693,125.74840579710146,54.71816557474688,-27.33787465940054,4.05936073059361,-15.0215053763441,30.655172413793107,-0.8300653594771124,16.62303664921467,-8.133004926108375,-11.238938053097343,29.307692307692292,14.483596977040078,118.86880855991045,32.5948256011774,1712.9536107246067,66.68277407542288,2595.132525421114,0
-24.28594130734188,43.7063063063063,-29.962146458173116,-124.86195286195286,125.74840579710146,54.74842167957115,-27.33787465940054,4.05936073059361,-15.0215053763441,30.655172413793107,-0.8300653594771124,16.62303664921467,-8.133004926108375,-11.238938053097343,29.307692307692292,14.483596977040078,118.86880855991045,32.6514646906071,1680.367662197051,66.17680187547742,2630.185692211823,0
-24.28594130734188,43.7063063063063,-29.962146458173116,-124.86195286195286,125.74840579710146,54.74842167957115,-27.33787465940054,14.497716894977172,8.193548387096758,1.7763568394002505e-15,-15.771241830065348,9.973821989528805,-15.640394088669952,-19.106194690265482,31.478632478632463,14.332693794904499,83.24160549255828,32.6514646906071,1680.367662197051,66.17680187547742,2630.185692211823,0
-24.28594130734188,43.7063063063063,-29.962146458173116,-124.86195286195286,125.74840579710146,54.74842167957115,-27.33787465940054,-2.8995433789954315,28.67741935483869,18.977011494252878,-19.091503267973845,-5.984293193717269,-15.640394088669952,-17.982300884955748,22.79487179487178,16.50591718228445,71.32211375079211,32.6514646906071,1680.367662197051,66.17680187547742,2630.185692211823,0
-25.120139845322598,43.98090090090089,-29.636588908826795,-124.82307927762473,125.77785507246377,54.627397260273995,-27.239003503308652,-2.8995433789954315,28.67741935483869,18.977011494252878,-19.091503267973845,-5.984293193717269,-15.640394088669952,-17.982300884955748,22.79487179487178,16.50591718228445,71.32211375079211,32.912543218350095,1702.4811583733047,66.1468563624508,2633.614173324876,0
-25.120139845322598,43.98090090090089,-29.636588908826795,-124.82307927762473,125.77785507246377,54.627397260273995,-27.239003503308652,-14.497716894977167,-36.870967741935495,37.954022988505756,-9.130718954248355,11.303664921465977,-10.635467980295568,-13.486725663716811,20.62393162393161,19.312902096134593,136.82125608597786,32.912543218350095,1702.4811583733047,66.1468563624508,2633.614173324876,0
-25.120139845322598,43.98090090090089,-29.636588908826795,-124.82307927762473,125.77785507246377,54.627397260273995,-27.239003503308652,-1.739726027397258,-35.50537634408603,-21.89655172413793,-30.712418300653585,0.6649214659685949,-19.39408866995074,-20.230088495575217,27.136752136752122,19.659990395565185,159.49726077173958,32.912543218350095,1702.4811583733047,66.1468563624508,2633.614173324876,0
-25.012501324292828,42.60792792792792,-29.13740066649577,-124.86195286195286,125.86620289855072,54.4156045265039,-27.189567925262736,-1.739726027397258,-35.50537634408603,-21.89655172413793,-30.712418300653585,0.6649214659685949,-19.39408866995074,-20.230088495575217,27.136752136752122,19.659990395565185,159.49726077173958,32.2526099729055,1622.8215703266212,65.53576048545885,2685.061602594829,0
-25.012501324292828,42.60792792792792,-29.13740066649577,-124.86195286195286,125.86620289855072,54.4156045265039,-27.189567925262736,-5.219178082191778,19.118279569892458,42.33333333333334,-10.790849673202603,8.64397905759163,-10.635467980295568,-11.238938053097343,20.62393162393161,16.07549467169204,139.06022673258775,32.2526099729055,1622.8215703266212,65.53576048545885,2685.061602594829,0
-25.012501324292828,42.60792792792792,-29.13740066649577,-124.86195286195286,125.86620289855072,54.4156045265039,-27.189567925262736,-4.059360730593605,-16.387096774193562,30.655172413793107,-14.1111111111111,-7.314136125654441,-16.891625615763548,-14.610619469026545,22.79487179487178,15.852999254375963,69.31967206921122,32.2526099729055,1622.8215703266212,65.53576048545885,2685.061602594829,0
-24.985591694035385,42.882522522522514,-29.354439032726653,-124.93970003060912,125.96927536231884,54.17355568790947,-27.189567925262736,-4.059360730593605,-16.387096774193562,30.655172413793107,-14.1111111111111,-7.314136125654441,-16.891625615763548,-14.610619469026545,22.79487179487178,15.852999254375963,69.31967206921122,32.40751774976152,1640.5577281858477,65.72555386195276,2675.488590588972,0
-24.985591694035385,42.882522522522514,-29.354439032726653,-124.93970003060912,125.96927536231884,54.17355568790947,-27.189567925262736,-9.858447488584472,-20.48387096774195,24.816091954022994,-10.790849673202603,-7.314136125654441,-14.389162561576356,-21.35398230088495,20.62393162393161,16.203809086949924,41.49072629444023,32.40751774976152,1640.5577281858477,65.72555386195276,2675.488590588972,0
-24.985591694035385,42.882522522522514,-29.354439032726653,-124.93970003060912,125.96927536231884,54.17355568790947,-27.189567925262736,4.05936073059361,6.827956989247296,-13.137931034482758,-32.37254901960783,-3.324607329842923,-16.891625615763548,-17.982300884955748,29.307692307692292,15.48800298902325,120.47781124829989,32.40751774976152,1640.5577281858477,65.72555386195276,2675.488590588972,0
-24.17830278631211,43.614774774774766,-29.093992993249593,-125.01744719926538,126.02817391304349,54.08278737343659,-27.239003503308652,4.05936073059361,6.827956989247296,-13.137931034482758,-32.37254901960783,-3.324607329842923,-16.891625615763548,-17.982300884955748,29.307692307692292,15.48800298902325,120.47781124829989,32.29569018477883,1651.1050476264368,65.90873832242991,2673.092874701534,0
-24.17830278631211,43.614774774774766,-29.093992993249593,-125.01744719926538,126.02817391304349,54.08278737343659,-27.239003503308652,14.497716894977172,13.655913978494606,-30.655172413793103,-12.450980392156852,19.282722513089013,-11.886699507389164,-14.610619469026545,27.136752136752122,18.02207216320982,50.866305749806024,32.29569018477883,1651.1050476264368,65.90873832242991,2673.092874701534,0
-24.17830278631211,43.614774774774766,-29.093992993249593,-125.01744719926538,126.02817391304349,54.08278737343659,-27.239003503308652,-12.17808219178082,-27.31182795698926,-4.379310344827584,-9.130718954248355,-1.994764397905751,-15.640394088669952,-17.982300884955748,20.62393162393161,13.655166305413635,71.77031404420619,32.29569018477883,1651.1050476264368,65.90873832242991,2673.092874701534,0
-24.17830278631211,43.523243243243236,-29.397846705972828,-125.0563207835935,126.08707246376814,54.08278737343659,-27.436745815492372,-12.17808219178082,-27.31182795698926,-4.379310344827584,-9.130718954248355,-1.994764397905751,-15.640394088669952,-17.982300884955748,20.62393162393161,13.655166305413635,71.77031404420619,32.366464245176054,1654.7047221504881,65.99247024426985,2666.2855372324548,0
-24.17830278631211,43.523243243243236,-29.397846705972828,-125.0563207835935,126.08707246376814,54.08278737343659,-27.436745815492372,1.7397260273972628,4.096774193548372,29.195402298850578,-12.450980392156852,5.984293193717286,-18.142857142857146,-20.230088495575217,27.136752136752122,14.872109235106855,109.77234230830655,32.366464245176054,1654.7047221504881,65.99247024426985,2666.2855372324548,0
-24.17830278631211,43.523243243243236,-29.397846705972828,-125.0563207835935,126.08707246376814,54.08278737343659,-27.436745815492372,2.8995433789954363,-12.290322580645174,16.05747126436782,-7.470588235294106,-1.994764397905751,-16.891625615763548,-11.238938053097343,20.62393162393161,11.183398143750098,44.79009796192544,32.366464245176054,1654.7047221504881,65.99247024426985,2666.2855372324548,0
-24.851043542748172,43.06558558558558,-29.072289156626507,-125.13406795224977,126.19014492753625,53.90125074449077,-27.53561697158426,2.8995433789954363,-12.290322580645174,16.05747126436782,-7.470588235294106,-1.994764397905751,-16.891625615763548,-11.238938053097343,20.62393162393161,11.183398143750098,44.79009796192544,32.329639428320085,1639.0600665019,65.75731423148729,2693.1522480492404,0
-24.851043542748172,43.06558558558558,-29.072289156626507,-125.13406795224977,126.19014492753625,53.90125074449077,-27.53561697158426,-0.5799086757990843,-4.096774193548402,16.05747126436782,-14.1111111111111,1.9947643979057674,-18.142857142857146,-17.982300884955748,20.62393162393161,11.698639911809586,65.86747683240013,32.329639428320085,1639.0600665019,65.75731423148729,2693.1522480492404,0
-24.851043542748172,43.06558558558558,-29.072289156626507,-125.13406795224977,126.19014492753625,53.90125074449077,-27.53561697158426,-0.5799086757990843,-15.0215053763441,49.63218390804598,-19.091503267973845,-5.984293193717269,-18.142857142857146,-17.982300884955748,24.96581196581195,18.92504555193814,214.31317768247715,32.329639428320085,1639.0600665019,65.75731423148729,2693.1522480492404,0
-24.20521241656955,43.7063063063063,-29.202512176365033,-125.2312519130701,126.26376811594203,53.810482430017885,-27.683923705722066,-0.5799086757990843,-15.0215053763441,49.63218390804598,-19.091503267973845,-5.984293193717269,-18.142857142857146,-17.982300884955748,24.96581196581195,18.92504555193814,214.31317768247715,32.37134363308029,1658.773865445981,66.0466901319138,2679.6992759615587,0
-24.20521241656955,43.7063063063063,-29.202512176365033,-125.2312519130701,126.26376811594203,53.810482430017885,-27.683923705722066,1.7397260273972628,-21.84946236559141,-4.379310344827584,-24.07189542483659,4.654450261780113,-11.886699507389164,-14.610619469026545,29.307692307692292,14.06248196356762,104.62879014863981,32.37134363308029,1658.773865445981,66.0466901319138,2679.6992759615587,0
-24.20521241656955,43.7063063063063,-29.202512176365033,-125.2312519130701,126.26376811594203,53.810482430017885,-27.683923705722066,-12.17808219178082,-46.430107526881734,11.678160919540232,4.150326797385635,25.931937172774877,-10.635467980295568,-22.477876106194685,20.62393162393161,19.263236289848145,172.1810087876918,32.37134363308029,1658.773865445981,66.0466901319138,2679.6992759615587,0
-23.182646466786736,43.614774774774766,-29.224216012988123,-125.38674625038261,126.33739130434783,53.87099463966649,-28.079408330089507,-12.17808219178082,-46.430107526881734,11.678160919540232,4.150326797385635,25.931937172774877,-10.635467980295568,-22.477876106194685,20.62393162393161,19.263236289848145,172.1810087876918,32.00721241818321,1633.985771014001,66.07524567938184,2690.162620356978,0
-23.182646466786736,43.614774774774766,-29.224216012988123,-125.38674625038261,126.33739130434783,53.87099463966649,-28.079408330089507,-1.739726027397258,-50.52688172043012,-36.49425287356322,-24.07189542483659,1.9947643979057674,-18.142857142857146,-19.106194690265482,18.45299145299144,21.316195466280877,267.2770673352594,32.00721241818321,1633.985771014001,66.07524567938184,2690.162620356978,0
-23.182646466786736,43.614774774774766,-29.224216012988123,-125.38674625038261,126.33739130434783,53.87099463966649,-28.079408330089507,6.378995433789957,25.94623655913977,-5.839080459770113,-30.712418300653585,-7.314136125654441,-19.39408866995074,-19.106194690265482,18.45299145299144,16.64301771152694,87.21611373665259,32.00721241818321,1633.985771014001,66.07524567938184,2690.162620356978,0
-22.832821273439983,42.882522522522514,-29.050585320003417,-125.61998775635139,126.42573913043479,53.90125074449077,-28.474892954456948,6.378995433789957,25.94623655913977,-5.839080459770113,-30.712418300653585,-7.314136125654441,-19.39408866995074,-19.106194690265482,18.45299145299144,16.64301771152694,87.21611373665259,31.588643038655306,1588.5898339741252,65.85103186629244,2727.076687834467,0
-22.832821273439983,42.882522522522514,-29.050585320003417,-125.61998775635139,126.42573913043479,53.90125074449077,-28.474892954456948,-0.5799086757990843,13.655913978494606,67.14942528735634,-10.790849673202603,-5.984293193717269,-19.39408866995074,-20.230088495575217,18.45299145299144,19.52969492838591,417.5354251792717,31.588643038655306,1588.5898339741252,65.85103186629244,2727.076687834467,0
-22.832821273439983,42.882522522522514,-29.050585320003417,-125.61998775635139,126.42573913043479,53.90125074449077,-28.474892954456948,0.5799086757990892,-2.731182795698939,-4.379310344827584,-5.8104575163398575,24.602094240837705,-5.630541871921183,-15.73451327433628,24.96581196581195,10.554227585696573,96.77634109070375,31.588643038655306,1588.5898339741252,65.85103186629244,2727.076687834467,0
-23.55938129039093,44.530090090090084,-28.725027770657096,-125.75604530149985,126.48463768115944,53.87099463966649,-28.67263526664067,0.5799086757990892,-2.731182795698939,-4.379310344827584,-5.8104575163398575,24.602094240837705,-5.630541871921183,-15.73451327433628,24.96581196581195,10.554227585696573,96.77634109070375,32.271499717046034,1671.528718204065,66.33705438741568,2710.4123596663035,0
-23.55938129039093,44.530090090090084,-28.725027770657096,-125.75604530149985,126.48463768115944,53.87099463966649,-28.67263526664067,5.2191780821917835,4.096774193548372,49.63218390804598,-4.15032679738561,15.293193717277495,-11.886699507389164,-12.362831858407077,27.136752136752122,16.2222425251247,240.53305394942063,32.271499717046034,1671.528718204065,66.33705438741568,2710.4123596663035,0
-23.55938129039093,44.530090090090084,-28.725027770657096,-125.75604530149985,126.48463768115944,53.87099463966649,-28.67263526664067,1.7397260273972628,8.193548387096758,24.816091954022994,-9.130718954248355,13.963350785340323,-11.886699507389164,-15.73451327433628,27.136752136752122,14.075175128322906,72.10455800223308,32.271499717046034,1671.528718204065,66.33705438741568,2710.4123596663035,0
-25.227778366352368,45.90306306306306,-29.24591984961121,-125.77548209366391,126.51408695652175,53.68945801072067,-28.474892954456948,1.7397260273972628,8.193548387096758,24.816091954022994,-9.130718954248355,13.963350785340323,-11.886699507389164,-15.73451327433628,27.136752136752122,14.075175128322906,72.10455800223308,33.45892042634221,1787.1852827075895,66.97482166877938,2662.5033548102965,0
-25.227778366352368,45.90306306306306,-29.24591984961121,-125.77548209366391,126.51408695652175,53.68945801072067,-28.474892954456948,-4.059360730593605,1.3655913978494478,1.4597701149425308,-17.431372549019596,-1.994764397905751,-15.640394088669952,-15.73451327433628,24.96581196581195,10.33144731489114,84.26916935996951,33.45892042634221,1787.1852827075895,66.97482166877938,2662.5033548102965,0
-25.227778366352368,45.90306306306306,-29.24591984961121,-125.77548209366391,126.51408695652175,53.68945801072067,-28.474892954456948,8.698630136986305,-10.924731182795714,-7.298850574712642,-20.751633986928095,-5.984293193717269,-14.389162561576356,-12.362831858407077,20.62393162393161,12.629258139881884,31.997156092194,33.45892042634221,1787.1852827075895,66.97482166877938,2662.5033548102965,0
-24.259031677084437,43.431711711711706,-29.745108091942235,-125.79491888582797,126.51408695652175,53.68945801072067,-28.474892954456948,8.698630136986305,-10.924731182795714,-7.298850574712642,-20.751633986928095,-5.984293193717269,-14.389162561576356,-12.362831858407077,20.62393162393161,12.629258139881884,31.997156092194,32.478617160246124,1661.163455255658,66.32391289649397,2699.431194698722,0
-24.259031677084437,43.431711711711706,-29.745108091942235,-125.79491888582797,126.51408695652175,53.68945801072067,-28.474892954456948,9.858447488584478,21.849462365591382,10.218390804597703,-24.07189542483659,-5.984293193717269,-19.39408866995074,-16.858407079646014,24.96581196581195,16.650099624092014,51.44188704777646,32.478617160246124,1661.163455255658,66.32391289649397,2699.431194698722,0
-24.259031677084437,43.431711711711706,-29.745108091942235,-125.79491888582797,126.51408695652175,53.68945801072067,-28.474892954456948,0.5799086757990892,-2.731182795698939,39.413793103448285,-5.8104575163398575,0.6649214659685949,-19.39408866995074,-15.73451327433628,24.96581196581195,13.661834683419219,192.75397321945115,32.478617160246124,1661.163455255658,66.32391289649397,2699.431194698722,0
-23.12882720627185,42.790990990990984,-29.962146458173116,-125.8921028466483,126.5729855072464,53.87099463966649,-28.969248734916277,0.5799086757990892,-2.731182795698939,39.413793103448285,-5.8104575163398575,0.6649214659685949,-19.39408866995074,-15.73451327433628,24.96581196581195,13.661834683419219,192.75397321945115,31.960654885145317,1614.1892819759255,66.21508009860413,2712.1550960647382,0
-23.12882720627185,42.790990990990984,-29.962146458173116,-125.8921028466483,126.5729855072464,53.87099463966649,-28.969248734916277,1.7397260273972628,-27.31182795698926,-32.11494252873563,-24.07189542483659,0.6649214659685949,-16.891625615763548,-15.73451327433628,27.136752136752122,18.20827555384741,139.60074968899394,31.960654885145317,1614.1892819759255,66.21508009860413,2712.1550960647382,0
-23.12882720627185,42.790990990990984,-29.962146458173116,-125.8921028466483,126.5729855072464,53.87099463966649,-28.969248734916277,-2.8995433789954315,-10.924731182795714,7.298850574712646,-12.450980392156852,15.293193717277495,-16.891625615763548,-21.35398230088495,27.136752136752122,14.281207412417345,59.434117294904794,31.960654885145317,1614.1892819759255,66.21508009860413,2712.1550960647382,0
-23.397923508846276,42.699459459459455,-30.04896180466547,-125.8921028466483,126.60243478260871,54.08278737343659,-29.463604515375607,-2.8995433789954315,-10.924731182795714,7.298850574712646,-12.450980392156852,15.293193717277495,-16.891625615763548,-21.35398230088495,27.136752136752122,14.281207412417345,59.434117294904794,32.0487815909904,1617.5721903489848,66.21350803692441,2711.1597815758896,0
-23.397923508846276,42.699459459459455,-30.04896180466547,-125.8921028466483,126.60243478260871,54.08278737343659,-29.463604515375607,-9.858447488584472,-20.48387096774195,26.275862068965523,-7.470588235294106,9.973821989528805,-10.635467980295568,-15.73451327433628,20.62393162393161,15.13206295358479,45.24081525063439,32.0487815909904,1617.5721903489848,66.21350803692441,2711.1597815758896,0
-23.397923508846276,42.699459459459455,-30.04896180466547,-125.8921028466483,126.60243478260871,54.08278737343659,-29.463604515375607,-0.5799086757990843,-9.55913978494625,27.73563218390805,-19.091503267973845,1.9947643979057674,-18.142857142857146,-14.610619469026545,27.136752136752122,14.8563971323961,106.11140274832256,32.0487815909904,1617.5721903489848,66.21350803692441,2711.1597815758896,0
-23.693929441678144,43.15711711711711,-29.875331111680765,-125.8921028466483,126.63188405797102,54.26432400238235,-29.809653561697132,-0.5799086757990843,-9.55913978494625,27.73563218390805,-19.091503267973845,1.9947643979057674,-18.142857142857146,-14.610619469026545,27.136752136752122,14.8563971323961,106.11140274832256,32.24212589015867,1640.1684411506942,66.30818369181539,2706.7840262607992,0
-23.693929441678144,43.15711711711711,-29.875331111680765,-125.8921028466483,126.63188405797102,54.26432400238235,-29.809653561697132,-11.018264840182646,-39.60215053763442,35.0344827586207,-15.771241830065348,1.9947643979057674,-16.891625615763548,-17.982300884955748,16.28205128205127,19.32211026839743,150.98605950602587,32.24212589015867,1640.1684411506942,66.30818369181539,2706.7840262607992,0
-23.693929441678144,43.15711711711711,-29.875331111680765,-125.8921028466483,126.63188405797102,54.26432400238235,-29.809653561697132,11.01826484018265,8.193548387096758,17.51724137931035,-12.450980392156852,9.973821989528805,-10.635467980295568,-16.858407079646014,27.136752136752122,14.22306052312114,37.8932797721918,32.24212589015867,1640.1684411506942,66.30818369181539,2706.7840262607992,0
-24.043754635024897,43.34018018018018,-30.070665641288556,-125.87266605448423,126.63188405797102,54.26432400238235,-29.85908913974305,11.01826484018265,8.193548387096758,17.51724137931035,-12.450980392156852,9.973821989528805,-10.635467980295568,-16.858407079646014,27.136752136752122,14.22306052312114,37.8932797721918,32.48486681883121,1661.011768613447,66.42783729198432,2694.2857539766665,0
-24.043754635024897,43.34018018018018,-30.070665641288556,-125.87266605448423,126.63188405797102,54.26432400238235,-29.85908913974305,-7.538812785388126,-27.31182795698926,11.678160919540232,-22.41176470588234,-8.643979057591615,-16.891625615763548,-20.230088495575217,22.79487179487178,17.187641416450266,52.432027878665345,32.48486681883121,1661.011768613447,66.42783729198432,2694.2857539766665,0
-24.043754635024897,43.34018018018018,-30.070665641288556,-125.87266605448423,126.63188405797102,54.26432400238235,-29.85908913974305,-7.538812785388126,-21.84946236559141,13.137931034482762,-25.73202614379084,-12.633507853403131,-24.399014778325125,-20.230088495575217,18.45299145299144,17.996729363693504,40.371968546824164,32.48486681883121,1661.011768613447,66.42783729198432,2694.2857539766665,0
-23.98993537451001,43.15711711711711,-29.91873878492694,-125.8921028466483,126.64660869565218,54.26432400238235,-29.85908913974305,-7.538812785388126,-21.84946236559141,13.137931034482762,-25.73202614379084,-12.633507853403131,-24.399014778325125,-20.230088495575217,18.45299145299144,17.996729363693504,40.371968546824164,32.35526375885136,1647.3263473348343,66.32265291623078,2705.20318897594,0
-23.98993537451001,43.15711711711711,-29.91873878492694,-125.8921028466483,126.64660869565218,54.26432400238235,-29.85908913974305,-7.538812785388126,-4.096774193548402,40.873563218390814,-10.790849673202603,-8.643979057591615,-16.891625615763548,-15.73451327433628,18.45299145299144,15.377888658901604,131.00076834779253,32.35526375885136,1647.3263473348343,66.32265291623078,2705.20318897594,0
-23.98993537451001,43.15711711711711,-29.91873878492694,-125.8921028466483,126.64660869565218,54.26432400238235,-29.85908913974305,-4.059360730593605,-28.677419354838722,-10.2183908045977,-22.41176470588234,5.984293193717286,-16.891625615763548,-16.858407079646014,18.45299145299144,15.444281617253832,69.03234066800734,32.35526375885136,1647.3263473348343,66.32265291623078,2705.20318897594,0
-23.88229685348024,44.98774774774774,-29.962146458173116,-125.93097643097643,126.61715942028987,54.35509231685529,-29.957960295834937,-4.059360730593605,-28.677419354838722,-10.2183908045977,-22.41176470588234,5.984293193717286,-16.891625615763548,-16.858407079646014,18.45299145299144,15.444281617253832,69.03234066800734,32.94406368646704,1732.9223760115908,66.9602902122991,2664.5985483545924,0
-23.88229685348024,44.98774774774774,-29.962146458173116,-125.93097643097643,126.61715942028987,54.35509231685529,-29.957960295834937,0.5799086757990892,-23.215053763440874,-18.977011494252874,-19.091503267973845,11.303664921465977,-14.389162561576356,-19.106194690265482,24.96581196581195,16.453538917573304,60.18503097626333,32.94406368646704,1732.9223760115908,66.9602902122991,2664.5985483545924,0
-23.88229685348024,44.98774774774774,-29.962146458173116,-125.93097643097643,126.61715942028987,54.35509231685529,-29.957960295834937,-21.45662100456621,-24.580645161290334,-4.379310344827584,-12.450980392156852,-3.324607329842923,-15.640394088669952,-13.486725663716811,16.28205128205127,13.950166908390242,54.944946193104165,32.94406368646704,1732.9223760115908,66.9602902122991,2664.5985483545924,0
-25.03941095455027,44.89621621621621,-29.853627275057676,-125.8921028466483,126.60243478260871,54.26432400238235,-29.760217983651216,-21.45662100456621,-24.580645161290334,-4.379310344827584,-12.450980392156852,-3.324607329842923,-15.640394088669952,-13.486725663716811,16.28205128205127,13.950166908390242,54.944946193104165,33.263084815274716,1750.2846214198387,66.88064877930739,2668.3336538695803,0
-25.03941095455027,44.89621621621621,-29.853627275057676,-125.8921028466483,126.60243478260871,54.26432400238235,-29.760217983651216,4.05936073059361,2.73118279569891,21.896551724137936,-7.470588235294106,17.95287958115184,-8.133004926108375,-14.610619469026545,33.64957264957263,13.812970013947995,109.57670075642343,33.263084815274716,1750.2846214198387,66.88064877930739,2668.3336538695803,0
-25.03941095455027,44.89621621621621,-29.853627275057676,-125.8921028466483,126.60243478260871,54.26432400238235,-29.760217983651216,-4.059360730593605,4.096774193548372,11.678160919540232,-12.450980392156852,-9.973821989528787,-21.896551724137932,-26.973451327433622,20.62393162393161,13.969129112608877,70.77507326190835,33.263084815274716,1750.2846214198387,66.88064877930739,2668.3336538695803,0
-24.420489458629092,44.25549549549549,-30.092369477911646,-125.8921028466483,126.60243478260871,54.26432400238235,-29.760217983651216,-4.059360730593605,4.096774193548372,11.678160919540232,-12.450980392156852,-9.973821989528787,-21.896551724137932,-26.973451327433622,20.62393162393161,13.969129112608877,70.77507326190835,32.92278481067874,1712.6943597460436,66.74665594001847,2673.7864519862155,0
-24.420489458629092,44.25549549549549,-30.092369477911646,-125.8921028466483,126.60243478260871,54.26432400238235,-29.760217983651216,8.698630136986305,16.387096774193534,-14.597701149425287,-29.052287581699336,-5.984293193717269,-15.640394088669952,-15.73451327433628,27.136752136752122,16.65395854197251,63.84409076738705,32.92278481067874,1712.6943597460436,66.74665594001847,2673.7864519862155,0
-24.420489458629092,44.25549549549549,-30.092369477911646,-125.8921028466483,126.60243478260871,54.26432400238235,-29.760217983651216,7.538812785388131,31.408602150537618,7.298850574712646,-14.1111111111111,-16.62303664921465,-16.891625615763548,-15.73451327433628,24.96581196581195,16.82154551585949,66.36207912939005,32.92278481067874,1712.6943597460436,66.74665594001847,2673.7864519862155,0
-22.563724970865557,44.16396396396396,-29.83192343843459,-126.12534435261708,126.63188405797102,54.4156045265039,-30.155702608018657,7.538812785388131,31.408602150537618,7.298850574712646,-14.1111111111111,-16.62303664921465,-16.891625615763548,-15.73451327433628,24.96581196581195,16.82154551585949,66.36207912939005,32.1865374577547,1663.467088669298,66.70707725167188,2699.2496953658047,0
-22.563724970865557,44.16396396396396,-29.83192343843459,-126.12534435261708,126.63188405797102,54.4156045265039,-30.155702608018657,7.538812785388131,13.655913978494606,33.57471264367817,-5.8104575163398575,13.963350785340323,-11.886699507389164,-16.858407079646014,24.96581196581195,16.03177078276103,84.56649738811088,32.1865374577547,1663.467088669298,66.70707725167188,2699.2496953658047,0
-22.563724970865557,44.16396396396396,-29.83192343843459,-126.12534435261708,126.63188405797102,54.4156045265039,-30.155702608018657,-0.5799086757990843,-17.752688172043023,8.758620689655174,-15.771241830065348,3.32460732984294,-16.891625615763548,-13.486725663716811,22.79487179487178,12.420036221469715,57.82275968950398,32.1865374577547,1663.467088669298,66.70707725167188,2699.2496953658047,0
-22.91355016421231,44.80468468468468,-29.61488507220371,-126.22252831343741,126.61715942028987,54.59714115544966,-30.402880498248294,-0.5799086757990843,-17.752688172043023,8.758620689655174,-15.771241830065348,3.32460732984294,-16.891625615763548,-13.486725663716811,22.79487179487178,12.420036221469715,57.82275968950398,32.444373307033565,1694.823263899968,66.88069935677527,2698.772001008141,0
-22.91355016421231,44.80468468468468,-29.61488507220371,-126.22252831343741,126.61715942028987,54.59714115544966,-30.402880498248294,-1.739726027397258,-6.827956989247326,4.379310344827588,-15.771241830065348,-1.994764397905751,-16.891625615763548,-16.858407079646014,20.62393162393161,10.635870488598055,58.777526956031465,32.444373307033565,1694.823263899968,66.88069935677527,2698.772001008141,0
-22.91355016421231,44.80468468468468,-29.61488507220371,-126.22252831343741,126.61715942028987,54.59714115544966,-30.402880498248294,1.7397260273972628,-2.731182795698939,16.05747126436782,-19.091503267973845,4.654450261780113,-14.389162561576356,-21.35398230088495,20.62393162393161,12.580176262951362,68.11117575622144,32.444373307033565,1694.823263899968,66.88069935677527,2698.772001008141,0
-24.151393156054667,45.170810810810806,-29.441254379219004,-126.26140189776552,126.61715942028987,54.59714115544966,-30.452316076294267,1.7397260273972628,-2.731182795698939,16.05747126436782,-19.091503267973845,4.654450261780113,-14.389162561576356,-21.35398230088495,20.62393162393161,12.580176262951362,68.11117575622144,32.92115278202816,1733.4184777508824,66.95782236259845,2699.5406456465735,0
-24.151393156054667,45.170810810810806,-29.441254379219004,-126.26140189776552,126.61715942028987,54.59714115544966,-30.452316076294267,-1.739726027397258,4.096774193548372,10.218390804597703,-14.1111111111111,0.6649214659685949,-18.142857142857146,-15.73451327433628,27.136752136752122,11.480630769571071,83.21338861499638,32.92115278202816,1733.4184777508824,66.95782236259845,2699.5406456465735,0
-24.151393156054667,45.170810810810806,-29.441254379219004,-126.26140189776552,126.61715942028987,54.59714115544966,-30.452316076294267,5.2191780821917835,-21.84946236559141,37.954022988505756,-15.771241830065348,1.9947643979057674,-14.389162561576356,-12.362831858407077,27.136752136752122,17.08467702762445,137.00846494356173,32.92115278202816,1733.4184777508824,66.95782236259845,2699.5406456465735,0
-24.528127979658862,45.99459459459459,-29.441254379219004,-126.35858585858585,126.63188405797102,54.47611673615245,-30.353444920202378,5.2191780821917835,-21.84946236559141,37.954022988505756,-15.771241830065348,1.9947643979057674,-14.389162561576356,-12.362831858407077,27.136752136752122,17.08467702762445,137.00846494356173,33.32132565115749,1781.3600867838638,67.26481161079981,2687.558884207718,0
-24.528127979658862,45.99459459459459,-29.441254379219004,-126.35858585858585,126.63188405797102,54.47611673615245,-30.353444920202378,5.2191780821917835,16.387096774193534,21.896551724137936,-12.450980392156852,8.64397905759163,-10.635467980295568,-15.73451327433628,29.307692307692292,15.034432449074483,59.47666680549611,33.32132565115749,1781.3600867838638,67.26481161079981,2687.558884207718,0
-24.528127979658862,45.99459459459459,-29.441254379219004,-126.35858585858585,126.63188405797102,54.47611673615245,-30.353444920202378,-8.6986301369863,-51.89247311827958,18.977011494252878,-15.771241830065348,0.6649214659685949,-19.39408866995074,-14.610619469026545,24.96581196581195,19.371849768792742,226.9343176091793,33.32132565115749,1781.3600867838638,67.26481161079981,2687.558884207718,0
-22.294628668291132,44.438558558558555,-29.050585320003417,-126.65013774104683,126.70550724637683,54.59714115544966,-30.847800700661708,-8.6986301369863,-51.89247311827958,18.977011494252878,-15.771241830065348,0.6649214659685949,-19.39408866995074,-14.610619469026545,24.96581196581195,19.371849768792742,226.9343176091793,31.927924182284368,1649.9359159562619,66.71309387320294,2753.534350809505,0
-22.294628668291132,44.438558558558555,-29.050585320003417,-126.65013774104683,126.70550724637683,54.59714115544966,-30.847800700661708,-8.6986301369863,-1.509903313490213e-14,8.758620689655174,-14.1111111111111,5.984293193717286,-19.39408866995074,-23.60176991150442,14.111111111111098,11.832453103004516,57.079561152722356,31.927924182284368,1649.9359159562619,66.71309387320294,2753.534350809505,0
-22.294628668291132,44.438558558558555,-29.050585320003417,-126.65013774104683,126.70550724637683,54.59714115544966,-30.847800700661708,-1.739726027397258,-12.290322580645174,-27.735632183908045,-17.431372549019596,15.293193717277495,-8.133004926108375,-16.858407079646014,18.45299145299144,14.741831314624175,59.052902761330195,31.927924182284368,1649.9359159562619,66.71309387320294,2753.534350809505,0
-22.186990147261362,43.06558558558558,-29.462958215842093,-126.78619528619528,126.72023188405798,54.83918999404409,-31.342156481121037,-1.739726027397258,-12.290322580645174,-27.735632183908045,-17.431372549019596,15.293193717277495,-8.133004926108375,-16.858407079646014,18.45299145299144,14.741831314624175,59.052902761330195,31.57184464956301,1595.2046695102574,66.438246362541,2777.6640723090145,0
-22.186990147261362,43.06558558558558,-29.462958215842093,-126.78619528619528,126.72023188405798,54.83918999404409,-31.342156481121037,-1.739726027397258,-21.84946236559141,-35.03448275862069,-22.41176470588234,-0.664921465968578,-15.640394088669952,-13.486725663716811,24.96581196581195,16.974161130207374,136.48546388046063,31.57184464956301,1595.2046695102574,66.438246362541,2777.6640723090145,0
-22.186990147261362,43.06558558558558,-29.462958215842093,-126.78619528619528,126.72023188405798,54.83918999404409,-31.342156481121037,-2.8995433789954315,-5.462365591397864,20.436781609195407,-17.431372549019596,8.64397905759163,-14.389162561576356,-26.973451327433622,20.62393162393161,14.60757346239269,69.62713811220317,31.57184464956301,1595.2046695102574,66.438246362541,2777.6640723090145,0
-23.96302574425257,43.88936936936936,-29.354439032726653,-126.76675849403122,126.73495652173914,54.869446098868366,-31.44102763721287,-2.8995433789954315,-5.462365591397864,20.436781609195407,-17.431372549019596,8.64397905759163,-14.389162561576356,-26.973451327433622,20.62393162393161,14.60757346239269,69.62713811220317,32.402278048782854,1666.2783881908585,66.67018896537574,2761.514301807156,0
-23.96302574425257,43.88936936936936,-29.354439032726653,-126.76675849403122,126.73495652173914,54.869446098868366,-31.44102763721287,0.5799086757990892,-6.827956989247326,18.977011494252878,-19.091503267973845,-11.303664921465959,-18.142857142857146,-20.230088495575217,20.62393162393161,14.472115326387884,55.36741699592647,32.402278048782854,1666.2783881908585,66.67018896537574,2761.514301807156,0
-23.96302574425257,43.88936936936936,-29.354439032726653,-126.76675849403122,126.73495652173914,54.869446098868366,-31.44102763721287,-4.059360730593605,13.655913978494606,36.49425287356323,-12.450980392156852,5.984293193717286,-10.635467980295568,-16.858407079646014,24.96581196581195,15.63806102428489,112.8358259177312,32.402278048782854,1666.2783881908585,66.67018896537574,2761.514301807156,0
-24.662676130946075,44.89621621621621,-28.985473810134152,-126.78619528619528,126.76440579710145,54.778677784395484,-31.391592059166953,-4.059360730593605,13.655913978494606,36.49425287356323,-12.450980392156852,5.984293193717286,-10.635467980295568,-16.858407079646014,24.96581196581195,15.63806102428489,112.8358259177312,32.848122052432146,1719.2717009148375,66.88929510418188,2754.016919538732,0
-24.662676130946075,44.89621621621621,-28.985473810134152,-126.78619528619528,126.76440579710145,54.778677784395484,-31.391592059166953,-4.059360730593605,-32.77419354838711,16.05747126436782,-40.67320261437908,-33.9109947643979,-29.40394088669951,-24.725663716814154,20.62393162393161,25.27859489369635,134.5673422361135,32.848122052432146,1719.2717009148375,66.88929510418188,2754.016919538732,0
-24.662676130946075,44.89621621621621,-28.985473810134152,-126.78619528619528,126.76440579710145,54.778677784395484,-31.391592059166953,-1.739726027397258,-21.84946236559141,39.413793103448285,-15.771241830065348,11.303664921465977,-15.640394088669952,-19.106194690265482,22.79487179487178,18.452418602721934,116.53120189309331,32.848122052432146,1719.2717009148375,66.88929510418188,2754.016919538732,0
-23.74774870219303,44.07243243243243,-29.028881483380328,-126.90281603917967,126.80857971014494,54.74842167957115,-31.539898793304758,-1.739726027397258,-21.84946236559141,39.413793103448285,-15.771241830065348,11.303664921465977,-15.640394088669952,-19.106194690265482,22.79487179487178,18.452418602721934,116.53120189309331,32.283020872668594,1661.878238134023,66.66804331833082,2777.74798983842,0
-23.74774870219303,44.07243243243243,-29.028881483380328,-126.90281603917967,126.80857971014494,54.74842167957115,-31.539898793304758,-2.8995433789954315,4.096774193548372,1.4597701149425308,-5.8104575163398575,23.272251308900533,-10.635467980295568,-14.610619469026545,18.45299145299144,10.154734426880035,63.54688009585095,32.283020872668594,1661.878238134023,66.66804331833082,2777.74798983842,0
-23.74774870219303,44.07243243243243,-29.028881483380328,-126.90281603917967,126.80857971014494,54.74842167957115,-31.539898793304758,2.8995433789954363,-8.193548387096788,14.59770114942529,-7.470588235294106,4.654450261780113,-14.389162561576356,-19.106194690265482,24.96581196581195,12.03462507878069,57.54812817579234,32.283020872668594,1661.878238134023,66.66804331833082,2777.74798983842,0
-23.720839071935586,43.88936936936936,-29.419550542595914,-127.0,126.8527536231884,54.74842167957115,-31.688205527442562,2.8995433789954363,-8.193548387096788,14.59770114942529,-7.470588235294106,4.654450261780113,-14.389162561576356,-19.106194690265482,24.96581196581195,12.03462507878069,57.54812817579234,32.34325299463362,1662.968889426913,66.76963997065509,2773.116116168293,0
-23.720839071935586,43.88936936936936,-29.419550542595914,-127.0,126.8527536231884,54.74842167957115,-31.688205527442562,0.5799086757990892,-36.870967741935495,26.275862068965523,-9.130718954248355,13.963350785340323,-11.886699507389164,-13.486725663716811,29.307692307692292,17.68774071313588,143.97821828157754,32.34325299463362,1662.968889426913,66.76963997065509,2773.116116168293,0
-23.720839071935586,43.88936936936936,-29.419550542595914,-127.0,126.8527536231884,54.74842167957115,-31.688205527442562,6.378995433789957,-5.462365591397864,17.51724137931035,-14.1111111111111,9.973821989528805,-11.886699507389164,-14.610619469026545,29.307692307692292,13.65606834865576,56.826054416160396,32.34325299463362,1662.968889426913,66.76963997065509,2773.116116168293,0
-24.232122046826994,44.34702702702702,-29.267623686234298,-127.0,126.8527536231884,54.71816557474688,-31.638769949396647,6.378995433789957,-5.462365591397864,17.51724137931035,-14.1111111111111,9.973821989528805,-11.886699507389164,-14.610619469026545,29.307692307692292,13.65606834865576,56.826054416160396,32.61559092002944,1691.262127348305,66.87155023775377,2768.419954386804,0
-24.232122046826994,44.34702702702702,-29.267623686234298,-127.0,126.8527536231884,54.71816557474688,-31.638769949396647,5.2191780821917835,8.193548387096758,17.51724137931035,-5.8104575163398575,17.95287958115184,-8.133004926108375,-15.73451327433628,27.136752136752122,13.21219691041092,58.70313120214176,32.61559092002944,1691.262127348305,66.87155023775377,2768.419954386804,0
-24.232122046826994,44.34702702702702,-29.267623686234298,-127.0,126.8527536231884,54.71816557474688,-31.638769949396647,9.858447488584478,-16.387096774193562,1.4597701149425308,-14.1111111111111,1.9947643979057674,-18.142857142857146,-17.982300884955748,29.307692307692292,13.655505027780329,84.3777280670594,32.61559092002944,1691.262127348305,66.87155023775377,2768.419954386804,0
-24.743405021718402,43.98090090090089,-29.441254379219004,-127.0,126.88220289855074,54.59714115544966,-31.589334371350674,9.858447488584478,-16.387096774193562,1.4597701149425308,-14.1111111111111,1.9947643979057674,-18.142857142857146,-17.982300884955748,29.307692307692292,13.655505027780329,84.3777280670594,32.7218534339461,1689.3188165182617,66.8073850933733,2770.2134972169583,0
-24.743405021718402,43.98090090090089,-29.441254379219004,-127.0,126.88220289855074,54.59714115544966,-31.589334371350674,1.7397260273972628,-9.55913978494625,20.436781609195407,-19.091503267973845,-7.314136125654441,-19.39408866995074,-17.982300884955748,20.62393162393161,14.517700999250664,52.6827377958002,32.7218534339461,1689.3188165182617,66.8073850933733,2770.2134972169583,0
-24.743405021718402,43.98090090090089,-29.441254379219004,-127.0,126.88220289855074,54.59714115544966,-31.589334371350674,13.337899543378999,-17.752688172043023,-61.310344827586206,-17.431372549019596,15.293193717277495,-13.13793103448276,-21.35398230088495,29.307692307692292,23.615638056545663,259.386020184434,32.7218534339461,1689.3188165182617,66.8073850933733,2770.2134972169583,0
-24.555037609916305,42.60792792792792,-29.745108091942235,-127.0,126.88220289855074,54.627397260273995,-31.638769949396647,13.337899543378999,-17.752688172043023,-61.310344827586206,-17.431372549019596,15.293193717277495,-13.13793103448276,-21.35398230088495,29.307692307692292,23.615638056545663,259.386020184434,32.30269120992882,1628.793765456446,66.45101200662337,2790.997993799806,0
-24.555037609916305,42.60792792792792,-29.745108091942235,-127.0,126.88220289855074,54.627397260273995,-31.638769949396647,5.2191780821917835,9.559139784946222,-2.9195402298850563,-10.790849673202603,19.282722513089013,-11.886699507389164,-20.230088495575217,24.96581196581195,13.106753781511376,59.27891827698348,32.30269120992882,1628.793765456446,66.45101200662337,2790.997993799806,0
-24.555037609916305,42.60792792792792,-29.745108091942235,-127.0,126.88220289855074,54.627397260273995,-31.638769949396647,-9.858447488584472,-19.118279569892486,17.51724137931035,-22.41176470588234,-0.664921465968578,-14.389162561576356,-12.362831858407077,16.28205128205127,14.075587538959116,44.61373601790881,32.30269120992882,1628.793765456446,66.45101200662337,2790.997993799806,0
-25.012501324292828,43.15711711711711,-29.8102196018115,-126.9416896235078,126.91165217391305,54.536628945801056,-31.589334371350674,-9.858447488584472,-19.118279569892486,17.51724137931035,-22.41176470588234,-0.664921465968578,-14.389162561576356,-12.362831858407077,16.28205128205127,14.075587538959116,44.61373601790881,32.65994601440715,1665.724534495227,66.63634211414548,2772.086121989733,0
-25.012501324292828,43.15711711711711,-29.8102196018115,-126.9416896235078,126.91165217391305,54.536628945801056,-31.589334371350674,-6.378995433789952,-25.9462365591398,-1.4597701149425273,-25.73202614379084,1.9947643979057674,-19.39408866995074,-17.982300884955748,22.79487179487178,15.210381749918394,107.20003633673589,32.65994601440715,1665.724534495227,66.63634211414548,2772.086121989733,0
-25.012501324292828,43.15711711711711,-29.8102196018115,-126.9416896235078,126.91165217391305,54.536628945801056,-31.589334371350674,5.2191780821917835,40.96774193548385,24.816091954022994,-30.712418300653585,-15.293193717277479,-24.399014778325125,-17.982300884955748,29.307692307692292,23.587203995075356,117.90498402786251,32.65994601440715,1665.724534495227,66.63634211414548,2772.086121989733,0
-24.09757389553978,42.24180180180179,-30.02725796804238,-126.9416896235078,126.92637681159421,54.536628945801056,-31.638769949396647,5.2191780821917835,40.96774193548385,24.816091954022994,-30.712418300653585,-15.293193717277479,-24.399014778325125,-17.982300884955748,29.307692307692292,23.587203995075356,117.90498402786251,32.12221122179465,1609.8151535216723,66.40358313111733,2785.945523529715,0
-24.09757389553978,42.24180180180179,-30.02725796804238,-126.9416896235078,126.92637681159421,54.536628945801056,-31.638769949396647,0.5799086757990892,1.3655913978494478,20.436781609195407,-12.450980392156852,4.654450261780113,-11.886699507389164,-14.610619469026545,24.96581196581195,11.368855409876073,77.22894333713566,32.12221122179465,1609.8151535216723,66.40358313111733,2785.945523529715,0
-24.09757389553978,42.24180180180179,-30.02725796804238,-126.9416896235078,126.92637681159421,54.536628945801056,-31.638769949396647,6.378995433789957,-2.731182795698939,18.977011494252878,2.490196078431385,20.612565445026185,-6.881773399014779,-16.858407079646014,31.478632478632463,13.301095525561575,106.63895683681585,32.12221122179465,1609.8151535216723,66.40358313111733,2785.945523529715,0
-23.720839071935586,42.60792792792792,-30.070665641288556,-126.86394245485154,126.91165217391305,54.74842167957115,-31.885947839626283,6.378995433789957,-2.731182795698939,18.977011494252878,2.490196078431385,20.612565445026185,-6.881773399014779,-16.858407079646014,31.478632478632463,13.301095525561575,106.63895683681585,32.13314421371735,1620.333932063733,66.51417867468933,2770.8662276520304,0
-23.720839071935586,42.60792792792792,-30.070665641288556,-126.86394245485154,126.91165217391305,54.74842167957115,-31.885947839626283,-0.5799086757990843,19.118279569892458,30.655172413793107,-5.8104575163398575,13.963350785340323,-15.640394088669952,-19.106194690265482,18.45299145299144,15.415843649136463,83.33095689232982,32.13314421371735,1620.333932063733,66.51417867468933,2770.8662276520304,0
-23.720839071935586,42.60792792792792,-30.070665641288556,-126.86394245485154,126.91165217391305,54.74842167957115,-31.885947839626283,-9.858447488584472,-13.655913978494638,36.49425287356323,-17.431372549019596,-17.952879581151823,-20.645320197044335,-14.610619469026545,16.28205128205127,18.36635717736699,63.98316199948931,32.13314421371735,1620.333932063733,66.51417867468933,2770.8662276520304,0
-25.093230215065155,42.882522522522514,-29.91873878492694,-126.72788490970309,126.92637681159421,54.74842167957115,-31.885947839626283,-9.858447488584472,-13.655913978494638,36.49425287356323,-17.431372549019596,-17.952879581151823,-20.645320197044335,-14.610619469026545,16.28205128205127,18.36635717736699,63.98316199948931,32.631497174171535,1657.3353568591674,66.50971540571751,2761.6858760068408,0
-25.093230215065155,42.882522522522514,-29.91873878492694,-126.72788490970309,126.92637681159421,54.74842167957115,-31.885947839626283,5.2191780821917835,-12.290322580645174,-37.95402298850575,-14.1111111111111,13.963350785340323,-6.881773399014779,-14.610619469026545,27.136752136752122,16.520891319073446,118.08740786415323,32.631497174171535,1657.3353568591674,66.50971540571751,2761.6858760068408,0
-25.093230215065155,42.882522522522514,-29.91873878492694,-126.72788490970309,126.92637681159421,54.74842167957115,-31.885947839626283,-5.219178082191778,-1.509903313490213e-14,1.4597701149425308,-10.790849673202603,11.303664921465977,-13.13793103448276,-21.35398230088495,14.111111111111098,9.672060904785214,50.41673965214386,32.631497174171535,1657.3353568591674,66.50971540571751,2761.6858760068408,0
-25.712151710986333,43.614774774774766,-30.092369477911646,-126.65013774104683,126.9705507246377,54.59714115544966,-31.787076683534394,-5.219178082191778,-1.509903313490213e-14,1.4597701149425308,-10.790849673202603,11.303664921465977,-13.13793103448276,-21.35398230088495,14.111111111111098,9.672060904785214,50.41673965214386,33.13976532122425,1709.6920262556896,66.78576066457775,2733.521593318416,0
-25.712151710986333,43.614774774774766,-30.092369477911646,-126.65013774104683,126.9705507246377,54.59714115544966,-31.787076683534394,2.8995433789954363,-4.096774193548402,11.678160919540232,-5.8104575163398575,8.64397905759163,-11.886699507389164,-12.362831858407077,29.307692307692292,10.835767342438011,69.11619678636542,33.13976532122425,1709.6920262556896,66.78576066457775,2733.521593318416,0
-25.712151710986333,43.614774774774766,-30.092369477911646,-126.65013774104683,126.9705507246377,54.59714115544966,-31.787076683534394,-8.6986301369863,-46.430107526881734,-1.4597701149425273,-10.790849673202603,-0.664921465968578,-15.640394088669952,-19.106194690265482,16.28205128205127,14.884114872371056,207.55933281471548,33.13976532122425,1709.6920262556896,66.78576066457775,2733.521593318416,0
-24.339760567856764,43.614774774774766,-30.200888661027086,-126.66957453321089,126.98527536231886,54.59714115544966,-31.836512261580367,-8.6986301369863,-46.430107526881734,-1.4597701149425273,-10.790849673202603,-0.664921465968578,-15.640394088669952,-19.106194690265482,16.28205128205127,14.884114872371056,207.55933281471548,32.718474667886206,1683.487310770847,66.82841265633758,2730.706576248765,0
-24.339760567856764,43.614774774774766,-30.200888661027086,-126.66957453321089,126.98527536231886,54.59714115544966,-31.836512261580367,-11.018264840182646,-27.31182795698926,18.977011494252878,-20.751633986928095,-4.654450261780097,-15.640394088669952,-19.106194690265482,20.62393162393161,17.260463617875004,47.34080229262134,32.718474667886206,1683.487310770847,66.82841265633758,2730.706576248765,0
-24.339760567856764,43.614774774774766,-30.200888661027086,-126.66957453321089,126.98527536231886,54.59714115544966,-31.836512261580367,4.05936073059361,-1.3655913978494771,13.137931034482762,-9.130718954248355,13.963350785340323,-13.13793103448276,-13.486725663716811,24.96581196581195,11.655927695815757,51.45674850807276,32.718474667886206,1683.487310770847,66.82841265633758,2730.706576248765,0
-23.64011018116326,43.79783783783783,-29.983850294796206,-126.70844811753902,126.95582608695652,54.6879094699226,-31.9353834176722,4.05936073059361,-1.3655913978494771,13.137931034482762,-9.130718954248355,13.963350785340323,-13.13793103448276,-13.486725663716811,24.96581196581195,11.655927695815757,51.45674850807276,32.473932771265765,1671.9762292240134,66.83004541672436,2736.7738954605243,0
-23.64011018116326,43.79783783783783,-29.983850294796206,-126.70844811753902,126.95582608695652,54.6879094699226,-31.9353834176722,2.8995433789954363,6.827956989247296,52.55172413793104,-5.8104575163398575,19.282722513089013,-13.13793103448276,-15.73451327433628,31.478632478632463,18.46543516538177,272.2289911693478,32.473932771265765,1671.9762292240134,66.83004541672436,2736.7738954605243,0
-23.64011018116326,43.79783783783783,-29.983850294796206,-126.70844811753902,126.95582608695652,54.6879094699226,-31.9353834176722,8.698630136986305,-23.215053763440874,5.839080459770117,-19.091503267973845,-0.664921465968578,-15.640394088669952,-16.858407079646014,27.136752136752122,14.643092799900975,80.49959496765071,32.473932771265765,1671.9762292240134,66.83004541672436,2736.7738954605243,0
-24.366670198114207,44.80468468468468,-29.983850294796206,-126.66957453321089,126.92637681159421,54.74842167957115,-31.836512261580367,8.698630136986305,-23.215053763440874,5.839080459770117,-19.091503267973845,-0.664921465968578,-15.640394088669952,-16.858407079646014,27.136752136752122,14.643092799900975,80.49959496765071,33.051735059198364,1734.9256688229507,67.15270317089725,2711.607765571767,0
-24.366670198114207,44.80468468468468,-29.983850294796206,-126.66957453321089,126.92637681159421,54.74842167957115,-31.836512261580367,-0.5799086757990843,-9.55913978494625,-17.517241379310345,-34.03267973856208,-16.62303664921465,-21.896551724137932,-19.106194690265482,20.62393162393161,17.49233553327093,93.58765999723146,33.051735059198364,1734.9256688229507,67.15270317089725,2711.607765571767,0
-24.366670198114207,44.80468468468468,-29.983850294796206,-126.66957453321089,126.92637681159421,54.74842167957115,-31.836512261580367,-19.136986301369863,-55.98924731182797,1.7763568394002505e-15,-9.130718954248355,-0.664921465968578,-18.142857142857146,-22.477876106194685,18.45299145299144,17.999449841932254,309.70310351986916,33.051735059198364,1734.9256688229507,67.15270317089725,2711.607765571767,0
-25.227778366352368,45.170810810810806,-30.15748098778091,-126.59182736455463,126.88220289855074,54.6879094699226,-31.589334371350674,-19.136986301369863,-55.98924731182797,1.7763568394002505e-15,-9.130718954248355,-0.664921465968578,-18.142857142857146,-22.477876106194685,18.45299145299144,17.999449841932254,309.70310351986916,33.51869005498136,1775.7691452274157,67.30670638771545,2692.3941950226126,0
-25.227778366352368,45.170810810810806,-30.15748098778091,-126.59182736455463,126.88220289855074,54.6879094699226,-31.589334371350674,5.2191780821917835,-28.677419354838722,2.91954022988506,-9.130718954248355,17.95287958115184,-10.635467980295568,-13.486725663716811,27.136752136752122,14.394835247885034,91.07883429248282,33.51869005498136,1775.7691452274157,67.30670638771545,2692.3941950226126,0
-25.227778366352368,45.170810810810806,-30.15748098778091,-126.59182736455463,126.88220289855074,54.6879094699226,-31.589334371350674,-8.6986301369863,-8.193548387096788,14.59770114942529,-19.091503267973845,9.973821989528805,-11.886699507389164,-11.238938053097343,22.79487179487178,13.309464285796164,27.133531382210993,33.51869005498136,1775.7691452274157,67.30670638771545,2692.3941950226126,0
-24.151393156054667,44.34702702702702,-30.179184824403997,-126.59182736455463,126.8969275362319,54.6879094699226,-31.638769949396647,-8.6986301369863,-8.193548387096788,14.59770114942529,-19.091503267973845,9.973821989528805,-11.886699507389164,-11.238938053097343,22.79487179487178,13.309464285796164,27.133531382210993,32.89253500249523,1713.7540154832352,67.03934640532854,2710.0554294688454,0
-24.151393156054667,44.34702702702702,-30.179184824403997,-126.59182736455463,126.8969275362319,54.6879094699226,-31.638769949396647,12.178082191780824,28.67741935483869,14.59770114942529,-15.771241830065348,3.32460732984294,-18.142857142857146,-22.477876106194685,27.136752136752122,17.78831715521963,69.00081524238,32.89253500249523,1713.7540154832352,67.03934640532854,2710.0554294688454,0
-24.151393156054667,44.34702702702702,-30.179184824403997,-126.59182736455463,126.8969275362319,54.6879094699226,-31.638769949396647,1.7397260273972628,16.387096774193534,27.73563218390805,-15.771241830065348,0.6649214659685949,-20.645320197044335,-19.106194690265482,24.96581196581195,15.87699314183182,98.27706689763288,32.89253500249523,1713.7540154832352,67.03934640532854,2710.0554294688454,0
-23.505562029876046,44.16396396396396,-30.02725796804238,-126.68901132537496,126.88220289855074,54.74842167957115,-31.73764110548848,1.7397260273972628,16.387096774193534,27.73563218390805,-15.771241830065348,0.6649214659685949,-20.645320197044335,-19.106194690265482,24.96581196581195,15.87699314183182,98.27706689763288,32.565594653960794,1687.672446317517,66.96007775246044,2725.6207434220087,0
-23.505562029876046,44.16396396396396,-30.02725796804238,-126.68901132537496,126.88220289855074,54.74842167957115,-31.73764110548848,20.29680365296804,24.580645161290306,-2.9195402298850563,-7.470588235294106,-0.664921465968578,-13.13793103448276,-13.486725663716811,33.64957264957263,14.525841011647286,125.6763090131935,32.565594653960794,1687.672446317517,66.96007775246044,2725.6207434220087,0
-23.505562029876046,44.16396396396396,-30.02725796804238,-126.68901132537496,126.88220289855074,54.74842167957115,-31.73764110548848,7.538812785388131,9.559139784946222,-29.195402298850574,-15.771241830065348,13.963350785340323,-10.635467980295568,-19.106194690265482,27.136752136752122,16.613295286487972,64.40573286789491,32.565594653960794,1687.672446317517,66.96007775246044,2725.6207434220087,0
-23.801567962707914,45.81153153153152,-29.658292745449884,-126.74732170186715,126.8527536231884,54.80893388921976,-31.73764110548848,7.538812785388131,9.559139784946222,-29.195402298850574,-15.771241830065348,13.963350785340323,-10.635467980295568,-19.106194690265482,27.136752136752122,16.613295286487972,64.40573286789491,33.09046407989644,1762.6632037956858,67.40571532628286,2706.3014662461337,0
-23.801567962707914,45.81153153153152,-29.658292745449884,-126.74732170186715,126.8527536231884,54.80893388921976,-31.73764110548848,-4.059360730593605,-4.096774193548402,29.195402298850578,-12.450980392156852,8.64397905759163,-11.886699507389164,-12.362831858407077,18.45299145299144,12.643627436441093,67.3049118128392,33.09046407989644,1762.6632037956858,67.40571532628286,2706.3014662461337,0
-23.801567962707914,45.81153153153152,-29.658292745449884,-126.74732170186715,126.8527536231884,54.80893388921976,-31.73764110548848,0.5799086757990892,4.096774193548372,21.896551724137936,-14.1111111111111,-4.654450261780097,-16.891625615763548,-11.238938053097343,22.79487179487178,12.033028928763658,70.03754819256604,33.09046407989644,1762.6632037956858,67.40571532628286,2706.3014662461337,0
-23.74774870219303,45.07927927927927,-29.636588908826795,-126.76675849403122,126.8233043478261,54.92995830851697,-31.836512261580367,0.5799086757990892,4.096774193548372,21.896551724137936,-14.1111111111111,-4.654450261780097,-16.891625615763548,-11.238938053097343,22.79487179487178,12.033028928763658,70.03754819256604,32.8212056300997,1725.7165298073462,67.16087556071243,2724.265131664795,0
-23.74774870219303,45.07927927927927,-29.636588908826795,-126.76675849403122,126.8233043478261,54.92995830851697,-31.836512261580367,-7.538812785388126,-28.677419354838722,29.195402298850578,-9.130718954248355,5.984293193717286,-16.891625615763548,-20.230088495575217,14.111111111111098,16.469933976186617,82.0597914200654,32.8212056300997,1725.7165298073462,67.16087556071243,2724.265131664795,0
-23.74774870219303,45.07927927927927,-29.636588908826795,-126.76675849403122,126.8233043478261,54.92995830851697,-31.836512261580367,19.136986301369866,35.505376344086,17.51724137931035,-22.41176470588234,-5.984293193717269,-19.39408866995074,-16.858407079646014,33.64957264957263,21.3072162904419,90.35132536481169,32.8212056300997,1725.7165298073462,67.16087556071243,2724.265131664795,0
-24.904862803263057,44.621621621621614,-29.636588908826795,-126.70844811753902,126.8233043478261,54.8997022036927,-31.787076683534394,19.136986301369866,35.505376344086,17.51724137931035,-22.41176470588234,-5.984293193717269,-19.39408866995074,-16.858407079646014,33.64957264957263,21.3072162904419,90.35132536481169,33.054357777903824,1728.4338499343671,66.98888621599582,2730.9573566350714,0
-24.904862803263057,44.621621621621614,-29.636588908826795,-126.70844811753902,126.8233043478261,54.8997022036927,-31.787076683534394,-0.5799086757990843,-30.043010752688186,23.356321839080465,-19.091503267973845,-3.324607329842923,-16.891625615763548,-16.858407079646014,27.136752136752122,17.160267087193276,110.58759423500608,33.054357777903824,1728.4338499343671,66.98888621599582,2730.9573566350714,0
-24.904862803263057,44.621621621621614,-29.636588908826795,-126.70844811753902,126.8233043478261,54.8997022036927,-31.787076683534394,-2.8995433789954315,9.559139784946222,35.0344827586207,-5.8104575163398575,20.612565445026185,-10.635467980295568,-13.486725663716811,24.96581196581195,15.37552431171909,116.12592724171391,33.054357777903824,1728.4338499343671,66.98888621599582,2730.9573566350714,0
-25.012501324292828,43.98090090090089,-29.72340425531915,-126.68901132537496,126.8527536231884,54.80893388921976,-31.73764110548848,-2.8995433789954315,9.559139784946222,35.0344827586207,-5.8104575163398575,20.612565445026185,-10.635467980295568,-13.486725663716811,24.96581196581195,15.37552431171909,116.12592724171391,32.90560216017096,1702.4344592656869,66.79777216053166,2741.039449175038,0
-25.012501324292828,43.98090090090089,-29.72340425531915,-126.68901132537496,126.8527536231884,54.80893388921976,-31.73764110548848,-6.378995433789952,-10.924731182795714,7.298850574712646,-22.41176470588234,-1.994764397905751,-19.39408866995074,-17.982300884955748,16.28205128205127,12.83344339150552,52.371670892879514,32.90560216017096,1702.4344592656869,66.79777216053166,2741.039449175038,0
-25.012501324292828,43.98090090090089,-29.72340425531915,-126.68901132537496,126.8527536231884,54.80893388921976,-31.73764110548848,2.8995433789954363,-16.387096774193562,-30.655172413793103,-9.130718954248355,5.984293193717286,-13.13793103448276,-14.610619469026545,22.79487179487178,14.450030876666105,81.588593778574,32.90560216017096,1702.4344592656869,66.79777216053166,2741.039449175038,0
-23.6670198114207,42.51639639639639,-29.636588908826795,-126.76675849403122,126.92637681159421,54.83918999404409,-32.03425457376409,2.8995433789954363,-16.387096774193562,-30.655172413793103,-9.130718954248355,5.984293193717286,-13.13793103448276,-14.610619469026545,22.79487179487178,14.450030876666105,81.588593778574,31.94000170554796,1603.6556041002673,66.30658126641815,2783.0471330250016,0
-23.6670198114207,42.51639639639639,-29.636588908826795,-126.76675849403122,126.92637681159421,54.83918999404409,-32.03425457376409,-12.17808219178082,-5.462365591397864,14.59770114942529,-14.1111111111111,0.6649214659685949,-15.640394088669952,-21.35398230088495,14.111111111111098,12.264958626293708,41.01512046082558,31.94000170554796,1603.6556041002673,66.30658126641815,2783.0471330250016,0
-23.6670198114207,42.51639639639639,-29.636588908826795,-126.76675849403122,126.92637681159421,54.83918999404409,-32.03425457376409,8.698630136986305,13.655913978494606,13.137931034482762,-17.431372549019596,-4.654450261780097,-14.389162561576356,-16.858407079646014,29.307692307692292,14.766694988709753,52.28921580989489,31.94000170554796,1603.6556041002673,66.30658126641815,2783.0471330250016,0
-23.263375357559063,42.42486486486486,-29.91873878492694,-126.78619528619528,126.92637681159421,54.99047051816558,-32.3308680420397,8.698630136986305,13.655913978494606,13.137931034482762,-17.431372549019596,-4.654450261780097,-14.389162561576356,-16.858407079646014,29.307692307692292,14.766694988709753,52.28921580989489,31.868993002450292,1598.8059591512313,66.37659964532902,2776.090231501551,0
-23.263375357559063,42.42486486486486,-29.91873878492694,-126.78619528619528,126.92637681159421,54.99047051816558,-32.3308680420397,-4.059360730593605,-24.580645161290334,1.7763568394002505e-15,-22.41176470588234,-1.994764397905751,-21.896551724137932,-22.477876106194685,22.79487179487178,15.026979327609553,117.82743120286068,31.868993002450292,1598.8059591512313,66.37659964532902,2776.090231501551,0
-23.263375357559063,42.42486486486486,-29.91873878492694,-126.78619528619528,126.92637681159421,54.99047051816558,-32.3308680420397,0.5799086757990892,9.559139784946222,16.05747126436782,-10.790849673202603,7.314136125654459,-18.142857142857146,-19.106194690265482,27.136752136752122,13.585913686730617,67.64167237061216,31.868993002450292,1598.8059591512313,66.37659964532902,2776.090231501551,0
-24.016845004767454,43.06558558558558,-29.441254379219004,-126.76675849403122,126.95582608695652,55.05098272781419,-32.4791747761775,0.5799086757990892,9.559139784946222,16.05747126436782,-10.790849673202603,7.314136125654459,-18.142857142857146,-19.106194690265482,27.136752136752122,13.585913686730617,67.64167237061216,32.17456165652401,1631.1197587754923,66.42453281961194,2777.293749712103,0
-24.016845004767454,43.06558558558558,-29.441254379219004,-126.76675849403122,126.95582608695652,55.05098272781419,-32.4791747761775,11.01826484018265,-4.096774193548402,24.816091954022994,-10.790849673202603,7.314136125654459,-11.886699507389164,-15.73451327433628,35.8205128205128,15.18473029860617,107.33322294837161,32.17456165652401,1631.1197587754923,66.42453281961194,2777.293749712103,0
-24.016845004767454,43.06558558558558,-29.441254379219004,-126.76675849403122,126.95582608695652,55.05098272781419,-32.4791747761775,-6.378995433789952,-25.9462365591398,-39.41379310344828,-35.69281045751633,-0.664921465968578,-13.13793103448276,-11.238938053097343,14.111111111111098,18.32309215231927,193.41735272570173,32.17456165652401,1631.1197587754923,66.42453281961194,2777.293749712103,0
-24.985591694035385,43.06558558558558,-29.224216012988123,-126.72788490970309,126.98527536231886,54.8997022036927,-32.3308680420397,-6.378995433789952,-25.9462365591398,-39.41379310344828,-35.69281045751633,-0.664921465968578,-13.13793103448276,-11.238938053097343,14.111111111111098,18.32309215231927,193.41735272570173,32.42513109753636,1645.790680070128,66.33922883609226,2782.988214693947,0
-24.985591694035385,43.06558558558558,-29.224216012988123,-126.72788490970309,126.98527536231886,54.8997022036927,-32.3308680420397,-6.378995433789952,-27.31182795698926,10.218390804597703,-14.1111111111111,7.314136125654459,-11.886699507389164,-14.610619469026545,22.79487179487178,14.328331525428744,53.66063085117846,32.42513109753636,1645.790680070128,66.33922883609226,2782.988214693947,0
-24.985591694035385,43.06558558558558,-29.224216012988123,-126.72788490970309,126.98527536231886,54.8997022036927,-32.3308680420397,0.5799086757990892,-35.50537634408603,2.91954022988506,-15.771241830065348,4.654450261780113,-13.13793103448276,-15.73451327433628,22.79487179487178,13.887229180663308,133.83328287496505,32.42513109753636,1645.790680070128,66.33922883609226,2782.988214693947,0
-24.635766500688632,42.699459459459455,-29.70170041869606,-126.68901132537496,127.00000000000001,54.80893388921976,-32.281432463993724,0.5799086757990892,-35.50537634408603,2.91954022988506,-15.771241830065348,4.654450261780113,-13.13793103448276,-15.73451327433628,22.79487179487178,13.887229180663308,133.83328287496505,32.34564212628138,1633.6040488780088,66.36339040117683,2771.6208399379757,0
-24.635766500688632,42.699459459459455,-29.70170041869606,-126.68901132537496,127.00000000000001,54.80893388921976,-32.281432463993724,-7.538812785388126,-35.50537634408603,-33.57471264367816,-19.091503267973845,-1.994764397905751,-19.39408866995074,-17.982300884955748,20.62393162393161,19.46318632723375,129.64382267181907,32.34564212628138,1633.6040488780088,66.36339040117683,2771.6208399379757,0
-24.635766500688632,42.699459459459455,-29.70170041869606,-126.68901132537496,127.00000000000001,54.80893388921976,-32.281432463993724,-9.858447488584472,-10.924731182795714,36.49425287356323,-4.15032679738561,15.293193717277495,-13.13793103448276,-19.106194690265482,24.96581196581195,16.741361218770837,102.6049269375567,32.34564212628138,1633.6040488780088,66.36339040117683,2771.6208399379757,0
-24.09757389553978,42.24180180180179,-30.070665641288556,-126.66957453321089,127.00000000000001,54.80893388921976,-32.23199688594781,-9.858447488584472,-10.924731182795714,36.49425287356323,-4.15032679738561,15.293193717277495,-13.13793103448276,-19.106194690265482,24.96581196581195,16.741361218770837,102.6049269375567,32.13668044621004,1610.9472567706946,66.32734732543373,2767.922427155688,0
-24.09757389553978,42.24180180180179,-30.070665641288556,-126.66957453321089,127.00000000000001,54.80893388921976,-32.23199688594781,-0.5799086757990843,-13.655913978494638,46.71264367816092,-4.15032679738561,11.303664921465977,-13.13793103448276,-12.362831858407077,24.96581196581195,15.858629113751004,207.23672640618284,32.13668044621004,1610.9472567706946,66.32734732543373,2767.922427155688,0
-24.09757389553978,42.24180180180179,-30.070665641288556,-126.66957453321089,127.00000000000001,54.80893388921976,-32.23199688594781,-2.8995433789954315,-42.33333333333334,-2.9195402298850563,-20.751633986928095,8.64397905759163,-14.389162561576356,-14.610619469026545,27.136752136752122,16.710570519261072,176.7667207910469,32.13668044621004,1610.9472567706946,66.32734732543373,2767.922427155688,0
-23.8553872232228,43.34018018018018,-30.244296334273262,-126.70844811753902,126.9705507246377,54.869446098868366,-32.23199688594781,-2.8995433789954315,-42.33333333333334,-2.9195402298850563,-20.751633986928095,8.64397905759163,-14.389162561576356,-14.610619469026545,27.136752136752122,16.710570519261072,176.7667207910469,32.479954579225414,1661.7896037001144,66.76430821066415,2737.8504753076127,0
-23.8553872232228,43.34018018018018,-30.244296334273262,-126.70844811753902,126.9705507246377,54.869446098868366,-32.23199688594781,-0.5799086757990843,6.827956989247296,36.49425287356323,-12.450980392156852,3.32460732984294,-16.891625615763548,-17.982300884955748,24.96581196581195,14.939680590892582,141.61388415024493,32.479954579225414,1661.7896037001144,66.76430821066415,2737.8504753076127,0
-23.8553872232228,43.34018018018018,-30.244296334273262,-126.70844811753902,126.9705507246377,54.869446098868366,-32.23199688594781,6.378995433789957,2.73118279569891,-2.9195402298850563,-12.450980392156852,3.32460732984294,-13.13793103448276,-17.982300884955748,16.28205128205127,9.400948672857936,39.54363818897853,32.479954579225414,1661.7896037001144,66.76430821066415,2737.8504753076127,0
-21.917893844686937,42.699459459459455,-30.352815517388702,-126.80563207835935,126.91165217391305,55.1720071471114,-32.57804593226933,6.378995433789957,2.73118279569891,-2.9195402298850563,-12.450980392156852,3.32460732984294,-13.13793103448276,-17.982300884955748,16.28205128205127,9.400948672857936,39.54363818897853,31.6567229405117,1597.1975218250882,66.61930235173584,2754.905618629452,0
-21.917893844686937,42.699459459459455,-30.352815517388702,-126.80563207835935,126.91165217391305,55.1720071471114,-32.57804593226933,-11.018264840182646,-23.215053763440874,8.758620689655174,-19.091503267973845,4.654450261780113,-15.640394088669952,-15.73451327433628,20.62393162393161,14.842091476246312,39.77795396103108,31.6567229405117,1597.1975218250882,66.61930235173584,2754.905618629452,0
-21.917893844686937,42.699459459459455,-30.352815517388702,-126.80563207835935,126.91165217391305,55.1720071471114,-32.57804593226933,-1.739726027397258,-15.0215053763441,24.816091954022994,-32.37254901960783,-1.994764397905751,-21.896551724137932,-20.230088495575217,24.96581196581195,17.87963612010038,121.57540401198197,31.6567229405117,1597.1975218250882,66.61930235173584,2754.905618629452,0
-21.08369530670622,41.32648648648648,-31.155857472442964,-126.84450566268748,126.77913043478263,55.686360929124476,-33.02296613468275,-1.739726027397258,-15.0215053763441,24.816091954022994,-32.37254901960783,-1.994764397905751,-21.896551724137932,-20.230088495575217,24.96581196581195,17.87963612010038,121.57540401198197,31.18867975521189,1541.6949046554696,66.44228320720565,2762.181781806462,0
-21.08369530670622,41.32648648648648,-31.155857472442964,-126.84450566268748,126.77913043478263,55.686360929124476,-33.02296613468275,7.538812785388131,2.73118279569891,-1.4597701149425273,-7.470588235294106,13.963350785340323,-11.886699507389164,-12.362831858407077,29.307692307692292,10.840116048769067,75.74542539074898,31.18867975521189,1541.6949046554696,66.44228320720565,2762.181781806462,0
-21.08369530670622,41.32648648648648,-31.155857472442964,-126.84450566268748,126.77913043478263,55.686360929124476,-33.02296613468275,5.2191780821917835,34.13978494623654,-23.356321839080458,-35.69281045751633,-8.643979057591615,-20.645320197044335,-19.106194690265482,22.79487179487178,21.199807633099788,114.62927863797914,31.18867975521189,1541.6949046554696,66.44228320720565,2762.181781806462,0
-19.872761945121304,40.59423423423423,-32.41467999658207,-126.88337924701561,126.5729855072464,56.503275759380585,-33.61619307123391,5.2191780821917835,34.13978494623654,-23.356321839080458,-35.69281045751633,-8.643979057591615,-20.645320197044335,-19.106194690265482,22.79487179487178,21.199807633099788,114.62927863797914,30.960558725312534,1523.9764820877408,66.63076449261064,2739.509465438728,0
-19.872761945121304,40.59423423423423,-32.41467999658207,-126.88337924701561,126.5729855072464,56.503275759380585,-33.61619307123391,1.7397260273972628,-1.3655913978494771,14.59770114942529,-2.49019607843136,9.973821989528805,-15.640394088669952,-17.982300884955748,24.96581196581195,11.09444294775873,75.74944169453339,30.960558725312534,1523.9764820877408,66.63076449261064,2739.509465438728,0
-19.872761945121304,40.59423423423423,-32.41467999658207,-126.88337924701561,126.5729855072464,56.503275759380585,-33.61619307123391,1.7397260273972628,-17.752688172043023,51.09195402298851,-2.49019607843136,9.973821989528805,-15.640394088669952,-13.486725663716811,24.96581196581195,17.14266475107346,247.58405382959742,30.960558725312534,1523.9764820877408,66.63076449261064,2739.509465438728,0
-17.80072041529823,40.59423423423423,-33.304537298128686,-126.84450566268748,126.24904347826087,57.804288266825495,-34.60490463215257,1.7397260273972628,-17.752688172043023,51.09195402298851,-2.49019607843136,9.973821989528805,-15.640394088669952,-13.486725663716811,24.96581196581195,17.14266475107346,247.58405382959742,30.566497315887048,1518.561250074944,66.91442573168347,2706.995780757464,0
-17.80072041529823,40.59423423423423,-33.304537298128686,-126.84450566268748,126.24904347826087,57.804288266825495,-34.60490463215257,21.456621004566212,39.602150537634394,10.218390804597703,-29.052287581699336,-7.314136125654441,-16.891625615763548,-14.610619469026545,37.991452991452974,22.14216051629939,150.0871375351364,30.566497315887048,1518.561250074944,66.91442573168347,2706.995780757464,0
-17.80072041529823,40.59423423423423,-33.304537298128686,-126.84450566268748,126.24904347826087,57.804288266825495,-34.60490463215257,-0.5799086757990843,10.924731182795682,10.218390804597703,-10.790849673202603,-5.984293193717269,-13.13793103448276,-13.486725663716811,22.79487179487178,10.989712752897962,40.60980683318415,30.566497315887048,1518.561250074944,66.91442573168347,2706.995780757464,0
-16.239961860366563,36.20072072072071,-34.38972912928309,-126.63070094888276,125.85147826086957,59.49863013698632,-36.038536395484584,-0.5799086757990843,10.924731182795682,10.218390804597703,-10.790849673202603,-5.984293193717269,-13.13793103448276,-13.486725663716811,22.79487179487178,10.989712752897962,40.60980683318415,28.943470570123452,1343.7418085853478,65.74038359962886,2781.542982805703,0
-16.239961860366563,36.20072072072071,-34.38972912928309,-126.63070094888276,125.85147826086957,59.49863013698632,-36.038536395484584,-6.378995433789952,-23.215053763440874,14.59770114942529,-4.15032679738561,8.64397905759163,-8.133004926108375,-11.238938053097343,24.96581196581195,12.665476393331378,59.58624227804887,28.943470570123452,1343.7418085853478,65.74038359962886,2781.542982805703,0
-16.239961860366563,36.20072072072071,-34.38972912928309,-126.63070094888276,125.85147826086957,59.49863013698632,-36.038536395484584,-7.538812785388126,-27.31182795698926,-27.735632183908045,-2.49019607843136,21.942408376963357,-11.886699507389164,-22.477876106194685,27.136752136752122,18.565025641502015,97.91081978510287,28.943470570123452,1343.7418085853478,65.74038359962886,2781.542982805703,0
-13.979552918741392,30.983423423423417,-36.45159360847646,-126.26140189776552,125.336115942029,61.7375818939845,-37.917088361230014,-7.538812785388126,-27.31182795698926,-27.735632183908045,-2.49019607843136,21.942408376963357,-11.886699507389164,-22.477876106194685,27.136752136752122,18.565025641502015,97.91081978510287,27.13818998354709,1179.0238960666345,64.56547297655514,2862.265955381459,0
-13.979552918741392,30.983423423423417,-36.45159360847646,-126.26140189776552,125.336115942029,61.7375818939845,-37.917088361230014,-2.8995433789954315,-8.193548387096788,-18.977011494252874,-10.790849673202603,15.293193717277495,13.137931034482758,12.362831858407084,27.136752136752122,13.598957710058396,52.6268166475927,27.13818998354709,1179.0238960666345,64.56547297655514,2862.265955381459,0
-13.979552918741392,30.983423423423417,-36.45159360847646,-126.26140189776552,125.336115942029,61.7375818939845,-37.917088361230014,-13.337899543378994,-68.27956989247312,-27.735632183908045,-29.052287581699336,0.6649214659685949,-9.384236453201972,-23.60176991150442,14.111111111111098,23.270928517905702,423.6691481040863,27.13818998354709,1179.0238960666345,64.56547297655514,2862.265955381459,0
-13.871914397711622,31.258018018018014,-39.85909595830129,-125.6782981328436,124.52626086956523,64.27909469922571,-39.35072012456203,-13.337899543378994,-68.27956989247312,-27.735632183908045,-29.052287581699336,0.6649214659685949,-9.384236453201972,-23.60176991150442,14.111111111111098,23.270928517905702,423.6691481040863,28.329676124676975,1294.9480509386945,65.5984707030543,2725.6838834286536,0
-13.871914397711622,31.258018018018014,-39.85909595830129,-125.6782981328436,124.52626086956523,64.27909469922571,-39.35072012456203,0.5799086757990892,-20.48387096774195,-18.977011494252874,-22.41176470588234,-9.973821989528787,-29.40394088669951,-21.35398230088495,16.28205128205127,17.4332940378551,76.59258815755392,28.329676124676975,1294.9480509386945,65.5984707030543,2725.6838834286536,0
-13.871914397711622,31.258018018018014,-39.85909595830129,-125.6782981328436,124.52626086956523,64.27909469922571,-39.35072012456203,-5.219178082191778,-35.50537634408603,7.298850574712646,-127.0,-16.62303664921465,-31.9064039408867,-39.3362831858407,7.5982905982905855,33.81092742190289,1603.447919805744,28.329676124676975,1294.9480509386945,65.5984707030543,2725.6838834286536,0
-5.933573471766078,37.11603603603603,-45.82765102965052,-125.09519436792164,123.02434782608698,68.54520547945208,-41.42701440249124,-5.219178082191778,-35.50537634408603,7.298850574712646,-127.0,-16.62303664921465,-31.9064039408867,-39.3362831858407,7.5982905982905855,33.81092742190289,1603.447919805744,29.62575351248421,1720.7435878365472,69.34629381120273,2349.9279939114426,0
-5.933573471766078,37.11603603603603,-45.82765102965052,-125.09519436792164,123.02434782608698,68.54520547945208,-41.42701440249124,9.858447488584478,50.52688172043009,72.98850574712645,2.490196078431385,-19.282722513088995,-9.384236453201972,6.743362831858409,61.871794871794854,29.14326846306458,788.9308945095378,29.62575351248421,1720.7435878365472,69.34629381120273,2349.9279939114426,0
-5.933573471766078,37.11603603603603,-45.82765102965052,-125.09519436792164,123.02434782608698,68.54520547945208,-41.42701440249124,12.178082191780824,49.161290322580626,70.0689655172414,25.73202614379086,7.314136125654459,-25.65024630541872,-19.106194690265482,31.478632478632463,30.0861967219206,423.26915510163917,29.62575351248421,1720.7435878365472,69.34629381120273,2349.9279939114426,0
-6.391037186142601,47.91675675675675,-52.44732119969238,-123.50137741046832,120.46226086956524,73.77951161405599,-41.674192292720875,12.178082191780824,49.161290322580626,70.0689655172414,25.73202614379086,7.314136125654459,-25.65024630541872,-19.106194690265482,31.478632478632463,30.0861967219206,423.26915510163917,35.585038380863914,2523.910987354896,74.62181845563914,1797.0399662568639,0
-6.391037186142601,47.91675675675675,-52.44732119969238,-123.50137741046832,120.46226086956524,73.77951161405599,-41.674192292720875,13.337899543378999,58.720430107526866,-30.655172413793103,-85.49673202614379,16.62303664921467,-10.635467980295568,-31.469026548672563,16.28205128205127,32.9024770688846,694.2398047767792,35.585038380863914,2523.910987354896,74.62181845563914,1797.0399662568639,0
-6.391037186142601,47.91675675675675,-52.44732119969238,-123.50137741046832,120.46226086956524,73.77951161405599,-41.674192292720875,24.936073059360734,126.99999999999997,54.01149425287357,-17.431372549019596,19.282722513089013,-3.128078817733991,-33.71681415929203,33.64957264957263,39.14451600011769,1480.611785440395,35.585038380863914,2523.910987354896,74.62181845563914,1797.0399662568639,0
-12.230426952007628,48.46594594594594,-58.58950696402631,-120.3526170798898,117.11976811594205,79.2861226920786,-39.74620474892953,24.936073059360734,126.99999999999997,54.01149425287357,-17.431372549019596,19.282722513089013,-3.128078817733991,-33.71681415929203,33.64957264957263,39.14451600011769,1480.611785440395,39.76195995399329,2882.347330047912,75.80268999662069,1514.1436242651453,0
-12.230426952007628,48.46594594594594,-58.58950696402631,-120.3526170798898,117.11976811594205,79.2861226920786,-39.74620474892953,-13.337899543378994,-53.258064516129046,5.839080459770117,5.810457516339881,33.91099476439791,-15.640394088669952,-47.203539823008846,-7.59829059829061,22.82484016374817,370.69661919877984,39.76195995399329,2882.347330047912,75.80268999662069,1514.1436242651453,0
-12.230426952007628,48.46594594594594,-58.58950696402631,-120.3526170798898,117.11976811594205,79.2861226920786,-39.74620474892953,8.698630136986305,-61.451612903225815,-35.03448275862069,-32.37254901960783,16.62303664921467,-25.65024630541872,-22.477876106194685,16.28205128205127,27.323810645164997,265.6084818061297,39.76195995399329,2882.347330047912,75.80268999662069,1514.1436242651453,0
-7.790337959529612,41.41801801801801,-74.41160386225754,-117.02892561983471,113.42388405797102,87.18296605122094,-41.674192292720875,8.698630136986305,-61.451612903225815,-35.03448275862069,-32.37254901960783,16.62303664921467,-25.65024630541872,-22.477876106194685,16.28205128205127,27.323810645164997,265.6084818061297,41.206653279935054,3379.392778903772,77.61951583337009,1436.970361503421,0
-7.790337959529612,41.41801801801801,-74.41160386225754,-117.02892561983471,113.42388405797102,87.18296605122094,-41.674192292720875,9.858447488584478,6.827956989247296,1.4597701149425308,-5.8104575163398575,21.942408376963357,5.6305418719211815,11.23893805309735,46.675213675213655,13.680466760788715,214.36036426665714,41.206653279935054,3379.392778903772,77.61951583337009,1436.970361503421,0
-7.790337959529612,41.41801801801801,-74.41160386225754,-117.02892561983471,113.42388405797102,87.18296605122094,-41.674192292720875,5.2191780821917835,-38.23655913978496,61.31034482758621,17.43137254901962,-16.62303664921465,-20.645320197044335,-4.495575221238935,22.79487179487178,23.344532307619033,347.8169810609248,41.206653279935054,3379.392778903772,77.61951583337009,1436.970361503421,0
-17.04725076808984,52.401801801801795,-78.25318294454414,-112.8305785123967,109.10956521739132,94.2931506849315,-41.03152977812374,5.2191780821917835,-38.23655913978496,61.31034482758621,17.43137254901962,-16.62303664921465,-20.645320197044335,-4.495575221238935,22.79487179487178,23.344532307619033,347.8169810609248,49.23407850481192,4273.343679252031,81.16185441958088,919.2545409970036,0
-17.04725076808984,52.401801801801795,-78.25318294454414,-112.8305785123967,109.10956521739132,94.2931506849315,-41.03152977812374,-33.054794520547944,-68.27956989247312,89.04597701149426,65.57516339869282,19.282722513089013,-24.399014778325125,-19.106194690265482,18.45299145299144,42.149553532234904,777.7175938908475,49.23407850481192,4273.343679252031,81.16185441958088,919.2545409970036,0
-17.04725076808984,52.401801801801795,-78.25318294454414,-112.8305785123967,109.10956521739132,94.2931506849315,-41.03152977812374,7.538812785388131,20.483870967741918,4.379310344827588,-20.751633986928095,19.282722513089013,-4.379310344827587,10.115044247787612,42.333333333333314,16.158004815490408,160.42990873994287,49.23407850481192,4273.343679252031,81.16185441958088,919.2545409970036,0
-41.50810467210509,66.9553153153153,-81.74750064086132,-107.07728803183349,104.27988405797102,98.77105419892791,-34.75321136629037,7.538812785388131,20.483870967741918,4.379310344827588,-20.751633986928095,19.282722513089013,-4.379310344827587,10.115044247787612,42.333333333333314,16.158004815490408,160.42990873994287,63.40364020942724,5916.00832276574,85.26003466267004,411.69659510703025,0
-41.50810467210509,66.9553153153153,-81.74750064086132,-107.07728803183349,104.27988405797102,98.77105419892791,-34.75321136629037,1.7397260273972628,-25.9462365591398,-27.735632183908045,37.3529411764706,65.82722513089006,0.6256157635467972,-2.247787610619465,42.333333333333314,25.47606222316317,539.8974282841926,63.40364020942724,5916.00832276574,85.26003466267004,411.69659510703025,0
-41.50810467210509,66.9553153153153,-81.74750064086132,-107.07728803183349,104.27988405797102,98.77105419892791,-34.75321136629037,-2.8995433789954315,9.559139784946222,48.17241379310345,-0.8300653594771124,-16.62303664921465,-20.645320197044335,-22.477876106194685,18.45299145299144,17.457548340245914,218.7499161804079,63.40364020942724,5916.00832276574,85.26003466267004,411.69659510703025,0
-60.61394215488929,75.55927927927928,-88.1284286080492,-99.80792776247321,98.75814492753624,101.52435973793928,-24.569482288828283,-2.8995433789954315,9.559139784946222,48.17241379310345,-0.8300653594771124,-16.62303664921465,-20.645320197044335,-22.477876106194685,18.45299145299144,17.457548340245914,218.7499161804079,74.76721668073925,7682.309818991268,87.83187854993389,147.06519476810197,0
-60.61394215488929,75.55927927927928,-88.1284286080492,-99.80792776247321,98.75814492753624,101.52435973793928,-24.569482288828283,-2.8995433789954315,-51.89247311827958,4.379310344827588,-78.85620915032679,-51.19895287958114,-48.17241379310345,-34.84070796460176,3.256410256410245,34.437002610765745,802.5503391622311,74.76721668073925,7682.309818991268,87.83187854993389,147.06519476810197,0
-60.61394215488929,75.55927927927928,-88.1284286080492,-99.80792776247321,98.75814492753624,101.52435973793928,-24.569482288828283,-16.817351598173513,-75.10752688172045,-35.03448275862069,-15.771241830065348,-32.581151832460726,-23.14778325123153,-13.486725663716811,18.45299145299144,28.799906908622564,412.0556919138891,74.76721668073925,7682.309818991268,87.83187854993389,147.06519476810197,0
-70.1130416357665,69.60972972972972,-94.70469110484491,-91.37235996326905,92.70631884057973,103.40023823704587,-13.446477228493563,-16.817351598173513,-75.10752688172045,-35.03448275862069,-15.771241830065348,-32.581151832460726,-23.14778325123153,-13.486725663716811,18.45299145299144,28.799906908622564,412.0556919138891,78.14248749011371,7854.405159311074,85.22892693261457,185.74559865623326,0
-70.1130416357665,69.60972972972972,-94.70469110484491,-91.37235996326905,92.70631884057973,103.40023823704587,-13.446477228493563,7.538812785388131,12.290322580645146,23.356321839080465,-10.790849673202603,-7.314136125654441,-16.891625615763548,-23.60176991150442,20.62393162393161,15.300971269396296,45.44312305237265,78.14248749011371,7854.405159311074,85.22892693261457,185.74559865623326,0
-70.1130416357665,69.60972972972972,-94.70469110484491,-91.37235996326905,92.70631884057973,103.40023823704587,-13.446477228493563,-9.858447488584472,-49.161290322580655,23.356321839080465,-7.470588235294106,13.963350785340323,-9.384236453201972,4.495575221238941,31.478632478632463,18.646055352994175,232.585632563083,78.14248749011371,7854.405159311074,85.22892693261457,185.74559865623326,0
-77.5131899565632,68.69441441441441,-98.69819704349311,-82.17875726966636,86.21275362318842,104.36843359142347,-1.7796808096535415,-9.858447488584472,-49.161290322580655,23.356321839080465,-7.470588235294106,13.963350785340323,-9.384236453201972,4.495575221238941,31.478632478632463,18.646055352994175,232.585632563083,81.6352671381569,8307.625745311929,83.19045624252463,225.82439412201302,0
-77.5131899565632,68.69441441441441,-98.69819704349311,-82.17875726966636,86.21275362318842,104.36843359142347,-1.7796808096535415,-0.5799086757990843,-2.731182795698939,32.11494252873564,-35.69281045751633,-20.61256544502617,-26.901477832512317,-30.34513274336283,3.256410256410245,19.029303841882694,213.74647437592006,81.6352671381569,8307.625745311929,83.19045624252463,225.82439412201302,0
-77.5131899565632,68.69441441441441,-98.69819704349311,-82.17875726966636,86.21275362318842,104.36843359142347,-1.7796808096535415,5.2191780821917835,10.924731182795682,-49.63218390804598,25.73202614379086,36.57068062827226,-3.128078817733991,-10.115044247787608,31.478632478632463,21.600069436156325,282.8563435153108,81.6352671381569,8307.625745311929,83.19045624252463,225.82439412201302,0
-86.71628350460854,91.94342342342341,-102.99555669486456,-72.8490970309152,78.82098550724639,104.27766527695059,11.221876216426665,5.2191780821917835,10.924731182795682,-49.63218390804598,25.73202614379086,36.57068062827226,-3.128078817733991,-10.115044247787608,31.478632478632463,21.600069436156325,282.8563435153108,93.88508787429883,11697.585264128587,89.26269238306772,232.59199675057627,0
-86.71628350460854,91.94342342342341,-102.99555669486456,-72.8490970309152,78.82098550724639,104.27766527695059,11.221876216426665,-20.296803652968034,-42.33333333333334,-13.137931034482758,-53.95424836601306,-20.61256544502617,-25.65024630541872,-17.982300884955748,5.427350427350415,24.92434743119353,250.51214383031757,93.88508787429883,11697.585264128587,89.26269238306772,232.59199675057627,0
-86.71628350460854,91.94342342342341,-102.99555669486456,-72.8490970309152,78.82098550724639,104.27766527695059,11.221876216426665,-6.378995433789952,-20.48387096774195,46.71264367816092,-52.29411764705881,-11.303664921465959,-19.39408866995074,-22.477876106194685,7.5982905982905855,23.330443502831702,298.4917243428994,93.88508787429883,11697.585264128587,89.26269238306772,232.59199675057627,0
-96.05392520394109,85.62774774774775,-114.36836708536272,-62.003367003367,70.42794202898551,103.40023823704587,24.02569093032315,-6.378995433789952,-20.48387096774195,46.71264367816092,-52.29411764705881,-11.303664921465959,-19.39408866995074,-22.477876106194685,7.5982905982905855,23.330443502831702,298.4917243428994,98.68334667901718,12223.682502715183,87.33316061215915,687.7046331754278,0
-96.05392520394109,85.62774774774775,-114.36836708536272,-62.003367003367,70.42794202898551,103.40023823704587,24.02569093032315,0.5799086757990892,-31.408602150537646,-23.356321839080458,-58.93464052287581,12.633507853403149,-11.886699507389164,-21.35398230088495,22.79487179487178,22.868566830605257,299.7676145085099,98.68334667901718,12223.682502715183,87.33316061215915,687.7046331754278,0
-96.05392520394109,85.62774774774775,-114.36836708536272,-62.003367003367,70.42794202898551,103.40023823704587,24.02569093032315,0.5799086757990892,-1.509903313490213e-14,7.298850574712646,-22.41176470588234,0.6649214659685949,-14.389162561576356,-10.115044247787608,20.62393162393161,9.510447981957283,81.06550571694925,98.68334667901718,12223.682502715183,87.33316061215915,687.7046331754278,0
-104.58427799555038,65.03315315315314,-121.66085619072032,-49.89424548515457,61.622608695652175,100.85872543180466,36.186843129622446,0.5799086757990892,-1.509903313490213e-14,7.298850574712646,-22.41176470588234,0.6649214659685949,-14.389162561576356,-10.115044247787608,20.62393162393161,9.510447981957283,81.06550571694925,97.09276244647462,10652.722599538542,78.86275160967601,1431.0549481425512,0
-104.58427799555038,65.03315315315314,-121.66085619072032,-49.89424548515457,61.622608695652175,100.85872543180466,36.186843129622446,5.2191780821917835,24.580645161290306,24.816091954022994,40.6732026143791,21.942408376963357,-14.389162561576356,-16.858407079646014,29.307692307692292,22.223348517220273,111.74885927248422,97.09276244647462,10652.722599538542,78.86275160967601,1431.0549481425512,0
-104.58427799555038,65.03315315315314,-121.66085619072032,-49.89424548515457,61.622608695652175,100.85872543180466,36.186843129622446,-5.219178082191778,-20.48387096774195,17.51724137931035,5.810457516339881,-24.602094240837687,-20.645320197044335,-19.106194690265482,18.45299145299144,16.479668565840363,50.26571423248856,97.09276244647462,10652.722599538542,78.86275160967601,1431.0549481425512,0
-119.16929759508423,68.69441441441441,-122.16004443305135,-37.62962962962963,52.390260869565225,95.50339487790353,49.68275593616198,-5.219178082191778,-20.48387096774195,17.51724137931035,5.810457516339881,-24.602094240837687,-20.645320197044335,-19.106194690265482,18.45299145299144,16.479668565840363,50.26571423248856,103.34125214751667,11954.523886432607,76.16136282569846,1828.1642456422176,0
-119.16929759508423,68.69441441441441,-122.16004443305135,-37.62962962962963,52.390260869565225,95.50339487790353,49.68275593616198,-0.5799086757990843,-23.215053763440874,-13.137931034482758,-0.8300653594771124,-16.62303664921465,-26.901477832512317,-16.858407079646014,24.96581196581195,15.388961545048096,103.64580994134529,103.34125214751667,11954.523886432607,76.16136282569846,1828.1642456422176,0
-119.16929759508423,68.69441441441441,-122.16004443305135,-37.62962962962963,52.390260869565225,95.50339487790353,49.68275593616198,6.378995433789957,-15.0215053763441,2.91954022988506,-2.49019607843136,4.654450261780113,-13.13793103448276,-20.230088495575217,27.136752136752122,11.496182380880086,80.52760852566772,103.34125214751667,11954.523886432607,76.16136282569846,1828.1642456422176,0
-127.0,96.88612612612611,-124.48235495172177,-25.967554331190698,42.171362318840586,88.72602739726028,63.07979758660957,6.378995433789957,-15.0215053763441,2.91954022988506,-2.49019607843136,4.654450261780113,-13.13793103448276,-20.230088495575217,27.136752136752122,11.496182380880086,80.52760852566772,116.12282702594929,16522.55673717771,82.44534513634619,2582.6936020218395,0
-127.0,96.88612612612611,-124.48235495172177,-25.967554331190698,42.171362318840586,88.72602739726028,63.07979758660957,0.5799086757990892,-12.290322580645174,11.678160919540232,-14.1111111111111,-3.324607329842923,-15.640394088669952,-17.982300884955748,20.62393162393161,12.028842151811979,47.67593089256407,116.12282702594929,16522.55673717771,82.44534513634619,2582.6936020218395,0
-127.0,96.88612612612611,-124.48235495172177,-25.967554331190698,42.171362318840586,88.72602739726028,63.07979758660957,-4.059360730593605,-17.752688172043023,29.195402298850578,0.8300653594771354,16.62303664921467,-9.384236453201972,-10.115044247787608,27.136752136752122,14.387073255990089,104.55721909982485,116.12282702594929,16522.55673717771,82.44534513634619,2582.6936020218395,0
-121.53734505773917,106.77153153153152,-126.69614628727676,-14.810835629017447,31.554898550724644,81.88814770696843,73.31296224211764,-4.059360730593605,-17.752688172043023,29.195402298850578,0.8300653594771354,16.62303664921467,-9.384236453201972,-10.115044247787608,27.136752136752122,14.387073255990089,104.55721909982485,118.33500762551581,17776.452157614596,82.75950448260858,3562.013767522454,0
-121.53734505773917,106.77153153153152,-126.69614628727676,-14.810835629017447,31.554898550724644,81.88814770696843,73.31296224211764,6.378995433789957,-4.096774193548402,29.195402298850578,-12.450980392156852,-1.994764397905751,-11.886699507389164,-17.982300884955748,29.307692307692292,14.161701177036093,112.57428736215456,118.33500762551581,17776.452157614596,82.75950448260858,3562.013767522454,0
