,Gyro 0,Gyro 1,Gyro 2,Label,Orientation 0,Orientation 1,Orientation 2,Orientation 3,Sensor 0,Sensor 1,Sensor 2,Sensor 3,Sensor 4,Sensor 5,Sensor 6,Sensor 7,Timestamp
0,-176.0,-257.0,6.0,0.0,10608.0,11554.0,-4584.0,1174.0,0.0,0.0,0.0,-2.0,-12.0,-2.0,0.0,2.0,2.1457672119140625e-06
1,-176.0,-257.0,6.0,0.0,10608.0,11554.0,-4584.0,1174.0,0.0,-3.0,2.0,-2.0,1.0,-3.0,-3.0,-1.0,0.002405881881713867
2,-176.0,-257.0,6.0,0.0,10608.0,11554.0,-4584.0,1174.0,-1.0,-3.0,-2.0,-3.0,-2.0,-2.0,1.0,0.0,0.0053598880767822266
3,-223.0,-272.0,23.0,0.0,10621.0,11530.0,-4625.0,1136.0,-1.0,-3.0,-2.0,-3.0,-2.0,-2.0,1.0,0.0,0.008734703063964844
4,-223.0,-272.0,23.0,0.0,10621.0,11530.0,-4625.0,1136.0,-2.0,-3.0,-4.0,5.0,7.0,-2.0,-5.0,-5.0,0.010683774948120117
5,-223.0,-272.0,23.0,0.0,10621.0,11530.0,-4625.0,1136.0,-2.0,2.0,5.0,8.0,3.0,-1.0,1.0,0.0,0.012498855590820312
6,-250.0,-299.0,44.0,0.0,10635.0,11500.0,-4675.0,1100.0,-2.0,2.0,5.0,8.0,3.0,-1.0,1.0,0.0,0.014293432235717773
7,-250.0,-299.0,44.0,0.0,10635.0,11500.0,-4675.0,1100.0,3.0,5.0,2.0,3.0,1.0,2.0,1.0,0.0,0.016152620315551758
8,-250.0,-299.0,44.0,0.0,10635.0,11500.0,-4675.0,1100.0,-4.0,-2.0,-5.0,-3.0,5.0,1.0,1.0,-1.0,0.018270492553710938
9,-247.0,-265.0,71.0,0.0,10647.0,11471.0,-4726.0,1070.0,-4.0,-2.0,-5.0,-3.0,5.0,1.0,1.0,-1.0,0.020771026611328125
10,-247.0,-265.0,71.0,0.0,10647.0,11471.0,-4726.0,1070.0,-2.0,-3.0,-2.0,-6.0,-3.0,-3.0,-2.0,-2.0,0.024675369262695312
11,-247.0,-265.0,71.0,0.0,10647.0,11471.0,-4726.0,1070.0,1.0,0.0,2.0,3.0,0.0,-2.0,-2.0,-1.0,0.026524782180786133
12,-287.0,-229.0,84.0,0.0,10665.0,11436.0,-4775.0,1046.0,1.0,0.0,2.0,3.0,0.0,-2.0,-2.0,-1.0,0.028516769409179688
13,-287.0,-229.0,84.0,0.0,10665.0,11436.0,-4775.0,1046.0,-3.0,-1.0,-2.0,0.0,11.0,2.0,3.0,1.0,0.030417919158935547
14,-287.0,-229.0,84.0,0.0,10665.0,11436.0,-4775.0,1046.0,1.0,-1.0,-3.0,-5.0,0.0,-2.0,-6.0,0.0,0.03218579292297363
15,-316.0,-208.0,82.0,0.0,10690.0,11394.0,-4823.0,1024.0,1.0,-1.0,-3.0,-5.0,0.0,-2.0,-6.0,0.0,0.03395485877990723
16,-316.0,-208.0,82.0,0.0,10690.0,11394.0,-4823.0,1024.0,4.0,5.0,6.0,-1.0,-8.0,-1.0,0.0,3.0,0.03613471984863281
17,-316.0,-208.0,82.0,0.0,10690.0,11394.0,-4823.0,1024.0,2.0,3.0,4.0,1.0,4.0,2.0,-2.0,-1.0,0.037932634353637695
18,-170.0,-220.0,47.0,0.0,10699.0,11372.0,-4861.0,1000.0,2.0,3.0,4.0,1.0,4.0,2.0,-2.0,-1.0,0.04061746597290039
19,-170.0,-220.0,47.0,0.0,10699.0,11372.0,-4861.0,1000.0,-4.0,-6.0,-4.0,5.0,8.0,0.0,-2.0,0.0,0.04292893409729004
20,-170.0,-220.0,47.0,0.0,10699.0,11372.0,-4861.0,1000.0,0.0,-4.0,0.0,2.0,-1.0,-2.0,-4.0,-2.0,0.044851064682006836
21,-135.0,-219.0,38.0,0.0,10706.0,11355.0,-4892.0,971.0,0.0,-4.0,0.0,2.0,-1.0,-2.0,-4.0,-2.0,0.04665994644165039
22,-135.0,-219.0,38.0,0.0,10706.0,11355.0,-4892.0,971.0,-1.0,-2.0,-3.0,8.0,6.0,0.0,1.0,-1.0,0.04851531982421875
23,-135.0,-219.0,38.0,0.0,10706.0,11355.0,-4892.0,971.0,-2.0,-3.0,-9.0,-14.0,-12.0,-2.0,-2.0,-2.0,0.051163434982299805
24,-116.0,-196.0,22.0,0.0,10711.0,11342.0,-4916.0,940.0,-2.0,-3.0,-9.0,-14.0,-12.0,-2.0,-2.0,-2.0,0.053743600845336914
25,-116.0,-196.0,22.0,0.0,10711.0,11342.0,-4916.0,940.0,1.0,3.0,3.0,-13.0,-4.0,-1.0,-3.0,0.0,0.05643916130065918
26,-116.0,-196.0,22.0,0.0,10711.0,11342.0,-4916.0,940.0,2.0,1.0,3.0,8.0,9.0,0.0,-1.0,2.0,0.058623552322387695
27,-189.0,-139.0,13.0,0.0,10727.0,11324.0,-4929.0,906.0,2.0,1.0,3.0,8.0,9.0,0.0,-1.0,2.0,0.06043839454650879
28,-189.0,-139.0,13.0,0.0,10727.0,11324.0,-4929.0,906.0,-1.0,0.0,-1.0,-5.0,-9.0,-1.0,0.0,-4.0,0.0623164176940918
29,-189.0,-139.0,13.0,0.0,10727.0,11324.0,-4929.0,906.0,-4.0,-1.0,-4.0,-12.0,-3.0,2.0,-3.0,-2.0,0.06413865089416504
30,-350.0,-100.0,-22.0,0.0,10763.0,11291.0,-4934.0,861.0,-4.0,-1.0,-4.0,-12.0,-3.0,2.0,-3.0,-2.0,0.06610488891601562
31,-350.0,-100.0,-22.0,0.0,10763.0,11291.0,-4934.0,861.0,2.0,5.0,6.0,6.0,-4.0,-2.0,2.0,2.0,0.06819272041320801
32,-350.0,-100.0,-22.0,0.0,10763.0,11291.0,-4934.0,861.0,-1.0,0.0,1.0,7.0,2.0,0.0,-3.0,-2.0,0.0700075626373291
33,-420.0,-93.0,-47.0,0.0,10807.0,11251.0,-4937.0,813.0,-1.0,0.0,1.0,7.0,2.0,0.0,-3.0,-2.0,0.07177948951721191
34,-420.0,-93.0,-47.0,0.0,10807.0,11251.0,-4937.0,813.0,-2.0,4.0,-2.0,-6.0,-3.0,0.0,-2.0,-2.0,0.07368707656860352
35,-420.0,-93.0,-47.0,0.0,10807.0,11251.0,-4937.0,813.0,-2.0,-2.0,-3.0,-5.0,3.0,2.0,0.0,-3.0,0.07547903060913086
36,-343.0,-112.0,-67.0,0.0,10836.0,11224.0,-4942.0,765.0,-2.0,-2.0,-3.0,-5.0,3.0,2.0,0.0,-3.0,0.07727694511413574
37,-343.0,-112.0,-67.0,0.0,10836.0,11224.0,-4942.0,765.0,-3.0,-5.0,-5.0,1.0,2.0,-1.0,-1.0,-1.0,0.07912445068359375
38,-343.0,-112.0,-67.0,0.0,10836.0,11224.0,-4942.0,765.0,0.0,-1.0,1.0,7.0,-1.0,-1.0,-3.0,-2.0,0.08163714408874512
39,-322.0,-85.0,-58.0,0.0,10863.0,11200.0,-4944.0,722.0,0.0,-1.0,1.0,7.0,-1.0,-1.0,-3.0,-2.0,0.08406472206115723
40,-322.0,-85.0,-58.0,0.0,10863.0,11200.0,-4944.0,722.0,0.0,-2.0,-3.0,-3.0,1.0,-1.0,-1.0,-1.0,0.08595728874206543
41,-322.0,-85.0,-58.0,0.0,10863.0,11200.0,-4944.0,722.0,-2.0,-2.0,0.0,-3.0,-8.0,-3.0,-1.0,0.0,0.08774232864379883
42,-331.0,-58.0,-90.0,0.0,10894.0,11173.0,-4942.0,682.0,-2.0,-2.0,0.0,-3.0,-8.0,-3.0,-1.0,0.0,0.09081363677978516
43,-331.0,-58.0,-90.0,0.0,10894.0,11173.0,-4942.0,682.0,0.0,-1.0,1.0,-2.0,-5.0,1.0,-1.0,0.0,0.0927581787109375
44,-331.0,-58.0,-90.0,0.0,10894.0,11173.0,-4942.0,682.0,-1.0,-2.0,-16.0,-38.0,0.0,-2.0,0.0,2.0,0.0945425033569336
45,-235.0,-27.0,-123.0,0.0,10914.0,11158.0,-4935.0,652.0,-1.0,-2.0,-16.0,-38.0,0.0,-2.0,0.0,2.0,0.09631609916687012
46,-235.0,-27.0,-123.0,0.0,10914.0,11158.0,-4935.0,652.0,-1.0,-4.0,0.0,-2.0,-10.0,-1.0,0.0,1.0,0.09818053245544434
47,-235.0,-27.0,-123.0,0.0,10914.0,11158.0,-4935.0,652.0,1.0,-2.0,6.0,20.0,-8.0,-1.0,-2.0,-4.0,0.10008072853088379
48,-161.0,-5.0,-115.0,0.0,10929.0,11152.0,-4922.0,625.0,1.0,-2.0,6.0,20.0,-8.0,-1.0,-2.0,-4.0,0.10211348533630371
49,-161.0,-5.0,-115.0,0.0,10929.0,11152.0,-4922.0,625.0,-2.0,-8.0,-5.0,-7.0,1.0,-4.0,-1.0,-3.0,0.10399055480957031
50,-161.0,-5.0,-115.0,0.0,10929.0,11152.0,-4922.0,625.0,1.0,-2.0,3.0,4.0,3.0,-1.0,1.0,1.0,0.10576510429382324
51,-91.0,13.0,-76.0,0.0,10935.0,11153.0,-4909.0,605.0,1.0,-2.0,3.0,4.0,3.0,-1.0,1.0,1.0,0.10755157470703125
52,-91.0,13.0,-76.0,0.0,10935.0,11153.0,-4909.0,605.0,0.0,0.0,2.0,13.0,2.0,-3.0,-1.0,-2.0,0.10956835746765137
53,-91.0,13.0,-76.0,0.0,10935.0,11153.0,-4909.0,605.0,-1.0,1.0,4.0,8.0,1.0,0.0,2.0,0.0,0.11213207244873047
54,-103.0,-44.0,-48.0,0.0,10937.0,11152.0,-4908.0,585.0,-1.0,1.0,4.0,8.0,1.0,0.0,2.0,0.0,0.11450338363647461
55,-103.0,-44.0,-48.0,0.0,10937.0,11152.0,-4908.0,585.0,-1.0,1.0,1.0,4.0,3.0,1.0,-1.0,1.0,0.11637544631958008
56,-103.0,-44.0,-48.0,0.0,10937.0,11152.0,-4908.0,585.0,-3.0,-2.0,-2.0,-2.0,2.0,-2.0,-3.0,1.0,0.1181793212890625
57,-61.0,-47.0,-7.0,0.0,10936.0,11149.0,-4917.0,576.0,-3.0,-2.0,-2.0,-2.0,2.0,-2.0,-3.0,1.0,0.11994361877441406
58,-61.0,-47.0,-7.0,0.0,10936.0,11149.0,-4917.0,576.0,0.0,1.0,1.0,-1.0,4.0,3.0,2.0,0.0,0.12204432487487793
59,-61.0,-47.0,-7.0,0.0,10936.0,11149.0,-4917.0,576.0,2.0,-2.0,-2.0,-5.0,4.0,0.0,0.0,0.0,0.12475180625915527
60,106.0,4.0,-18.0,0.0,10920.0,11166.0,-4915.0,581.0,2.0,-2.0,-2.0,-5.0,4.0,0.0,0.0,0.0,0.12659263610839844
61,106.0,4.0,-18.0,0.0,10920.0,11166.0,-4915.0,581.0,-2.0,-1.0,-3.0,-7.0,-7.0,-2.0,-1.0,-1.0,0.12847256660461426
62,106.0,4.0,-18.0,0.0,10920.0,11166.0,-4915.0,581.0,1.0,1.0,-8.0,-27.0,0.0,-2.0,0.0,-1.0,0.13025259971618652
63,111.0,12.0,-35.0,0.0,10903.0,11186.0,-4907.0,579.0,1.0,1.0,-8.0,-27.0,0.0,-2.0,0.0,-1.0,0.13205623626708984
64,111.0,12.0,-35.0,0.0,10903.0,11186.0,-4907.0,579.0,0.0,-5.0,-2.0,1.0,4.0,1.0,-1.0,2.0,0.13389968872070312
65,111.0,12.0,-35.0,0.0,10903.0,11186.0,-4907.0,579.0,0.0,-1.0,3.0,9.0,-10.0,-3.0,-3.0,-1.0,0.13601303100585938
66,104.0,-43.0,-52.0,0.0,10888.0,11206.0,-4898.0,564.0,0.0,-1.0,3.0,9.0,-10.0,-3.0,-3.0,-1.0,0.13781166076660156
67,104.0,-43.0,-52.0,0.0,10888.0,11206.0,-4898.0,564.0,-2.0,-2.0,-2.0,-1.0,3.0,0.0,0.0,-3.0,0.13971209526062012
68,104.0,-43.0,-52.0,0.0,10888.0,11206.0,-4898.0,564.0,-2.0,-1.0,3.0,-2.0,-11.0,-1.0,-1.0,-2.0,0.14188742637634277
69,89.0,-81.0,-52.0,0.0,10873.0,11223.0,-4893.0,545.0,-2.0,-1.0,3.0,-2.0,-11.0,-1.0,-1.0,-2.0,0.14445781707763672
70,89.0,-81.0,-52.0,0.0,10873.0,11223.0,-4893.0,545.0,2.0,0.0,-2.0,-6.0,-4.0,0.0,0.0,0.0,0.14662885665893555
71,89.0,-81.0,-52.0,0.0,10873.0,11223.0,-4893.0,545.0,-4.0,-2.0,-3.0,9.0,8.0,-1.0,0.0,-1.0,0.14846444129943848
72,131.0,-43.0,-27.0,0.0,10857.0,11243.0,-4884.0,532.0,-4.0,-2.0,-3.0,9.0,8.0,-1.0,0.0,-1.0,0.15032958984375
73,131.0,-43.0,-27.0,0.0,10857.0,11243.0,-4884.0,532.0,1.0,8.0,3.0,-4.0,-6.0,-2.0,1.0,1.0,0.15230536460876465
74,131.0,-43.0,-27.0,0.0,10857.0,11243.0,-4884.0,532.0,-2.0,-2.0,-6.0,0.0,-5.0,-1.0,-4.0,-2.0,0.15411114692687988
75,199.0,6.0,-29.0,0.0,10838.0,11269.0,-4867.0,527.0,-2.0,-2.0,-6.0,0.0,-5.0,-1.0,-4.0,-2.0,0.15668678283691406
76,199.0,6.0,-29.0,0.0,10838.0,11269.0,-4867.0,527.0,2.0,8.0,4.0,5.0,9.0,0.0,0.0,-1.0,0.1589367389678955
77,199.0,6.0,-29.0,0.0,10838.0,11269.0,-4867.0,527.0,0.0,-1.0,1.0,-3.0,6.0,2.0,0.0,-1.0,0.1607358455657959
78,194.0,-62.0,-33.0,0.0,10813.0,11299.0,-4856.0,510.0,0.0,-1.0,1.0,-3.0,6.0,2.0,0.0,-1.0,0.1625349521636963
79,194.0,-62.0,-33.0,0.0,10813.0,11299.0,-4856.0,510.0,-3.0,-6.0,-8.0,-3.0,-7.0,-2.0,-1.0,-1.0,0.16440367698669434
80,194.0,-62.0,-33.0,0.0,10813.0,11299.0,-4856.0,510.0,0.0,3.0,0.0,6.0,1.0,1.0,3.0,1.0,0.16621041297912598
81,163.0,-96.0,6.0,0.0,10786.0,11327.0,-4851.0,487.0,0.0,3.0,0.0,6.0,1.0,1.0,3.0,1.0,0.1682589054107666
82,163.0,-96.0,6.0,0.0,10786.0,11327.0,-4851.0,487.0,-3.0,-4.0,-1.0,12.0,10.0,1.0,-2.0,0.0,0.1701812744140625
83,163.0,-96.0,6.0,0.0,10786.0,11327.0,-4851.0,487.0,-1.0,-2.0,0.0,5.0,3.0,-3.0,-8.0,-1.0,0.17245054244995117
84,125.0,-115.0,31.0,0.0,10767.0,11348.0,-4848.0,459.0,-1.0,-2.0,0.0,5.0,3.0,-3.0,-8.0,-1.0,0.17496657371520996
85,125.0,-115.0,31.0,0.0,10767.0,11348.0,-4848.0,459.0,-3.0,-3.0,-2.0,-6.0,-9.0,-5.0,-1.0,-5.0,0.17711424827575684
86,125.0,-115.0,31.0,0.0,10767.0,11348.0,-4848.0,459.0,-2.0,-1.0,1.0,5.0,11.0,1.0,1.0,-2.0,0.17892789840698242
87,28.0,-89.0,58.0,0.0,10760.0,11357.0,-4845.0,432.0,-2.0,-1.0,1.0,5.0,11.0,1.0,1.0,-2.0,0.18071842193603516
88,28.0,-89.0,58.0,0.0,10760.0,11357.0,-4845.0,432.0,1.0,-2.0,-1.0,-3.0,-2.0,-2.0,-6.0,0.0,0.18259382247924805
89,28.0,-89.0,58.0,0.0,10760.0,11357.0,-4845.0,432.0,3.0,4.0,4.0,3.0,-2.0,-1.0,7.0,3.0,0.18441176414489746
90,30.0,-94.0,98.0,0.0,10757.0,11359.0,-4848.0,411.0,3.0,4.0,4.0,3.0,-2.0,-1.0,7.0,3.0,0.18628501892089844
91,30.0,-94.0,98.0,0.0,10757.0,11359.0,-4848.0,411.0,-2.0,0.0,-2.0,-11.0,-2.0,4.0,0.0,-1.0,0.18815922737121582
92,30.0,-94.0,98.0,0.0,10757.0,11359.0,-4848.0,411.0,-2.0,-6.0,-3.0,4.0,1.0,-4.0,-5.0,-2.0,0.19118809700012207
93,141.0,-111.0,131.0,0.0,10733.0,11377.0,-4861.0,399.0,-2.0,-6.0,-3.0,4.0,1.0,-4.0,-5.0,-2.0,0.19309592247009277
94,141.0,-111.0,131.0,0.0,10733.0,11377.0,-4861.0,399.0,-1.0,-1.0,-3.0,-4.0,-10.0,0.0,2.0,-5.0,0.19497442245483398
95,141.0,-111.0,131.0,0.0,10733.0,11377.0,-4861.0,399.0,-3.0,-2.0,-5.0,-4.0,-14.0,-1.0,-5.0,-2.0,0.1967620849609375
96,82.0,-192.0,148.0,0.0,10711.0,11387.0,-4887.0,379.0,-3.0,-2.0,-5.0,-4.0,-14.0,-1.0,-5.0,-2.0,0.19856834411621094
97,82.0,-192.0,148.0,0.0,10711.0,11387.0,-4887.0,379.0,-1.0,-5.0,-1.0,0.0,-3.0,-11.0,-4.0,-1.0,0.20043230056762695
98,82.0,-192.0,148.0,0.0,10711.0,11387.0,-4887.0,379.0,1.0,0.0,0.0,-1.0,8.0,4.0,14.0,5.0,0.202714204788208
99,-35.0,-254.0,109.0,0.0,10702.0,11383.0,-4920.0,345.0,1.0,0.0,0.0,-1.0,8.0,4.0,14.0,5.0,0.2055196762084961
100,-35.0,-254.0,109.0,0.0,10702.0,11383.0,-4920.0,345.0,0.0,-1.0,-3.0,-9.0,-8.0,-5.0,-8.0,-5.0,0.20783734321594238
101,-35.0,-254.0,109.0,0.0,10702.0,11383.0,-4920.0,345.0,-1.0,0.0,1.0,14.0,16.0,1.0,-4.0,-4.0,0.20966386795043945
102,-71.0,-253.0,92.0,0.0,10699.0,11372.0,-4952.0,310.0,-1.0,0.0,1.0,14.0,16.0,1.0,-4.0,-4.0,0.21146678924560547
103,-71.0,-253.0,92.0,0.0,10699.0,11372.0,-4952.0,310.0,-3.0,-5.0,0.0,2.0,7.0,7.0,4.0,0.0,0.21334576606750488
104,-71.0,-253.0,92.0,0.0,10699.0,11372.0,-4952.0,310.0,-2.0,-1.0,6.0,7.0,3.0,1.0,-3.0,-3.0,0.21517586708068848
105,-45.0,-254.0,40.0,0.0,10692.0,11368.0,-4979.0,271.0,-2.0,-1.0,6.0,7.0,3.0,1.0,-3.0,-3.0,0.21699833869934082
106,-45.0,-254.0,40.0,0.0,10692.0,11368.0,-4979.0,271.0,4.0,3.0,0.0,4.0,-1.0,2.0,1.0,2.0,0.21891021728515625
107,-45.0,-254.0,40.0,0.0,10692.0,11368.0,-4979.0,271.0,-2.0,2.0,-1.0,-7.0,-6.0,5.0,3.0,-1.0,0.220703125
108,-47.0,-262.0,9.0,0.0,10680.0,11371.0,-5002.0,225.0,-2.0,2.0,-1.0,-7.0,-6.0,5.0,3.0,-1.0,0.22354793548583984
109,-47.0,-262.0,9.0,0.0,10680.0,11371.0,-5002.0,225.0,-2.0,-3.0,-2.0,-6.0,-10.0,-7.0,0.0,-2.0,0.22568702697753906
110,-47.0,-262.0,9.0,0.0,10680.0,11371.0,-5002.0,225.0,1.0,0.0,-2.0,-8.0,-6.0,-2.0,-3.0,-1.0,0.22749757766723633
111,-159.0,-279.0,0.0,0.0,10680.0,11360.0,-5029.0,172.0,1.0,0.0,-2.0,-8.0,-6.0,-2.0,-3.0,-1.0,0.22928452491760254
112,-159.0,-279.0,0.0,0.0,10680.0,11360.0,-5029.0,172.0,1.0,0.0,1.0,7.0,13.0,6.0,4.0,3.0,0.23124980926513672
113,-159.0,-279.0,0.0,0.0,10680.0,11360.0,-5029.0,172.0,0.0,-4.0,1.0,9.0,1.0,-3.0,-6.0,-3.0,0.23306918144226074
114,-207.0,-256.0,-31.0,0.0,10686.0,11344.0,-5052.0,119.0,0.0,-4.0,1.0,9.0,1.0,-3.0,-6.0,-3.0,0.2359311580657959
115,-207.0,-256.0,-31.0,0.0,10686.0,11344.0,-5052.0,119.0,2.0,0.0,2.0,0.0,-2.0,0.0,-1.0,2.0,0.23860549926757812
116,-207.0,-256.0,-31.0,0.0,10686.0,11344.0,-5052.0,119.0,0.0,2.0,-2.0,-8.0,2.0,-3.0,0.0,-1.0,0.24157118797302246
117,-178.0,-219.0,-55.0,0.0,10695.0,11330.0,-5067.0,70.0,0.0,2.0,-2.0,-8.0,2.0,-3.0,0.0,-1.0,0.2434074878692627
118,-178.0,-219.0,-55.0,0.0,10695.0,11330.0,-5067.0,70.0,0.0,2.0,1.0,3.0,8.0,3.0,5.0,0.0,0.2452845573425293
119,-178.0,-219.0,-55.0,0.0,10695.0,11330.0,-5067.0,70.0,-2.0,-4.0,-1.0,3.0,1.0,-1.0,-3.0,-3.0,0.247086763381958
120,-112.0,-156.0,-77.0,0.0,10700.0,11323.0,-5072.0,31.0,-2.0,-4.0,-1.0,3.0,1.0,-1.0,-3.0,-3.0,0.24887967109680176
121,-112.0,-156.0,-77.0,0.0,10700.0,11323.0,-5072.0,31.0,0.0,-1.0,-4.0,-4.0,-3.0,3.0,0.0,2.0,0.2507779598236084
122,-112.0,-156.0,-77.0,0.0,10700.0,11323.0,-5072.0,31.0,-2.0,-1.0,-2.0,-5.0,-4.0,-1.0,-3.0,1.0,0.2527961730957031
123,61.0,-91.0,-91.0,0.0,10691.0,11334.0,-5065.0,7.0,-2.0,-1.0,-2.0,-5.0,-4.0,-1.0,-3.0,1.0,0.25462794303894043
124,61.0,-91.0,-91.0,0.0,10691.0,11334.0,-5065.0,7.0,-2.0,0.0,4.0,4.0,1.0,0.0,3.0,1.0,0.25647830963134766
125,61.0,-91.0,-91.0,0.0,10691.0,11334.0,-5065.0,7.0,2.0,2.0,0.0,-2.0,4.0,0.0,-1.0,0.0,0.25829315185546875
126,54.0,-74.0,-100.0,0.0,10685.0,11344.0,-5055.0,-17.0,2.0,2.0,0.0,-2.0,4.0,0.0,-1.0,0.0,0.2600710391998291
127,54.0,-74.0,-100.0,0.0,10685.0,11344.0,-5055.0,-17.0,1.0,-1.0,-2.0,-6.0,-4.0,-4.0,-5.0,-5.0,0.26192355155944824
128,54.0,-74.0,-100.0,0.0,10685.0,11344.0,-5055.0,-17.0,-2.0,0.0,-1.0,-6.0,-8.0,0.0,2.0,-1.0,0.26371121406555176
129,98.0,-45.0,-117.0,0.0,10678.0,11358.0,-5041.0,-34.0,-2.0,0.0,-1.0,-6.0,-8.0,0.0,2.0,-1.0,0.2660486698150635
130,98.0,-45.0,-117.0,0.0,10678.0,11358.0,-5041.0,-34.0,-4.0,-1.0,-1.0,-1.0,2.0,2.0,-2.0,-2.0,0.2685832977294922
131,98.0,-45.0,-117.0,0.0,10678.0,11358.0,-5041.0,-34.0,0.0,2.0,0.0,-2.0,-3.0,-2.0,-5.0,0.0,0.2704286575317383
132,63.0,-8.0,-136.0,0.0,10677.0,11367.0,-5020.0,-49.0,0.0,2.0,0.0,-2.0,-3.0,-2.0,-5.0,0.0,0.27309322357177734
133,63.0,-8.0,-136.0,0.0,10677.0,11367.0,-5020.0,-49.0,0.0,-4.0,-2.0,-4.0,-5.0,-2.0,0.0,3.0,0.27547764778137207
134,63.0,-8.0,-136.0,0.0,10677.0,11367.0,-5020.0,-49.0,-1.0,-1.0,-5.0,-7.0,-6.0,-1.0,3.0,0.0,0.277266263961792
135,107.0,48.0,-130.0,0.0,10671.0,11385.0,-4991.0,-60.0,-1.0,-1.0,-5.0,-7.0,-6.0,-1.0,3.0,0.0,0.2790541648864746
136,107.0,48.0,-130.0,0.0,10671.0,11385.0,-4991.0,-60.0,-3.0,-1.0,-7.0,-13.0,-11.0,-1.0,-4.0,-1.0,0.2809269428253174
137,107.0,48.0,-130.0,0.0,10671.0,11385.0,-4991.0,-60.0,1.0,3.0,3.0,-2.0,-4.0,-3.0,-3.0,2.0,0.28271031379699707
138,58.0,99.0,-112.0,0.0,10669.0,11402.0,-4956.0,-69.0,1.0,3.0,3.0,-2.0,-4.0,-3.0,-3.0,2.0,0.28471875190734863
139,58.0,99.0,-112.0,0.0,10669.0,11402.0,-4956.0,-69.0,0.0,-1.0,1.0,5.0,-2.0,-1.0,-1.0,-1.0,0.28662776947021484
140,58.0,99.0,-112.0,0.0,10669.0,11402.0,-4956.0,-69.0,1.0,0.0,-1.0,-2.0,-1.0,1.0,-1.0,-2.0,0.28841137886047363
141,-98.0,79.0,-79.0,0.0,10680.0,11404.0,-4929.0,-86.0,1.0,0.0,-1.0,-2.0,-1.0,1.0,-1.0,-2.0,0.29020071029663086
142,-98.0,79.0,-79.0,0.0,10680.0,11404.0,-4929.0,-86.0,-2.0,-1.0,-1.0,2.0,0.0,-1.0,-1.0,0.0,0.29209136962890625
143,-98.0,79.0,-79.0,0.0,10680.0,11404.0,-4929.0,-86.0,-1.0,-2.0,-1.0,2.0,3.0,2.0,0.0,-2.0,0.29389500617980957
144,-237.0,79.0,-64.0,0.0,10710.0,11384.0,-4910.0,-100.0,-1.0,-2.0,-1.0,2.0,3.0,2.0,0.0,-2.0,0.29622960090637207
145,-237.0,79.0,-64.0,0.0,10710.0,11384.0,-4910.0,-100.0,0.0,1.0,-1.0,0.0,3.0,-3.0,-2.0,-2.0,0.2987072467803955
146,-237.0,79.0,-64.0,0.0,10710.0,11384.0,-4910.0,-100.0,-2.0,-5.0,-3.0,-7.0,-22.0,-14.0,-6.0,-2.0,0.30063605308532715
147,-241.0,114.0,-57.0,0.0,10745.0,11358.0,-4892.0,-102.0,-2.0,-5.0,-3.0,-7.0,-22.0,-14.0,-6.0,-2.0,0.30243778228759766
148,-241.0,114.0,-57.0,0.0,10745.0,11358.0,-4892.0,-102.0,0.0,0.0,0.0,1.0,-3.0,-2.0,-2.0,0.0,0.30429744720458984
149,-241.0,114.0,-57.0,0.0,10745.0,11358.0,-4892.0,-102.0,0.0,-4.0,-8.0,-3.0,13.0,3.0,-5.0,2.0,0.30771946907043457
150,-141.0,159.0,-60.0,0.0,10770.0,11346.0,-4866.0,-97.0,0.0,-4.0,-8.0,-3.0,13.0,3.0,-5.0,2.0,0.3096306324005127
151,-141.0,159.0,-60.0,0.0,10770.0,11346.0,-4866.0,-97.0,1.0,2.0,5.0,4.0,1.0,1.0,-1.0,-3.0,0.31150007247924805
152,-141.0,159.0,-60.0,0.0,10770.0,11346.0,-4866.0,-97.0,2.0,5.0,0.0,-1.0,1.0,3.0,-3.0,-1.0,0.31328701972961426
153,10.0,160.0,-106.0,0.0,10772.0,11358.0,-4834.0,-91.0,2.0,5.0,0.0,-1.0,1.0,3.0,-3.0,-1.0,0.31509923934936523
154,10.0,160.0,-106.0,0.0,10772.0,11358.0,-4834.0,-91.0,-1.0,1.0,-2.0,-2.0,7.0,-1.0,-2.0,2.0,0.31695127487182617
155,10.0,160.0,-106.0,0.0,10772.0,11358.0,-4834.0,-91.0,-3.0,-4.0,1.0,2.0,-4.0,-1.0,0.0,-2.0,0.319014310836792
156,-59.0,162.0,-101.0,0.0,10781.0,11361.0,-4807.0,-83.0,-3.0,-4.0,1.0,2.0,-4.0,-1.0,0.0,-2.0,0.32080554962158203
157,-59.0,162.0,-101.0,0.0,10781.0,11361.0,-4807.0,-83.0,-3.0,-2.0,1.0,2.0,-2.0,-3.0,-2.0,-2.0,0.3226785659790039
158,-59.0,162.0,-101.0,0.0,10781.0,11361.0,-4807.0,-83.0,-2.0,0.0,0.0,-7.0,-13.0,-8.0,-5.0,-1.0,0.3244609832763672
159,-123.0,158.0,-77.0,0.0,10799.0,11352.0,-4787.0,-71.0,-2.0,0.0,0.0,-7.0,-13.0,-8.0,-5.0,-1.0,0.32682108879089355
160,-123.0,158.0,-77.0,0.0,10799.0,11352.0,-4787.0,-71.0,-1.0,-3.0,-3.0,0.0,-5.0,1.0,-1.0,-2.0,0.32923436164855957
161,-123.0,158.0,-77.0,0.0,10799.0,11352.0,-4787.0,-71.0,0.0,0.0,1.0,3.0,3.0,3.0,1.0,-3.0,0.3310587406158447
162,-67.0,165.0,-54.0,0.0,10813.0,11348.0,-4766.0,-55.0,0.0,0.0,1.0,3.0,3.0,3.0,1.0,-3.0,0.33283400535583496
163,-67.0,165.0,-54.0,0.0,10813.0,11348.0,-4766.0,-55.0,1.0,-3.0,-1.0,3.0,-6.0,5.0,2.0,0.0,0.33472466468811035
164,-67.0,165.0,-54.0,0.0,10813.0,11348.0,-4766.0,-55.0,1.0,1.0,-1.0,-1.0,-10.0,-3.0,-2.0,0.0,0.3365349769592285
165,-73.0,174.0,-51.0,0.0,10829.0,11343.0,-4742.0,-40.0,1.0,1.0,-1.0,-1.0,-10.0,-3.0,-2.0,0.0,0.3385019302368164
166,-73.0,174.0,-51.0,0.0,10829.0,11343.0,-4742.0,-40.0,2.0,0.0,-1.0,0.0,3.0,0.0,-2.0,2.0,0.34153318405151367
167,-73.0,174.0,-51.0,0.0,10829.0,11343.0,-4742.0,-40.0,-2.0,-6.0,2.0,9.0,18.0,3.0,-2.0,-2.0,0.34337711334228516
168,-68.0,170.0,-83.0,0.0,10844.0,11340.0,-4715.0,-29.0,-2.0,-6.0,2.0,9.0,18.0,3.0,-2.0,-2.0,0.35333943367004395
169,-68.0,170.0,-83.0,0.0,10844.0,11340.0,-4715.0,-29.0,1.0,2.0,2.0,6.0,8.0,-1.0,1.0,-1.0,0.35524821281433105
170,-68.0,170.0,-83.0,0.0,10844.0,11340.0,-4715.0,-29.0,-1.0,-1.0,-1.0,-4.0,-1.0,0.0,1.0,1.0,0.35805463790893555
171,-14.0,156.0,-90.0,0.0,10852.0,11343.0,-4689.0,-17.0,-1.0,-1.0,-1.0,-4.0,-1.0,0.0,1.0,1.0,0.376389741897583
172,-14.0,156.0,-90.0,0.0,10852.0,11343.0,-4689.0,-17.0,-3.0,-3.0,1.0,0.0,-2.0,-4.0,-2.0,-2.0,0.37952351570129395
173,-14.0,156.0,-90.0,0.0,10852.0,11343.0,-4689.0,-17.0,2.0,1.0,1.0,0.0,2.0,2.0,1.0,0.0,0.3825242519378662
174,-9.0,120.0,-68.0,0.0,10858.0,11345.0,-4670.0,-7.0,2.0,1.0,1.0,0.0,2.0,2.0,1.0,0.0,0.3988173007965088
175,-9.0,120.0,-68.0,0.0,10858.0,11345.0,-4670.0,-7.0,-1.0,1.0,-2.0,0.0,1.0,-2.0,-3.0,-2.0,0.40217113494873047
176,-9.0,120.0,-68.0,0.0,10858.0,11345.0,-4670.0,-7.0,-2.0,-3.0,-2.0,3.0,1.0,5.0,1.0,1.0,0.40540266036987305
177,15.0,121.0,-27.0,0.0,10860.0,11351.0,-4651.0,3.0,-2.0,-3.0,-2.0,3.0,1.0,5.0,1.0,1.0,0.41393208503723145
178,15.0,121.0,-27.0,0.0,10860.0,11351.0,-4651.0,3.0,-1.0,0.0,0.0,-3.0,-4.0,-3.0,-2.0,-2.0,0.41647815704345703
179,15.0,121.0,-27.0,0.0,10860.0,11351.0,-4651.0,3.0,-2.0,-2.0,-3.0,-1.0,0.0,-2.0,-2.0,-2.0,0.41930603981018066
180,-13.0,147.0,3.0,0.0,10867.0,11353.0,-4631.0,17.0,-2.0,-2.0,-3.0,-1.0,0.0,-2.0,-2.0,-2.0,0.43633317947387695
181,-13.0,147.0,3.0,0.0,10867.0,11353.0,-4631.0,17.0,-1.0,-5.0,-1.0,-2.0,-1.0,-3.0,-3.0,-1.0,0.4394493103027344
182,-13.0,147.0,3.0,0.0,10867.0,11353.0,-4631.0,17.0,0.0,-1.0,2.0,-4.0,-9.0,-1.0,0.0,1.0,0.44242072105407715
183,-75.0,131.0,-25.0,0.0,10881.0,11346.0,-4614.0,28.0,0.0,-1.0,2.0,-4.0,-9.0,-1.0,0.0,1.0,0.4585738182067871
184,-75.0,131.0,-25.0,0.0,10881.0,11346.0,-4614.0,28.0,0.0,1.0,-1.0,-1.0,-2.0,0.0,1.0,0.0,0.4605093002319336
185,-75.0,131.0,-25.0,0.0,10881.0,11346.0,-4614.0,28.0,0.0,-1.0,0.0,-2.0,-3.0,-5.0,-3.0,-1.0,0.46232151985168457
186,-25.0,104.0,-18.0,0.0,10884.0,11346.0,-4605.0,42.0,0.0,-1.0,0.0,-2.0,-3.0,-5.0,-3.0,-1.0,0.4725053310394287
187,-25.0,104.0,-18.0,0.0,10884.0,11346.0,-4605.0,42.0,-1.0,-2.0,-4.0,4.0,4.0,-1.0,2.0,-2.0,0.4744117259979248
188,-25.0,104.0,-18.0,0.0,10884.0,11346.0,-4605.0,42.0,-4.0,0.0,-2.0,-1.0,-4.0,-3.0,-6.0,-3.0,0.4794893264770508
189,23.0,78.0,-4.0,0.0,10880.0,11352.0,-4603.0,60.0,-4.0,0.0,-2.0,-1.0,-4.0,-3.0,-6.0,-3.0,0.496462345123291
190,23.0,78.0,-4.0,0.0,10880.0,11352.0,-4603.0,60.0,-4.0,-2.0,-2.0,-1.0,8.0,5.0,0.0,-1.0,0.5000369548797607
191,23.0,78.0,-4.0,0.0,10880.0,11352.0,-4603.0,60.0,-1.0,-2.0,-2.0,2.0,4.0,-5.0,-1.0,0.0,0.5036802291870117
192,57.0,81.0,6.0,0.0,10874.0,11357.0,-4602.0,83.0,-1.0,-2.0,-2.0,2.0,4.0,-5.0,-1.0,0.0,0.5188024044036865
193,57.0,81.0,6.0,0.0,10874.0,11357.0,-4602.0,83.0,0.0,3.0,-2.0,-1.0,-1.0,-1.0,-2.0,-2.0,0.5208680629730225
194,57.0,81.0,6.0,0.0,10874.0,11357.0,-4602.0,83.0,-1.0,-3.0,-2.0,-3.0,-2.0,2.0,-4.0,-4.0,0.5238075256347656
195,100.0,98.0,-4.0,0.0,10860.0,11372.0,-4598.0,106.0,-1.0,-3.0,-2.0,-3.0,-2.0,2.0,-4.0,-4.0,0.5324139595031738
196,100.0,98.0,-4.0,0.0,10860.0,11372.0,-4598.0,106.0,-1.0,-1.0,-1.0,-2.0,-5.0,-3.0,-2.0,-2.0,0.534508228302002
197,100.0,98.0,-4.0,0.0,10860.0,11372.0,-4598.0,106.0,1.0,4.0,7.0,3.0,-2.0,2.0,-1.0,1.0,0.5394022464752197
198,58.0,92.0,9.0,0.0,10851.0,11381.0,-4596.0,130.0,1.0,4.0,7.0,3.0,-2.0,2.0,-1.0,1.0,0.5569705963134766
199,58.0,92.0,9.0,0.0,10851.0,11381.0,-4596.0,130.0,0.0,-1.0,-1.0,-4.0,-4.0,-1.0,0.0,3.0,0.5601840019226074
200,58.0,92.0,9.0,0.0,10851.0,11381.0,-4596.0,130.0,0.0,0.0,-1.0,-2.0,1.0,-5.0,3.0,1.0,0.5631973743438721
201,50.0,90.0,5.0,0.0,10844.0,11388.0,-4596.0,154.0,0.0,0.0,-1.0,-2.0,1.0,-5.0,3.0,1.0,0.5779154300689697
202,50.0,90.0,5.0,0.0,10844.0,11388.0,-4596.0,154.0,-2.0,-6.0,5.0,6.0,-1.0,-2.0,-1.0,1.0,0.5812702178955078
203,50.0,90.0,5.0,0.0,10844.0,11388.0,-4596.0,154.0,-1.0,-3.0,-3.0,2.0,0.0,1.0,-2.0,-2.0,0.5844957828521729
204,90.0,92.0,42.0,0.0,10835.0,11394.0,-4600.0,186.0,-1.0,-3.0,-3.0,2.0,0.0,1.0,-2.0,-2.0,0.5927000045776367
205,90.0,92.0,42.0,0.0,10835.0,11394.0,-4600.0,186.0,-3.0,-4.0,-3.0,-4.0,-3.0,-1.0,-2.0,-5.0,0.5946385860443115
206,90.0,92.0,42.0,0.0,10835.0,11394.0,-4600.0,186.0,-3.0,0.0,0.0,-3.0,1.0,-5.0,-5.0,-6.0,0.5991775989532471
207,185.0,86.0,80.0,0.0,10813.0,11411.0,-4607.0,224.0,-3.0,0.0,0.0,-3.0,1.0,-5.0,-5.0,-6.0,0.6165816783905029
208,185.0,86.0,80.0,0.0,10813.0,11411.0,-4607.0,224.0,-2.0,-2.0,-4.0,-15.0,-19.0,-14.0,-7.0,-5.0,0.6206247806549072
209,185.0,86.0,80.0,0.0,10813.0,11411.0,-4607.0,224.0,0.0,2.0,-1.0,-2.0,-1.0,0.0,1.0,3.0,0.6243183612823486
210,422.0,177.0,173.0,0.0,10764.0,11456.0,-4610.0,289.0,0.0,2.0,-1.0,-2.0,-1.0,0.0,1.0,3.0,0.6394076347351074
211,422.0,177.0,173.0,0.0,10764.0,11456.0,-4610.0,289.0,2.0,0.0,1.0,2.0,8.0,3.0,1.0,-2.0,0.6433272361755371
212,422.0,177.0,173.0,0.0,10764.0,11456.0,-4610.0,289.0,-3.0,-5.0,-1.0,-2.0,-1.0,0.0,-1.0,1.0,0.6467444896697998
213,195.0,62.0,168.0,0.0,10737.0,11475.0,-4623.0,325.0,-3.0,-5.0,-1.0,-2.0,-1.0,0.0,-1.0,1.0,0.6524314880371094
214,195.0,62.0,168.0,0.0,10737.0,11475.0,-4623.0,325.0,3.0,6.0,-1.0,4.0,-1.0,3.0,0.0,6.0,0.6600916385650635
215,195.0,62.0,168.0,0.0,10737.0,11475.0,-4623.0,325.0,-1.0,1.0,-1.0,1.0,2.0,5.0,-2.0,-3.0,0.6618602275848389
216,-78.0,-11.0,214.0,0.0,10743.0,11455.0,-4653.0,347.0,-1.0,1.0,-1.0,1.0,2.0,5.0,-2.0,-3.0,0.6766941547393799
217,-78.0,-11.0,214.0,0.0,10743.0,11455.0,-4653.0,347.0,1.0,6.0,4.0,-1.0,1.0,3.0,1.0,2.0,0.6802370548248291
218,-78.0,-11.0,214.0,0.0,10743.0,11455.0,-4653.0,347.0,2.0,1.0,-2.0,-1.0,-2.0,-2.0,1.0,1.0,0.6836237907409668
219,-77.0,-26.0,301.0,0.0,10752.0,11427.0,-4699.0,382.0,2.0,1.0,-2.0,-1.0,-2.0,-2.0,1.0,1.0,0.6985890865325928
220,-77.0,-26.0,301.0,0.0,10752.0,11427.0,-4699.0,382.0,-3.0,-1.0,2.0,1.0,3.0,-4.0,-5.0,-3.0,0.700568675994873
221,-77.0,-26.0,301.0,0.0,10752.0,11427.0,-4699.0,382.0,1.0,-1.0,-1.0,3.0,0.0,4.0,1.0,2.0,0.7023744583129883
222,-50.0,-23.0,434.0,0.0,10759.0,11396.0,-4755.0,427.0,1.0,-1.0,-1.0,3.0,0.0,4.0,1.0,2.0,0.7211456298828125
223,-50.0,-23.0,434.0,0.0,10759.0,11396.0,-4755.0,427.0,-2.0,-3.0,-6.0,-1.0,3.0,-3.0,2.0,1.0,0.7230145931243896
224,-50.0,-23.0,434.0,0.0,10759.0,11396.0,-4755.0,427.0,2.0,2.0,-6.0,-8.0,-3.0,-3.0,-2.0,2.0,0.7247765064239502
225,83.0,23.0,506.0,0.0,10746.0,11382.0,-4811.0,489.0,2.0,2.0,-6.0,-8.0,-3.0,-3.0,-2.0,2.0,0.7355084419250488
226,83.0,23.0,506.0,0.0,10746.0,11382.0,-4811.0,489.0,1.0,3.0,2.0,2.0,3.0,-2.0,-3.0,-2.0,0.73746657371521
227,83.0,23.0,506.0,0.0,10746.0,11382.0,-4811.0,489.0,-2.0,-2.0,-1.0,-1.0,0.0,-1.0,3.0,0.0,0.7405092716217041
228,-17.0,7.0,456.0,0.0,10741.0,11363.0,-4864.0,536.0,-2.0,-2.0,-1.0,-1.0,0.0,-1.0,3.0,0.0,0.7588627338409424
229,-17.0,7.0,456.0,0.0,10741.0,11363.0,-4864.0,536.0,-4.0,-6.0,-7.0,-1.0,0.0,-1.0,1.0,-2.0,0.7610666751861572
230,-17.0,7.0,456.0,0.0,10741.0,11363.0,-4864.0,536.0,-1.0,3.0,0.0,-2.0,-9.0,3.0,-4.0,-5.0,0.7628610134124756
231,-186.0,-78.0,461.0,0.0,10746.0,11327.0,-4931.0,566.0,-1.0,3.0,0.0,-2.0,-9.0,3.0,-4.0,-5.0,0.7719449996948242
232,-186.0,-78.0,461.0,0.0,10746.0,11327.0,-4931.0,566.0,1.0,1.0,1.0,-1.0,-11.0,1.0,-2.0,1.0,0.7798628807067871
233,-186.0,-78.0,461.0,0.0,10746.0,11327.0,-4931.0,566.0,1.0,-2.0,-1.0,-2.0,0.0,0.0,-1.0,-3.0,0.7816731929779053
234,-156.0,-84.0,455.0,0.0,10749.0,11292.0,-5001.0,600.0,1.0,-2.0,-1.0,-2.0,0.0,0.0,-1.0,-3.0,0.7954823970794678
235,-156.0,-84.0,455.0,0.0,10749.0,11292.0,-5001.0,600.0,-3.0,-3.0,-4.0,-4.0,1.0,2.0,-1.0,-2.0,0.7987475395202637
236,-156.0,-84.0,455.0,0.0,10749.0,11292.0,-5001.0,600.0,14.0,27.0,10.0,-3.0,0.0,-2.0,2.0,3.0,0.8018782138824463
237,-41.0,34.0,449.0,0.0,10751.0,11263.0,-5056.0,658.0,14.0,27.0,10.0,-3.0,0.0,-2.0,2.0,3.0,0.8186385631561279
238,-41.0,34.0,449.0,0.0,10751.0,11263.0,-5056.0,658.0,2.0,0.0,0.0,6.0,4.0,-20.0,-5.0,0.0,0.8244125843048096
239,-41.0,34.0,449.0,0.0,10751.0,11263.0,-5056.0,658.0,-4.0,-8.0,3.0,4.0,8.0,-2.0,-1.0,2.0,0.8281674385070801
240,226.0,181.0,465.0,0.0,10731.0,11261.0,-5090.0,748.0,-4.0,-8.0,3.0,4.0,8.0,-2.0,-1.0,2.0,0.8316464424133301
241,226.0,181.0,465.0,0.0,10731.0,11261.0,-5090.0,748.0,-4.0,-6.0,-1.0,-4.0,-5.0,8.0,4.0,-3.0,0.8401937484741211
242,226.0,181.0,465.0,0.0,10731.0,11261.0,-5090.0,748.0,-5.0,-10.0,-7.0,-1.0,-5.0,-6.0,-3.0,-2.0,0.842022180557251
243,378.0,218.0,464.0,0.0,10682.0,11288.0,-5117.0,842.0,-5.0,-10.0,-7.0,-1.0,-5.0,-6.0,-3.0,-2.0,0.8574259281158447
244,378.0,218.0,464.0,0.0,10682.0,11288.0,-5117.0,842.0,-1.0,-3.0,-2.0,-1.0,4.0,6.0,2.0,-1.0,0.8613870143890381
245,378.0,218.0,464.0,0.0,10682.0,11288.0,-5117.0,842.0,-2.0,-4.0,0.0,0.0,-1.0,4.0,6.0,-1.0,0.8650813102722168
246,16.0,80.0,410.0,0.0,10674.0,11276.0,-5154.0,891.0,-2.0,-4.0,0.0,0.0,-1.0,4.0,6.0,-1.0,0.8779182434082031
247,16.0,80.0,410.0,0.0,10674.0,11276.0,-5154.0,891.0,-1.0,4.0,4.0,-2.0,2.0,0.0,0.0,-1.0,0.8817334175109863
248,16.0,80.0,410.0,0.0,10674.0,11276.0,-5154.0,891.0,-5.0,-7.0,-1.0,-2.0,-8.0,-12.0,-5.0,0.0,0.8853645324707031
249,-165.0,39.0,319.0,0.0,10696.0,11234.0,-5192.0,929.0,-5.0,-7.0,-1.0,-2.0,-8.0,-12.0,-5.0,0.0,0.8922522068023682
250,-165.0,39.0,319.0,0.0,10696.0,11234.0,-5192.0,929.0,1.0,4.0,2.0,0.0,-4.0,-5.0,-3.0,-2.0,0.9000005722045898
251,-165.0,39.0,319.0,0.0,10696.0,11234.0,-5192.0,929.0,-5.0,-5.0,-2.0,4.0,12.0,7.0,0.0,-3.0,0.9021129608154297
252,19.0,132.0,305.0,0.0,10700.0,11212.0,-5218.0,989.0,-5.0,-5.0,-2.0,4.0,12.0,7.0,0.0,-3.0,0.9157233238220215
253,19.0,132.0,305.0,0.0,10700.0,11212.0,-5218.0,989.0,-1.0,-1.0,-2.0,-4.0,-3.0,0.0,-2.0,-3.0,0.9242780208587646
254,19.0,132.0,305.0,0.0,10700.0,11212.0,-5218.0,989.0,0.0,-5.0,-4.0,-5.0,-23.0,-4.0,-3.0,-2.0,0.9272334575653076
255,358.0,240.0,368.0,0.0,10663.0,11233.0,-5231.0,1081.0,0.0,-5.0,-4.0,-5.0,-23.0,-4.0,-3.0,-2.0,0.9378933906555176
256,358.0,240.0,368.0,0.0,10663.0,11233.0,-5231.0,1081.0,4.0,0.0,2.0,-8.0,-25.0,-2.0,0.0,4.0,0.941169261932373
257,358.0,240.0,368.0,0.0,10663.0,11233.0,-5231.0,1081.0,5.0,6.0,3.0,-7.0,-5.0,1.0,-2.0,2.0,0.94535231590271
258,227.0,215.0,346.0,0.0,10643.0,11239.0,-5244.0,1157.0,5.0,6.0,3.0,-7.0,-5.0,1.0,-2.0,2.0,0.9521074295043945
259,227.0,215.0,346.0,0.0,10643.0,11239.0,-5244.0,1157.0,3.0,9.0,11.0,1.0,4.0,7.0,1.0,1.0,0.9600088596343994
260,227.0,215.0,346.0,0.0,10643.0,11239.0,-5244.0,1157.0,-4.0,-9.0,-7.0,7.0,3.0,-1.0,1.0,-1.0,0.9618229866027832
261,5.0,126.0,250.0,0.0,10650.0,11219.0,-5261.0,1207.0,-4.0,-9.0,-7.0,7.0,3.0,-1.0,1.0,-1.0,0.9763484001159668
262,5.0,126.0,250.0,0.0,10650.0,11219.0,-5261.0,1207.0,3.0,-2.0,0.0,10.0,16.0,5.0,4.0,2.0,0.9791913032531738
263,5.0,126.0,250.0,0.0,10650.0,11219.0,-5261.0,1207.0,-6.0,-5.0,-4.0,-4.0,2.0,0.0,0.0,1.0,0.9831564426422119
264,-104.0,26.0,205.0,0.0,10669.0,11186.0,-5287.0,1235.0,-6.0,-5.0,-4.0,-4.0,2.0,0.0,0.0,1.0,0.9976890087127686
265,-104.0,26.0,205.0,0.0,10669.0,11186.0,-5287.0,1235.0,-7.0,-14.0,-11.0,6.0,15.0,1.0,-6.0,-4.0,1.0009899139404297
266,-104.0,26.0,205.0,0.0,10669.0,11186.0,-5287.0,1235.0,0.0,3.0,0.0,-4.0,-5.0,0.0,-4.0,-3.0,1.0034542083740234
267,-50.0,11.0,119.0,0.0,10683.0,11162.0,-5303.0,1256.0,0.0,3.0,0.0,-4.0,-5.0,0.0,-4.0,-3.0,1.011643409729004
268,-50.0,11.0,119.0,0.0,10683.0,11162.0,-5303.0,1256.0,0.0,2.0,-3.0,-7.0,-10.0,-4.0,-2.0,-1.0,1.019972562789917
269,-50.0,11.0,119.0,0.0,10683.0,11162.0,-5303.0,1256.0,-3.0,4.0,-2.0,3.0,11.0,1.0,1.0,1.0,1.0228724479675293
270,-79.0,18.0,34.0,0.0,10701.0,11141.0,-5309.0,1267.0,-3.0,4.0,-2.0,3.0,11.0,1.0,1.0,1.0,1.0369586944580078
271,-79.0,18.0,34.0,0.0,10701.0,11141.0,-5309.0,1267.0,-5.0,-1.0,3.0,-11.0,-31.0,-8.0,-2.0,-4.0,1.042759895324707
272,-79.0,18.0,34.0,0.0,10701.0,11141.0,-5309.0,1267.0,1.0,-6.0,-10.0,-5.0,3.0,6.0,3.0,3.0,1.0449402332305908
273,-31.0,6.0,-64.0,0.0,10715.0,11130.0,-5303.0,1267.0,1.0,-6.0,-10.0,-5.0,3.0,6.0,3.0,3.0,1.05792236328125
274,-31.0,6.0,-64.0,0.0,10715.0,11130.0,-5303.0,1267.0,-2.0,3.0,0.0,-5.0,-15.0,0.0,0.0,0.0,1.061469554901123
275,-31.0,6.0,-64.0,0.0,10715.0,11130.0,-5303.0,1267.0,2.0,1.0,10.0,3.0,1.0,-6.0,1.0,2.0,1.0649793148040771
276,75.0,14.0,-76.0,0.0,10711.0,11138.0,-5294.0,1271.0,2.0,1.0,10.0,3.0,1.0,-6.0,1.0,2.0,1.072800636291504
277,75.0,14.0,-76.0,0.0,10711.0,11138.0,-5294.0,1271.0,-2.0,-3.0,-9.0,2.0,8.0,0.0,-3.0,-4.0,1.0797593593597412
278,75.0,14.0,-76.0,0.0,10711.0,11138.0,-5294.0,1271.0,2.0,4.0,4.0,2.0,5.0,-2.0,-3.0,-4.0,1.081547498703003
279,-71.0,3.0,25.0,0.0,10726.0,11122.0,-5296.0,1272.0,2.0,4.0,4.0,2.0,5.0,-2.0,-3.0,-4.0,1.096360445022583
280,-71.0,3.0,25.0,0.0,10726.0,11122.0,-5296.0,1272.0,2.0,13.0,9.0,0.0,7.0,-1.0,1.0,2.0,1.1011788845062256
281,-71.0,3.0,25.0,0.0,10726.0,11122.0,-5296.0,1272.0,1.0,0.0,-8.0,-6.0,-7.0,-2.0,-2.0,-2.0,1.1061182022094727
282,-190.0,48.0,66.0,0.0,10766.0,11081.0,-5299.0,1281.0,1.0,0.0,-8.0,-6.0,-7.0,-2.0,-2.0,-2.0,1.1186316013336182
283,-190.0,48.0,66.0,0.0,10766.0,11081.0,-5299.0,1281.0,-4.0,-9.0,-8.0,-1.0,2.0,-5.0,-1.0,0.0,1.1205198764801025
284,-190.0,48.0,66.0,0.0,10766.0,11081.0,-5299.0,1281.0,1.0,12.0,15.0,-1.0,2.0,0.0,-2.0,-1.0,1.1223118305206299
285,-175.0,5.0,67.0,0.0,10795.0,11047.0,-5310.0,1287.0,1.0,12.0,15.0,-1.0,2.0,0.0,-2.0,-1.0,1.1322615146636963
286,-175.0,5.0,67.0,0.0,10795.0,11047.0,-5310.0,1287.0,1.0,-5.0,-4.0,10.0,22.0,12.0,7.0,3.0,1.1413040161132812
287,-175.0,5.0,67.0,0.0,10795.0,11047.0,-5310.0,1287.0,-4.0,-9.0,-3.0,-3.0,-3.0,4.0,-1.0,-4.0,1.1431870460510254
288,-226.0,-37.0,57.0,0.0,10821.0,11017.0,-5322.0,1274.0,-4.0,-9.0,-3.0,-3.0,-3.0,4.0,-1.0,-4.0,1.1562771797180176
289,-226.0,-37.0,57.0,0.0,10821.0,11017.0,-5322.0,1274.0,-5.0,-12.0,-10.0,-7.0,-40.0,-6.0,-7.0,-2.0,1.1598875522613525
290,-226.0,-37.0,57.0,0.0,10821.0,11017.0,-5322.0,1274.0,2.0,-1.0,-11.0,7.0,11.0,8.0,7.0,3.0,1.16349458694458
291,-314.0,-32.0,60.0,0.0,10856.0,10977.0,-5338.0,1260.0,2.0,-1.0,-11.0,7.0,11.0,8.0,7.0,3.0,1.1780436038970947
292,-314.0,-32.0,60.0,0.0,10856.0,10977.0,-5338.0,1260.0,-2.0,-2.0,0.0,-5.0,-2.0,-5.0,-6.0,-8.0,1.1799101829528809
293,-314.0,-32.0,60.0,0.0,10856.0,10977.0,-5338.0,1260.0,0.0,2.0,4.0,0.0,-2.0,5.0,1.0,2.0,1.1816918849945068
294,-291.0,-64.0,37.0,0.0,10881.0,10943.0,-5360.0,1244.0,0.0,2.0,4.0,0.0,-2.0,5.0,1.0,2.0,1.1921963691711426
295,-291.0,-64.0,37.0,0.0,10881.0,10943.0,-5360.0,1244.0,-3.0,-6.0,-8.0,-10.0,8.0,1.0,0.0,1.0,1.2000746726989746
296,-291.0,-64.0,37.0,0.0,10881.0,10943.0,-5360.0,1244.0,-3.0,-3.0,-5.0,-6.0,-13.0,-12.0,-7.0,-3.0,1.2019288539886475
297,-244.0,-17.0,27.0,0.0,10904.0,10913.0,-5375.0,1237.0,-3.0,-3.0,-5.0,-6.0,-13.0,-12.0,-7.0,-3.0,1.2148160934448242
298,-244.0,-17.0,27.0,0.0,10904.0,10913.0,-5375.0,1237.0,1.0,0.0,3.0,-1.0,0.0,0.0,0.0,5.0,1.2166810035705566
299,-244.0,-17.0,27.0,0.0,10904.0,10913.0,-5375.0,1237.0,-1.0,4.0,-1.0,6.0,1.0,-1.0,2.0,2.0,1.22304105758667
300,-133.0,33.0,39.0,0.0,10914.0,10896.0,-5387.0,1246.0,-1.0,4.0,-1.0,6.0,1.0,-1.0,2.0,2.0,1.2401542663574219
301,-133.0,33.0,39.0,0.0,10914.0,10896.0,-5387.0,1246.0,-2.0,-3.0,-5.0,10.0,-2.0,-5.0,-5.0,-1.0,1.2428412437438965
302,-133.0,33.0,39.0,0.0,10914.0,10896.0,-5387.0,1246.0,0.0,-8.0,-9.0,4.0,-17.0,-27.0,-8.0,5.0,1.2446563243865967
303,-201.0,70.0,29.0,0.0,10942.0,10867.0,-5387.0,1249.0,0.0,-8.0,-9.0,4.0,-17.0,-27.0,-8.0,5.0,1.2520484924316406
304,-201.0,70.0,29.0,0.0,10942.0,10867.0,-5387.0,1249.0,6.0,6.0,6.0,20.0,42.0,13.0,9.0,7.0,1.2598545551300049
305,-201.0,70.0,29.0,0.0,10942.0,10867.0,-5387.0,1249.0,-3.0,-5.0,-7.0,2.0,22.0,-5.0,-6.0,-2.0,1.2616569995880127
306,-198.0,130.0,77.0,0.0,10968.0,10840.0,-5386.0,1263.0,-3.0,-5.0,-7.0,2.0,22.0,-5.0,-6.0,-2.0,1.276606559753418
307,-198.0,130.0,77.0,0.0,10968.0,10840.0,-5386.0,1263.0,0.0,-2.0,-6.0,-14.0,-18.0,-6.0,0.0,3.0,1.2804508209228516
308,-198.0,130.0,77.0,0.0,10968.0,10840.0,-5386.0,1263.0,2.0,-4.0,0.0,-13.0,-14.0,4.0,1.0,-5.0,1.284250259399414
309,-370.0,64.0,139.0,0.0,11013.0,10789.0,-5398.0,1263.0,2.0,-4.0,0.0,-13.0,-14.0,4.0,1.0,-5.0,1.297818660736084
310,-370.0,64.0,139.0,0.0,11013.0,10789.0,-5398.0,1263.0,1.0,1.0,9.0,4.0,12.0,3.0,0.0,-7.0,1.2996940612792969
311,-370.0,64.0,139.0,0.0,11013.0,10789.0,-5398.0,1263.0,-2.0,-1.0,1.0,0.0,3.0,6.0,1.0,-7.0,1.3019039630889893
312,-478.0,59.0,159.0,0.0,11070.0,10720.0,-5418.0,1263.0,-2.0,-1.0,1.0,0.0,3.0,6.0,1.0,-7.0,1.3215909004211426
313,-478.0,59.0,159.0,0.0,11070.0,10720.0,-5418.0,1263.0,2.0,3.0,-3.0,9.0,32.0,2.0,1.0,7.0,1.3257455825805664
314,-478.0,59.0,159.0,0.0,11070.0,10720.0,-5418.0,1263.0,-3.0,-8.0,2.0,16.0,22.0,9.0,-8.0,-7.0,1.327620506286621
315,-413.0,31.0,214.0,0.0,11113.0,10659.0,-5449.0,1271.0,-3.0,-8.0,2.0,16.0,22.0,9.0,-8.0,-7.0,1.335252285003662
316,-413.0,31.0,214.0,0.0,11113.0,10659.0,-5449.0,1271.0,0.0,2.0,-1.0,4.0,-5.0,-5.0,-4.0,-6.0,1.3371610641479492
317,-413.0,31.0,214.0,0.0,11113.0,10659.0,-5449.0,1271.0,-4.0,0.0,4.0,-7.0,0.0,12.0,5.0,4.0,1.3415071964263916
318,-199.0,14.0,260.0,0.0,11126.0,10626.0,-5483.0,1291.0,-4.0,0.0,4.0,-7.0,0.0,12.0,5.0,4.0,1.35872220993042
319,-199.0,14.0,260.0,0.0,11126.0,10626.0,-5483.0,1291.0,-9.0,-12.0,-18.0,-4.0,-10.0,-2.0,-6.0,-7.0,1.360626220703125
320,-199.0,14.0,260.0,0.0,11126.0,10626.0,-5483.0,1291.0,2.0,-2.0,2.0,-3.0,-14.0,-6.0,6.0,11.0,1.3624272346496582
321,-125.0,-11.0,324.0,0.0,11133.0,10599.0,-5516.0,1311.0,2.0,-2.0,2.0,-3.0,-14.0,-6.0,6.0,11.0,1.3813066482543945
322,-125.0,-11.0,324.0,0.0,11133.0,10599.0,-5516.0,1311.0,3.0,31.0,20.0,-8.0,-10.0,-2.0,-4.0,-11.0,1.384418249130249
323,-155.0,-54.0,346.0,0.0,11146.0,10562.0,-5555.0,1327.0,3.0,31.0,20.0,-8.0,-10.0,-2.0,-4.0,-11.0,1.3873870372772217
324,-155.0,-54.0,346.0,0.0,11146.0,10562.0,-5555.0,1327.0,2.0,5.0,18.0,32.0,29.0,4.0,0.0,5.0,1.3953232765197754
325,-155.0,-54.0,346.0,0.0,11146.0,10562.0,-5555.0,1327.0,-12.0,-22.0,-30.0,-17.0,-19.0,-15.0,-8.0,-3.0,1.3971257209777832
326,-8.0,-89.0,340.0,0.0,11145.0,10540.0,-5594.0,1350.0,-12.0,-22.0,-30.0,-17.0,-19.0,-15.0,-8.0,-3.0,1.4025750160217285
327,-8.0,-89.0,340.0,0.0,11145.0,10540.0,-5594.0,1350.0,-5.0,6.0,4.0,-7.0,-16.0,-4.0,-5.0,-6.0,1.4044585227966309
328,-8.0,-89.0,340.0,0.0,11145.0,10540.0,-5594.0,1350.0,-12.0,-20.0,-17.0,-14.0,-21.0,-1.0,5.0,-6.0,1.4171936511993408
329,189.0,-153.0,387.0,0.0,11099.0,10557.0,-5647.0,1375.0,-12.0,-20.0,-17.0,-14.0,-21.0,-1.0,5.0,-6.0,1.419867992401123
330,189.0,-153.0,387.0,0.0,11099.0,10557.0,-5647.0,1375.0,-2.0,-2.0,13.0,-4.0,5.0,-12.0,-3.0,1.0,1.4259119033813477
331,189.0,-153.0,387.0,0.0,11099.0,10557.0,-5647.0,1375.0,4.0,10.0,22.0,9.0,18.0,23.0,29.0,25.0,1.4415044784545898
332,147.0,21.0,457.0,0.0,11083.0,10557.0,-5669.0,1413.0,4.0,10.0,22.0,9.0,18.0,23.0,29.0,25.0,1.4450123310089111
333,147.0,21.0,457.0,0.0,11083.0,10557.0,-5669.0,1413.0,-13.0,-26.0,-26.0,-19.0,5.0,-2.0,-15.0,-29.0,1.4485759735107422
334,147.0,21.0,457.0,0.0,11083.0,10557.0,-5669.0,1413.0,4.0,-1.0,-3.0,0.0,0.0,12.0,-3.0,0.0,1.4540622234344482
335,-73.0,218.0,520.0,0.0,11130.0,10506.0,-5659.0,1462.0,4.0,-1.0,-3.0,0.0,0.0,12.0,-3.0,0.0,1.4621286392211914
336,-73.0,218.0,520.0,0.0,11130.0,10506.0,-5659.0,1462.0,15.0,40.0,-13.0,4.0,17.0,6.0,5.0,17.0,1.4639923572540283
337,-73.0,218.0,520.0,0.0,11130.0,10506.0,-5659.0,1462.0,18.0,9.0,0.0,15.0,16.0,-11.0,8.0,14.0,1.4774341583251953
338,19.0,403.0,419.0,0.0,11192.0,10462.0,-5602.0,1521.0,18.0,9.0,0.0,15.0,16.0,-11.0,8.0,14.0,1.4801149368286133
339,19.0,403.0,419.0,0.0,11192.0,10462.0,-5602.0,1521.0,-4.0,-25.0,-10.0,8.0,-27.0,7.0,6.0,-4.0,1.4851171970367432
340,19.0,403.0,419.0,0.0,11192.0,10462.0,-5602.0,1521.0,9.0,14.0,12.0,-13.0,-26.0,-18.0,-16.0,2.0,1.5014228820800781
341,151.0,719.0,234.0,0.0,11273.0,10443.0,-5458.0,1580.0,9.0,14.0,12.0,-13.0,-26.0,-18.0,-16.0,2.0,1.5054998397827148
342,151.0,719.0,234.0,0.0,11273.0,10443.0,-5458.0,1580.0,2.0,-8.0,31.0,2.0,-16.0,2.0,13.0,6.0,1.5099360942840576
343,151.0,719.0,234.0,0.0,11273.0,10443.0,-5458.0,1580.0,-9.0,-19.0,-6.0,12.0,30.0,9.0,3.0,-10.0,1.5150985717773438
344,-192.0,788.0,-369.0,0.0,11413.0,10411.0,-5233.0,1548.0,-9.0,-19.0,-6.0,12.0,30.0,9.0,3.0,-10.0,1.5222313404083252
345,-192.0,788.0,-369.0,0.0,11413.0,10411.0,-5233.0,1548.0,-9.0,4.0,10.0,-11.0,-1.0,1.0,-14.0,-11.0,1.5241050720214844
346,-192.0,788.0,-369.0,0.0,11413.0,10411.0,-5233.0,1548.0,-9.0,-42.0,-24.0,9.0,10.0,4.0,-1.0,-3.0,1.5375993251800537
347,-666.0,776.0,-1260.0,0.0,11552.0,10385.0,-5003.0,1441.0,-9.0,-42.0,-24.0,9.0,10.0,4.0,-1.0,-3.0,1.5417289733886719
348,-666.0,776.0,-1260.0,0.0,11552.0,10385.0,-5003.0,1441.0,-7.0,-4.0,-12.0,-18.0,-25.0,-1.0,-12.0,-17.0,1.5450608730316162
349,-666.0,776.0,-1260.0,0.0,11552.0,10385.0,-5003.0,1441.0,-3.0,2.0,20.0,2.0,-22.0,-7.0,-10.0,-15.0,1.5598177909851074
350,-1430.0,824.0,-1989.0,0.0,11786.0,10297.0,-4695.0,1205.0,-3.0,2.0,20.0,2.0,-22.0,-7.0,-10.0,-15.0,1.5621774196624756
351,-1430.0,824.0,-1989.0,0.0,11786.0,10297.0,-4695.0,1205.0,-1.0,9.0,-14.0,7.0,27.0,1.0,0.0,1.0,1.566788673400879
352,-1430.0,824.0,-1989.0,0.0,11786.0,10297.0,-4695.0,1205.0,6.0,18.0,13.0,7.0,5.0,4.0,0.0,0.0,1.5748696327209473
353,-1927.0,1024.0,-2817.0,0.0,12082.0,10172.0,-4269.0,859.0,6.0,18.0,13.0,7.0,5.0,4.0,0.0,0.0,1.5822906494140625
354,-1927.0,1024.0,-2817.0,0.0,12082.0,10172.0,-4269.0,859.0,-2.0,-2.0,3.0,3.0,28.0,2.0,3.0,3.0,1.5844144821166992
355,-1927.0,1024.0,-2817.0,0.0,12082.0,10172.0,-4269.0,859.0,5.0,16.0,11.0,-8.0,-1.0,2.0,6.0,9.0,1.5973432064056396
356,-1871.0,1296.0,-3789.0,0.0,12371.0,10078.0,-3691.0,416.0,5.0,16.0,11.0,-8.0,-1.0,2.0,6.0,9.0,1.599146842956543
357,-1871.0,1296.0,-3789.0,0.0,12371.0,10078.0,-3691.0,416.0,9.0,11.0,0.0,5.0,-2.0,-4.0,1.0,4.0,1.6041409969329834
358,-1871.0,1296.0,-3789.0,0.0,12371.0,10078.0,-3691.0,416.0,1.0,6.0,-11.0,-6.0,-10.0,-9.0,-6.0,-4.0,1.6208992004394531
359,-2254.0,1484.0,-4756.0,0.0,12678.0,9941.0,-2973.0,-153.0,1.0,6.0,-11.0,-6.0,-10.0,-9.0,-6.0,-4.0,1.6247165203094482
360,-2254.0,1484.0,-4756.0,0.0,12678.0,9941.0,-2973.0,-153.0,4.0,0.0,-1.0,-3.0,-28.0,-6.0,3.0,7.0,1.628269910812378
361,-2254.0,1484.0,-4756.0,0.0,12678.0,9941.0,-2973.0,-153.0,1.0,9.0,4.0,-13.0,-19.0,-7.0,-2.0,-1.0,1.6343357563018799
362,-2684.0,1623.0,-5403.0,0.0,12983.0,9725.0,-2153.0,-809.0,1.0,9.0,4.0,-13.0,-19.0,-7.0,-2.0,-1.0,1.6429238319396973
363,-2684.0,1623.0,-5403.0,0.0,12983.0,9725.0,-2153.0,-809.0,-2.0,-16.0,-17.0,0.0,2.0,3.0,2.0,0.0,1.6462481021881104
364,-2684.0,1623.0,-5403.0,0.0,12983.0,9725.0,-2153.0,-809.0,-8.0,-4.0,-7.0,-11.0,3.0,4.0,0.0,-4.0,1.658585548400879
365,-3037.0,1765.0,-5780.0,0.0,13245.0,9439.0,-1301.0,-1478.0,-8.0,-4.0,-7.0,-11.0,3.0,4.0,0.0,-4.0,1.660412311553955
366,-3037.0,1765.0,-5780.0,0.0,13245.0,9439.0,-1301.0,-1478.0,8.0,7.0,10.0,0.0,2.0,1.0,1.0,-6.0,1.6640956401824951
367,-3037.0,1765.0,-5780.0,0.0,13245.0,9439.0,-1301.0,-1478.0,-5.0,-4.0,3.0,-1.0,-5.0,-1.0,-1.0,2.0,1.6808841228485107
368,-3708.0,1688.0,-6028.0,0.0,13497.0,9017.0,-428.0,-2184.0,-5.0,-4.0,3.0,-1.0,-5.0,-1.0,-1.0,2.0,1.6850056648254395
369,-3708.0,1688.0,-6028.0,0.0,13497.0,9017.0,-428.0,-2184.0,-9.0,-2.0,0.0,4.0,5.0,-3.0,-2.0,-3.0,1.6904637813568115
370,-3708.0,1688.0,-6028.0,0.0,13497.0,9017.0,-428.0,-2184.0,-3.0,-4.0,-4.0,-2.0,-13.0,-9.0,-1.0,-5.0,1.694148063659668
371,-4173.0,1685.0,-6109.0,0.0,13713.0,8475.0,459.0,-2888.0,-3.0,-4.0,-4.0,-2.0,-13.0,-9.0,-1.0,-5.0,1.7040505409240723
372,-4173.0,1685.0,-6109.0,0.0,13713.0,8475.0,459.0,-2888.0,2.0,-3.0,3.0,11.0,10.0,-1.0,-4.0,0.0,1.710411787033081
373,-4173.0,1685.0,-6109.0,0.0,13713.0,8475.0,459.0,-2888.0,9.0,21.0,0.0,-1.0,1.0,7.0,6.0,4.0,1.7188491821289062
374,-4247.0,1769.0,-6104.0,0.0,13856.0,7838.0,1417.0,-3603.0,9.0,21.0,0.0,-1.0,1.0,7.0,6.0,4.0,1.7226417064666748
375,-4247.0,1769.0,-6104.0,0.0,13856.0,7838.0,1417.0,-3603.0,0.0,-6.0,-9.0,-7.0,-15.0,-7.0,0.0,1.0,1.7265465259552002
376,-4247.0,1769.0,-6104.0,0.0,13856.0,7838.0,1417.0,-3603.0,-3.0,-7.0,-10.0,7.0,0.0,1.0,1.0,-1.0,1.7415430545806885
377,-4167.0,1949.0,-5979.0,0.0,13903.0,7199.0,2325.0,-4229.0,-3.0,-7.0,-10.0,7.0,0.0,1.0,1.0,-1.0,1.745710849761963
378,-4167.0,1949.0,-5979.0,0.0,13903.0,7199.0,2325.0,-4229.0,1.0,3.0,-4.0,-16.0,-24.0,-13.0,-5.0,1.0,1.7504925727844238
379,-4167.0,1949.0,-5979.0,0.0,13903.0,7199.0,2325.0,-4229.0,-7.0,-13.0,-4.0,8.0,22.0,1.0,-8.0,-4.0,1.754434585571289
380,-4050.0,2009.0,-5736.0,0.0,13869.0,6540.0,3209.0,-4796.0,-7.0,-13.0,-4.0,8.0,22.0,1.0,-8.0,-4.0,1.7622060775756836
381,-4050.0,2009.0,-5736.0,0.0,13869.0,6540.0,3209.0,-4796.0,-8.0,-12.0,-9.0,2.0,9.0,12.0,0.0,3.0,1.7640585899353027
382,-4050.0,2009.0,-5736.0,0.0,13869.0,6540.0,3209.0,-4796.0,-5.0,-14.0,4.0,-36.0,-62.0,-19.0,-5.0,1.0,1.7777607440948486
383,-4085.0,1998.0,-5585.0,0.0,13764.0,5842.0,4070.0,-5317.0,-5.0,-14.0,4.0,-36.0,-62.0,-19.0,-5.0,1.0,1.7800781726837158
384,-4085.0,1998.0,-5585.0,0.0,13764.0,5842.0,4070.0,-5317.0,-8.0,-5.0,-8.0,-1.0,11.0,0.0,-4.0,-13.0,1.7842738628387451
385,-4085.0,1998.0,-5585.0,0.0,13764.0,5842.0,4070.0,-5317.0,-2.0,-2.0,-1.0,9.0,10.0,5.0,-1.0,-3.0,1.8015546798706055
386,-4129.0,1917.0,-5447.0,0.0,13596.0,5108.0,4894.0,-5791.0,-2.0,-2.0,-1.0,9.0,10.0,5.0,-1.0,-3.0,1.8047795295715332
387,-4129.0,1917.0,-5447.0,0.0,13596.0,5108.0,4894.0,-5791.0,5.0,2.0,-8.0,-3.0,-13.0,4.0,3.0,4.0,1.8086159229278564
388,-4129.0,1917.0,-5447.0,0.0,13596.0,5108.0,4894.0,-5791.0,-2.0,-3.0,-5.0,9.0,13.0,-2.0,-4.0,-7.0,1.8140220642089844
389,-4558.0,1845.0,-5188.0,0.0,13394.0,4291.0,5697.0,-6177.0,-2.0,-3.0,-5.0,9.0,13.0,-2.0,-4.0,-7.0,1.8236773014068604
390,-4558.0,1845.0,-5188.0,0.0,13394.0,4291.0,5697.0,-6177.0,6.0,11.0,1.0,-4.0,2.0,-1.0,6.0,9.0,1.8268964290618896
391,-4558.0,1845.0,-5188.0,0.0,13394.0,4291.0,5697.0,-6177.0,3.0,8.0,7.0,7.0,-8.0,-10.0,-7.0,-3.0,1.838094711303711
392,-5196.0,1742.0,-4892.0,0.0,13164.0,3354.0,6496.0,-6457.0,3.0,8.0,7.0,7.0,-8.0,-10.0,-7.0,-3.0,1.8410747051239014
393,-5196.0,1742.0,-4892.0,0.0,13164.0,3354.0,6496.0,-6457.0,3.0,11.0,15.0,-4.0,-40.0,-8.0,1.0,0.0,1.8438398838043213
394,-5196.0,1742.0,-4892.0,0.0,13164.0,3354.0,6496.0,-6457.0,5.0,1.0,3.0,-2.0,-3.0,10.0,-12.0,5.0,1.860515832901001
395,-5488.0,1722.0,-4562.0,0.0,12876.0,2350.0,7280.0,-6641.0,5.0,1.0,3.0,-2.0,-3.0,10.0,-12.0,5.0,1.8634579181671143
396,-5488.0,1722.0,-4562.0,0.0,12876.0,2350.0,7280.0,-6641.0,-7.0,-5.0,0.0,-10.0,-14.0,-9.0,-16.0,-24.0,1.8677384853363037
397,-5488.0,1722.0,-4562.0,0.0,12876.0,2350.0,7280.0,-6641.0,2.0,4.0,6.0,21.0,58.0,37.0,24.0,10.0,1.8756773471832275
398,-4756.0,1812.0,-4193.0,0.0,12502.0,1458.0,7989.0,-6794.0,2.0,4.0,6.0,21.0,58.0,37.0,24.0,10.0,1.8830857276916504
399,-4756.0,1812.0,-4193.0,0.0,12502.0,1458.0,7989.0,-6794.0,-2.0,-10.0,-6.0,-19.0,-67.0,-52.0,-27.0,-12.0,1.8864765167236328
400,-4756.0,1812.0,-4193.0,0.0,12502.0,1458.0,7989.0,-6794.0,0.0,-1.0,0.0,1.0,5.0,-1.0,4.0,3.0,1.8979756832122803
401,-4022.0,1610.0,-3883.0,0.0,12087.0,666.0,8588.0,-6937.0,0.0,-1.0,0.0,1.0,5.0,-1.0,4.0,3.0,1.9016149044036865
402,-4022.0,1610.0,-3883.0,0.0,12087.0,666.0,8588.0,-6937.0,2.0,0.0,3.0,7.0,32.0,22.0,5.0,13.0,1.9051902294158936
403,-4022.0,1610.0,-3883.0,0.0,12087.0,666.0,8588.0,-6937.0,3.0,8.0,6.0,8.0,5.0,11.0,44.0,19.0,1.9215104579925537
404,-3626.0,1134.0,-3646.0,0.0,11672.0,-102.0,9073.0,-7060.0,3.0,8.0,6.0,8.0,5.0,11.0,44.0,19.0,1.9252166748046875
405,-3626.0,1134.0,-3646.0,0.0,11672.0,-102.0,9073.0,-7060.0,-13.0,-7.0,-1.0,-1.0,-19.0,-19.0,-53.0,-52.0,1.9290506839752197
406,-3626.0,1134.0,-3646.0,0.0,11672.0,-102.0,9073.0,-7060.0,-17.0,-11.0,-10.0,-1.0,16.0,-10.0,-49.0,-34.0,1.9440133571624756
407,-3011.0,882.0,-3495.0,0.0,11297.0,-762.0,9401.0,-7199.0,-17.0,-11.0,-10.0,-1.0,16.0,-10.0,-49.0,-34.0,1.9479870796203613
408,-3011.0,882.0,-3495.0,0.0,11297.0,-762.0,9401.0,-7199.0,5.0,-7.0,-8.0,-10.0,14.0,4.0,-36.0,35.0,1.9523193836212158
409,-3011.0,882.0,-3495.0,0.0,11297.0,-762.0,9401.0,-7199.0,9.0,1.0,-5.0,-14.0,-34.0,-8.0,-3.0,8.0,1.9575366973876953
410,-1898.0,1378.0,-3175.0,0.0,10881.0,-1212.0,9685.0,-7400.0,9.0,1.0,-5.0,-14.0,-34.0,-8.0,-3.0,8.0,1.9593784809112549
411,-1898.0,1378.0,-3175.0,0.0,10881.0,-1212.0,9685.0,-7400.0,8.0,13.0,13.0,23.0,54.0,33.0,17.0,10.0,1.9646024703979492
412,-1898.0,1378.0,-3175.0,0.0,10881.0,-1212.0,9685.0,-7400.0,-13.0,-9.0,-6.0,-16.0,-9.0,-20.0,-71.0,-51.0,1.9804935455322266
413,-856.0,2019.0,-2476.0,0.0,10450.0,-1412.0,9954.0,-7625.0,-13.0,-9.0,-6.0,-16.0,-9.0,-20.0,-71.0,-51.0,1.9834887981414795
414,-856.0,2019.0,-2476.0,0.0,10450.0,-1412.0,9954.0,-7625.0,1.0,2.0,8.0,20.0,24.0,17.0,-4.0,0.0,1.9872887134552002
415,-856.0,2019.0,-2476.0,0.0,10450.0,-1412.0,9954.0,-7625.0,5.0,4.0,9.0,2.0,-15.0,9.0,44.0,15.0,2.0049173831939697
416,-97.0,1739.0,-1039.0,0.0,10170.0,-1390.0,10142.0,-7758.0,5.0,4.0,9.0,2.0,-15.0,9.0,44.0,15.0,2.009166717529297
417,-97.0,1739.0,-1039.0,0.0,10170.0,-1390.0,10142.0,-7758.0,2.0,4.0,5.0,4.0,-18.0,-13.0,29.0,15.0,2.012725591659546
418,-97.0,1739.0,-1039.0,0.0,10170.0,-1390.0,10142.0,-7758.0,0.0,-6.0,-6.0,-10.0,8.0,15.0,11.0,2.0,2.017685890197754
419,94.0,813.0,409.0,0.0,10116.0,-1266.0,10230.0,-7735.0,0.0,-6.0,-6.0,-10.0,8.0,15.0,11.0,2.0,2.019590139389038
420,94.0,813.0,409.0,0.0,10116.0,-1266.0,10230.0,-7735.0,3.0,3.0,6.0,3.0,18.0,10.0,-14.0,14.0,2.024529457092285
421,94.0,813.0,409.0,0.0,10116.0,-1266.0,10230.0,-7735.0,-4.0,0.0,1.0,2.0,1.0,-15.0,-23.0,-5.0,2.0428407192230225
422,713.0,280.0,598.0,0.0,10145.0,-1097.0,10209.0,-7752.0,-4.0,0.0,1.0,2.0,1.0,-15.0,-23.0,-5.0,2.0463414192199707
423,713.0,280.0,598.0,0.0,10145.0,-1097.0,10209.0,-7752.0,-5.0,-3.0,-8.0,-12.0,4.0,-6.0,45.0,4.0,2.0498743057250977
424,713.0,280.0,598.0,0.0,10145.0,-1097.0,10209.0,-7752.0,4.0,7.0,5.0,8.0,-21.0,-17.0,1.0,8.0,2.0639290809631348
425,1190.0,-301.0,956.0,0.0,10139.0,-1031.0,10175.0,-7812.0,4.0,7.0,5.0,8.0,-21.0,-17.0,1.0,8.0,2.0676114559173584
426,1190.0,-301.0,956.0,0.0,10139.0,-1031.0,10175.0,-7812.0,-2.0,-1.0,-2.0,-10.0,-25.0,3.0,12.0,0.0,2.071596145629883
427,1190.0,-301.0,956.0,0.0,10139.0,-1031.0,10175.0,-7812.0,1.0,-2.0,4.0,10.0,-24.0,-6.0,6.0,3.0,2.077580690383911
428,1835.0,-725.0,2160.0,0.0,10395.0,-672.0,9980.0,-7766.0,1.0,-2.0,4.0,10.0,-24.0,-6.0,6.0,3.0,2.079455852508545
429,1835.0,-725.0,2160.0,0.0,10395.0,-672.0,9980.0,-7766.0,0.0,0.0,1.0,3.0,-19.0,-4.0,2.0,-5.0,2.0843498706817627
430,1835.0,-725.0,2160.0,0.0,10395.0,-672.0,9980.0,-7766.0,2.0,1.0,-1.0,-3.0,8.0,9.0,11.0,3.0,2.1000311374664307
431,1853.0,-938.0,3269.0,0.0,10756.0,-208.0,9753.0,-7588.0,2.0,1.0,-1.0,-3.0,8.0,9.0,11.0,3.0,2.102346897125244
432,1853.0,-938.0,3269.0,0.0,10756.0,-208.0,9753.0,-7588.0,-2.0,-3.0,-5.0,-21.0,3.0,-6.0,4.0,-3.0,2.107029438018799
433,1853.0,-938.0,3269.0,0.0,10756.0,-208.0,9753.0,-7588.0,0.0,-6.0,-8.0,-10.0,12.0,-8.0,-1.0,5.0,2.124863862991333
434,1976.0,-1193.0,3715.0,0.0,11168.0,303.0,9460.0,-7357.0,0.0,-6.0,-8.0,-10.0,12.0,-8.0,-1.0,5.0,2.1267757415771484
435,1976.0,-1193.0,3715.0,0.0,11168.0,303.0,9460.0,-7357.0,-4.0,-8.0,-3.0,2.0,13.0,-8.0,-1.0,-1.0,2.1286566257476807
436,1976.0,-1193.0,3715.0,0.0,11168.0,303.0,9460.0,-7357.0,-2.0,-6.0,-2.0,-10.0,-9.0,-7.0,-1.0,0.0,2.137943744659424
437,2450.0,-1386.0,4151.0,0.0,11609.0,905.0,9076.0,-7102.0,-2.0,-6.0,-2.0,-10.0,-9.0,-7.0,-1.0,0.0,2.140132188796997
438,2450.0,-1386.0,4151.0,0.0,11609.0,905.0,9076.0,-7102.0,4.0,4.0,-43.0,-47.0,-3.0,-4.0,4.0,7.0,2.1441028118133545
439,2450.0,-1386.0,4151.0,0.0,11609.0,905.0,9076.0,-7102.0,-12.0,-8.0,-1.0,48.0,69.0,18.0,2.0,-16.0,2.1595256328582764
440,3027.0,-1422.0,4398.0,0.0,12029.0,1597.0,8614.0,-6853.0,-12.0,-8.0,-1.0,48.0,69.0,18.0,2.0,-16.0,2.1613309383392334
441,3027.0,-1422.0,4398.0,0.0,12029.0,1597.0,8614.0,-6853.0,-1.0,-3.0,9.0,19.0,3.0,-1.0,7.0,4.0,2.166872501373291
442,3027.0,-1422.0,4398.0,0.0,12029.0,1597.0,8614.0,-6853.0,-7.0,-5.0,-49.0,-114.0,-4.0,-1.0,-3.0,-14.0,2.1841397285461426
443,3020.0,-1534.0,4586.0,0.0,12432.0,2295.0,8102.0,-6553.0,-7.0,-5.0,-49.0,-114.0,-4.0,-1.0,-3.0,-14.0,2.1875977516174316
444,3020.0,-1534.0,4586.0,0.0,12432.0,2295.0,8102.0,-6553.0,7.0,14.0,25.0,105.0,103.0,35.0,41.0,20.0,2.1915957927703857
445,3020.0,-1534.0,4586.0,0.0,12432.0,2295.0,8102.0,-6553.0,-3.0,2.0,36.0,80.0,29.0,-14.0,-9.0,-23.0,2.1973979473114014
446,2952.0,-1491.0,4783.0,0.0,12806.0,3003.0,7554.0,-6192.0,-3.0,2.0,36.0,80.0,29.0,-14.0,-9.0,-23.0,2.199207067489624
447,2952.0,-1491.0,4783.0,0.0,12806.0,3003.0,7554.0,-6192.0,-7.0,-15.0,-25.0,-47.0,1.0,15.0,-17.0,-15.0,2.204448699951172
448,2952.0,-1491.0,4783.0,0.0,12806.0,3003.0,7554.0,-6192.0,19.0,15.0,31.0,41.0,12.0,-6.0,0.0,31.0,2.220942735671997
449,3112.0,-1464.0,5099.0,0.0,13147.0,3756.0,6943.0,-5768.0,19.0,15.0,31.0,41.0,12.0,-6.0,0.0,31.0,2.225149393081665
450,3112.0,-1464.0,5099.0,0.0,13147.0,3756.0,6943.0,-5768.0,-6.0,-5.0,-14.0,3.0,-51.0,-70.0,-15.0,0.0,2.227100133895874
451,3112.0,-1464.0,5099.0,0.0,13147.0,3756.0,6943.0,-5768.0,0.0,1.0,13.0,36.0,-22.0,-3.0,25.0,14.0,2.244673490524292
452,3675.0,-1546.0,5214.0,0.0,13417.0,4576.0,6239.0,-5341.0,0.0,1.0,13.0,36.0,-22.0,-3.0,25.0,14.0,2.247889757156372
453,3675.0,-1546.0,5214.0,0.0,13417.0,4576.0,6239.0,-5341.0,-2.0,-6.0,16.0,-5.0,1.0,-46.0,-59.0,-24.0,2.2511961460113525
454,3675.0,-1546.0,5214.0,0.0,13417.0,4576.0,6239.0,-5341.0,-11.0,-4.0,18.0,-12.0,-5.0,30.0,8.0,2.0,2.257850408554077
455,4108.0,-1286.0,5278.0,0.0,13587.0,5460.0,5491.0,-4883.0,-11.0,-4.0,18.0,-12.0,-5.0,30.0,8.0,2.0,2.2597129344940186
456,4108.0,-1286.0,5278.0,0.0,13587.0,5460.0,5491.0,-4883.0,3.0,-6.0,7.0,-3.0,-50.0,-33.0,-64.0,-37.0,2.2642722129821777
457,4108.0,-1286.0,5278.0,0.0,13587.0,5460.0,5491.0,-4883.0,-11.0,-19.0,-7.0,-67.0,-60.0,-30.0,-16.0,-22.0,2.2807929515838623
458,4908.0,-954.0,5715.0,0.0,13630.0,6476.0,4672.0,-4344.0,-11.0,-19.0,-7.0,-67.0,-60.0,-30.0,-16.0,-22.0,2.2842230796813965
459,4908.0,-954.0,5715.0,0.0,13630.0,6476.0,4672.0,-4344.0,32.0,74.0,48.0,3.0,112.0,92.0,76.0,83.0,2.287834405899048
460,4908.0,-954.0,5715.0,0.0,13630.0,6476.0,4672.0,-4344.0,-20.0,-9.0,-18.0,6.0,18.0,6.0,-6.0,-35.0,2.303029775619507
461,5068.0,-423.0,6189.0,0.0,13535.0,7496.0,3917.0,-3698.0,-20.0,-9.0,-18.0,6.0,18.0,6.0,-6.0,-35.0,2.306546926498413
462,5068.0,-423.0,6189.0,0.0,13535.0,7496.0,3917.0,-3698.0,31.0,67.0,28.0,-22.0,-29.0,-26.0,-61.0,14.0,2.3090152740478516
463,5068.0,-423.0,6189.0,0.0,13535.0,7496.0,3917.0,-3698.0,9.0,-1.0,-12.0,1.0,-19.0,-35.0,-16.0,4.0,2.3176612854003906
464,3760.0,154.0,6687.0,0.0,13441.0,8344.0,3194.0,-2818.0,9.0,-1.0,-12.0,1.0,-19.0,-35.0,-16.0,4.0,2.319533109664917
465,3760.0,154.0,6687.0,0.0,13441.0,8344.0,3194.0,-2818.0,6.0,-36.0,16.0,23.0,-45.0,-7.0,14.0,0.0,2.3245139122009277
466,3760.0,154.0,6687.0,0.0,13441.0,8344.0,3194.0,-2818.0,20.0,-16.0,33.0,31.0,-26.0,-16.0,-24.0,7.0,2.3416926860809326
467,1663.0,324.0,7162.0,0.0,13455.0,8828.0,2507.0,-1774.0,20.0,-16.0,33.0,31.0,-26.0,-16.0,-24.0,7.0,2.3438570499420166
468,1663.0,324.0,7162.0,0.0,13455.0,8828.0,2507.0,-1774.0,-3.0,10.0,-15.0,10.0,26.0,29.0,60.0,13.0,2.3457963466644287
469,1663.0,324.0,7162.0,0.0,13455.0,8828.0,2507.0,-1774.0,-22.0,-39.0,9.0,36.0,-20.0,15.0,95.0,58.0,2.3645052909851074
470,706.0,81.0,7214.0,0.0,13508.0,9075.0,1763.0,-701.0,-22.0,-39.0,9.0,36.0,-20.0,15.0,95.0,58.0,2.3688197135925293
471,706.0,81.0,7214.0,0.0,13508.0,9075.0,1763.0,-701.0,-40.0,-49.0,-48.0,-12.0,-40.0,-6.0,-16.0,-57.0,2.3727264404296875
472,706.0,81.0,7214.0,0.0,13508.0,9075.0,1763.0,-701.0,3.0,11.0,-5.0,9.0,16.0,40.0,12.0,3.0,2.377318859100342
473,1586.0,-612.0,6196.0,0.0,13377.0,9400.0,1045.0,121.0,3.0,11.0,-5.0,9.0,16.0,40.0,12.0,3.0,2.3792200088500977
474,1586.0,-612.0,6196.0,0.0,13377.0,9400.0,1045.0,121.0,20.0,36.0,-8.0,-12.0,29.0,14.0,-4.0,-15.0,2.3845956325531006
475,1586.0,-612.0,6196.0,0.0,13377.0,9400.0,1045.0,121.0,0.0,29.0,38.0,-95.0,-75.0,-17.0,17.0,25.0,2.4009041786193848
476,2414.0,-959.0,4780.0,0.0,13111.0,9791.0,417.0,692.0,0.0,29.0,38.0,-95.0,-75.0,-17.0,17.0,25.0,2.404270887374878
477,2414.0,-959.0,4780.0,0.0,13111.0,9791.0,417.0,692.0,-27.0,-65.0,19.0,36.0,46.0,17.0,14.0,-14.0,2.4088525772094727
478,2414.0,-959.0,4780.0,0.0,13111.0,9791.0,417.0,692.0,6.0,-57.0,-4.0,23.0,6.0,-27.0,-60.0,-13.0,2.4244375228881836
479,737.0,-2198.0,4578.0,0.0,12987.0,9918.0,-380.0,1107.0,6.0,-57.0,-4.0,23.0,6.0,-27.0,-60.0,-13.0,2.4307022094726562
480,737.0,-2198.0,4578.0,0.0,12987.0,9918.0,-380.0,1107.0,-17.0,-28.0,-30.0,-58.0,-20.0,-12.0,-43.0,-42.0,2.434762954711914
481,737.0,-2198.0,4578.0,0.0,12987.0,9918.0,-380.0,1107.0,19.0,40.0,-16.0,18.0,81.0,34.0,14.0,35.0,2.43678617477417
482,238.0,-1724.0,3357.0,0.0,12903.0,9951.0,-984.0,1396.0,19.0,40.0,-16.0,18.0,81.0,34.0,14.0,35.0,2.439924955368042
483,238.0,-1724.0,3357.0,0.0,12903.0,9951.0,-984.0,1396.0,-46.0,-27.0,-61.0,-59.0,-84.0,-77.0,-63.0,-98.0,2.4446654319763184
484,238.0,-1724.0,3357.0,0.0,12903.0,9951.0,-984.0,1396.0,29.0,37.0,-10.0,29.0,75.0,-30.0,-53.0,7.0,2.4612162113189697
485,2375.0,-15.0,4838.0,0.0,12586.0,10177.0,-1445.0,2085.0,29.0,37.0,-10.0,29.0,75.0,-30.0,-53.0,7.0,2.4648783206939697
486,2375.0,-15.0,4838.0,0.0,12586.0,10177.0,-1445.0,2085.0,9.0,71.0,21.0,-5.0,-19.0,13.0,-38.0,56.0,2.468705415725708
487,2375.0,-15.0,4838.0,0.0,12586.0,10177.0,-1445.0,2085.0,-2.0,-7.0,-19.0,-11.0,-17.0,29.0,6.0,-9.0,2.4835827350616455
488,3919.0,61.0,3578.0,0.0,12075.0,10628.0,-1694.0,2605.0,-2.0,-7.0,-19.0,-11.0,-17.0,29.0,6.0,-9.0,2.4872045516967773
489,3919.0,61.0,3578.0,0.0,12075.0,10628.0,-1694.0,2605.0,32.0,7.0,-7.0,10.0,-46.0,-21.0,-12.0,35.0,2.490124225616455
490,3919.0,61.0,3578.0,0.0,12075.0,10628.0,-1694.0,2605.0,-26.0,-11.0,22.0,-21.0,-63.0,-89.0,-83.0,-68.0,2.4973251819610596
491,1598.0,-859.0,969.0,0.0,11843.0,10843.0,-1873.0,2662.0,-26.0,-11.0,22.0,-21.0,-63.0,-89.0,-83.0,-68.0,2.4991626739501953
492,1598.0,-859.0,969.0,0.0,11843.0,10843.0,-1873.0,2662.0,-26.0,-11.0,22.0,-21.0,-63.0,-89.0,-83.0,-68.0,2.504218101501465
493,1598.0,-859.0,969.0,0.0,11843.0,10843.0,-1873.0,2662.0,-10.0,-44.0,5.0,-11.0,22.0,31.0,22.0,17.0,2.520432472229004
494,1598.0,-859.0,969.0,0.0,11843.0,10843.0,-1873.0,2662.0,15.0,10.0,-22.0,9.0,102.0,49.0,36.0,33.0,2.5229828357696533
495,-1650.0,-496.0,1861.0,0.0,11967.0,10608.0,-2197.0,2801.0,15.0,10.0,-22.0,9.0,102.0,49.0,36.0,33.0,2.524904727935791
496,-1650.0,-496.0,1861.0,0.0,11967.0,10608.0,-2197.0,2801.0,-51.0,-75.0,20.0,3.0,-18.0,2.0,26.0,-15.0,2.526813268661499
497,-1650.0,-496.0,1861.0,0.0,11967.0,10608.0,-2197.0,2801.0,-7.0,-3.0,13.0,12.0,-6.0,-1.0,-11.0,-29.0,2.5426151752471924
498,-2055.0,-673.0,2246.0,0.0,12118.0,10295.0,-2604.0,2966.0,-7.0,-3.0,13.0,12.0,-6.0,-1.0,-11.0,-29.0,2.5444178581237793
499,-2055.0,-673.0,2246.0,0.0,12118.0,10295.0,-2604.0,2966.0,24.0,64.0,44.0,53.0,43.0,11.0,-19.0,11.0,2.5494863986968994
