,Gyro 0,Gyro 1,Gyro 2,Label,Orientation 0,Orientation 1,Orientation 2,Orientation 3,Sensor 0,Sensor 1,Sensor 2,Sensor 3,Sensor 4,Sensor 5,Sensor 6,Sensor 7,Timestamp
0,-3.0,56.0,-18.0,0.0,10813.0,9661.0,-7449.0,-1638.0,0.0,-3.0,0.0,1.0,0.0,-2.0,-2.0,-1.0,2.6226043701171875e-06
1,-3.0,56.0,-18.0,0.0,10813.0,9661.0,-7449.0,-1638.0,-2.0,-4.0,-1.0,1.0,-2.0,-3.0,-3.0,-3.0,0.002759695053100586
2,-3.0,56.0,-18.0,0.0,10813.0,9661.0,-7449.0,-1638.0,-1.0,-3.0,-7.0,-3.0,-3.0,0.0,-2.0,-2.0,0.0062084197998046875
3,8.0,58.0,-10.0,0.0,10814.0,9668.0,-7439.0,-1636.0,-1.0,-3.0,-7.0,-3.0,-3.0,0.0,-2.0,-2.0,0.009363889694213867
4,8.0,58.0,-10.0,0.0,10814.0,9668.0,-7439.0,-1636.0,-4.0,-6.0,-6.0,-3.0,-1.0,-1.0,0.0,0.0,0.012154102325439453
5,8.0,58.0,-10.0,0.0,10814.0,9668.0,-7439.0,-1636.0,2.0,-5.0,-1.0,1.0,1.0,0.0,0.0,0.0,0.013981819152832031
6,-37.0,38.0,-23.0,0.0,10819.0,9670.0,-7427.0,-1645.0,2.0,-5.0,-1.0,1.0,1.0,0.0,0.0,0.0,0.01577138900756836
7,-37.0,38.0,-23.0,0.0,10819.0,9670.0,-7427.0,-1645.0,-3.0,-11.0,-7.0,3.0,2.0,0.0,0.0,-2.0,0.01775956153869629
8,-37.0,38.0,-23.0,0.0,10819.0,9670.0,-7427.0,-1645.0,-3.0,-11.0,-7.0,3.0,2.0,0.0,0.0,-2.0,0.02004265785217285
9,-37.0,38.0,-23.0,0.0,10819.0,9670.0,-7427.0,-1645.0,2.0,2.0,8.0,-2.0,-4.0,-12.0,-4.0,-5.0,0.021991729736328125
10,-81.0,15.0,-34.0,0.0,10827.0,9667.0,-7417.0,-1658.0,2.0,2.0,8.0,-2.0,-4.0,-12.0,-4.0,-5.0,0.024328947067260742
11,-81.0,15.0,-34.0,0.0,10827.0,9667.0,-7417.0,-1658.0,0.0,2.0,-17.0,-8.0,-3.0,-3.0,-1.0,0.0,0.02619338035583496
12,-81.0,15.0,-34.0,0.0,10827.0,9667.0,-7417.0,-1658.0,0.0,0.0,-6.0,0.0,5.0,8.0,3.0,-1.0,0.029468059539794922
13,-116.0,14.0,-21.0,0.0,10838.0,9659.0,-7408.0,-1673.0,0.0,0.0,-6.0,0.0,5.0,8.0,3.0,-1.0,0.031374216079711914
14,-116.0,14.0,-21.0,0.0,10838.0,9659.0,-7408.0,-1673.0,-1.0,2.0,11.0,3.0,3.0,0.0,-3.0,-4.0,0.033212900161743164
15,-116.0,14.0,-21.0,0.0,10838.0,9659.0,-7408.0,-1673.0,2.0,3.0,-1.0,-2.0,-2.0,-3.0,1.0,3.0,0.0349726676940918
16,-112.0,13.0,-42.0,0.0,10847.0,9651.0,-7401.0,-1685.0,2.0,3.0,-1.0,-2.0,-2.0,-3.0,1.0,3.0,0.03678154945373535
17,-112.0,13.0,-42.0,0.0,10847.0,9651.0,-7401.0,-1685.0,4.0,5.0,6.0,2.0,1.0,2.0,-1.0,1.0,0.03861403465270996
18,-112.0,13.0,-42.0,0.0,10847.0,9651.0,-7401.0,-1685.0,-2.0,-3.0,-6.0,0.0,-1.0,0.0,-1.0,-3.0,0.040674686431884766
19,-105.0,28.0,-42.0,0.0,10860.0,9642.0,-7393.0,-1694.0,-2.0,-3.0,-6.0,0.0,-1.0,0.0,-1.0,-3.0,0.04246163368225098
20,-105.0,28.0,-42.0,0.0,10860.0,9642.0,-7393.0,-1694.0,0.0,1.0,1.0,1.0,0.0,1.0,-2.0,1.0,0.04432106018066406
21,-105.0,28.0,-42.0,0.0,10860.0,9642.0,-7393.0,-1694.0,-1.0,4.0,2.0,1.0,-4.0,-3.0,0.0,1.0,0.04608750343322754
22,-98.0,33.0,-42.0,0.0,10873.0,9632.0,-7384.0,-1701.0,-1.0,4.0,2.0,1.0,-4.0,-3.0,0.0,1.0,0.04785943031311035
23,-98.0,33.0,-42.0,0.0,10873.0,9632.0,-7384.0,-1701.0,12.0,31.0,16.0,0.0,-3.0,1.0,2.0,3.0,0.05010223388671875
24,-98.0,33.0,-42.0,0.0,10873.0,9632.0,-7384.0,-1701.0,-4.0,-1.0,-3.0,1.0,-3.0,4.0,0.0,-4.0,0.05276846885681152
25,-78.0,30.0,-42.0,0.0,10882.0,9627.0,-7375.0,-1709.0,-4.0,-1.0,-3.0,1.0,-3.0,4.0,0.0,-4.0,0.05478620529174805
26,-78.0,30.0,-42.0,0.0,10882.0,9627.0,-7375.0,-1709.0,-4.0,-8.0,-4.0,-2.0,-4.0,-1.0,-1.0,-1.0,0.05665421485900879
27,-78.0,30.0,-42.0,0.0,10882.0,9627.0,-7375.0,-1709.0,-1.0,-2.0,-5.0,-2.0,1.0,1.0,-2.0,0.0,0.058412790298461914
28,-120.0,6.0,-29.0,0.0,10896.0,9615.0,-7367.0,-1723.0,-1.0,-2.0,-5.0,-2.0,1.0,1.0,-2.0,0.0,0.0601806640625
29,-120.0,6.0,-29.0,0.0,10896.0,9615.0,-7367.0,-1723.0,-5.0,-6.0,-1.0,-1.0,3.0,-3.0,-3.0,-4.0,0.06358933448791504
30,-120.0,6.0,-29.0,0.0,10896.0,9615.0,-7367.0,-1723.0,-3.0,-4.0,-1.0,-2.0,-3.0,-2.0,0.0,1.0,0.06540560722351074
31,-180.0,-18.0,-41.0,0.0,10922.0,9593.0,-7352.0,-1751.0,-3.0,-4.0,-1.0,-2.0,-3.0,-2.0,0.0,1.0,0.06719350814819336
32,-180.0,-18.0,-41.0,0.0,10922.0,9593.0,-7352.0,-1751.0,0.0,-2.0,-1.0,-2.0,-2.0,-3.0,-2.0,-1.0,0.06905746459960938
33,-180.0,-18.0,-41.0,0.0,10922.0,9593.0,-7352.0,-1751.0,3.0,15.0,8.0,-2.0,1.0,0.0,0.0,0.0,0.07081222534179688
34,-341.0,-61.0,-1.0,0.0,10962.0,9549.0,-7339.0,-1797.0,3.0,15.0,8.0,-2.0,1.0,0.0,0.0,0.0,0.07257914543151855
35,-341.0,-61.0,-1.0,0.0,10962.0,9549.0,-7339.0,-1797.0,-3.0,-9.0,-4.0,3.0,0.0,-1.0,-2.0,-1.0,0.07476568222045898
36,-341.0,-61.0,-1.0,0.0,10962.0,9549.0,-7339.0,-1797.0,3.0,0.0,-15.0,-4.0,-3.0,-1.0,0.0,2.0,0.07655191421508789
37,-606.0,-102.0,68.0,0.0,11032.0,9463.0,-7329.0,-1861.0,3.0,0.0,-15.0,-4.0,-3.0,-1.0,0.0,2.0,0.07830929756164551
38,-606.0,-102.0,68.0,0.0,11032.0,9463.0,-7329.0,-1861.0,-6.0,-11.0,1.0,-3.0,-2.0,0.0,0.0,-1.0,0.08029031753540039
39,-606.0,-102.0,68.0,0.0,11032.0,9463.0,-7329.0,-1861.0,9.0,22.0,12.0,2.0,2.0,-1.0,0.0,2.0,0.08264517784118652
40,-976.0,-207.0,149.0,0.0,11140.0,9320.0,-7322.0,-1963.0,9.0,22.0,12.0,2.0,2.0,-1.0,0.0,2.0,0.08499503135681152
41,-976.0,-207.0,149.0,0.0,11140.0,9320.0,-7322.0,-1963.0,0.0,0.0,-12.0,-5.0,0.0,-2.0,-1.0,1.0,0.08702826499938965
42,-976.0,-207.0,149.0,0.0,11140.0,9320.0,-7322.0,-1963.0,-7.0,-21.0,-14.0,-4.0,-2.0,-1.0,0.0,-3.0,0.08883190155029297
43,-1384.0,-366.0,296.0,0.0,11272.0,9119.0,-7333.0,-2103.0,-7.0,-21.0,-14.0,-4.0,-2.0,-1.0,0.0,-3.0,0.0906822681427002
44,-1384.0,-366.0,296.0,0.0,11272.0,9119.0,-7333.0,-2103.0,-2.0,7.0,-4.0,-6.0,-2.0,0.0,-2.0,0.0,0.0925447940826416
45,-1384.0,-366.0,296.0,0.0,11272.0,9119.0,-7333.0,-2103.0,-7.0,-16.0,-2.0,7.0,2.0,1.0,1.0,-1.0,0.0952463150024414
46,-2018.0,-506.0,502.0,0.0,11443.0,8817.0,-7391.0,-2258.0,-7.0,-16.0,-2.0,7.0,2.0,1.0,1.0,-1.0,0.09747958183288574
47,-2018.0,-506.0,502.0,0.0,11443.0,8817.0,-7391.0,-2258.0,-1.0,-9.0,0.0,5.0,0.0,-1.0,-1.0,-3.0,0.09937810897827148
48,-2018.0,-506.0,502.0,0.0,11443.0,8817.0,-7391.0,-2258.0,-5.0,-2.0,-1.0,4.0,2.0,-3.0,0.0,-4.0,0.1011502742767334
49,-2554.0,-712.0,667.0,0.0,11643.0,8425.0,-7475.0,-2451.0,-5.0,-2.0,-1.0,4.0,2.0,-3.0,0.0,-4.0,0.10290193557739258
50,-2554.0,-712.0,667.0,0.0,11643.0,8425.0,-7475.0,-2451.0,2.0,6.0,5.0,3.0,0.0,1.0,0.0,0.0,0.10477042198181152
51,-2554.0,-712.0,667.0,0.0,11643.0,8425.0,-7475.0,-2451.0,-6.0,-17.0,1.0,-1.0,-7.0,-2.0,-2.0,0.0,0.10680508613586426
52,-3020.0,-824.0,836.0,0.0,11866.0,7949.0,-7571.0,-2667.0,-6.0,-17.0,1.0,-1.0,-7.0,-2.0,-2.0,0.0,0.10866761207580566
53,-3020.0,-824.0,836.0,0.0,11866.0,7949.0,-7571.0,-2667.0,-11.0,-27.0,-23.0,16.0,9.0,-2.0,-4.0,-4.0,0.11052680015563965
54,-3020.0,-824.0,836.0,0.0,11866.0,7949.0,-7571.0,-2667.0,1.0,3.0,1.0,-4.0,1.0,2.0,0.0,0.0,0.11338186264038086
55,-3144.0,-830.0,868.0,0.0,12085.0,7442.0,-7662.0,-2880.0,1.0,3.0,1.0,-4.0,1.0,2.0,0.0,0.0,0.11587834358215332
56,-3144.0,-830.0,868.0,0.0,12085.0,7442.0,-7662.0,-2880.0,-1.0,-11.0,-5.0,-5.0,1.0,2.0,0.0,-3.0,0.11777091026306152
57,-3144.0,-830.0,868.0,0.0,12085.0,7442.0,-7662.0,-2880.0,5.0,-2.0,1.0,1.0,-9.0,-8.0,0.0,3.0,0.11954236030578613
58,-2624.0,-671.0,726.0,0.0,12257.0,7006.0,-7733.0,-3048.0,5.0,-2.0,1.0,1.0,-9.0,-8.0,0.0,3.0,0.12130045890808105
59,-2624.0,-671.0,726.0,0.0,12257.0,7006.0,-7733.0,-3048.0,-2.0,1.0,-4.0,-5.0,-5.0,-2.0,-2.0,-1.0,0.12314414978027344
60,-2624.0,-671.0,726.0,0.0,12257.0,7006.0,-7733.0,-3048.0,3.0,14.0,19.0,1.0,8.0,5.0,1.0,2.0,0.12494707107543945
61,-1700.0,-476.0,373.0,0.0,12356.0,6723.0,-7781.0,-3164.0,3.0,14.0,19.0,1.0,8.0,5.0,1.0,2.0,0.12675714492797852
62,-1700.0,-476.0,373.0,0.0,12356.0,6723.0,-7781.0,-3164.0,2.0,4.0,12.0,-3.0,-6.0,1.0,-1.0,1.0,0.12980389595031738
63,-1700.0,-476.0,373.0,0.0,12356.0,6723.0,-7781.0,-3164.0,2.0,-2.0,-6.0,2.0,-1.0,-11.0,-5.0,-3.0,0.13169121742248535
64,-771.0,-229.0,29.0,0.0,12388.0,6583.0,-7834.0,-3200.0,2.0,-2.0,-6.0,2.0,-1.0,-11.0,-5.0,-3.0,0.1335005760192871
65,-771.0,-229.0,29.0,0.0,12388.0,6583.0,-7834.0,-3200.0,4.0,14.0,7.0,-6.0,2.0,0.0,0.0,-1.0,0.13541531562805176
66,-771.0,-229.0,29.0,0.0,12388.0,6583.0,-7834.0,-3200.0,0.0,-3.0,-6.0,-2.0,-3.0,3.0,-3.0,-4.0,0.13718390464782715
67,-28.0,-15.0,-174.0,0.0,12370.0,6590.0,-7856.0,-3203.0,0.0,-3.0,-6.0,-2.0,-3.0,3.0,-3.0,-4.0,0.13894438743591309
68,-28.0,-15.0,-174.0,0.0,12370.0,6590.0,-7856.0,-3203.0,-3.0,2.0,5.0,2.0,2.0,0.0,0.0,0.0,0.14097976684570312
69,-28.0,-15.0,-174.0,0.0,12370.0,6590.0,-7856.0,-3203.0,10.0,20.0,17.0,-5.0,-22.0,-4.0,2.0,5.0,0.14455366134643555
70,60.0,132.0,-214.0,0.0,12354.0,6633.0,-7841.0,-3213.0,10.0,20.0,17.0,-5.0,-22.0,-4.0,2.0,5.0,0.1470015048980713
71,60.0,132.0,-214.0,0.0,12354.0,6633.0,-7841.0,-3213.0,7.0,27.0,42.0,3.0,3.0,-3.0,2.0,2.0,0.1490492820739746
72,60.0,132.0,-214.0,0.0,12354.0,6633.0,-7841.0,-3213.0,-10.0,-18.0,-15.0,-3.0,3.0,3.0,-1.0,-5.0,0.15085482597351074
73,-303.0,251.0,-229.0,0.0,12376.0,6641.0,-7781.0,-3260.0,-10.0,-18.0,-15.0,-3.0,3.0,3.0,-1.0,-5.0,0.1526482105255127
74,-303.0,251.0,-229.0,0.0,12376.0,6641.0,-7781.0,-3260.0,0.0,-5.0,-6.0,-7.0,-9.0,1.0,-1.0,0.0,0.15449976921081543
75,-303.0,251.0,-229.0,0.0,12376.0,6641.0,-7781.0,-3260.0,-4.0,4.0,12.0,-6.0,-14.0,-1.0,-3.0,-7.0,0.15633940696716309
76,-555.0,326.0,-151.0,0.0,12432.0,6603.0,-7699.0,-3313.0,-4.0,4.0,12.0,-6.0,-14.0,-1.0,-3.0,-7.0,0.15811991691589355
77,-555.0,326.0,-151.0,0.0,12432.0,6603.0,-7699.0,-3313.0,-3.0,-3.0,-9.0,2.0,3.0,-3.0,-2.0,-2.0,0.1600511074066162
78,-555.0,326.0,-151.0,0.0,12432.0,6603.0,-7699.0,-3313.0,-9.0,-10.0,-14.0,-5.0,-4.0,3.0,1.0,-3.0,0.16312813758850098
79,-450.0,365.0,-28.0,0.0,12490.0,6568.0,-7626.0,-3336.0,-9.0,-10.0,-14.0,-5.0,-4.0,3.0,1.0,-3.0,0.16515827178955078
80,-450.0,365.0,-28.0,0.0,12490.0,6568.0,-7626.0,-3336.0,0.0,2.0,2.0,2.0,-3.0,1.0,-2.0,-2.0,0.16699481010437012
81,-450.0,365.0,-28.0,0.0,12490.0,6568.0,-7626.0,-3336.0,0.0,-1.0,-9.0,0.0,0.0,-15.0,-5.0,6.0,0.16879057884216309
82,-342.0,365.0,20.0,0.0,12542.0,6540.0,-7564.0,-3340.0,0.0,-1.0,-9.0,0.0,0.0,-15.0,-5.0,6.0,0.17056560516357422
83,-342.0,365.0,20.0,0.0,12542.0,6540.0,-7564.0,-3340.0,2.0,2.0,5.0,6.0,7.0,1.0,2.0,2.0,0.17295408248901367
84,-342.0,365.0,20.0,0.0,12542.0,6540.0,-7564.0,-3340.0,2.0,8.0,1.0,-3.0,9.0,-2.0,0.0,-1.0,0.17532873153686523
85,-312.0,374.0,1.0,0.0,12593.0,6515.0,-7498.0,-3342.0,2.0,8.0,1.0,-3.0,9.0,-2.0,0.0,-1.0,0.17812585830688477
86,-312.0,374.0,1.0,0.0,12593.0,6515.0,-7498.0,-3342.0,5.0,0.0,-4.0,1.0,5.0,0.0,1.0,3.0,0.180741548538208
87,-312.0,374.0,1.0,0.0,12593.0,6515.0,-7498.0,-3342.0,6.0,9.0,9.0,1.0,-5.0,5.0,4.0,2.0,0.18253350257873535
88,-285.0,374.0,-21.0,0.0,12639.0,6500.0,-7432.0,-3347.0,6.0,9.0,9.0,1.0,-5.0,5.0,4.0,2.0,0.18432855606079102
89,-285.0,374.0,-21.0,0.0,12639.0,6500.0,-7432.0,-3347.0,3.0,8.0,-2.0,-5.0,-18.0,-1.0,-3.0,-3.0,0.1861863136291504
90,-285.0,374.0,-21.0,0.0,12639.0,6500.0,-7432.0,-3347.0,2.0,-6.0,-5.0,1.0,14.0,2.0,-2.0,4.0,0.1879734992980957
91,-329.0,317.0,-13.0,0.0,12684.0,6475.0,-7371.0,-3358.0,2.0,-6.0,-5.0,1.0,14.0,2.0,-2.0,4.0,0.1898350715637207
92,-329.0,317.0,-13.0,0.0,12684.0,6475.0,-7371.0,-3358.0,-5.0,-14.0,-12.0,-3.0,-8.0,-2.0,-3.0,-1.0,0.19175338745117188
93,-329.0,317.0,-13.0,0.0,12684.0,6475.0,-7371.0,-3358.0,3.0,5.0,-5.0,-3.0,1.0,5.0,1.0,0.0,0.19354605674743652
94,-432.0,240.0,-61.0,0.0,12726.0,6436.0,-7320.0,-3386.0,3.0,5.0,-5.0,-3.0,1.0,5.0,1.0,0.0,0.1954207420349121
95,-432.0,240.0,-61.0,0.0,12726.0,6436.0,-7320.0,-3386.0,-5.0,0.0,-2.0,0.0,7.0,1.0,-2.0,0.0,0.19728827476501465
96,-432.0,240.0,-61.0,0.0,12726.0,6436.0,-7320.0,-3386.0,-2.0,-6.0,-8.0,1.0,5.0,1.0,1.0,0.0,0.19907402992248535
97,-560.0,207.0,-86.0,0.0,12775.0,6376.0,-7269.0,-3427.0,-2.0,-6.0,-8.0,1.0,5.0,1.0,1.0,0.0,0.20083975791931152
98,-560.0,207.0,-86.0,0.0,12775.0,6376.0,-7269.0,-3427.0,3.0,2.0,1.0,-7.0,-23.0,-8.0,-2.0,1.0,0.20267820358276367
99,-560.0,207.0,-86.0,0.0,12775.0,6376.0,-7269.0,-3427.0,-10.0,-16.0,-13.0,-9.0,-6.0,-4.0,-3.0,-7.0,0.2050490379333496
100,-501.0,214.0,-109.0,0.0,12825.0,6318.0,-7214.0,-3463.0,-10.0,-16.0,-13.0,-9.0,-6.0,-4.0,-3.0,-7.0,0.20747160911560059
101,-501.0,214.0,-109.0,0.0,12825.0,6318.0,-7214.0,-3463.0,3.0,-3.0,-6.0,-12.0,-18.0,-3.0,-1.0,2.0,0.2093980312347412
102,-501.0,214.0,-109.0,0.0,12825.0,6318.0,-7214.0,-3463.0,0.0,-2.0,14.0,8.0,7.0,0.0,-2.0,0.0,0.21196961402893066
103,-209.0,198.0,-146.0,0.0,12851.0,6306.0,-7168.0,-3486.0,0.0,-2.0,14.0,8.0,7.0,0.0,-2.0,0.0,0.2143263816833496
104,-209.0,198.0,-146.0,0.0,12851.0,6306.0,-7168.0,-3486.0,-9.0,-14.0,-10.0,-1.0,10.0,3.0,-2.0,-5.0,0.21621298789978027
105,-209.0,198.0,-146.0,0.0,12851.0,6306.0,-7168.0,-3486.0,-6.0,-9.0,-6.0,6.0,8.0,3.0,0.0,1.0,0.21804261207580566
106,-253.0,169.0,-142.0,0.0,12871.0,6297.0,-7123.0,-3519.0,-6.0,-9.0,-6.0,6.0,8.0,3.0,0.0,1.0,0.21983718872070312
107,-253.0,169.0,-142.0,0.0,12871.0,6297.0,-7123.0,-3519.0,0.0,-4.0,-3.0,0.0,4.0,-14.0,-3.0,-3.0,0.2216942310333252
108,-253.0,169.0,-142.0,0.0,12871.0,6297.0,-7123.0,-3519.0,-4.0,7.0,4.0,0.0,-1.0,-2.0,-2.0,-2.0,0.22374749183654785
109,-400.0,174.0,-147.0,0.0,12903.0,6266.0,-7071.0,-3562.0,-4.0,7.0,4.0,0.0,-1.0,-2.0,-2.0,-2.0,0.22555899620056152
110,-400.0,174.0,-147.0,0.0,12903.0,6266.0,-7071.0,-3562.0,6.0,10.0,13.0,7.0,5.0,3.0,3.0,1.0,0.2274322509765625
111,-400.0,174.0,-147.0,0.0,12903.0,6266.0,-7071.0,-3562.0,2.0,13.0,-5.0,-7.0,0.0,-1.0,-2.0,-2.0,0.2292027473449707
112,-438.0,189.0,-156.0,0.0,12940.0,6226.0,-7014.0,-3607.0,2.0,13.0,-5.0,-7.0,0.0,-1.0,-2.0,-2.0,0.23094987869262695
113,-438.0,189.0,-156.0,0.0,12940.0,6226.0,-7014.0,-3607.0,-8.0,-11.0,-10.0,-6.0,5.0,2.0,-1.0,-4.0,0.23285675048828125
114,-438.0,189.0,-156.0,0.0,12940.0,6226.0,-7014.0,-3607.0,-2.0,-6.0,-1.0,-6.0,-5.0,0.0,0.0,-4.0,0.23520350456237793
115,-414.0,199.0,-150.0,0.0,12978.0,6188.0,-6958.0,-3647.0,-2.0,-6.0,-1.0,-6.0,-5.0,0.0,0.0,-4.0,0.23751235008239746
116,-414.0,199.0,-150.0,0.0,12978.0,6188.0,-6958.0,-3647.0,13.0,36.0,25.0,4.0,9.0,5.0,1.0,5.0,0.23938989639282227
117,-414.0,199.0,-150.0,0.0,12978.0,6188.0,-6958.0,-3647.0,-1.0,-1.0,-3.0,-1.0,-6.0,1.0,-2.0,-1.0,0.24117445945739746
118,-270.0,197.0,-148.0,0.0,13002.0,6173.0,-6910.0,-3676.0,-1.0,-1.0,-3.0,-1.0,-6.0,1.0,-2.0,-1.0,0.24293875694274902
119,-270.0,197.0,-148.0,0.0,13002.0,6173.0,-6910.0,-3676.0,-8.0,-15.0,-10.0,-2.0,-5.0,-1.0,-1.0,-5.0,0.24588370323181152
120,-270.0,197.0,-148.0,0.0,13002.0,6173.0,-6910.0,-3676.0,5.0,3.0,-2.0,9.0,18.0,2.0,0.0,0.0,0.248002290725708
121,-277.0,181.0,-130.0,0.0,13027.0,6153.0,-6868.0,-3702.0,5.0,3.0,-2.0,9.0,18.0,2.0,0.0,0.0,0.24976897239685059
122,-277.0,181.0,-130.0,0.0,13027.0,6153.0,-6868.0,-3702.0,-3.0,-6.0,-12.0,2.0,6.0,2.0,-1.0,2.0,0.2516171932220459
123,-277.0,181.0,-130.0,0.0,13027.0,6153.0,-6868.0,-3702.0,1.0,-4.0,-10.0,3.0,2.0,-4.0,-2.0,1.0,0.25337910652160645
124,-278.0,169.0,-136.0,0.0,13049.0,6134.0,-6826.0,-3731.0,1.0,-4.0,-10.0,3.0,2.0,-4.0,-2.0,1.0,0.25516343116760254
125,-278.0,169.0,-136.0,0.0,13049.0,6134.0,-6826.0,-3731.0,3.0,13.0,22.0,-5.0,0.0,1.0,1.0,0.0,0.25731396675109863
126,-278.0,169.0,-136.0,0.0,13049.0,6134.0,-6826.0,-3731.0,-3.0,-6.0,1.0,-1.0,-5.0,-3.0,0.0,-1.0,0.25911974906921387
127,-297.0,170.0,-155.0,0.0,13075.0,6113.0,-6778.0,-3765.0,-3.0,-6.0,1.0,-1.0,-5.0,-3.0,0.0,-1.0,0.2608976364135742
128,-297.0,170.0,-155.0,0.0,13075.0,6113.0,-6778.0,-3765.0,-5.0,-10.0,-6.0,1.0,-2.0,-2.0,-1.0,-1.0,0.2627444267272949
129,-297.0,170.0,-155.0,0.0,13075.0,6113.0,-6778.0,-3765.0,5.0,3.0,8.0,2.0,5.0,8.0,1.0,1.0,0.2646329402923584
130,-311.0,174.0,-108.0,0.0,13101.0,6086.0,-6736.0,-3790.0,5.0,3.0,8.0,2.0,5.0,8.0,1.0,1.0,0.2670021057128906
131,-311.0,174.0,-108.0,0.0,13101.0,6086.0,-6736.0,-3790.0,-5.0,-6.0,-10.0,-6.0,-5.0,-1.0,-4.0,-2.0,0.2692110538482666
132,-311.0,174.0,-108.0,0.0,13101.0,6086.0,-6736.0,-3790.0,-8.0,-22.0,-17.0,-4.0,-9.0,1.0,-2.0,-5.0,0.2709825038909912
133,-201.0,171.0,-104.0,0.0,13119.0,6077.0,-6701.0,-3807.0,-8.0,-22.0,-17.0,-4.0,-9.0,1.0,-2.0,-5.0,0.27333831787109375
134,-201.0,171.0,-104.0,0.0,13119.0,6077.0,-6701.0,-3807.0,1.0,-12.0,-15.0,4.0,6.0,2.0,-1.0,0.0,0.2752702236175537
135,-201.0,171.0,-104.0,0.0,13119.0,6077.0,-6701.0,-3807.0,-1.0,-2.0,-3.0,-3.0,-8.0,-7.0,-3.0,1.0,0.2774686813354492
136,-266.0,137.0,-134.0,0.0,13139.0,6057.0,-6663.0,-3837.0,-1.0,-2.0,-3.0,-3.0,-8.0,-7.0,-3.0,1.0,0.28023266792297363
137,-266.0,137.0,-134.0,0.0,13139.0,6057.0,-6663.0,-3837.0,-6.0,-10.0,-9.0,-8.0,-14.0,-5.0,0.0,-5.0,0.28211140632629395
138,-266.0,137.0,-134.0,0.0,13139.0,6057.0,-6663.0,-3837.0,3.0,3.0,-3.0,-1.0,-1.0,-2.0,0.0,0.0,0.2838890552520752
139,-258.0,89.0,-127.0,0.0,13157.0,6033.0,-6630.0,-3868.0,3.0,3.0,-3.0,-1.0,-1.0,-2.0,0.0,0.0,0.285691499710083
140,-258.0,89.0,-127.0,0.0,13157.0,6033.0,-6630.0,-3868.0,1.0,-3.0,-2.0,0.0,-1.0,3.0,0.0,2.0,0.2875492572784424
141,-258.0,89.0,-127.0,0.0,13157.0,6033.0,-6630.0,-3868.0,2.0,5.0,8.0,5.0,-3.0,-4.0,0.0,-3.0,0.289318323135376
142,-144.0,74.0,-85.0,0.0,13170.0,6016.0,-6612.0,-3882.0,2.0,5.0,8.0,5.0,-3.0,-4.0,0.0,-3.0,0.2914407253265381
143,-144.0,74.0,-85.0,0.0,13170.0,6016.0,-6612.0,-3882.0,7.0,15.0,12.0,3.0,5.0,-2.0,0.0,3.0,0.2933468818664551
144,-144.0,74.0,-85.0,0.0,13170.0,6016.0,-6612.0,-3882.0,2.0,9.0,0.0,-14.0,-24.0,-1.0,-2.0,1.0,0.295274019241333
145,-71.0,90.0,-62.0,0.0,13179.0,6012.0,-6593.0,-3888.0,2.0,9.0,0.0,-14.0,-24.0,-1.0,-2.0,1.0,0.2977104187011719
146,-71.0,90.0,-62.0,0.0,13179.0,6012.0,-6593.0,-3888.0,3.0,10.0,-3.0,3.0,13.0,-1.0,-2.0,-4.0,0.29986071586608887
147,-45.0,106.0,-110.0,0.0,13182.0,6022.0,-6571.0,-3901.0,3.0,10.0,-3.0,3.0,13.0,-1.0,-2.0,-4.0,0.3016316890716553
148,-45.0,106.0,-110.0,0.0,13182.0,6022.0,-6571.0,-3901.0,-1.0,-5.0,-2.0,-1.0,4.0,1.0,0.0,-1.0,0.30348658561706543
149,-45.0,106.0,-110.0,0.0,13182.0,6022.0,-6571.0,-3901.0,19.0,51.0,47.0,-8.0,-3.0,-3.0,-1.0,4.0,0.3052480220794678
150,-63.0,93.0,-133.0,0.0,13185.0,6029.0,-6550.0,-3917.0,19.0,51.0,47.0,-8.0,-3.0,-3.0,-1.0,4.0,0.30701231956481934
151,-63.0,93.0,-133.0,0.0,13185.0,6029.0,-6550.0,-3917.0,-2.0,-2.0,-1.0,3.0,2.0,0.0,-2.0,0.0,0.30886292457580566
152,-63.0,93.0,-133.0,0.0,13185.0,6029.0,-6550.0,-3917.0,-9.0,-23.0,-22.0,-1.0,4.0,-3.0,-1.0,-4.0,0.31096673011779785
153,-79.0,71.0,-113.0,0.0,13190.0,6028.0,-6531.0,-3932.0,-9.0,-23.0,-22.0,-1.0,4.0,-3.0,-1.0,-4.0,0.3136632442474365
154,-79.0,71.0,-113.0,0.0,13190.0,6028.0,-6531.0,-3932.0,8.0,15.0,11.0,8.0,-1.0,-4.0,1.0,4.0,0.31560468673706055
155,-79.0,71.0,-113.0,0.0,13190.0,6028.0,-6531.0,-3932.0,-3.0,-12.0,-11.0,-1.0,-4.0,-1.0,-1.0,0.0,0.3173971176147461
156,-65.0,45.0,-116.0,0.0,13193.0,6027.0,-6515.0,-3949.0,-3.0,-12.0,-11.0,-1.0,-4.0,-1.0,-1.0,0.0,0.3191566467285156
157,-65.0,45.0,-116.0,0.0,13193.0,6027.0,-6515.0,-3949.0,-5.0,-10.0,-7.0,1.0,5.0,0.0,-2.0,-1.0,0.3210155963897705
158,-65.0,45.0,-116.0,0.0,13193.0,6027.0,-6515.0,-3949.0,-11.0,-21.0,-18.0,0.0,3.0,0.0,-2.0,-5.0,0.3227839469909668
159,-99.0,50.0,-81.0,0.0,13200.0,6020.0,-6499.0,-3964.0,-11.0,-21.0,-18.0,0.0,3.0,0.0,-2.0,-5.0,0.3248708248138428
160,-99.0,50.0,-81.0,0.0,13200.0,6020.0,-6499.0,-3964.0,1.0,5.0,9.0,-6.0,1.0,-3.0,-4.0,-5.0,0.3274562358856201
161,-99.0,50.0,-81.0,0.0,13200.0,6020.0,-6499.0,-3964.0,-5.0,-5.0,0.0,-6.0,-26.0,-3.0,-3.0,1.0,0.3297595977783203
162,-51.0,94.0,-36.0,0.0,13208.0,6021.0,-6480.0,-3967.0,-5.0,-5.0,0.0,-6.0,-26.0,-3.0,-3.0,1.0,0.3315756320953369
163,-51.0,94.0,-36.0,0.0,13208.0,6021.0,-6480.0,-3967.0,-4.0,-4.0,-7.0,-3.0,3.0,6.0,0.0,-4.0,0.3334081172943115
164,-51.0,94.0,-36.0,0.0,13208.0,6021.0,-6480.0,-3967.0,-3.0,-9.0,-11.0,1.0,8.0,2.0,0.0,-1.0,0.33516836166381836
165,-57.0,59.0,-21.0,0.0,13215.0,6017.0,-6467.0,-3971.0,-3.0,-9.0,-11.0,1.0,8.0,2.0,0.0,-1.0,0.3369629383087158
166,-57.0,59.0,-21.0,0.0,13215.0,6017.0,-6467.0,-3971.0,1.0,5.0,-1.0,2.0,2.0,-5.0,1.0,3.0,0.33882617950439453
167,-57.0,59.0,-21.0,0.0,13215.0,6017.0,-6467.0,-3971.0,-2.0,-3.0,3.0,-2.0,7.0,5.0,-3.0,-4.0,0.3406245708465576
168,-14.0,53.0,-44.0,0.0,13216.0,6021.0,-6462.0,-3971.0,-2.0,-3.0,3.0,-2.0,7.0,5.0,-3.0,-4.0,0.34242963790893555
169,-14.0,53.0,-44.0,0.0,13216.0,6021.0,-6462.0,-3971.0,5.0,6.0,0.0,-4.0,-1.0,-1.0,1.0,3.0,0.34483838081359863
170,-14.0,53.0,-44.0,0.0,13216.0,6021.0,-6462.0,-3971.0,-1.0,-2.0,1.0,2.0,-1.0,-5.0,-1.0,-2.0,0.34738874435424805
171,-23.0,51.0,-67.0,0.0,13220.0,6019.0,-6450.0,-3977.0,-1.0,-2.0,1.0,2.0,-1.0,-5.0,-1.0,-2.0,0.35465431213378906
172,-23.0,51.0,-67.0,0.0,13220.0,6019.0,-6450.0,-3977.0,-1.0,-7.0,-1.0,0.0,-6.0,-1.0,-3.0,-3.0,0.3569648265838623
173,-23.0,51.0,-67.0,0.0,13220.0,6019.0,-6450.0,-3977.0,-2.0,0.0,2.0,-10.0,-15.0,-1.0,0.0,0.0,0.35929274559020996
174,10.0,45.0,-46.0,0.0,13224.0,6020.0,-6442.0,-3977.0,-2.0,0.0,2.0,-10.0,-15.0,-1.0,0.0,0.0,0.37809252738952637
175,10.0,45.0,-46.0,0.0,13224.0,6020.0,-6442.0,-3977.0,2.0,8.0,0.0,-6.0,-4.0,1.0,2.0,3.0,0.38114213943481445
176,10.0,45.0,-46.0,0.0,13224.0,6020.0,-6442.0,-3977.0,-8.0,-11.0,-9.0,-3.0,8.0,2.0,-1.0,-3.0,0.38393616676330566
177,34.0,39.0,-1.0,0.0,13226.0,6023.0,-6439.0,-3971.0,-8.0,-11.0,-9.0,-3.0,8.0,2.0,-1.0,-3.0,0.39150500297546387
178,34.0,39.0,-1.0,0.0,13226.0,6023.0,-6439.0,-3971.0,-5.0,-10.0,-4.0,-4.0,-6.0,-5.0,-1.0,1.0,0.3994450569152832
179,34.0,39.0,-1.0,0.0,13226.0,6023.0,-6439.0,-3971.0,1.0,6.0,10.0,5.0,-21.0,-4.0,-1.0,1.0,0.4012150764465332
180,67.0,44.0,-2.0,0.0,13224.0,6036.0,-6436.0,-3963.0,1.0,6.0,10.0,5.0,-21.0,-4.0,-1.0,1.0,0.41487622261047363
181,67.0,44.0,-2.0,0.0,13224.0,6036.0,-6436.0,-3963.0,-5.0,-5.0,0.0,2.0,7.0,6.0,-1.0,-2.0,0.4167330265045166
182,67.0,44.0,-2.0,0.0,13224.0,6036.0,-6436.0,-3963.0,1.0,-1.0,-4.0,6.0,2.0,-3.0,-3.0,-2.0,0.4190359115600586
183,-6.0,19.0,-28.0,0.0,13224.0,6038.0,-6431.0,-3966.0,1.0,-1.0,-4.0,6.0,2.0,-3.0,-3.0,-2.0,0.43752241134643555
184,-6.0,19.0,-28.0,0.0,13224.0,6038.0,-6431.0,-3966.0,-4.0,-11.0,-12.0,3.0,8.0,4.0,1.0,-1.0,0.43937182426452637
185,-6.0,19.0,-28.0,0.0,13224.0,6038.0,-6431.0,-3966.0,1.0,-5.0,-6.0,4.0,-8.0,-5.0,-1.0,0.0,0.44190454483032227
186,-40.0,0.0,0.0,0.0,13226.0,6032.0,-6432.0,-3968.0,1.0,-5.0,-6.0,4.0,-8.0,-5.0,-1.0,0.0,0.4511678218841553
187,-40.0,0.0,0.0,0.0,13226.0,6032.0,-6432.0,-3968.0,-1.0,2.0,-5.0,-1.0,-4.0,-4.0,-1.0,-1.0,0.4591672420501709
188,-40.0,0.0,0.0,0.0,13226.0,6032.0,-6432.0,-3968.0,7.0,18.0,3.0,7.0,24.0,2.0,1.0,0.0,0.4618961811065674
189,-16.0,10.0,7.0,0.0,13226.0,6032.0,-6432.0,-3967.0,7.0,18.0,3.0,7.0,24.0,2.0,1.0,0.0,0.4754021167755127
190,-16.0,10.0,7.0,0.0,13226.0,6032.0,-6432.0,-3967.0,-3.0,-2.0,11.0,-1.0,-12.0,-6.0,0.0,-2.0,0.47847938537597656
191,-16.0,10.0,7.0,0.0,13226.0,6032.0,-6432.0,-3967.0,1.0,-3.0,2.0,1.0,6.0,2.0,0.0,2.0,0.48193907737731934
192,-7.0,4.0,8.0,0.0,13227.0,6031.0,-6432.0,-3967.0,1.0,-3.0,2.0,1.0,6.0,2.0,0.0,2.0,0.4992189407348633
193,-7.0,4.0,8.0,0.0,13227.0,6031.0,-6432.0,-3967.0,0.0,6.0,2.0,2.0,6.0,2.0,-2.0,1.0,0.5030262470245361
194,-7.0,4.0,8.0,0.0,13227.0,6031.0,-6432.0,-3967.0,4.0,3.0,-2.0,-9.0,-14.0,2.0,4.0,3.0,0.5068526268005371
195,36.0,20.0,-8.0,0.0,13225.0,6038.0,-6432.0,-3963.0,4.0,3.0,-2.0,-9.0,-14.0,2.0,4.0,3.0,0.5113425254821777
196,36.0,20.0,-8.0,0.0,13225.0,6038.0,-6432.0,-3963.0,-2.0,-2.0,0.0,-1.0,-9.0,-3.0,-4.0,-3.0,0.5191175937652588
197,36.0,20.0,-8.0,0.0,13225.0,6038.0,-6432.0,-3963.0,-6.0,-6.0,-1.0,0.0,-1.0,2.0,-2.0,-3.0,0.5209031105041504
198,66.0,29.0,-15.0,0.0,13221.0,6049.0,-6432.0,-3957.0,-6.0,-6.0,-1.0,0.0,-1.0,2.0,-2.0,-3.0,0.5349526405334473
199,66.0,29.0,-15.0,0.0,13221.0,6049.0,-6432.0,-3957.0,1.0,-1.0,1.0,3.0,5.0,2.0,0.0,0.0,0.536806583404541
200,66.0,29.0,-15.0,0.0,13221.0,6049.0,-6432.0,-3957.0,-3.0,-4.0,-8.0,-3.0,4.0,2.0,0.0,0.0,0.5385560989379883
201,77.0,51.0,-14.0,0.0,13217.0,6065.0,-6430.0,-3949.0,-3.0,-4.0,-8.0,-3.0,4.0,2.0,0.0,0.0,0.558295488357544
202,77.0,51.0,-14.0,0.0,13217.0,6065.0,-6430.0,-3949.0,-1.0,-3.0,-5.0,-2.0,2.0,0.0,-1.0,-4.0,0.5613925457000732
203,77.0,51.0,-14.0,0.0,13217.0,6065.0,-6430.0,-3949.0,4.0,9.0,3.0,5.0,5.0,-1.0,2.0,3.0,0.5643503665924072
204,75.0,69.0,11.0,0.0,13216.0,6080.0,-6425.0,-3938.0,4.0,9.0,3.0,5.0,5.0,-1.0,2.0,3.0,0.5820963382720947
205,75.0,69.0,11.0,0.0,13216.0,6080.0,-6425.0,-3938.0,1.0,0.0,0.0,-1.0,-1.0,-7.0,0.0,1.0,0.5856344699859619
206,75.0,69.0,11.0,0.0,13216.0,6080.0,-6425.0,-3938.0,-2.0,-7.0,-2.0,-4.0,-4.0,-4.0,-1.0,-4.0,0.589012861251831
207,136.0,91.0,24.0,0.0,13213.0,6104.0,-6421.0,-3918.0,-2.0,-7.0,-2.0,-4.0,-4.0,-4.0,-1.0,-4.0,0.5949487686157227
208,136.0,91.0,24.0,0.0,13213.0,6104.0,-6421.0,-3918.0,-1.0,7.0,0.0,1.0,4.0,5.0,1.0,0.0,0.5968010425567627
209,136.0,91.0,24.0,0.0,13213.0,6104.0,-6421.0,-3918.0,2.0,2.0,5.0,2.0,0.0,-1.0,-3.0,0.0,0.5985870361328125
210,257.0,148.0,18.0,0.0,13204.0,6146.0,-6420.0,-3883.0,2.0,2.0,5.0,2.0,0.0,-1.0,-3.0,0.0,0.6174306869506836
211,257.0,148.0,18.0,0.0,13204.0,6146.0,-6420.0,-3883.0,-3.0,-3.0,0.0,-2.0,1.0,0.0,-2.0,-2.0,0.6192784309387207
212,257.0,148.0,18.0,0.0,13204.0,6146.0,-6420.0,-3883.0,-2.0,-2.0,-1.0,1.0,-4.0,-1.0,-2.0,-1.0,0.6210298538208008
213,429.0,253.0,11.0,0.0,13186.0,6220.0,-6422.0,-3824.0,-2.0,-2.0,-1.0,1.0,-4.0,-1.0,-2.0,-1.0,0.6405813694000244
214,429.0,253.0,11.0,0.0,13186.0,6220.0,-6422.0,-3824.0,-2.0,-2.0,-4.0,2.0,-1.0,-3.0,-2.0,4.0,0.6445119380950928
215,429.0,253.0,11.0,0.0,13186.0,6220.0,-6422.0,-3824.0,-2.0,-6.0,-4.0,-2.0,1.0,-2.0,-3.0,-1.0,0.6487143039703369
216,667.0,397.0,2.0,0.0,13160.0,6334.0,-6414.0,-3738.0,-2.0,-6.0,-4.0,-2.0,1.0,-2.0,-3.0,-1.0,0.6555850505828857
217,667.0,397.0,2.0,0.0,13160.0,6334.0,-6414.0,-3738.0,0.0,-5.0,-3.0,0.0,1.0,-1.0,1.0,0.0,0.658238410949707
218,667.0,397.0,2.0,0.0,13160.0,6334.0,-6414.0,-3738.0,-1.0,-3.0,-2.0,-3.0,-3.0,-1.0,0.0,-2.0,0.6600372791290283
219,908.0,444.0,-2.0,0.0,13118.0,6494.0,-6396.0,-3642.0,-1.0,-3.0,-2.0,-3.0,-3.0,-1.0,0.0,-2.0,0.6791684627532959
220,908.0,444.0,-2.0,0.0,13118.0,6494.0,-6396.0,-3642.0,1.0,3.0,6.0,2.0,-4.0,-2.0,-1.0,-3.0,0.6825487613677979
221,908.0,444.0,-2.0,0.0,13118.0,6494.0,-6396.0,-3642.0,0.0,-2.0,-1.0,0.0,-1.0,1.0,1.0,-2.0,0.6856937408447266
222,1082.0,398.0,17.0,0.0,13052.0,6690.0,-6385.0,-3543.0,0.0,-2.0,-1.0,0.0,-1.0,1.0,1.0,-2.0,0.7005517482757568
223,1082.0,398.0,17.0,0.0,13052.0,6690.0,-6385.0,-3543.0,0.0,-3.0,-2.0,-2.0,2.0,-2.0,-1.0,-3.0,0.7040748596191406
224,1082.0,398.0,17.0,0.0,13052.0,6690.0,-6385.0,-3543.0,-3.0,0.0,-3.0,0.0,-1.0,-3.0,-2.0,0.0,0.7074518203735352
225,1135.0,363.0,16.0,0.0,12979.0,6887.0,-6379.0,-3442.0,-3.0,0.0,-3.0,0.0,-1.0,-3.0,-2.0,0.0,0.7145321369171143
226,1135.0,363.0,16.0,0.0,12979.0,6887.0,-6379.0,-3442.0,-1.0,-1.0,-1.0,-2.0,-4.0,-8.0,-3.0,-3.0,0.7164132595062256
227,1135.0,363.0,16.0,0.0,12979.0,6887.0,-6379.0,-3442.0,-1.0,-3.0,-3.0,-4.0,-7.0,-6.0,-2.0,-2.0,0.721240758895874
228,1303.0,427.0,-40.0,0.0,12901.0,7096.0,-6372.0,-3322.0,-1.0,-3.0,-3.0,-4.0,-7.0,-6.0,-2.0,-2.0,0.7387011051177979
229,1303.0,427.0,-40.0,0.0,12901.0,7096.0,-6372.0,-3322.0,-5.0,-5.0,-3.0,0.0,-2.0,1.0,1.0,-1.0,0.7425148487091064
230,1303.0,427.0,-40.0,0.0,12901.0,7096.0,-6372.0,-3322.0,0.0,-1.0,-3.0,0.0,0.0,0.0,1.0,2.0,0.7473137378692627
231,1633.0,438.0,-72.0,0.0,12800.0,7347.0,-6361.0,-3185.0,0.0,-1.0,-3.0,0.0,0.0,0.0,1.0,2.0,0.7624404430389404
232,1633.0,438.0,-72.0,0.0,12800.0,7347.0,-6361.0,-3185.0,-3.0,-3.0,-5.0,-1.0,0.0,1.0,-1.0,0.0,0.7666177749633789
233,1633.0,438.0,-72.0,0.0,12800.0,7347.0,-6361.0,-3185.0,1.0,4.0,3.0,2.0,5.0,3.0,0.0,-2.0,0.7702481746673584
234,1744.0,148.0,84.0,0.0,12668.0,7595.0,-6402.0,-3045.0,1.0,4.0,3.0,2.0,5.0,3.0,0.0,-2.0,0.7746036052703857
235,1744.0,148.0,84.0,0.0,12668.0,7595.0,-6402.0,-3045.0,-2.0,-2.0,-3.0,-6.0,-13.0,-3.0,-3.0,0.0,0.7771306037902832
236,1744.0,148.0,84.0,0.0,12668.0,7595.0,-6402.0,-3045.0,-3.0,-1.0,0.0,0.0,2.0,1.0,-1.0,-4.0,0.7809538841247559
237,1517.0,-108.0,277.0,0.0,12535.0,7801.0,-6471.0,-2930.0,-3.0,-1.0,0.0,0.0,2.0,1.0,-1.0,-4.0,0.7993433475494385
238,1517.0,-108.0,277.0,0.0,12535.0,7801.0,-6471.0,-2930.0,-1.0,-1.0,-1.0,5.0,3.0,-1.0,-3.0,-3.0,0.8029470443725586
239,1517.0,-108.0,277.0,0.0,12535.0,7801.0,-6471.0,-2930.0,-4.0,-4.0,-5.0,-2.0,-1.0,1.0,-2.0,0.0,0.8054842948913574
240,1365.0,-142.0,295.0,0.0,12414.0,7968.0,-6552.0,-2812.0,-4.0,-4.0,-5.0,-2.0,-1.0,1.0,-2.0,0.0,0.8203213214874268
241,1365.0,-142.0,295.0,0.0,12414.0,7968.0,-6552.0,-2812.0,1.0,2.0,0.0,0.0,-1.0,1.0,4.0,0.0,0.8228867053985596
242,1365.0,-142.0,295.0,0.0,12414.0,7968.0,-6552.0,-2812.0,3.0,-3.0,11.0,10.0,8.0,-4.0,1.0,1.0,0.8249101638793945
243,1206.0,-141.0,307.0,0.0,12313.0,8104.0,-6620.0,-2705.0,3.0,-3.0,11.0,10.0,8.0,-4.0,1.0,1.0,0.8335447311401367
244,1206.0,-141.0,307.0,0.0,12313.0,8104.0,-6620.0,-2705.0,1.0,6.0,3.0,-1.0,8.0,1.0,-1.0,-1.0,0.8420681953430176
245,1206.0,-141.0,307.0,0.0,12313.0,8104.0,-6620.0,-2705.0,-3.0,2.0,0.0,-6.0,-3.0,2.0,-2.0,-1.0,0.8439083099365234
246,1057.0,-338.0,391.0,0.0,12203.0,8219.0,-6713.0,-2625.0,-3.0,2.0,0.0,-6.0,-3.0,2.0,-2.0,-1.0,0.8575935363769531
247,1057.0,-338.0,391.0,0.0,12203.0,8219.0,-6713.0,-2625.0,-4.0,-6.0,3.0,0.0,-5.0,-1.0,-1.0,-2.0,0.8595657348632812
248,1057.0,-338.0,391.0,0.0,12203.0,8219.0,-6713.0,-2625.0,2.0,12.0,-12.0,-4.0,-1.0,3.0,1.0,4.0,0.8623752593994141
249,810.0,-573.0,504.0,0.0,12100.0,8281.0,-6847.0,-2560.0,2.0,12.0,-12.0,-4.0,-1.0,3.0,1.0,4.0,0.8818063735961914
250,810.0,-573.0,504.0,0.0,12100.0,8281.0,-6847.0,-2560.0,9.0,6.0,-1.0,4.0,10.0,4.0,-1.0,-1.0,0.8853826522827148
251,810.0,-573.0,504.0,0.0,12100.0,8281.0,-6847.0,-2560.0,0.0,1.0,15.0,4.0,1.0,0.0,0.0,0.0,0.8874223232269287
252,684.0,-596.0,527.0,0.0,12016.0,8310.0,-6982.0,-2499.0,0.0,1.0,15.0,4.0,1.0,0.0,0.0,0.0,0.8937160968780518
253,684.0,-596.0,527.0,0.0,12016.0,8310.0,-6982.0,-2499.0,3.0,6.0,3.0,-10.0,-12.0,0.0,0.0,1.0,0.902108907699585
254,684.0,-596.0,527.0,0.0,12016.0,8310.0,-6982.0,-2499.0,-4.0,-9.0,-2.0,3.0,0.0,-6.0,-4.0,-3.0,0.903914213180542
255,584.0,-577.0,529.0,0.0,11942.0,8328.0,-7102.0,-2451.0,-4.0,-9.0,-2.0,3.0,0.0,-6.0,-4.0,-3.0,0.9181804656982422
256,584.0,-577.0,529.0,0.0,11942.0,8328.0,-7102.0,-2451.0,-6.0,-9.0,4.0,-3.0,-10.0,-3.0,-2.0,0.0,0.9213004112243652
257,584.0,-577.0,529.0,0.0,11942.0,8328.0,-7102.0,-2451.0,8.0,18.0,4.0,-7.0,-11.0,1.0,0.0,2.0,0.9241087436676025
258,502.0,-558.0,589.0,0.0,11872.0,8337.0,-7226.0,-2400.0,8.0,18.0,4.0,-7.0,-11.0,1.0,0.0,2.0,0.9391396045684814
259,502.0,-558.0,589.0,0.0,11872.0,8337.0,-7226.0,-2400.0,-3.0,-8.0,-6.0,5.0,15.0,2.0,2.0,0.0,0.9480879306793213
260,502.0,-558.0,589.0,0.0,11872.0,8337.0,-7226.0,-2400.0,1.0,4.0,-8.0,-3.0,-5.0,-5.0,-1.0,-1.0,0.9514868259429932
261,249.0,-531.0,722.0,0.0,11825.0,8305.0,-7357.0,-2346.0,1.0,4.0,-8.0,-3.0,-5.0,-5.0,-1.0,-1.0,0.9538235664367676
262,249.0,-531.0,722.0,0.0,11825.0,8305.0,-7357.0,-2346.0,9.0,27.0,10.0,0.0,5.0,2.0,2.0,3.0,0.9628515243530273
263,249.0,-531.0,722.0,0.0,11825.0,8305.0,-7357.0,-2346.0,-3.0,-11.0,-7.0,-10.0,-11.0,1.0,-2.0,-3.0,0.96470046043396
264,-39.0,-621.0,704.0,0.0,11797.0,8232.0,-7488.0,-2325.0,-3.0,-11.0,-7.0,-10.0,-11.0,1.0,-2.0,-3.0,0.9798517227172852
265,-39.0,-621.0,704.0,0.0,11797.0,8232.0,-7488.0,-2325.0,-9.0,-12.0,-4.0,-3.0,-3.0,5.0,1.0,-4.0,0.9832775592803955
266,-39.0,-621.0,704.0,0.0,11797.0,8232.0,-7488.0,-2325.0,-3.0,-12.0,-16.0,2.0,-3.0,7.0,4.0,0.0,0.9864161014556885
267,-151.0,-593.0,608.0,0.0,11783.0,8146.0,-7606.0,-2318.0,-3.0,-12.0,-16.0,2.0,-3.0,7.0,4.0,0.0,1.000629186630249
268,-151.0,-593.0,608.0,0.0,11783.0,8146.0,-7606.0,-2318.0,-2.0,1.0,-2.0,-8.0,-14.0,-5.0,-7.0,1.0,1.0056746006011963
269,-151.0,-593.0,608.0,0.0,11783.0,8146.0,-7606.0,-2318.0,-12.0,-23.0,-3.0,4.0,10.0,2.0,-3.0,-2.0,1.0105228424072266
270,-51.0,-484.0,553.0,0.0,11772.0,8071.0,-7711.0,-2293.0,-12.0,-23.0,-3.0,4.0,10.0,2.0,-3.0,-2.0,1.0135691165924072
271,-51.0,-484.0,553.0,0.0,11772.0,8071.0,-7711.0,-2293.0,3.0,-2.0,3.0,4.0,1.0,0.0,2.0,4.0,1.0217108726501465
272,-51.0,-484.0,553.0,0.0,11772.0,8071.0,-7711.0,-2293.0,4.0,5.0,-15.0,-27.0,-36.0,-8.0,-3.0,2.0,1.0236890316009521
273,194.0,-402.0,469.0,0.0,11741.0,8040.0,-7801.0,-2254.0,4.0,5.0,-15.0,-27.0,-36.0,-8.0,-3.0,2.0,1.0387046337127686
274,194.0,-402.0,469.0,0.0,11741.0,8040.0,-7801.0,-2254.0,1.0,0.0,0.0,6.0,22.0,-7.0,-1.0,1.0,1.0406837463378906
275,194.0,-402.0,469.0,0.0,11741.0,8040.0,-7801.0,-2254.0,-2.0,-8.0,-10.0,4.0,33.0,6.0,3.0,-1.0,1.042484998703003
276,152.0,-426.0,369.0,0.0,11698.0,8023.0,-7888.0,-2237.0,-2.0,-8.0,-10.0,4.0,33.0,6.0,3.0,-1.0,1.0613138675689697
277,152.0,-426.0,369.0,0.0,11698.0,8023.0,-7888.0,-2237.0,-2.0,0.0,-3.0,-2.0,4.0,3.0,-1.0,-3.0,1.0661695003509521
278,152.0,-426.0,369.0,0.0,11698.0,8023.0,-7888.0,-2237.0,1.0,9.0,22.0,6.0,-9.0,-9.0,-5.0,1.0,1.070373296737671
279,-40.0,-446.0,298.0,0.0,11678.0,7975.0,-7963.0,-2243.0,1.0,9.0,22.0,6.0,-9.0,-9.0,-5.0,1.0,1.0731830596923828
280,-40.0,-446.0,298.0,0.0,11678.0,7975.0,-7963.0,-2243.0,-3.0,-9.0,2.0,2.0,2.0,-4.0,-3.0,-1.0,1.0817105770111084
281,-40.0,-446.0,298.0,0.0,11678.0,7975.0,-7963.0,-2243.0,1.0,19.0,9.0,1.0,3.0,1.0,-3.0,-3.0,1.083531141281128
282,57.0,-436.0,172.0,0.0,11657.0,7939.0,-8028.0,-2250.0,1.0,19.0,9.0,1.0,3.0,1.0,-3.0,-3.0,1.0982763767242432
283,57.0,-436.0,172.0,0.0,11657.0,7939.0,-8028.0,-2250.0,8.0,6.0,4.0,0.0,-15.0,0.0,-1.0,2.0,1.1008577346801758
284,57.0,-436.0,172.0,0.0,11657.0,7939.0,-8028.0,-2250.0,0.0,-1.0,0.0,4.0,1.0,-3.0,-1.0,-4.0,1.1027228832244873
285,385.0,-311.0,50.0,0.0,11608.0,7965.0,-8078.0,-2234.0,0.0,-1.0,0.0,4.0,1.0,-3.0,-1.0,-4.0,1.119762897491455
286,385.0,-311.0,50.0,0.0,11608.0,7965.0,-8078.0,-2234.0,-3.0,-1.0,-8.0,-4.0,-1.0,0.0,1.0,-3.0,1.1216742992401123
287,385.0,-311.0,50.0,0.0,11608.0,7965.0,-8078.0,-2234.0,0.0,0.0,10.0,1.0,0.0,-1.0,-2.0,-2.0,1.1237473487854004
288,332.0,-167.0,116.0,0.0,11571.0,7993.0,-8110.0,-2209.0,0.0,0.0,10.0,1.0,0.0,-1.0,-2.0,-2.0,1.1334681510925293
289,332.0,-167.0,116.0,0.0,11571.0,7993.0,-8110.0,-2209.0,-7.0,-14.0,-8.0,5.0,-5.0,0.0,0.0,0.0,1.141770601272583
290,332.0,-167.0,116.0,0.0,11571.0,7993.0,-8110.0,-2209.0,6.0,-2.0,-12.0,4.0,14.0,7.0,4.0,4.0,1.1436810493469238
291,63.0,-70.0,171.0,0.0,11563.0,7990.0,-8127.0,-2198.0,6.0,-2.0,-12.0,4.0,14.0,7.0,4.0,4.0,1.1575522422790527
292,63.0,-70.0,171.0,0.0,11563.0,7990.0,-8127.0,-2198.0,-3.0,-6.0,-14.0,-8.0,7.0,-1.0,-4.0,-4.0,1.1621158123016357
293,63.0,-70.0,171.0,0.0,11563.0,7990.0,-8127.0,-2198.0,-9.0,-22.0,-1.0,2.0,7.0,2.0,0.0,-3.0,1.1658494472503662
294,-22.0,-87.0,198.0,0.0,11562.0,7971.0,-8149.0,-2190.0,-9.0,-22.0,-1.0,2.0,7.0,2.0,0.0,-3.0,1.1805715560913086
295,-22.0,-87.0,198.0,0.0,11562.0,7971.0,-8149.0,-2190.0,-1.0,-6.0,5.0,3.0,5.0,4.0,2.0,-2.0,1.183811902999878
296,-22.0,-87.0,198.0,0.0,11562.0,7971.0,-8149.0,-2190.0,-1.0,-1.0,5.0,3.0,0.0,-1.0,0.0,-3.0,1.1858510971069336
297,-12.0,-186.0,119.0,0.0,11555.0,7948.0,-8182.0,-2188.0,-1.0,-1.0,5.0,3.0,0.0,-1.0,0.0,-3.0,1.1941452026367188
298,-12.0,-186.0,119.0,0.0,11555.0,7948.0,-8182.0,-2188.0,-2.0,-1.0,-4.0,-6.0,-6.0,-3.0,-2.0,-1.0,1.2031316757202148
299,-12.0,-186.0,119.0,0.0,11555.0,7948.0,-8182.0,-2188.0,2.0,5.0,0.0,0.0,-6.0,-5.0,-1.0,1.0,1.205066204071045
300,78.0,-171.0,87.0,0.0,11540.0,7939.0,-8214.0,-2180.0,2.0,5.0,0.0,0.0,-6.0,-5.0,-1.0,1.0,1.232783555984497
301,78.0,-171.0,87.0,0.0,11540.0,7939.0,-8214.0,-2180.0,-1.0,-4.0,-8.0,-1.0,-10.0,-7.0,-3.0,-2.0,1.234682559967041
302,78.0,-171.0,87.0,0.0,11540.0,7939.0,-8214.0,-2180.0,1.0,1.0,-12.0,-3.0,-3.0,-4.0,-1.0,2.0,1.2364614009857178
303,60.0,-76.0,83.0,0.0,11533.0,7933.0,-8232.0,-2168.0,1.0,1.0,-12.0,-3.0,-3.0,-4.0,-1.0,2.0,1.240027904510498
304,60.0,-76.0,83.0,0.0,11533.0,7933.0,-8232.0,-2168.0,-1.0,-11.0,6.0,2.0,-10.0,-1.0,7.0,3.0,1.2420599460601807
305,60.0,-76.0,83.0,0.0,11533.0,7933.0,-8232.0,-2168.0,-3.0,-1.0,5.0,-4.0,-3.0,-6.0,-7.0,-7.0,1.2439351081848145
306,-122.0,-52.0,49.0,0.0,11538.0,7916.0,-8240.0,-2179.0,-3.0,-1.0,5.0,-4.0,-3.0,-6.0,-7.0,-7.0,1.2545380592346191
307,-122.0,-52.0,49.0,0.0,11538.0,7916.0,-8240.0,-2179.0,1.0,2.0,-2.0,0.0,0.0,-6.0,-5.0,1.0,1.262833595275879
308,-122.0,-52.0,49.0,0.0,11538.0,7916.0,-8240.0,-2179.0,-6.0,-14.0,-8.0,-7.0,-8.0,-4.0,-2.0,1.0,1.2647631168365479
309,-165.0,-86.0,15.0,0.0,11542.0,7894.0,-8251.0,-2199.0,-6.0,-14.0,-8.0,-7.0,-8.0,-4.0,-2.0,1.0,1.2774457931518555
310,-165.0,-86.0,15.0,0.0,11542.0,7894.0,-8251.0,-2199.0,0.0,11.0,9.0,-2.0,-13.0,-4.0,-2.0,0.0,1.2794640064239502
311,-165.0,-86.0,15.0,0.0,11542.0,7894.0,-8251.0,-2199.0,-6.0,-8.0,11.0,4.0,3.0,0.0,-1.0,0.0,1.282820701599121
312,-71.0,-84.0,-28.0,0.0,11537.0,7883.0,-8265.0,-2208.0,-6.0,-8.0,11.0,4.0,3.0,0.0,-1.0,0.0,1.2999167442321777
313,-71.0,-84.0,-28.0,0.0,11537.0,7883.0,-8265.0,-2208.0,-1.0,4.0,-5.0,-6.0,8.0,7.0,-2.0,-1.0,1.3017938137054443
314,-71.0,-84.0,-28.0,0.0,11537.0,7883.0,-8265.0,-2208.0,-4.0,-9.0,-13.0,-1.0,-1.0,2.0,2.0,-1.0,1.3036079406738281
315,36.0,-71.0,-40.0,0.0,11525.0,7889.0,-8275.0,-2213.0,-4.0,-9.0,-13.0,-1.0,-1.0,2.0,2.0,-1.0,1.314704179763794
316,36.0,-71.0,-40.0,0.0,11525.0,7889.0,-8275.0,-2213.0,2.0,5.0,6.0,-4.0,1.0,1.0,0.0,1.0,1.3217229843139648
317,36.0,-71.0,-40.0,0.0,11525.0,7889.0,-8275.0,-2213.0,0.0,-1.0,-3.0,-4.0,-1.0,-2.0,0.0,-2.0,1.3235385417938232
318,-36.0,-41.0,-35.0,0.0,11517.0,7892.0,-8280.0,-2223.0,0.0,-1.0,-3.0,-4.0,-1.0,-2.0,0.0,-2.0,1.3374745845794678
319,-36.0,-41.0,-35.0,0.0,11517.0,7892.0,-8280.0,-2223.0,5.0,6.0,-3.0,-1.0,-7.0,-4.0,-1.0,-2.0,1.3393974304199219
320,-36.0,-41.0,-35.0,0.0,11517.0,7892.0,-8280.0,-2223.0,6.0,6.0,3.0,3.0,3.0,1.0,2.0,5.0,1.3413774967193604
321,-125.0,-13.0,-2.0,0.0,11519.0,7879.0,-8287.0,-2231.0,6.0,6.0,3.0,3.0,3.0,1.0,2.0,5.0,1.3606500625610352
322,-125.0,-13.0,-2.0,0.0,11519.0,7879.0,-8287.0,-2231.0,-8.0,-12.0,-7.0,0.0,-3.0,-3.0,-1.0,-3.0,1.3642961978912354
323,-125.0,-13.0,-2.0,0.0,11519.0,7879.0,-8287.0,-2231.0,4.0,8.0,-1.0,-3.0,2.0,-1.0,0.0,0.0,1.3661963939666748
324,-131.0,14.0,25.0,0.0,11526.0,7859.0,-8297.0,-2228.0,4.0,8.0,-1.0,-3.0,2.0,-1.0,0.0,0.0,1.3738605976104736
325,-131.0,14.0,25.0,0.0,11526.0,7859.0,-8297.0,-2228.0,1.0,-3.0,-4.0,8.0,9.0,3.0,3.0,1.0,1.381772756576538
326,-131.0,14.0,25.0,0.0,11526.0,7859.0,-8297.0,-2228.0,5.0,5.0,-7.0,-3.0,-5.0,-11.0,-4.0,0.0,1.3835713863372803
327,3.0,-2.0,35.0,0.0,11526.0,7849.0,-8313.0,-2209.0,5.0,5.0,-7.0,-3.0,-5.0,-11.0,-4.0,0.0,1.3975019454956055
328,3.0,-2.0,35.0,0.0,11526.0,7849.0,-8313.0,-2209.0,-3.0,5.0,3.0,-1.0,-4.0,-7.0,-1.0,-3.0,1.399381160736084
329,3.0,-2.0,35.0,0.0,11526.0,7849.0,-8313.0,-2209.0,-1.0,-4.0,-5.0,4.0,16.0,8.0,3.0,-2.0,1.4011499881744385
330,44.0,-4.0,33.0,0.0,11521.0,7846.0,-8328.0,-2189.0,-1.0,-4.0,-5.0,4.0,16.0,8.0,3.0,-2.0,1.4199726581573486
331,44.0,-4.0,33.0,0.0,11521.0,7846.0,-8328.0,-2189.0,-1.0,-9.0,-17.0,-2.0,-4.0,-1.0,-5.0,0.0,1.4218134880065918
332,44.0,-4.0,33.0,0.0,11521.0,7846.0,-8328.0,-2189.0,-4.0,1.0,0.0,-7.0,-14.0,-3.0,-3.0,-4.0,1.4246125221252441
333,24.0,14.0,55.0,0.0,11518.0,7840.0,-8342.0,-2168.0,-4.0,1.0,0.0,-7.0,-14.0,-3.0,-3.0,-4.0,1.43379807472229
334,24.0,14.0,55.0,0.0,11518.0,7840.0,-8342.0,-2168.0,1.0,4.0,7.0,-3.0,-12.0,1.0,2.0,0.0,1.4418048858642578
335,24.0,14.0,55.0,0.0,11518.0,7840.0,-8342.0,-2168.0,-8.0,-12.0,-1.0,4.0,10.0,6.0,-5.0,-4.0,1.4442510604858398
336,-41.0,42.0,89.0,0.0,11527.0,7823.0,-8350.0,-2149.0,-8.0,-12.0,-1.0,4.0,10.0,6.0,-5.0,-4.0,1.4584417343139648
337,-41.0,42.0,89.0,0.0,11527.0,7823.0,-8350.0,-2149.0,-1.0,-1.0,1.0,5.0,14.0,7.0,2.0,1.0,1.4618010520935059
338,-41.0,42.0,89.0,0.0,11527.0,7823.0,-8350.0,-2149.0,-9.0,-7.0,-5.0,-9.0,-17.0,-5.0,-3.0,-6.0,1.465024471282959
339,-18.0,32.0,133.0,0.0,11536.0,7806.0,-8361.0,-2125.0,-9.0,-7.0,-5.0,-9.0,-17.0,-5.0,-3.0,-6.0,1.4808802604675293
340,-18.0,32.0,133.0,0.0,11536.0,7806.0,-8361.0,-2125.0,11.0,8.0,8.0,2.0,-1.0,11.0,10.0,15.0,1.4828200340270996
341,-18.0,32.0,133.0,0.0,11536.0,7806.0,-8361.0,-2125.0,10.0,4.0,8.0,5.0,1.0,4.0,1.0,1.0,1.4846372604370117
342,38.0,74.0,172.0,0.0,11546.0,7796.0,-8364.0,-2096.0,10.0,4.0,8.0,5.0,1.0,4.0,1.0,1.0,1.5126686096191406
343,38.0,74.0,172.0,0.0,11546.0,7796.0,-8364.0,-2096.0,0.0,-2.0,-6.0,11.0,53.0,10.0,-3.0,-7.0,1.5150775909423828
344,38.0,74.0,172.0,0.0,11546.0,7796.0,-8364.0,-2096.0,-8.0,-26.0,-14.0,4.0,-29.0,-16.0,-2.0,-1.0,1.5168919563293457
345,-107.0,110.0,221.0,0.0,11572.0,7769.0,-8358.0,-2077.0,-8.0,-26.0,-14.0,4.0,-29.0,-16.0,-2.0,-1.0,1.5186760425567627
346,-107.0,110.0,221.0,0.0,11572.0,7769.0,-8358.0,-2077.0,-16.0,-27.0,-15.0,3.0,5.0,-3.0,-3.0,-8.0,1.5206413269042969
347,-107.0,110.0,221.0,0.0,11572.0,7769.0,-8358.0,-2077.0,-9.0,-6.0,-5.0,2.0,26.0,3.0,-8.0,-11.0,1.522437334060669
348,-123.0,209.0,341.0,0.0,11615.0,7732.0,-8339.0,-2045.0,-9.0,-6.0,-5.0,2.0,26.0,3.0,-8.0,-11.0,1.5403335094451904
349,-123.0,209.0,341.0,0.0,11615.0,7732.0,-8339.0,-2045.0,-11.0,-15.0,-13.0,-26.0,-29.0,-12.0,-14.0,-14.0,1.5446274280548096
350,-123.0,209.0,341.0,0.0,11615.0,7732.0,-8339.0,-2045.0,14.0,25.0,-4.0,-11.0,-8.0,20.0,13.0,15.0,1.5478789806365967
351,-158.0,239.0,368.0,0.0,11674.0,7689.0,-8303.0,-2020.0,14.0,25.0,-4.0,-11.0,-8.0,20.0,13.0,15.0,1.5640552043914795
352,-158.0,239.0,368.0,0.0,11674.0,7689.0,-8303.0,-2020.0,2.0,-5.0,-20.0,-30.0,-10.0,-12.0,-16.0,-5.0,1.567241907119751
353,-158.0,239.0,368.0,0.0,11674.0,7689.0,-8303.0,-2020.0,-3.0,4.0,5.0,-10.0,-18.0,11.0,5.0,-1.0,1.5702400207519531
354,-224.0,479.0,269.0,0.0,11785.0,7642.0,-8189.0,-2016.0,-3.0,4.0,5.0,-10.0,-18.0,11.0,5.0,-1.0,1.5849668979644775
355,-224.0,479.0,269.0,0.0,11785.0,7642.0,-8189.0,-2016.0,1.0,-10.0,3.0,-14.0,-31.0,-32.0,-22.0,-15.0,1.5868420600891113
356,-224.0,479.0,269.0,0.0,11785.0,7642.0,-8189.0,-2016.0,5.0,20.0,10.0,6.0,54.0,0.0,-1.0,0.0,1.5886363983154297
357,-156.0,789.0,-106.0,0.0,11922.0,7641.0,-7983.0,-2041.0,5.0,20.0,10.0,6.0,54.0,0.0,-1.0,0.0,1.599780797958374
358,-156.0,789.0,-106.0,0.0,11922.0,7641.0,-7983.0,-2041.0,-4.0,8.0,-4.0,13.0,12.0,7.0,3.0,3.0,1.6016640663146973
359,-156.0,789.0,-106.0,0.0,11922.0,7641.0,-7983.0,-2041.0,4.0,17.0,8.0,5.0,-14.0,2.0,0.0,-1.0,1.603471040725708
360,-83.0,1017.0,-792.0,0.0,12059.0,7716.0,-7674.0,-2143.0,4.0,17.0,8.0,5.0,-14.0,2.0,0.0,-1.0,1.6233532428741455
361,-83.0,1017.0,-792.0,0.0,12059.0,7716.0,-7674.0,-2143.0,13.0,39.0,28.0,1.0,-13.0,0.0,9.0,13.0,1.625978708267212
362,-83.0,1017.0,-792.0,0.0,12059.0,7716.0,-7674.0,-2143.0,-10.0,-16.0,-35.0,-3.0,1.0,3.0,10.0,11.0,1.6290838718414307
363,-522.0,972.0,-1618.0,0.0,12144.0,7803.0,-7396.0,-2317.0,-10.0,-16.0,-35.0,-3.0,1.0,3.0,10.0,11.0,1.636749505996704
364,-522.0,972.0,-1618.0,0.0,12144.0,7803.0,-7396.0,-2317.0,3.0,-6.0,-16.0,0.0,-3.0,7.0,3.0,2.0,1.6386137008666992
365,-522.0,972.0,-1618.0,0.0,12144.0,7803.0,-7396.0,-2317.0,-12.0,-13.0,8.0,-1.0,-12.0,-11.0,-9.0,-7.0,1.6434440612792969
366,-1487.0,1214.0,-2250.0,0.0,12305.0,7815.0,-7002.0,-2630.0,-12.0,-13.0,8.0,-1.0,-12.0,-11.0,-9.0,-7.0,1.6621899604797363
367,-1487.0,1214.0,-2250.0,0.0,12305.0,7815.0,-7002.0,-2630.0,-13.0,-27.0,3.0,15.0,9.0,6.0,4.0,-2.0,1.6648807525634766
368,-1487.0,1214.0,-2250.0,0.0,12305.0,7815.0,-7002.0,-2630.0,12.0,4.0,3.0,2.0,0.0,3.0,16.0,13.0,1.6666655540466309
369,-2471.0,1466.0,-2844.0,0.0,12534.0,7735.0,-6486.0,-3073.0,12.0,4.0,3.0,2.0,0.0,3.0,16.0,13.0,1.6836833953857422
370,-2471.0,1466.0,-2844.0,0.0,12534.0,7735.0,-6486.0,-3073.0,14.0,33.0,23.0,15.0,18.0,6.0,6.0,11.0,1.6877312660217285
371,-2471.0,1466.0,-2844.0,0.0,12534.0,7735.0,-6486.0,-3073.0,8.0,8.0,14.0,11.0,4.0,2.0,10.0,11.0,1.690716028213501
372,-3278.0,1781.0,-3626.0,0.0,12794.0,7591.0,-5817.0,-3644.0,8.0,8.0,14.0,11.0,4.0,2.0,10.0,11.0,1.6976869106292725
373,-3278.0,1781.0,-3626.0,0.0,12794.0,7591.0,-5817.0,-3644.0,-11.0,-21.0,-3.0,-17.0,-22.0,-2.0,-2.0,-15.0,1.699615716934204
374,-3278.0,1781.0,-3626.0,0.0,12794.0,7591.0,-5817.0,-3644.0,-1.0,5.0,8.0,-5.0,-6.0,-3.0,-5.0,-7.0,1.7035269737243652
375,-3434.0,2236.0,-4477.0,0.0,13014.0,7468.0,-4987.0,-4292.0,-1.0,5.0,8.0,-5.0,-6.0,-3.0,-5.0,-7.0,1.7201383113861084
376,-3434.0,2236.0,-4477.0,0.0,13014.0,7468.0,-4987.0,-4292.0,-4.0,-1.0,11.0,-1.0,17.0,0.0,1.0,5.0,1.722041130065918
377,-3434.0,2236.0,-4477.0,0.0,13014.0,7468.0,-4987.0,-4292.0,1.0,-3.0,0.0,-2.0,-8.0,-10.0,-7.0,-6.0,1.7238595485687256
378,-3356.0,2786.0,-5001.0,0.0,13170.0,7375.0,-4016.0,-4945.0,1.0,-3.0,0.0,-2.0,-8.0,-10.0,-7.0,-6.0,1.7430989742279053
379,-3356.0,2786.0,-5001.0,0.0,13170.0,7375.0,-4016.0,-4945.0,2.0,7.0,9.0,3.0,-5.0,1.0,4.0,6.0,1.7466068267822266
380,-3356.0,2786.0,-5001.0,0.0,13170.0,7375.0,-4016.0,-4945.0,-4.0,-2.0,3.0,-1.0,2.0,-5.0,-10.0,-5.0,1.750129222869873
381,-3372.0,3038.0,-5205.0,0.0,13247.0,7280.0,-3032.0,-5546.0,-4.0,-2.0,3.0,-1.0,2.0,-5.0,-10.0,-5.0,1.7570090293884277
382,-3372.0,3038.0,-5205.0,0.0,13247.0,7280.0,-3032.0,-5546.0,0.0,6.0,5.0,4.0,-3.0,-3.0,3.0,-2.0,1.7588911056518555
383,-3372.0,3038.0,-5205.0,0.0,13247.0,7280.0,-3032.0,-5546.0,6.0,6.0,9.0,-6.0,-12.0,-3.0,-8.0,-6.0,1.7635252475738525
384,-3354.0,3014.0,-5359.0,0.0,13245.0,7154.0,-2025.0,-6141.0,6.0,6.0,9.0,-6.0,-12.0,-3.0,-8.0,-6.0,1.7801811695098877
385,-3354.0,3014.0,-5359.0,0.0,13245.0,7154.0,-2025.0,-6141.0,-3.0,-6.0,-8.0,-1.0,-4.0,2.0,-4.0,-11.0,1.7821712493896484
386,-3354.0,3014.0,-5359.0,0.0,13245.0,7154.0,-2025.0,-6141.0,-9.0,-1.0,-8.0,-7.0,-7.0,-3.0,-9.0,-10.0,1.7839562892913818
387,-3296.0,2990.0,-5393.0,0.0,13168.0,7001.0,-1011.0,-6708.0,-9.0,-1.0,-8.0,-7.0,-7.0,-3.0,-9.0,-10.0,1.802483320236206
388,-3296.0,2990.0,-5393.0,0.0,13168.0,7001.0,-1011.0,-6708.0,0.0,-5.0,4.0,9.0,-3.0,-10.0,0.0,3.0,1.804382085800171
389,-3296.0,2990.0,-5393.0,0.0,13168.0,7001.0,-1011.0,-6708.0,-2.0,-6.0,-2.0,2.0,7.0,3.0,7.0,1.0,1.8064260482788086
390,-3498.0,3027.0,-5348.0,0.0,13038.0,6759.0,88.0,-7262.0,-2.0,-6.0,-2.0,2.0,7.0,3.0,7.0,1.0,1.8162205219268799
391,-3498.0,3027.0,-5348.0,0.0,13038.0,6759.0,88.0,-7262.0,-8.0,-14.0,-13.0,-5.0,-3.0,-22.0,-17.0,-16.0,1.8250970840454102
392,-3498.0,3027.0,-5348.0,0.0,13038.0,6759.0,88.0,-7262.0,2.0,-4.0,0.0,-1.0,-3.0,-1.0,-2.0,-1.0,1.8308231830596924
393,-3781.0,3161.0,-5211.0,0.0,12874.0,6466.0,1155.0,-7716.0,2.0,-4.0,0.0,-1.0,-3.0,-1.0,-2.0,-1.0,1.8402588367462158
394,-3781.0,3161.0,-5211.0,0.0,12874.0,6466.0,1155.0,-7716.0,12.0,27.0,28.0,6.0,8.0,17.0,11.0,17.0,1.8427248001098633
395,-3781.0,3161.0,-5211.0,0.0,12874.0,6466.0,1155.0,-7716.0,7.0,13.0,6.0,2.0,3.0,-1.0,1.0,0.0,1.8460757732391357
396,-3978.0,3198.0,-4959.0,0.0,12672.0,6112.0,2231.0,-8094.0,7.0,13.0,6.0,2.0,3.0,-1.0,1.0,0.0,1.863055944442749
397,-3978.0,3198.0,-4959.0,0.0,12672.0,6112.0,2231.0,-8094.0,-6.0,-16.0,-21.0,-1.0,7.0,8.0,1.0,-2.0,1.866157054901123
398,-3978.0,3198.0,-4959.0,0.0,12672.0,6112.0,2231.0,-8094.0,4.0,10.0,1.0,2.0,-4.0,-1.0,-1.0,3.0,1.8686878681182861
399,-4114.0,2977.0,-4722.0,0.0,12435.0,5687.0,3271.0,-8411.0,4.0,10.0,1.0,2.0,-4.0,-1.0,-1.0,3.0,1.8763179779052734
400,-4114.0,2977.0,-4722.0,0.0,12435.0,5687.0,3271.0,-8411.0,-2.0,-5.0,-8.0,-1.0,-2.0,5.0,5.0,-1.0,1.8845858573913574
401,-4114.0,2977.0,-4722.0,0.0,12435.0,5687.0,3271.0,-8411.0,-6.0,-12.0,-15.0,-1.0,5.0,-1.0,-3.0,-5.0,1.8865351676940918
402,-4122.0,2836.0,-4649.0,0.0,12141.0,5215.0,4282.0,-8688.0,-6.0,-12.0,-15.0,-1.0,5.0,-1.0,-3.0,-5.0,1.9012153148651123
403,-4122.0,2836.0,-4649.0,0.0,12141.0,5215.0,4282.0,-8688.0,16.0,29.0,37.0,-1.0,-5.0,-8.0,-17.0,17.0,1.9052753448486328
404,-4122.0,2836.0,-4649.0,0.0,12141.0,5215.0,4282.0,-8688.0,-8.0,-16.0,-16.0,1.0,-24.0,-16.0,-10.0,-6.0,1.9084796905517578
405,-3969.0,2827.0,-4481.0,0.0,11786.0,4736.0,5259.0,-8911.0,-8.0,-16.0,-16.0,1.0,-24.0,-16.0,-10.0,-6.0,1.92262864112854
406,-3969.0,2827.0,-4481.0,0.0,11786.0,4736.0,5259.0,-8911.0,13.0,8.0,-13.0,11.0,15.0,21.0,22.0,15.0,1.9247767925262451
407,-3969.0,2827.0,-4481.0,0.0,11786.0,4736.0,5259.0,-8911.0,0.0,-5.0,1.0,5.0,-2.0,-6.0,-7.0,-5.0,1.9269070625305176
408,-3683.0,2770.0,-4231.0,0.0,11379.0,4271.0,6179.0,-9084.0,0.0,-5.0,1.0,5.0,-2.0,-6.0,-7.0,-5.0,1.9368064403533936
409,-3683.0,2770.0,-4231.0,0.0,11379.0,4271.0,6179.0,-9084.0,-11.0,-16.0,-10.0,-5.0,-3.0,-4.0,-5.0,-6.0,1.9516687393188477
410,-3683.0,2770.0,-4231.0,0.0,11379.0,4271.0,6179.0,-9084.0,4.0,-1.0,8.0,-4.0,14.0,-11.0,0.0,-1.0,1.961902379989624
411,-3269.0,2580.0,-3916.0,0.0,10939.0,3838.0,7006.0,-9216.0,4.0,-1.0,8.0,-4.0,14.0,-11.0,0.0,-1.0,1.9663629531860352
412,-3269.0,2580.0,-3916.0,0.0,10939.0,3838.0,7006.0,-9216.0,-10.0,-10.0,-12.0,-5.0,4.0,-4.0,-8.0,-17.0,1.9695496559143066
413,-3269.0,2580.0,-3916.0,0.0,10939.0,3838.0,7006.0,-9216.0,-3.0,-5.0,-3.0,-7.0,0.0,9.0,8.0,22.0,1.9742462635040283
414,-2944.0,2330.0,-3721.0,0.0,10475.0,3412.0,7749.0,-9329.0,-3.0,-5.0,-3.0,-7.0,0.0,9.0,8.0,22.0,1.982409954071045
415,-2944.0,2330.0,-3721.0,0.0,10475.0,3412.0,7749.0,-9329.0,-4.0,0.0,0.0,-5.0,-29.0,-13.0,-12.0,-12.0,1.9842851161956787
416,-2944.0,2330.0,-3721.0,0.0,10475.0,3412.0,7749.0,-9329.0,1.0,4.0,0.0,4.0,22.0,8.0,2.0,6.0,1.9860570430755615
417,-2540.0,2130.0,-3569.0,0.0,9985.0,3011.0,8406.0,-9433.0,1.0,4.0,0.0,4.0,22.0,8.0,2.0,6.0,1.9966723918914795
418,-2540.0,2130.0,-3569.0,0.0,9985.0,3011.0,8406.0,-9433.0,0.0,-1.0,-6.0,-13.0,-31.0,-4.0,2.0,-4.0,2.005030870437622
419,-2540.0,2130.0,-3569.0,0.0,9985.0,3011.0,8406.0,-9433.0,3.0,3.0,1.0,1.0,8.0,16.0,11.0,22.0,2.00789737701416
420,-2418.0,1781.0,-3492.0,0.0,9494.0,2580.0,8998.0,-9522.0,3.0,3.0,1.0,1.0,8.0,16.0,11.0,22.0,2.0205719470977783
421,-2418.0,1781.0,-3492.0,0.0,9494.0,2580.0,8998.0,-9522.0,-5.0,-9.0,-10.0,-11.0,-5.0,4.0,3.0,3.0,2.024675130844116
422,-2418.0,1781.0,-3492.0,0.0,9494.0,2580.0,8998.0,-9522.0,-3.0,0.0,-3.0,-19.0,-74.0,-32.0,-2.0,-12.0,2.0300426483154297
423,-2319.0,1271.0,-3445.0,0.0,9066.0,2132.0,9457.0,-9605.0,-3.0,0.0,-3.0,-19.0,-74.0,-32.0,-2.0,-12.0,2.042428970336914
424,-2319.0,1271.0,-3445.0,0.0,9066.0,2132.0,9457.0,-9605.0,5.0,2.0,2.0,6.0,18.0,14.0,-51.0,-39.0,2.0452823638916016
425,-2319.0,1271.0,-3445.0,0.0,9066.0,2132.0,9457.0,-9605.0,2.0,-4.0,-10.0,-8.0,-1.0,6.0,17.0,-7.0,2.0486502647399902
426,-1873.0,818.0,-3212.0,0.0,8681.0,1700.0,9800.0,-9702.0,2.0,-4.0,-10.0,-8.0,-1.0,6.0,17.0,-7.0,2.0563716888427734
427,-1873.0,818.0,-3212.0,0.0,8681.0,1700.0,9800.0,-9702.0,5.0,5.0,5.0,25.0,85.0,52.0,25.0,32.0,2.0646677017211914
428,-1873.0,818.0,-3212.0,0.0,8681.0,1700.0,9800.0,-9702.0,-2.0,-2.0,5.0,9.0,6.0,-6.0,-20.0,-1.0,2.066464900970459
429,-974.0,912.0,-2346.0,0.0,8350.0,1453.0,10029.0,-9799.0,-2.0,-2.0,5.0,9.0,6.0,-6.0,-20.0,-1.0,2.0797035694122314
430,-974.0,912.0,-2346.0,0.0,8350.0,1453.0,10029.0,-9799.0,-5.0,-5.0,-3.0,-6.0,-13.0,-28.0,-19.0,-7.0,2.081594228744507
431,-974.0,912.0,-2346.0,0.0,8350.0,1453.0,10029.0,-9799.0,6.0,6.0,5.0,12.0,35.0,55.0,53.0,29.0,2.0833866596221924
432,-452.0,1339.0,-1033.0,0.0,8099.0,1442.0,10214.0,-9820.0,6.0,6.0,5.0,12.0,35.0,55.0,53.0,29.0,2.103569984436035
433,-452.0,1339.0,-1033.0,0.0,8099.0,1442.0,10214.0,-9820.0,-9.0,-9.0,-7.0,-19.0,-46.0,-62.0,-55.0,-36.0,2.107022285461426
434,-452.0,1339.0,-1033.0,0.0,8099.0,1442.0,10214.0,-9820.0,2.0,6.0,7.0,-1.0,-14.0,-4.0,-22.0,-13.0,2.1102471351623535
435,-102.0,1086.0,73.0,0.0,7987.0,1557.0,10319.0,-9785.0,2.0,6.0,7.0,-1.0,-14.0,-4.0,-22.0,-13.0,2.116685628890991
436,-102.0,1086.0,73.0,0.0,7987.0,1557.0,10319.0,-9785.0,-7.0,-3.0,-4.0,-10.0,-55.0,-44.0,2.0,-5.0,2.124518632888794
437,-102.0,1086.0,73.0,0.0,7987.0,1557.0,10319.0,-9785.0,4.0,5.0,2.0,7.0,17.0,14.0,13.0,13.0,2.126373052597046
438,887.0,589.0,936.0,0.0,8004.0,1803.0,10258.0,-9792.0,4.0,5.0,2.0,7.0,17.0,14.0,13.0,13.0,2.140526294708252
439,887.0,589.0,936.0,0.0,8004.0,1803.0,10258.0,-9792.0,-14.0,-11.0,-7.0,-30.0,-61.0,-95.0,-73.0,-46.0,2.1438467502593994
440,887.0,589.0,936.0,0.0,8004.0,1803.0,10258.0,-9792.0,-7.0,-2.0,0.0,-4.0,5.0,3.0,-26.0,-35.0,2.147412061691284
441,1208.0,197.0,1271.0,0.0,7946.0,1981.0,10276.0,-9785.0,-7.0,-2.0,0.0,-4.0,5.0,3.0,-26.0,-35.0,2.1646029949188232
442,1208.0,197.0,1271.0,0.0,7946.0,1981.0,10276.0,-9785.0,7.0,3.0,6.0,17.0,43.0,45.0,63.0,41.0,2.1677231788635254
443,1208.0,197.0,1271.0,0.0,7946.0,1981.0,10276.0,-9785.0,1.0,-2.0,6.0,11.0,56.0,6.0,1.0,-1.0,2.170656442642212
444,1515.0,-146.0,1834.0,0.0,8099.0,2288.0,10086.0,-9791.0,1.0,-2.0,6.0,11.0,56.0,6.0,1.0,-1.0,2.1764471530914307
445,1515.0,-146.0,1834.0,0.0,8099.0,2288.0,10086.0,-9791.0,-7.0,-3.0,8.0,0.0,8.0,21.0,23.0,0.0,2.1845510005950928
446,1515.0,-146.0,1834.0,0.0,8099.0,2288.0,10086.0,-9791.0,-2.0,1.0,5.0,-5.0,-8.0,0.0,-4.0,3.0,2.1863927841186523
447,1845.0,-598.0,2664.0,0.0,8376.0,2667.0,9788.0,-9764.0,-2.0,1.0,5.0,-5.0,-8.0,0.0,-4.0,3.0,2.20027494430542
448,1845.0,-598.0,2664.0,0.0,8376.0,2667.0,9788.0,-9764.0,5.0,10.0,8.0,11.0,11.0,23.0,12.0,12.0,2.2037911415100098
449,1845.0,-598.0,2664.0,0.0,8376.0,2667.0,9788.0,-9764.0,14.0,14.0,9.0,13.0,6.0,4.0,18.0,22.0,2.2073564529418945
450,2161.0,-1139.0,2981.0,0.0,8725.0,3051.0,9385.0,-9742.0,14.0,14.0,9.0,13.0,6.0,4.0,18.0,22.0,2.223597288131714
451,2161.0,-1139.0,2981.0,0.0,8725.0,3051.0,9385.0,-9742.0,1.0,3.0,8.0,26.0,-1.0,15.0,14.0,6.0,2.227785348892212
452,2161.0,-1139.0,2981.0,0.0,8725.0,3051.0,9385.0,-9742.0,-5.0,-8.0,-22.0,-17.0,-10.0,-13.0,-3.0,-5.0,2.2313055992126465
453,2404.0,-1415.0,3628.0,0.0,9145.0,3492.0,8890.0,-9673.0,-5.0,-8.0,-22.0,-17.0,-10.0,-13.0,-3.0,-5.0,2.236640453338623
454,2404.0,-1415.0,3628.0,0.0,9145.0,3492.0,8890.0,-9673.0,7.0,3.0,18.0,20.0,7.0,12.0,12.0,10.0,2.2462332248687744
455,2404.0,-1415.0,3628.0,0.0,9145.0,3492.0,8890.0,-9673.0,-7.0,-9.0,-12.0,-26.0,-17.0,-12.0,-12.0,-8.0,2.248206377029419
456,2720.0,-1497.0,4238.0,0.0,9603.0,4004.0,8300.0,-9554.0,-7.0,-9.0,-12.0,-26.0,-17.0,-12.0,-12.0,-8.0,2.267202138900757
457,2720.0,-1497.0,4238.0,0.0,9603.0,4004.0,8300.0,-9554.0,8.0,14.0,-10.0,-6.0,44.0,24.0,17.0,13.0,2.2705607414245605
458,2720.0,-1497.0,4238.0,0.0,9603.0,4004.0,8300.0,-9554.0,0.0,4.0,-2.0,23.0,-41.0,-18.0,-11.0,-4.0,2.2752974033355713
459,3002.0,-1628.0,4627.0,0.0,10070.0,4559.0,7617.0,-9392.0,0.0,4.0,-2.0,23.0,-41.0,-18.0,-11.0,-4.0,2.2902021408081055
460,3002.0,-1628.0,4627.0,0.0,10070.0,4559.0,7617.0,-9392.0,2.0,8.0,6.0,8.0,2.0,7.0,6.0,4.0,2.2921314239501953
461,3002.0,-1628.0,4627.0,0.0,10070.0,4559.0,7617.0,-9392.0,-10.0,-19.0,-1.0,49.0,66.0,30.0,29.0,2.0,2.2939212322235107
462,2761.0,-1711.0,4869.0,0.0,10548.0,5085.0,6897.0,-9151.0,-10.0,-19.0,-1.0,49.0,66.0,30.0,29.0,2.0,2.2957394123077393
463,2761.0,-1711.0,4869.0,0.0,10548.0,5085.0,6897.0,-9151.0,-10.0,-10.0,13.0,41.0,-10.0,-53.0,-54.0,-42.0,2.3046140670776367
464,2761.0,-1711.0,4869.0,0.0,10548.0,5085.0,6897.0,-9151.0,-17.0,-23.0,-33.0,-78.0,-25.0,-21.0,-23.0,-27.0,2.3064563274383545
465,2709.0,-1677.0,5058.0,0.0,11005.0,5604.0,6140.0,-8843.0,-17.0,-23.0,-33.0,-78.0,-25.0,-21.0,-23.0,-27.0,2.3210647106170654
466,2709.0,-1677.0,5058.0,0.0,11005.0,5604.0,6140.0,-8843.0,14.0,37.0,14.0,45.0,87.0,27.0,31.0,33.0,2.323216438293457
467,2709.0,-1677.0,5058.0,0.0,11005.0,5604.0,6140.0,-8843.0,-19.0,-28.0,5.0,32.0,-8.0,-25.0,-14.0,-12.0,2.3264613151550293
468,2245.0,-1725.0,5257.0,0.0,11474.0,6049.0,5369.0,-8447.0,-19.0,-28.0,5.0,32.0,-8.0,-25.0,-14.0,-12.0,2.344116687774658
469,2245.0,-1725.0,5257.0,0.0,11474.0,6049.0,5369.0,-8447.0,21.0,13.0,-4.0,19.0,95.0,96.0,56.0,39.0,2.348452091217041
470,2245.0,-1725.0,5257.0,0.0,11474.0,6049.0,5369.0,-8447.0,3.0,16.0,32.0,42.0,-28.0,-16.0,-30.0,-26.0,2.352097272872925
471,2585.0,-1733.0,5365.0,0.0,11887.0,6512.0,4522.0,-8017.0,3.0,16.0,32.0,42.0,-28.0,-16.0,-30.0,-26.0,2.356672525405884
472,2585.0,-1733.0,5365.0,0.0,11887.0,6512.0,4522.0,-8017.0,6.0,-45.0,10.0,-10.0,55.0,28.0,98.0,85.0,2.3647103309631348
473,2585.0,-1733.0,5365.0,0.0,11887.0,6512.0,4522.0,-8017.0,-51.0,-37.0,32.0,-58.0,-85.0,-95.0,-86.0,-80.0,2.3668324947357178
474,3208.0,-1643.0,5549.0,0.0,12216.0,7040.0,3577.0,-7539.0,-51.0,-37.0,32.0,-58.0,-85.0,-95.0,-86.0,-80.0,2.379757881164551
475,3208.0,-1643.0,5549.0,0.0,12216.0,7040.0,3577.0,-7539.0,-1.0,3.0,24.0,-16.0,-33.0,20.0,-8.0,-18.0,2.381669759750366
476,3208.0,-1643.0,5549.0,0.0,12216.0,7040.0,3577.0,-7539.0,3.0,-5.0,42.0,56.0,116.0,38.0,-66.0,-13.0,2.38594913482666
477,3761.0,-1682.0,5736.0,0.0,12453.0,7600.0,2539.0,-7010.0,3.0,-5.0,42.0,56.0,116.0,38.0,-66.0,-13.0,2.403076410293579
478,3761.0,-1682.0,5736.0,0.0,12453.0,7600.0,2539.0,-7010.0,-22.0,-46.0,14.0,-33.0,-115.0,-62.0,-66.0,-23.0,2.40497088432312
479,3761.0,-1682.0,5736.0,0.0,12453.0,7600.0,2539.0,-7010.0,59.0,78.0,45.0,26.0,103.0,123.0,42.0,72.0,2.406782627105713
480,3604.0,-1405.0,5772.0,0.0,12620.0,8109.0,1540.0,-6405.0,59.0,78.0,45.0,26.0,103.0,123.0,42.0,72.0,2.4279327392578125
481,3604.0,-1405.0,5772.0,0.0,12620.0,8109.0,1540.0,-6405.0,-27.0,-28.0,-17.0,-32.0,-77.0,-32.0,-35.0,-20.0,2.4319796562194824
482,3604.0,-1405.0,5772.0,0.0,12620.0,8109.0,1540.0,-6405.0,0.0,-5.0,-3.0,-22.0,-91.0,-55.0,69.0,45.0,2.435590982437134
483,3213.0,-1291.0,6148.0,0.0,12764.0,8532.0,554.0,-5691.0,0.0,-5.0,-3.0,-22.0,-91.0,-55.0,69.0,45.0,2.439161539077759
484,3213.0,-1291.0,6148.0,0.0,12764.0,8532.0,554.0,-5691.0,38.0,10.0,10.0,31.0,54.0,21.0,30.0,17.0,2.4411351680755615
485,3213.0,-1291.0,6148.0,0.0,12764.0,8532.0,554.0,-5691.0,-14.0,-45.0,18.0,48.0,82.0,121.0,127.0,87.0,2.446634531021118
486,2841.0,-932.0,5949.0,0.0,12841.0,8882.0,-305.0,-4953.0,-14.0,-45.0,18.0,48.0,82.0,121.0,127.0,87.0,2.463150978088379
487,2841.0,-932.0,5949.0,0.0,12841.0,8882.0,-305.0,-4953.0,-86.0,-67.0,-56.0,-81.0,-113.0,-92.0,-56.0,-85.0,2.4667043685913086
488,2841.0,-932.0,5949.0,0.0,12841.0,8882.0,-305.0,-4953.0,-7.0,-25.0,54.0,50.0,40.0,-41.0,-28.0,-70.0,2.4701223373413086
489,1957.0,-886.0,5694.0,0.0,12928.0,9070.0,-1084.0,-4226.0,-7.0,-25.0,54.0,50.0,40.0,-41.0,-28.0,-70.0,2.48671293258667
490,1957.0,-886.0,5694.0,0.0,12928.0,9070.0,-1084.0,-4226.0,68.0,-25.0,-117.0,51.0,79.0,79.0,91.0,110.0,2.4918062686920166
491,1957.0,-886.0,5694.0,0.0,12928.0,9070.0,-1084.0,-4226.0,-12.0,-21.0,-46.0,-61.0,-91.0,-48.0,-32.0,-15.0,2.4950950145721436
492,2168.0,-919.0,5199.0,0.0,12917.0,9254.0,-1825.0,-3551.0,-12.0,-21.0,-46.0,-61.0,-91.0,-48.0,-32.0,-15.0,2.4991629123687744
493,2168.0,-919.0,5199.0,0.0,12917.0,9254.0,-1825.0,-3551.0,-33.0,27.0,20.0,-24.0,-31.0,-23.0,-48.0,-38.0,2.5010886192321777
494,2168.0,-919.0,5199.0,0.0,12917.0,9254.0,-1825.0,-3551.0,22.0,-34.0,-53.0,-27.0,-20.0,-17.0,-15.0,23.0,2.5063388347625732
495,877.0,-1739.0,4639.0,0.0,12954.0,9204.0,-2568.0,-3050.0,22.0,-34.0,-53.0,-27.0,-20.0,-17.0,-15.0,23.0,2.522564172744751
496,877.0,-1739.0,4639.0,0.0,12954.0,9204.0,-2568.0,-3050.0,13.0,75.0,-1.0,24.0,-14.0,21.0,13.0,13.0,2.5254416465759277
497,877.0,-1739.0,4639.0,0.0,12954.0,9204.0,-2568.0,-3050.0,-51.0,-57.0,17.0,9.0,69.0,10.0,-32.0,-54.0,2.5296103954315186
498,709.0,-2172.0,3398.0,0.0,12922.0,9128.0,-3237.0,-2766.0,-51.0,-57.0,17.0,9.0,69.0,10.0,-32.0,-54.0,2.5460617542266846
499,709.0,-2172.0,3398.0,0.0,12922.0,9128.0,-3237.0,-2766.0,17.0,-66.0,-4.0,-30.0,67.0,-37.0,-113.0,-41.0,2.5508406162261963
