,Gyro 0,Gyro 1,Gyro 2,Label,Orientation 0,Orientation 1,Orientation 2,Orientation 3,Sensor 0,Sensor 1,Sensor 2,Sensor 3,Sensor 4,Sensor 5,Sensor 6,Sensor 7,Timestamp
0,14.0,11.0,23.0,0.0,10306.0,11438.0,-4503.0,3332.0,-3.0,-8.0,-6.0,-1.0,-4.0,-1.0,-13.0,0.0,1.430511474609375e-06
1,14.0,11.0,23.0,0.0,10306.0,11438.0,-4503.0,3332.0,0.0,-1.0,-2.0,-1.0,1.0,4.0,-7.0,0.0,0.0021982192993164062
2,14.0,11.0,23.0,0.0,10306.0,11438.0,-4503.0,3332.0,1.0,12.0,5.0,2.0,3.0,4.0,-12.0,1.0,0.004118204116821289
3,2.0,13.0,35.0,0.0,10306.0,11437.0,-4503.0,3335.0,1.0,12.0,5.0,2.0,3.0,4.0,-12.0,1.0,0.0067369937896728516
4,2.0,13.0,35.0,0.0,10306.0,11437.0,-4503.0,3335.0,-2.0,-5.0,1.0,-2.0,-5.0,-1.0,15.0,-2.0,0.009572982788085938
5,-7.0,3.0,51.0,0.0,10305.0,11435.0,-4508.0,3339.0,-2.0,-5.0,1.0,-2.0,-5.0,-1.0,15.0,-2.0,0.01253819465637207
6,-7.0,3.0,51.0,0.0,10305.0,11435.0,-4508.0,3339.0,-3.0,-5.0,-5.0,-2.0,1.0,1.0,-9.0,0.0,0.014398336410522461
7,-7.0,3.0,51.0,0.0,10305.0,11435.0,-4508.0,3339.0,2.0,19.0,6.0,0.0,4.0,3.0,-8.0,-1.0,0.016153812408447266
8,3.0,4.0,43.0,0.0,10305.0,11433.0,-4510.0,3342.0,2.0,19.0,6.0,0.0,4.0,3.0,-8.0,-1.0,0.017929792404174805
9,3.0,4.0,43.0,0.0,10305.0,11433.0,-4510.0,3342.0,-1.0,-6.0,-2.0,-4.0,-4.0,2.0,10.0,1.0,0.02025604248046875
10,3.0,4.0,43.0,0.0,10305.0,11433.0,-4510.0,3342.0,1.0,2.0,-2.0,-5.0,-3.0,-1.0,-7.0,1.0,0.022616147994995117
11,5.0,-3.0,52.0,0.0,10302.0,11433.0,-4515.0,3345.0,1.0,2.0,-2.0,-5.0,-3.0,-1.0,-7.0,1.0,0.0249631404876709
12,5.0,-3.0,52.0,0.0,10302.0,11433.0,-4515.0,3345.0,2.0,4.0,9.0,3.0,2.0,4.0,3.0,7.0,0.026834487915039062
13,5.0,-3.0,52.0,0.0,10302.0,11433.0,-4515.0,3345.0,0.0,-8.0,-6.0,0.0,-4.0,-6.0,-24.0,-4.0,0.028595447540283203
14,2.0,0.0,47.0,0.0,10302.0,11432.0,-4517.0,3347.0,0.0,-8.0,-6.0,0.0,-4.0,-6.0,-24.0,-4.0,0.03034663200378418
15,2.0,0.0,47.0,0.0,10302.0,11432.0,-4517.0,3347.0,-1.0,-6.0,1.0,2.0,-2.0,-5.0,-4.0,-1.0,0.032198429107666016
16,2.0,0.0,47.0,0.0,10302.0,11432.0,-4517.0,3347.0,0.0,-1.0,1.0,-1.0,-1.0,-2.0,-38.0,-3.0,0.03412294387817383
17,-22.0,-2.0,52.0,0.0,10304.0,11427.0,-4522.0,3349.0,0.0,-1.0,1.0,-1.0,-1.0,-2.0,-38.0,-3.0,0.0358881950378418
18,-22.0,-2.0,52.0,0.0,10304.0,11427.0,-4522.0,3349.0,-5.0,-6.0,-8.0,-1.0,-1.0,0.0,13.0,-6.0,0.03771066665649414
19,-22.0,-2.0,52.0,0.0,10304.0,11427.0,-4522.0,3349.0,-3.0,-4.0,-4.0,-2.0,0.0,-3.0,-15.0,-2.0,0.03999972343444824
20,-23.0,-10.0,45.0,0.0,10306.0,11424.0,-4526.0,3349.0,-3.0,-4.0,-4.0,-2.0,0.0,-3.0,-15.0,-2.0,0.042685747146606445
21,-23.0,-10.0,45.0,0.0,10306.0,11424.0,-4526.0,3349.0,3.0,12.0,13.0,1.0,2.0,2.0,-5.0,5.0,0.0445556640625
22,-23.0,-10.0,45.0,0.0,10306.0,11424.0,-4526.0,3349.0,-3.0,-5.0,-1.0,-2.0,-1.0,0.0,0.0,-2.0,0.046324968338012695
23,-49.0,-6.0,65.0,0.0,10309.0,11418.0,-4534.0,3348.0,-3.0,-5.0,-1.0,-2.0,-1.0,0.0,0.0,-2.0,0.048088788986206055
24,-49.0,-6.0,65.0,0.0,10309.0,11418.0,-4534.0,3348.0,1.0,1.0,0.0,1.0,0.0,-1.0,-3.0,1.0,0.04993486404418945
25,-49.0,-6.0,65.0,0.0,10309.0,11418.0,-4534.0,3348.0,-2.0,-6.0,-8.0,-2.0,0.0,1.0,-17.0,-5.0,0.052930593490600586
26,-55.0,1.0,58.0,0.0,10314.0,11410.0,-4541.0,3350.0,-2.0,-6.0,-8.0,-2.0,0.0,1.0,-17.0,-5.0,0.05503559112548828
27,-55.0,1.0,58.0,0.0,10314.0,11410.0,-4541.0,3350.0,2.0,2.0,-9.0,-4.0,-4.0,1.0,5.0,1.0,0.05844521522521973
28,-55.0,1.0,58.0,0.0,10314.0,11410.0,-4541.0,3350.0,-1.0,0.0,7.0,2.0,-5.0,-6.0,-9.0,-1.0,0.060587406158447266
29,2.0,4.0,36.0,0.0,10313.0,11409.0,-4544.0,3354.0,-1.0,0.0,7.0,2.0,-5.0,-6.0,-9.0,-1.0,0.062371253967285156
30,2.0,4.0,36.0,0.0,10313.0,11409.0,-4544.0,3354.0,-4.0,-5.0,-8.0,-3.0,-3.0,-3.0,-5.0,-9.0,0.06421446800231934
31,2.0,4.0,36.0,0.0,10313.0,11409.0,-4544.0,3354.0,-3.0,-13.0,-3.0,-3.0,2.0,2.0,7.0,0.0,0.06600117683410645
32,35.0,14.0,12.0,0.0,10308.0,11414.0,-4541.0,3355.0,-3.0,-13.0,-3.0,-3.0,2.0,2.0,7.0,0.0,0.06777811050415039
33,35.0,14.0,12.0,0.0,10308.0,11414.0,-4541.0,3355.0,0.0,-4.0,11.0,3.0,2.0,-1.0,1.0,-6.0,0.07000303268432617
34,35.0,14.0,12.0,0.0,10308.0,11414.0,-4541.0,3355.0,0.0,-10.0,-5.0,1.0,3.0,0.0,-12.0,-2.0,0.07177352905273438
35,7.0,15.0,14.0,0.0,10308.0,11415.0,-4540.0,3353.0,0.0,-10.0,-5.0,1.0,3.0,0.0,-12.0,-2.0,0.07355809211730957
36,7.0,15.0,14.0,0.0,10308.0,11415.0,-4540.0,3353.0,-1.0,-5.0,-3.0,0.0,-1.0,-1.0,5.0,1.0,0.07539916038513184
37,7.0,15.0,14.0,0.0,10308.0,11415.0,-4540.0,3353.0,0.0,-1.0,0.0,1.0,-1.0,-4.0,-7.0,2.0,0.07718873023986816
38,-12.0,7.0,5.0,0.0,10307.0,11416.0,-4539.0,3352.0,0.0,-1.0,0.0,1.0,-1.0,-4.0,-7.0,2.0,0.07896256446838379
39,-12.0,7.0,5.0,0.0,10307.0,11416.0,-4539.0,3352.0,-3.0,-7.0,-6.0,-3.0,-3.0,-4.0,-3.0,-2.0,0.08077669143676758
40,-12.0,7.0,5.0,0.0,10307.0,11416.0,-4539.0,3352.0,3.0,13.0,-1.0,-2.0,3.0,7.0,15.0,3.0,0.08308744430541992
41,0.0,9.0,5.0,0.0,10307.0,11417.0,-4539.0,3352.0,3.0,13.0,-1.0,-2.0,3.0,7.0,15.0,3.0,0.08547139167785645
42,0.0,9.0,5.0,0.0,10307.0,11417.0,-4539.0,3352.0,-5.0,-4.0,-2.0,-4.0,-6.0,-8.0,-9.0,-10.0,0.08738017082214355
43,0.0,9.0,5.0,0.0,10307.0,11417.0,-4539.0,3352.0,-1.0,-4.0,-5.0,-1.0,0.0,-1.0,-7.0,0.0,0.08949613571166992
44,22.0,3.0,-9.0,0.0,10304.0,11422.0,-4535.0,3349.0,-1.0,-4.0,-5.0,-1.0,0.0,-1.0,-7.0,0.0,0.09243106842041016
45,22.0,3.0,-9.0,0.0,10304.0,11422.0,-4535.0,3349.0,3.0,9.0,5.0,0.0,3.0,4.0,10.0,6.0,0.0943303108215332
46,22.0,3.0,-9.0,0.0,10304.0,11422.0,-4535.0,3349.0,-1.0,5.0,10.0,4.0,0.0,-3.0,-8.0,-1.0,0.0961005687713623
47,14.0,-3.0,-11.0,0.0,10304.0,11423.0,-4534.0,3348.0,-1.0,5.0,10.0,4.0,0.0,-3.0,-8.0,-1.0,0.09795570373535156
48,14.0,-3.0,-11.0,0.0,10304.0,11423.0,-4534.0,3348.0,-1.0,1.0,-1.0,-2.0,-1.0,1.0,-3.0,0.0,0.09984469413757324
49,14.0,-3.0,-11.0,0.0,10304.0,11423.0,-4534.0,3348.0,-1.0,-2.0,-7.0,-3.0,0.0,0.0,11.0,2.0,0.10159635543823242
50,-20.0,-7.0,6.0,0.0,10304.0,11424.0,-4535.0,3343.0,-1.0,-2.0,-7.0,-3.0,0.0,0.0,11.0,2.0,0.1036684513092041
51,-20.0,-7.0,6.0,0.0,10304.0,11424.0,-4535.0,3343.0,0.0,1.0,2.0,0.0,0.0,1.0,-1.0,0.0,0.10550045967102051
52,-20.0,-7.0,6.0,0.0,10304.0,11424.0,-4535.0,3343.0,1.0,-1.0,-1.0,-2.0,-5.0,-2.0,-8.0,3.0,0.10734176635742188
53,-26.0,-14.0,6.0,0.0,10306.0,11422.0,-4538.0,3340.0,1.0,-1.0,-1.0,-2.0,-5.0,-2.0,-8.0,3.0,0.10910773277282715
54,-26.0,-14.0,6.0,0.0,10306.0,11422.0,-4538.0,3340.0,1.0,1.0,-8.0,-1.0,0.0,4.0,6.0,1.0,0.11101317405700684
55,-26.0,-14.0,6.0,0.0,10306.0,11422.0,-4538.0,3340.0,2.0,7.0,-3.0,-1.0,-1.0,8.0,-9.0,-3.0,0.11286354064941406
56,-5.0,-13.0,9.0,0.0,10305.0,11422.0,-4538.0,3339.0,2.0,7.0,-3.0,-1.0,-1.0,8.0,-9.0,-3.0,0.11552262306213379
57,-5.0,-13.0,9.0,0.0,10305.0,11422.0,-4538.0,3339.0,-5.0,-5.0,-2.0,-3.0,-4.0,-2.0,-6.0,-4.0,0.11768317222595215
58,-5.0,-13.0,9.0,0.0,10305.0,11422.0,-4538.0,3339.0,-2.0,-12.0,-4.0,0.0,0.0,-2.0,10.0,0.0,0.1194911003112793
59,6.0,-12.0,7.0,0.0,10305.0,11423.0,-4538.0,3339.0,-2.0,-12.0,-4.0,0.0,0.0,-2.0,10.0,0.0,0.12127566337585449
60,6.0,-12.0,7.0,0.0,10305.0,11423.0,-4538.0,3339.0,0.0,-2.0,-4.0,2.0,5.0,6.0,-3.0,2.0,0.12401819229125977
61,6.0,-12.0,7.0,0.0,10305.0,11423.0,-4538.0,3339.0,-1.0,-3.0,-9.0,-3.0,3.0,-1.0,-7.0,0.0,0.12609219551086426
62,-5.0,-17.0,22.0,0.0,10303.0,11423.0,-4542.0,3338.0,-1.0,-3.0,-9.0,-3.0,3.0,-1.0,-7.0,0.0,0.12784767150878906
63,-5.0,-17.0,22.0,0.0,10303.0,11423.0,-4542.0,3338.0,0.0,-5.0,-7.0,-1.0,1.0,-2.0,4.0,2.0,0.12968087196350098
64,-5.0,-17.0,22.0,0.0,10303.0,11423.0,-4542.0,3338.0,1.0,0.0,2.0,5.0,1.0,1.0,-5.0,1.0,0.1314241886138916
65,-13.0,-17.0,15.0,0.0,10303.0,11423.0,-4545.0,3335.0,1.0,0.0,2.0,5.0,1.0,1.0,-5.0,1.0,0.13317131996154785
66,-13.0,-17.0,15.0,0.0,10303.0,11423.0,-4545.0,3335.0,-1.0,7.0,8.0,-2.0,-6.0,-4.0,-5.0,-1.0,0.13499784469604492
67,-13.0,-17.0,15.0,0.0,10303.0,11423.0,-4545.0,3335.0,-3.0,0.0,1.0,-4.0,-4.0,-3.0,15.0,-2.0,0.13705039024353027
68,-7.0,-19.0,15.0,0.0,10302.0,11422.0,-4550.0,3334.0,-3.0,0.0,1.0,-4.0,-4.0,-3.0,15.0,-2.0,0.13891863822937012
69,-7.0,-19.0,15.0,0.0,10302.0,11422.0,-4550.0,3334.0,1.0,5.0,6.0,2.0,1.0,3.0,-2.0,0.0,0.14073991775512695
70,-7.0,-19.0,15.0,0.0,10302.0,11422.0,-4550.0,3334.0,1.0,4.0,10.0,1.0,-6.0,-4.0,-5.0,1.0,0.14249277114868164
71,-3.0,-11.0,16.0,0.0,10300.0,11423.0,-4552.0,3332.0,1.0,4.0,10.0,1.0,-6.0,-4.0,-5.0,1.0,0.14494800567626953
72,-3.0,-11.0,16.0,0.0,10300.0,11423.0,-4552.0,3332.0,1.0,14.0,12.0,2.0,0.0,-4.0,1.0,-2.0,0.14735054969787598
73,-3.0,-11.0,16.0,0.0,10300.0,11423.0,-4552.0,3332.0,6.0,12.0,3.0,2.0,-4.0,-4.0,-9.0,1.0,0.14916229248046875
74,-13.0,-8.0,18.0,0.0,10301.0,11423.0,-4554.0,3330.0,6.0,12.0,3.0,2.0,-4.0,-4.0,-9.0,1.0,0.15093731880187988
75,-13.0,-8.0,18.0,0.0,10301.0,11423.0,-4554.0,3330.0,-1.0,-8.0,-10.0,-1.0,-2.0,-3.0,0.0,-1.0,0.15278363227844238
76,-13.0,-8.0,18.0,0.0,10301.0,11423.0,-4554.0,3330.0,-4.0,-3.0,10.0,0.0,-1.0,-6.0,15.0,-1.0,0.15470194816589355
77,-9.0,-11.0,13.0,0.0,10301.0,11423.0,-4554.0,3330.0,-4.0,-3.0,10.0,0.0,-1.0,-6.0,15.0,-1.0,0.15746092796325684
78,-9.0,-11.0,13.0,0.0,10301.0,11423.0,-4554.0,3330.0,0.0,-2.0,0.0,0.0,-1.0,-2.0,-6.0,0.0,0.159684419631958
79,-9.0,-11.0,13.0,0.0,10301.0,11423.0,-4554.0,3330.0,-5.0,-16.0,-12.0,0.0,1.0,0.0,-8.0,-4.0,0.16150736808776855
80,2.0,-5.0,11.0,0.0,10301.0,11423.0,-4553.0,3330.0,-5.0,-16.0,-12.0,0.0,1.0,0.0,-8.0,-4.0,0.1632554531097412
81,2.0,-5.0,11.0,0.0,10301.0,11423.0,-4553.0,3330.0,0.0,-8.0,-1.0,2.0,1.0,2.0,3.0,3.0,0.16514062881469727
82,2.0,-5.0,11.0,0.0,10301.0,11423.0,-4553.0,3330.0,-2.0,-3.0,-4.0,-2.0,-6.0,-2.0,-12.0,0.0,0.16739463806152344
83,13.0,-4.0,13.0,0.0,10301.0,11423.0,-4553.0,3329.0,-2.0,-3.0,-4.0,-2.0,-6.0,-2.0,-12.0,0.0,0.16954874992370605
84,13.0,-4.0,13.0,0.0,10301.0,11423.0,-4553.0,3329.0,-1.0,-1.0,-7.0,-2.0,-1.0,1.0,0.0,0.0,0.17140555381774902
85,13.0,-4.0,13.0,0.0,10301.0,11423.0,-4553.0,3329.0,-1.0,1.0,1.0,0.0,3.0,0.0,15.0,1.0,0.1731703281402588
86,-13.0,-3.0,6.0,0.0,10301.0,11424.0,-4553.0,3328.0,-1.0,1.0,1.0,0.0,3.0,0.0,15.0,1.0,0.17566180229187012
87,-13.0,-3.0,6.0,0.0,10301.0,11424.0,-4553.0,3328.0,-3.0,-9.0,-5.0,-3.0,-2.0,-6.0,-9.0,-1.0,0.17812657356262207
88,-13.0,-3.0,6.0,0.0,10301.0,11424.0,-4553.0,3328.0,-2.0,1.0,-2.0,-3.0,1.0,1.0,-4.0,-3.0,0.17992496490478516
89,-23.0,2.0,8.0,0.0,10303.0,11423.0,-4553.0,3326.0,-2.0,1.0,-2.0,-3.0,1.0,1.0,-4.0,-3.0,0.18169832229614258
90,-23.0,2.0,8.0,0.0,10303.0,11423.0,-4553.0,3326.0,-1.0,-2.0,-4.0,-4.0,-1.0,-2.0,0.0,-5.0,0.1835339069366455
91,-23.0,2.0,8.0,0.0,10303.0,11423.0,-4553.0,3326.0,2.0,2.0,4.0,2.0,2.0,3.0,-7.0,4.0,0.18535852432250977
92,-16.0,-7.0,9.0,0.0,10302.0,11423.0,-4553.0,3326.0,2.0,2.0,4.0,2.0,2.0,3.0,-7.0,4.0,0.18712425231933594
93,-16.0,-7.0,9.0,0.0,10302.0,11423.0,-4553.0,3326.0,-1.0,-4.0,-2.0,-2.0,-3.0,-4.0,-1.0,-4.0,0.18902277946472168
94,-16.0,-7.0,9.0,0.0,10302.0,11423.0,-4553.0,3326.0,-3.0,-4.0,-7.0,0.0,0.0,2.0,13.0,-3.0,0.19197726249694824
95,-7.0,-11.0,-2.0,0.0,10302.0,11423.0,-4553.0,3325.0,-3.0,-4.0,-7.0,0.0,0.0,2.0,13.0,-3.0,0.1938917636871338
96,-7.0,-11.0,-2.0,0.0,10302.0,11423.0,-4553.0,3325.0,-2.0,2.0,-7.0,-2.0,1.0,-2.0,-6.0,-1.0,0.19573760032653809
97,-7.0,-11.0,-2.0,0.0,10302.0,11423.0,-4553.0,3325.0,-3.0,-1.0,-4.0,-2.0,-2.0,-1.0,-6.0,-2.0,0.1975400447845459
98,-6.0,-15.0,-2.0,0.0,10302.0,11424.0,-4553.0,3325.0,-3.0,-1.0,-4.0,-2.0,-2.0,-1.0,-6.0,-2.0,0.1993696689605713
99,-6.0,-15.0,-2.0,0.0,10302.0,11424.0,-4553.0,3325.0,1.0,9.0,6.0,0.0,-3.0,1.0,-3.0,-5.0,0.20121502876281738
100,-6.0,-15.0,-2.0,0.0,10302.0,11424.0,-4553.0,3325.0,3.0,12.0,3.0,-3.0,-2.0,0.0,-9.0,4.0,0.20325589179992676
101,8.0,-2.0,-1.0,0.0,10302.0,11424.0,-4552.0,3324.0,3.0,12.0,3.0,-3.0,-2.0,0.0,-9.0,4.0,0.2051401138305664
102,8.0,-2.0,-1.0,0.0,10302.0,11424.0,-4552.0,3324.0,-1.0,2.0,4.0,1.0,2.0,-1.0,-2.0,-3.0,0.20757293701171875
103,8.0,-2.0,-1.0,0.0,10302.0,11424.0,-4552.0,3324.0,-7.0,-4.0,4.0,-1.0,1.0,0.0,6.0,-8.0,0.2096872329711914
104,8.0,-6.0,-12.0,0.0,10302.0,11424.0,-4552.0,3324.0,-7.0,-4.0,4.0,-1.0,1.0,0.0,6.0,-8.0,0.21146488189697266
105,8.0,-6.0,-12.0,0.0,10302.0,11424.0,-4552.0,3324.0,-1.0,-5.0,-11.0,-2.0,1.0,2.0,-4.0,0.0,0.21329331398010254
106,8.0,-6.0,-12.0,0.0,10302.0,11424.0,-4552.0,3324.0,0.0,6.0,16.0,3.0,-3.0,-3.0,-4.0,0.0,0.2150411605834961
107,2.0,-2.0,-14.0,0.0,10302.0,11425.0,-4552.0,3323.0,0.0,6.0,16.0,3.0,-3.0,-3.0,-4.0,0.0,0.21677899360656738
108,2.0,-2.0,-14.0,0.0,10302.0,11425.0,-4552.0,3323.0,2.0,-2.0,-3.0,1.0,1.0,3.0,4.0,4.0,0.2186286449432373
109,2.0,-2.0,-14.0,0.0,10302.0,11425.0,-4552.0,3323.0,0.0,-5.0,-6.0,1.0,-1.0,-2.0,-11.0,-2.0,0.22040486335754395
110,-3.0,4.0,-8.0,0.0,10301.0,11426.0,-4551.0,3322.0,0.0,-5.0,-6.0,1.0,-1.0,-2.0,-11.0,-2.0,0.22223496437072754
111,-3.0,4.0,-8.0,0.0,10301.0,11426.0,-4551.0,3322.0,-1.0,-6.0,-1.0,1.0,-3.0,-5.0,-2.0,-2.0,0.22547245025634766
112,-3.0,4.0,-8.0,0.0,10301.0,11426.0,-4551.0,3322.0,0.0,4.0,0.0,-1.0,3.0,0.0,9.0,1.0,0.22728967666625977
113,-19.0,4.0,-2.0,0.0,10302.0,11426.0,-4551.0,3319.0,0.0,4.0,0.0,-1.0,3.0,0.0,9.0,1.0,0.229034423828125
114,-19.0,4.0,-2.0,0.0,10302.0,11426.0,-4551.0,3319.0,-2.0,-4.0,2.0,0.0,0.0,7.0,-8.0,4.0,0.2308790683746338
115,-19.0,4.0,-2.0,0.0,10302.0,11426.0,-4551.0,3319.0,-1.0,-7.0,-13.0,-4.0,-9.0,-10.0,-5.0,-4.0,0.23275232315063477
116,-6.0,-2.0,-3.0,0.0,10302.0,11426.0,-4550.0,3319.0,-1.0,-7.0,-13.0,-4.0,-9.0,-10.0,-5.0,-4.0,0.23452377319335938
117,-6.0,-2.0,-3.0,0.0,10302.0,11426.0,-4550.0,3319.0,1.0,11.0,1.0,-3.0,1.0,1.0,-2.0,-3.0,0.2368628978729248
118,-6.0,-2.0,-3.0,0.0,10302.0,11426.0,-4550.0,3319.0,-1.0,-3.0,3.0,-1.0,1.0,0.0,-12.0,0.0,0.2404320240020752
119,4.0,4.0,-4.0,0.0,10301.0,11427.0,-4550.0,3319.0,-1.0,-3.0,3.0,-1.0,1.0,0.0,-12.0,0.0,0.2430100440979004
120,4.0,4.0,-4.0,0.0,10301.0,11427.0,-4550.0,3319.0,3.0,8.0,5.0,3.0,2.0,0.0,6.0,5.0,0.24488449096679688
121,4.0,4.0,-4.0,0.0,10301.0,11427.0,-4550.0,3319.0,2.0,2.0,-1.0,0.0,1.0,2.0,8.0,-1.0,0.24665117263793945
122,-5.0,6.0,3.0,0.0,10301.0,11427.0,-4550.0,3318.0,2.0,2.0,-1.0,0.0,1.0,2.0,8.0,-1.0,0.24840188026428223
123,-5.0,6.0,3.0,0.0,10301.0,11427.0,-4550.0,3318.0,-4.0,-7.0,-4.0,-2.0,-2.0,-5.0,-7.0,-3.0,0.25023365020751953
124,-5.0,6.0,3.0,0.0,10301.0,11427.0,-4550.0,3318.0,2.0,7.0,0.0,2.0,1.0,0.0,-1.0,2.0,0.25218892097473145
125,-13.0,6.0,-1.0,0.0,10302.0,11427.0,-4550.0,3318.0,2.0,7.0,0.0,2.0,1.0,0.0,-1.0,2.0,0.25398778915405273
126,-13.0,6.0,-1.0,0.0,10302.0,11427.0,-4550.0,3318.0,0.0,13.0,21.0,2.0,-2.0,-3.0,-1.0,-3.0,0.25581908226013184
127,-13.0,6.0,-1.0,0.0,10302.0,11427.0,-4550.0,3318.0,0.0,-3.0,-1.0,-1.0,-1.0,-3.0,-11.0,0.0,0.2576000690460205
128,9.0,1.0,-11.0,0.0,10302.0,11427.0,-4550.0,3318.0,0.0,-3.0,-1.0,-1.0,-1.0,-3.0,-11.0,0.0,0.2595231533050537
129,9.0,1.0,-11.0,0.0,10302.0,11427.0,-4550.0,3318.0,-3.0,-8.0,-8.0,-3.0,-2.0,-6.0,0.0,-4.0,0.26135945320129395
130,9.0,1.0,-11.0,0.0,10302.0,11427.0,-4550.0,3318.0,-1.0,-6.0,-2.0,0.0,-3.0,-4.0,5.0,0.0,0.2631068229675293
131,-2.0,6.0,-5.0,0.0,10302.0,11428.0,-4550.0,3317.0,-1.0,-6.0,-2.0,0.0,-3.0,-4.0,5.0,0.0,0.26485562324523926
132,-2.0,6.0,-5.0,0.0,10302.0,11428.0,-4550.0,3317.0,-1.0,4.0,10.0,1.0,0.0,-2.0,-7.0,-3.0,0.2668125629425049
133,-2.0,6.0,-5.0,0.0,10302.0,11428.0,-4550.0,3317.0,-3.0,-9.0,1.0,1.0,-1.0,1.0,-1.0,-2.0,0.2692134380340576
134,-7.0,8.0,1.0,0.0,10302.0,11428.0,-4549.0,3317.0,-3.0,-9.0,1.0,1.0,-1.0,1.0,-1.0,-2.0,0.27137064933776855
135,-7.0,8.0,1.0,0.0,10302.0,11428.0,-4549.0,3317.0,-2.0,-3.0,-5.0,-3.0,0.0,1.0,-3.0,-2.0,0.27472734451293945
136,-7.0,8.0,1.0,0.0,10302.0,11428.0,-4549.0,3317.0,-2.0,-1.0,4.0,-3.0,-1.0,1.0,-9.0,-1.0,0.27655816078186035
137,-12.0,9.0,4.0,0.0,10301.0,11428.0,-4549.0,3316.0,-2.0,-1.0,4.0,-3.0,-1.0,1.0,-9.0,-1.0,0.2783188819885254
138,-12.0,9.0,4.0,0.0,10301.0,11428.0,-4549.0,3316.0,0.0,1.0,1.0,-3.0,-2.0,-1.0,4.0,1.0,0.28015875816345215
139,-12.0,9.0,4.0,0.0,10301.0,11428.0,-4549.0,3316.0,3.0,13.0,-5.0,-5.0,1.0,-1.0,7.0,4.0,0.28194546699523926
140,-21.0,14.0,-1.0,0.0,10304.0,11426.0,-4548.0,3317.0,3.0,13.0,-5.0,-5.0,1.0,-1.0,7.0,4.0,0.2836954593658447
141,-21.0,14.0,-1.0,0.0,10304.0,11426.0,-4548.0,3317.0,3.0,5.0,-1.0,0.0,-8.0,-2.0,-5.0,11.0,0.28580164909362793
142,-21.0,14.0,-1.0,0.0,10304.0,11426.0,-4548.0,3317.0,-4.0,-3.0,2.0,0.0,-3.0,-6.0,7.0,-5.0,0.2876293659210205
143,-11.0,13.0,3.0,0.0,10304.0,11427.0,-4547.0,3316.0,-4.0,-3.0,2.0,0.0,-3.0,-6.0,7.0,-5.0,0.2893989086151123
144,-11.0,13.0,3.0,0.0,10304.0,11427.0,-4547.0,3316.0,-2.0,-10.0,-10.0,-3.0,1.0,0.0,1.0,-2.0,0.29121875762939453
145,-11.0,13.0,3.0,0.0,10304.0,11427.0,-4547.0,3316.0,-1.0,-2.0,-4.0,1.0,3.0,2.0,-11.0,2.0,0.29296231269836426
146,-30.0,17.0,15.0,0.0,10307.0,11425.0,-4546.0,3314.0,-1.0,-2.0,-4.0,1.0,3.0,2.0,-11.0,2.0,0.29474520683288574
147,-30.0,17.0,15.0,0.0,10307.0,11425.0,-4546.0,3314.0,-2.0,-7.0,-12.0,-1.0,0.0,-1.0,5.0,-2.0,0.29656219482421875
148,-30.0,17.0,15.0,0.0,10307.0,11425.0,-4546.0,3314.0,-1.0,-2.0,-3.0,-1.0,-1.0,0.0,-24.0,-2.0,0.2988615036010742
149,-29.0,20.0,16.0,0.0,10309.0,11423.0,-4546.0,3315.0,-1.0,-2.0,-3.0,-1.0,-1.0,0.0,-24.0,-2.0,0.30118370056152344
150,-29.0,20.0,16.0,0.0,10309.0,11423.0,-4546.0,3315.0,0.0,-1.0,-1.0,0.0,0.0,1.0,-12.0,-1.0,0.3031144142150879
151,-29.0,20.0,16.0,0.0,10309.0,11423.0,-4546.0,3315.0,-2.0,-12.0,-14.0,-4.0,0.0,1.0,-2.0,1.0,0.3048865795135498
152,-22.0,19.0,22.0,0.0,10312.0,11420.0,-4547.0,3316.0,-2.0,-12.0,-14.0,-4.0,0.0,1.0,-2.0,1.0,0.3079054355621338
153,-22.0,19.0,22.0,0.0,10312.0,11420.0,-4547.0,3316.0,-1.0,-4.0,-11.0,-2.0,-1.0,-1.0,-10.0,-2.0,0.3100001811981201
154,-22.0,19.0,22.0,0.0,10312.0,11420.0,-4547.0,3316.0,-1.0,1.0,1.0,0.0,1.0,3.0,-15.0,-6.0,0.31175780296325684
155,-25.0,17.0,27.0,0.0,10314.0,11418.0,-4547.0,3317.0,-1.0,1.0,1.0,0.0,1.0,3.0,-15.0,-6.0,0.3135225772857666
156,-25.0,17.0,27.0,0.0,10314.0,11418.0,-4547.0,3317.0,-3.0,-6.0,-1.0,-2.0,-3.0,-5.0,-6.0,-6.0,0.31534361839294434
157,-25.0,17.0,27.0,0.0,10314.0,11418.0,-4547.0,3317.0,0.0,-2.0,1.0,1.0,3.0,1.0,-14.0,1.0,0.317119836807251
158,-29.0,15.0,33.0,0.0,10315.0,11415.0,-4550.0,3319.0,0.0,-2.0,1.0,1.0,3.0,1.0,-14.0,1.0,0.3191201686859131
159,-29.0,15.0,33.0,0.0,10315.0,11415.0,-4550.0,3319.0,1.0,-1.0,3.0,1.0,-2.0,-2.0,-2.0,2.0,0.3209824562072754
160,-29.0,15.0,33.0,0.0,10315.0,11415.0,-4550.0,3319.0,-1.0,0.0,1.0,-1.0,0.0,-2.0,6.0,-1.0,0.3227524757385254
161,-3.0,18.0,15.0,0.0,10315.0,11414.0,-4549.0,3321.0,-1.0,0.0,1.0,-1.0,0.0,-2.0,6.0,-1.0,0.32451510429382324
162,-3.0,18.0,15.0,0.0,10315.0,11414.0,-4549.0,3321.0,-3.0,-7.0,-5.0,-2.0,-2.0,-1.0,-3.0,-2.0,0.3263518810272217
163,-3.0,18.0,15.0,0.0,10315.0,11414.0,-4549.0,3321.0,-2.0,-8.0,0.0,2.0,-1.0,-2.0,-11.0,1.0,0.3282439708709717
164,7.0,21.0,7.0,0.0,10313.0,11417.0,-4547.0,3323.0,-2.0,-8.0,0.0,2.0,-1.0,-2.0,-11.0,1.0,0.3305346965789795
165,7.0,21.0,7.0,0.0,10313.0,11417.0,-4547.0,3323.0,-2.0,-11.0,-8.0,1.0,-1.0,0.0,-6.0,-4.0,0.3327217102050781
166,7.0,21.0,7.0,0.0,10313.0,11417.0,-4547.0,3323.0,4.0,6.0,1.0,-2.0,-3.0,-3.0,-16.0,0.0,0.33449506759643555
167,1.0,4.0,3.0,0.0,10313.0,11417.0,-4546.0,3322.0,4.0,6.0,1.0,-2.0,-3.0,-3.0,-16.0,0.0,0.34288454055786133
168,1.0,4.0,3.0,0.0,10313.0,11417.0,-4546.0,3322.0,-2.0,1.0,-2.0,-1.0,1.0,1.0,1.0,-1.0,0.3447535037994385
169,1.0,4.0,3.0,0.0,10313.0,11417.0,-4546.0,3322.0,0.0,-4.0,-4.0,-1.0,-3.0,-1.0,7.0,-1.0,0.3465242385864258
170,13.0,-4.0,-5.0,0.0,10313.0,11417.0,-4547.0,3322.0,0.0,-4.0,-4.0,-1.0,-3.0,-1.0,7.0,-1.0,0.3650071620941162
171,13.0,-4.0,-5.0,0.0,10313.0,11417.0,-4547.0,3322.0,-1.0,2.0,2.0,1.0,-1.0,0.0,-5.0,-2.0,0.36691951751708984
172,13.0,-4.0,-5.0,0.0,10313.0,11417.0,-4547.0,3322.0,-1.0,-4.0,-4.0,-2.0,-1.0,-2.0,-7.0,-2.0,0.36872172355651855
173,34.0,4.0,-5.0,0.0,10309.0,11422.0,-4543.0,3322.0,-1.0,-4.0,-4.0,-2.0,-1.0,-2.0,-7.0,-2.0,0.3795614242553711
174,34.0,4.0,-5.0,0.0,10309.0,11422.0,-4543.0,3322.0,-2.0,-2.0,6.0,-1.0,1.0,0.0,-1.0,-2.0,0.3815042972564697
175,34.0,4.0,-5.0,0.0,10309.0,11422.0,-4543.0,3322.0,0.0,4.0,3.0,-3.0,-1.0,0.0,-12.0,1.0,0.3863847255706787
176,54.0,-5.0,-22.0,0.0,10304.0,11431.0,-4536.0,3318.0,0.0,4.0,3.0,-3.0,-1.0,0.0,-12.0,1.0,0.4032447338104248
177,54.0,-5.0,-22.0,0.0,10304.0,11431.0,-4536.0,3318.0,-1.0,2.0,2.0,0.0,-1.0,-2.0,-4.0,-1.0,0.4071071147918701
178,54.0,-5.0,-22.0,0.0,10304.0,11431.0,-4536.0,3318.0,-2.0,-6.0,-2.0,-2.0,-1.0,-1.0,14.0,-2.0,0.41023778915405273
179,22.0,-6.0,-15.0,0.0,10300.0,11438.0,-4531.0,3312.0,-2.0,-6.0,-2.0,-2.0,-1.0,-1.0,14.0,-2.0,0.4264559745788574
180,22.0,-6.0,-15.0,0.0,10300.0,11438.0,-4531.0,3312.0,1.0,4.0,-1.0,-1.0,0.0,-1.0,-5.0,-1.0,0.4295623302459717
181,22.0,-6.0,-15.0,0.0,10300.0,11438.0,-4531.0,3312.0,-2.0,0.0,-1.0,0.0,-1.0,0.0,-8.0,-2.0,0.4326212406158447
182,0.0,-11.0,-5.0,0.0,10299.0,11439.0,-4531.0,3311.0,-2.0,0.0,-1.0,0.0,-1.0,0.0,-8.0,-2.0,0.4408276081085205
183,0.0,-11.0,-5.0,0.0,10299.0,11439.0,-4531.0,3311.0,0.0,-3.0,0.0,1.0,-2.0,-2.0,-2.0,-4.0,0.443462610244751
184,0.0,-11.0,-5.0,0.0,10299.0,11439.0,-4531.0,3311.0,0.0,3.0,2.0,-3.0,-1.0,-1.0,-13.0,-1.0,0.445253849029541
185,2.0,-23.0,-5.0,0.0,10294.0,11444.0,-4534.0,3306.0,0.0,3.0,2.0,-3.0,-1.0,-1.0,-13.0,-1.0,0.46221113204956055
186,2.0,-23.0,-5.0,0.0,10294.0,11444.0,-4534.0,3306.0,5.0,11.0,16.0,1.0,0.0,2.0,3.0,8.0,0.4640495777130127
187,2.0,-23.0,-5.0,0.0,10294.0,11444.0,-4534.0,3306.0,-5.0,-11.0,-4.0,-2.0,0.0,-3.0,8.0,-8.0,0.4658188819885254
188,43.0,-10.0,-11.0,0.0,10285.0,11452.0,-4534.0,3306.0,-5.0,-11.0,-4.0,-2.0,0.0,-3.0,8.0,-8.0,0.48670530319213867
189,43.0,-10.0,-11.0,0.0,10285.0,11452.0,-4534.0,3306.0,0.0,0.0,3.0,-1.0,-1.0,0.0,-4.0,-1.0,0.4912288188934326
190,43.0,-10.0,-11.0,0.0,10285.0,11452.0,-4534.0,3306.0,5.0,16.0,7.0,-3.0,1.0,-1.0,-7.0,4.0,0.4937744140625
191,63.0,-1.0,-12.0,0.0,10277.0,11462.0,-4528.0,3305.0,5.0,16.0,7.0,-3.0,1.0,-1.0,-7.0,4.0,0.4993267059326172
192,63.0,-1.0,-12.0,0.0,10277.0,11462.0,-4528.0,3305.0,2.0,15.0,10.0,3.0,0.0,0.0,0.0,-3.0,0.501173734664917
193,63.0,-1.0,-12.0,0.0,10277.0,11462.0,-4528.0,3305.0,1.0,0.0,-3.0,1.0,-3.0,-1.0,-11.0,0.0,0.5058882236480713
194,65.0,-1.0,-17.0,0.0,10267.0,11473.0,-4523.0,3303.0,1.0,0.0,-3.0,1.0,-3.0,-1.0,-11.0,0.0,0.5235898494720459
195,65.0,-1.0,-17.0,0.0,10267.0,11473.0,-4523.0,3303.0,-3.0,-8.0,-8.0,-3.0,0.0,-1.0,-3.0,0.0,0.5271129608154297
196,65.0,-1.0,-17.0,0.0,10267.0,11473.0,-4523.0,3303.0,2.0,-2.0,-2.0,1.0,1.0,1.0,17.0,3.0,0.5300490856170654
197,21.0,-14.0,6.0,0.0,10260.0,11478.0,-4526.0,3302.0,2.0,-2.0,-2.0,1.0,1.0,1.0,17.0,3.0,0.5457544326782227
198,21.0,-14.0,6.0,0.0,10260.0,11478.0,-4526.0,3302.0,-1.0,-3.0,-2.0,1.0,-1.0,-1.0,-2.0,-1.0,0.5493381023406982
199,21.0,-14.0,6.0,0.0,10260.0,11478.0,-4526.0,3302.0,-3.0,-1.0,-3.0,-2.0,-3.0,-2.0,-6.0,2.0,0.5522775650024414
200,50.0,-26.0,11.0,0.0,10251.0,11486.0,-4529.0,3302.0,-3.0,-1.0,-3.0,-2.0,-3.0,-2.0,-6.0,2.0,0.5608041286468506
201,50.0,-26.0,11.0,0.0,10251.0,11486.0,-4529.0,3302.0,-5.0,-6.0,-10.0,-4.0,-2.0,-1.0,-2.0,-5.0,0.5631396770477295
202,50.0,-26.0,11.0,0.0,10251.0,11486.0,-4529.0,3302.0,0.0,-5.0,-17.0,-3.0,3.0,-2.0,-7.0,1.0,0.5653574466705322
203,40.0,-29.0,16.0,0.0,10245.0,11491.0,-4531.0,3301.0,0.0,-5.0,-17.0,-3.0,3.0,-2.0,-7.0,1.0,0.5829288959503174
204,40.0,-29.0,16.0,0.0,10245.0,11491.0,-4531.0,3301.0,0.0,-3.0,-3.0,-2.0,-6.0,-9.0,-4.0,-3.0,0.5859906673431396
205,40.0,-29.0,16.0,0.0,10245.0,11491.0,-4531.0,3301.0,-2.0,-2.0,-2.0,-1.0,-1.0,0.0,14.0,-4.0,0.588904857635498
206,46.0,-35.0,17.0,0.0,10237.0,11497.0,-4535.0,3300.0,-2.0,-2.0,-2.0,-1.0,-1.0,0.0,14.0,-4.0,0.6060483455657959
207,46.0,-35.0,17.0,0.0,10237.0,11497.0,-4535.0,3300.0,-1.0,-9.0,-11.0,-5.0,2.0,1.0,-3.0,1.0,0.610365629196167
208,46.0,-35.0,17.0,0.0,10237.0,11497.0,-4535.0,3300.0,-1.0,-1.0,8.0,3.0,2.0,2.0,-6.0,-4.0,0.6136813163757324
209,44.0,-33.0,-5.0,0.0,10231.0,11502.0,-4535.0,3298.0,-1.0,-1.0,8.0,3.0,2.0,2.0,-6.0,-4.0,0.6185171604156494
210,44.0,-33.0,-5.0,0.0,10231.0,11502.0,-4535.0,3298.0,4.0,4.0,-10.0,-1.0,1.0,1.0,2.0,3.0,0.6278409957885742
211,44.0,-33.0,-5.0,0.0,10231.0,11502.0,-4535.0,3298.0,-9.0,-16.0,-17.0,-7.0,-2.0,1.0,-13.0,-1.0,0.6309828758239746
212,74.0,-14.0,-9.0,0.0,10224.0,11510.0,-4531.0,3298.0,-9.0,-16.0,-17.0,-7.0,-2.0,1.0,-13.0,-1.0,0.6435248851776123
213,74.0,-14.0,-9.0,0.0,10224.0,11510.0,-4531.0,3298.0,2.0,14.0,34.0,12.0,1.0,-12.0,-7.0,-1.0,0.646806001663208
214,74.0,-14.0,-9.0,0.0,10224.0,11510.0,-4531.0,3298.0,-1.0,-16.0,-21.0,-3.0,1.0,-2.0,17.0,0.0,0.6499383449554443
215,120.0,-37.0,-44.0,0.0,10213.0,11526.0,-4521.0,3291.0,-1.0,-16.0,-21.0,-3.0,1.0,-2.0,17.0,0.0,0.6649622917175293
216,120.0,-37.0,-44.0,0.0,10213.0,11526.0,-4521.0,3291.0,2.0,12.0,7.0,17.0,8.0,1.0,2.0,10.0,0.6668415069580078
217,120.0,-37.0,-44.0,0.0,10213.0,11526.0,-4521.0,3291.0,-32.0,-83.0,-15.0,-14.0,-11.0,-17.0,-21.0,-25.0,0.6688852310180664
218,48.0,-8.0,-10.0,0.0,10212.0,11531.0,-4512.0,3286.0,-32.0,-83.0,-15.0,-14.0,-11.0,-17.0,-21.0,-25.0,0.6785573959350586
219,48.0,-8.0,-10.0,0.0,10212.0,11531.0,-4512.0,3286.0,-10.0,-30.0,-10.0,-5.0,-13.0,2.0,-15.0,-18.0,0.6879227161407471
220,48.0,-8.0,-10.0,0.0,10212.0,11531.0,-4512.0,3286.0,-7.0,-13.0,9.0,-6.0,-13.0,-6.0,-17.0,-2.0,0.6910676956176758
221,-19.0,264.0,46.0,0.0,10235.0,11516.0,-4478.0,3315.0,-7.0,-13.0,9.0,-6.0,-13.0,-6.0,-17.0,-2.0,0.7040362358093262
222,-19.0,264.0,46.0,0.0,10235.0,11516.0,-4478.0,3315.0,12.0,32.0,14.0,-13.0,-50.0,-16.0,-6.0,4.0,0.7086257934570312
223,-19.0,264.0,46.0,0.0,10235.0,11516.0,-4478.0,3315.0,24.0,61.0,68.0,8.0,-6.0,28.0,27.0,14.0,0.7119019031524658
224,161.0,507.0,168.0,0.0,10261.0,11502.0,-4404.0,3380.0,24.0,61.0,68.0,8.0,-6.0,28.0,27.0,14.0,0.7247111797332764
225,161.0,507.0,168.0,0.0,10261.0,11502.0,-4404.0,3380.0,-13.0,-17.0,13.0,-14.0,-18.0,-4.0,-20.0,-29.0,0.7277429103851318
226,161.0,507.0,168.0,0.0,10261.0,11502.0,-4404.0,3380.0,2.0,-25.0,-39.0,-17.0,-31.0,-7.0,-12.0,3.0,0.7308750152587891
227,380.0,736.0,283.0,0.0,10274.0,11503.0,-4293.0,3479.0,2.0,-25.0,-39.0,-17.0,-31.0,-7.0,-12.0,3.0,0.7389712333679199
228,380.0,736.0,283.0,0.0,10274.0,11503.0,-4293.0,3479.0,-2.0,13.0,31.0,-18.0,-10.0,-1.0,-11.0,3.0,0.7470307350158691
229,380.0,736.0,283.0,0.0,10274.0,11503.0,-4293.0,3479.0,-2.0,0.0,2.0,28.0,32.0,3.0,-13.0,-1.0,0.7488274574279785
230,-40.0,730.0,88.0,0.0,10345.0,11471.0,-4168.0,3527.0,-2.0,0.0,2.0,28.0,32.0,3.0,-13.0,-1.0,0.7637765407562256
231,-40.0,730.0,88.0,0.0,10345.0,11471.0,-4168.0,3527.0,-6.0,-32.0,-29.0,-5.0,12.0,-5.0,-3.0,2.0,0.7681519985198975
232,-40.0,730.0,88.0,0.0,10345.0,11471.0,-4168.0,3527.0,7.0,17.0,2.0,2.0,1.0,-4.0,9.0,1.0,0.771451473236084
233,-562.0,652.0,-29.0,0.0,10477.0,11383.0,-4068.0,3542.0,7.0,17.0,2.0,2.0,1.0,-4.0,9.0,1.0,0.7862792015075684
234,-562.0,652.0,-29.0,0.0,10477.0,11383.0,-4068.0,3542.0,8.0,17.0,-1.0,18.0,35.0,11.0,7.0,12.0,0.789604902267456
235,-562.0,652.0,-29.0,0.0,10477.0,11383.0,-4068.0,3542.0,10.0,38.0,13.0,1.0,5.0,0.0,-4.0,2.0,0.7929477691650391
236,-840.0,667.0,52.0,0.0,10642.0,11239.0,-4002.0,3582.0,10.0,38.0,13.0,1.0,5.0,0.0,-4.0,2.0,0.799121618270874
237,-840.0,667.0,52.0,0.0,10642.0,11239.0,-4002.0,3582.0,-1.0,-14.0,-16.0,-2.0,2.0,11.0,-1.0,3.0,0.8082337379455566
238,-840.0,667.0,52.0,0.0,10642.0,11239.0,-4002.0,3582.0,-2.0,-7.0,-11.0,-3.0,-3.0,-4.0,-19.0,4.0,0.8101310729980469
239,-802.0,924.0,-72.0,0.0,10829.0,11084.0,-3880.0,3639.0,-2.0,-7.0,-11.0,-3.0,-3.0,-4.0,-19.0,4.0,0.8222866058349609
240,-802.0,924.0,-72.0,0.0,10829.0,11084.0,-3880.0,3639.0,-1.0,-3.0,-12.0,-1.0,-3.0,-3.0,0.0,1.0,0.8266947269439697
241,-802.0,924.0,-72.0,0.0,10829.0,11084.0,-3880.0,3639.0,4.0,13.0,4.0,5.0,12.0,-2.0,0.0,2.0,0.830150842666626
242,-693.0,1083.0,-405.0,0.0,11026.0,10941.0,-3688.0,3680.0,4.0,13.0,4.0,5.0,12.0,-2.0,0.0,2.0,0.8450593948364258
243,-693.0,1083.0,-405.0,0.0,11026.0,10941.0,-3688.0,3680.0,-2.0,-1.0,-10.0,1.0,4.0,3.0,1.0,5.0,0.8488190174102783
244,-693.0,1083.0,-405.0,0.0,11026.0,10941.0,-3688.0,3680.0,5.0,36.0,5.0,-8.0,0.0,4.0,-9.0,-7.0,0.8526260852813721
245,-523.0,1267.0,-867.0,0.0,11214.0,10840.0,-3408.0,3682.0,5.0,36.0,5.0,-8.0,0.0,4.0,-9.0,-7.0,0.8592500686645508
246,-523.0,1267.0,-867.0,0.0,11214.0,10840.0,-3408.0,3682.0,0.0,-1.0,-3.0,10.0,5.0,2.0,0.0,1.0,0.8668613433837891
247,-523.0,1267.0,-867.0,0.0,11214.0,10840.0,-3408.0,3682.0,-6.0,-19.0,-14.0,-5.0,1.0,-5.0,-9.0,0.0,0.8686501979827881
248,-623.0,1349.0,-1194.0,0.0,11412.0,10743.0,-3082.0,3643.0,-6.0,-19.0,-14.0,-5.0,1.0,-5.0,-9.0,0.0,0.8823895454406738
249,-623.0,1349.0,-1194.0,0.0,11412.0,10743.0,-3082.0,3643.0,-1.0,5.0,1.0,9.0,9.0,1.0,5.0,3.0,0.8865983486175537
250,-623.0,1349.0,-1194.0,0.0,11412.0,10743.0,-3082.0,3643.0,-1.0,-4.0,-6.0,-5.0,-5.0,-1.0,8.0,-2.0,0.8916218280792236
251,-783.0,1323.0,-1518.0,0.0,11615.0,10649.0,-2738.0,3553.0,-1.0,-4.0,-6.0,-5.0,-5.0,-1.0,8.0,-2.0,0.9050657749176025
252,-783.0,1323.0,-1518.0,0.0,11615.0,10649.0,-2738.0,3553.0,-3.0,-11.0,-7.0,-5.0,0.0,-1.0,-1.0,-1.0,0.9088530540466309
253,-783.0,1323.0,-1518.0,0.0,11615.0,10649.0,-2738.0,3553.0,-2.0,2.0,13.0,4.0,3.0,3.0,12.0,10.0,0.9124655723571777
254,-964.0,1325.0,-1795.0,0.0,11830.0,10529.0,-2394.0,3445.0,-2.0,2.0,13.0,4.0,3.0,3.0,12.0,10.0,0.920175313949585
255,-964.0,1325.0,-1795.0,0.0,11830.0,10529.0,-2394.0,3445.0,-1.0,-1.0,-3.0,-6.0,-7.0,-6.0,-7.0,-5.0,0.9271297454833984
256,-964.0,1325.0,-1795.0,0.0,11830.0,10529.0,-2394.0,3445.0,0.0,4.0,2.0,6.0,3.0,1.0,-11.0,-1.0,0.9288926124572754
257,-922.0,1300.0,-2023.0,0.0,12038.0,10414.0,-2028.0,3306.0,0.0,4.0,2.0,6.0,3.0,1.0,-11.0,-1.0,0.9424176216125488
258,-922.0,1300.0,-2023.0,0.0,12038.0,10414.0,-2028.0,3306.0,0.0,-5.0,-10.0,-7.0,2.0,2.0,2.0,2.0,0.9462299346923828
259,-922.0,1300.0,-2023.0,0.0,12038.0,10414.0,-2028.0,3306.0,1.0,-5.0,-4.0,0.0,-3.0,-3.0,2.0,2.0,0.9505410194396973
260,-728.0,1217.0,-2415.0,0.0,12225.0,10327.0,-1623.0,3112.0,1.0,-5.0,-4.0,0.0,-3.0,-3.0,2.0,2.0,0.9661262035369873
261,-728.0,1217.0,-2415.0,0.0,12225.0,10327.0,-1623.0,3112.0,-4.0,-13.0,-5.0,-3.0,-2.0,-1.0,-5.0,-2.0,0.9693610668182373
262,-728.0,1217.0,-2415.0,0.0,12225.0,10327.0,-1623.0,3112.0,-1.0,3.0,3.0,-2.0,-1.0,-2.0,4.0,-1.0,0.972322940826416
263,-488.0,1198.0,-2683.0,0.0,12381.0,10268.0,-1179.0,2879.0,-1.0,3.0,3.0,-2.0,-1.0,-2.0,4.0,-1.0,0.9791197776794434
264,-488.0,1198.0,-2683.0,0.0,12381.0,10268.0,-1179.0,2879.0,-5.0,-13.0,-9.0,-1.0,3.0,0.0,0.0,-2.0,0.9869382381439209
265,-488.0,1198.0,-2683.0,0.0,12381.0,10268.0,-1179.0,2879.0,-2.0,-5.0,-11.0,-7.0,-3.0,-8.0,-7.0,-3.0,0.9889192581176758
266,-512.0,1116.0,-2758.0,0.0,12526.0,10202.0,-737.0,2623.0,-2.0,-5.0,-11.0,-7.0,-3.0,-8.0,-7.0,-3.0,1.0030548572540283
267,-512.0,1116.0,-2758.0,0.0,12526.0,10202.0,-737.0,2623.0,-3.0,-8.0,-4.0,-2.0,-2.0,0.0,-3.0,-10.0,1.0061893463134766
268,-512.0,1116.0,-2758.0,0.0,12526.0,10202.0,-737.0,2623.0,-4.0,-2.0,3.0,1.0,-7.0,-4.0,-2.0,-4.0,1.0095486640930176
269,-685.0,977.0,-2870.0,0.0,12676.0,10108.0,-307.0,2334.0,-4.0,-2.0,3.0,1.0,-7.0,-4.0,-2.0,-4.0,1.0268023014068604
270,-685.0,977.0,-2870.0,0.0,12676.0,10108.0,-307.0,2334.0,2.0,11.0,8.0,-1.0,16.0,19.0,3.0,7.0,1.030109167098999
271,-685.0,977.0,-2870.0,0.0,12676.0,10108.0,-307.0,2334.0,-2.0,-2.0,-1.0,0.0,-2.0,-3.0,5.0,-3.0,1.0334155559539795
272,-917.0,859.0,-2972.0,0.0,12837.0,9977.0,111.0,2016.0,-2.0,-2.0,-1.0,0.0,-2.0,-3.0,5.0,-3.0,1.0483500957489014
273,-917.0,859.0,-2972.0,0.0,12837.0,9977.0,111.0,2016.0,-2.0,-13.0,-14.0,4.0,1.0,2.0,-3.0,0.0,1.0510227680206299
274,-917.0,859.0,-2972.0,0.0,12837.0,9977.0,111.0,2016.0,-2.0,-1.0,2.0,-5.0,2.0,0.0,-12.0,-3.0,1.0528628826141357
275,-1029.0,789.0,-2986.0,0.0,12996.0,9819.0,516.0,1689.0,-2.0,-1.0,2.0,-5.0,2.0,0.0,-12.0,-3.0,1.0619726181030273
276,-1029.0,789.0,-2986.0,0.0,12996.0,9819.0,516.0,1689.0,-1.0,3.0,-6.0,-1.0,-7.0,-10.0,-3.0,-2.0,1.0638558864593506
277,-1029.0,789.0,-2986.0,0.0,12996.0,9819.0,516.0,1689.0,-2.0,-10.0,2.0,4.0,10.0,12.0,14.0,13.0,1.0684010982513428
278,-803.0,794.0,-2867.0,0.0,13116.0,9678.0,913.0,1377.0,-2.0,-10.0,2.0,4.0,10.0,12.0,14.0,13.0,1.084690809249878
279,-803.0,794.0,-2867.0,0.0,13116.0,9678.0,913.0,1377.0,-5.0,4.0,3.0,-8.0,-15.0,-15.0,-19.0,-17.0,1.086592674255371
280,-803.0,794.0,-2867.0,0.0,13116.0,9678.0,913.0,1377.0,-3.0,1.0,2.0,4.0,1.0,3.0,11.0,-2.0,1.0883779525756836
281,-508.0,698.0,-2797.0,0.0,13193.0,9569.0,1296.0,1058.0,-3.0,1.0,2.0,4.0,1.0,3.0,11.0,-2.0,1.1089563369750977
282,-508.0,698.0,-2797.0,0.0,13193.0,9569.0,1296.0,1058.0,4.0,6.0,6.0,5.0,3.0,2.0,4.0,10.0,1.1110107898712158
283,-508.0,698.0,-2797.0,0.0,13193.0,9569.0,1296.0,1058.0,2.0,1.0,0.0,2.0,4.0,2.0,-3.0,2.0,1.1127681732177734
284,-328.0,537.0,-2751.0,0.0,13241.0,9478.0,1652.0,726.0,2.0,1.0,0.0,2.0,4.0,2.0,-3.0,2.0,1.1234467029571533
285,-328.0,537.0,-2751.0,0.0,13241.0,9478.0,1652.0,726.0,-1.0,7.0,5.0,-1.0,-2.0,-4.0,0.0,-3.0,1.126612663269043
286,-328.0,537.0,-2751.0,0.0,13241.0,9478.0,1652.0,726.0,1.0,0.0,-7.0,-1.0,-2.0,-4.0,-7.0,-5.0,1.1296086311340332
287,-262.0,448.0,-2619.0,0.0,13271.0,9392.0,1980.0,403.0,1.0,0.0,-7.0,-1.0,-2.0,-4.0,-7.0,-5.0,1.1451349258422852
288,-262.0,448.0,-2619.0,0.0,13271.0,9392.0,1980.0,403.0,3.0,11.0,8.0,-1.0,8.0,8.0,0.0,8.0,1.147024154663086
289,-262.0,448.0,-2619.0,0.0,13271.0,9392.0,1980.0,403.0,4.0,16.0,10.0,0.0,-4.0,-2.0,2.0,2.0,1.1488022804260254
290,-340.0,388.0,-2418.0,0.0,13298.0,9293.0,2278.0,104.0,4.0,16.0,10.0,0.0,-4.0,-2.0,2.0,2.0,1.168010950088501
291,-340.0,388.0,-2418.0,0.0,13298.0,9293.0,2278.0,104.0,-3.0,-8.0,-3.0,-2.0,7.0,8.0,9.0,5.0,1.170470952987671
292,-340.0,388.0,-2418.0,0.0,13298.0,9293.0,2278.0,104.0,-2.0,-4.0,-5.0,-3.0,-6.0,-5.0,-1.0,2.0,1.1726384162902832
293,-304.0,422.0,-2168.0,0.0,13312.0,9200.0,2556.0,-157.0,-2.0,-4.0,-5.0,-3.0,-6.0,-5.0,-1.0,2.0,1.1809911727905273
294,-304.0,422.0,-2168.0,0.0,13312.0,9200.0,2556.0,-157.0,3.0,5.0,-4.0,1.0,1.0,-7.0,-20.0,2.0,1.189786434173584
295,-304.0,422.0,-2168.0,0.0,13312.0,9200.0,2556.0,-157.0,-2.0,-5.0,-3.0,-2.0,-3.0,-2.0,-19.0,-6.0,1.1929106712341309
296,-70.0,377.0,-1716.0,0.0,13302.0,9142.0,2784.0,-367.0,-2.0,-5.0,-3.0,-2.0,-3.0,-2.0,-19.0,-6.0,1.2066700458526611
297,-70.0,377.0,-1716.0,0.0,13302.0,9142.0,2784.0,-367.0,0.0,-3.0,-3.0,0.0,-7.0,3.0,-4.0,7.0,1.2100224494934082
298,-70.0,377.0,-1716.0,0.0,13302.0,9142.0,2784.0,-367.0,-2.0,-3.0,0.0,-1.0,-2.0,-2.0,-1.0,-9.0,1.2118051052093506
299,296.0,321.0,-1115.0,0.0,13259.0,9144.0,2955.0,-518.0,-2.0,-3.0,0.0,-1.0,-2.0,-2.0,-1.0,-9.0,1.229309320449829
300,296.0,321.0,-1115.0,0.0,13259.0,9144.0,2955.0,-518.0,0.0,4.0,1.0,2.0,-12.0,-4.0,2.0,2.0,1.2328174114227295
301,296.0,321.0,-1115.0,0.0,13259.0,9144.0,2955.0,-518.0,1.0,1.0,1.0,-5.0,-8.0,-12.0,-25.0,-7.0,1.2359569072723389
302,368.0,243.0,-502.0,0.0,13219.0,9166.0,3051.0,-591.0,1.0,1.0,1.0,-5.0,-8.0,-12.0,-25.0,-7.0,1.2427570819854736
303,368.0,243.0,-502.0,0.0,13219.0,9166.0,3051.0,-591.0,-3.0,-3.0,2.0,-2.0,0.0,-2.0,-9.0,-12.0,1.2493541240692139
304,368.0,243.0,-502.0,0.0,13219.0,9166.0,3051.0,-591.0,-2.0,-4.0,-6.0,-5.0,-10.0,-5.0,0.0,4.0,1.2511200904846191
305,431.0,165.0,-38.0,0.0,13183.0,9206.0,3083.0,-605.0,-2.0,-4.0,-6.0,-5.0,-10.0,-5.0,0.0,4.0,1.2650136947631836
306,431.0,165.0,-38.0,0.0,13183.0,9206.0,3083.0,-605.0,-4.0,-8.0,-3.0,0.0,3.0,1.0,2.0,-1.0,1.2684907913208008
307,431.0,165.0,-38.0,0.0,13183.0,9206.0,3083.0,-605.0,-6.0,-8.0,8.0,7.0,3.0,-2.0,5.0,-5.0,1.2718489170074463
308,377.0,132.0,484.0,0.0,13152.0,9261.0,3059.0,-545.0,-6.0,-8.0,8.0,7.0,3.0,-2.0,5.0,-5.0,1.2898533344268799
309,377.0,132.0,484.0,0.0,13152.0,9261.0,3059.0,-545.0,3.0,-1.0,-1.0,-1.0,0.0,2.0,7.0,0.0,1.2937095165252686
310,377.0,132.0,484.0,0.0,13152.0,9261.0,3059.0,-545.0,-1.0,-1.0,-1.0,-1.0,-7.0,-9.0,-8.0,-4.0,1.2968461513519287
311,628.0,-71.0,1185.0,0.0,13106.0,9373.0,2934.0,-412.0,-1.0,-1.0,-1.0,-1.0,-7.0,-9.0,-8.0,-4.0,1.301828384399414
312,628.0,-71.0,1185.0,0.0,13106.0,9373.0,2934.0,-412.0,-4.0,-6.0,-1.0,1.0,0.0,-2.0,-1.0,-3.0,1.3099284172058105
313,628.0,-71.0,1185.0,0.0,13106.0,9373.0,2934.0,-412.0,2.0,-1.0,-2.0,-1.0,1.0,2.0,-10.0,2.0,1.3117280006408691
314,678.0,-238.0,1717.0,0.0,13050.0,9522.0,2719.0,-212.0,2.0,-1.0,-2.0,-1.0,1.0,2.0,-10.0,2.0,1.3260517120361328
315,678.0,-238.0,1717.0,0.0,13050.0,9522.0,2719.0,-212.0,-1.0,4.0,0.0,-1.0,2.0,-6.0,-12.0,0.0,1.3279225826263428
316,678.0,-238.0,1717.0,0.0,13050.0,9522.0,2719.0,-212.0,1.0,2.0,-3.0,2.0,6.0,9.0,34.0,9.0,1.3297042846679688
317,627.0,-405.0,2131.0,0.0,12998.0,9671.0,2434.0,34.0,1.0,2.0,-3.0,2.0,6.0,9.0,34.0,9.0,1.348877191543579
318,627.0,-405.0,2131.0,0.0,12998.0,9671.0,2434.0,34.0,3.0,-2.0,-4.0,2.0,2.0,2.0,1.0,-2.0,1.3530802726745605
319,627.0,-405.0,2131.0,0.0,12998.0,9671.0,2434.0,34.0,0.0,2.0,-5.0,-2.0,0.0,-2.0,-11.0,-3.0,1.357412576675415
320,675.0,-544.0,2295.0,0.0,12935.0,9826.0,2110.0,288.0,0.0,2.0,-5.0,-2.0,0.0,-2.0,-11.0,-3.0,1.361001968383789
321,675.0,-544.0,2295.0,0.0,12935.0,9826.0,2110.0,288.0,6.0,29.0,3.0,-6.0,9.0,13.0,4.0,6.0,1.3693814277648926
322,675.0,-544.0,2295.0,0.0,12935.0,9826.0,2110.0,288.0,-9.0,-10.0,-13.0,1.0,-10.0,-4.0,-10.0,-11.0,1.3711960315704346
323,916.0,-633.0,2606.0,0.0,12833.0,10020.0,1733.0,575.0,-9.0,-10.0,-13.0,1.0,-10.0,-4.0,-10.0,-11.0,1.3852910995483398
324,916.0,-633.0,2606.0,0.0,12833.0,10020.0,1733.0,575.0,-3.0,-9.0,2.0,2.0,-5.0,-1.0,12.0,4.0,1.3889214992523193
325,916.0,-633.0,2606.0,0.0,12833.0,10020.0,1733.0,575.0,0.0,0.0,2.0,-3.0,9.0,0.0,10.0,-2.0,1.3933813571929932
326,901.0,-655.0,2809.0,0.0,12713.0,10210.0,1325.0,892.0,0.0,0.0,2.0,-3.0,9.0,0.0,10.0,-2.0,1.4087824821472168
327,901.0,-655.0,2809.0,0.0,12713.0,10210.0,1325.0,892.0,-3.0,-4.0,2.0,-1.0,-4.0,-6.0,-8.0,-6.0,1.4126653671264648
328,901.0,-655.0,2809.0,0.0,12713.0,10210.0,1325.0,892.0,0.0,0.0,1.0,2.0,4.0,2.0,-1.0,1.0,1.4167044162750244
329,425.0,-712.0,2713.0,0.0,12636.0,10319.0,912.0,1195.0,0.0,0.0,1.0,2.0,4.0,2.0,-1.0,1.0,1.4209308624267578
330,425.0,-712.0,2713.0,0.0,12636.0,10319.0,912.0,1195.0,-2.0,-7.0,-16.0,-7.0,-5.0,-2.0,17.0,0.0,1.4293115139007568
331,425.0,-712.0,2713.0,0.0,12636.0,10319.0,912.0,1195.0,12.0,30.0,-8.0,-1.0,9.0,10.0,-29.0,-12.0,1.4311590194702148
332,-13.0,-897.0,2438.0,0.0,12609.0,10349.0,500.0,1441.0,12.0,30.0,-8.0,-1.0,9.0,10.0,-29.0,-12.0,1.4452886581420898
333,-13.0,-897.0,2438.0,0.0,12609.0,10349.0,500.0,1441.0,-2.0,-4.0,-4.0,-6.0,-15.0,-8.0,-11.0,-6.0,1.447601079940796
334,-13.0,-897.0,2438.0,0.0,12609.0,10349.0,500.0,1441.0,-7.0,11.0,4.0,-21.0,-13.0,14.0,43.0,12.0,1.4493885040283203
335,171.0,-940.0,2319.0,0.0,12550.0,10400.0,104.0,1658.0,-7.0,11.0,4.0,-21.0,-13.0,14.0,43.0,12.0,1.467580795288086
336,171.0,-940.0,2319.0,0.0,12550.0,10400.0,104.0,1658.0,0.0,-5.0,2.0,5.0,4.0,-4.0,-4.0,-4.0,1.4699406623840332
337,171.0,-940.0,2319.0,0.0,12550.0,10400.0,104.0,1658.0,-9.0,-20.0,-2.0,-2.0,0.0,-2.0,-3.0,-3.0,1.4717817306518555
338,326.0,-946.0,2121.0,0.0,12471.0,10460.0,-267.0,1845.0,-9.0,-20.0,-2.0,-2.0,0.0,-2.0,-3.0,-3.0,1.4810583591461182
339,326.0,-946.0,2121.0,0.0,12471.0,10460.0,-267.0,1845.0,-10.0,-14.0,57.0,12.0,8.0,7.0,18.0,28.0,1.490225076675415
340,326.0,-946.0,2121.0,0.0,12471.0,10460.0,-267.0,1845.0,-1.0,9.0,10.0,0.0,-9.0,-6.0,-11.0,-24.0,1.4925215244293213
341,605.0,-1029.0,1651.0,0.0,12364.0,10552.0,-592.0,1962.0,-1.0,9.0,10.0,0.0,-9.0,-6.0,-11.0,-24.0,1.5058772563934326
342,605.0,-1029.0,1651.0,0.0,12364.0,10552.0,-592.0,1962.0,3.0,-18.0,-26.0,-14.0,-12.0,-10.0,-9.0,7.0,1.5097389221191406
343,605.0,-1029.0,1651.0,0.0,12364.0,10552.0,-592.0,1962.0,37.0,1.0,-3.0,-4.0,3.0,4.0,21.0,77.0,1.512913703918457
344,894.0,-950.0,1318.0,0.0,12221.0,10679.0,-879.0,2059.0,37.0,1.0,-3.0,-4.0,3.0,4.0,21.0,77.0,1.5276298522949219
345,894.0,-950.0,1318.0,0.0,12221.0,10679.0,-879.0,2059.0,2.0,-7.0,-14.0,-7.0,-2.0,0.0,-4.0,3.0,1.5295472145080566
346,894.0,-950.0,1318.0,0.0,12221.0,10679.0,-879.0,2059.0,-9.0,-21.0,-25.0,5.0,9.0,-3.0,-10.0,-16.0,1.53131103515625
347,784.0,-877.0,1484.0,0.0,12088.0,10776.0,-1176.0,2186.0,-9.0,-21.0,-25.0,5.0,9.0,-3.0,-10.0,-16.0,1.5428588390350342
348,784.0,-877.0,1484.0,0.0,12088.0,10776.0,-1176.0,2186.0,-18.0,-1.0,-6.0,-2.0,3.0,4.0,-17.0,-35.0,1.5491960048675537
349,784.0,-877.0,1484.0,0.0,12088.0,10776.0,-1176.0,2186.0,-9.0,-18.0,-8.0,8.0,12.0,7.0,-13.0,-2.0,1.5509734153747559
350,290.0,-907.0,1877.0,0.0,11995.0,10807.0,-1513.0,2333.0,-9.0,-18.0,-8.0,8.0,12.0,7.0,-13.0,-2.0,1.5664074420928955
351,290.0,-907.0,1877.0,0.0,11995.0,10807.0,-1513.0,2333.0,27.0,108.0,69.0,-2.0,-3.0,6.0,10.0,8.0,1.5703165531158447
352,290.0,-907.0,1877.0,0.0,11995.0,10807.0,-1513.0,2333.0,-6.0,11.0,11.0,-2.0,3.0,5.0,5.0,-13.0,1.5741355419158936
353,-248.0,-989.0,2103.0,0.0,11947.0,10765.0,-1899.0,2489.0,-6.0,11.0,11.0,-2.0,3.0,5.0,5.0,-13.0,1.587571144104004
354,-248.0,-989.0,2103.0,0.0,11947.0,10765.0,-1899.0,2489.0,1.0,-13.0,-18.0,-5.0,-11.0,-3.0,-11.0,-7.0,1.5894429683685303
355,-248.0,-989.0,2103.0,0.0,11947.0,10765.0,-1899.0,2489.0,17.0,-19.0,-25.0,0.0,-3.0,-9.0,-3.0,44.0,1.5912089347839355
356,-274.0,-953.0,1864.0,0.0,11901.0,10716.0,-2257.0,2620.0,17.0,-19.0,-25.0,0.0,-3.0,-9.0,-3.0,44.0,1.601334810256958
357,-274.0,-953.0,1864.0,0.0,11901.0,10716.0,-2257.0,2620.0,-5.0,-29.0,-18.0,7.0,9.0,-3.0,-5.0,-12.0,1.6095776557922363
358,-274.0,-953.0,1864.0,0.0,11901.0,10716.0,-2257.0,2620.0,-23.0,-26.0,14.0,0.0,-4.0,-7.0,-23.0,-42.0,1.6113646030426025
359,283.0,-745.0,1615.0,0.0,11796.0,10732.0,-2545.0,2758.0,-23.0,-26.0,14.0,0.0,-4.0,-7.0,-23.0,-42.0,1.6250042915344238
360,283.0,-745.0,1615.0,0.0,11796.0,10732.0,-2545.0,2758.0,11.0,-1.0,0.0,17.0,2.0,-5.0,-14.0,9.0,1.6295804977416992
361,283.0,-745.0,1615.0,0.0,11796.0,10732.0,-2545.0,2758.0,-4.0,21.0,9.0,-4.0,-16.0,-3.0,14.0,-13.0,1.6337182521820068
362,729.0,-670.0,1601.0,0.0,11638.0,10801.0,-2802.0,2909.0,-4.0,21.0,9.0,-4.0,-16.0,-3.0,14.0,-13.0,1.647608757019043
363,729.0,-670.0,1601.0,0.0,11638.0,10801.0,-2802.0,2909.0,-18.0,-24.0,-39.0,-13.0,3.0,1.0,-2.0,-10.0,1.6494851112365723
364,729.0,-670.0,1601.0,0.0,11638.0,10801.0,-2802.0,2909.0,2.0,-21.0,9.0,5.0,7.0,-2.0,12.0,10.0,1.6512515544891357
365,490.0,-686.0,1495.0,0.0,11501.0,10849.0,-3048.0,3026.0,2.0,-21.0,9.0,5.0,7.0,-2.0,12.0,10.0,1.6618866920471191
366,490.0,-686.0,1495.0,0.0,11501.0,10849.0,-3048.0,3026.0,-12.0,-25.0,-27.0,-1.0,-2.0,-4.0,-7.0,-21.0,1.670393466949463
367,490.0,-686.0,1495.0,0.0,11501.0,10849.0,-3048.0,3026.0,13.0,21.0,12.0,4.0,-2.0,-6.0,-7.0,-2.0,1.6735508441925049
368,-24.0,-716.0,1427.0,0.0,11423.0,10816.0,-3329.0,3140.0,13.0,21.0,12.0,4.0,-2.0,-6.0,-7.0,-2.0,1.6852245330810547
369,-24.0,-716.0,1427.0,0.0,11423.0,10816.0,-3329.0,3140.0,0.0,4.0,14.0,3.0,-4.0,-6.0,-1.0,-1.0,1.6879024505615234
370,-24.0,-716.0,1427.0,0.0,11423.0,10816.0,-3329.0,3140.0,-7.0,-15.0,-20.0,0.0,1.0,0.0,11.0,-1.0,1.6923730373382568
371,-146.0,-690.0,1348.0,0.0,11363.0,10754.0,-3611.0,3256.0,-7.0,-15.0,-20.0,0.0,1.0,0.0,11.0,-1.0,1.709974765777588
372,-146.0,-690.0,1348.0,0.0,11363.0,10754.0,-3611.0,3256.0,9.0,34.0,47.0,20.0,10.0,7.0,2.0,10.0,1.7131726741790771
373,-146.0,-690.0,1348.0,0.0,11363.0,10754.0,-3611.0,3256.0,-8.0,-7.0,-9.0,-3.0,-9.0,-2.0,-8.0,-6.0,1.7161264419555664
374,43.0,-569.0,1240.0,0.0,11293.0,10712.0,-3844.0,3369.0,-8.0,-7.0,-9.0,-3.0,-9.0,-2.0,-8.0,-6.0,1.721566915512085
375,43.0,-569.0,1240.0,0.0,11293.0,10712.0,-3844.0,3369.0,-1.0,-13.0,-16.0,-5.0,-2.0,0.0,4.0,5.0,1.7292582988739014
376,43.0,-569.0,1240.0,0.0,11293.0,10712.0,-3844.0,3369.0,3.0,17.0,16.0,4.0,8.0,9.0,-4.0,2.0,1.7310194969177246
377,188.0,-528.0,1032.0,0.0,11221.0,10709.0,-4007.0,3431.0,3.0,17.0,16.0,4.0,8.0,9.0,-4.0,2.0,1.7443115711212158
378,188.0,-528.0,1032.0,0.0,11221.0,10709.0,-4007.0,3431.0,-1.0,3.0,1.0,-9.0,-3.0,2.0,-2.0,-1.0,1.7469208240509033
379,188.0,-528.0,1032.0,0.0,11221.0,10709.0,-4007.0,3431.0,-9.0,-18.0,-19.0,-6.0,-6.0,-9.0,-5.0,-6.0,1.7521755695343018
380,188.0,-470.0,728.0,0.0,11168.0,10718.0,-4114.0,3451.0,-9.0,-18.0,-19.0,-6.0,-6.0,-9.0,-5.0,-6.0,1.7672951221466064
381,188.0,-470.0,728.0,0.0,11168.0,10718.0,-4114.0,3451.0,-5.0,-35.0,-9.0,14.0,-1.0,-6.0,-1.0,1.0,1.770094633102417
382,188.0,-470.0,728.0,0.0,11168.0,10718.0,-4114.0,3451.0,0.0,-1.0,13.0,6.0,0.0,3.0,-2.0,-2.0,1.7730393409729004
383,177.0,-316.0,465.0,0.0,11135.0,10732.0,-4164.0,3450.0,0.0,-1.0,13.0,6.0,0.0,3.0,-2.0,-2.0,1.7817254066467285
384,177.0,-316.0,465.0,0.0,11135.0,10732.0,-4164.0,3450.0,-8.0,-26.0,-19.0,-8.0,-5.0,-4.0,-6.0,-3.0,1.790402889251709
385,177.0,-316.0,465.0,0.0,11135.0,10732.0,-4164.0,3450.0,1.0,16.0,10.0,-2.0,2.0,-2.0,-9.0,-1.0,1.7925684452056885
386,124.0,-125.0,324.0,0.0,11109.0,10756.0,-4178.0,3442.0,1.0,16.0,10.0,-2.0,2.0,-2.0,-9.0,-1.0,1.8043286800384521
387,124.0,-125.0,324.0,0.0,11109.0,10756.0,-4178.0,3442.0,1.0,-2.0,-10.0,-5.0,-1.0,0.0,1.0,0.0,1.8062279224395752
388,124.0,-125.0,324.0,0.0,11109.0,10756.0,-4178.0,3442.0,0.0,9.0,1.0,-4.0,-5.0,-5.0,1.0,-1.0,1.8117880821228027
389,-1.0,-29.0,131.0,0.0,11101.0,10771.0,-4175.0,3425.0,0.0,9.0,1.0,-4.0,-5.0,-5.0,1.0,-1.0,1.826963186264038
390,-1.0,-29.0,131.0,0.0,11101.0,10771.0,-4175.0,3425.0,2.0,6.0,10.0,-1.0,-4.0,-3.0,-3.0,1.0,1.8343729972839355
391,-1.0,-29.0,131.0,0.0,11101.0,10771.0,-4175.0,3425.0,-6.0,-9.0,-7.0,-7.0,-3.0,-1.0,-1.0,-6.0,1.8376288414001465
392,43.0,77.0,-113.0,0.0,11099.0,10794.0,-4139.0,3403.0,-6.0,-9.0,-7.0,-7.0,-3.0,-1.0,-1.0,-6.0,1.841545820236206
393,43.0,77.0,-113.0,0.0,11099.0,10794.0,-4139.0,3403.0,0.0,1.0,-4.0,-4.0,3.0,0.0,1.0,-1.0,1.8501434326171875
394,43.0,77.0,-113.0,0.0,11099.0,10794.0,-4139.0,3403.0,-2.0,-8.0,-2.0,2.0,5.0,1.0,-9.0,-1.0,1.852158784866333
395,216.0,205.0,-322.0,0.0,11090.0,10841.0,-4058.0,3382.0,-2.0,-8.0,-2.0,2.0,5.0,1.0,-9.0,-1.0,1.8640265464782715
396,216.0,205.0,-322.0,0.0,11090.0,10841.0,-4058.0,3382.0,3.0,18.0,8.0,-1.0,-3.0,2.0,-1.0,1.0,1.865889072418213
397,216.0,205.0,-322.0,0.0,11090.0,10841.0,-4058.0,3382.0,0.0,-2.0,-10.0,1.0,1.0,0.0,1.0,0.0,1.871121883392334
398,305.0,306.0,-489.0,0.0,11076.0,10907.0,-3941.0,3353.0,0.0,-2.0,-10.0,1.0,1.0,0.0,1.0,0.0,1.887563705444336
399,305.0,306.0,-489.0,0.0,11076.0,10907.0,-3941.0,3353.0,1.0,-5.0,-10.0,-2.0,-4.0,0.0,-5.0,-1.0,1.8900115489959717
400,305.0,306.0,-489.0,0.0,11076.0,10907.0,-3941.0,3353.0,3.0,11.0,8.0,0.0,-5.0,-1.0,3.0,-2.0,1.893333911895752
401,200.0,304.0,-546.0,0.0,11072.0,10964.0,-3826.0,3315.0,3.0,11.0,8.0,0.0,-5.0,-1.0,3.0,-2.0,1.9012672901153564
402,200.0,304.0,-546.0,0.0,11072.0,10964.0,-3826.0,3315.0,-2.0,-3.0,-1.0,0.0,0.0,-4.0,-7.0,-2.0,1.909670114517212
403,200.0,304.0,-546.0,0.0,11072.0,10964.0,-3826.0,3315.0,-1.0,3.0,2.0,1.0,-1.0,-1.0,-10.0,-3.0,1.911517858505249
404,73.0,243.0,-588.0,0.0,11078.0,11003.0,-3730.0,3272.0,-1.0,3.0,2.0,1.0,-1.0,-1.0,-10.0,-3.0,1.9250400066375732
405,73.0,243.0,-588.0,0.0,11078.0,11003.0,-3730.0,3272.0,3.0,-1.0,-8.0,-1.0,0.0,3.0,8.0,10.0,1.9273383617401123
406,73.0,243.0,-588.0,0.0,11078.0,11003.0,-3730.0,3272.0,1.0,8.0,8.0,2.0,-5.0,-4.0,1.0,-2.0,1.9309091567993164
407,70.0,281.0,-542.0,0.0,11087.0,11032.0,-3640.0,3248.0,1.0,8.0,8.0,2.0,-5.0,-4.0,1.0,-2.0,1.9475507736206055
408,70.0,281.0,-542.0,0.0,11087.0,11032.0,-3640.0,3248.0,3.0,9.0,15.0,0.0,-1.0,-3.0,-9.0,0.0,1.9495234489440918
409,70.0,281.0,-542.0,0.0,11087.0,11032.0,-3640.0,3248.0,-2.0,-5.0,1.0,1.0,1.0,-2.0,6.0,-1.0,1.9513661861419678
410,151.0,364.0,-426.0,0.0,11088.0,11059.0,-3550.0,3253.0,-2.0,-5.0,1.0,1.0,1.0,-2.0,6.0,-1.0,1.9609193801879883
411,151.0,364.0,-426.0,0.0,11088.0,11059.0,-3550.0,3253.0,-4.0,-3.0,-4.0,-2.0,-1.0,0.0,-3.0,-2.0,1.9697866439819336
412,151.0,364.0,-426.0,0.0,11088.0,11059.0,-3550.0,3253.0,-1.0,4.0,1.0,-1.0,0.0,-2.0,-10.0,-1.0,1.972064733505249
413,193.0,288.0,-365.0,0.0,11079.0,11092.0,-3472.0,3254.0,-1.0,4.0,1.0,-1.0,0.0,-2.0,-10.0,-1.0,1.9840493202209473
414,193.0,288.0,-365.0,0.0,11079.0,11092.0,-3472.0,3254.0,-2.0,-2.0,-1.0,-4.0,-2.0,-2.0,0.0,-2.0,1.9862017631530762
415,193.0,288.0,-365.0,0.0,11079.0,11092.0,-3472.0,3254.0,-3.0,-11.0,3.0,4.0,-1.0,-2.0,0.0,-1.0,1.9911603927612305
416,59.0,215.0,-298.0,0.0,11081.0,11108.0,-3416.0,3250.0,-3.0,-11.0,3.0,4.0,-1.0,-2.0,0.0,-1.0,2.0102972984313965
417,59.0,215.0,-298.0,0.0,11081.0,11108.0,-3416.0,3250.0,0.0,1.0,8.0,3.0,0.0,-1.0,-3.0,0.0,2.0126185417175293
418,59.0,215.0,-298.0,0.0,11081.0,11108.0,-3416.0,3250.0,-2.0,-8.0,-6.0,-2.0,-1.0,-1.0,6.0,6.0,2.0144145488739014
419,-32.0,197.0,-189.0,0.0,11091.0,11106.0,-3382.0,3259.0,-2.0,-8.0,-6.0,-2.0,-1.0,-1.0,6.0,6.0,2.0322723388671875
420,-32.0,197.0,-189.0,0.0,11091.0,11106.0,-3382.0,3259.0,-3.0,2.0,-5.0,-5.0,-4.0,-3.0,-7.0,-7.0,2.036120653152466
421,-32.0,197.0,-189.0,0.0,11091.0,11106.0,-3382.0,3259.0,-2.0,-1.0,0.0,-3.0,-1.0,-3.0,-12.0,-8.0,2.039327383041382
422,-15.0,136.0,-131.0,0.0,11096.0,11104.0,-3362.0,3270.0,-2.0,-1.0,0.0,-3.0,-1.0,-3.0,-12.0,-8.0,2.04419207572937
423,-15.0,136.0,-131.0,0.0,11096.0,11104.0,-3362.0,3270.0,-3.0,-2.0,-7.0,-3.0,0.0,1.0,1.0,1.0,2.0461814403533936
424,-15.0,136.0,-131.0,0.0,11096.0,11104.0,-3362.0,3270.0,1.0,5.0,-7.0,1.0,1.0,3.0,2.0,4.0,2.0512161254882812
425,9.0,116.0,-116.0,0.0,11095.0,11107.0,-3347.0,3280.0,1.0,5.0,-7.0,1.0,1.0,3.0,2.0,4.0,2.0673673152923584
426,9.0,116.0,-116.0,0.0,11095.0,11107.0,-3347.0,3280.0,-3.0,-9.0,-8.0,-1.0,-1.0,-3.0,-3.0,0.0,2.0698928833007812
427,9.0,116.0,-116.0,0.0,11095.0,11107.0,-3347.0,3280.0,2.0,15.0,11.0,-1.0,-1.0,0.0,12.0,1.0,2.0738649368286133
428,-35.0,110.0,-51.0,0.0,11095.0,11103.0,-3343.0,3296.0,2.0,15.0,11.0,-1.0,-1.0,0.0,12.0,1.0,2.0911829471588135
429,-35.0,110.0,-51.0,0.0,11095.0,11103.0,-3343.0,3296.0,3.0,7.0,8.0,2.0,0.0,1.0,0.0,1.0,2.0958802700042725
430,-23.0,93.0,-9.0,0.0,11092.0,11099.0,-3345.0,3316.0,3.0,7.0,8.0,2.0,0.0,1.0,0.0,1.0,2.0995383262634277
431,-23.0,93.0,-9.0,0.0,11092.0,11099.0,-3345.0,3316.0,1.0,-2.0,-2.0,1.0,0.0,1.0,-9.0,6.0,2.102731943130493
432,-23.0,93.0,-9.0,0.0,11092.0,11099.0,-3345.0,3316.0,1.0,4.0,1.0,1.0,-1.0,-1.0,9.0,0.0,2.1046535968780518
433,12.0,90.0,-13.0,0.0,11089.0,11099.0,-3340.0,3333.0,1.0,4.0,1.0,1.0,-1.0,-1.0,9.0,0.0,2.1116559505462646
434,12.0,90.0,-13.0,0.0,11089.0,11099.0,-3340.0,3333.0,2.0,7.0,-3.0,-3.0,-1.0,1.0,-5.0,1.0,2.113525390625
435,12.0,90.0,-13.0,0.0,11089.0,11099.0,-3340.0,3333.0,2.0,4.0,3.0,2.0,2.0,0.0,-3.0,-1.0,2.128126382827759
436,32.0,68.0,-10.0,0.0,11081.0,11105.0,-3336.0,3344.0,2.0,4.0,3.0,2.0,2.0,0.0,-3.0,-1.0,2.131524085998535
437,32.0,68.0,-10.0,0.0,11081.0,11105.0,-3336.0,3344.0,-2.0,-4.0,-6.0,-2.0,-1.0,-1.0,7.0,-4.0,2.135043144226074
438,32.0,68.0,-10.0,0.0,11081.0,11105.0,-3336.0,3344.0,-1.0,-1.0,2.0,0.0,1.0,0.0,-1.0,-1.0,2.1490418910980225
439,12.0,3.0,-19.0,0.0,11073.0,11110.0,-3341.0,3348.0,-1.0,-1.0,2.0,0.0,1.0,0.0,-1.0,-1.0,2.150838613510132
440,12.0,3.0,-19.0,0.0,11073.0,11110.0,-3341.0,3348.0,-3.0,-3.0,-1.0,-2.0,1.0,1.0,-10.0,-1.0,2.157923936843872
441,12.0,3.0,-19.0,0.0,11073.0,11110.0,-3341.0,3348.0,-2.0,-7.0,-4.0,0.0,-1.0,0.0,8.0,-2.0,2.16357159614563
442,27.0,-8.0,-26.0,0.0,11063.0,11118.0,-3346.0,3350.0,-2.0,-7.0,-4.0,0.0,-1.0,0.0,8.0,-2.0,2.171769142150879
443,27.0,-8.0,-26.0,0.0,11063.0,11118.0,-3346.0,3350.0,-2.0,-6.0,-10.0,-2.0,-4.0,-2.0,-4.0,0.0,2.173940420150757
444,27.0,-8.0,-26.0,0.0,11063.0,11118.0,-3346.0,3350.0,0.0,-3.0,-5.0,-6.0,2.0,1.0,-2.0,1.0,2.188035011291504
445,42.0,-11.0,-19.0,0.0,11050.0,11130.0,-3350.0,3350.0,0.0,-3.0,-5.0,-6.0,2.0,1.0,-2.0,1.0,2.1942973136901855
446,42.0,-11.0,-19.0,0.0,11050.0,11130.0,-3350.0,3350.0,2.0,5.0,2.0,-1.0,1.0,-1.0,7.0,-4.0,2.1961653232574463
447,42.0,-11.0,-19.0,0.0,11050.0,11130.0,-3350.0,3350.0,-3.0,0.0,1.0,-2.0,-1.0,-2.0,-3.0,-3.0,2.2103092670440674
448,80.0,-23.0,-32.0,0.0,11032.0,11147.0,-3351.0,3347.0,-3.0,0.0,1.0,-2.0,-1.0,-2.0,-3.0,-3.0,2.214092254638672
449,80.0,-23.0,-32.0,0.0,11032.0,11147.0,-3351.0,3347.0,2.0,11.0,13.0,-1.0,-3.0,-1.0,-9.0,0.0,2.2182669639587402
450,80.0,-23.0,-32.0,0.0,11032.0,11147.0,-3351.0,3347.0,4.0,27.0,18.0,0.0,1.0,1.0,4.0,4.0,2.2263143062591553
451,91.0,-15.0,-8.0,0.0,11011.0,11170.0,-3351.0,3344.0,4.0,27.0,18.0,0.0,1.0,1.0,4.0,4.0,2.231787919998169
452,91.0,-15.0,-8.0,0.0,11011.0,11170.0,-3351.0,3344.0,-1.0,0.0,4.0,-2.0,-2.0,-2.0,-4.0,-1.0,2.233769416809082
453,91.0,-15.0,-8.0,0.0,11011.0,11170.0,-3351.0,3344.0,-3.0,-10.0,-3.0,0.0,-2.0,-3.0,-5.0,-2.0,2.2486560344696045
454,94.0,-20.0,33.0,0.0,10986.0,11192.0,-3358.0,3347.0,-3.0,-10.0,-3.0,0.0,-2.0,-3.0,-5.0,-2.0,2.2519991397857666
455,94.0,-20.0,33.0,0.0,10986.0,11192.0,-3358.0,3347.0,-2.0,-2.0,1.0,3.0,0.0,-1.0,8.0,-2.0,2.2550816535949707
456,94.0,-20.0,33.0,0.0,10986.0,11192.0,-3358.0,3347.0,-3.0,-7.0,-12.0,-2.0,-4.0,-2.0,-4.0,1.0,2.2698593139648438
457,116.0,-17.0,-3.0,0.0,10960.0,11213.0,-3365.0,3353.0,-3.0,-7.0,-12.0,-2.0,-4.0,-2.0,-4.0,1.0,2.273536443710327
458,116.0,-17.0,-3.0,0.0,10960.0,11213.0,-3365.0,3353.0,-6.0,-23.0,-21.0,0.0,1.0,-2.0,-9.0,-3.0,2.277360200881958
459,116.0,-17.0,-3.0,0.0,10960.0,11213.0,-3365.0,3353.0,-1.0,-1.0,2.0,-2.0,3.0,0.0,2.0,-1.0,2.284745693206787
460,255.0,6.0,-46.0,0.0,10920.0,11248.0,-3363.0,3367.0,-1.0,-1.0,2.0,-2.0,3.0,0.0,2.0,-1.0,2.292236804962158
461,255.0,6.0,-46.0,0.0,10920.0,11248.0,-3363.0,3367.0,-2.0,-9.0,-7.0,-1.0,-2.0,-1.0,-10.0,0.0,2.294126272201538
462,255.0,6.0,-46.0,0.0,10920.0,11248.0,-3363.0,3367.0,-3.0,-16.0,-13.0,-3.0,-5.0,-1.0,-4.0,0.0,2.307858943939209
463,370.0,45.0,-37.0,0.0,10872.0,11294.0,-3346.0,3387.0,-3.0,-16.0,-13.0,-3.0,-5.0,-1.0,-4.0,0.0,2.311574935913086
464,370.0,45.0,-37.0,0.0,10872.0,11294.0,-3346.0,3387.0,-3.0,-5.0,-2.0,-1.0,-2.0,1.0,8.0,-5.0,2.314739465713501
465,370.0,45.0,-37.0,0.0,10872.0,11294.0,-3346.0,3387.0,-2.0,-2.0,-8.0,-4.0,-3.0,-4.0,-8.0,-6.0,2.3298962116241455
466,365.0,49.0,-20.0,0.0,10826.0,11341.0,-3323.0,3400.0,-2.0,-2.0,-8.0,-4.0,-3.0,-4.0,-8.0,-6.0,2.332819700241089
467,365.0,49.0,-20.0,0.0,10826.0,11341.0,-3323.0,3400.0,3.0,4.0,-1.0,0.0,0.0,2.0,-7.0,2.0,2.3372128009796143
468,365.0,49.0,-20.0,0.0,10826.0,11341.0,-3323.0,3400.0,-4.0,-16.0,-6.0,2.0,-3.0,-6.0,2.0,-3.0,2.3531484603881836
469,244.0,43.0,4.0,0.0,10796.0,11370.0,-3307.0,3412.0,-4.0,-16.0,-6.0,2.0,-3.0,-6.0,2.0,-3.0,2.3573951721191406
470,244.0,43.0,4.0,0.0,10796.0,11370.0,-3307.0,3412.0,-1.0,7.0,4.0,-1.0,0.0,-2.0,-13.0,-2.0,2.361271619796753
471,244.0,43.0,4.0,0.0,10796.0,11370.0,-3307.0,3412.0,3.0,6.0,11.0,3.0,2.0,1.0,-7.0,0.0,2.367185354232788
472,219.0,38.0,18.0,0.0,10768.0,11394.0,-3300.0,3429.0,3.0,6.0,11.0,3.0,2.0,1.0,-7.0,0.0,2.369459867477417
473,219.0,38.0,18.0,0.0,10768.0,11394.0,-3300.0,3429.0,2.0,2.0,-2.0,-2.0,-1.0,-1.0,7.0,3.0,2.3752076625823975
474,219.0,38.0,18.0,0.0,10768.0,11394.0,-3300.0,3429.0,-4.0,-4.0,-3.0,-1.0,-1.0,0.0,-7.0,-2.0,2.389868974685669
475,268.0,52.0,13.0,0.0,10733.0,11425.0,-3288.0,3448.0,-4.0,-4.0,-3.0,-1.0,-1.0,0.0,-7.0,-2.0,2.39298677444458
476,268.0,52.0,13.0,0.0,10733.0,11425.0,-3288.0,3448.0,0.0,0.0,0.0,0.0,0.0,-1.0,-8.0,0.0,2.397042751312256
477,268.0,52.0,13.0,0.0,10733.0,11425.0,-3288.0,3448.0,9.0,25.0,1.0,-3.0,3.0,5.0,2.0,6.0,2.41265869140625
478,241.0,42.0,10.0,0.0,10705.0,11452.0,-3271.0,3459.0,9.0,25.0,1.0,-3.0,3.0,5.0,2.0,6.0,2.415541410446167
479,241.0,42.0,10.0,0.0,10705.0,11452.0,-3271.0,3459.0,-1.0,-1.0,0.0,-1.0,0.0,0.0,-8.0,0.0,2.4189934730529785
480,241.0,42.0,10.0,0.0,10705.0,11452.0,-3271.0,3459.0,-3.0,-3.0,-5.0,-1.0,0.0,0.0,-6.0,0.0,2.427128314971924
481,171.0,21.0,45.0,0.0,10685.0,11468.0,-3267.0,3473.0,-3.0,-3.0,-5.0,-1.0,0.0,0.0,-6.0,0.0,2.4289097785949707
482,171.0,21.0,45.0,0.0,10685.0,11468.0,-3267.0,3473.0,1.0,8.0,9.0,-2.0,1.0,0.0,11.0,-2.0,2.4345335960388184
483,171.0,21.0,45.0,0.0,10685.0,11468.0,-3267.0,3473.0,-7.0,-11.0,0.0,-2.0,-3.0,-3.0,-3.0,-6.0,2.449444532394409
484,91.0,30.0,39.0,0.0,10675.0,11475.0,-3263.0,3484.0,-7.0,-11.0,0.0,-2.0,-3.0,-3.0,-3.0,-6.0,2.4513118267059326
485,91.0,30.0,39.0,0.0,10675.0,11475.0,-3263.0,3484.0,-2.0,-4.0,10.0,2.0,-1.0,-1.0,-3.0,-4.0,2.456263780593872
486,91.0,30.0,39.0,0.0,10675.0,11475.0,-3263.0,3484.0,0.0,5.0,1.0,-2.0,-1.0,0.0,8.0,-2.0,2.464064836502075
487,14.0,59.0,77.0,0.0,10673.0,11470.0,-3266.0,3502.0,0.0,5.0,1.0,-2.0,-1.0,0.0,8.0,-2.0,2.472395896911621
488,14.0,59.0,77.0,0.0,10673.0,11470.0,-3266.0,3502.0,-4.0,-8.0,-6.0,-2.0,-2.0,-2.0,-3.0,0.0,2.4751136302948
489,14.0,59.0,77.0,0.0,10673.0,11470.0,-3266.0,3502.0,-2.0,-2.0,1.0,1.0,-4.0,-2.0,-1.0,-2.0,2.4876785278320312
490,25.0,62.0,47.0,0.0,10671.0,11467.0,-3265.0,3519.0,-2.0,-2.0,1.0,1.0,-4.0,-2.0,-1.0,-2.0,2.4908478260040283
491,25.0,62.0,47.0,0.0,10671.0,11467.0,-3265.0,3519.0,-1.0,3.0,-2.0,0.0,0.0,1.0,13.0,1.0,2.494509696960449
492,25.0,62.0,47.0,0.0,10671.0,11467.0,-3265.0,3519.0,6.0,23.0,21.0,2.0,-2.0,-3.0,-2.0,2.0,2.5102450847625732
493,27.0,50.0,47.0,0.0,10670.0,11466.0,-3262.0,3530.0,6.0,23.0,21.0,2.0,-2.0,-3.0,-2.0,2.0,2.51320481300354
494,27.0,50.0,47.0,0.0,10670.0,11466.0,-3262.0,3530.0,-2.0,-6.0,-3.0,-3.0,-1.0,-1.0,-7.0,-7.0,2.516555070877075
495,27.0,50.0,47.0,0.0,10670.0,11466.0,-3262.0,3530.0,-2.0,-9.0,-7.0,0.0,1.0,0.0,5.0,1.0,2.525205135345459
496,2.0,59.0,24.0,0.0,10671.0,11465.0,-3255.0,3537.0,-2.0,-9.0,-7.0,0.0,1.0,0.0,5.0,1.0,2.5317678451538086
497,2.0,59.0,24.0,0.0,10671.0,11465.0,-3255.0,3537.0,0.0,2.0,0.0,1.0,2.0,0.0,0.0,2.0,2.5336480140686035
498,2.0,59.0,24.0,0.0,10671.0,11465.0,-3255.0,3537.0,-1.0,-7.0,-6.0,-3.0,-1.0,-1.0,-1.0,-1.0,2.5475025177001953
499,-35.0,66.0,-3.0,0.0,10674.0,11460.0,-3251.0,3545.0,-1.0,-7.0,-6.0,-3.0,-1.0,-1.0,-1.0,-1.0,2.5506584644317627
