,Gyro 0,Gyro 1,Gyro 2,Label,Orientation 0,Orientation 1,Orientation 2,Orientation 3,Sensor 0,Sensor 1,Sensor 2,Sensor 3,Sensor 4,Sensor 5,Sensor 6,Sensor 7,Timestamp
0,-40.0,78.0,-12.0,0.0,10959.0,9526.0,-7538.0,-864.0,0.0,-3.0,-3.0,-2.0,-1.0,-1.0,-1.0,-3.0,1.9073486328125e-06
1,-40.0,78.0,-12.0,0.0,10959.0,9526.0,-7538.0,-864.0,-1.0,-3.0,-2.0,-1.0,-2.0,-1.0,1.0,-2.0,0.0024232864379882812
2,-40.0,78.0,-12.0,0.0,10959.0,9526.0,-7538.0,-864.0,1.0,10.0,2.0,-3.0,-2.0,-1.0,-3.0,1.0,0.006682395935058594
3,-29.0,82.0,-16.0,0.0,10967.0,9527.0,-7527.0,-860.0,1.0,10.0,2.0,-3.0,-2.0,-1.0,-3.0,1.0,0.011022329330444336
4,-29.0,82.0,-16.0,0.0,10967.0,9527.0,-7527.0,-860.0,-1.0,-2.0,-2.0,-1.0,-5.0,-2.0,0.0,0.0,0.013050079345703125
5,-52.0,82.0,6.0,0.0,10977.0,9523.0,-7518.0,-855.0,-1.0,-2.0,-2.0,-1.0,-5.0,-2.0,0.0,0.0,0.014960050582885742
6,-52.0,82.0,6.0,0.0,10977.0,9523.0,-7518.0,-855.0,-2.0,1.0,0.0,0.0,1.0,0.0,-2.0,0.0,0.01687312126159668
7,-52.0,82.0,6.0,0.0,10977.0,9523.0,-7518.0,-855.0,0.0,9.0,8.0,1.0,-1.0,1.0,1.0,-1.0,0.018862247467041016
8,-86.0,68.0,10.0,0.0,10990.0,9514.0,-7510.0,-855.0,0.0,9.0,8.0,1.0,-1.0,1.0,1.0,-1.0,0.02184915542602539
9,-86.0,68.0,10.0,0.0,10990.0,9514.0,-7510.0,-855.0,0.0,-3.0,0.0,-3.0,2.0,0.0,-2.0,-3.0,0.02415013313293457
10,-86.0,68.0,10.0,0.0,10990.0,9514.0,-7510.0,-855.0,0.0,-6.0,-2.0,-2.0,4.0,1.0,5.0,1.0,0.026321887969970703
11,-83.0,47.0,15.0,0.0,11003.0,9503.0,-7505.0,-855.0,0.0,-6.0,-2.0,-2.0,4.0,1.0,5.0,1.0,0.028130769729614258
12,-83.0,47.0,15.0,0.0,11003.0,9503.0,-7505.0,-855.0,-1.0,1.0,2.0,0.0,-5.0,-6.0,-1.0,0.0,0.031510353088378906
13,-83.0,47.0,15.0,0.0,11003.0,9503.0,-7505.0,-855.0,-2.0,-4.0,-7.0,-1.0,2.0,1.0,-1.0,1.0,0.03335857391357422
14,-61.0,44.0,11.0,0.0,11014.0,9495.0,-7498.0,-856.0,-2.0,-4.0,-7.0,-1.0,2.0,1.0,-1.0,1.0,0.03513336181640625
15,-61.0,44.0,11.0,0.0,11014.0,9495.0,-7498.0,-856.0,-1.0,-2.0,-5.0,-1.0,-2.0,-1.0,-1.0,-1.0,0.03696417808532715
16,-61.0,44.0,11.0,0.0,11014.0,9495.0,-7498.0,-856.0,-3.0,-7.0,-4.0,1.0,0.0,-2.0,-3.0,-4.0,0.03872203826904297
17,-39.0,47.0,4.0,0.0,11022.0,9493.0,-7489.0,-858.0,-3.0,-7.0,-4.0,1.0,0.0,-2.0,-3.0,-4.0,0.04049062728881836
18,-39.0,47.0,4.0,0.0,11022.0,9493.0,-7489.0,-858.0,-1.0,2.0,1.0,-2.0,-1.0,0.0,1.0,0.0,0.04267263412475586
19,-39.0,47.0,4.0,0.0,11022.0,9493.0,-7489.0,-858.0,-2.0,-8.0,-1.0,1.0,-1.0,-3.0,-2.0,-1.0,0.04445004463195801
20,-59.0,37.0,-2.0,0.0,11030.0,9490.0,-7481.0,-864.0,-2.0,-8.0,-1.0,1.0,-1.0,-3.0,-2.0,-1.0,0.04626607894897461
21,-59.0,37.0,-2.0,0.0,11030.0,9490.0,-7481.0,-864.0,-3.0,-9.0,-2.0,-1.0,-2.0,1.0,1.0,-3.0,0.048111915588378906
22,-59.0,37.0,-2.0,0.0,11030.0,9490.0,-7481.0,-864.0,0.0,-3.0,-1.0,0.0,1.0,0.0,-1.0,0.0,0.050343990325927734
23,-78.0,31.0,2.0,0.0,11037.0,9486.0,-7474.0,-872.0,0.0,-3.0,-1.0,0.0,1.0,0.0,-1.0,0.0,0.053258419036865234
24,-78.0,31.0,2.0,0.0,11037.0,9486.0,-7474.0,-872.0,-2.0,-3.0,3.0,3.0,1.0,1.0,1.0,-2.0,0.055585622787475586
25,-78.0,31.0,2.0,0.0,11037.0,9486.0,-7474.0,-872.0,-2.0,0.0,-1.0,-5.0,-2.0,-5.0,-4.0,-1.0,0.057363033294677734
26,-88.0,32.0,8.0,0.0,11047.0,9478.0,-7468.0,-878.0,-2.0,0.0,-1.0,-5.0,-2.0,-5.0,-4.0,-1.0,0.05919337272644043
27,-88.0,32.0,8.0,0.0,11047.0,9478.0,-7468.0,-878.0,-1.0,-1.0,2.0,0.0,-1.0,-1.0,-2.0,-1.0,0.06105780601501465
28,-88.0,32.0,8.0,0.0,11047.0,9478.0,-7468.0,-878.0,1.0,0.0,-2.0,0.0,-1.0,-1.0,0.0,-2.0,0.06345462799072266
29,-53.0,20.0,6.0,0.0,11054.0,9473.0,-7464.0,-883.0,1.0,0.0,-2.0,0.0,-1.0,-1.0,0.0,-2.0,0.06590652465820312
30,-53.0,20.0,6.0,0.0,11054.0,9473.0,-7464.0,-883.0,2.0,2.0,-5.0,-2.0,-1.0,-5.0,0.0,0.0,0.06776070594787598
31,-53.0,20.0,6.0,0.0,11054.0,9473.0,-7464.0,-883.0,2.0,2.0,2.0,-1.0,-1.0,0.0,0.0,0.0,0.0695338249206543
32,-37.0,17.0,-1.0,0.0,11059.0,9470.0,-7459.0,-887.0,2.0,2.0,2.0,-1.0,-1.0,0.0,0.0,0.0,0.07133269309997559
33,-37.0,17.0,-1.0,0.0,11059.0,9470.0,-7459.0,-887.0,-2.0,0.0,-5.0,-4.0,-1.0,-1.0,-2.0,-1.0,0.07317614555358887
34,-37.0,17.0,-1.0,0.0,11059.0,9470.0,-7459.0,-887.0,-1.0,1.0,6.0,2.0,1.0,0.0,-2.0,1.0,0.07514309883117676
35,-45.0,10.0,4.0,0.0,11064.0,9467.0,-7456.0,-892.0,-1.0,1.0,6.0,2.0,1.0,0.0,-2.0,1.0,0.07705831527709961
36,-45.0,10.0,4.0,0.0,11064.0,9467.0,-7456.0,-892.0,-1.0,-2.0,-1.0,0.0,-3.0,1.0,2.0,-1.0,0.0789644718170166
37,-45.0,10.0,4.0,0.0,11064.0,9467.0,-7456.0,-892.0,0.0,-3.0,-3.0,-2.0,-1.0,0.0,-1.0,-1.0,0.08119940757751465
38,-39.0,0.0,16.0,0.0,11066.0,9463.0,-7457.0,-894.0,0.0,-3.0,-3.0,-2.0,-1.0,0.0,-1.0,-1.0,0.08446359634399414
39,-39.0,0.0,16.0,0.0,11066.0,9463.0,-7457.0,-894.0,0.0,0.0,-2.0,1.0,2.0,0.0,-2.0,0.0,0.08666682243347168
40,-39.0,0.0,16.0,0.0,11066.0,9463.0,-7457.0,-894.0,1.0,6.0,5.0,-1.0,0.0,1.0,0.0,-2.0,0.08844184875488281
41,-42.0,-3.0,19.0,0.0,11069.0,9459.0,-7459.0,-898.0,1.0,6.0,5.0,-1.0,0.0,1.0,0.0,-2.0,0.09022402763366699
42,-42.0,-3.0,19.0,0.0,11069.0,9459.0,-7459.0,-898.0,-2.0,0.0,-7.0,-3.0,-3.0,-2.0,-2.0,0.0,0.0921025276184082
43,-42.0,-3.0,19.0,0.0,11069.0,9459.0,-7459.0,-898.0,-1.0,2.0,3.0,-1.0,-3.0,-2.0,-2.0,-1.0,0.09387445449829102
44,-36.0,-1.0,20.0,0.0,11073.0,9453.0,-7458.0,-900.0,-1.0,2.0,3.0,-1.0,-3.0,-2.0,-2.0,-1.0,0.09652042388916016
45,-36.0,-1.0,20.0,0.0,11073.0,9453.0,-7458.0,-900.0,0.0,0.0,4.0,-2.0,2.0,2.0,-1.0,-1.0,0.0988779067993164
46,-36.0,-1.0,20.0,0.0,11073.0,9453.0,-7458.0,-900.0,-2.0,-1.0,-7.0,1.0,0.0,1.0,-2.0,-1.0,0.10071349143981934
47,-10.0,-4.0,-2.0,0.0,11073.0,9453.0,-7458.0,-900.0,-2.0,-1.0,-7.0,1.0,0.0,1.0,-2.0,-1.0,0.10252594947814941
48,-10.0,-4.0,-2.0,0.0,11073.0,9453.0,-7458.0,-900.0,2.0,4.0,3.0,1.0,1.0,0.0,2.0,2.0,0.10437560081481934
49,-10.0,-4.0,-2.0,0.0,11073.0,9453.0,-7458.0,-900.0,3.0,-1.0,4.0,0.0,-4.0,-3.0,-1.0,-2.0,0.10616064071655273
50,0.0,-1.0,6.0,0.0,11073.0,9454.0,-7458.0,-900.0,3.0,-1.0,4.0,0.0,-4.0,-3.0,-1.0,-2.0,0.10802817344665527
51,0.0,-1.0,6.0,0.0,11073.0,9454.0,-7458.0,-900.0,-1.0,-5.0,-4.0,-3.0,-2.0,-1.0,-1.0,-1.0,0.10996651649475098
52,0.0,-1.0,6.0,0.0,11073.0,9454.0,-7458.0,-900.0,-2.0,-3.0,-2.0,0.0,0.0,2.0,0.0,-2.0,0.11293959617614746
53,0.0,-9.0,16.0,0.0,11071.0,9454.0,-7462.0,-899.0,-2.0,-3.0,-2.0,0.0,0.0,2.0,0.0,-2.0,0.115753173828125
54,0.0,-9.0,16.0,0.0,11071.0,9454.0,-7462.0,-899.0,-3.0,-4.0,4.0,0.0,0.0,-1.0,-1.0,1.0,0.11787962913513184
55,0.0,-9.0,16.0,0.0,11071.0,9454.0,-7462.0,-899.0,-1.0,-3.0,-2.0,-1.0,-1.0,-2.0,-3.0,1.0,0.11964535713195801
56,-4.0,-19.0,-2.0,0.0,11068.0,9455.0,-7465.0,-902.0,-1.0,-3.0,-2.0,-1.0,-1.0,-2.0,-3.0,1.0,0.1214139461517334
57,-4.0,-19.0,-2.0,0.0,11068.0,9455.0,-7465.0,-902.0,1.0,5.0,2.0,0.0,-1.0,-6.0,-3.0,-2.0,0.12331199645996094
58,-4.0,-19.0,-2.0,0.0,11068.0,9455.0,-7465.0,-902.0,0.0,-3.0,-3.0,-3.0,-3.0,1.0,0.0,0.0,0.12511682510375977
59,-16.0,-6.0,6.0,0.0,11068.0,9455.0,-7464.0,-902.0,0.0,-3.0,-3.0,-3.0,-3.0,1.0,0.0,0.0,0.12693071365356445
60,-16.0,-6.0,6.0,0.0,11068.0,9455.0,-7464.0,-902.0,-1.0,-1.0,-1.0,-1.0,0.0,2.0,1.0,-1.0,0.12962746620178223
61,-16.0,-6.0,6.0,0.0,11068.0,9455.0,-7464.0,-902.0,-2.0,-3.0,-8.0,-2.0,-1.0,-2.0,-2.0,-2.0,0.1320798397064209
62,-4.0,2.0,1.0,0.0,11068.0,9455.0,-7464.0,-903.0,-2.0,-3.0,-8.0,-2.0,-1.0,-2.0,-2.0,-2.0,0.13384675979614258
63,-4.0,2.0,1.0,0.0,11068.0,9455.0,-7464.0,-903.0,4.0,5.0,1.0,1.0,2.0,5.0,2.0,1.0,0.13569164276123047
64,-4.0,2.0,1.0,0.0,11068.0,9455.0,-7464.0,-903.0,0.0,-3.0,-9.0,-5.0,-1.0,-7.0,-1.0,0.0,0.13751673698425293
65,13.0,1.0,2.0,0.0,11068.0,9455.0,-7464.0,-903.0,0.0,-3.0,-9.0,-5.0,-1.0,-7.0,-1.0,0.0,0.13930106163024902
66,13.0,1.0,2.0,0.0,11068.0,9455.0,-7464.0,-903.0,-4.0,-4.0,4.0,0.0,-3.0,-3.0,-4.0,-1.0,0.1412029266357422
67,13.0,1.0,2.0,0.0,11068.0,9455.0,-7464.0,-903.0,-2.0,2.0,4.0,1.0,3.0,2.0,3.0,-2.0,0.14440417289733887
68,-5.0,-6.0,16.0,0.0,11067.0,9454.0,-7467.0,-902.0,-2.0,2.0,4.0,1.0,3.0,2.0,3.0,-2.0,0.14821577072143555
69,-5.0,-6.0,16.0,0.0,11067.0,9454.0,-7467.0,-902.0,-2.0,-5.0,-5.0,-1.0,1.0,0.0,0.0,-2.0,0.15029549598693848
70,-5.0,-6.0,16.0,0.0,11067.0,9454.0,-7467.0,-902.0,-3.0,-3.0,-4.0,0.0,-1.0,0.0,-1.0,0.0,0.15206503868103027
71,1.0,-11.0,11.0,0.0,11066.0,9455.0,-7467.0,-902.0,-3.0,-3.0,-4.0,0.0,-1.0,0.0,-1.0,0.0,0.15382766723632812
72,1.0,-11.0,11.0,0.0,11066.0,9455.0,-7467.0,-902.0,1.0,2.0,0.0,1.0,-3.0,0.0,-1.0,1.0,0.15567326545715332
73,1.0,-11.0,11.0,0.0,11066.0,9455.0,-7467.0,-902.0,-1.0,-1.0,-3.0,-1.0,0.0,-1.0,-3.0,-2.0,0.15742969512939453
74,-10.0,-2.0,15.0,0.0,11066.0,9455.0,-7467.0,-902.0,-1.0,-1.0,-3.0,-1.0,0.0,-1.0,-3.0,-2.0,0.1594858169555664
75,-10.0,-2.0,15.0,0.0,11066.0,9455.0,-7467.0,-902.0,3.0,7.0,5.0,0.0,2.0,-1.0,-1.0,0.0,0.16140079498291016
76,-10.0,-2.0,15.0,0.0,11066.0,9455.0,-7467.0,-902.0,2.0,6.0,7.0,1.0,-2.0,0.0,-2.0,-1.0,0.16316723823547363
77,-1.0,3.0,18.0,0.0,11065.0,9454.0,-7471.0,-898.0,2.0,6.0,7.0,1.0,-2.0,0.0,-2.0,-1.0,0.16492342948913574
78,-1.0,3.0,18.0,0.0,11065.0,9454.0,-7471.0,-898.0,-2.0,-7.0,-7.0,-1.0,-3.0,-1.0,1.0,-4.0,0.16681194305419922
79,-1.0,3.0,18.0,0.0,11065.0,9454.0,-7471.0,-898.0,-1.0,-1.0,-2.0,0.0,-1.0,-4.0,-1.0,0.0,0.1685628890991211
80,-6.0,7.0,36.0,0.0,11066.0,9450.0,-7474.0,-893.0,-1.0,-1.0,-2.0,0.0,-1.0,-4.0,-1.0,0.0,0.1703324317932129
81,-6.0,7.0,36.0,0.0,11066.0,9450.0,-7474.0,-893.0,-1.0,2.0,-8.0,-3.0,-1.0,-3.0,-2.0,0.0,0.17215609550476074
82,-6.0,7.0,36.0,0.0,11066.0,9450.0,-7474.0,-893.0,-4.0,-9.0,-1.0,5.0,3.0,1.0,-1.0,1.0,0.17487120628356934
83,-13.0,-3.0,39.0,0.0,11067.0,9446.0,-7479.0,-888.0,-4.0,-9.0,-1.0,5.0,3.0,1.0,-1.0,1.0,0.17726683616638184
84,-13.0,-3.0,39.0,0.0,11067.0,9446.0,-7479.0,-888.0,-3.0,-6.0,0.0,-3.0,-3.0,-3.0,-2.0,-2.0,0.1802222728729248
85,-13.0,-3.0,39.0,0.0,11067.0,9446.0,-7479.0,-888.0,0.0,3.0,3.0,1.0,1.0,1.0,-1.0,-1.0,0.1824040412902832
86,-30.0,-9.0,34.0,0.0,11067.0,9440.0,-7485.0,-886.0,0.0,3.0,3.0,1.0,1.0,1.0,-1.0,-1.0,0.18421721458435059
87,-30.0,-9.0,34.0,0.0,11067.0,9440.0,-7485.0,-886.0,0.0,-2.0,-2.0,-1.0,-1.0,1.0,-1.0,-1.0,0.18606066703796387
88,-30.0,-9.0,34.0,0.0,11067.0,9440.0,-7485.0,-886.0,-2.0,-1.0,-1.0,-2.0,-3.0,-2.0,-1.0,-1.0,0.18781089782714844
89,-34.0,-11.0,41.0,0.0,11070.0,9434.0,-7491.0,-886.0,-2.0,-1.0,-1.0,-2.0,-3.0,-2.0,-1.0,-1.0,0.1895604133605957
90,-34.0,-11.0,41.0,0.0,11070.0,9434.0,-7491.0,-886.0,-1.0,-4.0,-5.0,0.0,-1.0,0.0,-1.0,-2.0,0.19162607192993164
91,-34.0,-11.0,41.0,0.0,11070.0,9434.0,-7491.0,-886.0,9.0,14.0,11.0,0.0,-2.0,-2.0,0.0,1.0,0.19342994689941406
92,-45.0,-8.0,42.0,0.0,11075.0,9424.0,-7494.0,-886.0,9.0,14.0,11.0,0.0,-2.0,-2.0,0.0,1.0,0.1952037811279297
93,-45.0,-8.0,42.0,0.0,11075.0,9424.0,-7494.0,-886.0,-2.0,-1.0,0.0,-1.0,1.0,0.0,-1.0,-1.0,0.19705939292907715
94,-45.0,-8.0,42.0,0.0,11075.0,9424.0,-7494.0,-886.0,-5.0,-6.0,-5.0,-4.0,-2.0,1.0,-1.0,-2.0,0.1988534927368164
95,-14.0,-3.0,51.0,0.0,11078.0,9419.0,-7497.0,-883.0,-5.0,-6.0,-5.0,-4.0,-2.0,1.0,-1.0,-2.0,0.20062828063964844
96,-14.0,-3.0,51.0,0.0,11078.0,9419.0,-7497.0,-883.0,0.0,-1.0,-3.0,0.0,0.0,-1.0,-2.0,1.0,0.20246672630310059
97,-14.0,-3.0,51.0,0.0,11078.0,9419.0,-7497.0,-883.0,-2.0,-1.0,-4.0,0.0,-1.0,0.0,-2.0,-2.0,0.20506858825683594
98,-21.0,-1.0,54.0,0.0,11081.0,9412.0,-7502.0,-879.0,-2.0,-1.0,-4.0,0.0,-1.0,0.0,-2.0,-2.0,0.20743298530578613
99,-21.0,-1.0,54.0,0.0,11081.0,9412.0,-7502.0,-879.0,-2.0,-3.0,-3.0,0.0,3.0,1.0,-2.0,-3.0,0.20931434631347656
100,-21.0,-1.0,54.0,0.0,11081.0,9412.0,-7502.0,-879.0,-1.0,-1.0,-5.0,-5.0,-6.0,-3.0,-2.0,-2.0,0.21108722686767578
101,-19.0,-5.0,68.0,0.0,11085.0,9404.0,-7507.0,-874.0,-1.0,-1.0,-5.0,-5.0,-6.0,-3.0,-2.0,-2.0,0.2142183780670166
102,-19.0,-5.0,68.0,0.0,11085.0,9404.0,-7507.0,-874.0,3.0,12.0,10.0,0.0,-3.0,-1.0,-1.0,2.0,0.21631193161010742
103,-19.0,-5.0,68.0,0.0,11085.0,9404.0,-7507.0,-874.0,1.0,4.0,7.0,0.0,2.0,3.0,1.0,1.0,0.21810388565063477
104,-45.0,-10.0,70.0,0.0,11090.0,9393.0,-7513.0,-873.0,1.0,4.0,7.0,0.0,2.0,3.0,1.0,1.0,0.21988868713378906
105,-45.0,-10.0,70.0,0.0,11090.0,9393.0,-7513.0,-873.0,-1.0,1.0,5.0,0.0,-1.0,-1.0,0.0,2.0,0.22176814079284668
106,-45.0,-10.0,70.0,0.0,11090.0,9393.0,-7513.0,-873.0,-2.0,-2.0,-6.0,-3.0,-2.0,0.0,-1.0,0.0,0.22353720664978027
107,-86.0,-9.0,64.0,0.0,11099.0,9378.0,-7518.0,-875.0,-2.0,-2.0,-6.0,-3.0,-2.0,0.0,-1.0,0.0,0.22552967071533203
108,-86.0,-9.0,64.0,0.0,11099.0,9378.0,-7518.0,-875.0,0.0,-1.0,0.0,-2.0,1.0,0.0,1.0,0.0,0.2278296947479248
109,-86.0,-9.0,64.0,0.0,11099.0,9378.0,-7518.0,-875.0,-3.0,-5.0,-10.0,-1.0,2.0,0.0,-2.0,-1.0,0.2300713062286377
110,-91.0,-15.0,69.0,0.0,11108.0,9362.0,-7525.0,-877.0,-3.0,-5.0,-10.0,-1.0,2.0,0.0,-2.0,-1.0,0.2318708896636963
111,-91.0,-15.0,69.0,0.0,11108.0,9362.0,-7525.0,-877.0,-1.0,1.0,3.0,1.0,-2.0,-2.0,-1.0,0.0,0.2338542938232422
112,-91.0,-15.0,69.0,0.0,11108.0,9362.0,-7525.0,-877.0,-1.0,-6.0,0.0,-1.0,0.0,0.0,2.0,-1.0,0.23697376251220703
113,-82.0,-30.0,62.0,0.0,11113.0,9349.0,-7532.0,-882.0,-1.0,-6.0,0.0,-1.0,0.0,0.0,2.0,-1.0,0.23889684677124023
114,-82.0,-30.0,62.0,0.0,11113.0,9349.0,-7532.0,-882.0,-5.0,-8.0,-8.0,-2.0,-4.0,-2.0,0.0,0.0,0.2407379150390625
115,-82.0,-30.0,62.0,0.0,11113.0,9349.0,-7532.0,-882.0,-2.0,1.0,0.0,2.0,-1.0,-3.0,-2.0,0.0,0.24254536628723145
116,-79.0,-32.0,51.0,0.0,11119.0,9336.0,-7539.0,-887.0,-2.0,1.0,0.0,2.0,-1.0,-3.0,-2.0,0.0,0.24436020851135254
117,-79.0,-32.0,51.0,0.0,11119.0,9336.0,-7539.0,-887.0,0.0,-1.0,-4.0,-3.0,-1.0,0.0,-1.0,-2.0,0.24760031700134277
118,-79.0,-32.0,51.0,0.0,11119.0,9336.0,-7539.0,-887.0,-3.0,-3.0,-4.0,-3.0,0.0,-1.0,0.0,1.0,0.24951553344726562
119,-69.0,-35.0,51.0,0.0,11122.0,9325.0,-7548.0,-891.0,-3.0,-3.0,-4.0,-3.0,0.0,-1.0,0.0,1.0,0.25128674507141113
120,-69.0,-35.0,51.0,0.0,11122.0,9325.0,-7548.0,-891.0,-2.0,-6.0,-3.0,-2.0,-2.0,1.0,-2.0,-2.0,0.25311946868896484
121,-69.0,-35.0,51.0,0.0,11122.0,9325.0,-7548.0,-891.0,4.0,7.0,0.0,0.0,2.0,1.0,-2.0,0.0,0.25488972663879395
122,-80.0,-32.0,47.0,0.0,11127.0,9313.0,-7555.0,-897.0,4.0,7.0,0.0,0.0,2.0,1.0,-2.0,0.0,0.25667285919189453
123,-80.0,-32.0,47.0,0.0,11127.0,9313.0,-7555.0,-897.0,0.0,0.0,0.0,-3.0,-6.0,-4.0,-5.0,-1.0,0.2587895393371582
124,-80.0,-32.0,47.0,0.0,11127.0,9313.0,-7555.0,-897.0,1.0,1.0,5.0,-1.0,0.0,-2.0,0.0,0.0,0.2605769634246826
125,-92.0,-32.0,35.0,0.0,11132.0,9301.0,-7562.0,-905.0,1.0,1.0,5.0,-1.0,0.0,-2.0,0.0,0.0,0.2623612880706787
126,-92.0,-32.0,35.0,0.0,11132.0,9301.0,-7562.0,-905.0,-2.0,-2.0,-4.0,0.0,0.0,0.0,1.0,-1.0,0.264354944229126
127,-92.0,-32.0,35.0,0.0,11132.0,9301.0,-7562.0,-905.0,0.0,3.0,7.0,-2.0,-2.0,-1.0,-2.0,-4.0,0.26740431785583496
128,-71.0,-36.0,31.0,0.0,11134.0,9291.0,-7569.0,-911.0,0.0,3.0,7.0,-2.0,-2.0,-1.0,-2.0,-4.0,0.2692887783050537
129,-71.0,-36.0,31.0,0.0,11134.0,9291.0,-7569.0,-911.0,-2.0,-2.0,5.0,2.0,-2.0,-2.0,-2.0,-3.0,0.27117252349853516
130,-71.0,-36.0,31.0,0.0,11134.0,9291.0,-7569.0,-911.0,1.0,1.0,-3.0,-2.0,-1.0,-6.0,-2.0,2.0,0.2729318141937256
131,-42.0,-31.0,33.0,0.0,11135.0,9285.0,-7576.0,-914.0,1.0,1.0,-3.0,-2.0,-1.0,-6.0,-2.0,2.0,0.2747156620025635
132,-42.0,-31.0,33.0,0.0,11135.0,9285.0,-7576.0,-914.0,1.0,2.0,2.0,-2.0,-2.0,-6.0,-2.0,0.0,0.27654552459716797
133,-42.0,-31.0,33.0,0.0,11135.0,9285.0,-7576.0,-914.0,1.0,4.0,2.0,-1.0,-4.0,1.0,-1.0,0.0,0.2783834934234619
134,-52.0,-29.0,41.0,0.0,11136.0,9277.0,-7583.0,-918.0,1.0,4.0,2.0,-1.0,-4.0,1.0,-1.0,0.0,0.2816908359527588
135,-52.0,-29.0,41.0,0.0,11136.0,9277.0,-7583.0,-918.0,-1.0,0.0,-1.0,1.0,1.0,2.0,0.0,1.0,0.28893280029296875
136,-52.0,-29.0,41.0,0.0,11136.0,9277.0,-7583.0,-918.0,-3.0,-6.0,-4.0,0.0,-6.0,1.0,1.0,-2.0,0.29071784019470215
137,-59.0,-26.0,34.0,0.0,11138.0,9269.0,-7589.0,-922.0,-3.0,-6.0,-4.0,0.0,-6.0,1.0,1.0,-2.0,0.3132741451263428
138,-59.0,-26.0,34.0,0.0,11138.0,9269.0,-7589.0,-922.0,3.0,7.0,3.0,3.0,1.0,4.0,1.0,1.0,0.31697559356689453
139,-59.0,-26.0,34.0,0.0,11138.0,9269.0,-7589.0,-922.0,-2.0,-5.0,-4.0,0.0,4.0,2.0,0.0,-1.0,0.32013773918151855
140,-57.0,-37.0,15.0,0.0,11140.0,9261.0,-7595.0,-929.0,-2.0,-5.0,-4.0,0.0,4.0,2.0,0.0,-1.0,0.32327699661254883
141,-57.0,-37.0,15.0,0.0,11140.0,9261.0,-7595.0,-929.0,-2.0,-1.0,2.0,-2.0,0.0,0.0,-1.0,-3.0,0.32665085792541504
142,-57.0,-37.0,15.0,0.0,11140.0,9261.0,-7595.0,-929.0,-3.0,-1.0,3.0,1.0,0.0,-1.0,-1.0,0.0,0.3296661376953125
143,-47.0,-39.0,-1.0,0.0,11140.0,9257.0,-7599.0,-938.0,-3.0,-1.0,3.0,1.0,0.0,-1.0,-1.0,0.0,0.34305691719055176
144,-47.0,-39.0,-1.0,0.0,11140.0,9257.0,-7599.0,-938.0,0.0,-5.0,1.0,3.0,0.0,-2.0,-1.0,1.0,0.3467073440551758
145,-47.0,-39.0,-1.0,0.0,11140.0,9257.0,-7599.0,-938.0,-3.0,-7.0,-1.0,0.0,-2.0,-3.0,-2.0,-4.0,0.3500075340270996
146,-32.0,-31.0,-2.0,0.0,11140.0,9254.0,-7603.0,-944.0,-3.0,-7.0,-1.0,0.0,-2.0,-3.0,-2.0,-4.0,0.36559104919433594
147,-32.0,-31.0,-2.0,0.0,11140.0,9254.0,-7603.0,-944.0,-1.0,-2.0,-3.0,-1.0,0.0,0.0,-1.0,0.0,0.3674750328063965
148,-32.0,-31.0,-2.0,0.0,11140.0,9254.0,-7603.0,-944.0,1.0,-1.0,-3.0,0.0,2.0,0.0,-1.0,1.0,0.36923813819885254
149,-44.0,-29.0,3.0,0.0,11142.0,9249.0,-7605.0,-952.0,1.0,-1.0,-3.0,0.0,2.0,0.0,-1.0,1.0,0.3888719081878662
150,-44.0,-29.0,3.0,0.0,11142.0,9249.0,-7605.0,-952.0,2.0,-5.0,4.0,-4.0,-1.0,-1.0,0.0,0.0,0.3941934108734131
151,-44.0,-29.0,3.0,0.0,11142.0,9249.0,-7605.0,-952.0,0.0,-1.0,-1.0,0.0,-1.0,1.0,-1.0,-1.0,0.3987441062927246
152,-56.0,-28.0,6.0,0.0,11146.0,9241.0,-7607.0,-959.0,0.0,-1.0,-1.0,0.0,-1.0,1.0,-1.0,-1.0,0.41056108474731445
153,-56.0,-28.0,6.0,0.0,11146.0,9241.0,-7607.0,-959.0,-4.0,-3.0,-6.0,-1.0,0.0,-2.0,-1.0,-2.0,0.4140739440917969
154,-56.0,-28.0,6.0,0.0,11146.0,9241.0,-7607.0,-959.0,1.0,-2.0,-3.0,0.0,-1.0,-1.0,-2.0,-1.0,0.41744017601013184
155,-65.0,-29.0,12.0,0.0,11150.0,9232.0,-7611.0,-966.0,1.0,-2.0,-3.0,0.0,-1.0,-1.0,-2.0,-1.0,0.42445874214172363
156,-65.0,-29.0,12.0,0.0,11150.0,9232.0,-7611.0,-966.0,0.0,1.0,-3.0,-1.0,-2.0,-1.0,-1.0,-1.0,0.43210887908935547
157,-65.0,-29.0,12.0,0.0,11150.0,9232.0,-7611.0,-966.0,-2.0,0.0,-3.0,-1.0,0.0,-2.0,-3.0,-1.0,0.4339015483856201
158,-56.0,-21.0,14.0,0.0,11154.0,9225.0,-7613.0,-973.0,-2.0,0.0,-3.0,-1.0,0.0,-2.0,-3.0,-1.0,0.448822021484375
159,-56.0,-21.0,14.0,0.0,11154.0,9225.0,-7613.0,-973.0,-1.0,-2.0,-4.0,-1.0,0.0,1.0,0.0,-1.0,0.45352911949157715
160,-56.0,-21.0,14.0,0.0,11154.0,9225.0,-7613.0,-973.0,1.0,0.0,2.0,1.0,-3.0,-1.0,0.0,-1.0,0.45777058601379395
161,-54.0,-17.0,7.0,0.0,11158.0,9218.0,-7615.0,-978.0,1.0,0.0,2.0,1.0,-3.0,-1.0,0.0,-1.0,0.4700465202331543
162,-54.0,-17.0,7.0,0.0,11158.0,9218.0,-7615.0,-978.0,1.0,7.0,-3.0,-5.0,-1.0,-1.0,-1.0,1.0,0.4718902111053467
163,-54.0,-17.0,7.0,0.0,11158.0,9218.0,-7615.0,-978.0,-3.0,-6.0,-1.0,-1.0,-2.0,-1.0,-2.0,0.0,0.47363877296447754
164,-48.0,-11.0,12.0,0.0,11163.0,9211.0,-7617.0,-982.0,-3.0,-6.0,-1.0,-1.0,-2.0,-1.0,-2.0,0.0,0.48534226417541504
165,-48.0,-11.0,12.0,0.0,11163.0,9211.0,-7617.0,-982.0,-2.0,-4.0,-1.0,2.0,-3.0,-5.0,-2.0,-3.0,0.4873034954071045
166,-48.0,-11.0,12.0,0.0,11163.0,9211.0,-7617.0,-982.0,1.0,-1.0,-1.0,-1.0,0.0,0.0,-1.0,0.0,0.4909994602203369
167,-43.0,-17.0,26.0,0.0,11164.0,9205.0,-7621.0,-985.0,1.0,-1.0,-1.0,-1.0,0.0,0.0,-1.0,0.0,0.5073370933532715
168,-43.0,-17.0,26.0,0.0,11164.0,9205.0,-7621.0,-985.0,-1.0,2.0,1.0,-2.0,2.0,2.0,-2.0,-1.0,0.5094876289367676
169,-43.0,-17.0,26.0,0.0,11164.0,9205.0,-7621.0,-985.0,0.0,-2.0,-3.0,-1.0,-3.0,-1.0,0.0,-1.0,0.5112729072570801
170,-46.0,-21.0,23.0,0.0,11167.0,9198.0,-7625.0,-989.0,0.0,-2.0,-3.0,-1.0,-3.0,-1.0,0.0,-1.0,0.5318186283111572
171,-46.0,-21.0,23.0,0.0,11167.0,9198.0,-7625.0,-989.0,0.0,1.0,-3.0,0.0,1.0,-2.0,0.0,1.0,0.5351336002349854
172,-46.0,-21.0,23.0,0.0,11167.0,9198.0,-7625.0,-989.0,0.0,-4.0,-7.0,-1.0,4.0,0.0,1.0,0.0,0.5382707118988037
173,-35.0,-22.0,39.0,0.0,11169.0,9192.0,-7630.0,-992.0,0.0,-4.0,-7.0,-1.0,4.0,0.0,1.0,0.0,0.5451109409332275
174,-35.0,-22.0,39.0,0.0,11169.0,9192.0,-7630.0,-992.0,-1.0,1.0,1.0,-2.0,-2.0,0.0,0.0,0.0,0.5486202239990234
175,-35.0,-22.0,39.0,0.0,11169.0,9192.0,-7630.0,-992.0,-1.0,-1.0,3.0,0.0,2.0,-1.0,0.0,0.0,0.5504903793334961
176,-31.0,-31.0,40.0,0.0,11170.0,9186.0,-7634.0,-996.0,-1.0,-1.0,3.0,0.0,2.0,-1.0,0.0,0.0,0.567967414855957
177,-31.0,-31.0,40.0,0.0,11170.0,9186.0,-7634.0,-996.0,-1.0,-3.0,-3.0,-1.0,-2.0,0.0,0.0,-1.0,0.5698144435882568
178,-31.0,-31.0,40.0,0.0,11170.0,9186.0,-7634.0,-996.0,1.0,0.0,-4.0,-2.0,0.0,1.0,0.0,0.0,0.5715863704681396
179,-35.0,-36.0,47.0,0.0,11170.0,9181.0,-7641.0,-1000.0,1.0,0.0,-4.0,-2.0,0.0,1.0,0.0,0.0,0.5898807048797607
180,-35.0,-36.0,47.0,0.0,11170.0,9181.0,-7641.0,-1000.0,1.0,4.0,7.0,2.0,3.0,1.0,-1.0,1.0,0.5920138359069824
181,-35.0,-36.0,47.0,0.0,11170.0,9181.0,-7641.0,-1000.0,1.0,8.0,3.0,-2.0,-1.0,0.0,-1.0,0.0,0.5938241481781006
182,-45.0,-40.0,46.0,0.0,11170.0,9174.0,-7647.0,-1006.0,1.0,8.0,3.0,-2.0,-1.0,0.0,-1.0,0.0,0.6042041778564453
183,-45.0,-40.0,46.0,0.0,11170.0,9174.0,-7647.0,-1006.0,1.0,-3.0,-4.0,-2.0,-5.0,-4.0,-3.0,-2.0,0.6067309379577637
184,-45.0,-40.0,46.0,0.0,11170.0,9174.0,-7647.0,-1006.0,-3.0,-4.0,1.0,0.0,0.0,-3.0,-3.0,-1.0,0.6111347675323486
185,-39.0,-49.0,47.0,0.0,11171.0,9167.0,-7653.0,-1013.0,-3.0,-4.0,1.0,0.0,0.0,-3.0,-3.0,-1.0,0.6289718151092529
186,-39.0,-49.0,47.0,0.0,11171.0,9167.0,-7653.0,-1013.0,-1.0,-2.0,2.0,-2.0,0.0,3.0,-1.0,-3.0,0.6328082084655762
187,-39.0,-49.0,47.0,0.0,11171.0,9167.0,-7653.0,-1013.0,-4.0,-1.0,-2.0,-2.0,-7.0,-5.0,0.0,-1.0,0.6363577842712402
188,-35.0,-67.0,41.0,0.0,11171.0,9160.0,-7661.0,-1022.0,-4.0,-1.0,-2.0,-2.0,-7.0,-5.0,0.0,-1.0,0.6506381034851074
189,-35.0,-67.0,41.0,0.0,11171.0,9160.0,-7661.0,-1022.0,-1.0,-4.0,-3.0,0.0,2.0,0.0,1.0,-2.0,0.6544194221496582
190,-35.0,-67.0,41.0,0.0,11171.0,9160.0,-7661.0,-1022.0,1.0,0.0,-2.0,0.0,0.0,-1.0,-1.0,0.0,0.6582837104797363
191,-17.0,-68.0,46.0,0.0,11166.0,9157.0,-7670.0,-1031.0,1.0,0.0,-2.0,0.0,0.0,-1.0,-1.0,0.0,0.6658177375793457
192,-17.0,-68.0,46.0,0.0,11166.0,9157.0,-7670.0,-1031.0,-2.0,-2.0,0.0,-3.0,-3.0,-3.0,0.0,2.0,0.668766975402832
193,-17.0,-68.0,46.0,0.0,11166.0,9157.0,-7670.0,-1031.0,2.0,2.0,0.0,2.0,1.0,0.0,-3.0,1.0,0.6709339618682861
194,-12.0,-67.0,69.0,0.0,11160.0,9155.0,-7680.0,-1037.0,2.0,2.0,0.0,2.0,1.0,0.0,-3.0,1.0,0.6874954700469971
195,-12.0,-67.0,69.0,0.0,11160.0,9155.0,-7680.0,-1037.0,-1.0,-4.0,-4.0,1.0,0.0,-1.0,1.0,1.0,0.6893513202667236
196,-12.0,-67.0,69.0,0.0,11160.0,9155.0,-7680.0,-1037.0,4.0,7.0,-8.0,-4.0,-4.0,-1.0,3.0,4.0,0.6913702487945557
197,-10.0,-77.0,85.0,0.0,11156.0,9149.0,-7693.0,-1042.0,4.0,7.0,-8.0,-4.0,-4.0,-1.0,3.0,4.0,0.7102365493774414
198,-10.0,-77.0,85.0,0.0,11156.0,9149.0,-7693.0,-1042.0,0.0,3.0,-3.0,-1.0,1.0,0.0,-2.0,0.0,0.7146496772766113
199,-10.0,-77.0,85.0,0.0,11156.0,9149.0,-7693.0,-1042.0,-1.0,2.0,7.0,-2.0,-9.0,-5.0,-5.0,-5.0,0.718130350112915
200,35.0,-90.0,106.0,0.0,11150.0,9143.0,-7708.0,-1041.0,-1.0,2.0,7.0,-2.0,-9.0,-5.0,-5.0,-5.0,0.7327516078948975
201,35.0,-90.0,106.0,0.0,11150.0,9143.0,-7708.0,-1041.0,-5.0,-5.0,-5.0,-2.0,-3.0,-2.0,1.0,-3.0,0.7346458435058594
202,35.0,-90.0,106.0,0.0,11150.0,9143.0,-7708.0,-1041.0,-4.0,0.0,0.0,-3.0,5.0,4.0,0.0,-6.0,0.736431360244751
203,80.0,-101.0,140.0,0.0,11140.0,9141.0,-7726.0,-1035.0,-4.0,0.0,0.0,-3.0,5.0,4.0,0.0,-6.0,0.7485086917877197
204,80.0,-101.0,140.0,0.0,11140.0,9141.0,-7726.0,-1035.0,2.0,22.0,-7.0,-10.0,-13.0,-20.0,-8.0,-3.0,0.7508354187011719
205,80.0,-101.0,140.0,0.0,11140.0,9141.0,-7726.0,-1035.0,7.0,13.0,16.0,14.0,-3.0,1.0,6.0,5.0,0.7537989616394043
206,83.0,-91.0,188.0,0.0,11134.0,9137.0,-7741.0,-1030.0,7.0,13.0,16.0,14.0,-3.0,1.0,6.0,5.0,0.77001953125
207,83.0,-91.0,188.0,0.0,11134.0,9137.0,-7741.0,-1030.0,-2.0,-6.0,-8.0,-1.0,22.0,13.0,2.0,1.0,0.7718865871429443
208,83.0,-91.0,188.0,0.0,11134.0,9137.0,-7741.0,-1030.0,-8.0,-19.0,-29.0,-16.0,-5.0,-1.0,-5.0,-5.0,0.7736713886260986
209,-34.0,-131.0,284.0,0.0,11129.0,9121.0,-7765.0,-1037.0,-8.0,-19.0,-29.0,-16.0,-5.0,-1.0,-5.0,-5.0,0.7840573787689209
210,-34.0,-131.0,284.0,0.0,11129.0,9121.0,-7765.0,-1037.0,6.0,3.0,10.0,12.0,-19.0,-12.0,-7.0,2.0,0.7859337329864502
211,-34.0,-131.0,284.0,0.0,11129.0,9121.0,-7765.0,-1037.0,7.0,6.0,28.0,10.0,23.0,11.0,6.0,3.0,0.7919332981109619
212,-308.0,-101.0,417.0,0.0,11159.0,9062.0,-7789.0,-1054.0,7.0,6.0,28.0,10.0,23.0,11.0,6.0,3.0,0.8075239658355713
213,-308.0,-101.0,417.0,0.0,11159.0,9062.0,-7789.0,-1054.0,2.0,-5.0,-13.0,-4.0,17.0,18.0,7.0,-3.0,0.809581995010376
214,-308.0,-101.0,417.0,0.0,11159.0,9062.0,-7789.0,-1054.0,2.0,-6.0,1.0,14.0,-22.0,-15.0,-8.0,3.0,0.8113877773284912
215,-308.0,-60.0,441.0,0.0,11202.0,8988.0,-7814.0,-1052.0,2.0,-6.0,1.0,14.0,-22.0,-15.0,-8.0,3.0,0.8316457271575928
216,-308.0,-60.0,441.0,0.0,11202.0,8988.0,-7814.0,-1052.0,10.0,15.0,38.0,41.0,69.0,25.0,10.0,7.0,0.8346388339996338
217,-308.0,-60.0,441.0,0.0,11202.0,8988.0,-7814.0,-1052.0,4.0,25.0,-26.0,-28.0,0.0,0.0,3.0,3.0,0.8365218639373779
218,-54.0,86.0,356.0,0.0,11242.0,8951.0,-7801.0,-1036.0,4.0,25.0,-26.0,-28.0,0.0,0.0,3.0,3.0,0.8442659378051758
219,-54.0,86.0,356.0,0.0,11242.0,8951.0,-7801.0,-1036.0,-8.0,-3.0,-29.0,-47.0,-55.0,-11.0,-11.0,-9.0,0.8533527851104736
220,-54.0,86.0,356.0,0.0,11242.0,8951.0,-7801.0,-1036.0,-18.0,-34.0,6.0,7.0,12.0,6.0,-4.0,-9.0,0.8561139106750488
221,14.0,292.0,246.0,0.0,11297.0,8943.0,-7730.0,-1031.0,-18.0,-34.0,6.0,7.0,12.0,6.0,-4.0,-9.0,0.867793083190918
222,14.0,292.0,246.0,0.0,11297.0,8943.0,-7730.0,-1031.0,11.0,12.0,8.0,-7.0,-11.0,2.0,10.0,9.0,0.8696939945220947
223,14.0,292.0,246.0,0.0,11297.0,8943.0,-7730.0,-1031.0,-3.0,-17.0,-1.0,-9.0,-21.0,-6.0,0.0,-4.0,0.8714685440063477
224,-293.0,335.0,-7.0,0.0,11396.0,8913.0,-7612.0,-1086.0,-3.0,-17.0,-1.0,-9.0,-21.0,-6.0,0.0,-4.0,0.891528844833374
225,-293.0,335.0,-7.0,0.0,11396.0,8913.0,-7612.0,-1086.0,4.0,12.0,24.0,15.0,12.0,-5.0,1.0,-5.0,0.8948192596435547
226,-293.0,335.0,-7.0,0.0,11396.0,8913.0,-7612.0,-1086.0,4.0,25.0,8.0,10.0,12.0,4.0,7.0,4.0,0.8988053798675537
227,-371.0,456.0,-640.0,0.0,11533.0,8894.0,-7407.0,-1202.0,4.0,25.0,8.0,10.0,12.0,4.0,7.0,4.0,0.9038145542144775
228,-371.0,456.0,-640.0,0.0,11533.0,8894.0,-7407.0,-1202.0,-17.0,-32.0,-22.0,-9.0,-4.0,-9.0,-10.0,-8.0,0.9118506908416748
229,-371.0,456.0,-640.0,0.0,11533.0,8894.0,-7407.0,-1202.0,-5.0,-19.0,-4.0,11.0,-2.0,-1.0,-4.0,2.0,0.9147372245788574
230,-247.0,669.0,-1192.0,0.0,11655.0,8951.0,-7112.0,-1374.0,-5.0,-19.0,-4.0,11.0,-2.0,-1.0,-4.0,2.0,0.927699089050293
231,-247.0,669.0,-1192.0,0.0,11655.0,8951.0,-7112.0,-1374.0,5.0,3.0,10.0,0.0,-2.0,7.0,0.0,3.0,0.9307453632354736
232,-247.0,669.0,-1192.0,0.0,11655.0,8951.0,-7112.0,-1374.0,-6.0,-7.0,0.0,9.0,-4.0,-6.0,6.0,1.0,0.9326045513153076
233,-703.0,834.0,-1806.0,0.0,11758.0,9012.0,-6817.0,-1576.0,-6.0,-7.0,0.0,9.0,-4.0,-6.0,6.0,1.0,0.9507400989532471
234,-703.0,834.0,-1806.0,0.0,11758.0,9012.0,-6817.0,-1576.0,12.0,37.0,14.0,-13.0,-35.0,-8.0,-2.0,6.0,0.9526996612548828
235,-703.0,834.0,-1806.0,0.0,11758.0,9012.0,-6817.0,-1576.0,-3.0,1.0,11.0,-5.0,9.0,5.0,3.0,-1.0,0.9544799327850342
236,-1755.0,880.0,-2578.0,0.0,11945.0,8988.0,-6416.0,-1949.0,-3.0,1.0,11.0,-5.0,9.0,5.0,3.0,-1.0,0.9645776748657227
237,-1755.0,880.0,-2578.0,0.0,11945.0,8988.0,-6416.0,-1949.0,-11.0,-25.0,-12.0,-1.0,3.0,0.0,2.0,0.0,0.9717996120452881
238,-2487.0,896.0,-3495.0,0.0,12163.0,8917.0,-5897.0,-2488.0,-11.0,-25.0,-12.0,-1.0,3.0,0.0,2.0,0.0,0.973578929901123
239,-2487.0,896.0,-3495.0,0.0,12163.0,8917.0,-5897.0,-2488.0,3.0,2.0,5.0,-1.0,1.0,1.0,-1.0,4.0,0.9801642894744873
240,-2487.0,896.0,-3495.0,0.0,12163.0,8917.0,-5897.0,-2488.0,-9.0,-15.0,0.0,8.0,4.0,-3.0,1.0,-2.0,0.9867830276489258
241,-3130.0,1121.0,-4181.0,0.0,12405.0,8786.0,-5248.0,-3129.0,-9.0,-15.0,0.0,8.0,4.0,-3.0,1.0,-2.0,0.9885623455047607
242,-3130.0,1121.0,-4181.0,0.0,12405.0,8786.0,-5248.0,-3129.0,0.0,-5.0,-9.0,-6.0,-7.0,-11.0,-13.0,-14.0,0.9939296245574951
243,-3130.0,1121.0,-4181.0,0.0,12405.0,8786.0,-5248.0,-3129.0,9.0,30.0,8.0,-4.0,-3.0,-7.0,-3.0,-8.0,1.0098779201507568
244,-3603.0,1458.0,-4700.0,0.0,12646.0,8599.0,-4467.0,-3823.0,9.0,30.0,8.0,-4.0,-3.0,-7.0,-3.0,-8.0,1.012059211730957
245,-3603.0,1458.0,-4700.0,0.0,12646.0,8599.0,-4467.0,-3823.0,-4.0,3.0,0.0,-7.0,-9.0,-7.0,-4.0,-5.0,1.0162127017974854
246,-3603.0,1458.0,-4700.0,0.0,12646.0,8599.0,-4467.0,-3823.0,-11.0,-22.0,-1.0,-3.0,-15.0,-4.0,0.0,-3.0,1.0326573848724365
247,-3783.0,1812.0,-4900.0,0.0,12843.0,8381.0,-3636.0,-4473.0,-11.0,-22.0,-1.0,-3.0,-15.0,-4.0,0.0,-3.0,1.0358450412750244
248,-3783.0,1812.0,-4900.0,0.0,12843.0,8381.0,-3636.0,-4473.0,1.0,6.0,-9.0,-9.0,-5.0,-1.0,-5.0,2.0,1.0400052070617676
249,-3783.0,1812.0,-4900.0,0.0,12843.0,8381.0,-3636.0,-4473.0,0.0,-14.0,-6.0,-3.0,-5.0,-2.0,0.0,2.0,1.0482182502746582
250,-3621.0,2000.0,-4911.0,0.0,12976.0,8159.0,-2773.0,-5078.0,0.0,-14.0,-6.0,-3.0,-5.0,-2.0,0.0,2.0,1.050182580947876
251,-3621.0,2000.0,-4911.0,0.0,12976.0,8159.0,-2773.0,-5078.0,-4.0,-11.0,-6.0,-7.0,3.0,4.0,-1.0,0.0,1.0537793636322021
252,-3621.0,2000.0,-4911.0,0.0,12976.0,8159.0,-2773.0,-5078.0,-6.0,-6.0,-8.0,11.0,1.0,-4.0,-3.0,-1.0,1.0700738430023193
253,-3599.0,2001.0,-4911.0,0.0,13049.0,7906.0,-1901.0,-5659.0,-6.0,-6.0,-8.0,11.0,1.0,-4.0,-3.0,-1.0,1.073312520980835
254,-3599.0,2001.0,-4911.0,0.0,13049.0,7906.0,-1901.0,-5659.0,5.0,8.0,3.0,3.0,8.0,2.0,-4.0,-5.0,1.0768132209777832
255,-3599.0,2001.0,-4911.0,0.0,13049.0,7906.0,-1901.0,-5659.0,1.0,-9.0,-10.0,1.0,7.0,2.0,0.0,1.0,1.0921297073364258
256,-3665.0,1981.0,-4956.0,0.0,13067.0,7610.0,-1017.0,-6223.0,1.0,-9.0,-10.0,1.0,7.0,2.0,0.0,1.0,1.0939795970916748
257,-3665.0,1981.0,-4956.0,0.0,13067.0,7610.0,-1017.0,-6223.0,2.0,4.0,-2.0,2.0,1.0,0.0,-1.0,1.0,1.100956916809082
258,-3665.0,1981.0,-4956.0,0.0,13067.0,7610.0,-1017.0,-6223.0,-2.0,-7.0,-6.0,0.0,4.0,-1.0,-1.0,-3.0,1.1069772243499756
259,-3770.0,2055.0,-4883.0,0.0,13042.0,7267.0,-117.0,-6746.0,-2.0,-7.0,-6.0,0.0,4.0,-1.0,-1.0,-3.0,1.108816146850586
260,-3770.0,2055.0,-4883.0,0.0,13042.0,7267.0,-117.0,-6746.0,5.0,0.0,-8.0,2.0,2.0,-1.0,-1.0,1.0,1.1151108741760254
261,-3770.0,2055.0,-4883.0,0.0,13042.0,7267.0,-117.0,-6746.0,-3.0,-12.0,-7.0,1.0,2.0,2.0,-4.0,1.0,1.1308577060699463
262,-3895.0,2155.0,-4679.0,0.0,12984.0,6878.0,797.0,-7204.0,-3.0,-12.0,-7.0,1.0,2.0,2.0,-4.0,1.0,1.134253978729248
263,-3895.0,2155.0,-4679.0,0.0,12984.0,6878.0,797.0,-7204.0,-6.0,-14.0,-2.0,2.0,1.0,1.0,4.0,2.0,1.137557029724121
264,-3895.0,2155.0,-4679.0,0.0,12984.0,6878.0,797.0,-7204.0,1.0,6.0,15.0,11.0,6.0,-2.0,1.0,-1.0,1.1519525051116943
265,-3774.0,2167.0,-4469.0,0.0,12876.0,6473.0,1693.0,-7608.0,1.0,6.0,15.0,11.0,6.0,-2.0,1.0,-1.0,1.153771162033081
266,-3774.0,2167.0,-4469.0,0.0,12876.0,6473.0,1693.0,-7608.0,-2.0,-5.0,-5.0,-3.0,-4.0,0.0,-1.0,-2.0,1.1593310832977295
267,-3774.0,2167.0,-4469.0,0.0,12876.0,6473.0,1693.0,-7608.0,-5.0,0.0,-3.0,-6.0,2.0,2.0,-1.0,-2.0,1.1667966842651367
268,-3709.0,2036.0,-4349.0,0.0,12720.0,6038.0,2557.0,-7977.0,-5.0,0.0,-3.0,-6.0,2.0,2.0,-1.0,-2.0,1.1685900688171387
269,-3709.0,2036.0,-4349.0,0.0,12720.0,6038.0,2557.0,-7977.0,1.0,3.0,5.0,-3.0,0.0,-2.0,1.0,0.0,1.1737914085388184
270,-3709.0,2036.0,-4349.0,0.0,12720.0,6038.0,2557.0,-7977.0,-1.0,-1.0,4.0,-2.0,-4.0,-5.0,-2.0,-1.0,1.1889898777008057
271,-3556.0,1992.0,-4303.0,0.0,12507.0,5597.0,3390.0,-8317.0,-1.0,-1.0,4.0,-2.0,-4.0,-5.0,-2.0,-1.0,1.1921250820159912
272,-3556.0,1992.0,-4303.0,0.0,12507.0,5597.0,3390.0,-8317.0,3.0,0.0,12.0,6.0,5.0,0.0,-3.0,-1.0,1.1961350440979004
273,-3556.0,1992.0,-4303.0,0.0,12507.0,5597.0,3390.0,-8317.0,0.0,5.0,14.0,-2.0,0.0,2.0,-1.0,-2.0,1.2131726741790771
274,-3558.0,2049.0,-4106.0,0.0,12263.0,5146.0,4206.0,-8595.0,0.0,5.0,14.0,-2.0,0.0,2.0,-1.0,-2.0,1.2166898250579834
275,-3558.0,2049.0,-4106.0,0.0,12263.0,5146.0,4206.0,-8595.0,-6.0,-13.0,0.0,-3.0,-5.0,-1.0,1.0,-5.0,1.2296009063720703
276,-3558.0,2049.0,-4106.0,0.0,12263.0,5146.0,4206.0,-8595.0,-6.0,0.0,-3.0,0.0,-1.0,1.0,-2.0,-3.0,1.2333824634552002
277,-3649.0,2060.0,-3807.0,0.0,12002.0,4679.0,5008.0,-8798.0,-6.0,0.0,-3.0,0.0,-1.0,1.0,-2.0,-3.0,1.2365894317626953
278,-3649.0,2060.0,-3807.0,0.0,12002.0,4679.0,5008.0,-8798.0,-8.0,-12.0,-3.0,2.0,3.0,-4.0,-4.0,-2.0,1.2395339012145996
279,-3649.0,2060.0,-3807.0,0.0,12002.0,4679.0,5008.0,-8798.0,-1.0,-5.0,0.0,-5.0,-6.0,-2.0,-2.0,-1.0,1.2493414878845215
280,-3903.0,2011.0,-3556.0,0.0,11732.0,4165.0,5807.0,-8928.0,-1.0,-5.0,0.0,-5.0,-6.0,-2.0,-2.0,-1.0,1.2517688274383545
281,-3903.0,2011.0,-3556.0,0.0,11732.0,4165.0,5807.0,-8928.0,-9.0,-20.0,-25.0,7.0,-4.0,-5.0,-3.0,-5.0,1.2563397884368896
282,-3903.0,2011.0,-3556.0,0.0,11732.0,4165.0,5807.0,-8928.0,1.0,-1.0,-8.0,4.0,-3.0,-2.0,-1.0,-1.0,1.2799508571624756
283,-4031.0,2007.0,-3368.0,0.0,11437.0,3623.0,6601.0,-8996.0,1.0,-1.0,-8.0,4.0,-3.0,-2.0,-1.0,-1.0,1.2818176746368408
284,-4031.0,2007.0,-3368.0,0.0,11437.0,3623.0,6601.0,-8996.0,7.0,10.0,8.0,-3.0,-6.0,0.0,0.0,-1.0,1.2843811511993408
285,-4031.0,2007.0,-3368.0,0.0,11437.0,3623.0,6601.0,-8996.0,6.0,2.0,-3.0,-10.0,-12.0,-8.0,-12.0,4.0,1.2864785194396973
286,-3976.0,2009.0,-3289.0,0.0,11095.0,3071.0,7376.0,-9027.0,6.0,2.0,-3.0,-10.0,-12.0,-8.0,-12.0,4.0,1.288254976272583
287,-3976.0,2009.0,-3289.0,0.0,11095.0,3071.0,7376.0,-9027.0,2.0,9.0,4.0,0.0,3.0,0.0,-3.0,-1.0,1.2938382625579834
288,-3976.0,2009.0,-3289.0,0.0,11095.0,3071.0,7376.0,-9027.0,-1.0,-2.0,-4.0,0.0,5.0,8.0,6.0,4.0,1.3094830513000488
289,-3692.0,2035.0,-3440.0,0.0,10674.0,2523.0,8121.0,-9066.0,-1.0,-2.0,-4.0,0.0,5.0,8.0,6.0,4.0,1.3124055862426758
290,-3692.0,2035.0,-3440.0,0.0,10674.0,2523.0,8121.0,-9066.0,-1.0,6.0,2.0,-13.0,-15.0,-2.0,1.0,-1.0,1.3175668716430664
291,-3692.0,2035.0,-3440.0,0.0,10674.0,2523.0,8121.0,-9066.0,0.0,-8.0,-11.0,0.0,21.0,10.0,18.0,10.0,1.3342547416687012
292,-3274.0,1920.0,-3581.0,0.0,10187.0,1984.0,8800.0,-9126.0,0.0,-8.0,-11.0,0.0,21.0,10.0,18.0,10.0,1.3376314640045166
293,-3274.0,1920.0,-3581.0,0.0,10187.0,1984.0,8800.0,-9126.0,-3.0,4.0,2.0,-4.0,5.0,-7.0,-36.0,-31.0,1.341338872909546
294,-3274.0,1920.0,-3581.0,0.0,10187.0,1984.0,8800.0,-9126.0,-2.0,-3.0,-1.0,1.0,-13.0,-8.0,3.0,11.0,1.3559801578521729
295,-2414.0,1755.0,-3525.0,0.0,9707.0,1550.0,9300.0,-9236.0,-2.0,-3.0,-1.0,1.0,-13.0,-8.0,3.0,11.0,1.3596162796020508
296,-2414.0,1755.0,-3525.0,0.0,9707.0,1550.0,9300.0,-9236.0,14.0,12.0,-3.0,10.0,74.0,79.0,122.0,67.0,1.3646018505096436
297,-2414.0,1755.0,-3525.0,0.0,9707.0,1550.0,9300.0,-9236.0,-15.0,-5.0,0.0,-9.0,-58.0,-28.0,-29.0,-41.0,1.3692021369934082
298,-1371.0,1670.0,-3416.0,0.0,9208.0,1226.0,9663.0,-9421.0,-15.0,-5.0,0.0,-9.0,-58.0,-28.0,-29.0,-41.0,1.3709816932678223
299,-1371.0,1670.0,-3416.0,0.0,9208.0,1226.0,9663.0,-9421.0,2.0,7.0,0.0,15.0,40.0,17.0,15.0,12.0,1.3767848014831543
300,-1371.0,1670.0,-3416.0,0.0,9208.0,1226.0,9663.0,-9421.0,2.0,-1.0,-6.0,-4.0,10.0,-23.0,-49.0,-40.0,1.4022343158721924
301,-499.0,1899.0,-3322.0,0.0,8666.0,1020.0,9941.0,-9668.0,2.0,-1.0,-6.0,-4.0,10.0,-23.0,-49.0,-40.0,1.4061660766601562
302,-499.0,1899.0,-3322.0,0.0,8666.0,1020.0,9941.0,-9668.0,0.0,-3.0,2.0,-4.0,-10.0,6.0,-12.0,5.0,1.411163568496704
303,-499.0,1899.0,-3322.0,0.0,8666.0,1020.0,9941.0,-9668.0,9.0,5.0,5.0,13.0,18.0,-43.0,6.0,32.0,1.415820598602295
304,203.0,2188.0,-2147.0,0.0,8195.0,1036.0,10144.0,-9863.0,9.0,5.0,5.0,13.0,18.0,-43.0,6.0,32.0,1.4177329540252686
305,203.0,2188.0,-2147.0,0.0,8195.0,1036.0,10144.0,-9863.0,6.0,5.0,9.0,8.0,2.0,28.0,6.0,9.0,1.419586420059204
306,203.0,2188.0,-2147.0,0.0,8195.0,1036.0,10144.0,-9863.0,-11.0,-8.0,-12.0,-28.0,-34.0,-12.0,-34.0,-32.0,1.4366860389709473
307,878.0,1804.0,-440.0,0.0,7936.0,1260.0,10214.0,-9977.0,-11.0,-8.0,-12.0,-28.0,-34.0,-12.0,-34.0,-32.0,1.4467909336090088
308,878.0,1804.0,-440.0,0.0,7936.0,1260.0,10214.0,-9977.0,-1.0,1.0,-6.0,-20.0,-59.0,-20.0,25.0,16.0,1.452866792678833
309,878.0,1804.0,-440.0,0.0,7936.0,1260.0,10214.0,-9977.0,9.0,8.0,1.0,8.0,43.0,44.0,24.0,6.0,1.4546432495117188
310,853.0,1254.0,295.0,0.0,7816.0,1503.0,10224.0,-10028.0,9.0,8.0,1.0,8.0,43.0,44.0,24.0,6.0,1.4692482948303223
311,853.0,1254.0,295.0,0.0,7816.0,1503.0,10224.0,-10028.0,-2.0,-1.0,-2.0,3.0,-13.0,-20.0,-22.0,-14.0,1.4726557731628418
312,853.0,1254.0,295.0,0.0,7816.0,1503.0,10224.0,-10028.0,-1.0,1.0,4.0,4.0,1.0,0.0,-2.0,3.0,1.4756345748901367
313,1648.0,701.0,1048.0,0.0,7795.0,1808.0,10104.0,-10114.0,-1.0,1.0,4.0,4.0,1.0,0.0,-2.0,3.0,1.4793331623077393
314,1648.0,701.0,1048.0,0.0,7795.0,1808.0,10104.0,-10114.0,2.0,0.0,0.0,2.0,8.0,6.0,7.0,6.0,1.4817605018615723
315,1648.0,701.0,1048.0,0.0,7795.0,1808.0,10104.0,-10114.0,-1.0,2.0,-9.0,-12.0,-10.0,-1.0,2.0,1.0,1.4892148971557617
316,1974.0,-26.0,2169.0,0.0,7974.0,2193.0,9855.0,-10145.0,-1.0,2.0,-9.0,-12.0,-10.0,-1.0,2.0,1.0,1.4912662506103516
317,1974.0,-26.0,2169.0,0.0,7974.0,2193.0,9855.0,-10145.0,-3.0,3.0,-19.0,-15.0,-18.0,-42.0,-32.0,-12.0,1.496483325958252
318,1974.0,-26.0,2169.0,0.0,7974.0,2193.0,9855.0,-10145.0,-5.0,-5.0,5.0,15.0,14.0,19.0,16.0,5.0,1.5133686065673828
319,2039.0,-719.0,3122.0,0.0,8325.0,2610.0,9499.0,-10103.0,-5.0,-5.0,5.0,15.0,14.0,19.0,16.0,5.0,1.5169336795806885
320,2039.0,-719.0,3122.0,0.0,8325.0,2610.0,9499.0,-10103.0,-5.0,-6.0,-4.0,0.0,-1.0,-14.0,-37.0,-21.0,1.5202176570892334
321,2039.0,-719.0,3122.0,0.0,8325.0,2610.0,9499.0,-10103.0,2.0,-1.0,-16.0,-4.0,10.0,19.0,19.0,11.0,1.5271344184875488
322,2098.0,-1174.0,4001.0,0.0,8804.0,3072.0,9050.0,-9979.0,2.0,-1.0,-16.0,-4.0,10.0,19.0,19.0,11.0,1.5297296047210693
323,2098.0,-1174.0,4001.0,0.0,8804.0,3072.0,9050.0,-9979.0,2.0,-2.0,9.0,8.0,-1.0,-8.0,-1.0,2.0,1.5336761474609375
324,2098.0,-1174.0,4001.0,0.0,8804.0,3072.0,9050.0,-9979.0,1.0,0.0,10.0,6.0,7.0,5.0,2.0,4.0,1.5496554374694824
325,1908.0,-1520.0,4489.0,0.0,9351.0,3517.0,8549.0,-9774.0,1.0,0.0,10.0,6.0,7.0,5.0,2.0,4.0,1.551485300064087
326,1908.0,-1520.0,4489.0,0.0,9351.0,3517.0,8549.0,-9774.0,1.0,0.0,10.0,6.0,7.0,5.0,2.0,4.0,1.556201696395874
327,1908.0,-1520.0,4489.0,0.0,9351.0,3517.0,8549.0,-9774.0,-5.0,-2.0,-1.0,1.0,-5.0,1.0,-8.0,-7.0,1.5818006992340088
328,1908.0,-1520.0,4489.0,0.0,9351.0,3517.0,8549.0,-9774.0,4.0,14.0,8.0,-2.0,-6.0,-3.0,1.0,0.0,1.585573434829712
329,1839.0,-1847.0,4556.0,0.0,9913.0,3915.0,7987.0,-9541.0,4.0,14.0,8.0,-2.0,-6.0,-3.0,1.0,0.0,1.5893759727478027
330,1839.0,-1847.0,4556.0,0.0,9913.0,3915.0,7987.0,-9541.0,9.0,15.0,-32.0,-33.0,-8.0,-4.0,-5.0,1.0,1.5944385528564453
331,1839.0,-1847.0,4556.0,0.0,9913.0,3915.0,7987.0,-9541.0,0.0,0.0,4.0,6.0,5.0,-1.0,5.0,2.0,1.5977389812469482
332,2500.0,-1855.0,4573.0,0.0,10419.0,4371.0,7326.0,-9332.0,0.0,0.0,4.0,6.0,5.0,-1.0,5.0,2.0,1.5995721817016602
333,2500.0,-1855.0,4573.0,0.0,10419.0,4371.0,7326.0,-9332.0,-9.0,-15.0,21.0,12.0,12.0,6.0,-7.0,-7.0,1.6014671325683594
334,2500.0,-1855.0,4573.0,0.0,10419.0,4371.0,7326.0,-9332.0,0.0,1.0,1.0,5.0,-5.0,-9.0,2.0,2.0,1.6094310283660889
335,2748.0,-2050.0,4715.0,0.0,10906.0,4835.0,6582.0,-9099.0,0.0,1.0,1.0,5.0,-5.0,-9.0,2.0,2.0,1.611499309539795
336,2748.0,-2050.0,4715.0,0.0,10906.0,4835.0,6582.0,-9099.0,-6.0,-8.0,-6.0,0.0,-3.0,2.0,-12.0,-11.0,1.6164491176605225
337,2748.0,-2050.0,4715.0,0.0,10906.0,4835.0,6582.0,-9099.0,-2.0,-9.0,5.0,11.0,17.0,7.0,13.0,3.0,1.6326327323913574
338,2893.0,-1923.0,4733.0,0.0,11340.0,5314.0,5800.0,-8829.0,-2.0,-9.0,5.0,11.0,17.0,7.0,13.0,3.0,1.6346566677093506
339,2893.0,-1923.0,4733.0,0.0,11340.0,5314.0,5800.0,-8829.0,-5.0,-7.0,-9.0,-11.0,-13.0,-16.0,-13.0,-10.0,1.6387550830841064
340,2893.0,-1923.0,4733.0,0.0,11340.0,5314.0,5800.0,-8829.0,-4.0,-22.0,-18.0,7.0,46.0,43.0,31.0,11.0,1.6467180252075195
341,3178.0,-1517.0,4912.0,0.0,11709.0,5863.0,4991.0,-8487.0,-4.0,-22.0,-18.0,7.0,46.0,43.0,31.0,11.0,1.648634910583496
342,3178.0,-1517.0,4912.0,0.0,11709.0,5863.0,4991.0,-8487.0,-4.0,1.0,44.0,37.0,-55.0,-38.0,-22.0,-20.0,1.6545555591583252
343,3178.0,-1517.0,4912.0,0.0,11709.0,5863.0,4991.0,-8487.0,-8.0,-12.0,2.0,29.0,55.0,17.0,1.0,-3.0,1.677551507949829
344,3508.0,-1278.0,5157.0,0.0,12016.0,6468.0,4132.0,-8070.0,-8.0,-12.0,2.0,29.0,55.0,17.0,1.0,-3.0,1.6807198524475098
345,3508.0,-1278.0,5157.0,0.0,12016.0,6468.0,4132.0,-8070.0,9.0,30.0,-16.0,-60.0,-54.0,-57.0,-56.0,-23.0,1.6859302520751953
346,3508.0,-1278.0,5157.0,0.0,12016.0,6468.0,4132.0,-8070.0,-1.0,1.0,2.0,-16.0,-16.0,1.0,-22.0,-10.0,1.6927590370178223
347,3508.0,-1401.0,5346.0,0.0,12289.0,7037.0,3207.0,-7589.0,-1.0,1.0,2.0,-16.0,-16.0,1.0,-22.0,-10.0,1.6967017650604248
348,3508.0,-1401.0,5346.0,0.0,12289.0,7037.0,3207.0,-7589.0,-1.0,1.0,2.0,-16.0,-16.0,1.0,-22.0,-10.0,1.6987717151641846
349,3508.0,-1401.0,5346.0,0.0,12289.0,7037.0,3207.0,-7589.0,9.0,2.0,20.0,90.0,127.0,86.0,25.0,83.0,1.7162408828735352
350,3508.0,-1401.0,5346.0,0.0,12289.0,7037.0,3207.0,-7589.0,1.0,37.0,4.0,-14.0,-9.0,-4.0,-9.0,-24.0,1.719815969467163
351,3454.0,-1380.0,5431.0,0.0,12513.0,7560.0,2251.0,-7044.0,1.0,37.0,4.0,-14.0,-9.0,-4.0,-9.0,-24.0,1.7231554985046387
352,3454.0,-1380.0,5431.0,0.0,12513.0,7560.0,2251.0,-7044.0,12.0,-14.0,-26.0,12.0,64.0,107.0,102.0,91.0,1.726405143737793
353,3454.0,-1380.0,5431.0,0.0,12513.0,7560.0,2251.0,-7044.0,-50.0,-91.0,-15.0,7.0,-57.0,-14.0,-1.0,-30.0,1.7299649715423584
354,4583.0,-1067.0,5652.0,0.0,12574.0,8218.0,1226.0,-6425.0,-50.0,-91.0,-15.0,7.0,-57.0,-14.0,-1.0,-30.0,1.7322807312011719
355,4583.0,-1067.0,5652.0,0.0,12574.0,8218.0,1226.0,-6425.0,-1.0,21.0,16.0,32.0,25.0,-9.0,-21.0,-12.0,1.7360944747924805
356,4583.0,-1067.0,5652.0,0.0,12574.0,8218.0,1226.0,-6425.0,-23.0,-48.0,-51.0,-24.0,-32.0,-42.0,-50.0,-43.0,1.7528095245361328
357,4561.0,-328.0,6085.0,0.0,12553.0,8872.0,315.0,-5661.0,-23.0,-48.0,-51.0,-24.0,-32.0,-42.0,-50.0,-43.0,1.756667137145996
358,4561.0,-328.0,6085.0,0.0,12553.0,8872.0,315.0,-5661.0,30.0,-1.0,74.0,54.0,85.0,92.0,112.0,72.0,1.7607910633087158
359,4561.0,-328.0,6085.0,0.0,12553.0,8872.0,315.0,-5661.0,7.0,-7.0,17.0,78.0,88.0,16.0,21.0,21.0,1.766864538192749
360,3059.0,-25.0,6962.0,0.0,12632.0,9310.0,-589.0,-4673.0,7.0,-7.0,17.0,78.0,88.0,16.0,21.0,21.0,1.7686457633972168
361,3059.0,-25.0,6962.0,0.0,12632.0,9310.0,-589.0,-4673.0,35.0,82.0,-7.0,-16.0,49.0,38.0,47.0,12.0,1.7735605239868164
362,3059.0,-25.0,6962.0,0.0,12632.0,9310.0,-589.0,-4673.0,-35.0,-35.0,45.0,-77.0,-97.0,-67.0,-78.0,-71.0,1.7893109321594238
363,1128.0,251.0,7389.0,0.0,12849.0,9411.0,-1405.0,-3575.0,-35.0,-35.0,45.0,-77.0,-97.0,-67.0,-78.0,-71.0,1.7922463417053223
364,1128.0,251.0,7389.0,0.0,12849.0,9411.0,-1405.0,-3575.0,8.0,9.0,-29.0,-56.0,-93.0,-50.0,-48.0,-41.0,1.800166368484497
365,1128.0,251.0,7389.0,0.0,12849.0,9411.0,-1405.0,-3575.0,0.0,0.0,-31.0,-40.0,-28.0,-73.0,-21.0,12.0,1.8133444786071777
366,169.0,427.0,7254.0,0.0,13089.0,9297.0,-2128.0,-2476.0,0.0,0.0,-31.0,-40.0,-28.0,-73.0,-21.0,12.0,1.8163416385650635
367,169.0,427.0,7254.0,0.0,13089.0,9297.0,-2128.0,-2476.0,-32.0,-19.0,1.0,-15.0,-77.0,-39.0,-22.0,-25.0,1.8184199333190918
368,169.0,427.0,7254.0,0.0,13089.0,9297.0,-2128.0,-2476.0,81.0,50.0,-32.0,-11.0,-28.0,107.0,106.0,112.0,1.826904535293579
369,697.0,-1738.0,5097.0,0.0,13092.0,9208.0,-2957.0,-1868.0,81.0,50.0,-32.0,-11.0,-28.0,107.0,106.0,112.0,1.8287484645843506
370,697.0,-1738.0,5097.0,0.0,13092.0,9208.0,-2957.0,-1868.0,-118.0,-128.0,-59.0,-59.0,-54.0,-88.0,-58.0,-61.0,1.8339474201202393
371,697.0,-1738.0,5097.0,0.0,13092.0,9208.0,-2957.0,-1868.0,-38.0,-84.0,14.0,36.0,-25.0,16.0,79.0,49.0,1.8497028350830078
372,1653.0,-2649.0,1914.0,0.0,12869.0,9321.0,-3558.0,-1806.0,-38.0,-84.0,14.0,36.0,-25.0,16.0,79.0,49.0,1.8568294048309326
373,1653.0,-2649.0,1914.0,0.0,12869.0,9321.0,-3558.0,-1806.0,-10.0,-30.0,-62.0,-95.0,-105.0,-25.0,-29.0,-42.0,1.86021089553833
374,1653.0,-2649.0,1914.0,0.0,12869.0,9321.0,-3558.0,-1806.0,-22.0,-8.0,-31.0,-43.0,5.0,-6.0,-7.0,-11.0,1.872847080230713
375,757.0,-1319.0,2669.0,0.0,12786.0,9293.0,-4028.0,-1535.0,-22.0,-8.0,-31.0,-43.0,5.0,-6.0,-7.0,-11.0,1.8752813339233398
376,757.0,-1319.0,2669.0,0.0,12786.0,9293.0,-4028.0,-1535.0,0.0,16.0,39.0,-24.0,-66.0,-107.0,-106.0,-40.0,1.88100266456604
377,757.0,-1319.0,2669.0,0.0,12786.0,9293.0,-4028.0,-1535.0,-8.0,-21.0,-41.0,4.0,-62.0,-76.0,-112.0,-75.0,1.8830716609954834
378,2136.0,-73.0,4434.0,0.0,12642.0,9377.0,-4462.0,-869.0,-8.0,-21.0,-41.0,4.0,-62.0,-76.0,-112.0,-75.0,1.8856980800628662
379,2136.0,-73.0,4434.0,0.0,12642.0,9377.0,-4462.0,-869.0,70.0,63.0,75.0,55.0,54.0,33.0,66.0,35.0,1.894029140472412
380,2136.0,-73.0,4434.0,0.0,12642.0,9377.0,-4462.0,-869.0,24.0,45.0,7.0,20.0,42.0,8.0,26.0,42.0,1.9017820358276367
381,2469.0,-374.0,1861.0,0.0,12398.0,9618.0,-4677.0,-567.0,24.0,45.0,7.0,20.0,42.0,8.0,26.0,42.0,1.9093694686889648
382,2469.0,-374.0,1861.0,0.0,12398.0,9618.0,-4677.0,-567.0,20.0,16.0,-95.0,18.0,27.0,17.0,24.0,2.0,1.9163832664489746
383,2469.0,-374.0,1861.0,0.0,12398.0,9618.0,-4677.0,-567.0,-1.0,43.0,26.0,-15.0,-2.0,10.0,13.0,1.0,1.9240257740020752
384,627.0,-850.0,390.0,0.0,12290.0,9677.0,-4837.0,-572.0,-1.0,43.0,26.0,-15.0,-2.0,10.0,13.0,1.0,1.9266119003295898
385,627.0,-850.0,390.0,0.0,12290.0,9677.0,-4837.0,-572.0,-30.0,-10.0,19.0,7.0,15.0,39.0,6.0,-15.0,1.9396271705627441
386,627.0,-850.0,390.0,0.0,12290.0,9677.0,-4837.0,-572.0,-3.0,-26.0,23.0,1.0,48.0,24.0,-49.0,-44.0,1.947547435760498
387,-1372.0,-254.0,1665.0,0.0,12435.0,9406.0,-5010.0,-469.0,-3.0,-26.0,23.0,1.0,48.0,24.0,-49.0,-44.0,1.954711675643921
388,-1372.0,-254.0,1665.0,0.0,12435.0,9406.0,-5010.0,-469.0,-11.0,-8.0,-22.0,-11.0,-9.0,-24.0,-64.0,-37.0,1.9566240310668945
389,-1372.0,-254.0,1665.0,0.0,12435.0,9406.0,-5010.0,-469.0,-16.0,-34.0,57.0,6.0,36.0,8.0,22.0,7.0,1.9691870212554932
390,-1735.0,-471.0,1382.0,0.0,12598.0,9080.0,-5204.0,-422.0,-16.0,-34.0,57.0,6.0,36.0,8.0,22.0,7.0,1.9710168838500977
391,-1735.0,-471.0,1382.0,0.0,12598.0,9080.0,-5204.0,-422.0,-7.0,-57.0,27.0,11.0,34.0,1.0,-8.0,6.0,1.976806402206421
392,-1735.0,-471.0,1382.0,0.0,12598.0,9080.0,-5204.0,-422.0,55.0,56.0,-32.0,30.0,39.0,14.0,26.0,36.0,2.002265691757202
393,-498.0,-148.0,357.0,0.0,12621.0,8994.0,-5300.0,-386.0,55.0,56.0,-32.0,30.0,39.0,14.0,26.0,36.0,2.0054242610931396
394,-498.0,-148.0,357.0,0.0,12621.0,8994.0,-5300.0,-386.0,11.0,6.0,-13.0,-7.0,-13.0,-7.0,25.0,20.0,2.008948564529419
395,-498.0,-148.0,357.0,0.0,12621.0,8994.0,-5300.0,-386.0,-14.0,3.0,-16.0,-16.0,-12.0,-32.0,-18.0,-24.0,2.0157132148742676
396,569.0,175.0,-97.0,0.0,12552.0,9108.0,-5270.0,-361.0,-14.0,3.0,-16.0,-16.0,-12.0,-32.0,-18.0,-24.0,2.018597364425659
397,569.0,175.0,-97.0,0.0,12552.0,9108.0,-5270.0,-361.0,-20.0,-28.0,-14.0,-21.0,-65.0,-45.0,-22.0,-44.0,2.0207438468933105
398,569.0,175.0,-97.0,0.0,12552.0,9108.0,-5270.0,-361.0,1.0,-29.0,24.0,15.0,74.0,75.0,96.0,64.0,2.0303375720977783
399,499.0,237.0,47.0,0.0,12522.0,9186.0,-5207.0,-334.0,1.0,-29.0,24.0,15.0,74.0,75.0,96.0,64.0,2.032221555709839
400,499.0,237.0,47.0,0.0,12522.0,9186.0,-5207.0,-334.0,-4.0,34.0,-41.0,-12.0,-58.0,-17.0,-16.0,-53.0,2.0362839698791504
401,499.0,237.0,47.0,0.0,12522.0,9186.0,-5207.0,-334.0,3.0,3.0,32.0,-9.0,-24.0,-9.0,-27.0,-18.0,2.051936149597168
402,-124.0,79.0,-251.0,0.0,12530.0,9192.0,-5176.0,-366.0,3.0,3.0,32.0,-9.0,-24.0,-9.0,-27.0,-18.0,2.054245948791504
403,-124.0,79.0,-251.0,0.0,12530.0,9192.0,-5176.0,-366.0,2.0,14.0,40.0,47.0,75.0,38.0,36.0,26.0,2.0587832927703857
404,-124.0,79.0,-251.0,0.0,12530.0,9192.0,-5176.0,-366.0,-4.0,3.0,-14.0,-9.0,-14.0,6.0,-30.0,-13.0,2.066030502319336
405,-370.0,-11.0,-418.0,0.0,12539.0,9184.0,-5164.0,-430.0,-4.0,3.0,-14.0,-9.0,-14.0,6.0,-30.0,-13.0,2.0746982097625732
406,-370.0,-11.0,-418.0,0.0,12539.0,9184.0,-5164.0,-430.0,-6.0,-29.0,20.0,25.0,22.0,32.0,46.0,37.0,2.0766165256500244
407,-370.0,-11.0,-418.0,0.0,12539.0,9184.0,-5164.0,-430.0,5.0,1.0,9.0,-1.0,1.0,36.0,27.0,14.0,2.089496612548828
408,-324.0,2.0,-177.0,0.0,12573.0,9139.0,-5160.0,-457.0,5.0,1.0,9.0,-1.0,1.0,36.0,27.0,14.0,2.0923447608947754
409,-324.0,2.0,-177.0,0.0,12573.0,9139.0,-5160.0,-457.0,21.0,37.0,12.0,6.0,31.0,8.0,-17.0,-3.0,2.0979318618774414
410,-324.0,2.0,-177.0,0.0,12573.0,9139.0,-5160.0,-457.0,22.0,46.0,12.0,-5.0,-17.0,12.0,42.0,27.0,2.113297700881958
411,-14.0,124.0,-143.0,0.0,12588.0,9129.0,-5140.0,-450.0,22.0,46.0,12.0,-5.0,-17.0,12.0,42.0,27.0,2.1172475814819336
412,-14.0,124.0,-143.0,0.0,12588.0,9129.0,-5140.0,-450.0,-16.0,-28.0,-6.0,-7.0,-14.0,-12.0,-30.0,-41.0,2.1203694343566895
413,-14.0,124.0,-143.0,0.0,12588.0,9129.0,-5140.0,-450.0,-7.0,11.0,18.0,8.0,22.0,-7.0,-1.0,-8.0,2.125680446624756
414,68.0,150.0,-224.0,0.0,12589.0,9143.0,-5113.0,-447.0,-7.0,11.0,18.0,8.0,22.0,-7.0,-1.0,-8.0,2.1340768337249756
415,68.0,150.0,-224.0,0.0,12589.0,9143.0,-5113.0,-447.0,7.0,-8.0,-21.0,-12.0,8.0,11.0,19.0,28.0,2.135967254638672
416,68.0,150.0,-224.0,0.0,12589.0,9143.0,-5113.0,-447.0,-2.0,-8.0,-2.0,7.0,17.0,3.0,19.0,5.0,2.149948835372925
417,-178.0,93.0,-54.0,0.0,12604.0,9125.0,-5109.0,-445.0,-2.0,-8.0,-2.0,7.0,17.0,3.0,19.0,5.0,2.151843547821045
418,-178.0,93.0,-54.0,0.0,12604.0,9125.0,-5109.0,-445.0,-20.0,-28.0,-22.0,-5.0,19.0,14.0,-5.0,-7.0,2.1563613414764404
419,-178.0,93.0,-54.0,0.0,12604.0,9125.0,-5109.0,-445.0,-3.0,9.0,-13.0,-3.0,-5.0,-21.0,-8.0,-1.0,2.172056198120117
420,-208.0,120.0,-25.0,0.0,12621.0,9104.0,-5103.0,-440.0,-3.0,9.0,-13.0,-3.0,-5.0,-21.0,-8.0,-1.0,2.1738662719726562
421,-208.0,120.0,-25.0,0.0,12621.0,9104.0,-5103.0,-440.0,24.0,27.0,-16.0,-8.0,16.0,0.0,95.0,64.0,2.1797850131988525
422,-208.0,120.0,-25.0,0.0,12621.0,9104.0,-5103.0,-440.0,-3.0,-17.0,-6.0,-10.0,-21.0,2.0,-9.0,-18.0,2.186352014541626
423,-39.0,132.0,30.0,0.0,12635.0,9092.0,-5094.0,-417.0,-3.0,-17.0,-6.0,-10.0,-21.0,2.0,-9.0,-18.0,2.1946537494659424
424,-39.0,132.0,30.0,0.0,12635.0,9092.0,-5094.0,-417.0,0.0,16.0,14.0,-4.0,32.0,43.0,40.0,9.0,2.1973934173583984
425,-39.0,132.0,30.0,0.0,12635.0,9092.0,-5094.0,-417.0,18.0,30.0,-43.0,-7.0,-12.0,-2.0,-20.0,-4.0,2.210411787033081
426,156.0,146.0,-93.0,0.0,12630.0,9115.0,-5066.0,-404.0,18.0,30.0,-43.0,-7.0,-12.0,-2.0,-20.0,-4.0,2.214125871658325
427,156.0,146.0,-93.0,0.0,12630.0,9115.0,-5066.0,-404.0,-41.0,-94.0,-10.0,-12.0,-8.0,-5.0,-21.0,-6.0,2.216200828552246
428,156.0,146.0,-93.0,0.0,12630.0,9115.0,-5066.0,-404.0,-15.0,-33.0,0.0,-4.0,-18.0,-6.0,-37.0,2.0,2.2323691844940186
429,27.0,52.0,-139.0,0.0,12610.0,9146.0,-5059.0,-414.0,-15.0,-33.0,0.0,-4.0,-18.0,-6.0,-37.0,2.0,2.2342641353607178
430,27.0,52.0,-139.0,0.0,12610.0,9146.0,-5059.0,-414.0,8.0,-12.0,-31.0,5.0,16.0,-16.0,-26.0,-5.0,2.239182233810425
431,27.0,52.0,-139.0,0.0,12610.0,9146.0,-5059.0,-414.0,8.0,10.0,8.0,22.0,40.0,33.0,29.0,12.0,2.255246877670288
432,-46.0,31.0,-15.0,0.0,12602.0,9155.0,-5061.0,-415.0,8.0,10.0,8.0,22.0,40.0,33.0,29.0,12.0,2.257065773010254
433,-46.0,31.0,-15.0,0.0,12602.0,9155.0,-5061.0,-415.0,1.0,6.0,9.0,-8.0,6.0,0.0,-4.0,7.0,2.259330987930298
434,-46.0,31.0,-15.0,0.0,12602.0,9155.0,-5061.0,-415.0,-6.0,-13.0,-11.0,9.0,55.0,37.0,-7.0,-20.0,2.2689647674560547
435,24.0,49.0,-19.0,0.0,12598.0,9169.0,-5046.0,-420.0,-6.0,-13.0,-11.0,9.0,55.0,37.0,-7.0,-20.0,2.276864767074585
436,24.0,49.0,-19.0,0.0,12598.0,9169.0,-5046.0,-420.0,-1.0,11.0,29.0,8.0,-31.0,-1.0,-22.0,-16.0,2.2797510623931885
437,24.0,49.0,-19.0,0.0,12598.0,9169.0,-5046.0,-420.0,0.0,1.0,85.0,-12.0,-76.0,-27.0,9.0,14.0,2.2921767234802246
438,-40.0,0.0,-86.0,0.0,12595.0,9179.0,-5035.0,-439.0,0.0,1.0,85.0,-12.0,-76.0,-27.0,9.0,14.0,2.2941551208496094
439,-40.0,0.0,-86.0,0.0,12595.0,9179.0,-5035.0,-439.0,-10.0,-5.0,37.0,-10.0,-3.0,2.0,1.0,-2.0,2.3071556091308594
440,-40.0,0.0,-86.0,0.0,12595.0,9179.0,-5035.0,-439.0,-13.0,-32.0,-24.0,-9.0,1.0,-12.0,-21.0,-15.0,2.3171708583831787
441,-42.0,-68.0,-68.0,0.0,12579.0,9193.0,-5047.0,-457.0,-13.0,-32.0,-24.0,-9.0,1.0,-12.0,-21.0,-15.0,2.32003116607666
442,-42.0,-68.0,-68.0,0.0,12579.0,9193.0,-5047.0,-457.0,1.0,4.0,24.0,-8.0,-13.0,-16.0,-56.0,-37.0,2.322000026702881
443,-42.0,-68.0,-68.0,0.0,12579.0,9193.0,-5047.0,-457.0,-3.0,16.0,-26.0,0.0,-13.0,-15.0,-21.0,-30.0,2.329810380935669
444,33.0,-24.0,28.0,0.0,12568.0,9206.0,-5050.0,-460.0,-3.0,16.0,-26.0,0.0,-13.0,-15.0,-21.0,-30.0,2.3326358795166016
445,33.0,-24.0,28.0,0.0,12568.0,9206.0,-5050.0,-460.0,3.0,-2.0,-9.0,-1.0,-9.0,-15.0,5.0,20.0,2.336064338684082
446,33.0,-24.0,28.0,0.0,12568.0,9206.0,-5050.0,-460.0,36.0,74.0,-1.0,-1.0,-17.0,-18.0,-52.0,16.0,2.352503538131714
447,20.0,-24.0,-16.0,0.0,12569.0,9209.0,-5041.0,-471.0,36.0,74.0,-1.0,-1.0,-17.0,-18.0,-52.0,16.0,2.3555076122283936
448,20.0,-24.0,-16.0,0.0,12569.0,9209.0,-5041.0,-471.0,28.0,40.0,-6.0,14.0,15.0,16.0,20.0,14.0,2.3597731590270996
449,20.0,-24.0,-16.0,0.0,12569.0,9209.0,-5041.0,-471.0,-6.0,-11.0,-6.0,0.0,3.0,0.0,16.0,15.0,2.3759348392486572
450,-81.0,-75.0,-119.0,0.0,12575.0,9199.0,-5042.0,-494.0,-6.0,-11.0,-6.0,0.0,3.0,0.0,16.0,15.0,2.3795390129089355
451,-81.0,-75.0,-119.0,0.0,12575.0,9199.0,-5042.0,-494.0,9.0,3.0,-14.0,8.0,8.0,0.0,-15.0,1.0,2.383258104324341
452,-81.0,-75.0,-119.0,0.0,12575.0,9199.0,-5042.0,-494.0,-3.0,-18.0,-45.0,-2.0,16.0,-8.0,10.0,1.0,2.390261173248291
453,11.0,-51.0,-94.0,0.0,12565.0,9208.0,-5048.0,-506.0,-3.0,-18.0,-45.0,-2.0,16.0,-8.0,10.0,1.0,2.3929715156555176
454,11.0,-51.0,-94.0,0.0,12565.0,9208.0,-5048.0,-506.0,-4.0,-1.0,9.0,14.0,13.0,6.0,18.0,-1.0,2.3964319229125977
455,11.0,-51.0,-94.0,0.0,12565.0,9208.0,-5048.0,-506.0,-8.0,-22.0,-3.0,10.0,35.0,14.0,1.0,10.0,2.4125967025756836
456,33.0,-42.0,-32.0,0.0,12558.0,9219.0,-5046.0,-518.0,-8.0,-22.0,-3.0,10.0,35.0,14.0,1.0,10.0,2.414808988571167
457,33.0,-42.0,-32.0,0.0,12558.0,9219.0,-5046.0,-518.0,-1.0,-5.0,21.0,-2.0,-34.0,-9.0,-6.0,-10.0,2.4186465740203857
458,33.0,-42.0,-32.0,0.0,12558.0,9219.0,-5046.0,-518.0,-5.0,-19.0,11.0,-4.0,-3.0,1.0,8.0,1.0,2.4349303245544434
459,-50.0,-29.0,-45.0,0.0,12563.0,9217.0,-5035.0,-538.0,-5.0,-19.0,11.0,-4.0,-3.0,1.0,8.0,1.0,2.43673038482666
460,-50.0,-29.0,-45.0,0.0,12563.0,9217.0,-5035.0,-538.0,-9.0,-20.0,-2.0,-8.0,-40.0,-10.0,-7.0,-1.0,2.438605546951294
461,-50.0,-29.0,-45.0,0.0,12563.0,9217.0,-5035.0,-538.0,13.0,38.0,-21.0,-5.0,-5.0,0.0,9.0,4.0,2.4492459297180176
462,-108.0,-76.0,-64.0,0.0,12571.0,9202.0,-5040.0,-558.0,13.0,38.0,-21.0,-5.0,-5.0,0.0,9.0,4.0,2.4510657787323
463,-108.0,-76.0,-64.0,0.0,12571.0,9202.0,-5040.0,-558.0,1.0,-9.0,-5.0,-3.0,8.0,4.0,9.0,6.0,2.4572224617004395
464,-108.0,-76.0,-64.0,0.0,12571.0,9202.0,-5040.0,-558.0,-9.0,-20.0,-12.0,-19.0,-10.0,-3.0,1.0,-6.0,2.4716789722442627
465,-12.0,-69.0,-13.0,0.0,12565.0,9203.0,-5053.0,-565.0,-9.0,-20.0,-12.0,-19.0,-10.0,-3.0,1.0,-6.0,2.4734880924224854
466,-12.0,-69.0,-13.0,0.0,12565.0,9203.0,-5053.0,-565.0,-3.0,13.0,-10.0,-5.0,4.0,-18.0,-30.0,-16.0,2.478982925415039
467,-12.0,-69.0,-13.0,0.0,12565.0,9203.0,-5053.0,-565.0,3.0,3.0,19.0,15.0,28.0,11.0,15.0,7.0,2.4964725971221924
468,90.0,-45.0,53.0,0.0,12551.0,9218.0,-5061.0,-562.0,3.0,3.0,19.0,15.0,28.0,11.0,15.0,7.0,2.499948024749756
469,90.0,-45.0,53.0,0.0,12551.0,9218.0,-5061.0,-562.0,-3.0,-8.0,8.0,-2.0,13.0,10.0,18.0,12.0,2.5032289028167725
470,90.0,-45.0,53.0,0.0,12551.0,9218.0,-5061.0,-562.0,16.0,40.0,4.0,13.0,-25.0,-4.0,5.0,2.0,2.5108141899108887
471,26.0,-53.0,26.0,0.0,12549.0,9217.0,-5066.0,-565.0,16.0,40.0,4.0,13.0,-25.0,-4.0,5.0,2.0,2.512667179107666
472,26.0,-53.0,26.0,0.0,12549.0,9217.0,-5066.0,-565.0,5.0,-4.0,11.0,8.0,-16.0,-4.0,-1.0,2.0,2.516279458999634
473,26.0,-53.0,26.0,0.0,12549.0,9217.0,-5066.0,-565.0,-7.0,-11.0,3.0,-1.0,4.0,-2.0,0.0,-4.0,2.5321927070617676
474,-40.0,-37.0,118.0,0.0,12549.0,9208.0,-5085.0,-554.0,-7.0,-11.0,3.0,-1.0,4.0,-2.0,0.0,-4.0,2.5340259075164795
475,-40.0,-37.0,118.0,0.0,12549.0,9208.0,-5085.0,-554.0,-4.0,3.0,-10.0,-5.0,14.0,3.0,-4.0,-3.0,2.5388004779815674
476,-40.0,-37.0,118.0,0.0,12549.0,9208.0,-5085.0,-554.0,-3.0,-9.0,8.0,4.0,-25.0,-15.0,-13.0,-6.0,2.5560126304626465
477,88.0,-69.0,85.0,0.0,12533.0,9218.0,-5107.0,-543.0,-3.0,-9.0,8.0,4.0,-25.0,-15.0,-13.0,-6.0,2.5591728687286377
478,88.0,-69.0,85.0,0.0,12533.0,9218.0,-5107.0,-543.0,4.0,4.0,1.0,4.0,8.0,7.0,27.0,17.0,2.5627708435058594
479,88.0,-69.0,85.0,0.0,12533.0,9218.0,-5107.0,-543.0,-2.0,-7.0,-3.0,-3.0,8.0,-1.0,3.0,-2.0,2.5693752765655518
480,85.0,-107.0,94.0,0.0,12516.0,9229.0,-5129.0,-539.0,-2.0,-7.0,-3.0,-3.0,8.0,-1.0,3.0,-2.0,2.5712311267852783
481,85.0,-107.0,94.0,0.0,12516.0,9229.0,-5129.0,-539.0,-1.0,5.0,-5.0,-1.0,2.0,-3.0,-12.0,-6.0,2.5768470764160156
482,85.0,-107.0,94.0,0.0,12516.0,9229.0,-5129.0,-539.0,-3.0,-3.0,-1.0,-5.0,7.0,1.0,7.0,7.0,2.593541383743286
483,-36.0,-140.0,47.0,0.0,12521.0,9213.0,-5145.0,-552.0,-3.0,-3.0,-1.0,-5.0,7.0,1.0,7.0,7.0,2.598432779312134
484,-36.0,-140.0,47.0,0.0,12521.0,9213.0,-5145.0,-552.0,5.0,14.0,-25.0,-12.0,-6.0,0.0,-1.0,-1.0,2.6023948192596436
485,-36.0,-140.0,47.0,0.0,12521.0,9213.0,-5145.0,-552.0,-1.0,-6.0,12.0,0.0,5.0,0.0,3.0,-3.0,2.6166868209838867
486,-81.0,-40.0,144.0,0.0,12530.0,9188.0,-5171.0,-534.0,-1.0,-6.0,12.0,0.0,5.0,0.0,3.0,-3.0,2.6203482151031494
487,-81.0,-40.0,144.0,0.0,12530.0,9188.0,-5171.0,-534.0,-2.0,-6.0,-6.0,-2.0,-15.0,-8.0,-8.0,-1.0,2.6243112087249756
488,-81.0,-40.0,144.0,0.0,12530.0,9188.0,-5171.0,-534.0,-5.0,-8.0,-9.0,-10.0,-1.0,2.0,-2.0,-3.0,2.6295971870422363
489,167.0,-38.0,57.0,0.0,12503.0,9214.0,-5190.0,-517.0,-5.0,-8.0,-9.0,-10.0,-1.0,2.0,-2.0,-3.0,2.6314477920532227
490,167.0,-38.0,57.0,0.0,12503.0,9214.0,-5190.0,-517.0,-3.0,-6.0,6.0,4.0,13.0,-1.0,-9.0,-6.0,2.63637375831604
491,167.0,-38.0,57.0,0.0,12503.0,9214.0,-5190.0,-517.0,-4.0,-11.0,5.0,1.0,-5.0,-4.0,-4.0,-4.0,2.65191650390625
492,-18.0,-57.0,56.0,0.0,12493.0,9218.0,-5205.0,-519.0,-4.0,-11.0,5.0,1.0,-5.0,-4.0,-4.0,-4.0,2.653684139251709
493,-18.0,-57.0,56.0,0.0,12493.0,9218.0,-5205.0,-519.0,-5.0,0.0,1.0,-7.0,1.0,0.0,-4.0,-6.0,2.6592156887054443
494,-18.0,-57.0,56.0,0.0,12493.0,9218.0,-5205.0,-519.0,-1.0,-1.0,-3.0,-2.0,5.0,-1.0,-1.0,-3.0,2.6762681007385254
495,-170.0,-106.0,97.0,0.0,12506.0,9186.0,-5231.0,-523.0,-1.0,-1.0,-3.0,-2.0,5.0,-1.0,-1.0,-3.0,2.6807546615600586
496,-170.0,-106.0,97.0,0.0,12506.0,9186.0,-5231.0,-523.0,-7.0,-14.0,-6.0,2.0,5.0,-2.0,-5.0,-4.0,2.684373140335083
497,-170.0,-106.0,97.0,0.0,12506.0,9186.0,-5231.0,-523.0,4.0,-4.0,-2.0,5.0,4.0,1.0,2.0,-2.0,2.6895296573638916
498,-33.0,-52.0,-13.0,0.0,12516.0,9170.0,-5233.0,-529.0,4.0,-4.0,-2.0,5.0,4.0,1.0,2.0,-2.0,2.6915786266326904
499,-33.0,-52.0,-13.0,0.0,12516.0,9170.0,-5233.0,-529.0,-8.0,-11.0,-1.0,0.0,-2.0,-2.0,-1.0,-3.0,2.6962697505950928
