,Gyro 0,Gyro 1,Gyro 2,Label,Orientation 0,Orientation 1,Orientation 2,Orientation 3,Sensor 0,Sensor 1,Sensor 2,Sensor 3,Sensor 4,Sensor 5,Sensor 6,Sensor 7,Timestamp
0,-90.0,108.0,-116.0,0.0,9080.0,12331.0,-1345.0,5666.0,-1.0,2.0,1.0,4.0,3.0,0.0,-5.0,-1.0,5.0067901611328125e-06
1,-90.0,108.0,-116.0,0.0,9080.0,12331.0,-1345.0,5666.0,-3.0,-5.0,-2.0,-2.0,-1.0,0.0,-4.0,-2.0,0.0034470558166503906
2,-133.0,120.0,-56.0,0.0,9095.0,12316.0,-1339.0,5677.0,-3.0,-5.0,-2.0,-2.0,-1.0,0.0,-4.0,-2.0,0.007218837738037109
3,-133.0,120.0,-56.0,0.0,9095.0,12316.0,-1339.0,5677.0,-3.0,-3.0,0.0,1.0,0.0,0.0,3.0,0.0,0.010066509246826172
4,-133.0,120.0,-56.0,0.0,9095.0,12316.0,-1339.0,5677.0,2.0,0.0,-1.0,-2.0,-4.0,1.0,-10.0,1.0,0.011943817138671875
5,-98.0,159.0,-120.0,0.0,9111.0,12301.0,-1319.0,5688.0,2.0,0.0,-1.0,-2.0,-4.0,1.0,-10.0,1.0,0.013784170150756836
6,-98.0,159.0,-120.0,0.0,9111.0,12301.0,-1319.0,5688.0,-2.0,-8.0,-3.0,0.0,2.0,4.0,19.0,0.0,0.01565408706665039
7,-98.0,159.0,-120.0,0.0,9111.0,12301.0,-1319.0,5688.0,-2.0,0.0,-2.0,-5.0,-14.0,-6.0,-11.0,-3.0,0.01745128631591797
8,92.0,183.0,-187.0,0.0,9106.0,12303.0,-1277.0,5701.0,-2.0,0.0,-2.0,-5.0,-14.0,-6.0,-11.0,-3.0,0.02011585235595703
9,92.0,183.0,-187.0,0.0,9106.0,12303.0,-1277.0,5701.0,10.0,23.0,5.0,-3.0,-2.0,1.0,5.0,2.0,0.02203202247619629
10,92.0,183.0,-187.0,0.0,9106.0,12303.0,-1277.0,5701.0,-3.0,6.0,3.0,1.0,2.0,-5.0,-9.0,-5.0,0.026013851165771484
11,265.0,169.0,-200.0,0.0,9074.0,12330.0,-1221.0,5705.0,-3.0,6.0,3.0,1.0,2.0,-5.0,-9.0,-5.0,0.028352975845336914
12,265.0,169.0,-200.0,0.0,9074.0,12330.0,-1221.0,5705.0,-3.0,-4.0,-2.0,-3.0,-9.0,-3.0,-10.0,-4.0,0.030468463897705078
13,265.0,169.0,-200.0,0.0,9074.0,12330.0,-1221.0,5705.0,2.0,5.0,3.0,2.0,6.0,0.0,11.0,2.0,0.03226184844970703
14,186.0,124.0,-208.0,0.0,9056.0,12354.0,-1166.0,5694.0,2.0,5.0,3.0,2.0,6.0,0.0,11.0,2.0,0.03405618667602539
15,186.0,124.0,-208.0,0.0,9056.0,12354.0,-1166.0,5694.0,-2.0,-4.0,-2.0,-3.0,1.0,-7.0,-15.0,-1.0,0.03609108924865723
16,186.0,124.0,-208.0,0.0,9056.0,12354.0,-1166.0,5694.0,-3.0,-6.0,-2.0,-2.0,0.0,6.0,3.0,1.0,0.03793740272521973
17,6.0,88.0,-160.0,0.0,9062.0,12356.0,-1135.0,5686.0,-3.0,-6.0,-2.0,-2.0,0.0,6.0,3.0,1.0,0.040816307067871094
18,6.0,88.0,-160.0,0.0,9062.0,12356.0,-1135.0,5686.0,1.0,-2.0,-1.0,4.0,5.0,3.0,-24.0,-1.0,0.04285550117492676
19,6.0,88.0,-160.0,0.0,9062.0,12356.0,-1135.0,5686.0,-3.0,-2.0,-4.0,-5.0,-8.0,-6.0,14.0,-1.0,0.04464840888977051
20,-79.0,94.0,-123.0,0.0,9077.0,12346.0,-1117.0,5688.0,-3.0,-2.0,-4.0,-5.0,-8.0,-6.0,14.0,-1.0,0.04651308059692383
21,-79.0,94.0,-123.0,0.0,9077.0,12346.0,-1117.0,5688.0,-1.0,-2.0,0.0,0.0,-9.0,-2.0,-17.0,-2.0,0.04837322235107422
22,-79.0,94.0,-123.0,0.0,9077.0,12346.0,-1117.0,5688.0,-1.0,-3.0,-1.0,-2.0,3.0,1.0,4.0,0.0,0.05052351951599121
23,27.0,131.0,-146.0,0.0,9080.0,12342.0,-1089.0,5697.0,-1.0,-3.0,-1.0,-2.0,3.0,1.0,4.0,0.0,0.05356287956237793
24,27.0,131.0,-146.0,0.0,9080.0,12342.0,-1089.0,5697.0,-2.0,-2.0,-1.0,3.0,3.0,-1.0,-3.0,0.0,0.056287288665771484
25,27.0,131.0,-146.0,0.0,9080.0,12342.0,-1089.0,5697.0,0.0,-4.0,-8.0,-9.0,-8.0,-2.0,0.0,0.0,0.05914020538330078
26,112.0,137.0,-98.0,0.0,9069.0,12347.0,-1057.0,5708.0,0.0,-4.0,-8.0,-9.0,-8.0,-2.0,0.0,0.0,0.06114840507507324
27,112.0,137.0,-98.0,0.0,9069.0,12347.0,-1057.0,5708.0,-2.0,-1.0,-1.0,-4.0,1.0,1.0,-9.0,0.0,0.06310105323791504
28,112.0,137.0,-98.0,0.0,9069.0,12347.0,-1057.0,5708.0,0.0,0.0,3.0,-1.0,2.0,0.0,8.0,0.0,0.06487369537353516
29,42.0,107.0,-79.0,0.0,9070.0,12348.0,-1030.0,5710.0,0.0,0.0,3.0,-1.0,2.0,0.0,8.0,0.0,0.06665325164794922
30,42.0,107.0,-79.0,0.0,9070.0,12348.0,-1030.0,5710.0,-3.0,-2.0,0.0,3.0,3.0,-1.0,-6.0,0.0,0.0686187744140625
31,42.0,107.0,-79.0,0.0,9070.0,12348.0,-1030.0,5710.0,0.0,-3.0,-5.0,-10.0,2.0,2.0,5.0,0.0,0.07046270370483398
32,-86.0,43.0,-71.0,0.0,9088.0,12337.0,-1021.0,5707.0,0.0,-3.0,-5.0,-10.0,2.0,2.0,5.0,0.0,0.0722498893737793
33,-86.0,43.0,-71.0,0.0,9088.0,12337.0,-1021.0,5707.0,4.0,11.0,5.0,-3.0,1.0,2.0,7.0,0.0,0.07412290573120117
34,-86.0,43.0,-71.0,0.0,9088.0,12337.0,-1021.0,5707.0,-2.0,0.0,0.0,3.0,-8.0,-4.0,-1.0,-2.0,0.07593393325805664
35,-123.0,3.0,-44.0,0.0,9107.0,12325.0,-1022.0,5702.0,-2.0,0.0,0.0,3.0,-8.0,-4.0,-1.0,-2.0,0.07776904106140137
36,-123.0,3.0,-44.0,0.0,9107.0,12325.0,-1022.0,5702.0,-5.0,-5.0,-4.0,-7.0,-3.0,-8.0,-8.0,-3.0,0.07962369918823242
37,-123.0,3.0,-44.0,0.0,9107.0,12325.0,-1022.0,5702.0,2.0,1.0,1.0,4.0,2.0,0.0,7.0,-1.0,0.0817875862121582
38,-165.0,-28.0,-36.0,0.0,9131.0,12311.0,-1030.0,5692.0,2.0,1.0,1.0,4.0,2.0,0.0,7.0,-1.0,0.08457517623901367
39,-165.0,-28.0,-36.0,0.0,9131.0,12311.0,-1030.0,5692.0,-3.0,-6.0,-3.0,-6.0,-10.0,-4.0,-7.0,-1.0,0.086944580078125
40,-165.0,-28.0,-36.0,0.0,9131.0,12311.0,-1030.0,5692.0,-1.0,-2.0,1.0,3.0,1.0,2.0,-1.0,0.0,0.0887906551361084
41,-206.0,12.0,-16.0,0.0,9159.0,12293.0,-1038.0,5687.0,-1.0,-2.0,1.0,3.0,1.0,2.0,-1.0,0.0,0.0916757583618164
42,-206.0,12.0,-16.0,0.0,9159.0,12293.0,-1038.0,5687.0,2.0,-1.0,-1.0,4.0,2.0,1.0,6.0,0.0,0.0936286449432373
43,-206.0,12.0,-16.0,0.0,9159.0,12293.0,-1038.0,5687.0,-1.0,0.0,2.0,5.0,10.0,1.0,-2.0,1.0,0.09539794921875
44,-179.0,16.0,-1.0,0.0,9179.0,12277.0,-1049.0,5687.0,-1.0,0.0,2.0,5.0,10.0,1.0,-2.0,1.0,0.09717822074890137
45,-179.0,16.0,-1.0,0.0,9179.0,12277.0,-1049.0,5687.0,-4.0,-9.0,-5.0,3.0,-7.0,-3.0,-5.0,-1.0,0.09901976585388184
46,-179.0,16.0,-1.0,0.0,9179.0,12277.0,-1049.0,5687.0,-3.0,-4.0,-2.0,2.0,0.0,-1.0,-1.0,-1.0,0.10077953338623047
47,-54.0,1.0,-2.0,0.0,9181.0,12275.0,-1055.0,5686.0,-3.0,-4.0,-2.0,2.0,0.0,-1.0,-1.0,-1.0,0.10270142555236816
48,-54.0,1.0,-2.0,0.0,9181.0,12275.0,-1055.0,5686.0,6.0,16.0,7.0,0.0,4.0,0.0,-3.0,2.0,0.10458016395568848
49,-54.0,1.0,-2.0,0.0,9181.0,12275.0,-1055.0,5686.0,0.0,0.0,-2.0,-1.0,-10.0,1.0,0.0,-1.0,0.10642790794372559
50,-15.0,-30.0,-4.0,0.0,9176.0,12284.0,-1057.0,5675.0,0.0,0.0,-2.0,-1.0,-10.0,1.0,0.0,-1.0,0.10822820663452148
51,-15.0,-30.0,-4.0,0.0,9176.0,12284.0,-1057.0,5675.0,-2.0,-3.0,-1.0,4.0,4.0,6.0,5.0,-1.0,0.11011934280395508
52,-15.0,-30.0,-4.0,0.0,9176.0,12284.0,-1057.0,5675.0,-1.0,2.0,0.0,-7.0,-8.0,-10.0,-7.0,-1.0,0.11194562911987305
53,-130.0,-36.0,-37.0,0.0,9194.0,12277.0,-1059.0,5659.0,-1.0,2.0,0.0,-7.0,-8.0,-10.0,-7.0,-1.0,0.11482977867126465
54,-130.0,-36.0,-37.0,0.0,9194.0,12277.0,-1059.0,5659.0,-1.0,-3.0,-2.0,-3.0,-1.0,-1.0,-8.0,-1.0,0.11724090576171875
55,-130.0,-36.0,-37.0,0.0,9194.0,12277.0,-1059.0,5659.0,-2.0,-1.0,-1.0,5.0,4.0,4.0,1.0,-1.0,0.11907196044921875
56,-150.0,-44.0,-34.0,0.0,9213.0,12269.0,-1069.0,5646.0,-2.0,-1.0,-1.0,5.0,4.0,4.0,1.0,-1.0,0.12085938453674316
57,-150.0,-44.0,-34.0,0.0,9213.0,12269.0,-1069.0,5646.0,-3.0,-2.0,0.0,-3.0,-4.0,-1.0,-6.0,-2.0,0.12296032905578613
58,-150.0,-44.0,-34.0,0.0,9213.0,12269.0,-1069.0,5646.0,-2.0,-4.0,-1.0,4.0,7.0,2.0,-3.0,0.0,0.12558221817016602
59,-53.0,-61.0,-46.0,0.0,9219.0,12267.0,-1077.0,5637.0,-2.0,-4.0,-1.0,4.0,7.0,2.0,-3.0,0.0,0.12738990783691406
60,-53.0,-61.0,-46.0,0.0,9219.0,12267.0,-1077.0,5637.0,1.0,3.0,1.0,-4.0,-2.0,-1.0,4.0,-2.0,0.12932252883911133
61,-53.0,-61.0,-46.0,0.0,9219.0,12267.0,-1077.0,5637.0,-1.0,-4.0,-1.0,-1.0,0.0,-2.0,-4.0,-1.0,0.13110733032226562
62,98.0,-47.0,-13.0,0.0,9203.0,12282.0,-1076.0,5632.0,-1.0,-4.0,-1.0,-1.0,0.0,-2.0,-4.0,-1.0,0.1328907012939453
63,98.0,-47.0,-13.0,0.0,9203.0,12282.0,-1076.0,5632.0,-2.0,-5.0,-1.0,0.0,2.0,-1.0,-4.0,-1.0,0.1347811222076416
64,98.0,-47.0,-13.0,0.0,9203.0,12282.0,-1076.0,5632.0,-2.0,-5.0,-3.0,-1.0,2.0,0.0,-1.0,-1.0,0.13674139976501465
65,46.0,-61.0,25.0,0.0,9193.0,12292.0,-1081.0,5624.0,-2.0,-5.0,-3.0,-1.0,2.0,0.0,-1.0,-1.0,0.13855957984924316
66,46.0,-61.0,25.0,0.0,9193.0,12292.0,-1081.0,5624.0,-2.0,-2.0,-3.0,-4.0,-3.0,-6.0,-9.0,-2.0,0.140411376953125
67,46.0,-61.0,25.0,0.0,9193.0,12292.0,-1081.0,5624.0,0.0,1.0,-2.0,-5.0,-6.0,-4.0,-3.0,1.0,0.1421968936920166
68,-51.0,-63.0,38.0,0.0,9196.0,12293.0,-1094.0,5615.0,0.0,1.0,-2.0,-5.0,-6.0,-4.0,-3.0,1.0,0.14447712898254395
69,-51.0,-63.0,38.0,0.0,9196.0,12293.0,-1094.0,5615.0,0.0,-5.0,-5.0,1.0,0.0,5.0,4.0,0.0,0.14723873138427734
70,-51.0,-63.0,38.0,0.0,9196.0,12293.0,-1094.0,5615.0,-2.0,-1.0,1.0,-1.0,-4.0,-3.0,-5.0,-3.0,0.1493666172027588
71,-87.0,-72.0,47.0,0.0,9201.0,12290.0,-1114.0,5609.0,-2.0,-1.0,1.0,-1.0,-4.0,-3.0,-5.0,-3.0,0.1511542797088623
72,-87.0,-72.0,47.0,0.0,9201.0,12290.0,-1114.0,5609.0,0.0,-1.0,-2.0,-2.0,4.0,2.0,-5.0,-2.0,0.15999054908752441
73,-87.0,-72.0,47.0,0.0,9201.0,12290.0,-1114.0,5609.0,1.0,4.0,1.0,-2.0,-1.0,0.0,0.0,0.0,0.16772127151489258
74,-2.0,-89.0,44.0,0.0,9195.0,12296.0,-1130.0,5602.0,1.0,4.0,1.0,-2.0,-1.0,0.0,0.0,0.0,0.17015433311462402
75,-2.0,-89.0,44.0,0.0,9195.0,12296.0,-1130.0,5602.0,1.0,4.0,1.0,-2.0,-4.0,0.0,-5.0,0.0,0.1766963005065918
76,-2.0,-89.0,44.0,0.0,9195.0,12296.0,-1130.0,5602.0,1.0,2.0,2.0,1.0,3.0,0.0,-1.0,-1.0,0.19205784797668457
77,47.0,-70.0,57.0,0.0,9183.0,12306.0,-1143.0,5599.0,1.0,2.0,2.0,1.0,3.0,0.0,-1.0,-1.0,0.19510793685913086
78,47.0,-70.0,57.0,0.0,9183.0,12306.0,-1143.0,5599.0,-4.0,-8.0,-3.0,0.0,-1.0,-4.0,0.0,-3.0,0.1985318660736084
79,47.0,-70.0,57.0,0.0,9183.0,12306.0,-1143.0,5599.0,-1.0,-3.0,-4.0,-4.0,-3.0,5.0,-1.0,-1.0,0.20575189590454102
80,29.0,-52.0,70.0,0.0,9172.0,12313.0,-1157.0,5599.0,-1.0,-3.0,-4.0,-4.0,-3.0,5.0,-1.0,-1.0,0.2084803581237793
81,29.0,-52.0,70.0,0.0,9172.0,12313.0,-1157.0,5599.0,-4.0,-4.0,-2.0,-1.0,-2.0,-2.0,-2.0,0.0,0.2203657627105713
82,29.0,-52.0,70.0,0.0,9172.0,12313.0,-1157.0,5599.0,-1.0,1.0,1.0,0.0,3.0,1.0,-1.0,0.0,0.22820377349853516
83,-6.0,-51.0,94.0,0.0,9163.0,12316.0,-1175.0,5601.0,-1.0,1.0,1.0,0.0,3.0,1.0,-1.0,0.0,0.2300255298614502
84,-6.0,-51.0,94.0,0.0,9163.0,12316.0,-1175.0,5601.0,-1.0,0.0,-4.0,-2.0,-2.0,-11.0,-8.0,-3.0,0.23497295379638672
85,-6.0,-51.0,94.0,0.0,9163.0,12316.0,-1175.0,5601.0,0.0,3.0,0.0,0.0,0.0,3.0,2.0,-2.0,0.25150108337402344
86,-26.0,-57.0,112.0,0.0,9159.0,12316.0,-1197.0,5604.0,0.0,3.0,0.0,0.0,0.0,3.0,2.0,-2.0,0.2548651695251465
87,-26.0,-57.0,112.0,0.0,9159.0,12316.0,-1197.0,5604.0,2.0,2.0,-2.0,-1.0,2.0,2.0,2.0,1.0,0.2593090534210205
88,-26.0,-57.0,112.0,0.0,9159.0,12316.0,-1197.0,5604.0,-2.0,-3.0,-1.0,-3.0,-4.0,-1.0,-5.0,-2.0,0.26541876792907715
89,-2.0,-50.0,94.0,0.0,9153.0,12317.0,-1215.0,5607.0,-2.0,-3.0,-1.0,-3.0,-4.0,-1.0,-5.0,-2.0,0.2671775817871094
90,-2.0,-50.0,94.0,0.0,9153.0,12317.0,-1215.0,5607.0,0.0,-2.0,1.0,-5.0,-5.0,0.0,2.0,2.0,0.28003787994384766
91,-2.0,-50.0,94.0,0.0,9153.0,12317.0,-1215.0,5607.0,1.0,5.0,4.0,1.0,0.0,0.0,-3.0,1.0,0.2892484664916992
92,45.0,-37.0,76.0,0.0,9145.0,12323.0,-1222.0,5607.0,1.0,5.0,4.0,1.0,0.0,0.0,-3.0,1.0,0.29262876510620117
93,45.0,-37.0,76.0,0.0,9145.0,12323.0,-1222.0,5607.0,-3.0,-3.0,-3.0,-1.0,0.0,-1.0,-2.0,2.0,0.29614758491516113
94,45.0,-37.0,76.0,0.0,9145.0,12323.0,-1222.0,5607.0,1.0,-1.0,-2.0,-1.0,0.0,-4.0,3.0,-1.0,0.31091952323913574
95,15.0,-48.0,71.0,0.0,9141.0,12326.0,-1231.0,5604.0,1.0,-1.0,-2.0,-1.0,0.0,-4.0,3.0,-1.0,0.3127110004425049
96,15.0,-48.0,71.0,0.0,9141.0,12326.0,-1231.0,5604.0,1.0,3.0,0.0,-3.0,-1.0,2.0,0.0,-2.0,0.32593703269958496
97,15.0,-48.0,71.0,0.0,9141.0,12326.0,-1231.0,5604.0,0.0,-3.0,-3.0,2.0,-1.0,-2.0,-5.0,0.0,0.3277287483215332
98,-36.0,-45.0,87.0,0.0,9142.0,12324.0,-1247.0,5603.0,0.0,-3.0,-3.0,2.0,-1.0,-2.0,-5.0,0.0,0.33376622200012207
99,-36.0,-45.0,87.0,0.0,9142.0,12324.0,-1247.0,5603.0,-1.0,-2.0,1.0,-1.0,-1.0,1.0,2.0,-3.0,0.3414750099182129
100,-36.0,-45.0,87.0,0.0,9142.0,12324.0,-1247.0,5603.0,-5.0,-11.0,-2.0,1.0,6.0,2.0,-3.0,-1.0,0.34788036346435547
101,-72.0,-41.0,106.0,0.0,9145.0,12319.0,-1268.0,5606.0,-5.0,-11.0,-2.0,1.0,6.0,2.0,-3.0,-1.0,0.3497202396392822
102,-72.0,-41.0,106.0,0.0,9145.0,12319.0,-1268.0,5606.0,1.0,1.0,2.0,-3.0,-9.0,-10.0,-9.0,0.0,0.3550753593444824
103,-72.0,-41.0,106.0,0.0,9145.0,12319.0,-1268.0,5606.0,1.0,1.0,1.0,0.0,2.0,3.0,3.0,0.0,0.371809720993042
104,-67.0,-35.0,118.0,0.0,9145.0,12315.0,-1288.0,5607.0,1.0,1.0,1.0,0.0,2.0,3.0,3.0,0.0,0.37644076347351074
105,-67.0,-35.0,118.0,0.0,9145.0,12315.0,-1288.0,5607.0,-1.0,-1.0,0.0,2.0,4.0,6.0,2.0,-2.0,0.38024425506591797
106,-67.0,-35.0,118.0,0.0,9145.0,12315.0,-1288.0,5607.0,0.0,-1.0,0.0,2.0,4.0,-1.0,-6.0,0.0,0.39435648918151855
107,-80.0,-67.0,96.0,0.0,9149.0,12311.0,-1312.0,5605.0,0.0,-1.0,0.0,2.0,4.0,-1.0,-6.0,0.0,0.398068904876709
108,-80.0,-67.0,96.0,0.0,9149.0,12311.0,-1312.0,5605.0,-2.0,0.0,-2.0,5.0,13.0,11.0,5.0,-1.0,0.4013833999633789
109,-80.0,-67.0,96.0,0.0,9149.0,12311.0,-1312.0,5605.0,-1.0,2.0,-2.0,-6.0,-14.0,-7.0,-6.0,-1.0,0.40929532051086426
110,-71.0,-63.0,91.0,0.0,9151.0,12308.0,-1334.0,5604.0,-1.0,2.0,-2.0,-6.0,-14.0,-7.0,-6.0,-1.0,0.41114234924316406
111,-71.0,-63.0,91.0,0.0,9151.0,12308.0,-1334.0,5604.0,-1.0,-2.0,0.0,0.0,-3.0,-3.0,-8.0,-1.0,0.41503334045410156
112,-71.0,-63.0,91.0,0.0,9151.0,12308.0,-1334.0,5604.0,0.0,1.0,-1.0,-1.0,2.0,1.0,1.0,0.0,0.43192481994628906
113,-60.0,-55.0,78.0,0.0,9153.0,12305.0,-1353.0,5602.0,0.0,1.0,-1.0,-1.0,2.0,1.0,1.0,0.0,0.4358513355255127
114,-60.0,-55.0,78.0,0.0,9153.0,12305.0,-1353.0,5602.0,-2.0,-6.0,-4.0,-1.0,-1.0,0.0,-2.0,1.0,0.440166711807251
115,-60.0,-55.0,78.0,0.0,9153.0,12305.0,-1353.0,5602.0,4.0,7.0,-1.0,-1.0,-3.0,-2.0,-5.0,-1.0,0.44475817680358887
116,-28.0,-52.0,61.0,0.0,9152.0,12306.0,-1366.0,5597.0,4.0,7.0,-1.0,-1.0,-3.0,-2.0,-5.0,-1.0,0.4529290199279785
117,-28.0,-52.0,61.0,0.0,9152.0,12306.0,-1366.0,5597.0,1.0,2.0,0.0,1.0,0.0,-7.0,1.0,-1.0,0.46009063720703125
118,-28.0,-52.0,61.0,0.0,9152.0,12306.0,-1366.0,5597.0,-1.0,-2.0,-1.0,1.0,1.0,-4.0,-4.0,-2.0,0.4679839611053467
119,-31.0,-57.0,65.0,0.0,9152.0,12309.0,-1379.0,5591.0,-1.0,-2.0,-1.0,1.0,1.0,-4.0,-4.0,-2.0,0.47011780738830566
120,-31.0,-57.0,65.0,0.0,9152.0,12309.0,-1379.0,5591.0,0.0,-1.0,0.0,0.0,-2.0,1.0,-4.0,-1.0,0.475292444229126
121,-31.0,-57.0,65.0,0.0,9152.0,12309.0,-1379.0,5591.0,-2.0,-5.0,-1.0,0.0,5.0,-1.0,3.0,-1.0,0.4922041893005371
122,-51.0,-60.0,65.0,0.0,9153.0,12308.0,-1395.0,5585.0,-2.0,-5.0,-1.0,0.0,5.0,-1.0,3.0,-1.0,0.49541544914245605
123,-51.0,-60.0,65.0,0.0,9153.0,12308.0,-1395.0,5585.0,-2.0,-1.0,-1.0,-3.0,-13.0,-7.0,-5.0,-1.0,0.4986915588378906
124,-51.0,-60.0,65.0,0.0,9153.0,12308.0,-1395.0,5585.0,-3.0,-7.0,-5.0,1.0,2.0,-3.0,-2.0,-2.0,0.5046412944793701
125,-75.0,-38.0,74.0,0.0,9159.0,12302.0,-1411.0,5585.0,-3.0,-7.0,-5.0,1.0,2.0,-3.0,-2.0,-2.0,0.5120599269866943
126,-75.0,-38.0,74.0,0.0,9159.0,12302.0,-1411.0,5585.0,-2.0,-2.0,-1.0,0.0,3.0,2.0,1.0,-2.0,0.5200181007385254
127,-75.0,-38.0,74.0,0.0,9159.0,12302.0,-1411.0,5585.0,-3.0,-3.0,-3.0,-1.0,2.0,4.0,-2.0,-1.0,0.5280599594116211
128,10.0,-58.0,43.0,0.0,9155.0,12307.0,-1419.0,5579.0,-3.0,-3.0,-3.0,-1.0,2.0,4.0,-2.0,-1.0,0.5298631191253662
129,10.0,-58.0,43.0,0.0,9155.0,12307.0,-1419.0,5579.0,-1.0,-3.0,4.0,1.0,1.0,-1.0,-4.0,-1.0,0.5354552268981934
130,10.0,-58.0,43.0,0.0,9155.0,12307.0,-1419.0,5579.0,-8.0,-8.0,-8.0,-1.0,-13.0,-6.0,-3.0,-2.0,0.5522119998931885
131,102.0,-74.0,-12.0,0.0,9144.0,12320.0,-1417.0,5568.0,-8.0,-8.0,-8.0,-1.0,-13.0,-6.0,-3.0,-2.0,0.5555624961853027
132,102.0,-74.0,-12.0,0.0,9144.0,12320.0,-1417.0,5568.0,2.0,6.0,7.0,3.0,-8.0,-5.0,-3.0,0.0,0.5603132247924805
133,102.0,-74.0,-12.0,0.0,9144.0,12320.0,-1417.0,5568.0,2.0,0.0,2.0,13.0,10.0,-6.0,0.0,4.0,0.5651240348815918
134,218.0,-102.0,-16.0,0.0,9112.0,12354.0,-1407.0,5548.0,2.0,0.0,2.0,13.0,10.0,-6.0,0.0,4.0,0.5806102752685547
135,218.0,-102.0,-16.0,0.0,9112.0,12354.0,-1407.0,5548.0,-2.0,-3.0,-5.0,5.0,9.0,7.0,1.0,1.0,0.5836508274078369
136,218.0,-102.0,-16.0,0.0,9112.0,12354.0,-1407.0,5548.0,13.0,21.0,6.0,-1.0,0.0,11.0,3.0,6.0,0.5890607833862305
137,28.0,-62.0,6.0,0.0,9112.0,12364.0,-1401.0,5529.0,13.0,21.0,6.0,-1.0,0.0,11.0,3.0,6.0,0.593026876449585
138,28.0,-62.0,6.0,0.0,9112.0,12364.0,-1401.0,5529.0,-2.0,0.0,-5.0,5.0,2.0,-2.0,-6.0,-4.0,0.5954575538635254
139,28.0,-62.0,6.0,0.0,9112.0,12364.0,-1401.0,5529.0,-4.0,-3.0,3.0,3.0,-3.0,6.0,0.0,-5.0,0.6127297878265381
140,-288.0,118.0,144.0,0.0,9157.0,12325.0,-1408.0,5538.0,-4.0,-3.0,3.0,3.0,-3.0,6.0,0.0,-5.0,0.6163935661315918
141,-288.0,118.0,144.0,0.0,9157.0,12325.0,-1408.0,5538.0,3.0,8.0,-10.0,3.0,4.0,-1.0,10.0,-2.0,0.6201877593994141
142,-288.0,118.0,144.0,0.0,9157.0,12325.0,-1408.0,5538.0,-4.0,-4.0,-9.0,-9.0,-1.0,0.0,-9.0,-3.0,0.6258394718170166
143,-338.0,263.0,225.0,0.0,9218.0,12265.0,-1405.0,5571.0,-4.0,-4.0,-9.0,-9.0,-1.0,0.0,-9.0,-3.0,0.6323411464691162
144,-338.0,263.0,225.0,0.0,9218.0,12265.0,-1405.0,5571.0,-5.0,-1.0,3.0,-10.0,0.0,3.0,12.0,-3.0,0.6404788494110107
145,-338.0,263.0,225.0,0.0,9218.0,12265.0,-1405.0,5571.0,1.0,5.0,-2.0,-13.0,-5.0,-8.0,-10.0,-3.0,0.6478955745697021
146,-525.0,290.0,195.0,0.0,9320.0,12167.0,-1409.0,5616.0,1.0,5.0,-2.0,-13.0,-5.0,-8.0,-10.0,-3.0,0.649669885635376
147,-525.0,290.0,195.0,0.0,9320.0,12167.0,-1409.0,5616.0,-8.0,-13.0,-10.0,-12.0,-28.0,-14.0,-1.0,-4.0,0.6550209522247314
148,-525.0,290.0,195.0,0.0,9320.0,12167.0,-1409.0,5616.0,7.0,0.0,13.0,3.0,-23.0,-14.0,-6.0,4.0,0.6730129718780518
149,-303.0,365.0,-55.0,0.0,9412.0,12083.0,-1361.0,5656.0,7.0,0.0,13.0,3.0,-23.0,-14.0,-6.0,4.0,0.6773035526275635
150,-303.0,365.0,-55.0,0.0,9412.0,12083.0,-1361.0,5656.0,8.0,20.0,24.0,14.0,27.0,11.0,-11.0,3.0,0.6810882091522217
151,-303.0,365.0,-55.0,0.0,9412.0,12083.0,-1361.0,5656.0,-1.0,-4.0,-3.0,4.0,20.0,5.0,-19.0,-5.0,0.6928718090057373
152,-24.0,490.0,-338.0,0.0,9475.0,12028.0,-1253.0,5691.0,-1.0,-4.0,-3.0,4.0,20.0,5.0,-19.0,-5.0,0.6960391998291016
153,-24.0,490.0,-338.0,0.0,9475.0,12028.0,-1253.0,5691.0,-2.0,-12.0,-10.0,-23.0,-38.0,-24.0,-1.0,-4.0,0.7020928859710693
154,-24.0,490.0,-338.0,0.0,9475.0,12028.0,-1253.0,5691.0,0.0,6.0,5.0,2.0,12.0,13.0,-1.0,4.0,0.716162919998169
155,180.0,784.0,-555.0,0.0,9542.0,11972.0,-1060.0,5735.0,0.0,6.0,5.0,2.0,12.0,13.0,-1.0,4.0,0.7179877758026123
156,180.0,784.0,-555.0,0.0,9542.0,11972.0,-1060.0,5735.0,-3.0,0.0,1.0,5.0,21.0,19.0,1.0,-1.0,0.7200722694396973
157,180.0,784.0,-555.0,0.0,9542.0,11972.0,-1060.0,5735.0,3.0,-1.0,0.0,1.0,-21.0,-16.0,-2.0,4.0,0.7322244644165039
158,27.0,821.0,-816.0,0.0,9664.0,11888.0,-821.0,5745.0,3.0,-1.0,0.0,1.0,-21.0,-16.0,-2.0,4.0,0.7364022731781006
159,27.0,821.0,-816.0,0.0,9664.0,11888.0,-821.0,5745.0,5.0,8.0,20.0,8.0,3.0,12.0,-3.0,7.0,0.7404038906097412
160,27.0,821.0,-816.0,0.0,9664.0,11888.0,-821.0,5745.0,-2.0,-3.0,-2.0,0.0,20.0,17.0,-2.0,-1.0,0.7640707492828369
161,141.0,964.0,-1232.0,0.0,9797.0,11813.0,-495.0,5714.0,-2.0,-3.0,-2.0,0.0,20.0,17.0,-2.0,-1.0,0.7679853439331055
162,141.0,964.0,-1232.0,0.0,9797.0,11813.0,-495.0,5714.0,-1.0,-5.0,-3.0,-14.0,-19.0,-9.0,-3.0,0.0,0.7711541652679443
163,141.0,964.0,-1232.0,0.0,9797.0,11813.0,-495.0,5714.0,-5.0,-5.0,4.0,22.0,10.0,-1.0,-4.0,-2.0,0.7769598960876465
164,-261.0,989.0,-1730.0,0.0,9958.0,11719.0,-169.0,5647.0,-5.0,-5.0,4.0,22.0,10.0,-1.0,-4.0,-2.0,0.7792129516601562
165,-261.0,989.0,-1730.0,0.0,9958.0,11719.0,-169.0,5647.0,-2.0,-8.0,-11.0,-10.0,-7.0,-4.0,-4.0,-3.0,0.7810869216918945
166,-261.0,989.0,-1730.0,0.0,9958.0,11719.0,-169.0,5647.0,1.0,8.0,0.0,-14.0,-4.0,-5.0,-4.0,-1.0,0.7904655933380127
167,-779.0,1072.0,-2058.0,0.0,10200.0,11555.0,177.0,5550.0,1.0,8.0,0.0,-14.0,-4.0,-5.0,-4.0,-1.0,0.7922685146331787
168,-779.0,1072.0,-2058.0,0.0,10200.0,11555.0,177.0,5550.0,-2.0,-2.0,-3.0,-1.0,-4.0,1.0,-2.0,1.0,0.7977793216705322
169,-779.0,1072.0,-2058.0,0.0,10200.0,11555.0,177.0,5550.0,-5.0,-4.0,-3.0,-7.0,-7.0,-3.0,-2.0,-5.0,0.812901496887207
170,-1197.0,1153.0,-2225.0,0.0,10493.0,11333.0,529.0,5439.0,-5.0,-4.0,-3.0,-7.0,-7.0,-3.0,-2.0,-5.0,0.8147423267364502
171,-1197.0,1153.0,-2225.0,0.0,10493.0,11333.0,529.0,5439.0,-1.0,6.0,3.0,-1.0,3.0,2.0,15.0,2.0,0.8203060626983643
172,-1197.0,1153.0,-2225.0,0.0,10493.0,11333.0,529.0,5439.0,-4.0,1.0,-2.0,-13.0,-15.0,-8.0,-9.0,-4.0,0.8363134860992432
173,-1721.0,1303.0,-2402.0,0.0,10846.0,11031.0,888.0,5320.0,-4.0,1.0,-2.0,-13.0,-15.0,-8.0,-9.0,-4.0,0.839069128036499
174,-1721.0,1303.0,-2402.0,0.0,10846.0,11031.0,888.0,5320.0,6.0,0.0,-5.0,6.0,12.0,4.0,3.0,4.0,0.8429949283599854
175,-1721.0,1303.0,-2402.0,0.0,10846.0,11031.0,888.0,5320.0,-2.0,-4.0,-1.0,0.0,6.0,6.0,-1.0,6.0,0.850510835647583
176,-2223.0,1384.0,-2859.0,0.0,11257.0,10652.0,1276.0,5157.0,-2.0,-4.0,-1.0,0.0,6.0,6.0,-1.0,6.0,0.8524599075317383
177,-2223.0,1384.0,-2859.0,0.0,11257.0,10652.0,1276.0,5157.0,-5.0,-6.0,-6.0,-5.0,-1.0,-7.0,-9.0,-5.0,0.8587124347686768
178,-2223.0,1384.0,-2859.0,0.0,11257.0,10652.0,1276.0,5157.0,1.0,-2.0,-3.0,-4.0,-4.0,-1.0,1.0,-2.0,0.8734250068664551
179,-2591.0,1422.0,-3578.0,0.0,11716.0,10201.0,1713.0,4915.0,1.0,-2.0,-3.0,-4.0,-4.0,-1.0,1.0,-2.0,0.8770365715026855
180,-2591.0,1422.0,-3578.0,0.0,11716.0,10201.0,1713.0,4915.0,-4.0,-2.0,-3.0,3.0,4.0,-1.0,6.0,-3.0,0.880885124206543
181,-2591.0,1422.0,-3578.0,0.0,11716.0,10201.0,1713.0,4915.0,0.0,-2.0,-2.0,0.0,0.0,-2.0,-4.0,-2.0,0.8961999416351318
182,-2612.0,1499.0,-4324.0,0.0,12175.0,9708.0,2227.0,4580.0,0.0,-2.0,-2.0,0.0,0.0,-2.0,-4.0,-2.0,0.8980371952056885
183,-2612.0,1499.0,-4324.0,0.0,12175.0,9708.0,2227.0,4580.0,-2.0,-1.0,-1.0,0.0,2.0,0.0,3.0,-2.0,0.8998959064483643
184,-2612.0,1499.0,-4324.0,0.0,12175.0,9708.0,2227.0,4580.0,-5.0,-3.0,0.0,0.0,0.0,-2.0,-2.0,-6.0,0.9225058555603027
185,-2709.0,1704.0,-4674.0,0.0,12609.0,9160.0,2790.0,4210.0,-5.0,-3.0,0.0,0.0,0.0,-2.0,-2.0,-6.0,0.9266970157623291
186,-2709.0,1704.0,-4674.0,0.0,12609.0,9160.0,2790.0,4210.0,-2.0,-1.0,-1.0,-1.0,-11.0,-5.0,-10.0,-1.0,0.9302377700805664
187,-2709.0,1704.0,-4674.0,0.0,12609.0,9160.0,2790.0,4210.0,-1.0,-2.0,-5.0,-3.0,-4.0,-2.0,-2.0,0.0,0.933546781539917
188,-2941.0,1871.0,-4865.0,0.0,13019.0,8540.0,3373.0,3824.0,-1.0,-2.0,-5.0,-3.0,-4.0,-2.0,-2.0,0.0,0.9358723163604736
189,-2941.0,1871.0,-4865.0,0.0,13019.0,8540.0,3373.0,3824.0,-2.0,2.0,2.0,4.0,7.0,2.0,9.0,2.0,0.947636604309082
190,-2941.0,1871.0,-4865.0,0.0,13019.0,8540.0,3373.0,3824.0,0.0,0.0,3.0,0.0,1.0,3.0,-3.0,-2.0,0.9577839374542236
191,-3142.0,1823.0,-5220.0,0.0,13409.0,7846.0,3955.0,3380.0,0.0,0.0,3.0,0.0,1.0,3.0,-3.0,-2.0,0.9608194828033447
192,-3142.0,1823.0,-5220.0,0.0,13409.0,7846.0,3955.0,3380.0,2.0,-1.0,-1.0,3.0,-1.0,-1.0,-1.0,0.0,0.9630963802337646
193,-3142.0,1823.0,-5220.0,0.0,13409.0,7846.0,3955.0,3380.0,0.0,2.0,-3.0,-1.0,0.0,-1.0,-3.0,-1.0,0.9706971645355225
194,-2963.0,1879.0,-5456.0,0.0,13732.0,7129.0,4547.0,2888.0,0.0,2.0,-3.0,-1.0,0.0,-1.0,-3.0,-1.0,0.9725069999694824
195,-2963.0,1879.0,-5456.0,0.0,13732.0,7129.0,4547.0,2888.0,-3.0,-4.0,-2.0,-2.0,0.0,-2.0,-6.0,-3.0,0.9779243469238281
196,-2963.0,1879.0,-5456.0,0.0,13732.0,7129.0,4547.0,2888.0,0.0,0.0,1.0,6.0,6.0,-2.0,3.0,-1.0,0.993722677230835
197,-2413.0,1945.0,-5517.0,0.0,13952.0,6456.0,5152.0,2352.0,0.0,0.0,1.0,6.0,6.0,-2.0,3.0,-1.0,0.9972167015075684
198,-2413.0,1945.0,-5517.0,0.0,13952.0,6456.0,5152.0,2352.0,2.0,3.0,2.0,4.0,2.0,3.0,9.0,1.0,1.0005011558532715
199,-2413.0,1945.0,-5517.0,0.0,13952.0,6456.0,5152.0,2352.0,-2.0,-2.0,-3.0,-2.0,-2.0,-1.0,-3.0,0.0,1.0164999961853027
200,-2157.0,1885.0,-5440.0,0.0,14097.0,5800.0,5728.0,1799.0,-2.0,-2.0,-3.0,-2.0,-2.0,-1.0,-3.0,0.0,1.01853609085083
201,-2157.0,1885.0,-5440.0,0.0,14097.0,5800.0,5728.0,1799.0,-1.0,-4.0,-2.0,-3.0,-1.0,1.0,-1.0,-1.0,1.0204195976257324
202,-2157.0,1885.0,-5440.0,0.0,14097.0,5800.0,5728.0,1799.0,3.0,-1.0,-1.0,2.0,-4.0,1.0,7.0,7.0,1.0298223495483398
203,-2339.0,1772.0,-5358.0,0.0,14204.0,5095.0,6254.0,1255.0,3.0,-1.0,-1.0,2.0,-4.0,1.0,7.0,7.0,1.0392184257507324
204,-2339.0,1772.0,-5358.0,0.0,14204.0,5095.0,6254.0,1255.0,-1.0,1.0,-1.0,0.0,-4.0,-1.0,-8.0,3.0,1.0433681011199951
205,-2339.0,1772.0,-5358.0,0.0,14204.0,5095.0,6254.0,1255.0,-6.0,-7.0,-6.0,-7.0,-3.0,3.0,-1.0,-3.0,1.054288625717163
206,-2551.0,1700.0,-5368.0,0.0,14270.0,4330.0,6747.0,710.0,-6.0,-7.0,-6.0,-7.0,-3.0,3.0,-1.0,-3.0,1.0584001541137695
207,-2551.0,1700.0,-5368.0,0.0,14270.0,4330.0,6747.0,710.0,-1.0,-1.0,-2.0,0.0,2.0,-1.0,3.0,-3.0,1.0605084896087646
208,-2551.0,1700.0,-5368.0,0.0,14270.0,4330.0,6747.0,710.0,-2.0,-1.0,-2.0,-1.0,3.0,0.0,-1.0,-2.0,1.0768234729766846
209,-2701.0,1492.0,-5348.0,0.0,14297.0,3521.0,7182.0,162.0,-2.0,-1.0,-2.0,-1.0,3.0,0.0,-1.0,-2.0,1.0787386894226074
210,-2701.0,1492.0,-5348.0,0.0,14297.0,3521.0,7182.0,162.0,-1.0,-3.0,-1.0,-1.0,2.0,1.0,-1.0,0.0,1.0805974006652832
211,-2701.0,1492.0,-5348.0,0.0,14297.0,3521.0,7182.0,162.0,0.0,-3.0,-2.0,-6.0,-11.0,-11.0,-4.0,-4.0,1.090942144393921
212,-2743.0,1176.0,-5177.0,0.0,14290.0,2700.0,7534.0,-372.0,0.0,-3.0,-2.0,-6.0,-11.0,-11.0,-4.0,-4.0,1.0983409881591797
213,-2743.0,1176.0,-5177.0,0.0,14290.0,2700.0,7534.0,-372.0,-3.0,-2.0,-1.0,2.0,1.0,-1.0,-9.0,-5.0,1.100269079208374
214,-2743.0,1176.0,-5177.0,0.0,14290.0,2700.0,7534.0,-372.0,1.0,3.0,2.0,1.0,-1.0,0.0,-2.0,0.0,1.1126608848571777
215,-2737.0,923.0,-4907.0,0.0,14251.0,1887.0,7810.0,-873.0,1.0,3.0,2.0,1.0,-1.0,0.0,-2.0,0.0,1.1217658519744873
216,-2737.0,923.0,-4907.0,0.0,14251.0,1887.0,7810.0,-873.0,1.0,1.0,0.0,-1.0,2.0,1.0,-1.0,1.0,1.1263446807861328
217,-2737.0,923.0,-4907.0,0.0,14251.0,1887.0,7810.0,-873.0,-1.0,1.0,-1.0,1.0,2.0,1.0,-3.0,-1.0,1.1365175247192383
218,-2844.0,807.0,-4682.0,0.0,14175.0,1061.0,8036.0,-1334.0,-1.0,1.0,-1.0,1.0,2.0,1.0,-3.0,-1.0,1.1416406631469727
219,-2844.0,807.0,-4682.0,0.0,14175.0,1061.0,8036.0,-1334.0,-1.0,-2.0,-2.0,-3.0,0.0,-2.0,-5.0,-1.0,1.143935203552246
220,-2844.0,807.0,-4682.0,0.0,14175.0,1061.0,8036.0,-1334.0,3.0,3.0,4.0,4.0,6.0,1.0,1.0,0.0,1.149932622909546
221,-3051.0,705.0,-4499.0,0.0,14061.0,206.0,8222.0,-1751.0,3.0,3.0,4.0,4.0,6.0,1.0,1.0,0.0,1.1581284999847412
222,-3051.0,705.0,-4499.0,0.0,14061.0,206.0,8222.0,-1751.0,1.0,0.0,1.0,1.0,4.0,0.0,-9.0,-2.0,1.160048484802246
223,-3051.0,705.0,-4499.0,0.0,14061.0,206.0,8222.0,-1751.0,-1.0,-3.0,-4.0,-6.0,-2.0,0.0,1.0,1.0,1.1751890182495117
224,-3269.0,434.0,-4266.0,0.0,13922.0,-676.0,8347.0,-2111.0,-1.0,-3.0,-4.0,-6.0,-2.0,0.0,1.0,1.0,1.1775133609771729
225,-3269.0,434.0,-4266.0,0.0,13922.0,-676.0,8347.0,-2111.0,-1.0,-1.0,-3.0,-2.0,4.0,4.0,8.0,2.0,1.1888792514801025
226,-3269.0,434.0,-4266.0,0.0,13922.0,-676.0,8347.0,-2111.0,-1.0,-3.0,-3.0,-4.0,-6.0,0.0,1.0,4.0,1.2050588130950928
227,-3415.0,56.0,-3858.0,0.0,13774.0,-1561.0,8399.0,-2392.0,-1.0,-3.0,-3.0,-4.0,-6.0,0.0,1.0,4.0,1.209259271621704
228,-3415.0,56.0,-3858.0,0.0,13774.0,-1561.0,8399.0,-2392.0,-2.0,1.0,-1.0,-3.0,-9.0,-7.0,-2.0,8.0,1.2112314701080322
229,-3415.0,56.0,-3858.0,0.0,13774.0,-1561.0,8399.0,-2392.0,0.0,-2.0,-3.0,-4.0,2.0,2.0,5.0,-4.0,1.2130131721496582
230,-3312.0,-191.0,-3190.0,0.0,13621.0,-2380.0,8402.0,-2574.0,0.0,-2.0,-3.0,-4.0,2.0,2.0,5.0,-4.0,1.2186708450317383
231,-3312.0,-191.0,-3190.0,0.0,13621.0,-2380.0,8402.0,-2574.0,-1.0,-1.0,-1.0,0.0,-6.0,-4.0,-11.0,2.0,1.220628023147583
232,-3312.0,-191.0,-3190.0,0.0,13621.0,-2380.0,8402.0,-2574.0,-2.0,-1.0,1.0,1.0,-1.0,-5.0,-2.0,-2.0,1.2330117225646973
233,-3132.0,-229.0,-2495.0,0.0,13459.0,-3112.0,8395.0,-2664.0,-2.0,-1.0,1.0,1.0,-1.0,-5.0,-2.0,-2.0,1.2348642349243164
234,-3132.0,-229.0,-2495.0,0.0,13459.0,-3112.0,8395.0,-2664.0,5.0,4.0,4.0,2.0,4.0,1.0,-2.0,-3.0,1.2411396503448486
235,-3132.0,-229.0,-2495.0,0.0,13459.0,-3112.0,8395.0,-2664.0,-1.0,-1.0,-1.0,3.0,3.0,2.0,0.0,1.0,1.2561938762664795
236,-2849.0,-79.0,-1981.0,0.0,13278.0,-3753.0,8409.0,-2706.0,-1.0,-1.0,-1.0,3.0,3.0,2.0,0.0,1.0,1.259692668914795
237,-2849.0,-79.0,-1981.0,0.0,13278.0,-3753.0,8409.0,-2706.0,0.0,-2.0,-1.0,-2.0,-8.0,-5.0,5.0,-2.0,1.263395071029663
238,-2849.0,-79.0,-1981.0,0.0,13278.0,-3753.0,8409.0,-2706.0,-1.0,-2.0,-4.0,-6.0,-8.0,-20.0,-11.0,-3.0,1.2705671787261963
239,-2367.0,140.0,-1433.0,0.0,13089.0,-4269.0,8454.0,-2720.0,-1.0,-2.0,-4.0,-6.0,-8.0,-20.0,-11.0,-3.0,1.2783865928649902
240,-2367.0,140.0,-1433.0,0.0,13089.0,-4269.0,8454.0,-2720.0,-3.0,-5.0,-6.0,-4.0,-5.0,3.0,-9.0,-6.0,1.2802953720092773
241,-2367.0,140.0,-1433.0,0.0,13089.0,-4269.0,8454.0,-2720.0,0.0,1.0,4.0,7.0,10.0,10.0,7.0,-1.0,1.29457426071167
242,-1720.0,353.0,-907.0,0.0,12911.0,-4639.0,8530.0,-2727.0,0.0,1.0,4.0,7.0,10.0,10.0,7.0,-1.0,1.2964012622833252
243,-1720.0,353.0,-907.0,0.0,12911.0,-4639.0,8530.0,-2727.0,3.0,3.0,4.0,5.0,4.0,5.0,4.0,2.0,1.2993831634521484
244,-1720.0,353.0,-907.0,0.0,12911.0,-4639.0,8530.0,-2727.0,1.0,3.0,2.0,0.0,-3.0,1.0,2.0,4.0,1.3162128925323486
245,-1115.0,477.0,-447.0,0.0,12796.0,-4822.0,8607.0,-2710.0,1.0,3.0,2.0,0.0,-3.0,1.0,2.0,4.0,1.3181054592132568
246,-1115.0,477.0,-447.0,0.0,12796.0,-4822.0,8607.0,-2710.0,-2.0,-2.0,-1.0,-2.0,0.0,1.0,-2.0,0.0,1.3234260082244873
247,-1115.0,477.0,-447.0,0.0,12796.0,-4822.0,8607.0,-2710.0,-1.0,-1.0,-1.0,-1.0,-3.0,-3.0,-2.0,-2.0,1.3405780792236328
248,-261.0,485.0,79.0,0.0,12739.0,-4837.0,8687.0,-2700.0,-1.0,-1.0,-1.0,-1.0,-3.0,-3.0,-2.0,-2.0,1.345337152481079
249,-261.0,485.0,79.0,0.0,12739.0,-4837.0,8687.0,-2700.0,-1.0,0.0,0.0,0.0,2.0,-2.0,-7.0,1.0,1.3488428592681885
250,-261.0,485.0,79.0,0.0,12739.0,-4837.0,8687.0,-2700.0,0.0,-2.0,-4.0,-8.0,-4.0,2.0,2.0,-1.0,1.353271484375
251,162.0,325.0,475.0,0.0,12584.0,-4945.0,8842.0,-2729.0,0.0,-2.0,-4.0,-8.0,-4.0,2.0,2.0,-1.0,1.3561770915985107
252,162.0,325.0,475.0,0.0,12584.0,-4945.0,8842.0,-2729.0,2.0,-1.0,-2.0,1.0,4.0,1.0,-3.0,4.0,1.3605098724365234
253,162.0,325.0,475.0,0.0,12584.0,-4945.0,8842.0,-2729.0,1.0,-1.0,-1.0,3.0,10.0,14.0,10.0,6.0,1.3759465217590332
254,200.0,261.0,817.0,0.0,12480.0,-4979.0,8975.0,-2709.0,1.0,-1.0,-1.0,3.0,10.0,14.0,10.0,6.0,1.3788127899169922
255,200.0,261.0,817.0,0.0,12480.0,-4979.0,8975.0,-2709.0,-6.0,-5.0,-7.0,-9.0,-21.0,-11.0,-2.0,-7.0,1.3813400268554688
256,200.0,261.0,817.0,0.0,12480.0,-4979.0,8975.0,-2709.0,3.0,2.0,5.0,6.0,3.0,1.0,4.0,3.0,1.3989408016204834
257,273.0,259.0,1098.0,0.0,12418.0,-4935.0,9102.0,-2647.0,3.0,2.0,5.0,6.0,3.0,1.0,4.0,3.0,1.4007341861724854
258,273.0,259.0,1098.0,0.0,12418.0,-4935.0,9102.0,-2647.0,-1.0,-2.0,1.0,0.0,1.0,3.0,-7.0,-1.0,1.4152019023895264
259,273.0,259.0,1098.0,0.0,12418.0,-4935.0,9102.0,-2647.0,-1.0,0.0,-1.0,-4.0,-3.0,0.0,2.0,-3.0,1.41871976852417
260,470.0,154.0,1422.0,0.0,12408.0,-4822.0,9200.0,-2562.0,-1.0,0.0,-1.0,-4.0,-3.0,0.0,2.0,-3.0,1.4222080707550049
261,470.0,154.0,1422.0,0.0,12408.0,-4822.0,9200.0,-2562.0,0.0,1.0,7.0,1.0,2.0,-1.0,-5.0,-2.0,1.426025152206421
262,470.0,154.0,1422.0,0.0,12408.0,-4822.0,9200.0,-2562.0,-1.0,0.0,-2.0,-1.0,-5.0,-7.0,-4.0,-4.0,1.4370815753936768
263,1022.0,-50.0,1764.0,0.0,12502.0,-4527.0,9257.0,-2435.0,-1.0,0.0,-2.0,-1.0,-5.0,-7.0,-4.0,-4.0,1.440300703048706
264,1022.0,-50.0,1764.0,0.0,12502.0,-4527.0,9257.0,-2435.0,-4.0,-7.0,-3.0,2.0,1.0,-1.0,3.0,-2.0,1.443657636642456
265,1022.0,-50.0,1764.0,0.0,12502.0,-4527.0,9257.0,-2435.0,0.0,2.0,2.0,3.0,-2.0,-7.0,-7.0,-2.0,1.4661312103271484
266,1819.0,-296.0,2153.0,0.0,12663.0,-4088.0,9272.0,-2322.0,0.0,2.0,2.0,3.0,-2.0,-7.0,-7.0,-2.0,1.4679112434387207
267,1819.0,-296.0,2153.0,0.0,12663.0,-4088.0,9272.0,-2322.0,-2.0,1.0,-4.0,-2.0,1.0,1.0,-9.0,-2.0,1.4740869998931885
268,1819.0,-296.0,2153.0,0.0,12663.0,-4088.0,9272.0,-2322.0,-4.0,-4.0,-7.0,-1.0,-3.0,-3.0,8.0,-4.0,1.4765934944152832
269,2438.0,-351.0,2487.0,0.0,12851.0,-3523.0,9270.0,-2217.0,-4.0,-4.0,-7.0,-1.0,-3.0,-3.0,8.0,-4.0,1.4787769317626953
270,2438.0,-351.0,2487.0,0.0,12851.0,-3523.0,9270.0,-2217.0,2.0,2.0,-2.0,1.0,-1.0,-3.0,-8.0,0.0,1.480642557144165
271,2438.0,-351.0,2487.0,0.0,12851.0,-3523.0,9270.0,-2217.0,-3.0,-5.0,-1.0,2.0,-1.0,1.0,-4.0,-3.0,1.495720386505127
272,2730.0,-487.0,2963.0,0.0,13059.0,-2856.0,9245.0,-2060.0,-3.0,-5.0,-1.0,2.0,-1.0,1.0,-4.0,-3.0,1.4975371360778809
273,2730.0,-487.0,2963.0,0.0,13059.0,-2856.0,9245.0,-2060.0,0.0,2.0,1.0,-2.0,1.0,-2.0,1.0,-1.0,1.5033488273620605
274,2730.0,-487.0,2963.0,0.0,13059.0,-2856.0,9245.0,-2060.0,1.0,0.0,-1.0,-3.0,1.0,1.0,-5.0,-1.0,1.518829345703125
275,2812.0,-561.0,3442.0,0.0,13267.0,-2115.0,9197.0,-1832.0,1.0,0.0,-1.0,-3.0,1.0,1.0,-5.0,-1.0,1.5208139419555664
276,2812.0,-561.0,3442.0,0.0,13267.0,-2115.0,9197.0,-1832.0,-5.0,-8.0,-5.0,-2.0,1.0,-1.0,-10.0,-4.0,1.5240614414215088
277,2812.0,-561.0,3442.0,0.0,13267.0,-2115.0,9197.0,-1832.0,1.0,4.0,1.0,-7.0,-4.0,-2.0,0.0,-1.0,1.5330157279968262
278,2594.0,-712.0,3448.0,0.0,13457.0,-1402.0,9104.0,-1574.0,1.0,4.0,1.0,-7.0,-4.0,-2.0,0.0,-1.0,1.5351974964141846
279,2594.0,-712.0,3448.0,0.0,13457.0,-1402.0,9104.0,-1574.0,4.0,2.0,-10.0,-6.0,2.0,1.0,-8.0,2.0,1.5416183471679688
280,2594.0,-712.0,3448.0,0.0,13457.0,-1402.0,9104.0,-1574.0,-3.0,-3.0,-2.0,-2.0,-3.0,-4.0,-4.0,-3.0,1.5554897785186768
281,2888.0,-681.0,3297.0,0.0,13614.0,-659.0,8988.0,-1364.0,-3.0,-3.0,-2.0,-2.0,-3.0,-4.0,-4.0,-3.0,1.5572915077209473
282,2888.0,-681.0,3297.0,0.0,13614.0,-659.0,8988.0,-1364.0,0.0,-2.0,2.0,2.0,0.0,-2.0,3.0,-2.0,1.5625386238098145
283,2888.0,-681.0,3297.0,0.0,13614.0,-659.0,8988.0,-1364.0,0.0,0.0,0.0,-1.0,-2.0,-2.0,-5.0,-2.0,1.57912278175354
284,3027.0,-566.0,3421.0,0.0,13728.0,125.0,8868.0,-1142.0,0.0,0.0,0.0,-1.0,-2.0,-2.0,-5.0,-2.0,1.5809063911437988
285,3027.0,-566.0,3421.0,0.0,13728.0,125.0,8868.0,-1142.0,-1.0,-2.0,-3.0,-2.0,-3.0,-2.0,-8.0,-1.0,1.5827672481536865
286,3027.0,-566.0,3421.0,0.0,13728.0,125.0,8868.0,-1142.0,-1.0,-2.0,-1.0,-1.0,-2.0,-1.0,-2.0,1.0,1.5938541889190674
287,2796.0,-461.0,3609.0,0.0,13804.0,907.0,8735.0,-858.0,-1.0,-2.0,-1.0,-1.0,-2.0,-1.0,-2.0,1.0,1.5957040786743164
288,2796.0,-461.0,3609.0,0.0,13804.0,907.0,8735.0,-858.0,-2.0,1.0,0.0,6.0,8.0,2.0,-10.0,0.0,1.6002159118652344
289,2796.0,-461.0,3609.0,0.0,13804.0,907.0,8735.0,-858.0,0.0,0.0,-1.0,2.0,1.0,2.0,2.0,1.0,1.616013765335083
290,2498.0,-434.0,3672.0,0.0,13846.0,1650.0,8585.0,-531.0,0.0,0.0,-1.0,2.0,1.0,2.0,2.0,1.0,1.6179859638214111
291,2498.0,-434.0,3672.0,0.0,13846.0,1650.0,8585.0,-531.0,-1.0,-2.0,1.0,2.0,-1.0,-1.0,9.0,0.0,1.6226682662963867
292,2498.0,-434.0,3672.0,0.0,13846.0,1650.0,8585.0,-531.0,-2.0,-3.0,1.0,1.0,0.0,-2.0,-3.0,-3.0,1.6385531425476074
293,2061.0,-358.0,3790.0,0.0,13854.0,2328.0,8429.0,-146.0,-2.0,-3.0,1.0,1.0,0.0,-2.0,-3.0,-3.0,1.6422884464263916
294,2061.0,-358.0,3790.0,0.0,13854.0,2328.0,8429.0,-146.0,-1.0,-2.0,0.0,-2.0,-7.0,-4.0,-10.0,-3.0,1.6442415714263916
295,2061.0,-358.0,3790.0,0.0,13854.0,2328.0,8429.0,-146.0,-2.0,-4.0,-3.0,-4.0,-3.0,0.0,2.0,-1.0,1.6535181999206543
296,1982.0,-166.0,3809.0,0.0,13818.0,2987.0,8276.0,254.0,-2.0,-4.0,-3.0,-4.0,-3.0,0.0,2.0,-1.0,1.6557159423828125
297,1982.0,-166.0,3809.0,0.0,13818.0,2987.0,8276.0,254.0,1.0,1.0,-2.0,-2.0,-1.0,1.0,-10.0,-2.0,1.6607794761657715
298,1982.0,-166.0,3809.0,0.0,13818.0,2987.0,8276.0,254.0,1.0,2.0,-1.0,0.0,3.0,5.0,6.0,2.0,1.6767501831054688
299,2116.0,140.0,3783.0,0.0,13710.0,3675.0,8155.0,661.0,1.0,2.0,-1.0,0.0,3.0,5.0,6.0,2.0,1.678595781326294
300,2116.0,140.0,3783.0,0.0,13710.0,3675.0,8155.0,661.0,1.0,0.0,1.0,0.0,-3.0,-1.0,8.0,1.0,1.682579517364502
301,2116.0,140.0,3783.0,0.0,13710.0,3675.0,8155.0,661.0,-1.0,-1.0,2.0,2.0,1.0,-4.0,-3.0,-4.0,1.6988153457641602
302,1633.0,114.0,3646.0,0.0,13593.0,4259.0,8021.0,1079.0,-1.0,-1.0,2.0,2.0,1.0,-4.0,-3.0,-4.0,1.7006034851074219
303,1633.0,114.0,3646.0,0.0,13593.0,4259.0,8021.0,1079.0,-1.0,-3.0,2.0,1.0,-1.0,-2.0,-2.0,0.0,1.7024946212768555
304,1633.0,114.0,3646.0,0.0,13593.0,4259.0,8021.0,1079.0,-5.0,-5.0,-1.0,-2.0,-1.0,-1.0,4.0,-1.0,1.712820291519165
305,1083.0,-26.0,3600.0,0.0,13491.0,4748.0,7844.0,1530.0,-5.0,-5.0,-1.0,-2.0,-1.0,-1.0,4.0,-1.0,1.7146284580230713
306,1083.0,-26.0,3600.0,0.0,13491.0,4748.0,7844.0,1530.0,6.0,5.0,2.0,-1.0,-7.0,-8.0,-19.0,0.0,1.7200446128845215
307,1083.0,-26.0,3600.0,0.0,13491.0,4748.0,7844.0,1530.0,-2.0,-1.0,-3.0,-11.0,-13.0,-7.0,-6.0,-5.0,1.73651123046875
308,1099.0,3.0,3706.0,0.0,13359.0,5237.0,7652.0,1993.0,-2.0,-1.0,-3.0,-11.0,-13.0,-7.0,-6.0,-5.0,1.7408480644226074
309,1099.0,3.0,3706.0,0.0,13359.0,5237.0,7652.0,1993.0,-2.0,-4.0,-2.0,-1.0,3.0,4.0,12.0,3.0,1.7434661388397217
310,1099.0,3.0,3706.0,0.0,13359.0,5237.0,7652.0,1993.0,-1.0,-6.0,0.0,4.0,2.0,2.0,-1.0,1.0,1.7592098712921143
311,1194.0,-55.0,3880.0,0.0,13192.0,5754.0,7428.0,2470.0,-1.0,-6.0,0.0,4.0,2.0,2.0,-1.0,1.0,1.761040449142456
312,1194.0,-55.0,3880.0,0.0,13192.0,5754.0,7428.0,2470.0,-1.0,0.0,-1.0,-2.0,5.0,2.0,-4.0,0.0,1.7628898620605469
313,1194.0,-55.0,3880.0,0.0,13192.0,5754.0,7428.0,2470.0,-2.0,-2.0,-4.0,-7.0,-6.0,-1.0,2.0,-1.0,1.7737977504730225
314,638.0,88.0,4146.0,0.0,13012.0,6195.0,7178.0,3034.0,-2.0,-2.0,-4.0,-7.0,-6.0,-1.0,2.0,-1.0,1.776761770248413
315,638.0,88.0,4146.0,0.0,13012.0,6195.0,7178.0,3034.0,-8.0,-9.0,-19.0,-15.0,-13.0,-6.0,-13.0,-5.0,1.780686616897583
316,638.0,88.0,4146.0,0.0,13012.0,6195.0,7178.0,3034.0,2.0,5.0,2.0,5.0,9.0,6.0,4.0,1.0,1.7956416606903076
317,82.0,15.0,3780.0,0.0,12869.0,6507.0,6904.0,3576.0,2.0,5.0,2.0,5.0,9.0,6.0,4.0,1.0,1.7974402904510498
318,82.0,15.0,3780.0,0.0,12869.0,6507.0,6904.0,3576.0,11.0,30.0,10.0,1.0,2.0,9.0,18.0,3.0,1.803398847579956
319,82.0,15.0,3780.0,0.0,12869.0,6507.0,6904.0,3576.0,-1.0,1.0,4.0,-6.0,-14.0,-10.0,-13.0,-9.0,1.8203518390655518
320,532.0,-85.0,3313.0,0.0,12694.0,6848.0,6657.0,4009.0,-1.0,1.0,4.0,-6.0,-14.0,-10.0,-13.0,-9.0,1.8253741264343262
321,532.0,-85.0,3313.0,0.0,12694.0,6848.0,6657.0,4009.0,-3.0,-6.0,1.0,0.0,7.0,3.0,-3.0,-3.0,1.827890396118164
322,532.0,-85.0,3313.0,0.0,12694.0,6848.0,6657.0,4009.0,3.0,4.0,-3.0,-1.0,9.0,5.0,5.0,3.0,1.832899570465088
323,721.0,-528.0,3133.0,0.0,12526.0,7211.0,6362.0,4363.0,3.0,4.0,-3.0,-1.0,9.0,5.0,5.0,3.0,1.8348901271820068
324,721.0,-528.0,3133.0,0.0,12526.0,7211.0,6362.0,4363.0,-1.0,-3.0,3.0,7.0,-4.0,5.0,-7.0,-1.0,1.8402328491210938
325,721.0,-528.0,3133.0,0.0,12526.0,7211.0,6362.0,4363.0,-4.0,-4.0,-7.0,2.0,3.0,-2.0,-3.0,0.0,1.8565526008605957
326,708.0,-747.0,2801.0,0.0,12377.0,7546.0,6054.0,4650.0,-4.0,-4.0,-7.0,2.0,3.0,-2.0,-3.0,0.0,1.8588547706604004
327,708.0,-747.0,2801.0,0.0,12377.0,7546.0,6054.0,4650.0,-1.0,-5.0,3.0,0.0,-7.0,4.0,7.0,1.0,1.8627235889434814
328,708.0,-747.0,2801.0,0.0,12377.0,7546.0,6054.0,4650.0,1.0,-1.0,-3.0,-10.0,-28.0,-17.0,-5.0,1.0,1.8805055618286133
329,491.0,-895.0,2256.0,0.0,12269.0,7820.0,5753.0,4862.0,1.0,-1.0,-3.0,-10.0,-28.0,-17.0,-5.0,1.0,1.883953332901001
330,491.0,-895.0,2256.0,0.0,12269.0,7820.0,5753.0,4862.0,-1.0,-4.0,0.0,-3.0,-7.0,-6.0,-7.0,-3.0,1.8874828815460205
331,491.0,-895.0,2256.0,0.0,12269.0,7820.0,5753.0,4862.0,1.0,20.0,9.0,11.0,12.0,15.0,11.0,5.0,1.8932616710662842
332,387.0,-959.0,1687.0,0.0,12192.0,8046.0,5484.0,4996.0,1.0,20.0,9.0,11.0,12.0,15.0,11.0,5.0,1.8950905799865723
333,387.0,-959.0,1687.0,0.0,12192.0,8046.0,5484.0,4996.0,-1.0,0.0,-7.0,-11.0,-53.0,-17.0,-18.0,0.0,1.9000463485717773
334,387.0,-959.0,1687.0,0.0,12192.0,8046.0,5484.0,4996.0,5.0,9.0,14.0,11.0,17.0,7.0,1.0,-1.0,1.9157466888427734
335,57.0,-1305.0,1214.0,0.0,12158.0,8253.0,5180.0,5064.0,5.0,9.0,14.0,11.0,17.0,7.0,1.0,-1.0,1.91815185546875
336,57.0,-1305.0,1214.0,0.0,12158.0,8253.0,5180.0,5064.0,1.0,-1.0,6.0,21.0,57.0,0.0,2.0,-1.0,1.924926519393921
337,57.0,-1305.0,1214.0,0.0,12158.0,8253.0,5180.0,5064.0,-2.0,-7.0,-7.0,-8.0,-15.0,-2.0,-3.0,0.0,1.939330816268921
338,-306.0,-1865.0,372.0,0.0,12263.0,8343.0,4870.0,4971.0,-2.0,-7.0,-7.0,-8.0,-15.0,-2.0,-3.0,0.0,1.9432640075683594
339,-306.0,-1865.0,372.0,0.0,12263.0,8343.0,4870.0,4971.0,-1.0,-4.0,-3.0,7.0,32.0,12.0,3.0,0.0,1.9469962120056152
340,-306.0,-1865.0,372.0,0.0,12263.0,8343.0,4870.0,4971.0,6.0,-3.0,2.0,11.0,41.0,9.0,6.0,3.0,1.9522705078125
341,60.0,-1554.0,-497.0,0.0,12366.0,8415.0,4646.0,4806.0,6.0,-3.0,2.0,11.0,41.0,9.0,6.0,3.0,1.960606575012207
342,60.0,-1554.0,-497.0,0.0,12366.0,8415.0,4646.0,4806.0,-1.0,2.0,4.0,20.0,30.0,2.0,-7.0,1.0,1.9624979496002197
343,60.0,-1554.0,-497.0,0.0,12366.0,8415.0,4646.0,4806.0,-3.0,-4.0,-7.0,8.0,-13.0,-7.0,1.0,-1.0,1.9760503768920898
344,486.0,-734.0,-90.0,0.0,12382.0,8484.0,4601.0,4683.0,-3.0,-4.0,-7.0,8.0,-13.0,-7.0,1.0,-1.0,1.977888584136963
345,486.0,-734.0,-90.0,0.0,12382.0,8484.0,4601.0,4683.0,-5.0,-8.0,-6.0,0.0,1.0,-8.0,3.0,-2.0,1.9827604293823242
346,486.0,-734.0,-90.0,0.0,12382.0,8484.0,4601.0,4683.0,-8.0,-20.0,2.0,-4.0,-28.0,1.0,-3.0,-2.0,2.0088160037994385
347,493.0,-408.0,617.0,0.0,12339.0,8575.0,4578.0,4654.0,-8.0,-20.0,2.0,-4.0,-28.0,1.0,-3.0,-2.0,2.0110409259796143
348,493.0,-408.0,617.0,0.0,12339.0,8575.0,4578.0,4654.0,-1.0,1.0,10.0,-3.0,-28.0,-11.0,-9.0,-8.0,2.012904644012451
349,493.0,-408.0,617.0,0.0,12339.0,8575.0,4578.0,4654.0,-3.0,-5.0,-2.0,-16.0,-20.0,-4.0,12.0,-1.0,2.0146877765655518
350,-775.0,-617.0,938.0,0.0,12391.0,8543.0,4434.0,4713.0,-3.0,-5.0,-2.0,-16.0,-20.0,-4.0,12.0,-1.0,2.0208382606506348
351,-775.0,-617.0,938.0,0.0,12391.0,8543.0,4434.0,4713.0,1.0,-2.0,-9.0,-5.0,-10.0,3.0,-2.0,1.0,2.0275487899780273
352,-775.0,-617.0,938.0,0.0,12391.0,8543.0,4434.0,4713.0,1.0,-5.0,-11.0,1.0,13.0,-1.0,-5.0,0.0,2.0356364250183105
353,-1360.0,-745.0,697.0,0.0,12524.0,8418.0,4200.0,4801.0,1.0,-5.0,-11.0,1.0,13.0,-1.0,-5.0,0.0,2.0374457836151123
354,-1360.0,-745.0,697.0,0.0,12524.0,8418.0,4200.0,4801.0,2.0,4.0,2.0,-4.0,-12.0,-2.0,0.0,0.0,2.0426502227783203
355,-1360.0,-745.0,697.0,0.0,12524.0,8418.0,4200.0,4801.0,-1.0,1.0,6.0,-5.0,6.0,0.0,-6.0,0.0,2.059730291366577
356,-775.0,-473.0,788.0,0.0,12587.0,8357.0,3990.0,4921.0,-1.0,1.0,6.0,-5.0,6.0,0.0,-6.0,0.0,2.0641708374023438
357,-775.0,-473.0,788.0,0.0,12587.0,8357.0,3990.0,4921.0,4.0,2.0,-3.0,-16.0,-8.0,3.0,-1.0,1.0,2.0679616928100586
358,-775.0,-473.0,788.0,0.0,12587.0,8357.0,3990.0,4921.0,-3.0,-12.0,-4.0,5.0,-1.0,-3.0,-3.0,-1.0,2.073073625564575
359,412.0,-33.0,871.0,0.0,12502.0,8457.0,3892.0,5045.0,-3.0,-12.0,-4.0,5.0,-1.0,-3.0,-3.0,-1.0,2.0807459354400635
360,412.0,-33.0,871.0,0.0,12502.0,8457.0,3892.0,5045.0,-2.0,-3.0,-5.0,-5.0,-5.0,-1.0,-2.0,1.0,2.082659959793091
361,412.0,-33.0,871.0,0.0,12502.0,8457.0,3892.0,5045.0,-4.0,-5.0,-6.0,-5.0,3.0,-3.0,0.0,-1.0,2.095903158187866
362,532.0,176.0,819.0,0.0,12386.0,8572.0,3873.0,5147.0,-4.0,-5.0,-6.0,-5.0,3.0,-3.0,0.0,-1.0,2.0978522300720215
363,532.0,176.0,819.0,0.0,12386.0,8572.0,3873.0,5147.0,-3.0,-3.0,-2.0,-2.0,0.0,0.0,3.0,-1.0,2.102673292160034
364,532.0,176.0,819.0,0.0,12386.0,8572.0,3873.0,5147.0,-1.0,1.0,-3.0,-5.0,-5.0,2.0,-5.0,-3.0,2.118917465209961
365,384.0,136.0,506.0,0.0,12308.0,8649.0,3857.0,5219.0,-1.0,1.0,-3.0,-5.0,-5.0,2.0,-5.0,-3.0,2.1207361221313477
366,384.0,136.0,506.0,0.0,12308.0,8649.0,3857.0,5219.0,-3.0,1.0,3.0,-3.0,2.0,-1.0,1.0,-1.0,2.1227409839630127
367,384.0,136.0,506.0,0.0,12308.0,8649.0,3857.0,5219.0,2.0,15.0,-1.0,-2.0,-2.0,-3.0,-8.0,-4.0,2.133054733276367
368,491.0,183.0,321.0,0.0,12229.0,8727.0,3867.0,5267.0,2.0,15.0,-1.0,-2.0,-2.0,-3.0,-8.0,-4.0,2.142000675201416
369,491.0,183.0,321.0,0.0,12229.0,8727.0,3867.0,5267.0,-1.0,-8.0,-4.0,1.0,2.0,-1.0,-7.0,-1.0,2.1439497470855713
370,491.0,183.0,321.0,0.0,12229.0,8727.0,3867.0,5267.0,0.0,-2.0,1.0,-1.0,-2.0,-1.0,2.0,-1.0,2.1561574935913086
371,448.0,190.0,305.0,0.0,12159.0,8791.0,3886.0,5310.0,0.0,-2.0,1.0,-1.0,-2.0,-1.0,2.0,-1.0,2.1591811180114746
372,448.0,190.0,305.0,0.0,12159.0,8791.0,3886.0,5310.0,2.0,5.0,2.0,-2.0,-2.0,1.0,-1.0,2.0,2.1632509231567383
373,448.0,190.0,305.0,0.0,12159.0,8791.0,3886.0,5310.0,0.0,3.0,-1.0,-7.0,4.0,0.0,-2.0,-2.0,2.1788647174835205
374,174.0,186.0,278.0,0.0,12116.0,8817.0,3885.0,5363.0,0.0,3.0,-1.0,-7.0,4.0,0.0,-2.0,-2.0,2.180659294128418
375,174.0,186.0,278.0,0.0,12116.0,8817.0,3885.0,5363.0,-2.0,-4.0,-1.0,-1.0,-3.0,-4.0,3.0,-1.0,2.1825339794158936
376,174.0,186.0,278.0,0.0,12116.0,8817.0,3885.0,5363.0,-1.0,-4.0,3.0,4.0,0.0,1.0,-3.0,0.0,2.192716598510742
377,26.0,114.0,121.0,0.0,12095.0,8829.0,3876.0,5399.0,-1.0,-4.0,3.0,4.0,0.0,1.0,-3.0,0.0,2.200852870941162
378,26.0,114.0,121.0,0.0,12095.0,8829.0,3876.0,5399.0,-1.0,-4.0,-8.0,-1.0,1.0,-3.0,-3.0,-1.0,2.2031123638153076
379,26.0,114.0,121.0,0.0,12095.0,8829.0,3876.0,5399.0,1.0,-1.0,-3.0,-5.0,-6.0,-4.0,-3.0,-3.0,2.215867519378662
380,63.0,49.0,-53.0,0.0,12086.0,8837.0,3883.0,5401.0,1.0,-1.0,-3.0,-5.0,-6.0,-4.0,-3.0,-3.0,2.218475103378296
381,63.0,49.0,-53.0,0.0,12086.0,8837.0,3883.0,5401.0,-1.0,-1.0,-4.0,-7.0,-7.0,3.0,-2.0,-1.0,2.2229981422424316
382,63.0,49.0,-53.0,0.0,12086.0,8837.0,3883.0,5401.0,-1.0,-1.0,-3.0,2.0,0.0,-1.0,-2.0,0.0,2.2395944595336914
383,171.0,-12.0,-129.0,0.0,12073.0,8861.0,3904.0,5375.0,-1.0,-1.0,-3.0,2.0,0.0,-1.0,-2.0,0.0,2.242769241333008
384,171.0,-12.0,-129.0,0.0,12073.0,8861.0,3904.0,5375.0,-5.0,-8.0,1.0,3.0,4.0,2.0,5.0,-2.0,2.2461507320404053
385,142.0,-2.0,-155.0,0.0,12060.0,8885.0,3929.0,5347.0,-5.0,-8.0,1.0,3.0,4.0,2.0,5.0,-2.0,2.2532994747161865
386,142.0,-2.0,-155.0,0.0,12060.0,8885.0,3929.0,5347.0,2.0,6.0,0.0,1.0,0.0,-4.0,-2.0,2.0,2.260892629623413
387,142.0,-2.0,-155.0,0.0,12060.0,8885.0,3929.0,5347.0,-1.0,-2.0,2.0,1.0,0.0,-1.0,-3.0,0.0,2.262831211090088
388,1.0,53.0,-141.0,0.0,12056.0,8889.0,3945.0,5338.0,-1.0,-2.0,2.0,1.0,0.0,-1.0,-3.0,0.0,2.275961399078369
389,1.0,53.0,-141.0,0.0,12056.0,8889.0,3945.0,5338.0,-2.0,-3.0,-2.0,3.0,2.0,2.0,1.0,0.0,2.2842013835906982
390,1.0,53.0,-141.0,0.0,12056.0,8889.0,3945.0,5338.0,-3.0,0.0,-7.0,1.0,7.0,0.0,-3.0,-2.0,2.286749839782715
391,-14.0,37.0,-161.0,0.0,12055.0,8891.0,3955.0,5328.0,-3.0,0.0,-7.0,1.0,7.0,0.0,-3.0,-2.0,2.2986977100372314
392,-14.0,37.0,-161.0,0.0,12055.0,8891.0,3955.0,5328.0,2.0,4.0,4.0,3.0,-1.0,-1.0,1.0,1.0,2.3005571365356445
393,-14.0,37.0,-161.0,0.0,12055.0,8891.0,3955.0,5328.0,-2.0,-1.0,1.0,-3.0,-10.0,-18.0,1.0,-1.0,2.302506685256958
394,116.0,37.0,-99.0,0.0,12040.0,8910.0,3974.0,5315.0,-2.0,-1.0,1.0,-3.0,-10.0,-18.0,1.0,-1.0,2.32183575630188
395,116.0,37.0,-99.0,0.0,12040.0,8910.0,3974.0,5315.0,-2.0,-3.0,2.0,-1.0,-9.0,-5.0,-4.0,-5.0,2.325624465942383
396,116.0,37.0,-99.0,0.0,12040.0,8910.0,3974.0,5315.0,2.0,2.0,-2.0,-3.0,2.0,5.0,-2.0,1.0,2.3275411128997803
397,122.0,30.0,-75.0,0.0,12025.0,8930.0,3986.0,5308.0,2.0,2.0,-2.0,-3.0,2.0,5.0,-2.0,1.0,2.3349547386169434
398,122.0,30.0,-75.0,0.0,12025.0,8930.0,3986.0,5308.0,-1.0,0.0,-1.0,-3.0,-1.0,2.0,3.0,-1.0,2.343209743499756
399,122.0,30.0,-75.0,0.0,12025.0,8930.0,3986.0,5308.0,-1.0,0.0,3.0,6.0,3.0,4.0,-3.0,0.0,2.345012664794922
400,129.0,12.0,-48.0,0.0,12005.0,8957.0,3994.0,5301.0,-1.0,0.0,3.0,6.0,3.0,4.0,-3.0,0.0,2.36030650138855
401,129.0,12.0,-48.0,0.0,12005.0,8957.0,3994.0,5301.0,-2.0,-4.0,-6.0,-2.0,-3.0,-2.0,-2.0,-2.0,2.3638503551483154
402,129.0,12.0,-48.0,0.0,12005.0,8957.0,3994.0,5301.0,2.0,1.0,-1.0,2.0,2.0,2.0,13.0,2.0,2.367231607437134
403,52.0,31.0,43.0,0.0,11988.0,8975.0,3992.0,5311.0,2.0,1.0,-1.0,2.0,2.0,2.0,13.0,2.0,2.3818328380584717
404,52.0,31.0,43.0,0.0,11988.0,8975.0,3992.0,5311.0,-2.0,-5.0,-4.0,0.0,5.0,2.0,-4.0,1.0,2.3860280513763428
405,52.0,31.0,43.0,0.0,11988.0,8975.0,3992.0,5311.0,-1.0,1.0,3.0,-4.0,-7.0,-1.0,-5.0,-2.0,2.389723300933838
406,2.0,52.0,107.0,0.0,11975.0,8983.0,3990.0,5329.0,-1.0,1.0,3.0,-4.0,-7.0,-1.0,-5.0,-2.0,2.3954734802246094
407,2.0,52.0,107.0,0.0,11975.0,8983.0,3990.0,5329.0,-1.0,1.0,-2.0,-2.0,0.0,2.0,2.0,0.0,2.4040534496307373
408,2.0,52.0,107.0,0.0,11975.0,8983.0,3990.0,5329.0,1.0,0.0,-2.0,-4.0,-2.0,3.0,-3.0,-3.0,2.407285451889038
409,3.0,40.0,117.0,0.0,11966.0,8985.0,3983.0,5349.0,1.0,0.0,-2.0,-4.0,-2.0,3.0,-3.0,-3.0,2.419665575027466
410,3.0,40.0,117.0,0.0,11966.0,8985.0,3983.0,5349.0,-2.0,-3.0,-2.0,-2.0,-5.0,-4.0,-5.0,0.0,2.4227981567382812
411,3.0,40.0,117.0,0.0,11966.0,8985.0,3983.0,5349.0,1.0,4.0,0.0,0.0,2.0,4.0,10.0,0.0,2.425790786743164
412,64.0,42.0,107.0,0.0,11950.0,8998.0,3972.0,5372.0,1.0,4.0,0.0,0.0,2.0,4.0,10.0,0.0,2.443239450454712
413,64.0,42.0,107.0,0.0,11950.0,8998.0,3972.0,5372.0,-1.0,1.0,1.0,0.0,0.0,-2.0,-4.0,-2.0,2.4465835094451904
414,64.0,42.0,107.0,0.0,11950.0,8998.0,3972.0,5372.0,1.0,0.0,-1.0,-2.0,-1.0,0.0,-5.0,-2.0,2.4497506618499756
415,144.0,54.0,93.0,0.0,11926.0,9020.0,3965.0,5393.0,1.0,0.0,-1.0,-2.0,-1.0,0.0,-5.0,-2.0,2.4564642906188965
416,144.0,54.0,93.0,0.0,11926.0,9020.0,3965.0,5393.0,-1.0,1.0,1.0,2.0,1.0,2.0,3.0,0.0,2.459056854248047
417,144.0,54.0,93.0,0.0,11926.0,9020.0,3965.0,5393.0,-2.0,-4.0,-4.0,0.0,3.0,-3.0,-7.0,-1.0,2.4623379707336426
418,210.0,84.0,97.0,0.0,11893.0,9050.0,3968.0,5414.0,-2.0,-4.0,-4.0,0.0,3.0,-3.0,-7.0,-1.0,2.4795637130737305
419,210.0,84.0,97.0,0.0,11893.0,9050.0,3968.0,5414.0,0.0,-2.0,-1.0,-1.0,-4.0,-4.0,-2.0,0.0,2.482875347137451
420,210.0,84.0,97.0,0.0,11893.0,9050.0,3968.0,5414.0,-1.0,-3.0,0.0,-5.0,-9.0,-8.0,9.0,-1.0,2.486231565475464
421,223.0,68.0,124.0,0.0,11859.0,9082.0,3964.0,5437.0,-1.0,-3.0,0.0,-5.0,-9.0,-8.0,9.0,-1.0,2.502492904663086
422,223.0,68.0,124.0,0.0,11859.0,9082.0,3964.0,5437.0,-1.0,-1.0,-1.0,-4.0,-3.0,2.0,-3.0,-1.0,2.5075089931488037
423,223.0,68.0,124.0,0.0,11859.0,9082.0,3964.0,5437.0,0.0,-1.0,-4.0,-2.0,-1.0,1.0,-2.0,0.0,2.51086688041687
424,250.0,50.0,139.0,0.0,11823.0,9118.0,3955.0,5462.0,0.0,-1.0,-4.0,-2.0,-1.0,1.0,-2.0,0.0,2.5160160064697266
425,250.0,50.0,139.0,0.0,11823.0,9118.0,3955.0,5462.0,2.0,4.0,-4.0,-2.0,-1.0,1.0,0.0,-1.0,2.518848180770874
426,250.0,50.0,139.0,0.0,11823.0,9118.0,3955.0,5462.0,-1.0,-2.0,1.0,1.0,0.0,0.0,-5.0,0.0,2.5222153663635254
427,284.0,50.0,209.0,0.0,11782.0,9158.0,3943.0,5493.0,-1.0,-2.0,1.0,1.0,0.0,0.0,-5.0,0.0,2.54069185256958
428,284.0,50.0,209.0,0.0,11782.0,9158.0,3943.0,5493.0,0.0,-2.0,2.0,3.0,7.0,3.0,-1.0,-1.0,2.5445830821990967
429,284.0,50.0,209.0,0.0,11782.0,9158.0,3943.0,5493.0,0.0,2.0,-1.0,2.0,-1.0,0.0,6.0,1.0,2.54813289642334
430,293.0,35.0,295.0,0.0,11736.0,9203.0,3923.0,5531.0,0.0,2.0,-1.0,2.0,-1.0,0.0,6.0,1.0,2.5621860027313232
431,293.0,35.0,295.0,0.0,11736.0,9203.0,3923.0,5531.0,-3.0,-1.0,-1.0,-4.0,1.0,-8.0,-7.0,-1.0,2.5659968852996826
432,293.0,35.0,295.0,0.0,11736.0,9203.0,3923.0,5531.0,-2.0,2.0,2.0,1.0,1.0,-1.0,-8.0,-1.0,2.5696256160736084
433,184.0,16.0,407.0,0.0,11691.0,9244.0,3883.0,5587.0,-2.0,2.0,2.0,1.0,1.0,-1.0,-8.0,-1.0,2.5760741233825684
434,184.0,16.0,407.0,0.0,11691.0,9244.0,3883.0,5587.0,0.0,0.0,-1.0,1.0,4.0,0.0,-1.0,0.0,2.58327579498291
435,184.0,16.0,407.0,0.0,11691.0,9244.0,3883.0,5587.0,-1.0,-2.0,-2.0,0.0,3.0,-2.0,-7.0,-1.0,2.585366725921631
436,-13.0,-31.0,489.0,0.0,11666.0,9260.0,3809.0,5662.0,-1.0,-2.0,-2.0,0.0,3.0,-2.0,-7.0,-1.0,2.5995869636535645
437,-13.0,-31.0,489.0,0.0,11666.0,9260.0,3809.0,5662.0,-2.0,-2.0,-1.0,-4.0,-3.0,-3.0,-6.0,-2.0,2.6028871536254883
438,-13.0,-31.0,489.0,0.0,11666.0,9260.0,3809.0,5662.0,0.0,1.0,2.0,-2.0,-4.0,-4.0,6.0,-1.0,2.6071085929870605
439,-81.0,-137.0,480.0,0.0,11654.0,9270.0,3709.0,5736.0,0.0,1.0,2.0,-2.0,-4.0,-4.0,6.0,-1.0,2.622715473175049
440,-81.0,-137.0,480.0,0.0,11654.0,9270.0,3709.0,5736.0,1.0,1.0,1.0,-2.0,-2.0,4.0,-3.0,-1.0,2.6271400451660156
441,-81.0,-137.0,480.0,0.0,11654.0,9270.0,3709.0,5736.0,-2.0,-2.0,0.0,2.0,0.0,0.0,-6.0,0.0,2.6305277347564697
442,-13.0,-233.0,502.0,0.0,11630.0,9304.0,3592.0,5803.0,-2.0,-2.0,0.0,2.0,0.0,0.0,-6.0,0.0,2.6353840827941895
443,-13.0,-233.0,502.0,0.0,11630.0,9304.0,3592.0,5803.0,-2.0,-2.0,0.0,6.0,5.0,7.0,3.0,1.0,2.6433379650115967
444,-13.0,-233.0,502.0,0.0,11630.0,9304.0,3592.0,5803.0,1.0,0.0,-5.0,-7.0,-2.0,4.0,-6.0,1.0,2.6451339721679688
445,-40.0,-284.0,643.0,0.0,11604.0,9337.0,3445.0,5891.0,1.0,0.0,-5.0,-7.0,-2.0,4.0,-6.0,1.0,2.659945249557495
446,-40.0,-284.0,643.0,0.0,11604.0,9337.0,3445.0,5891.0,-1.0,-1.0,-2.0,-1.0,-8.0,-4.0,-4.0,-1.0,2.6634411811828613
447,-40.0,-284.0,643.0,0.0,11604.0,9337.0,3445.0,5891.0,0.0,0.0,-1.0,-1.0,-2.0,-10.0,7.0,-1.0,2.6666007041931152
448,-67.0,-392.0,748.0,0.0,11578.0,9374.0,3269.0,5983.0,0.0,0.0,-1.0,-1.0,-2.0,-10.0,7.0,-1.0,2.682764768600464
449,-67.0,-392.0,748.0,0.0,11578.0,9374.0,3269.0,5983.0,-3.0,-3.0,-2.0,-6.0,-6.0,-2.0,-5.0,-2.0,2.6861729621887207
450,-67.0,-392.0,748.0,0.0,11578.0,9374.0,3269.0,5983.0,-2.0,-4.0,3.0,0.0,-1.0,0.0,-5.0,0.0,2.690122365951538
451,-58.0,-620.0,754.0,0.0,11558.0,9423.0,3060.0,6056.0,-2.0,-4.0,3.0,0.0,-1.0,0.0,-5.0,0.0,2.6950860023498535
452,-58.0,-620.0,754.0,0.0,11558.0,9423.0,3060.0,6056.0,-1.0,-2.0,1.0,-1.0,0.0,0.0,0.0,0.0,2.7034926414489746
453,-58.0,-620.0,754.0,0.0,11558.0,9423.0,3060.0,6056.0,-4.0,-7.0,-6.0,-3.0,-7.0,-1.0,-2.0,-3.0,2.705298662185669
454,44.0,-846.0,826.0,0.0,11515.0,9517.0,2822.0,6107.0,-4.0,-7.0,-6.0,-3.0,-7.0,-1.0,-2.0,-3.0,2.7198526859283447
455,44.0,-846.0,826.0,0.0,11515.0,9517.0,2822.0,6107.0,-2.0,-4.0,-4.0,-5.0,1.0,7.0,-2.0,1.0,2.724581003189087
456,44.0,-846.0,826.0,0.0,11515.0,9517.0,2822.0,6107.0,0.0,1.0,1.0,-4.0,-4.0,-1.0,8.0,-3.0,2.7281007766723633
457,-26.0,-924.0,1046.0,0.0,11457.0,9617.0,2542.0,6181.0,0.0,1.0,1.0,-4.0,-4.0,-1.0,8.0,-3.0,2.741833448410034
458,-26.0,-924.0,1046.0,0.0,11457.0,9617.0,2542.0,6181.0,3.0,7.0,0.0,1.0,10.0,6.0,0.0,0.0,2.746356964111328
459,-26.0,-924.0,1046.0,0.0,11457.0,9617.0,2542.0,6181.0,2.0,7.0,-6.0,-5.0,3.0,0.0,-9.0,-2.0,2.7502481937408447
460,-82.0,-969.0,1285.0,0.0,11384.0,9718.0,2227.0,6277.0,2.0,7.0,-6.0,-5.0,3.0,0.0,-9.0,-2.0,2.7574005126953125
461,-82.0,-969.0,1285.0,0.0,11384.0,9718.0,2227.0,6277.0,-1.0,-3.0,0.0,-4.0,-14.0,-10.0,-3.0,-1.0,2.7630386352539062
462,-82.0,-969.0,1285.0,0.0,11384.0,9718.0,2227.0,6277.0,-2.0,-1.0,2.0,4.0,-4.0,-11.0,-5.0,0.0,2.7648279666900635
463,-19.0,-1071.0,1498.0,0.0,11281.0,9843.0,1883.0,6382.0,-2.0,-1.0,2.0,4.0,-4.0,-11.0,-5.0,0.0,2.7791614532470703
464,-19.0,-1071.0,1498.0,0.0,11281.0,9843.0,1883.0,6382.0,-1.0,0.0,2.0,3.0,5.0,3.0,0.0,-2.0,2.7810463905334473
465,-19.0,-1071.0,1498.0,0.0,11281.0,9843.0,1883.0,6382.0,-1.0,-3.0,-1.0,0.0,3.0,8.0,12.0,-3.0,2.7828309535980225
466,-27.0,-1176.0,1756.0,0.0,11172.0,9963.0,1533.0,6478.0,-1.0,-3.0,-1.0,0.0,3.0,8.0,12.0,-3.0,2.8019444942474365
467,-27.0,-1176.0,1756.0,0.0,11172.0,9963.0,1533.0,6478.0,-1.0,-6.0,-5.0,1.0,-4.0,-3.0,0.0,-1.0,2.805656671524048
468,-27.0,-1176.0,1756.0,0.0,11172.0,9963.0,1533.0,6478.0,6.0,9.0,-2.0,-7.0,8.0,15.0,2.0,5.0,2.80924654006958
469,-79.0,-1164.0,2059.0,0.0,11040.0,10076.0,1146.0,6610.0,6.0,9.0,-2.0,-7.0,8.0,15.0,2.0,5.0,2.815197467803955
470,-79.0,-1164.0,2059.0,0.0,11040.0,10076.0,1146.0,6610.0,-2.0,0.0,-7.0,-4.0,-5.0,-18.0,-14.0,-7.0,2.8244595527648926
471,-79.0,-1164.0,2059.0,0.0,11040.0,10076.0,1146.0,6610.0,1.0,0.0,3.0,6.0,9.0,-1.0,-8.0,2.0,2.8263466358184814
472,85.0,-1103.0,2350.0,0.0,10858.0,10202.0,750.0,6772.0,1.0,0.0,3.0,6.0,9.0,-1.0,-8.0,2.0,2.840677499771118
473,85.0,-1103.0,2350.0,0.0,10858.0,10202.0,750.0,6772.0,2.0,1.0,-2.0,-2.0,9.0,7.0,4.0,4.0,2.842912435531616
474,85.0,-1103.0,2350.0,0.0,10858.0,10202.0,750.0,6772.0,-3.0,-5.0,1.0,-1.0,-7.0,-6.0,5.0,-4.0,2.8446953296661377
475,115.0,-1151.0,2503.0,0.0,10654.0,10329.0,337.0,6936.0,-3.0,-5.0,1.0,-1.0,-7.0,-6.0,5.0,-4.0,2.8613710403442383
476,115.0,-1151.0,2503.0,0.0,10654.0,10329.0,337.0,6936.0,-5.0,-7.0,1.0,6.0,2.0,3.0,3.0,2.0,2.8633980751037598
477,115.0,-1151.0,2503.0,0.0,10654.0,10329.0,337.0,6936.0,-6.0,-5.0,-4.0,-3.0,6.0,-7.0,-8.0,-2.0,2.8653032779693604
478,207.0,-1103.0,2497.0,0.0,10429.0,10454.0,-64.0,7097.0,-6.0,-5.0,-4.0,-3.0,6.0,-7.0,-8.0,-2.0,2.8755016326904297
479,207.0,-1103.0,2497.0,0.0,10429.0,10454.0,-64.0,7097.0,1.0,0.0,0.0,-1.0,1.0,3.0,0.0,-3.0,2.8832314014434814
480,207.0,-1103.0,2497.0,0.0,10429.0,10454.0,-64.0,7097.0,-6.0,-13.0,-7.0,-12.0,-24.0,-9.0,-13.0,-1.0,2.885296106338501
481,487.0,-932.0,2309.0,0.0,10179.0,10588.0,-402.0,7248.0,-6.0,-13.0,-7.0,-12.0,-24.0,-9.0,-13.0,-1.0,2.900089979171753
482,487.0,-932.0,2309.0,0.0,10179.0,10588.0,-402.0,7248.0,0.0,3.0,-1.0,-5.0,-1.0,-12.0,-4.0,-1.0,2.903299570083618
483,487.0,-932.0,2309.0,0.0,10179.0,10588.0,-402.0,7248.0,3.0,5.0,6.0,2.0,-1.0,-3.0,12.0,2.0,2.907538890838623
484,980.0,-614.0,2014.0,0.0,9892.0,10745.0,-625.0,7396.0,3.0,5.0,6.0,2.0,-1.0,-3.0,12.0,2.0,2.9212210178375244
485,980.0,-614.0,2014.0,0.0,9892.0,10745.0,-625.0,7396.0,2.0,1.0,3.0,27.0,54.0,17.0,7.0,5.0,2.92451548576355
486,980.0,-614.0,2014.0,0.0,9892.0,10745.0,-625.0,7396.0,0.0,3.0,-1.0,0.0,-11.0,1.0,-3.0,-3.0,2.927701950073242
487,1448.0,-312.0,1818.0,0.0,9564.0,10925.0,-750.0,7551.0,0.0,3.0,-1.0,0.0,-11.0,1.0,-3.0,-3.0,2.935307025909424
488,1448.0,-312.0,1818.0,0.0,9564.0,10925.0,-750.0,7551.0,-4.0,-8.0,-2.0,-7.0,-24.0,-10.0,-4.0,-1.0,2.9432923793792725
489,1448.0,-312.0,1818.0,0.0,9564.0,10925.0,-750.0,7551.0,6.0,23.0,3.0,-13.0,-4.0,12.0,4.0,4.0,2.9451022148132324
490,1734.0,-27.0,1496.0,0.0,9228.0,11104.0,-779.0,7703.0,6.0,23.0,3.0,-13.0,-4.0,12.0,4.0,4.0,2.960233211517334
491,1734.0,-27.0,1496.0,0.0,9228.0,11104.0,-779.0,7703.0,2.0,4.0,5.0,14.0,29.0,10.0,-4.0,-3.0,2.964430809020996
492,1734.0,-27.0,1496.0,0.0,9228.0,11104.0,-779.0,7703.0,-5.0,-10.0,-3.0,-8.0,-9.0,-26.0,-4.0,-3.0,2.968085765838623
493,1911.0,222.0,1029.0,0.0,8912.0,11274.0,-709.0,7834.0,-5.0,-10.0,-3.0,-8.0,-9.0,-26.0,-4.0,-3.0,2.981746196746826
494,1911.0,222.0,1029.0,0.0,8912.0,11274.0,-709.0,7834.0,-4.0,5.0,-3.0,-6.0,-1.0,4.0,-1.0,0.0,2.9857304096221924
495,1911.0,222.0,1029.0,0.0,8912.0,11274.0,-709.0,7834.0,-2.0,2.0,14.0,7.0,4.0,13.0,-3.0,-4.0,2.9894230365753174
496,2083.0,436.0,569.0,0.0,8614.0,11436.0,-544.0,7944.0,-2.0,2.0,14.0,7.0,4.0,13.0,-3.0,-4.0,2.995107412338257
497,2083.0,436.0,569.0,0.0,8614.0,11436.0,-544.0,7944.0,-1.0,-4.0,0.0,-19.0,-35.0,-21.0,-5.0,1.0,3.003277063369751
498,2083.0,436.0,569.0,0.0,8614.0,11436.0,-544.0,7944.0,-3.0,-6.0,-10.0,-1.0,-8.0,-2.0,-6.0,-4.0,3.0058786869049072
499,2282.0,555.0,292.0,0.0,8311.0,11603.0,-317.0,8038.0,-3.0,-6.0,-10.0,-1.0,-8.0,-2.0,-6.0,-4.0,3.018681764602661
