,Gyro 0,Gyro 1,Gyro 2,Label,Orientation 0,Orientation 1,Orientation 2,Orientation 3,Sensor 0,Sensor 1,Sensor 2,Sensor 3,Sensor 4,Sensor 5,Sensor 6,Sensor 7,Timestamp
0,-65.0,25.0,-7.0,1.0,-4109.0,-10582.0,-7379.0,-9227.0,-1.0,4.0,0.0,7.0,-16.0,0.0,2.0,4.0,2.6226043701171875e-06
1,-65.0,25.0,-7.0,1.0,-4109.0,-10582.0,-7379.0,-9227.0,-8.0,-2.0,-12.0,4.0,9.0,5.0,13.0,2.0,0.002359151840209961
2,-65.0,25.0,-7.0,1.0,-4109.0,-10582.0,-7379.0,-9227.0,10.0,13.0,10.0,21.0,7.0,-1.0,0.0,1.0,0.0065250396728515625
3,-10.0,30.0,-18.0,1.0,-4111.0,-10577.0,-7385.0,-9228.0,10.0,13.0,10.0,21.0,7.0,-1.0,0.0,1.0,0.010063409805297852
4,-10.0,30.0,-18.0,1.0,-4111.0,-10577.0,-7385.0,-9228.0,-2.0,-2.0,1.0,8.0,9.0,-1.0,-2.0,-1.0,0.012074708938598633
5,43.0,1.0,1.0,1.0,-4107.0,-10580.0,-7392.0,-9221.0,-2.0,-2.0,1.0,8.0,9.0,-1.0,-2.0,-1.0,0.013910531997680664
6,43.0,1.0,1.0,1.0,-4107.0,-10580.0,-7392.0,-9221.0,2.0,-10.0,-18.0,-17.0,2.0,10.0,2.0,-5.0,0.015763282775878906
7,43.0,1.0,1.0,1.0,-4107.0,-10580.0,-7392.0,-9221.0,-4.0,-7.0,3.0,-15.0,-12.0,-3.0,1.0,-1.0,0.017572879791259766
8,37.0,-7.0,-4.0,1.0,-4103.0,-10583.0,-7397.0,-9214.0,-4.0,-7.0,3.0,-15.0,-12.0,-3.0,1.0,-1.0,0.0199282169342041
9,37.0,-7.0,-4.0,1.0,-4103.0,-10583.0,-7397.0,-9214.0,-3.0,-8.0,-7.0,0.0,0.0,-1.0,-2.0,2.0,0.02352619171142578
10,37.0,-7.0,-4.0,1.0,-4103.0,-10583.0,-7397.0,-9214.0,-4.0,7.0,1.0,-3.0,1.0,-4.0,-5.0,-2.0,0.025920391082763672
11,1.0,2.0,-4.0,1.0,-4104.0,-10583.0,-7398.0,-9214.0,-4.0,7.0,1.0,-3.0,1.0,-4.0,-5.0,-2.0,0.028196334838867188
12,1.0,2.0,-4.0,1.0,-4104.0,-10583.0,-7398.0,-9214.0,2.0,10.0,20.0,4.0,5.0,-6.0,1.0,-1.0,0.03007340431213379
13,1.0,2.0,-4.0,1.0,-4104.0,-10583.0,-7398.0,-9214.0,2.0,-17.0,-13.0,-3.0,10.0,2.0,4.0,-2.0,0.031809329986572266
14,-30.0,-2.0,3.0,1.0,-4109.0,-10580.0,-7395.0,-9217.0,2.0,-17.0,-13.0,-3.0,10.0,2.0,4.0,-2.0,0.03357195854187012
15,-30.0,-2.0,3.0,1.0,-4109.0,-10580.0,-7395.0,-9217.0,-5.0,-6.0,-8.0,13.0,1.0,0.0,-1.0,-3.0,0.035385847091674805
16,-30.0,-2.0,3.0,1.0,-4109.0,-10580.0,-7395.0,-9217.0,-5.0,-2.0,-15.0,-5.0,-19.0,-3.0,1.0,-2.0,0.03730154037475586
17,4.0,15.0,29.0,1.0,-4103.0,-10584.0,-7394.0,-9217.0,-5.0,-2.0,-15.0,-5.0,-19.0,-3.0,1.0,-2.0,0.039186954498291016
18,4.0,15.0,29.0,1.0,-4103.0,-10584.0,-7394.0,-9217.0,-1.0,-4.0,-11.0,-7.0,-15.0,-6.0,-4.0,-7.0,0.04101872444152832
19,4.0,15.0,29.0,1.0,-4103.0,-10584.0,-7394.0,-9217.0,-6.0,3.0,0.0,10.0,25.0,4.0,-5.0,-2.0,0.04277920722961426
20,23.0,2.0,29.0,1.0,-4097.0,-10588.0,-7396.0,-9213.0,-6.0,3.0,0.0,10.0,25.0,4.0,-5.0,-2.0,0.04454350471496582
21,23.0,2.0,29.0,1.0,-4097.0,-10588.0,-7396.0,-9213.0,4.0,5.0,0.0,-22.0,-13.0,1.0,-14.0,6.0,0.046402931213378906
22,23.0,2.0,29.0,1.0,-4097.0,-10588.0,-7396.0,-9213.0,-1.0,0.0,8.0,-1.0,3.0,-2.0,1.0,1.0,0.04815244674682617
23,-12.0,11.0,6.0,1.0,-4097.0,-10588.0,-7396.0,-9212.0,-1.0,0.0,8.0,-1.0,3.0,-2.0,1.0,1.0,0.05059075355529785
24,-12.0,11.0,6.0,1.0,-4097.0,-10588.0,-7396.0,-9212.0,-2.0,-10.0,-5.0,16.0,5.0,-2.0,3.0,-3.0,0.05308890342712402
25,-12.0,11.0,6.0,1.0,-4097.0,-10588.0,-7396.0,-9212.0,5.0,-6.0,-10.0,-3.0,-6.0,-2.0,-4.0,-2.0,0.05491924285888672
26,-41.0,18.0,-1.0,1.0,-4100.0,-10585.0,-7393.0,-9217.0,5.0,-6.0,-10.0,-3.0,-6.0,-2.0,-4.0,-2.0,0.05667376518249512
27,-41.0,18.0,-1.0,1.0,-4100.0,-10585.0,-7393.0,-9217.0,0.0,0.0,7.0,7.0,1.0,6.0,8.0,2.0,0.05944204330444336
28,-41.0,18.0,-1.0,1.0,-4100.0,-10585.0,-7393.0,-9217.0,-3.0,6.0,22.0,-14.0,-37.0,-4.0,-4.0,0.0,0.06134963035583496
29,16.0,8.0,20.0,1.0,-4096.0,-10587.0,-7393.0,-9217.0,-3.0,6.0,22.0,-14.0,-37.0,-4.0,-4.0,0.0,0.06308889389038086
30,16.0,8.0,20.0,1.0,-4096.0,-10587.0,-7393.0,-9217.0,0.0,21.0,5.0,-5.0,4.0,0.0,5.0,4.0,0.06491374969482422
31,16.0,8.0,20.0,1.0,-4096.0,-10587.0,-7393.0,-9217.0,0.0,-19.0,-29.0,-4.0,12.0,-2.0,-1.0,-5.0,0.0667123794555664
32,57.0,0.0,19.0,1.0,-4087.0,-10591.0,-7398.0,-9212.0,0.0,-19.0,-29.0,-4.0,12.0,-2.0,-1.0,-5.0,0.06848669052124023
33,57.0,0.0,19.0,1.0,-4087.0,-10591.0,-7398.0,-9212.0,-2.0,11.0,9.0,-1.0,-1.0,12.0,-17.0,-5.0,0.07030534744262695
34,57.0,0.0,19.0,1.0,-4087.0,-10591.0,-7398.0,-9212.0,0.0,-1.0,-3.0,-15.0,5.0,13.0,22.0,10.0,0.0723731517791748
35,39.0,-7.0,10.0,1.0,-4083.0,-10594.0,-7402.0,-9207.0,0.0,-1.0,-3.0,-15.0,5.0,13.0,22.0,10.0,0.07413482666015625
36,39.0,-7.0,10.0,1.0,-4083.0,-10594.0,-7402.0,-9207.0,1.0,-8.0,-5.0,3.0,-1.0,-10.0,-2.0,-1.0,0.07595086097717285
37,39.0,-7.0,10.0,1.0,-4083.0,-10594.0,-7402.0,-9207.0,2.0,-4.0,-16.0,5.0,-4.0,-12.0,-7.0,-4.0,0.07770347595214844
38,-12.0,7.0,-2.0,1.0,-4084.0,-10594.0,-7402.0,-9207.0,2.0,-4.0,-16.0,5.0,-4.0,-12.0,-7.0,-4.0,0.07956767082214355
39,-12.0,7.0,-2.0,1.0,-4084.0,-10594.0,-7402.0,-9207.0,-1.0,-10.0,3.0,12.0,12.0,4.0,-2.0,0.0,0.08232831954956055
40,-12.0,7.0,-2.0,1.0,-4084.0,-10594.0,-7402.0,-9207.0,0.0,6.0,21.0,14.0,10.0,2.0,-5.0,-3.0,0.08451199531555176
41,-18.0,12.0,4.0,1.0,-4089.0,-10589.0,-7402.0,-9211.0,0.0,6.0,21.0,14.0,10.0,2.0,-5.0,-3.0,0.08641195297241211
42,-18.0,12.0,4.0,1.0,-4089.0,-10589.0,-7402.0,-9211.0,-1.0,-3.0,-12.0,-3.0,7.0,3.0,5.0,-2.0,0.08839607238769531
43,-18.0,12.0,4.0,1.0,-4089.0,-10589.0,-7402.0,-9211.0,-5.0,0.0,4.0,-12.0,13.0,-15.0,-12.0,-2.0,0.09019303321838379
44,18.0,34.0,23.0,1.0,-4084.0,-10586.0,-7404.0,-9214.0,-5.0,0.0,4.0,-12.0,13.0,-15.0,-12.0,-2.0,0.0925295352935791
45,18.0,34.0,23.0,1.0,-4084.0,-10586.0,-7404.0,-9214.0,-5.0,-7.0,-5.0,20.0,3.0,-2.0,11.0,4.0,0.09479641914367676
46,18.0,34.0,23.0,1.0,-4084.0,-10586.0,-7404.0,-9214.0,2.0,2.0,16.0,-1.0,3.0,21.0,1.0,-5.0,0.09657478332519531
47,16.0,46.0,26.0,1.0,-4078.0,-10583.0,-7405.0,-9219.0,2.0,2.0,16.0,-1.0,3.0,21.0,1.0,-5.0,0.09833812713623047
48,16.0,46.0,26.0,1.0,-4078.0,-10583.0,-7405.0,-9219.0,-2.0,1.0,15.0,-17.0,-15.0,-2.0,1.0,1.0,0.10017609596252441
49,16.0,46.0,26.0,1.0,-4078.0,-10583.0,-7405.0,-9219.0,-2.0,-14.0,-18.0,10.0,8.0,-7.0,-9.0,-4.0,0.10193800926208496
50,12.0,31.0,23.0,1.0,-4072.0,-10583.0,-7406.0,-9222.0,-2.0,-14.0,-18.0,10.0,8.0,-7.0,-9.0,-4.0,0.10379505157470703
51,12.0,31.0,23.0,1.0,-4072.0,-10583.0,-7406.0,-9222.0,4.0,3.0,-2.0,0.0,-11.0,-12.0,1.0,0.0,0.1057734489440918
52,12.0,31.0,23.0,1.0,-4072.0,-10583.0,-7406.0,-9222.0,-3.0,-2.0,-10.0,6.0,0.0,0.0,12.0,5.0,0.10757637023925781
53,12.0,30.0,23.0,1.0,-4066.0,-10582.0,-7407.0,-9224.0,-3.0,-2.0,-10.0,6.0,0.0,0.0,12.0,5.0,0.10937118530273438
54,12.0,30.0,23.0,1.0,-4066.0,-10582.0,-7407.0,-9224.0,4.0,9.0,-2.0,-11.0,-24.0,3.0,7.0,-1.0,0.1124422550201416
55,12.0,30.0,23.0,1.0,-4066.0,-10582.0,-7407.0,-9224.0,3.0,0.0,2.0,2.0,-4.0,0.0,-10.0,-4.0,0.11478447914123535
56,12.0,33.0,25.0,1.0,-4061.0,-10581.0,-7408.0,-9227.0,3.0,0.0,2.0,2.0,-4.0,0.0,-10.0,-4.0,0.11658716201782227
57,12.0,33.0,25.0,1.0,-4061.0,-10581.0,-7408.0,-9227.0,2.0,7.0,5.0,-14.0,-3.0,2.0,-11.0,0.0,0.11842751502990723
58,12.0,33.0,25.0,1.0,-4061.0,-10581.0,-7408.0,-9227.0,-2.0,7.0,20.0,-5.0,-4.0,8.0,12.0,3.0,0.12020373344421387
59,-3.0,31.0,17.0,1.0,-4058.0,-10578.0,-7408.0,-9232.0,-2.0,7.0,20.0,-5.0,-4.0,8.0,12.0,3.0,0.12197422981262207
60,-3.0,31.0,17.0,1.0,-4058.0,-10578.0,-7408.0,-9232.0,-5.0,-2.0,-1.0,8.0,11.0,-4.0,2.0,-3.0,0.12380433082580566
61,-3.0,31.0,17.0,1.0,-4058.0,-10578.0,-7408.0,-9232.0,-5.0,-13.0,-7.0,-25.0,-15.0,-11.0,-6.0,-7.0,0.1263720989227295
62,-4.0,24.0,10.0,1.0,-4058.0,-10575.0,-7409.0,-9234.0,-5.0,-13.0,-7.0,-25.0,-15.0,-11.0,-6.0,-7.0,0.12836432456970215
63,-4.0,24.0,10.0,1.0,-4058.0,-10575.0,-7409.0,-9234.0,-2.0,4.0,-1.0,-17.0,-17.0,-11.0,-4.0,-2.0,0.13021206855773926
64,-4.0,24.0,10.0,1.0,-4058.0,-10575.0,-7409.0,-9234.0,3.0,12.0,12.0,-4.0,-15.0,-2.0,-1.0,-2.0,0.13197112083435059
65,7.0,19.0,15.0,1.0,-4058.0,-10573.0,-7411.0,-9235.0,3.0,12.0,12.0,-4.0,-15.0,-2.0,-1.0,-2.0,0.13373732566833496
66,7.0,19.0,15.0,1.0,-4058.0,-10573.0,-7411.0,-9235.0,-1.0,-4.0,3.0,6.0,3.0,-2.0,1.0,-1.0,0.13557052612304688
67,7.0,19.0,15.0,1.0,-4058.0,-10573.0,-7411.0,-9235.0,-2.0,0.0,-16.0,-2.0,13.0,-3.0,-5.0,0.0,0.13746166229248047
68,3.0,3.0,27.0,1.0,-4056.0,-10575.0,-7412.0,-9233.0,-2.0,0.0,-16.0,-2.0,13.0,-3.0,-5.0,0.0,0.13930916786193848
69,3.0,3.0,27.0,1.0,-4056.0,-10575.0,-7412.0,-9233.0,2.0,-2.0,-6.0,4.0,14.0,8.0,24.0,3.0,0.14161038398742676
70,3.0,3.0,27.0,1.0,-4056.0,-10575.0,-7412.0,-9233.0,-1.0,-6.0,-6.0,1.0,-26.0,-14.0,-5.0,-3.0,0.14429640769958496
71,2.0,17.0,20.0,1.0,-4054.0,-10575.0,-7412.0,-9234.0,-1.0,-6.0,-6.0,1.0,-26.0,-14.0,-5.0,-3.0,0.14642953872680664
72,2.0,17.0,20.0,1.0,-4054.0,-10575.0,-7412.0,-9234.0,-6.0,-5.0,3.0,-12.0,11.0,0.0,12.0,1.0,0.14832186698913574
73,2.0,17.0,20.0,1.0,-4054.0,-10575.0,-7412.0,-9234.0,5.0,24.0,27.0,8.0,5.0,-8.0,0.0,8.0,0.15013623237609863
74,32.0,22.0,8.0,1.0,-4050.0,-10574.0,-7418.0,-9232.0,5.0,24.0,27.0,8.0,5.0,-8.0,0.0,8.0,0.15189290046691895
75,32.0,22.0,8.0,1.0,-4050.0,-10574.0,-7418.0,-9232.0,-7.0,2.0,-2.0,-1.0,18.0,-2.0,-2.0,-4.0,0.15436577796936035
76,32.0,22.0,8.0,1.0,-4050.0,-10574.0,-7418.0,-9232.0,4.0,-8.0,-24.0,-3.0,2.0,6.0,-1.0,-2.0,0.1563563346862793
77,19.0,10.0,6.0,1.0,-4048.0,-10575.0,-7423.0,-9228.0,4.0,-8.0,-24.0,-3.0,2.0,6.0,-1.0,-2.0,0.1587977409362793
78,19.0,10.0,6.0,1.0,-4048.0,-10575.0,-7423.0,-9228.0,3.0,4.0,15.0,5.0,4.0,-3.0,-10.0,1.0,0.16099119186401367
79,19.0,10.0,6.0,1.0,-4048.0,-10575.0,-7423.0,-9228.0,2.0,12.0,14.0,16.0,14.0,3.0,0.0,-3.0,0.1627805233001709
80,7.0,4.0,-2.0,1.0,-4048.0,-10575.0,-7423.0,-9228.0,2.0,12.0,14.0,16.0,14.0,3.0,0.0,-3.0,0.16457676887512207
81,7.0,4.0,-2.0,1.0,-4048.0,-10575.0,-7423.0,-9228.0,-3.0,-12.0,2.0,6.0,-21.0,5.0,-8.0,-2.0,0.16640734672546387
82,7.0,4.0,-2.0,1.0,-4048.0,-10575.0,-7423.0,-9228.0,-5.0,-9.0,-1.0,9.0,12.0,2.0,-9.0,1.0,0.16816210746765137
83,31.0,2.0,1.0,1.0,-4045.0,-10576.0,-7427.0,-9225.0,-5.0,-9.0,-1.0,9.0,12.0,2.0,-9.0,1.0,0.16994452476501465
84,31.0,2.0,1.0,1.0,-4045.0,-10576.0,-7427.0,-9225.0,6.0,9.0,-2.0,7.0,-10.0,-8.0,-1.0,-3.0,0.1728670597076416
85,31.0,2.0,1.0,1.0,-4045.0,-10576.0,-7427.0,-9225.0,-6.0,-11.0,-7.0,-5.0,5.0,4.0,6.0,-4.0,0.17621994018554688
86,15.0,-4.0,-13.0,1.0,-4045.0,-10576.0,-7427.0,-9224.0,-6.0,-11.0,-7.0,-5.0,5.0,4.0,6.0,-4.0,0.17836308479309082
87,15.0,-4.0,-13.0,1.0,-4045.0,-10576.0,-7427.0,-9224.0,-3.0,-13.0,-23.0,-19.0,-6.0,-8.0,-16.0,-5.0,0.18022871017456055
88,15.0,-4.0,-13.0,1.0,-4045.0,-10576.0,-7427.0,-9224.0,-2.0,-6.0,-10.0,-7.0,-2.0,4.0,-13.0,0.0,0.18200230598449707
89,-2.0,-1.0,-6.0,1.0,-4046.0,-10576.0,-7428.0,-9224.0,-2.0,-6.0,-10.0,-7.0,-2.0,4.0,-13.0,0.0,0.18374204635620117
90,-2.0,-1.0,-6.0,1.0,-4046.0,-10576.0,-7428.0,-9224.0,2.0,-2.0,0.0,-7.0,-24.0,12.0,10.0,3.0,0.185591459274292
91,-2.0,-1.0,-6.0,1.0,-4046.0,-10576.0,-7428.0,-9224.0,-6.0,-2.0,-13.0,-7.0,-8.0,-20.0,-8.0,1.0,0.18761372566223145
92,11.0,-1.0,-2.0,1.0,-4046.0,-10576.0,-7429.0,-9223.0,-6.0,-2.0,-13.0,-7.0,-8.0,-20.0,-8.0,1.0,0.1894392967224121
93,11.0,-1.0,-2.0,1.0,-4046.0,-10576.0,-7429.0,-9223.0,-2.0,-1.0,-19.0,-25.0,13.0,-4.0,-6.0,-4.0,0.19128823280334473
94,11.0,-1.0,-2.0,1.0,-4046.0,-10576.0,-7429.0,-9223.0,2.0,6.0,16.0,-11.0,-33.0,0.0,4.0,-1.0,0.19321227073669434
95,-12.0,-3.0,-4.0,1.0,-4047.0,-10576.0,-7429.0,-9222.0,2.0,6.0,16.0,-11.0,-33.0,0.0,4.0,-1.0,0.19498705863952637
96,-12.0,-3.0,-4.0,1.0,-4047.0,-10576.0,-7429.0,-9222.0,-1.0,-11.0,-12.0,11.0,0.0,3.0,-1.0,1.0,0.19686079025268555
97,-12.0,-3.0,-4.0,1.0,-4047.0,-10576.0,-7429.0,-9222.0,-4.0,5.0,16.0,-9.0,13.0,0.0,0.0,1.0,0.19862627983093262
98,-27.0,-13.0,-13.0,1.0,-4053.0,-10574.0,-7429.0,-9221.0,-4.0,5.0,16.0,-9.0,13.0,0.0,0.0,1.0,0.20039868354797363
99,-27.0,-13.0,-13.0,1.0,-4053.0,-10574.0,-7429.0,-9221.0,0.0,2.0,0.0,9.0,-9.0,3.0,-1.0,-8.0,0.2026510238647461
100,-27.0,-13.0,-13.0,1.0,-4053.0,-10574.0,-7429.0,-9221.0,6.0,8.0,5.0,25.0,9.0,8.0,2.0,-1.0,0.20556092262268066
101,13.0,-12.0,-13.0,1.0,-4054.0,-10574.0,-7429.0,-9221.0,6.0,8.0,5.0,25.0,9.0,8.0,2.0,-1.0,0.2077782154083252
102,13.0,-12.0,-13.0,1.0,-4054.0,-10574.0,-7429.0,-9221.0,1.0,-3.0,8.0,-11.0,-8.0,-20.0,7.0,0.0,0.2103099822998047
103,13.0,-12.0,-13.0,1.0,-4054.0,-10574.0,-7429.0,-9221.0,-9.0,-5.0,-16.0,-17.0,-14.0,2.0,22.0,0.0,0.21211886405944824
104,-2.0,-11.0,0.0,1.0,-4054.0,-10574.0,-7430.0,-9220.0,-9.0,-5.0,-16.0,-17.0,-14.0,2.0,22.0,0.0,0.21388578414916992
105,-2.0,-11.0,0.0,1.0,-4054.0,-10574.0,-7430.0,-9220.0,-2.0,2.0,17.0,19.0,17.0,3.0,-14.0,-3.0,0.21571969985961914
106,-2.0,-11.0,0.0,1.0,-4054.0,-10574.0,-7430.0,-9220.0,8.0,2.0,0.0,0.0,10.0,1.0,-8.0,4.0,0.21749281883239746
107,3.0,7.0,6.0,1.0,-4054.0,-10575.0,-7430.0,-9220.0,8.0,2.0,0.0,0.0,10.0,1.0,-8.0,4.0,0.2192521095275879
108,3.0,7.0,6.0,1.0,-4054.0,-10575.0,-7430.0,-9220.0,-4.0,-11.0,-29.0,-11.0,-1.0,0.0,0.0,0.0,0.22126412391662598
109,3.0,7.0,6.0,1.0,-4054.0,-10575.0,-7430.0,-9220.0,1.0,-2.0,-2.0,8.0,-6.0,-2.0,-7.0,-2.0,0.22310185432434082
110,-10.0,-3.0,10.0,1.0,-4054.0,-10575.0,-7431.0,-9219.0,1.0,-2.0,-2.0,8.0,-6.0,-2.0,-7.0,-2.0,0.22488069534301758
111,-10.0,-3.0,10.0,1.0,-4054.0,-10575.0,-7431.0,-9219.0,-1.0,-1.0,0.0,2.0,-1.0,0.0,-6.0,0.0,0.2267165184020996
112,-10.0,-3.0,10.0,1.0,-4054.0,-10575.0,-7431.0,-9219.0,-4.0,-8.0,-13.0,8.0,3.0,2.0,0.0,-1.0,0.22848939895629883
113,-20.0,-1.0,18.0,1.0,-4054.0,-10576.0,-7427.0,-9221.0,-4.0,-8.0,-13.0,8.0,3.0,2.0,0.0,-1.0,0.23030471801757812
114,-20.0,-1.0,18.0,1.0,-4054.0,-10576.0,-7427.0,-9221.0,1.0,2.0,11.0,6.0,-5.0,-19.0,1.0,0.0,0.2321469783782959
115,-20.0,-1.0,18.0,1.0,-4054.0,-10576.0,-7427.0,-9221.0,8.0,2.0,-4.0,6.0,7.0,1.0,-7.0,-2.0,0.23500347137451172
116,32.0,17.0,17.0,1.0,-4048.0,-10576.0,-7429.0,-9221.0,8.0,2.0,-4.0,6.0,7.0,1.0,-7.0,-2.0,0.2373981475830078
117,32.0,17.0,17.0,1.0,-4048.0,-10576.0,-7429.0,-9221.0,-4.0,0.0,2.0,-22.0,-24.0,-1.0,-6.0,-1.0,0.23926568031311035
118,32.0,17.0,17.0,1.0,-4048.0,-10576.0,-7429.0,-9221.0,-6.0,-5.0,-8.0,0.0,15.0,5.0,4.0,1.0,0.2410435676574707
119,37.0,21.0,20.0,1.0,-4041.0,-10577.0,-7432.0,-9221.0,-6.0,-5.0,-8.0,0.0,15.0,5.0,4.0,1.0,0.24366092681884766
120,37.0,21.0,20.0,1.0,-4041.0,-10577.0,-7432.0,-9221.0,5.0,4.0,5.0,6.0,-10.0,3.0,4.0,1.0,0.2455754280090332
121,37.0,21.0,20.0,1.0,-4041.0,-10577.0,-7432.0,-9221.0,2.0,-4.0,-10.0,-15.0,-29.0,-3.0,-1.0,-4.0,0.2473917007446289
122,32.0,29.0,6.0,1.0,-4037.0,-10575.0,-7438.0,-9220.0,2.0,-4.0,-10.0,-15.0,-29.0,-3.0,-1.0,-4.0,0.24916481971740723
123,32.0,29.0,6.0,1.0,-4037.0,-10575.0,-7438.0,-9220.0,0.0,-3.0,6.0,8.0,15.0,9.0,-4.0,4.0,0.25099992752075195
124,32.0,29.0,6.0,1.0,-4037.0,-10575.0,-7438.0,-9220.0,-2.0,14.0,6.0,-11.0,8.0,3.0,6.0,0.0,0.25277018547058105
125,-11.0,17.0,6.0,1.0,-4040.0,-10572.0,-7440.0,-9221.0,-2.0,14.0,6.0,-11.0,8.0,3.0,6.0,0.0,0.25467681884765625
126,-11.0,17.0,6.0,1.0,-4040.0,-10572.0,-7440.0,-9221.0,-2.0,-9.0,6.0,6.0,-4.0,4.0,-3.0,0.0,0.2565488815307617
127,-11.0,17.0,6.0,1.0,-4040.0,-10572.0,-7440.0,-9221.0,0.0,-9.0,-8.0,-8.0,2.0,-4.0,-2.0,-7.0,0.2583177089691162
128,-43.0,25.0,8.0,1.0,-4044.0,-10567.0,-7437.0,-9227.0,0.0,-9.0,-8.0,-8.0,2.0,-4.0,-2.0,-7.0,0.2600889205932617
129,-43.0,25.0,8.0,1.0,-4044.0,-10567.0,-7437.0,-9227.0,0.0,-11.0,-41.0,0.0,10.0,-1.0,4.0,2.0,0.26195216178894043
130,-43.0,25.0,8.0,1.0,-4044.0,-10567.0,-7437.0,-9227.0,-5.0,-2.0,1.0,-8.0,-8.0,-9.0,-7.0,1.0,0.26410365104675293
131,9.0,18.0,15.0,1.0,-4041.0,-10566.0,-7438.0,-9229.0,-5.0,-2.0,1.0,-8.0,-8.0,-9.0,-7.0,1.0,0.26693201065063477
132,9.0,18.0,15.0,1.0,-4041.0,-10566.0,-7438.0,-9229.0,-3.0,1.0,-1.0,-8.0,5.0,3.0,-2.0,-5.0,0.26918840408325195
133,9.0,18.0,15.0,1.0,-4041.0,-10566.0,-7438.0,-9229.0,-5.0,-1.0,1.0,-6.0,-12.0,7.0,1.0,3.0,0.2709994316101074
134,16.0,28.0,6.0,1.0,-4039.0,-10563.0,-7442.0,-9230.0,-5.0,-1.0,1.0,-6.0,-12.0,7.0,1.0,3.0,0.27277040481567383
135,16.0,28.0,6.0,1.0,-4039.0,-10563.0,-7442.0,-9230.0,5.0,8.0,14.0,14.0,2.0,-4.0,1.0,7.0,0.2749314308166504
136,16.0,28.0,6.0,1.0,-4039.0,-10563.0,-7442.0,-9230.0,-3.0,-3.0,6.0,18.0,30.0,2.0,26.0,-5.0,0.27715086936950684
137,-12.0,31.0,4.0,1.0,-4041.0,-10559.0,-7445.0,-9231.0,-3.0,-3.0,6.0,18.0,30.0,2.0,26.0,-5.0,0.278918981552124
138,-12.0,31.0,4.0,1.0,-4041.0,-10559.0,-7445.0,-9231.0,6.0,13.0,-8.0,6.0,-18.0,-3.0,5.0,-5.0,0.2807655334472656
139,-12.0,31.0,4.0,1.0,-4041.0,-10559.0,-7445.0,-9231.0,0.0,1.0,2.0,4.0,2.0,-1.0,8.0,2.0,0.28255128860473633
140,-40.0,19.0,17.0,1.0,-4044.0,-10556.0,-7443.0,-9234.0,0.0,1.0,2.0,4.0,2.0,-1.0,8.0,2.0,0.28435206413269043
141,-40.0,19.0,17.0,1.0,-4044.0,-10556.0,-7443.0,-9234.0,-2.0,-3.0,1.0,-6.0,12.0,5.0,-4.0,5.0,0.28618764877319336
142,-40.0,19.0,17.0,1.0,-4044.0,-10556.0,-7443.0,-9234.0,10.0,3.0,-7.0,-1.0,0.0,-4.0,-13.0,3.0,0.2916133403778076
143,-20.0,17.0,15.0,1.0,-4044.0,-10556.0,-7442.0,-9236.0,10.0,3.0,-7.0,-1.0,0.0,-4.0,-13.0,3.0,0.30797815322875977
144,-20.0,17.0,15.0,1.0,-4044.0,-10556.0,-7442.0,-9236.0,1.0,4.0,3.0,1.0,-18.0,0.0,-6.0,-6.0,0.3119313716888428
145,-20.0,17.0,15.0,1.0,-4044.0,-10556.0,-7442.0,-9236.0,-3.0,-1.0,-3.0,7.0,5.0,-7.0,-3.0,2.0,0.3153221607208252
146,-5.0,20.0,8.0,1.0,-4043.0,-10554.0,-7442.0,-9238.0,-3.0,-1.0,-3.0,7.0,5.0,-7.0,-3.0,2.0,0.3307034969329834
147,-5.0,20.0,8.0,1.0,-4043.0,-10554.0,-7442.0,-9238.0,1.0,4.0,4.0,9.0,-12.0,3.0,4.0,2.0,0.3325819969177246
148,-5.0,20.0,8.0,1.0,-4043.0,-10554.0,-7442.0,-9238.0,-3.0,-1.0,4.0,-41.0,-1.0,-2.0,0.0,-3.0,0.3343470096588135
149,2.0,9.0,9.0,1.0,-4044.0,-10554.0,-7443.0,-9238.0,-3.0,-1.0,4.0,-41.0,-1.0,-2.0,0.0,-3.0,0.35283327102661133
150,2.0,9.0,9.0,1.0,-4044.0,-10554.0,-7443.0,-9238.0,-5.0,-16.0,-2.0,2.0,33.0,0.0,-2.0,0.0,0.3549942970275879
151,2.0,9.0,9.0,1.0,-4044.0,-10554.0,-7443.0,-9238.0,-1.0,-4.0,2.0,15.0,-16.0,4.0,-15.0,-3.0,0.35721588134765625
152,-22.0,3.0,13.0,1.0,-4046.0,-10553.0,-7441.0,-9239.0,-1.0,-4.0,2.0,15.0,-16.0,4.0,-15.0,-3.0,0.37650036811828613
153,-22.0,3.0,13.0,1.0,-4046.0,-10553.0,-7441.0,-9239.0,7.0,17.0,6.0,0.0,-5.0,6.0,4.0,3.0,0.3798243999481201
154,-22.0,3.0,13.0,1.0,-4046.0,-10553.0,-7441.0,-9239.0,-4.0,-6.0,-11.0,7.0,5.0,2.0,-2.0,-1.0,0.3829345703125
155,-6.0,5.0,20.0,1.0,-4045.0,-10555.0,-7441.0,-9238.0,-4.0,-6.0,-11.0,7.0,5.0,2.0,-2.0,-1.0,0.39195680618286133
156,-6.0,5.0,20.0,1.0,-4045.0,-10555.0,-7441.0,-9238.0,2.0,3.0,16.0,8.0,-6.0,-3.0,0.0,3.0,0.3944873809814453
157,-6.0,5.0,20.0,1.0,-4045.0,-10555.0,-7441.0,-9238.0,3.0,-5.0,7.0,22.0,-7.0,-4.0,-2.0,-3.0,0.39626026153564453
158,26.0,4.0,23.0,1.0,-4041.0,-10558.0,-7445.0,-9233.0,3.0,-5.0,7.0,22.0,-7.0,-4.0,-2.0,-3.0,0.41350245475769043
159,26.0,4.0,23.0,1.0,-4041.0,-10558.0,-7445.0,-9233.0,-6.0,0.0,-7.0,3.0,-12.0,0.0,-1.0,-5.0,0.4154350757598877
160,26.0,4.0,23.0,1.0,-4041.0,-10558.0,-7445.0,-9233.0,-5.0,-2.0,-7.0,-1.0,7.0,1.0,-7.0,-2.0,0.41718149185180664
161,-10.0,3.0,29.0,1.0,-4041.0,-10559.0,-7444.0,-9232.0,-5.0,-2.0,-7.0,-1.0,7.0,1.0,-7.0,-2.0,0.43534302711486816
162,-10.0,3.0,29.0,1.0,-4041.0,-10559.0,-7444.0,-9232.0,-3.0,-16.0,-20.0,-23.0,20.0,10.0,-2.0,-6.0,0.4374721050262451
163,-10.0,3.0,29.0,1.0,-4041.0,-10559.0,-7444.0,-9232.0,1.0,8.0,10.0,-12.0,-38.0,-29.0,-7.0,2.0,0.44045066833496094
164,-11.0,3.0,29.0,1.0,-4040.0,-10561.0,-7442.0,-9231.0,1.0,8.0,10.0,-12.0,-38.0,-29.0,-7.0,2.0,0.4514346122741699
165,-11.0,3.0,29.0,1.0,-4040.0,-10561.0,-7442.0,-9231.0,-11.0,-5.0,0.0,9.0,4.0,-8.0,-5.0,2.0,0.4544246196746826
166,-11.0,3.0,29.0,1.0,-4040.0,-10561.0,-7442.0,-9231.0,1.0,0.0,0.0,11.0,0.0,5.0,-1.0,-1.0,0.4562666416168213
167,15.0,-1.0,24.0,1.0,-4036.0,-10566.0,-7444.0,-9227.0,1.0,0.0,0.0,11.0,0.0,5.0,-1.0,-1.0,0.47391533851623535
168,15.0,-1.0,24.0,1.0,-4036.0,-10566.0,-7444.0,-9227.0,3.0,-5.0,10.0,-7.0,1.0,-2.0,-4.0,-3.0,0.47717952728271484
169,15.0,-1.0,24.0,1.0,-4036.0,-10566.0,-7444.0,-9227.0,-3.0,-16.0,-6.0,-3.0,8.0,6.0,-3.0,-3.0,0.48032069206237793
170,2.0,9.0,18.0,1.0,-4034.0,-10567.0,-7444.0,-9226.0,-3.0,-16.0,-6.0,-3.0,8.0,6.0,-3.0,-3.0,0.49534153938293457
171,2.0,9.0,18.0,1.0,-4034.0,-10567.0,-7444.0,-9226.0,2.0,4.0,-4.0,9.0,0.0,3.0,-1.0,4.0,0.4972100257873535
172,2.0,9.0,18.0,1.0,-4034.0,-10567.0,-7444.0,-9226.0,-4.0,-10.0,-12.0,-20.0,-3.0,-1.0,2.0,2.0,0.4989769458770752
173,-2.0,11.0,19.0,1.0,-4033.0,-10567.0,-7444.0,-9227.0,-4.0,-10.0,-12.0,-20.0,-3.0,-1.0,2.0,2.0,0.5100226402282715
174,-2.0,11.0,19.0,1.0,-4033.0,-10567.0,-7444.0,-9227.0,-7.0,-5.0,12.0,-11.0,-6.0,-6.0,-10.0,-4.0,0.5119597911834717
175,-2.0,11.0,19.0,1.0,-4033.0,-10567.0,-7444.0,-9227.0,6.0,0.0,8.0,3.0,23.0,0.0,21.0,7.0,0.51650071144104
176,18.0,-2.0,12.0,1.0,-4030.0,-10569.0,-7445.0,-9225.0,6.0,0.0,8.0,3.0,23.0,0.0,21.0,7.0,0.5328829288482666
177,18.0,-2.0,12.0,1.0,-4030.0,-10569.0,-7445.0,-9225.0,-1.0,-2.0,-14.0,-2.0,-7.0,-2.0,6.0,1.0,0.5346994400024414
178,18.0,-2.0,12.0,1.0,-4030.0,-10569.0,-7445.0,-9225.0,-1.0,-1.0,5.0,4.0,-2.0,2.0,-14.0,-10.0,0.5364394187927246
179,10.0,4.0,13.0,1.0,-4031.0,-10569.0,-7446.0,-9224.0,-1.0,-1.0,5.0,4.0,-2.0,2.0,-14.0,-10.0,0.5561830997467041
180,10.0,4.0,13.0,1.0,-4031.0,-10569.0,-7446.0,-9224.0,1.0,2.0,-17.0,-7.0,-3.0,-9.0,2.0,-7.0,0.5597233772277832
181,10.0,4.0,13.0,1.0,-4031.0,-10569.0,-7446.0,-9224.0,-1.0,14.0,12.0,-4.0,-15.0,3.0,-4.0,1.0,0.5618584156036377
182,2.0,17.0,14.0,1.0,-4031.0,-10568.0,-7449.0,-9223.0,-1.0,14.0,12.0,-4.0,-15.0,3.0,-4.0,1.0,0.569648027420044
183,2.0,17.0,14.0,1.0,-4031.0,-10568.0,-7449.0,-9223.0,1.0,12.0,20.0,9.0,4.0,3.0,-2.0,7.0,0.5724170207977295
184,2.0,17.0,14.0,1.0,-4031.0,-10568.0,-7449.0,-9223.0,1.0,4.0,-10.0,-18.0,7.0,3.0,4.0,5.0,0.5768518447875977
185,-13.0,26.0,19.0,1.0,-4030.0,-10566.0,-7449.0,-9224.0,1.0,4.0,-10.0,-18.0,7.0,3.0,4.0,5.0,0.5939300060272217
186,-13.0,26.0,19.0,1.0,-4030.0,-10566.0,-7449.0,-9224.0,-8.0,-15.0,-9.0,-8.0,0.0,-9.0,0.0,-8.0,0.5960433483123779
187,-13.0,26.0,19.0,1.0,-4030.0,-10566.0,-7449.0,-9224.0,4.0,3.0,4.0,19.0,7.0,2.0,3.0,-1.0,0.5979809761047363
188,-4.0,19.0,22.0,1.0,-4028.0,-10566.0,-7450.0,-9225.0,4.0,3.0,4.0,19.0,7.0,2.0,3.0,-1.0,0.6153278350830078
189,-4.0,19.0,22.0,1.0,-4028.0,-10566.0,-7450.0,-9225.0,0.0,4.0,3.0,4.0,3.0,-2.0,-3.0,-4.0,0.6171901226043701
190,-4.0,19.0,22.0,1.0,-4028.0,-10566.0,-7450.0,-9225.0,-3.0,-11.0,2.0,-2.0,3.0,-3.0,-12.0,1.0,0.6189594268798828
191,9.0,25.0,15.0,1.0,-4024.0,-10566.0,-7452.0,-9226.0,-3.0,-11.0,2.0,-2.0,3.0,-3.0,-12.0,1.0,0.6298234462738037
192,9.0,25.0,15.0,1.0,-4024.0,-10566.0,-7452.0,-9226.0,2.0,2.0,-2.0,-5.0,-7.0,-1.0,-3.0,-2.0,0.6316578388214111
193,9.0,25.0,15.0,1.0,-4024.0,-10566.0,-7452.0,-9226.0,5.0,11.0,22.0,-14.0,9.0,7.0,-12.0,0.0,0.6372804641723633
194,-16.0,23.0,13.0,1.0,-4023.0,-10564.0,-7452.0,-9227.0,5.0,11.0,22.0,-14.0,9.0,7.0,-12.0,0.0,0.653038501739502
195,-16.0,23.0,13.0,1.0,-4023.0,-10564.0,-7452.0,-9227.0,0.0,-6.0,28.0,-2.0,9.0,8.0,4.0,3.0,0.6568734645843506
196,-16.0,23.0,13.0,1.0,-4023.0,-10564.0,-7452.0,-9227.0,-5.0,-5.0,-16.0,-1.0,-18.0,0.0,-3.0,-2.0,0.6600110530853271
197,5.0,23.0,13.0,1.0,-4018.0,-10565.0,-7454.0,-9227.0,-5.0,-5.0,-16.0,-1.0,-18.0,0.0,-3.0,-2.0,0.6776103973388672
198,5.0,23.0,13.0,1.0,-4018.0,-10565.0,-7454.0,-9227.0,-1.0,-6.0,2.0,5.0,-12.0,-12.0,15.0,5.0,0.6796386241912842
199,5.0,23.0,13.0,1.0,-4018.0,-10565.0,-7454.0,-9227.0,0.0,16.0,26.0,13.0,-4.0,2.0,-2.0,5.0,0.6814119815826416
200,28.0,6.0,15.0,1.0,-4013.0,-10568.0,-7456.0,-9225.0,0.0,16.0,26.0,13.0,-4.0,2.0,-2.0,5.0,0.6902689933776855
201,28.0,6.0,15.0,1.0,-4013.0,-10568.0,-7456.0,-9225.0,1.0,9.0,-11.0,1.0,3.0,-5.0,-5.0,-3.0,0.6921868324279785
202,28.0,6.0,15.0,1.0,-4013.0,-10568.0,-7456.0,-9225.0,-1.0,-8.0,-12.0,-4.0,-11.0,-3.0,0.0,-7.0,0.6968142986297607
203,27.0,-3.0,6.0,1.0,-4011.0,-10569.0,-7459.0,-9221.0,-1.0,-8.0,-12.0,-4.0,-11.0,-3.0,0.0,-7.0,0.7131505012512207
204,27.0,-3.0,6.0,1.0,-4011.0,-10569.0,-7459.0,-9221.0,0.0,-4.0,-14.0,-6.0,11.0,6.0,-1.0,2.0,0.7150323390960693
205,27.0,-3.0,6.0,1.0,-4011.0,-10569.0,-7459.0,-9221.0,-3.0,-7.0,7.0,11.0,5.0,3.0,3.0,-5.0,0.7168033123016357
206,-18.0,2.0,5.0,1.0,-4013.0,-10569.0,-7458.0,-9222.0,-3.0,-7.0,7.0,11.0,5.0,3.0,3.0,-5.0,0.7363846302032471
207,-18.0,2.0,5.0,1.0,-4013.0,-10569.0,-7458.0,-9222.0,0.0,0.0,-2.0,-15.0,-2.0,9.0,0.0,-1.0,0.7398083209991455
208,-18.0,2.0,5.0,1.0,-4013.0,-10569.0,-7458.0,-9222.0,-2.0,0.0,-2.0,-6.0,-3.0,-11.0,2.0,0.0,0.7437446117401123
209,-13.0,17.0,17.0,1.0,-4011.0,-10569.0,-7457.0,-9223.0,-2.0,0.0,-2.0,-6.0,-3.0,-11.0,2.0,0.0,0.7498745918273926
210,-13.0,17.0,17.0,1.0,-4011.0,-10569.0,-7457.0,-9223.0,-2.0,-5.0,-13.0,8.0,-8.0,1.0,3.0,3.0,0.7517049312591553
211,-13.0,17.0,17.0,1.0,-4011.0,-10569.0,-7457.0,-9223.0,4.0,12.0,15.0,4.0,9.0,1.0,1.0,2.0,0.7566754817962646
212,30.0,22.0,23.0,1.0,-4006.0,-10569.0,-7461.0,-9222.0,4.0,12.0,15.0,4.0,9.0,1.0,1.0,2.0,0.7735164165496826
213,30.0,22.0,23.0,1.0,-4006.0,-10569.0,-7461.0,-9222.0,-5.0,10.0,-4.0,6.0,29.0,9.0,-15.0,-5.0,0.7772533893585205
214,30.0,22.0,23.0,1.0,-4006.0,-10569.0,-7461.0,-9222.0,-3.0,3.0,3.0,12.0,3.0,-3.0,1.0,0.0,0.779085636138916
215,14.0,0.0,21.0,1.0,-4005.0,-10571.0,-7463.0,-9219.0,-3.0,3.0,3.0,12.0,3.0,-3.0,1.0,0.0,0.795630693435669
216,14.0,0.0,21.0,1.0,-4005.0,-10571.0,-7463.0,-9219.0,3.0,-1.0,-3.0,0.0,8.0,1.0,1.0,-1.0,0.7975361347198486
217,14.0,0.0,21.0,1.0,-4005.0,-10571.0,-7463.0,-9219.0,4.0,4.0,10.0,-5.0,8.0,3.0,-8.0,-4.0,0.7992830276489258
218,-1.0,-1.0,6.0,1.0,-4005.0,-10571.0,-7463.0,-9219.0,4.0,4.0,10.0,-5.0,8.0,3.0,-8.0,-4.0,0.8098263740539551
219,-1.0,-1.0,6.0,1.0,-4005.0,-10571.0,-7463.0,-9219.0,0.0,1.0,6.0,-2.0,22.0,5.0,9.0,4.0,0.8175325393676758
220,-1.0,-1.0,6.0,1.0,-4005.0,-10571.0,-7463.0,-9219.0,-5.0,0.0,-17.0,-6.0,-8.0,6.0,18.0,1.0,0.8192908763885498
221,-1.0,12.0,13.0,1.0,-4005.0,-10571.0,-7464.0,-9218.0,-5.0,0.0,-17.0,-6.0,-8.0,6.0,18.0,1.0,0.8330972194671631
222,-1.0,12.0,13.0,1.0,-4005.0,-10571.0,-7464.0,-9218.0,0.0,-5.0,-1.0,-7.0,-12.0,-8.0,-12.0,1.0,0.8349957466125488
223,-1.0,12.0,13.0,1.0,-4005.0,-10571.0,-7464.0,-9218.0,2.0,-5.0,2.0,-3.0,5.0,6.0,-9.0,-6.0,0.8367531299591064
224,10.0,24.0,30.0,1.0,-3999.0,-10572.0,-7465.0,-9218.0,2.0,-5.0,2.0,-3.0,5.0,6.0,-9.0,-6.0,0.8565874099731445
225,10.0,24.0,30.0,1.0,-3999.0,-10572.0,-7465.0,-9218.0,-6.0,-1.0,9.0,-5.0,-16.0,-10.0,12.0,-1.0,0.8607945442199707
226,10.0,24.0,30.0,1.0,-3999.0,-10572.0,-7465.0,-9218.0,-2.0,-11.0,-25.0,-4.0,4.0,-1.0,1.0,0.0,0.8627614974975586
227,22.0,15.0,32.0,1.0,-3993.0,-10575.0,-7466.0,-9217.0,-2.0,-11.0,-25.0,-4.0,4.0,-1.0,1.0,0.0,0.8688633441925049
228,22.0,15.0,32.0,1.0,-3993.0,-10575.0,-7466.0,-9217.0,-1.0,-11.0,-26.0,-11.0,-44.0,-7.0,2.0,0.0,0.8771898746490479
229,22.0,15.0,32.0,1.0,-3993.0,-10575.0,-7466.0,-9217.0,-7.0,-7.0,-4.0,-6.0,-18.0,-5.0,4.0,4.0,0.8789751529693604
230,40.0,10.0,19.0,1.0,-3987.0,-10577.0,-7471.0,-9213.0,-7.0,-7.0,-4.0,-6.0,-18.0,-5.0,4.0,4.0,0.8943877220153809
231,40.0,10.0,19.0,1.0,-3987.0,-10577.0,-7471.0,-9213.0,3.0,4.0,-7.0,3.0,13.0,9.0,-8.0,-2.0,0.896425724029541
232,40.0,10.0,19.0,1.0,-3987.0,-10577.0,-7471.0,-9213.0,1.0,-3.0,-14.0,7.0,12.0,0.0,-2.0,-6.0,0.8981747627258301
233,23.0,6.0,19.0,1.0,-3984.0,-10579.0,-7474.0,-9210.0,1.0,-3.0,-14.0,7.0,12.0,0.0,-2.0,-6.0,0.917241096496582
234,23.0,6.0,19.0,1.0,-3984.0,-10579.0,-7474.0,-9210.0,-33.0,-8.0,-18.0,-8.0,-17.0,-6.0,-9.0,-6.0,0.9205811023712158
235,23.0,6.0,19.0,1.0,-3984.0,-10579.0,-7474.0,-9210.0,-8.0,3.0,9.0,-14.0,-9.0,-4.0,-19.0,-4.0,0.923689603805542
236,6.0,13.0,5.0,1.0,-3984.0,-10579.0,-7474.0,-9210.0,-8.0,3.0,9.0,-14.0,-9.0,-4.0,-19.0,-4.0,0.9289395809173584
237,6.0,13.0,5.0,1.0,-3984.0,-10579.0,-7474.0,-9210.0,12.0,11.0,38.0,54.0,-13.0,-6.0,2.0,-1.0,0.9377114772796631
238,6.0,13.0,5.0,1.0,-3984.0,-10579.0,-7474.0,-9210.0,8.0,-26.0,-31.0,-46.0,16.0,17.0,18.0,11.0,0.9396522045135498
239,24.0,1.0,-12.0,1.0,-3983.0,-10578.0,-7478.0,-9208.0,8.0,-26.0,-31.0,-46.0,16.0,17.0,18.0,11.0,0.9537649154663086
240,24.0,1.0,-12.0,1.0,-3983.0,-10578.0,-7478.0,-9208.0,22.0,8.0,-3.0,9.0,58.0,-26.0,7.0,-3.0,0.9572544097900391
241,24.0,1.0,-12.0,1.0,-3983.0,-10578.0,-7478.0,-9208.0,0.0,-10.0,61.0,-22.0,5.0,-21.0,-5.0,-1.0,0.9613478183746338
242,57.0,13.0,-25.0,1.0,-3976.0,-10578.0,-7486.0,-9204.0,0.0,-10.0,61.0,-22.0,5.0,-21.0,-5.0,-1.0,0.976771354675293
243,57.0,13.0,-25.0,1.0,-3976.0,-10578.0,-7486.0,-9204.0,13.0,-32.0,-79.0,22.0,-18.0,-33.0,-20.0,10.0,0.9794940948486328
244,57.0,13.0,-25.0,1.0,-3976.0,-10578.0,-7486.0,-9204.0,13.0,-32.0,-79.0,22.0,-18.0,-33.0,-20.0,10.0,0.981316328048706
245,57.0,13.0,-25.0,1.0,-3976.0,-10578.0,-7486.0,-9204.0,10.0,21.0,-26.0,82.0,70.0,26.0,-29.0,0.0,0.9887866973876953
246,241.0,76.0,-119.0,1.0,-3947.0,-10575.0,-7523.0,-9191.0,10.0,21.0,-26.0,82.0,70.0,26.0,-29.0,0.0,0.9979653358459473
247,241.0,76.0,-119.0,1.0,-3947.0,-10575.0,-7523.0,-9191.0,-22.0,-68.0,-49.0,27.0,-18.0,-29.0,-66.0,-15.0,0.999791145324707
248,241.0,76.0,-119.0,1.0,-3947.0,-10575.0,-7523.0,-9191.0,76.0,80.0,127.0,-20.0,-36.0,86.0,71.0,40.0,1.001556634902954
249,227.0,252.0,-305.0,1.0,-3934.0,-10532.0,-7594.0,-9186.0,76.0,80.0,127.0,-20.0,-36.0,86.0,71.0,40.0,1.0123927593231201
250,227.0,252.0,-305.0,1.0,-3934.0,-10532.0,-7594.0,-9186.0,-41.0,-79.0,-89.0,-26.0,-27.0,-11.0,-16.0,-19.0,1.0154461860656738
251,227.0,252.0,-305.0,1.0,-3934.0,-10532.0,-7594.0,-9186.0,9.0,13.0,53.0,45.0,-56.0,-12.0,-6.0,3.0,1.019726037979126
252,54.0,504.0,-428.0,1.0,-3938.0,-10440.0,-7670.0,-9227.0,9.0,13.0,53.0,45.0,-56.0,-12.0,-6.0,3.0,1.0356860160827637
253,54.0,504.0,-428.0,1.0,-3938.0,-10440.0,-7670.0,-9227.0,53.0,68.0,127.0,11.0,10.0,7.0,-32.0,-9.0,1.0393321514129639
254,54.0,504.0,-428.0,1.0,-3938.0,-10440.0,-7670.0,-9227.0,-53.0,-82.0,-119.0,-29.0,127.0,52.0,11.0,-30.0,1.043236255645752
255,-65.0,567.0,-810.0,1.0,-3986.0,-10302.0,-7771.0,-9277.0,-53.0,-82.0,-119.0,-29.0,127.0,52.0,11.0,-30.0,1.0491671562194824
256,-65.0,567.0,-810.0,1.0,-3986.0,-10302.0,-7771.0,-9277.0,-44.0,-50.0,-62.0,37.0,-65.0,-55.0,36.0,-22.0,1.057464361190796
257,-65.0,567.0,-810.0,1.0,-3986.0,-10302.0,-7771.0,-9277.0,78.0,65.0,57.0,-15.0,69.0,-7.0,-16.0,13.0,1.059251308441162
258,28.0,703.0,-1141.0,1.0,-4082.0,-10089.0,-7923.0,-9340.0,78.0,65.0,57.0,-15.0,69.0,-7.0,-16.0,13.0,1.0730576515197754
259,28.0,703.0,-1141.0,1.0,-4082.0,-10089.0,-7923.0,-9340.0,10.0,46.0,41.0,-52.0,33.0,34.0,5.0,7.0,1.0763638019561768
260,28.0,703.0,-1141.0,1.0,-4082.0,-10089.0,-7923.0,-9340.0,-33.0,-35.0,-79.0,-33.0,-43.0,-28.0,8.0,-4.0,1.078270673751831
261,-162.0,699.0,-1583.0,1.0,-4291.0,-9788.0,-8107.0,-9408.0,-33.0,-35.0,-79.0,-33.0,-43.0,-28.0,8.0,-4.0,1.0956921577453613
262,-162.0,699.0,-1583.0,1.0,-4291.0,-9788.0,-8107.0,-9408.0,43.0,123.0,127.0,-38.0,-10.0,34.0,24.0,31.0,1.0977122783660889
263,-162.0,699.0,-1583.0,1.0,-4291.0,-9788.0,-8107.0,-9408.0,-28.0,-13.0,-50.0,55.0,-76.0,-35.0,-35.0,-8.0,1.1001472473144531
264,-184.0,836.0,-1776.0,1.0,-4450.0,-9505.0,-8315.0,-9444.0,-28.0,-13.0,-50.0,55.0,-76.0,-35.0,-35.0,-8.0,1.1098875999450684
265,-184.0,836.0,-1776.0,1.0,-4450.0,-9505.0,-8315.0,-9444.0,17.0,-40.0,-65.0,-55.0,10.0,20.0,26.0,15.0,1.117225170135498
266,-184.0,836.0,-1776.0,1.0,-4450.0,-9505.0,-8315.0,-9444.0,29.0,-10.0,-30.0,-21.0,-38.0,-30.0,-19.0,-7.0,1.1189830303192139
267,-657.0,948.0,-1935.0,1.0,-4669.0,-9161.0,-8490.0,-9522.0,29.0,-10.0,-30.0,-21.0,-38.0,-30.0,-19.0,-7.0,1.133772611618042
268,-657.0,948.0,-1935.0,1.0,-4669.0,-9161.0,-8490.0,-9522.0,-18.0,-15.0,10.0,47.0,-66.0,-17.0,-20.0,-23.0,1.1369082927703857
269,-657.0,948.0,-1935.0,1.0,-4669.0,-9161.0,-8490.0,-9522.0,-59.0,-39.0,-102.0,-41.0,1.0,-1.0,-2.0,-9.0,1.1400070190429688
270,-1129.0,1015.0,-2471.0,1.0,-4942.0,-8765.0,-8667.0,-9597.0,-59.0,-39.0,-102.0,-41.0,1.0,-1.0,-2.0,-9.0,1.157494306564331
271,-1129.0,1015.0,-2471.0,1.0,-4942.0,-8765.0,-8667.0,-9597.0,15.0,19.0,43.0,5.0,39.0,30.0,15.0,23.0,1.1615324020385742
272,-1129.0,1015.0,-2471.0,1.0,-4942.0,-8765.0,-8667.0,-9597.0,-14.0,11.0,60.0,37.0,-1.0,-32.0,3.0,-7.0,1.1650335788726807
273,-1502.0,958.0,-3190.0,1.0,-5325.0,-8276.0,-8859.0,-9651.0,-14.0,11.0,60.0,37.0,-1.0,-32.0,3.0,-7.0,1.168628454208374
274,-1502.0,958.0,-3190.0,1.0,-5325.0,-8276.0,-8859.0,-9651.0,-48.0,-6.0,3.0,39.0,7.0,9.0,0.0,-16.0,1.177466630935669
275,-1502.0,958.0,-3190.0,1.0,-5325.0,-8276.0,-8859.0,-9651.0,-8.0,-17.0,22.0,-7.0,5.0,4.0,-12.0,-2.0,1.1792428493499756
276,-2341.0,760.0,-3985.0,1.0,-5874.0,-7665.0,-9005.0,-9702.0,-8.0,-17.0,22.0,-7.0,5.0,4.0,-12.0,-2.0,1.192918062210083
277,-2341.0,760.0,-3985.0,1.0,-5874.0,-7665.0,-9005.0,-9702.0,10.0,-10.0,-9.0,9.0,65.0,43.0,30.0,16.0,1.1951494216918945
278,-2341.0,760.0,-3985.0,1.0,-5874.0,-7665.0,-9005.0,-9702.0,-9.0,1.0,48.0,-9.0,-26.0,-21.0,5.0,-6.0,1.1990859508514404
279,-3065.0,593.0,-4487.0,1.0,-6535.0,-6952.0,-9077.0,-9748.0,-9.0,1.0,48.0,-9.0,-26.0,-21.0,5.0,-6.0,1.2155015468597412
280,-3065.0,593.0,-4487.0,1.0,-6535.0,-6952.0,-9077.0,-9748.0,-4.0,-10.0,-20.0,-24.0,17.0,4.0,8.0,-2.0,1.2173562049865723
281,-4092.0,595.0,-4935.0,1.0,-7293.0,-6094.0,-9036.0,-9822.0,-4.0,-10.0,-20.0,-24.0,17.0,4.0,8.0,-2.0,1.2191171646118164
282,-4092.0,595.0,-4935.0,1.0,-7293.0,-6094.0,-9036.0,-9822.0,-7.0,4.0,-12.0,35.0,-33.0,-7.0,-23.0,-1.0,1.2219734191894531
283,-4092.0,595.0,-4935.0,1.0,-7293.0,-6094.0,-9036.0,-9822.0,-1.0,-10.0,-1.0,20.0,6.0,6.0,6.0,-5.0,1.2382993698120117
284,-4381.0,804.0,-5150.0,1.0,-8035.0,-5137.0,-8949.0,-9871.0,-1.0,-10.0,-1.0,20.0,6.0,6.0,6.0,-5.0,1.2412779331207275
285,-4381.0,804.0,-5150.0,1.0,-8035.0,-5137.0,-8949.0,-9871.0,9.0,48.0,26.0,-15.0,-2.0,-6.0,5.0,0.0,1.2445354461669922
286,-4381.0,804.0,-5150.0,1.0,-8035.0,-5137.0,-8949.0,-9871.0,1.0,11.0,6.0,-15.0,-4.0,-3.0,-3.0,3.0,1.2522146701812744
287,-3946.0,986.0,-4891.0,1.0,-8665.0,-4198.0,-8863.0,-9859.0,1.0,11.0,6.0,-15.0,-4.0,-3.0,-3.0,3.0,1.2605774402618408
288,-3946.0,986.0,-4891.0,1.0,-8665.0,-4198.0,-8863.0,-9859.0,0.0,-4.0,12.0,-6.0,28.0,3.0,5.0,3.0,1.262446641921997
289,-3946.0,986.0,-4891.0,1.0,-8665.0,-4198.0,-8863.0,-9859.0,-4.0,4.0,2.0,18.0,-24.0,-18.0,-11.0,-8.0,1.2749176025390625
290,-3953.0,1073.0,-4887.0,1.0,-9246.0,-3229.0,-8742.0,-9805.0,-4.0,4.0,2.0,18.0,-24.0,-18.0,-11.0,-8.0,1.2773241996765137
291,-3953.0,1073.0,-4887.0,1.0,-9246.0,-3229.0,-8742.0,-9805.0,-2.0,-30.0,-40.0,3.0,4.0,0.0,13.0,2.0,1.282609224319458
292,-3953.0,1073.0,-4887.0,1.0,-9246.0,-3229.0,-8742.0,-9805.0,2.0,-6.0,-9.0,-27.0,8.0,-9.0,-10.0,-8.0,1.2974319458007812
293,-3556.0,1139.0,-4855.0,1.0,-9760.0,-2281.0,-8629.0,-9673.0,2.0,-6.0,-9.0,-27.0,8.0,-9.0,-10.0,-8.0,1.299224615097046
294,-3556.0,1139.0,-4855.0,1.0,-9760.0,-2281.0,-8629.0,-9673.0,-8.0,-8.0,-6.0,-45.0,40.0,29.0,-8.0,10.0,1.3051574230194092
295,-3556.0,1139.0,-4855.0,1.0,-9760.0,-2281.0,-8629.0,-9673.0,3.0,2.0,-2.0,56.0,10.0,33.0,35.0,15.0,1.3127455711364746
296,-3514.0,1231.0,-4834.0,1.0,-10219.0,-1319.0,-8490.0,-9498.0,3.0,2.0,-2.0,56.0,10.0,33.0,35.0,15.0,1.3199098110198975
297,-3514.0,1231.0,-4834.0,1.0,-10219.0,-1319.0,-8490.0,-9498.0,-5.0,-11.0,-1.0,-7.0,-50.0,-19.0,-18.0,-4.0,1.3218252658843994
298,-3514.0,1231.0,-4834.0,1.0,-10219.0,-1319.0,-8490.0,-9498.0,0.0,-1.0,-8.0,-56.0,-43.0,-23.0,-4.0,-6.0,1.334801197052002
299,-3162.0,1064.0,-4687.0,1.0,-10599.0,-465.0,-8363.0,-9272.0,0.0,-1.0,-8.0,-56.0,-43.0,-23.0,-4.0,-6.0,1.3365802764892578
300,-3162.0,1064.0,-4687.0,1.0,-10599.0,-465.0,-8363.0,-9272.0,3.0,-6.0,4.0,18.0,16.0,-18.0,-13.0,-16.0,1.3424427509307861
301,-3162.0,1064.0,-4687.0,1.0,-10599.0,-465.0,-8363.0,-9272.0,12.0,8.0,-4.0,-18.0,61.0,-1.0,8.0,14.0,1.3580832481384277
302,-2693.0,1205.0,-4383.0,1.0,-10906.0,334.0,-8260.0,-9010.0,12.0,8.0,-4.0,-18.0,61.0,-1.0,8.0,14.0,1.3614580631256104
303,-2693.0,1205.0,-4383.0,1.0,-10906.0,334.0,-8260.0,-9010.0,-4.0,-15.0,-37.0,-7.0,23.0,7.0,11.0,-6.0,1.3645191192626953
304,-2693.0,1205.0,-4383.0,1.0,-10906.0,334.0,-8260.0,-9010.0,-11.0,-4.0,-3.0,-33.0,14.0,-14.0,-44.0,-32.0,1.3721044063568115
305,-1947.0,1453.0,-4059.0,1.0,-11139.0,1050.0,-8229.0,-8693.0,-11.0,-4.0,-3.0,-33.0,14.0,-14.0,-44.0,-32.0,1.380021333694458
306,-1947.0,1453.0,-4059.0,1.0,-11139.0,1050.0,-8229.0,-8693.0,-14.0,-3.0,12.0,72.0,-28.0,-9.0,-16.0,-5.0,1.3818695545196533
307,-1947.0,1453.0,-4059.0,1.0,-11139.0,1050.0,-8229.0,-8693.0,0.0,5.0,9.0,42.0,-30.0,37.0,37.0,8.0,1.394714117050171
308,-1679.0,1381.0,-3957.0,1.0,-11354.0,1730.0,-8185.0,-8341.0,0.0,5.0,9.0,42.0,-30.0,37.0,37.0,8.0,1.3965020179748535
309,-1679.0,1381.0,-3957.0,1.0,-11354.0,1730.0,-8185.0,-8341.0,13.0,6.0,4.0,37.0,-11.0,-12.0,51.0,13.0,1.4020488262176514
310,-1679.0,1381.0,-3957.0,1.0,-11354.0,1730.0,-8185.0,-8341.0,-5.0,-15.0,-14.0,-23.0,81.0,-10.0,-44.0,0.0,1.4183259010314941
311,-1158.0,1334.0,-3789.0,1.0,-11554.0,2341.0,-8153.0,-7938.0,-5.0,-15.0,-14.0,-23.0,81.0,-10.0,-44.0,0.0,1.4219260215759277
312,-1158.0,1334.0,-3789.0,1.0,-11554.0,2341.0,-8153.0,-7938.0,-4.0,-5.0,-3.0,-33.0,-34.0,81.0,51.0,-20.0,1.4262876510620117
313,-1158.0,1334.0,-3789.0,1.0,-11554.0,2341.0,-8153.0,-7938.0,-3.0,-16.0,-32.0,-6.0,57.0,-11.0,-44.0,-28.0,1.4439456462860107
314,-240.0,1234.0,-3206.0,1.0,-11716.0,2779.0,-8190.0,-7509.0,-3.0,-16.0,-32.0,-6.0,57.0,-11.0,-44.0,-28.0,1.447951078414917
315,-240.0,1234.0,-3206.0,1.0,-11716.0,2779.0,-8190.0,-7509.0,-5.0,-13.0,-17.0,-56.0,97.0,-85.0,-128.0,-48.0,1.4505527019500732
316,-240.0,1234.0,-3206.0,1.0,-11716.0,2779.0,-8190.0,-7509.0,9.0,13.0,31.0,67.0,74.0,110.0,44.0,19.0,1.455031394958496
317,134.0,930.0,-2405.0,1.0,-11844.0,3076.0,-8225.0,-7146.0,9.0,13.0,31.0,67.0,74.0,110.0,44.0,19.0,1.4568507671356201
318,134.0,930.0,-2405.0,1.0,-11844.0,3076.0,-8225.0,-7146.0,18.0,-8.0,4.0,51.0,18.0,-5.0,5.0,73.0,1.4618380069732666
319,134.0,930.0,-2405.0,1.0,-11844.0,3076.0,-8225.0,-7146.0,2.0,7.0,-1.0,-73.0,-105.0,-53.0,-79.0,-13.0,1.4775619506835938
320,288.0,613.0,-1827.0,1.0,-11960.0,3274.0,-8233.0,-6849.0,2.0,7.0,-1.0,-73.0,-105.0,-53.0,-79.0,-13.0,1.4793620109558105
321,288.0,613.0,-1827.0,1.0,-11960.0,3274.0,-8233.0,-6849.0,4.0,7.0,-2.0,54.0,42.0,56.0,33.0,-24.0,1.4843294620513916
322,288.0,613.0,-1827.0,1.0,-11960.0,3274.0,-8233.0,-6849.0,-4.0,12.0,7.0,-1.0,-25.0,-14.0,22.0,20.0,1.492354154586792
323,315.0,239.0,-1119.0,1.0,-12107.0,3460.0,-8142.0,-6603.0,-4.0,12.0,7.0,-1.0,-25.0,-14.0,22.0,20.0,1.501218557357788
324,315.0,239.0,-1119.0,1.0,-12107.0,3460.0,-8142.0,-6603.0,-4.0,-10.0,-3.0,-78.0,-80.0,-91.0,3.0,-14.0,1.5046184062957764
325,315.0,239.0,-1119.0,1.0,-12107.0,3460.0,-8142.0,-6603.0,-11.0,-16.0,-20.0,-14.0,38.0,10.0,5.0,18.0,1.5147948265075684
326,-39.0,114.0,-113.0,1.0,-12185.0,3612.0,-8033.0,-6511.0,-11.0,-16.0,-20.0,-14.0,38.0,10.0,5.0,18.0,1.5165598392486572
327,-39.0,114.0,-113.0,1.0,-12185.0,3612.0,-8033.0,-6511.0,-3.0,4.0,5.0,-3.0,8.0,19.0,-2.0,-3.0,1.522047758102417
328,-39.0,114.0,-113.0,1.0,-12185.0,3612.0,-8033.0,-6511.0,-5.0,-11.0,-15.0,-54.0,30.0,46.0,96.0,2.0,1.5386881828308105
329,-3.0,155.0,912.0,1.0,-12182.0,3679.0,-7981.0,-6545.0,-5.0,-11.0,-15.0,-54.0,30.0,46.0,96.0,2.0,1.5429611206054688
330,-3.0,155.0,912.0,1.0,-12182.0,3679.0,-7981.0,-6545.0,1.0,11.0,4.0,-67.0,-73.0,3.0,23.0,24.0,1.546116590499878
331,-3.0,155.0,912.0,1.0,-12182.0,3679.0,-7981.0,-6545.0,-11.0,1.0,3.0,9.0,-65.0,-47.0,-81.0,-52.0,1.5522210597991943
332,255.0,176.0,1760.0,1.0,-12063.0,3534.0,-8073.0,-6730.0,-11.0,1.0,3.0,9.0,-65.0,-47.0,-81.0,-52.0,1.5600361824035645
333,255.0,176.0,1760.0,1.0,-12063.0,3534.0,-8073.0,-6730.0,-9.0,-3.0,-12.0,-26.0,-72.0,-2.0,34.0,-41.0,1.562584638595581
334,255.0,176.0,1760.0,1.0,-12063.0,3534.0,-8073.0,-6730.0,10.0,-2.0,9.0,34.0,11.0,-57.0,-32.0,15.0,1.5754272937774658
335,412.0,122.0,2357.0,1.0,-11901.0,3308.0,-8194.0,-6981.0,10.0,-2.0,9.0,34.0,11.0,-57.0,-32.0,15.0,1.5786137580871582
336,412.0,122.0,2357.0,1.0,-11901.0,3308.0,-8194.0,-6981.0,-17.0,-11.0,-7.0,-17.0,-27.0,-15.0,-16.0,-18.0,1.5826826095581055
337,412.0,122.0,2357.0,1.0,-11901.0,3308.0,-8194.0,-6981.0,0.0,-1.0,1.0,12.0,-4.0,0.0,12.0,-2.0,1.5974807739257812
338,794.0,125.0,2810.0,1.0,-11705.0,2981.0,-8363.0,-7254.0,0.0,-1.0,1.0,12.0,-4.0,0.0,12.0,-2.0,1.59926438331604
339,794.0,125.0,2810.0,1.0,-11705.0,2981.0,-8363.0,-7254.0,7.0,10.0,11.0,21.0,76.0,-5.0,-50.0,2.0,1.6040942668914795
340,794.0,125.0,2810.0,1.0,-11705.0,2981.0,-8363.0,-7254.0,9.0,4.0,3.0,-32.0,-48.0,-7.0,15.0,7.0,1.6118385791778564
341,1068.0,65.0,3067.0,1.0,-11486.0,2583.0,-8552.0,-7532.0,9.0,4.0,3.0,-32.0,-48.0,-7.0,15.0,7.0,1.6200180053710938
342,1068.0,65.0,3067.0,1.0,-11486.0,2583.0,-8552.0,-7532.0,-8.0,-5.0,0.0,-43.0,11.0,13.0,63.0,20.0,1.622647762298584
343,1068.0,65.0,3067.0,1.0,-11486.0,2583.0,-8552.0,-7532.0,-6.0,4.0,-6.0,-55.0,-2.0,-10.0,-25.0,-3.0,1.6346027851104736
344,1401.0,-52.0,3286.0,1.0,-11250.0,2101.0,-8751.0,-7804.0,-6.0,4.0,-6.0,-55.0,-2.0,-10.0,-25.0,-3.0,1.6366894245147705
345,1401.0,-52.0,3286.0,1.0,-11250.0,2101.0,-8751.0,-7804.0,28.0,13.0,10.0,41.0,-34.0,30.0,6.0,43.0,1.6424577236175537
346,1401.0,-52.0,3286.0,1.0,-11250.0,2101.0,-8751.0,-7804.0,-5.0,7.0,17.0,108.0,21.0,26.0,26.0,1.0,1.658989667892456
347,1624.0,-115.0,3530.0,1.0,-10981.0,1550.0,-8957.0,-8078.0,-5.0,7.0,17.0,108.0,21.0,26.0,26.0,1.0,1.6628527641296387
348,1624.0,-115.0,3530.0,1.0,-10981.0,1550.0,-8957.0,-8078.0,-4.0,-6.0,6.0,-17.0,6.0,-16.0,-40.0,-13.0,1.665952205657959
349,1624.0,-115.0,3530.0,1.0,-10981.0,1550.0,-8957.0,-8078.0,1.0,-4.0,6.0,59.0,47.0,11.0,2.0,4.0,1.6718411445617676
350,2112.0,-134.0,3756.0,1.0,-10671.0,903.0,-9199.0,-8316.0,1.0,-4.0,6.0,59.0,47.0,11.0,2.0,4.0,1.6795799732208252
351,2112.0,-134.0,3756.0,1.0,-10671.0,903.0,-9199.0,-8316.0,-1.0,10.0,8.0,64.0,90.0,17.0,-38.0,0.0,1.6871330738067627
352,2112.0,-134.0,3756.0,1.0,-10671.0,903.0,-9199.0,-8316.0,-12.0,-17.0,-26.0,-128.0,-46.0,-25.0,11.0,-10.0,1.6955480575561523
353,2652.0,-106.0,4179.0,1.0,-10291.0,141.0,-9478.0,-8527.0,-12.0,-17.0,-26.0,-128.0,-46.0,-25.0,11.0,-10.0,1.6985559463500977
354,2652.0,-106.0,4179.0,1.0,-10291.0,141.0,-9478.0,-8527.0,-13.0,-12.0,-30.0,19.0,-71.0,-70.0,-60.0,-19.0,1.7025086879730225
355,2652.0,-106.0,4179.0,1.0,-10291.0,141.0,-9478.0,-8527.0,-3.0,-17.0,-31.0,-105.0,-83.0,16.0,-57.0,-5.0,1.7202637195587158
356,2955.0,77.0,4729.0,1.0,-9803.0,-702.0,-9768.0,-8743.0,-3.0,-17.0,-31.0,-105.0,-83.0,16.0,-57.0,-5.0,1.7237908840179443
357,2955.0,77.0,4729.0,1.0,-9803.0,-702.0,-9768.0,-8743.0,0.0,-13.0,0.0,-2.0,-18.0,-104.0,-28.0,36.0,1.7269775867462158
358,2955.0,77.0,4729.0,1.0,-9803.0,-702.0,-9768.0,-8743.0,2.0,14.0,39.0,79.0,71.0,-70.0,-61.0,44.0,1.741058588027954
359,2449.0,672.0,5702.0,1.0,-9148.0,-1504.0,-10007.0,-9076.0,2.0,14.0,39.0,79.0,71.0,-70.0,-61.0,44.0,1.7443392276763916
360,2449.0,672.0,5702.0,1.0,-9148.0,-1504.0,-10007.0,-9076.0,29.0,31.0,37.0,97.0,111.0,118.0,-52.0,48.0,1.7486238479614258
361,2449.0,672.0,5702.0,1.0,-9148.0,-1504.0,-10007.0,-9076.0,1.0,-8.0,-30.0,94.0,55.0,-123.0,-14.0,-74.0,1.754662275314331
362,925.0,1025.0,6550.0,1.0,-8350.0,-2204.0,-10067.0,-9620.0,1.0,-8.0,-30.0,94.0,55.0,-123.0,-14.0,-74.0,1.7564749717712402
363,925.0,1025.0,6550.0,1.0,-8350.0,-2204.0,-10067.0,-9620.0,18.0,8.0,-5.0,1.0,-48.0,108.0,92.0,102.0,1.7617452144622803
364,925.0,1025.0,6550.0,1.0,-8350.0,-2204.0,-10067.0,-9620.0,-8.0,-5.0,-11.0,66.0,7.0,95.0,-30.0,-40.0,1.7794580459594727
365,48.0,733.0,7029.0,1.0,-7508.0,-2895.0,-9940.0,-10242.0,-8.0,-5.0,-11.0,66.0,7.0,95.0,-30.0,-40.0,1.7857229709625244
366,48.0,733.0,7029.0,1.0,-7508.0,-2895.0,-9940.0,-10242.0,23.0,12.0,21.0,50.0,43.0,33.0,119.0,69.0,1.7890071868896484
367,48.0,733.0,7029.0,1.0,-7508.0,-2895.0,-9940.0,-10242.0,27.0,34.0,58.0,66.0,57.0,69.0,0.0,2.0,1.8014633655548096
368,-6.0,541.0,6293.0,1.0,-6731.0,-3508.0,-9762.0,-10750.0,27.0,34.0,58.0,66.0,57.0,69.0,0.0,2.0,1.80483078956604
369,-6.0,541.0,6293.0,1.0,-6731.0,-3508.0,-9762.0,-10750.0,27.0,34.0,58.0,66.0,57.0,69.0,0.0,2.0,1.8091065883636475
370,-6.0,541.0,6293.0,1.0,-6731.0,-3508.0,-9762.0,-10750.0,-27.0,-17.0,-42.0,-128.0,-62.0,-100.0,-104.0,-90.0,1.8159220218658447
371,-6.0,541.0,6293.0,1.0,-6731.0,-3508.0,-9762.0,-10750.0,-34.0,-39.0,-35.0,-49.0,-60.0,-70.0,-118.0,-79.0,1.818241834640503
372,-558.0,835.0,4729.0,1.0,-6100.0,-3867.0,-9564.0,-11173.0,-34.0,-39.0,-35.0,-49.0,-60.0,-70.0,-118.0,-79.0,1.820044755935669
373,-558.0,835.0,4729.0,1.0,-6100.0,-3867.0,-9564.0,-11173.0,-16.0,-8.0,-16.0,-48.0,-37.0,13.0,-23.0,-97.0,1.8218836784362793
374,-558.0,835.0,4729.0,1.0,-6100.0,-3867.0,-9564.0,-11173.0,-7.0,-18.0,-13.0,-32.0,11.0,111.0,127.0,38.0,1.8377902507781982
375,877.0,1153.0,2295.0,1.0,-5660.0,-4023.0,-9646.0,-11278.0,-7.0,-18.0,-13.0,-32.0,11.0,111.0,127.0,38.0,1.839881420135498
376,877.0,1153.0,2295.0,1.0,-5660.0,-4023.0,-9646.0,-11278.0,-27.0,-14.0,33.0,-24.0,-67.0,-6.0,22.0,-44.0,1.8441247940063477
377,877.0,1153.0,2295.0,1.0,-5660.0,-4023.0,-9646.0,-11278.0,4.0,-14.0,-75.0,-84.0,-105.0,-26.0,62.0,15.0,1.860363245010376
378,3331.0,1072.0,985.0,1.0,-5276.0,-4197.0,-10071.0,-11026.0,4.0,-14.0,-75.0,-84.0,-105.0,-26.0,62.0,15.0,1.862152338027954
379,3331.0,1072.0,985.0,1.0,-5276.0,-4197.0,-10071.0,-11026.0,28.0,-3.0,3.0,67.0,107.0,103.0,72.0,54.0,1.863962173461914
380,3331.0,1072.0,985.0,1.0,-5276.0,-4197.0,-10071.0,-11026.0,53.0,127.0,127.0,21.0,23.0,-44.0,-15.0,28.0,1.8751897811889648
381,3485.0,-344.0,-718.0,1.0,-5220.0,-4372.0,-10528.0,-10548.0,53.0,127.0,127.0,21.0,23.0,-44.0,-15.0,28.0,1.8780856132507324
382,3485.0,-344.0,-718.0,1.0,-5220.0,-4372.0,-10528.0,-10548.0,-54.0,-65.0,-74.0,6.0,77.0,-7.0,-16.0,-54.0,1.8824920654296875
383,3485.0,-344.0,-718.0,1.0,-5220.0,-4372.0,-10528.0,-10548.0,-74.0,-120.0,-4.0,-12.0,-76.0,-57.0,-65.0,-26.0,1.8972344398498535
384,2374.0,164.0,-2125.0,1.0,-5330.0,-4241.0,-10905.0,-10157.0,-74.0,-120.0,-4.0,-12.0,-76.0,-57.0,-65.0,-26.0,1.8994300365447998
385,2374.0,164.0,-2125.0,1.0,-5330.0,-4241.0,-10905.0,-10157.0,17.0,39.0,56.0,68.0,-12.0,20.0,66.0,43.0,1.904395580291748
386,2374.0,164.0,-2125.0,1.0,-5330.0,-4241.0,-10905.0,-10157.0,-2.0,-48.0,-26.0,-87.0,-98.0,-54.0,54.0,29.0,1.921431541442871
387,614.0,-61.0,-1011.0,1.0,-5352.0,-4234.0,-10982.0,-10064.0,-2.0,-48.0,-26.0,-87.0,-98.0,-54.0,54.0,29.0,1.9244353771209717
388,614.0,-61.0,-1011.0,1.0,-5352.0,-4234.0,-10982.0,-10064.0,40.0,51.0,0.0,51.0,-11.0,40.0,43.0,51.0,1.9275131225585938
389,614.0,-61.0,-1011.0,1.0,-5352.0,-4234.0,-10982.0,-10064.0,84.0,26.0,-25.0,127.0,70.0,1.0,-44.0,33.0,1.936145305633545
390,1552.0,109.0,-817.0,1.0,-5339.0,-4237.0,-11138.0,-9897.0,84.0,26.0,-25.0,127.0,70.0,1.0,-44.0,33.0,1.9384124279022217
391,1552.0,109.0,-817.0,1.0,-5339.0,-4237.0,-11138.0,-9897.0,1.0,-3.0,72.0,-62.0,-28.0,-42.0,46.0,-47.0,1.9418394565582275
392,1552.0,109.0,-817.0,1.0,-5339.0,-4237.0,-11138.0,-9897.0,-15.0,127.0,16.0,-10.0,78.0,72.0,127.0,-4.0,1.9579284191131592
393,784.0,559.0,-319.0,1.0,-5359.0,-4106.0,-11224.0,-9844.0,-15.0,127.0,16.0,-10.0,78.0,72.0,127.0,-4.0,1.9609260559082031
394,784.0,559.0,-319.0,1.0,-5359.0,-4106.0,-11224.0,-9844.0,-45.0,44.0,65.0,-34.0,-42.0,-121.0,-128.0,-70.0,1.9658112525939941
395,784.0,559.0,-319.0,1.0,-5359.0,-4106.0,-11224.0,-9844.0,0.0,17.0,-25.0,4.0,85.0,85.0,-106.0,-98.0,1.981663465499878
396,-1300.0,92.0,781.0,1.0,-5390.0,-4053.0,-11013.0,-10085.0,0.0,17.0,-25.0,4.0,85.0,85.0,-106.0,-98.0,1.9850819110870361
397,-1300.0,92.0,781.0,1.0,-5390.0,-4053.0,-11013.0,-10085.0,-41.0,-47.0,-67.0,66.0,-105.0,-34.0,45.0,-26.0,1.9886302947998047
398,-1300.0,92.0,781.0,1.0,-5390.0,-4053.0,-11013.0,-10085.0,-49.0,-65.0,-52.0,-68.0,-63.0,47.0,-45.0,-20.0,1.995652437210083
399,-1248.0,-56.0,824.0,1.0,-5355.0,-4092.0,-10811.0,-10304.0,-49.0,-65.0,-52.0,-68.0,-63.0,47.0,-45.0,-20.0,1.997908115386963
400,-1248.0,-56.0,824.0,1.0,-5355.0,-4092.0,-10811.0,-10304.0,33.0,-21.0,8.0,-40.0,-84.0,22.0,-105.0,-57.0,2.001857280731201
401,-1248.0,-56.0,824.0,1.0,-5355.0,-4092.0,-10811.0,-10304.0,28.0,-6.0,42.0,53.0,-89.0,-5.0,-73.0,32.0,2.028578519821167
402,-1072.0,-35.0,894.0,1.0,-5311.0,-4132.0,-10657.0,-10469.0,28.0,-6.0,42.0,53.0,-89.0,-5.0,-73.0,32.0,2.0322885513305664
403,-1072.0,-35.0,894.0,1.0,-5311.0,-4132.0,-10657.0,-10469.0,-21.0,-38.0,-94.0,-47.0,2.0,28.0,-31.0,6.0,2.0345828533172607
404,-1072.0,-35.0,894.0,1.0,-5311.0,-4132.0,-10657.0,-10469.0,-21.0,-28.0,-5.0,-71.0,-77.0,-89.0,-78.0,-26.0,2.0408496856689453
405,-647.0,134.0,903.0,1.0,-5223.0,-4185.0,-10508.0,-10642.0,-21.0,-28.0,-5.0,-71.0,-77.0,-89.0,-78.0,-26.0,2.043051242828369
406,-647.0,134.0,903.0,1.0,-5223.0,-4185.0,-10508.0,-10642.0,-13.0,-15.0,49.0,104.0,-5.0,-76.0,-92.0,32.0,2.0450539588928223
407,-647.0,134.0,903.0,1.0,-5223.0,-4185.0,-10508.0,-10642.0,40.0,32.0,29.0,32.0,116.0,95.0,127.0,127.0,2.05578875541687
408,-111.0,155.0,718.0,1.0,-5123.0,-4250.0,-10424.0,-10747.0,40.0,32.0,29.0,32.0,116.0,95.0,127.0,127.0,2.0590713024139404
409,-111.0,155.0,718.0,1.0,-5123.0,-4250.0,-10424.0,-10747.0,-8.0,-13.0,-62.0,-128.0,16.0,-39.0,-68.0,-44.0,2.0612990856170654
410,-111.0,155.0,718.0,1.0,-5123.0,-4250.0,-10424.0,-10747.0,17.0,59.0,23.0,-46.0,82.0,-63.0,1.0,-78.0,2.077502489089966
411,-88.0,159.0,517.0,1.0,-5015.0,-4321.0,-10393.0,-10800.0,17.0,59.0,23.0,-46.0,82.0,-63.0,1.0,-78.0,2.079329013824463
412,-88.0,159.0,517.0,1.0,-5015.0,-4321.0,-10393.0,-10800.0,61.0,59.0,113.0,71.0,70.0,127.0,127.0,104.0,2.0841195583343506
413,-88.0,159.0,517.0,1.0,-5015.0,-4321.0,-10393.0,-10800.0,21.0,23.0,-53.0,-44.0,37.0,8.0,-41.0,22.0,2.100919008255005
414,-463.0,254.0,386.0,1.0,-4949.0,-4322.0,-10349.0,-10871.0,21.0,23.0,-53.0,-44.0,37.0,8.0,-41.0,22.0,2.104247808456421
415,-463.0,254.0,386.0,1.0,-4949.0,-4322.0,-10349.0,-10871.0,-2.0,6.0,-116.0,-103.0,-90.0,-76.0,-63.0,-47.0,2.107571601867676
416,-463.0,254.0,386.0,1.0,-4949.0,-4322.0,-10349.0,-10871.0,-14.0,-27.0,2.0,0.0,-118.0,-39.0,18.0,-16.0,2.1163694858551025
417,-194.0,259.0,187.0,1.0,-4864.0,-4346.0,-10386.0,-10865.0,-14.0,-27.0,2.0,0.0,-118.0,-39.0,18.0,-16.0,2.1195101737976074
418,-194.0,259.0,187.0,1.0,-4864.0,-4346.0,-10386.0,-10865.0,-24.0,-30.0,-20.0,-13.0,7.0,1.0,87.0,-20.0,2.1216771602630615
419,-194.0,259.0,187.0,1.0,-4864.0,-4346.0,-10386.0,-10865.0,-24.0,-45.0,9.0,79.0,-6.0,30.0,37.0,22.0,2.1381568908691406
420,46.0,117.0,-22.0,1.0,-4813.0,-4372.0,-10418.0,-10847.0,-24.0,-45.0,9.0,79.0,-6.0,30.0,37.0,22.0,2.1411867141723633
421,46.0,117.0,-22.0,1.0,-4813.0,-4372.0,-10418.0,-10847.0,15.0,7.0,36.0,127.0,62.0,15.0,-73.0,-44.0,2.144958257675171
422,46.0,117.0,-22.0,1.0,-4813.0,-4372.0,-10418.0,-10847.0,-4.0,-22.0,21.0,-11.0,70.0,-10.0,50.0,-22.0,2.161304235458374
423,-29.0,-103.0,-143.0,1.0,-4821.0,-4389.0,-10433.0,-10822.0,-4.0,-22.0,21.0,-11.0,70.0,-10.0,50.0,-22.0,2.1649720668792725
424,-29.0,-103.0,-143.0,1.0,-4821.0,-4389.0,-10433.0,-10822.0,-26.0,-19.0,1.0,46.0,12.0,1.0,22.0,12.0,2.168766975402832
425,-29.0,-103.0,-143.0,1.0,-4821.0,-4389.0,-10433.0,-10822.0,-18.0,-67.0,17.0,94.0,-6.0,4.0,-99.0,-18.0,2.1745975017547607
426,-345.0,-242.0,-164.0,1.0,-4880.0,-4385.0,-10378.0,-10850.0,-18.0,-67.0,17.0,94.0,-6.0,4.0,-99.0,-18.0,2.176408052444458
427,-345.0,-242.0,-164.0,1.0,-4880.0,-4385.0,-10378.0,-10850.0,30.0,38.0,119.0,14.0,76.0,-13.0,4.0,11.0,2.1823232173919678
428,-345.0,-242.0,-164.0,1.0,-4880.0,-4385.0,-10378.0,-10850.0,9.0,7.0,6.0,-10.0,2.0,15.0,41.0,7.0,2.1981711387634277
429,-43.0,-219.0,-194.0,1.0,-4921.0,-4396.0,-10388.0,-10817.0,9.0,7.0,6.0,-10.0,2.0,15.0,41.0,7.0,2.2013139724731445
430,-43.0,-219.0,-194.0,1.0,-4921.0,-4396.0,-10388.0,-10817.0,-41.0,-77.0,-78.0,-43.0,12.0,-51.0,-62.0,-63.0,2.205388307571411
431,-43.0,-219.0,-194.0,1.0,-4921.0,-4396.0,-10388.0,-10817.0,-22.0,-20.0,-10.0,-85.0,-7.0,61.0,6.0,-58.0,2.2198305130004883
432,145.0,-85.0,-196.0,1.0,-4921.0,-4417.0,-10431.0,-10767.0,-22.0,-20.0,-10.0,-85.0,-7.0,61.0,6.0,-58.0,2.223123550415039
433,145.0,-85.0,-196.0,1.0,-4921.0,-4417.0,-10431.0,-10767.0,-12.0,11.0,-33.0,-114.0,-21.0,6.0,20.0,1.0,2.2281880378723145
434,145.0,-85.0,-196.0,1.0,-4921.0,-4417.0,-10431.0,-10767.0,-2.0,19.0,3.0,-72.0,-61.0,-43.0,5.0,3.0,2.2358622550964355
435,63.0,-88.0,-101.0,1.0,-4917.0,-4442.0,-10462.0,-10728.0,-2.0,19.0,3.0,-72.0,-61.0,-43.0,5.0,3.0,2.2386934757232666
436,63.0,-88.0,-101.0,1.0,-4917.0,-4442.0,-10462.0,-10728.0,-1.0,4.0,3.0,41.0,2.0,122.0,3.0,-35.0,2.2413785457611084
437,63.0,-88.0,-101.0,1.0,-4917.0,-4442.0,-10462.0,-10728.0,-3.0,23.0,18.0,-36.0,10.0,-10.0,49.0,8.0,2.258021593093872
438,21.0,-178.0,-12.0,1.0,-4931.0,-4471.0,-10447.0,-10725.0,-3.0,23.0,18.0,-36.0,10.0,-10.0,49.0,8.0,2.2613351345062256
439,21.0,-178.0,-12.0,1.0,-4931.0,-4471.0,-10447.0,-10725.0,5.0,-39.0,-112.0,-94.0,23.0,-18.0,-23.0,33.0,2.264457941055298
440,21.0,-178.0,-12.0,1.0,-4931.0,-4471.0,-10447.0,-10725.0,12.0,-17.0,34.0,1.0,1.0,0.0,30.0,10.0,2.281494140625
441,-51.0,-172.0,-9.0,1.0,-4950.0,-4491.0,-10423.0,-10731.0,12.0,-17.0,34.0,1.0,1.0,0.0,30.0,10.0,2.284868001937866
442,-51.0,-172.0,-9.0,1.0,-4950.0,-4491.0,-10423.0,-10731.0,8.0,19.0,32.0,127.0,-24.0,-7.0,62.0,35.0,2.2884416580200195
443,-51.0,-172.0,-9.0,1.0,-4950.0,-4491.0,-10423.0,-10731.0,3.0,18.0,12.0,47.0,-75.0,-60.0,-66.0,25.0,2.2959306240081787
444,-81.0,-77.0,-44.0,1.0,-4954.0,-4505.0,-10403.0,-10743.0,3.0,18.0,12.0,47.0,-75.0,-60.0,-66.0,25.0,2.298382520675659
445,-81.0,-77.0,-44.0,1.0,-4954.0,-4505.0,-10403.0,-10743.0,28.0,56.0,15.0,37.0,12.0,21.0,-29.0,36.0,2.3103625774383545
446,-81.0,-77.0,-44.0,1.0,-4954.0,-4505.0,-10403.0,-10743.0,8.0,46.0,34.0,85.0,42.0,-19.0,-1.0,16.0,2.3175034523010254
447,-55.0,-38.0,39.0,1.0,-4952.0,-4515.0,-10391.0,-10751.0,8.0,46.0,34.0,85.0,42.0,-19.0,-1.0,16.0,2.319262742996216
448,-55.0,-38.0,39.0,1.0,-4952.0,-4515.0,-10391.0,-10751.0,13.0,18.0,92.0,13.0,-34.0,-53.0,-2.0,-35.0,2.324424982070923
449,-55.0,-38.0,39.0,1.0,-4952.0,-4515.0,-10391.0,-10751.0,0.0,-1.0,-8.0,78.0,14.0,67.0,-47.0,-30.0,2.342470645904541
450,-91.0,-36.0,45.0,1.0,-4949.0,-4527.0,-10381.0,-10758.0,0.0,-1.0,-8.0,78.0,14.0,67.0,-47.0,-30.0,2.346076011657715
451,-91.0,-36.0,45.0,1.0,-4949.0,-4527.0,-10381.0,-10758.0,-8.0,-15.0,-16.0,-84.0,69.0,5.0,60.0,-2.0,2.349573850631714
452,-91.0,-36.0,45.0,1.0,-4949.0,-4527.0,-10381.0,-10758.0,-9.0,-23.0,-71.0,-11.0,-75.0,-7.0,16.0,-5.0,2.355158567428589
453,-45.0,70.0,59.0,1.0,-4926.0,-4534.0,-10372.0,-10774.0,-9.0,-23.0,-71.0,-11.0,-75.0,-7.0,16.0,-5.0,2.357006072998047
454,-45.0,70.0,59.0,1.0,-4926.0,-4534.0,-10372.0,-10774.0,-4.0,6.0,19.0,13.0,45.0,-8.0,-63.0,-17.0,2.361567735671997
455,-45.0,70.0,59.0,1.0,-4926.0,-4534.0,-10372.0,-10774.0,-48.0,-45.0,-67.0,-99.0,-1.0,-68.0,-71.0,-19.0,2.3774468898773193
456,5.0,71.0,65.0,1.0,-4902.0,-4541.0,-10379.0,-10775.0,-48.0,-45.0,-67.0,-99.0,-1.0,-68.0,-71.0,-19.0,2.3792412281036377
457,5.0,71.0,65.0,1.0,-4902.0,-4541.0,-10379.0,-10775.0,-48.0,-45.0,-67.0,-99.0,-1.0,-68.0,-71.0,-19.0,2.38435959815979
458,5.0,71.0,65.0,1.0,-4902.0,-4541.0,-10379.0,-10775.0,0.0,0.0,-9.0,30.0,-34.0,-17.0,0.0,12.0,2.40159273147583
459,5.0,71.0,65.0,1.0,-4902.0,-4541.0,-10379.0,-10775.0,4.0,22.0,25.0,-27.0,-16.0,-34.0,25.0,29.0,2.4053122997283936
460,-122.0,37.0,102.0,1.0,-4889.0,-4544.0,-10369.0,-10789.0,4.0,22.0,25.0,-27.0,-16.0,-34.0,25.0,29.0,2.4095945358276367
461,-122.0,37.0,102.0,1.0,-4889.0,-4544.0,-10369.0,-10789.0,18.0,13.0,-32.0,43.0,12.0,-15.0,10.0,6.0,2.4133858680725098
462,-122.0,37.0,102.0,1.0,-4889.0,-4544.0,-10369.0,-10789.0,4.0,-29.0,-7.0,50.0,30.0,20.0,35.0,-15.0,2.415358543395996
463,-88.0,-22.0,35.0,1.0,-4884.0,-4554.0,-10370.0,-10786.0,4.0,-29.0,-7.0,50.0,30.0,20.0,35.0,-15.0,2.4171502590179443
464,-88.0,-22.0,35.0,1.0,-4884.0,-4554.0,-10370.0,-10786.0,-8.0,-16.0,12.0,-54.0,-3.0,9.0,-6.0,3.0,2.422166585922241
465,-88.0,-22.0,35.0,1.0,-4884.0,-4554.0,-10370.0,-10786.0,-11.0,-9.0,-18.0,-75.0,38.0,71.0,1.0,-15.0,2.438537359237671
466,-10.0,43.0,20.0,1.0,-4864.0,-4565.0,-10386.0,-10775.0,-11.0,-9.0,-18.0,-75.0,38.0,71.0,1.0,-15.0,2.4433610439300537
467,-10.0,43.0,20.0,1.0,-4864.0,-4565.0,-10386.0,-10775.0,-13.0,-13.0,-3.0,-71.0,-37.0,-23.0,23.0,53.0,2.447791337966919
468,-10.0,43.0,20.0,1.0,-4864.0,-4565.0,-10386.0,-10775.0,-3.0,-5.0,-16.0,67.0,-79.0,-17.0,17.0,13.0,2.4616777896881104
469,44.0,9.0,45.0,1.0,-4850.0,-4576.0,-10403.0,-10760.0,-3.0,-5.0,-16.0,67.0,-79.0,-17.0,17.0,13.0,2.4651267528533936
470,44.0,9.0,45.0,1.0,-4850.0,-4576.0,-10403.0,-10760.0,-1.0,-1.0,-12.0,-42.0,-15.0,4.0,-5.0,-2.0,2.468804359436035
471,44.0,9.0,45.0,1.0,-4850.0,-4576.0,-10403.0,-10760.0,-2.0,-13.0,-1.0,-11.0,50.0,6.0,-14.0,6.0,2.476593255996704
472,-101.0,-76.0,76.0,1.0,-4855.0,-4588.0,-10398.0,-10758.0,-2.0,-13.0,-1.0,-11.0,50.0,6.0,-14.0,6.0,2.4786322116851807
473,-101.0,-76.0,76.0,1.0,-4855.0,-4588.0,-10398.0,-10758.0,12.0,26.0,64.0,35.0,-13.0,-12.0,6.0,-26.0,2.4991891384124756
474,-101.0,-76.0,76.0,1.0,-4855.0,-4588.0,-10398.0,-10758.0,-8.0,-15.0,-23.0,0.0,79.0,-6.0,-69.0,-13.0,2.5025789737701416
475,-125.0,-59.0,44.0,1.0,-4853.0,-4603.0,-10391.0,-10758.0,-8.0,-15.0,-23.0,0.0,79.0,-6.0,-69.0,-13.0,2.506307601928711
476,-125.0,-59.0,44.0,1.0,-4853.0,-4603.0,-10391.0,-10758.0,13.0,1.0,10.0,1.0,10.0,33.0,4.0,50.0,2.509950876235962
477,-125.0,-59.0,44.0,1.0,-4853.0,-4603.0,-10391.0,-10758.0,7.0,13.0,17.0,21.0,28.0,10.0,16.0,9.0,2.520996570587158
478,-88.0,-46.0,13.0,1.0,-4852.0,-4615.0,-10387.0,-10759.0,7.0,13.0,17.0,21.0,28.0,10.0,16.0,9.0,2.523592233657837
479,-88.0,-46.0,13.0,1.0,-4852.0,-4615.0,-10387.0,-10759.0,-5.0,20.0,79.0,39.0,-61.0,-60.0,-37.0,-7.0,2.526423692703247
480,-88.0,-46.0,13.0,1.0,-4852.0,-4615.0,-10387.0,-10759.0,5.0,0.0,-13.0,-62.0,-59.0,-66.0,-27.0,8.0,2.534651517868042
481,69.0,-76.0,2.0,1.0,-4851.0,-4633.0,-10399.0,-10739.0,5.0,0.0,-13.0,-62.0,-59.0,-66.0,-27.0,8.0,2.536425828933716
482,69.0,-76.0,2.0,1.0,-4851.0,-4633.0,-10399.0,-10739.0,-3.0,-25.0,-44.0,-26.0,-9.0,35.0,42.0,34.0,2.541954517364502
483,69.0,-76.0,2.0,1.0,-4851.0,-4633.0,-10399.0,-10739.0,-7.0,-37.0,-12.0,-15.0,63.0,20.0,0.0,-12.0,2.5589683055877686
484,1.0,-65.0,28.0,1.0,-4857.0,-4642.0,-10393.0,-10738.0,-7.0,-37.0,-12.0,-15.0,63.0,20.0,0.0,-12.0,2.562713146209717
485,1.0,-65.0,28.0,1.0,-4857.0,-4642.0,-10393.0,-10738.0,-9.0,8.0,31.0,11.0,59.0,12.0,-1.0,-16.0,2.565744400024414
486,1.0,-65.0,28.0,1.0,-4857.0,-4642.0,-10393.0,-10738.0,19.0,31.0,-4.0,5.0,6.0,-3.0,9.0,5.0,2.581598997116089
487,58.0,-54.0,-2.0,1.0,-4859.0,-4653.0,-10399.0,-10727.0,19.0,31.0,-4.0,5.0,6.0,-3.0,9.0,5.0,2.5858538150787354
488,58.0,-54.0,-2.0,1.0,-4859.0,-4653.0,-10399.0,-10727.0,14.0,-16.0,-25.0,-25.0,35.0,35.0,72.0,-16.0,2.589812755584717
489,58.0,-54.0,-2.0,1.0,-4859.0,-4653.0,-10399.0,-10727.0,14.0,2.0,22.0,-66.0,-41.0,-31.0,-7.0,11.0,2.596254587173462
490,84.0,-44.0,-34.0,1.0,-4857.0,-4665.0,-10415.0,-10707.0,14.0,2.0,22.0,-66.0,-41.0,-31.0,-7.0,11.0,2.5986852645874023
491,84.0,-44.0,-34.0,1.0,-4857.0,-4665.0,-10415.0,-10707.0,-22.0,-19.0,-13.0,-43.0,-57.0,-17.0,-16.0,7.0,2.601226568222046
492,84.0,-44.0,-34.0,1.0,-4857.0,-4665.0,-10415.0,-10707.0,9.0,-1.0,32.0,33.0,-66.0,23.0,3.0,32.0,2.6181113719940186
493,24.0,-67.0,-26.0,1.0,-4864.0,-4674.0,-10422.0,-10693.0,9.0,-1.0,32.0,33.0,-66.0,23.0,3.0,32.0,2.6213901042938232
494,24.0,-67.0,-26.0,1.0,-4864.0,-4674.0,-10422.0,-10693.0,-3.0,-17.0,-72.0,-80.0,29.0,94.0,8.0,-29.0,2.624810218811035
495,24.0,-67.0,-26.0,1.0,-4864.0,-4674.0,-10422.0,-10693.0,-14.0,-13.0,-25.0,8.0,-34.0,-28.0,-2.0,-8.0,2.6416101455688477
496,0.0,-56.0,-23.0,1.0,-4872.0,-4679.0,-10428.0,-10681.0,-14.0,-13.0,-25.0,8.0,-34.0,-28.0,-2.0,-8.0,2.6458051204681396
497,0.0,-56.0,-23.0,1.0,-4872.0,-4679.0,-10428.0,-10681.0,-11.0,-3.0,26.0,51.0,-4.0,-15.0,-43.0,-19.0,2.6491241455078125
498,0.0,-56.0,-23.0,1.0,-4872.0,-4679.0,-10428.0,-10681.0,6.0,33.0,57.0,82.0,37.0,4.0,3.0,-1.0,2.6552131175994873
499,-32.0,-56.0,-12.0,1.0,-4876.0,-4687.0,-10427.0,-10677.0,6.0,33.0,57.0,82.0,37.0,4.0,3.0,-1.0,2.6584692001342773
