,Gyro 0,Gyro 1,Gyro 2,Label,Orientation 0,Orientation 1,Orientation 2,Orientation 3,Sensor 0,Sensor 1,Sensor 2,Sensor 3,Sensor 4,Sensor 5,Sensor 6,Sensor 7,Timestamp
0,4.0,9.0,3.0,1.0,-11684.0,-10679.0,3049.0,-2931.0,-3.0,-4.0,4.0,0.0,-2.0,4.0,1.0,-3.0,2.1457672119140625e-06
1,4.0,9.0,3.0,1.0,-11684.0,-10679.0,3049.0,-2931.0,-7.0,-11.0,-40.0,-1.0,-6.0,1.0,-3.0,0.0,0.002095460891723633
2,4.0,9.0,3.0,1.0,-11684.0,-10679.0,3049.0,-2931.0,6.0,14.0,-5.0,6.0,37.0,-1.0,1.0,4.0,0.004370689392089844
3,74.0,-3.0,14.0,1.0,-11674.0,-10690.0,3048.0,-2934.0,6.0,14.0,-5.0,6.0,37.0,-1.0,1.0,4.0,0.0074160099029541016
4,74.0,-3.0,14.0,1.0,-11674.0,-10690.0,3048.0,-2934.0,-5.0,-10.0,-22.0,-7.0,-4.0,17.0,2.0,-2.0,0.010164976119995117
5,39.0,9.0,13.0,1.0,-11667.0,-10699.0,3044.0,-2933.0,-5.0,-10.0,-22.0,-7.0,-4.0,17.0,2.0,-2.0,0.01321554183959961
6,39.0,9.0,13.0,1.0,-11667.0,-10699.0,3044.0,-2933.0,-1.0,0.0,8.0,2.0,23.0,0.0,1.0,0.0,0.015186548233032227
7,39.0,9.0,13.0,1.0,-11667.0,-10699.0,3044.0,-2933.0,-9.0,-15.0,5.0,-4.0,-22.0,-13.0,-3.0,-4.0,0.01700282096862793
8,-59.0,19.0,-2.0,1.0,-11675.0,-10690.0,3044.0,-2934.0,-9.0,-15.0,5.0,-4.0,-22.0,-13.0,-3.0,-4.0,0.018922805786132812
9,-59.0,19.0,-2.0,1.0,-11675.0,-10690.0,3044.0,-2934.0,2.0,4.0,0.0,1.0,4.0,13.0,1.0,1.0,0.02211785316467285
10,-59.0,19.0,-2.0,1.0,-11675.0,-10690.0,3044.0,-2934.0,-2.0,1.0,10.0,-4.0,-22.0,-1.0,-3.0,-4.0,0.025153398513793945
11,22.0,6.0,6.0,1.0,-11671.0,-10693.0,3045.0,-2937.0,-2.0,1.0,10.0,-4.0,-22.0,-1.0,-3.0,-4.0,0.02738022804260254
12,22.0,6.0,6.0,1.0,-11671.0,-10693.0,3045.0,-2937.0,-5.0,-8.0,39.0,11.0,9.0,15.0,9.0,-3.0,0.029256105422973633
13,22.0,6.0,6.0,1.0,-11671.0,-10693.0,3045.0,-2937.0,5.0,13.0,-3.0,-2.0,-12.0,-21.0,-3.0,2.0,0.031058073043823242
14,88.0,11.0,-10.0,1.0,-11658.0,-10709.0,3040.0,-2939.0,5.0,13.0,-3.0,-2.0,-12.0,-21.0,-3.0,2.0,0.03287768363952637
15,88.0,11.0,-10.0,1.0,-11658.0,-10709.0,3040.0,-2939.0,-4.0,-19.0,-5.0,4.0,-12.0,-6.0,7.0,-4.0,0.034787654876708984
16,88.0,11.0,-10.0,1.0,-11658.0,-10709.0,3040.0,-2939.0,0.0,-5.0,5.0,3.0,19.0,-7.0,13.0,-6.0,0.036618947982788086
17,95.0,16.0,-19.0,1.0,-11644.0,-10724.0,3035.0,-2942.0,0.0,-5.0,5.0,3.0,19.0,-7.0,13.0,-6.0,0.03841400146484375
18,95.0,16.0,-19.0,1.0,-11644.0,-10724.0,3035.0,-2942.0,-4.0,-12.0,-3.0,-6.0,-3.0,-6.0,-10.0,-3.0,0.04106283187866211
19,95.0,16.0,-19.0,1.0,-11644.0,-10724.0,3035.0,-2942.0,-1.0,11.0,-6.0,10.0,10.0,7.0,-5.0,0.0,0.042981624603271484
20,170.0,51.0,-20.0,1.0,-11622.0,-10750.0,3021.0,-2949.0,-1.0,11.0,-6.0,10.0,10.0,7.0,-5.0,0.0,0.044799089431762695
21,170.0,51.0,-20.0,1.0,-11622.0,-10750.0,3021.0,-2949.0,3.0,19.0,-4.0,-4.0,-7.0,-7.0,0.0,1.0,0.04666781425476074
22,170.0,51.0,-20.0,1.0,-11622.0,-10750.0,3021.0,-2949.0,4.0,3.0,3.0,-1.0,9.0,17.0,-31.0,6.0,0.04849410057067871
23,125.0,49.0,-60.0,1.0,-11608.0,-10770.0,3003.0,-2949.0,4.0,3.0,3.0,-1.0,9.0,17.0,-31.0,6.0,0.05027937889099121
24,125.0,49.0,-60.0,1.0,-11608.0,-10770.0,3003.0,-2949.0,3.0,23.0,28.0,-2.0,14.0,-2.0,-4.0,3.0,0.05245614051818848
25,125.0,49.0,-60.0,1.0,-11608.0,-10770.0,3003.0,-2949.0,0.0,3.0,16.0,6.0,8.0,11.0,0.0,-1.0,0.05506730079650879
26,72.0,52.0,-42.0,1.0,-11604.0,-10777.0,2989.0,-2953.0,0.0,3.0,16.0,6.0,8.0,11.0,0.0,-1.0,0.05864834785461426
27,72.0,52.0,-42.0,1.0,-11604.0,-10777.0,2989.0,-2953.0,-1.0,-6.0,4.0,-12.0,1.0,-9.0,-4.0,0.0,0.06064438819885254
28,72.0,52.0,-42.0,1.0,-11604.0,-10777.0,2989.0,-2953.0,-6.0,-5.0,9.0,-12.0,-48.0,-5.0,1.0,-5.0,0.062426090240478516
29,105.0,34.0,-26.0,1.0,-11594.0,-10790.0,2978.0,-2957.0,-6.0,-5.0,9.0,-12.0,-48.0,-5.0,1.0,-5.0,0.06438136100769043
30,105.0,34.0,-26.0,1.0,-11594.0,-10790.0,2978.0,-2957.0,-6.0,-8.0,-24.0,-1.0,-1.0,-10.0,3.0,3.0,0.06645488739013672
31,105.0,34.0,-26.0,1.0,-11594.0,-10790.0,2978.0,-2957.0,4.0,0.0,0.0,4.0,-13.0,-5.0,5.0,-1.0,0.0684366226196289
32,104.0,12.0,7.0,1.0,-11583.0,-10802.0,2971.0,-2961.0,4.0,0.0,0.0,4.0,-13.0,-5.0,5.0,-1.0,0.07063722610473633
33,104.0,12.0,7.0,1.0,-11583.0,-10802.0,2971.0,-2961.0,-1.0,-13.0,-19.0,3.0,6.0,7.0,-6.0,-3.0,0.07270646095275879
34,104.0,12.0,7.0,1.0,-11583.0,-10802.0,2971.0,-2961.0,3.0,0.0,-4.0,-1.0,-5.0,10.0,5.0,1.0,0.07447290420532227
35,46.0,-6.0,-8.0,1.0,-11578.0,-10808.0,2970.0,-2961.0,3.0,0.0,-4.0,-1.0,-5.0,10.0,5.0,1.0,0.07631349563598633
36,46.0,-6.0,-8.0,1.0,-11578.0,-10808.0,2970.0,-2961.0,-1.0,-3.0,-14.0,-3.0,-23.0,-8.0,-7.0,-2.0,0.07820391654968262
37,46.0,-6.0,-8.0,1.0,-11578.0,-10808.0,2970.0,-2961.0,-6.0,-5.0,13.0,1.0,16.0,-6.0,2.0,-3.0,0.08033251762390137
38,-15.0,-11.0,13.0,1.0,-11578.0,-10808.0,2969.0,-2961.0,-6.0,-5.0,13.0,1.0,16.0,-6.0,2.0,-3.0,0.08223509788513184
39,-15.0,-11.0,13.0,1.0,-11578.0,-10808.0,2969.0,-2961.0,2.0,1.0,-25.0,-6.0,-4.0,6.0,3.0,-2.0,0.08497881889343262
40,-15.0,-11.0,13.0,1.0,-11578.0,-10808.0,2969.0,-2961.0,-3.0,-14.0,5.0,1.0,4.0,0.0,-1.0,-3.0,0.08764529228210449
41,-66.0,4.0,45.0,1.0,-11584.0,-10799.0,2977.0,-2966.0,-3.0,-14.0,5.0,1.0,4.0,0.0,-1.0,-3.0,0.08958220481872559
42,-66.0,4.0,45.0,1.0,-11584.0,-10799.0,2977.0,-2966.0,-1.0,-3.0,-2.0,-5.0,-3.0,-11.0,-1.0,1.0,0.09253048896789551
43,-66.0,4.0,45.0,1.0,-11584.0,-10799.0,2977.0,-2966.0,-7.0,-15.0,-27.0,-5.0,0.0,-9.0,1.0,1.0,0.09438300132751465
44,-14.0,-15.0,59.0,1.0,-11582.0,-10796.0,2988.0,-2972.0,-7.0,-15.0,-27.0,-5.0,0.0,-9.0,1.0,1.0,0.0961768627166748
45,-14.0,-15.0,59.0,1.0,-11582.0,-10796.0,2988.0,-2972.0,7.0,9.0,-24.0,1.0,4.0,4.0,1.0,2.0,0.09802961349487305
46,-14.0,-15.0,59.0,1.0,-11582.0,-10796.0,2988.0,-2972.0,-3.0,0.0,-10.0,-6.0,-5.0,-11.0,-1.0,-3.0,0.09981727600097656
47,18.0,-11.0,50.0,1.0,-11576.0,-10801.0,2993.0,-2975.0,-3.0,0.0,-10.0,-6.0,-5.0,-11.0,-1.0,-3.0,0.1015925407409668
48,18.0,-11.0,50.0,1.0,-11576.0,-10801.0,2993.0,-2975.0,2.0,11.0,-21.0,-3.0,-12.0,-26.0,-3.0,0.0,0.10378789901733398
49,18.0,-11.0,50.0,1.0,-11576.0,-10801.0,2993.0,-2975.0,6.0,2.0,-7.0,-5.0,18.0,15.0,3.0,2.0,0.10559272766113281
50,-64.0,10.0,25.0,1.0,-11581.0,-10795.0,2995.0,-2974.0,6.0,2.0,-7.0,-5.0,18.0,15.0,3.0,2.0,0.10741209983825684
51,-64.0,10.0,25.0,1.0,-11581.0,-10795.0,2995.0,-2974.0,-6.0,-9.0,27.0,10.0,12.0,10.0,3.0,-2.0,0.10933136940002441
52,-64.0,10.0,25.0,1.0,-11581.0,-10795.0,2995.0,-2974.0,-2.0,-9.0,-24.0,3.0,4.0,-6.0,-2.0,-2.0,0.11119580268859863
53,-80.0,11.0,32.0,1.0,-11587.0,-10785.0,3002.0,-2978.0,-2.0,-9.0,-24.0,3.0,4.0,-6.0,-2.0,-2.0,0.1129918098449707
54,-80.0,11.0,32.0,1.0,-11587.0,-10785.0,3002.0,-2978.0,-1.0,0.0,7.0,0.0,-2.0,1.0,-2.0,-2.0,0.1160879135131836
55,-80.0,11.0,32.0,1.0,-11587.0,-10785.0,3002.0,-2978.0,5.0,15.0,-15.0,-7.0,25.0,7.0,-3.0,1.0,0.11840176582336426
56,2.0,8.0,40.0,1.0,-11583.0,-10786.0,3008.0,-2986.0,5.0,15.0,-15.0,-7.0,25.0,7.0,-3.0,1.0,0.12030911445617676
57,2.0,8.0,40.0,1.0,-11583.0,-10786.0,3008.0,-2986.0,-2.0,6.0,4.0,-8.0,2.0,-5.0,-1.0,1.0,0.12221956253051758
58,2.0,8.0,40.0,1.0,-11583.0,-10786.0,3008.0,-2986.0,-1.0,0.0,7.0,-2.0,-4.0,-4.0,-3.0,-2.0,0.12480831146240234
59,67.0,-9.0,44.0,1.0,-11570.0,-10797.0,3013.0,-2991.0,-1.0,0.0,7.0,-2.0,-4.0,-4.0,-3.0,-2.0,0.1266181468963623
60,67.0,-9.0,44.0,1.0,-11570.0,-10797.0,3013.0,-2991.0,-3.0,6.0,57.0,-8.0,-16.0,4.0,-2.0,0.0,0.12849688529968262
61,67.0,-9.0,44.0,1.0,-11570.0,-10797.0,3013.0,-2991.0,-1.0,-2.0,10.0,0.0,-3.0,2.0,4.0,2.0,0.13030505180358887
62,2.0,4.0,38.0,1.0,-11565.0,-10799.0,3017.0,-2995.0,-1.0,-2.0,10.0,0.0,-3.0,2.0,4.0,2.0,0.13212370872497559
63,2.0,4.0,38.0,1.0,-11565.0,-10799.0,3017.0,-2995.0,-2.0,-4.0,-16.0,9.0,13.0,6.0,-1.0,-4.0,0.13398027420043945
64,2.0,4.0,38.0,1.0,-11565.0,-10799.0,3017.0,-2995.0,6.0,25.0,24.0,0.0,-11.0,-6.0,-2.0,0.0,0.1359400749206543
65,-50.0,9.0,36.0,1.0,-11568.0,-10795.0,3023.0,-2999.0,6.0,25.0,24.0,0.0,-11.0,-6.0,-2.0,0.0,0.13779878616333008
66,-50.0,9.0,36.0,1.0,-11568.0,-10795.0,3023.0,-2999.0,1.0,17.0,40.0,-7.0,6.0,1.0,1.0,1.0,0.13971161842346191
67,-50.0,9.0,36.0,1.0,-11568.0,-10795.0,3023.0,-2999.0,-1.0,-10.0,0.0,8.0,-7.0,2.0,0.0,0.0,0.14151239395141602
68,7.0,21.0,33.0,1.0,-11565.0,-10795.0,3024.0,-3005.0,-1.0,-10.0,0.0,8.0,-7.0,2.0,0.0,0.0,0.14331412315368652
69,7.0,21.0,33.0,1.0,-11565.0,-10795.0,3024.0,-3005.0,-1.0,-11.0,-56.0,-5.0,-17.0,-2.0,0.0,1.0,0.1457207202911377
70,7.0,21.0,33.0,1.0,-11565.0,-10795.0,3024.0,-3005.0,3.0,17.0,19.0,-4.0,-15.0,1.0,-1.0,0.0,0.14860963821411133
71,52.0,13.0,41.0,1.0,-11555.0,-10803.0,3027.0,-3014.0,3.0,17.0,19.0,-4.0,-15.0,1.0,-1.0,0.0,0.150665283203125
72,52.0,13.0,41.0,1.0,-11555.0,-10803.0,3027.0,-3014.0,-1.0,-14.0,-4.0,6.0,8.0,0.0,-2.0,-1.0,0.15262508392333984
73,66.0,10.0,37.0,1.0,-11545.0,-10810.0,3029.0,-3022.0,-1.0,-14.0,-4.0,6.0,8.0,0.0,-2.0,-1.0,0.15442967414855957
74,66.0,10.0,37.0,1.0,-11545.0,-10810.0,3029.0,-3022.0,-1.0,-12.0,-29.0,3.0,-3.0,0.0,-4.0,-2.0,0.15679454803466797
75,66.0,10.0,37.0,1.0,-11545.0,-10810.0,3029.0,-3022.0,3.0,7.0,16.0,2.0,-13.0,6.0,1.0,1.0,0.1590116024017334
76,16.0,21.0,40.0,1.0,-11542.0,-10812.0,3030.0,-3029.0,3.0,7.0,16.0,2.0,-13.0,6.0,1.0,1.0,0.16082024574279785
77,16.0,21.0,40.0,1.0,-11542.0,-10812.0,3030.0,-3029.0,-6.0,-11.0,-4.0,3.0,33.0,-3.0,-1.0,-4.0,0.1627342700958252
78,16.0,21.0,40.0,1.0,-11542.0,-10812.0,3030.0,-3029.0,-14.0,-34.0,-28.0,-2.0,-32.0,-5.0,-1.0,-1.0,0.1645665168762207
79,-4.0,18.0,37.0,1.0,-11542.0,-10810.0,3030.0,-3034.0,-14.0,-34.0,-28.0,-2.0,-32.0,-5.0,-1.0,-1.0,0.1663811206817627
80,-4.0,18.0,37.0,1.0,-11542.0,-10810.0,3030.0,-3034.0,3.0,11.0,10.0,-6.0,-5.0,1.0,1.0,0.0,0.1683204174041748
81,-4.0,18.0,37.0,1.0,-11542.0,-10810.0,3030.0,-3034.0,-5.0,-11.0,10.0,0.0,4.0,2.0,0.0,-4.0,0.1703331470489502
82,-15.0,7.0,40.0,1.0,-11541.0,-10809.0,3033.0,-3038.0,-5.0,-11.0,10.0,0.0,4.0,2.0,0.0,-4.0,0.17217230796813965
83,-15.0,7.0,40.0,1.0,-11541.0,-10809.0,3033.0,-3038.0,-2.0,3.0,-24.0,-5.0,-2.0,-3.0,2.0,2.0,0.1740705966949463
84,-15.0,7.0,40.0,1.0,-11541.0,-10809.0,3033.0,-3038.0,7.0,7.0,-28.0,-3.0,-9.0,2.0,-1.0,-1.0,0.1763923168182373
85,-40.0,3.0,40.0,1.0,-11547.0,-10801.0,3037.0,-3041.0,7.0,7.0,-28.0,-3.0,-9.0,2.0,-1.0,-1.0,0.1791987419128418
86,-40.0,3.0,40.0,1.0,-11547.0,-10801.0,3037.0,-3041.0,0.0,-6.0,21.0,1.0,-41.0,-21.0,-8.0,-7.0,0.18140649795532227
87,-40.0,3.0,40.0,1.0,-11547.0,-10801.0,3037.0,-3041.0,-3.0,1.0,-22.0,-4.0,-9.0,3.0,-1.0,-1.0,0.1832425594329834
88,-39.0,19.0,42.0,1.0,-11549.0,-10797.0,3039.0,-3044.0,-3.0,1.0,-22.0,-4.0,-9.0,3.0,-1.0,-1.0,0.18507003784179688
89,-39.0,19.0,42.0,1.0,-11549.0,-10797.0,3039.0,-3044.0,-5.0,-8.0,-21.0,-11.0,-4.0,-3.0,4.0,3.0,0.18697190284729004
90,-39.0,19.0,42.0,1.0,-11549.0,-10797.0,3039.0,-3044.0,13.0,32.0,-15.0,7.0,15.0,8.0,4.0,2.0,0.18877267837524414
91,-40.0,22.0,43.0,1.0,-11552.0,-10792.0,3041.0,-3049.0,13.0,32.0,-15.0,7.0,15.0,8.0,4.0,2.0,0.19138479232788086
92,-40.0,22.0,43.0,1.0,-11552.0,-10792.0,3041.0,-3049.0,2.0,-8.0,7.0,-1.0,11.0,12.0,-1.0,-2.0,0.193342924118042
93,-40.0,22.0,43.0,1.0,-11552.0,-10792.0,3041.0,-3049.0,-5.0,-13.0,1.0,-6.0,11.0,-6.0,-5.0,-3.0,0.19515562057495117
94,-31.0,15.0,46.0,1.0,-11554.0,-10785.0,3047.0,-3057.0,-5.0,-13.0,1.0,-6.0,11.0,-6.0,-5.0,-3.0,0.196946382522583
95,-31.0,15.0,46.0,1.0,-11554.0,-10785.0,3047.0,-3057.0,-1.0,-5.0,2.0,9.0,21.0,5.0,1.0,-1.0,0.19883060455322266
96,-31.0,15.0,46.0,1.0,-11554.0,-10785.0,3047.0,-3057.0,2.0,8.0,25.0,-2.0,-17.0,-10.0,-3.0,1.0,0.20060253143310547
97,41.0,20.0,39.0,1.0,-11548.0,-10791.0,3046.0,-3063.0,2.0,8.0,25.0,-2.0,-17.0,-10.0,-3.0,1.0,0.2025468349456787
98,41.0,20.0,39.0,1.0,-11548.0,-10791.0,3046.0,-3063.0,-7.0,-10.0,5.0,-1.0,-3.0,-2.0,-2.0,-3.0,0.2044668197631836
99,41.0,20.0,39.0,1.0,-11548.0,-10791.0,3046.0,-3063.0,0.0,-6.0,17.0,10.0,8.0,-1.0,-1.0,-5.0,0.20668816566467285
100,-31.0,22.0,16.0,1.0,-11552.0,-10787.0,3044.0,-3065.0,0.0,-6.0,17.0,10.0,8.0,-1.0,-1.0,-5.0,0.20955872535705566
101,-31.0,22.0,16.0,1.0,-11552.0,-10787.0,3044.0,-3065.0,8.0,21.0,-17.0,-12.0,-8.0,4.0,-1.0,3.0,0.21182918548583984
102,-31.0,22.0,16.0,1.0,-11552.0,-10787.0,3044.0,-3065.0,-3.0,4.0,34.0,1.0,-3.0,-3.0,-1.0,0.0,0.21366572380065918
103,-28.0,29.0,4.0,1.0,-11555.0,-10782.0,3044.0,-3069.0,-3.0,4.0,34.0,1.0,-3.0,-3.0,-1.0,0.0,0.2154707908630371
104,-28.0,29.0,4.0,1.0,-11555.0,-10782.0,3044.0,-3069.0,-1.0,0.0,-12.0,-1.0,-2.0,1.0,1.0,0.0,0.21733975410461426
105,-28.0,29.0,4.0,1.0,-11555.0,-10782.0,3044.0,-3069.0,-2.0,-8.0,0.0,-2.0,6.0,-1.0,0.0,-2.0,0.21916437149047852
106,11.0,22.0,1.0,1.0,-11553.0,-10784.0,3041.0,-3072.0,-2.0,-8.0,0.0,-2.0,6.0,-1.0,0.0,-2.0,0.22097253799438477
107,11.0,22.0,1.0,1.0,-11553.0,-10784.0,3041.0,-3072.0,-5.0,-5.0,19.0,3.0,-49.0,-23.0,-4.0,-1.0,0.222914457321167
108,11.0,22.0,1.0,1.0,-11553.0,-10784.0,3041.0,-3072.0,-3.0,-8.0,3.0,2.0,13.0,7.0,0.0,0.0,0.22540497779846191
109,-1.0,18.0,-2.0,1.0,-11553.0,-10785.0,3037.0,-3072.0,-3.0,-8.0,3.0,2.0,13.0,7.0,0.0,0.0,0.22725439071655273
110,-1.0,18.0,-2.0,1.0,-11553.0,-10785.0,3037.0,-3072.0,6.0,33.0,72.0,-5.0,-7.0,-5.0,0.0,1.0,0.22916746139526367
111,-1.0,18.0,-2.0,1.0,-11553.0,-10785.0,3037.0,-3072.0,2.0,-2.0,-6.0,2.0,-1.0,-1.0,0.0,1.0,0.23096132278442383
112,-36.0,9.0,8.0,1.0,-11557.0,-10780.0,3039.0,-3074.0,2.0,-2.0,-6.0,2.0,-1.0,-1.0,0.0,1.0,0.23273539543151855
113,-36.0,9.0,8.0,1.0,-11557.0,-10780.0,3039.0,-3074.0,0.0,-1.0,-4.0,1.0,9.0,18.0,1.0,3.0,0.23458194732666016
114,-36.0,9.0,8.0,1.0,-11557.0,-10780.0,3039.0,-3074.0,-1.0,7.0,3.0,-7.0,15.0,-11.0,-6.0,-6.0,0.23654627799987793
115,-23.0,-5.0,11.0,1.0,-11559.0,-10777.0,3042.0,-3074.0,-1.0,7.0,3.0,-7.0,15.0,-11.0,-6.0,-6.0,0.23957300186157227
116,-23.0,-5.0,11.0,1.0,-11559.0,-10777.0,3042.0,-3074.0,1.0,-1.0,8.0,-4.0,-7.0,2.0,0.0,2.0,0.24196982383728027
117,-23.0,-5.0,11.0,1.0,-11559.0,-10777.0,3042.0,-3074.0,-2.0,-5.0,1.0,2.0,-15.0,-1.0,1.0,-1.0,0.24385881423950195
118,16.0,-11.0,5.0,1.0,-11555.0,-10782.0,3041.0,-3072.0,-2.0,-5.0,1.0,2.0,-15.0,-1.0,1.0,-1.0,0.24565577507019043
119,16.0,-11.0,5.0,1.0,-11555.0,-10782.0,3041.0,-3072.0,0.0,-2.0,5.0,12.0,28.0,2.0,-1.0,-2.0,0.2475423812866211
120,16.0,-11.0,5.0,1.0,-11555.0,-10782.0,3041.0,-3072.0,1.0,1.0,-2.0,-17.0,-12.0,-10.0,-1.0,1.0,0.24934053421020508
121,7.0,16.0,21.0,1.0,-11553.0,-10785.0,3039.0,-3073.0,1.0,1.0,-2.0,-17.0,-12.0,-10.0,-1.0,1.0,0.25115013122558594
122,7.0,16.0,21.0,1.0,-11553.0,-10785.0,3039.0,-3073.0,1.0,5.0,-33.0,-8.0,5.0,-3.0,3.0,-3.0,0.2530326843261719
123,7.0,16.0,21.0,1.0,-11553.0,-10785.0,3039.0,-3073.0,0.0,-4.0,-2.0,15.0,7.0,16.0,2.0,1.0,0.2548367977142334
124,-2.0,30.0,18.0,1.0,-11554.0,-10784.0,3035.0,-3076.0,0.0,-4.0,-2.0,15.0,7.0,16.0,2.0,1.0,0.2574012279510498
125,-2.0,30.0,18.0,1.0,-11554.0,-10784.0,3035.0,-3076.0,-6.0,-20.0,-38.0,2.0,9.0,-8.0,-4.0,-5.0,0.25937843322753906
126,-2.0,30.0,18.0,1.0,-11554.0,-10784.0,3035.0,-3076.0,-3.0,3.0,26.0,2.0,17.0,-1.0,0.0,-1.0,0.26117801666259766
127,2.0,28.0,17.0,1.0,-11554.0,-10784.0,3032.0,-3080.0,-3.0,3.0,26.0,2.0,17.0,-1.0,0.0,-1.0,0.2629868984222412
128,2.0,28.0,17.0,1.0,-11554.0,-10784.0,3032.0,-3080.0,1.0,-6.0,5.0,-4.0,-6.0,0.0,2.0,-1.0,0.26485705375671387
129,2.0,28.0,17.0,1.0,-11554.0,-10784.0,3032.0,-3080.0,0.0,-12.0,-62.0,3.0,7.0,-2.0,-3.0,-2.0,0.2667059898376465
130,3.0,25.0,12.0,1.0,-11554.0,-10783.0,3030.0,-3085.0,0.0,-12.0,-62.0,3.0,7.0,-2.0,-3.0,-2.0,0.2690916061401367
131,3.0,25.0,12.0,1.0,-11554.0,-10783.0,3030.0,-3085.0,-4.0,-19.0,-21.0,3.0,24.0,6.0,-3.0,0.0,0.27174973487854004
132,3.0,25.0,12.0,1.0,-11554.0,-10783.0,3030.0,-3085.0,1.0,-2.0,-18.0,-7.0,24.0,-1.0,3.0,0.0,0.2749960422515869
133,2.0,31.0,20.0,1.0,-11554.0,-10781.0,3028.0,-3091.0,1.0,-2.0,-18.0,-7.0,24.0,-1.0,3.0,0.0,0.2768387794494629
134,2.0,31.0,20.0,1.0,-11554.0,-10781.0,3028.0,-3091.0,-5.0,-8.0,-38.0,-1.0,3.0,5.0,-1.0,-4.0,0.2787008285522461
135,2.0,31.0,20.0,1.0,-11554.0,-10781.0,3028.0,-3091.0,1.0,11.0,42.0,1.0,10.0,8.0,-1.0,3.0,0.28049588203430176
136,-14.0,31.0,22.0,1.0,-11556.0,-10778.0,3026.0,-3096.0,1.0,11.0,42.0,1.0,10.0,8.0,-1.0,3.0,0.2822704315185547
137,-14.0,31.0,22.0,1.0,-11556.0,-10778.0,3026.0,-3096.0,2.0,4.0,-14.0,-13.0,-4.0,-5.0,-3.0,-1.0,0.2841305732727051
138,-14.0,31.0,22.0,1.0,-11556.0,-10778.0,3026.0,-3096.0,-4.0,-7.0,-1.0,5.0,-11.0,-7.0,-2.0,-3.0,0.28606152534484863
139,-26.0,30.0,16.0,1.0,-11559.0,-10774.0,3025.0,-3101.0,-4.0,-7.0,-1.0,5.0,-11.0,-7.0,-2.0,-3.0,0.2879180908203125
140,-26.0,30.0,16.0,1.0,-11559.0,-10774.0,3025.0,-3101.0,2.0,16.0,56.0,2.0,-11.0,0.0,0.0,2.0,0.2898111343383789
141,-26.0,30.0,16.0,1.0,-11559.0,-10774.0,3025.0,-3101.0,0.0,8.0,12.0,-8.0,2.0,3.0,-2.0,-4.0,0.291597843170166
142,-48.0,20.0,18.0,1.0,-11565.0,-10766.0,3026.0,-3104.0,0.0,8.0,12.0,-8.0,2.0,3.0,-2.0,-4.0,0.29337453842163086
143,-48.0,20.0,18.0,1.0,-11565.0,-10766.0,3026.0,-3104.0,-1.0,-7.0,-16.0,3.0,43.0,13.0,1.0,-1.0,0.2952747344970703
144,-48.0,20.0,18.0,1.0,-11565.0,-10766.0,3026.0,-3104.0,1.0,0.0,11.0,-6.0,-19.0,-8.0,-5.0,-5.0,0.2970545291900635
145,-47.0,13.0,36.0,1.0,-11571.0,-10759.0,3026.0,-3105.0,1.0,0.0,11.0,-6.0,-19.0,-8.0,-5.0,-5.0,0.2988467216491699
146,-47.0,13.0,36.0,1.0,-11571.0,-10759.0,3026.0,-3105.0,5.0,17.0,20.0,-6.0,-15.0,-1.0,1.0,0.0,0.3015413284301758
147,-47.0,13.0,36.0,1.0,-11571.0,-10759.0,3026.0,-3105.0,-5.0,-12.0,-12.0,0.0,14.0,16.0,1.0,0.0,0.3130042552947998
148,-61.0,30.0,33.0,1.0,-11579.0,-10750.0,3026.0,-3109.0,-5.0,-12.0,-12.0,0.0,14.0,16.0,1.0,0.0,0.31478166580200195
149,-61.0,30.0,33.0,1.0,-11579.0,-10750.0,3026.0,-3109.0,-1.0,-10.0,6.0,3.0,4.0,2.0,-1.0,-1.0,0.3202641010284424
150,-61.0,30.0,33.0,1.0,-11579.0,-10750.0,3026.0,-3109.0,-1.0,-2.0,-25.0,-4.0,-21.0,-27.0,-3.0,2.0,0.3273274898529053
151,-51.0,19.0,26.0,1.0,-11584.0,-10742.0,3029.0,-3113.0,-1.0,-2.0,-25.0,-4.0,-21.0,-27.0,-3.0,2.0,0.3365178108215332
152,-51.0,19.0,26.0,1.0,-11584.0,-10742.0,3029.0,-3113.0,-5.0,-8.0,11.0,9.0,20.0,-7.0,-1.0,-2.0,0.34079551696777344
153,-51.0,19.0,26.0,1.0,-11584.0,-10742.0,3029.0,-3113.0,6.0,7.0,-43.0,-8.0,-7.0,8.0,1.0,3.0,0.35056471824645996
154,-38.0,23.0,18.0,1.0,-11586.0,-10739.0,3030.0,-3116.0,6.0,7.0,-43.0,-8.0,-7.0,8.0,1.0,3.0,0.35263681411743164
155,-38.0,23.0,18.0,1.0,-11586.0,-10739.0,3030.0,-3116.0,2.0,14.0,-21.0,-11.0,-24.0,-5.0,-3.0,1.0,0.3573756217956543
156,-38.0,23.0,18.0,1.0,-11586.0,-10739.0,3030.0,-3116.0,-2.0,0.0,20.0,13.0,1.0,-3.0,1.0,0.0,0.3737664222717285
157,-39.0,20.0,20.0,1.0,-11590.0,-10734.0,3031.0,-3118.0,-2.0,0.0,20.0,13.0,1.0,-3.0,1.0,0.0,0.37665343284606934
158,-39.0,20.0,20.0,1.0,-11590.0,-10734.0,3031.0,-3118.0,-4.0,-6.0,-11.0,-8.0,-10.0,-6.0,-3.0,-4.0,0.3807258605957031
159,-39.0,20.0,20.0,1.0,-11590.0,-10734.0,3031.0,-3118.0,0.0,0.0,-2.0,7.0,-3.0,-2.0,-2.0,1.0,0.38808774948120117
160,-18.0,21.0,25.0,1.0,-11592.0,-10732.0,3030.0,-3121.0,0.0,0.0,-2.0,7.0,-3.0,-2.0,-2.0,1.0,0.4119279384613037
161,-18.0,21.0,25.0,1.0,-11592.0,-10732.0,3030.0,-3121.0,-3.0,-4.0,15.0,0.0,-28.0,-2.0,1.0,0.0,0.41378355026245117
162,-18.0,21.0,25.0,1.0,-11592.0,-10732.0,3030.0,-3121.0,-2.0,3.0,-13.0,-4.0,3.0,-6.0,-4.0,-6.0,0.4155850410461426
163,-8.0,18.0,20.0,1.0,-11592.0,-10733.0,3026.0,-3121.0,-2.0,3.0,-13.0,-4.0,3.0,-6.0,-4.0,-6.0,0.41736936569213867
164,-8.0,18.0,20.0,1.0,-11592.0,-10733.0,3026.0,-3121.0,-6.0,-8.0,-6.0,1.0,-11.0,-10.0,-3.0,-1.0,0.4194910526275635
165,-8.0,18.0,20.0,1.0,-11592.0,-10733.0,3026.0,-3121.0,4.0,23.0,31.0,2.0,1.0,8.0,2.0,3.0,0.43320417404174805
166,-49.0,25.0,23.0,1.0,-11598.0,-10726.0,3025.0,-3123.0,4.0,23.0,31.0,2.0,1.0,8.0,2.0,3.0,0.4351778030395508
167,-49.0,25.0,23.0,1.0,-11598.0,-10726.0,3025.0,-3123.0,1.0,2.0,8.0,3.0,4.0,-1.0,1.0,0.0,0.4416220188140869
168,-49.0,25.0,23.0,1.0,-11598.0,-10726.0,3025.0,-3123.0,1.0,13.0,55.0,6.0,4.0,4.0,3.0,3.0,0.4478790760040283
169,-3.0,3.0,19.0,1.0,-11597.0,-10725.0,3027.0,-3126.0,1.0,13.0,55.0,6.0,4.0,4.0,3.0,3.0,0.456143856048584
170,-3.0,3.0,19.0,1.0,-11597.0,-10725.0,3027.0,-3126.0,-4.0,-13.0,3.0,5.0,-28.0,-2.0,-4.0,2.0,0.45868802070617676
171,-3.0,3.0,19.0,1.0,-11597.0,-10725.0,3027.0,-3126.0,-3.0,-14.0,-33.0,-6.0,-3.0,11.0,1.0,-4.0,0.47038769721984863
172,21.0,-5.0,35.0,1.0,-11592.0,-10729.0,3030.0,-3128.0,-3.0,-14.0,-33.0,-6.0,-3.0,11.0,1.0,-4.0,0.47396230697631836
173,21.0,-5.0,35.0,1.0,-11592.0,-10729.0,3030.0,-3128.0,1.0,-7.0,-24.0,0.0,22.0,-17.0,-5.0,-4.0,0.4771544933319092
174,21.0,-5.0,35.0,1.0,-11592.0,-10729.0,3030.0,-3128.0,-5.0,-22.0,-19.0,-12.0,-12.0,-9.0,-2.0,1.0,0.49440836906433105
175,-28.0,1.0,29.0,1.0,-11591.0,-10729.0,3034.0,-3129.0,-5.0,-22.0,-19.0,-12.0,-12.0,-9.0,-2.0,1.0,0.4978053569793701
176,-28.0,1.0,29.0,1.0,-11591.0,-10729.0,3034.0,-3129.0,1.0,2.0,-43.0,3.0,5.0,9.0,0.0,-1.0,0.5007443428039551
177,-28.0,1.0,29.0,1.0,-11591.0,-10729.0,3034.0,-3129.0,-10.0,-14.0,2.0,-3.0,2.0,-2.0,-2.0,-3.0,0.5074589252471924
178,-34.0,-15.0,28.0,1.0,-11594.0,-10724.0,3041.0,-3131.0,-10.0,-14.0,2.0,-3.0,2.0,-2.0,-2.0,-3.0,0.5161879062652588
179,-34.0,-15.0,28.0,1.0,-11594.0,-10724.0,3041.0,-3131.0,8.0,18.0,13.0,3.0,1.0,-1.0,2.0,2.0,0.5204598903656006
180,-34.0,-15.0,28.0,1.0,-11594.0,-10724.0,3041.0,-3131.0,-6.0,-30.0,-73.0,-3.0,-15.0,2.0,-2.0,-2.0,0.530400276184082
181,56.0,-23.0,23.0,1.0,-11583.0,-10734.0,3044.0,-3131.0,-6.0,-30.0,-73.0,-3.0,-15.0,2.0,-2.0,-2.0,0.5321877002716064
182,56.0,-23.0,23.0,1.0,-11583.0,-10734.0,3044.0,-3131.0,-4.0,-15.0,-11.0,0.0,1.0,-9.0,-2.0,-1.0,0.5378890037536621
183,56.0,-23.0,23.0,1.0,-11583.0,-10734.0,3044.0,-3131.0,0.0,-6.0,-8.0,-1.0,3.0,-7.0,0.0,1.0,0.5541512966156006
184,2.0,-40.0,40.0,1.0,-11577.0,-10740.0,3051.0,-3127.0,0.0,-6.0,-8.0,-1.0,3.0,-7.0,0.0,1.0,0.5582418441772461
185,2.0,-40.0,40.0,1.0,-11577.0,-10740.0,3051.0,-3127.0,-2.0,-5.0,3.0,-1.0,-6.0,5.0,0.0,0.0,0.5619471073150635
186,2.0,-40.0,40.0,1.0,-11577.0,-10740.0,3051.0,-3127.0,-4.0,-9.0,-13.0,10.0,-6.0,-5.0,-6.0,-5.0,0.578465461730957
187,-38.0,-42.0,23.0,1.0,-11576.0,-10739.0,3061.0,-3123.0,-4.0,-9.0,-13.0,10.0,-6.0,-5.0,-6.0,-5.0,0.583575963973999
188,-38.0,-42.0,23.0,1.0,-11576.0,-10739.0,3061.0,-3123.0,4.0,15.0,7.0,-5.0,-12.0,-1.0,1.0,-1.0,0.587493896484375
189,-38.0,-42.0,23.0,1.0,-11576.0,-10739.0,3061.0,-3123.0,0.0,3.0,-33.0,-8.0,-2.0,-2.0,3.0,-3.0,0.5908470153808594
190,1.0,-33.0,16.0,1.0,-11572.0,-10742.0,3067.0,-3121.0,0.0,3.0,-33.0,-8.0,-2.0,-2.0,3.0,-3.0,0.5927610397338867
191,1.0,-33.0,16.0,1.0,-11572.0,-10742.0,3067.0,-3121.0,-9.0,-11.0,-2.0,5.0,7.0,7.0,1.0,0.0,0.5974838733673096
192,1.0,-33.0,16.0,1.0,-11572.0,-10742.0,3067.0,-3121.0,6.0,5.0,16.0,-3.0,4.0,2.0,-1.0,2.0,0.6135203838348389
193,-5.0,-34.0,17.0,1.0,-11571.0,-10744.0,3072.0,-3116.0,6.0,5.0,16.0,-3.0,4.0,2.0,-1.0,2.0,0.6158037185668945
194,-5.0,-34.0,17.0,1.0,-11571.0,-10744.0,3072.0,-3116.0,-2.0,-10.0,24.0,-1.0,-29.0,-20.0,0.0,-2.0,0.6208398342132568
195,-5.0,-34.0,17.0,1.0,-11571.0,-10744.0,3072.0,-3116.0,0.0,1.0,11.0,12.0,-13.0,1.0,0.0,0.0,0.6374192237854004
196,4.0,-15.0,32.0,1.0,-11568.0,-10745.0,3076.0,-3117.0,0.0,1.0,11.0,12.0,-13.0,1.0,0.0,0.0,0.6421852111816406
197,4.0,-15.0,32.0,1.0,-11568.0,-10745.0,3076.0,-3117.0,-1.0,-1.0,13.0,6.0,35.0,6.0,0.0,-1.0,0.6468374729156494
198,4.0,-15.0,32.0,1.0,-11568.0,-10745.0,3076.0,-3117.0,-5.0,-12.0,23.0,5.0,12.0,2.0,-1.0,-4.0,0.6504764556884766
199,18.0,-27.0,30.0,1.0,-11562.0,-10750.0,3082.0,-3117.0,-5.0,-12.0,23.0,5.0,12.0,2.0,-1.0,-4.0,0.6523196697235107
200,18.0,-27.0,30.0,1.0,-11562.0,-10750.0,3082.0,-3117.0,2.0,1.0,-15.0,-1.0,1.0,11.0,1.0,0.0,0.6583008766174316
201,18.0,-27.0,30.0,1.0,-11562.0,-10750.0,3082.0,-3117.0,1.0,13.0,17.0,1.0,31.0,0.0,-1.0,4.0,0.676072359085083
202,15.0,-32.0,22.0,1.0,-11556.0,-10755.0,3089.0,-3116.0,1.0,13.0,17.0,1.0,31.0,0.0,-1.0,4.0,0.6796393394470215
203,15.0,-32.0,22.0,1.0,-11556.0,-10755.0,3089.0,-3116.0,1.0,0.0,6.0,-6.0,-11.0,-1.0,-1.0,-2.0,0.6874773502349854
204,15.0,-32.0,22.0,1.0,-11556.0,-10755.0,3089.0,-3116.0,5.0,12.0,49.0,-3.0,-9.0,5.0,0.0,-3.0,0.6964104175567627
205,31.0,-24.0,9.0,1.0,-11552.0,-10759.0,3092.0,-3116.0,5.0,12.0,49.0,-3.0,-9.0,5.0,0.0,-3.0,0.6982312202453613
206,31.0,-24.0,9.0,1.0,-11552.0,-10759.0,3092.0,-3116.0,-3.0,-2.0,-14.0,-9.0,-36.0,7.0,-1.0,-1.0,0.700127363204956
207,31.0,-24.0,9.0,1.0,-11552.0,-10759.0,3092.0,-3116.0,0.0,13.0,16.0,-7.0,-2.0,-21.0,-2.0,1.0,0.7105050086975098
208,44.0,-24.0,10.0,1.0,-11546.0,-10763.0,3096.0,-3117.0,0.0,13.0,16.0,-7.0,-2.0,-21.0,-2.0,1.0,0.7123303413391113
209,44.0,-24.0,10.0,1.0,-11546.0,-10763.0,3096.0,-3117.0,0.0,-3.0,7.0,-1.0,-1.0,-7.0,-3.0,2.0,0.7176041603088379
210,44.0,-24.0,10.0,1.0,-11546.0,-10763.0,3096.0,-3117.0,-6.0,-11.0,-14.0,3.0,-10.0,-16.0,-4.0,-3.0,0.7336289882659912
211,78.0,7.0,-1.0,1.0,-11536.0,-10774.0,3093.0,-3121.0,-6.0,-11.0,-14.0,3.0,-10.0,-16.0,-4.0,-3.0,0.7368905544281006
212,78.0,7.0,-1.0,1.0,-11536.0,-10774.0,3093.0,-3121.0,0.0,2.0,39.0,2.0,31.0,18.0,-4.0,-4.0,0.7411179542541504
213,78.0,7.0,-1.0,1.0,-11536.0,-10774.0,3093.0,-3121.0,-4.0,-13.0,-37.0,-13.0,1.0,15.0,-1.0,0.0,0.7658815383911133
214,67.0,39.0,31.0,1.0,-11528.0,-10782.0,3087.0,-3129.0,-4.0,-13.0,-37.0,-13.0,1.0,15.0,-1.0,0.0,0.769603967666626
215,67.0,39.0,31.0,1.0,-11528.0,-10782.0,3087.0,-3129.0,2.0,5.0,-6.0,-1.0,-35.0,-21.0,-2.0,0.0,0.773043155670166
216,67.0,39.0,31.0,1.0,-11528.0,-10782.0,3087.0,-3129.0,6.0,14.0,62.0,8.0,-7.0,21.0,5.0,3.0,0.7760064601898193
217,21.0,49.0,41.0,1.0,-11529.0,-10778.0,3084.0,-3142.0,6.0,14.0,62.0,8.0,-7.0,21.0,5.0,3.0,0.7778198719024658
218,21.0,49.0,41.0,1.0,-11529.0,-10778.0,3084.0,-3142.0,-9.0,-12.0,1.0,-15.0,23.0,10.0,-3.0,-2.0,0.7797095775604248
219,21.0,49.0,41.0,1.0,-11529.0,-10778.0,3084.0,-3142.0,1.0,-4.0,4.0,-4.0,-22.0,1.0,0.0,4.0,0.7930777072906494
220,25.0,-1.0,18.0,1.0,-11534.0,-10769.0,3086.0,-3151.0,1.0,-4.0,4.0,-4.0,-22.0,1.0,0.0,4.0,0.7959096431732178
221,25.0,-1.0,18.0,1.0,-11534.0,-10769.0,3086.0,-3151.0,9.0,32.0,33.0,-28.0,34.0,29.0,7.0,5.0,0.7999827861785889
222,25.0,-1.0,18.0,1.0,-11534.0,-10769.0,3086.0,-3151.0,1.0,-2.0,-6.0,-29.0,-10.0,-5.0,-1.0,3.0,0.8161301612854004
223,172.0,16.0,-22.0,1.0,-11530.0,-10776.0,3070.0,-3159.0,1.0,-2.0,-6.0,-29.0,-10.0,-5.0,-1.0,3.0,0.817948579788208
224,172.0,16.0,-22.0,1.0,-11530.0,-10776.0,3070.0,-3159.0,-11.0,-16.0,-33.0,-15.0,19.0,-5.0,-7.0,-8.0,0.8202455043792725
225,172.0,16.0,-22.0,1.0,-11530.0,-10776.0,3070.0,-3159.0,-5.0,3.0,-8.0,4.0,39.0,-3.0,-2.0,-7.0,0.8306078910827637
226,198.0,89.0,-88.0,1.0,-11533.0,-10781.0,3033.0,-3168.0,-5.0,3.0,-8.0,4.0,39.0,-3.0,-2.0,-7.0,0.8324496746063232
227,198.0,89.0,-88.0,1.0,-11533.0,-10781.0,3033.0,-3168.0,1.0,5.0,-10.0,16.0,12.0,5.0,-6.0,0.0,0.8376796245574951
228,198.0,89.0,-88.0,1.0,-11533.0,-10781.0,3033.0,-3168.0,-6.0,-31.0,-11.0,97.0,10.0,-32.0,-6.0,-7.0,0.8531804084777832
229,72.0,105.0,-96.0,1.0,-11560.0,-10765.0,2984.0,-3165.0,-6.0,-31.0,-11.0,97.0,10.0,-32.0,-6.0,-7.0,0.8550066947937012
230,72.0,105.0,-96.0,1.0,-11560.0,-10765.0,2984.0,-3165.0,-10.0,-34.0,-76.0,-83.0,-61.0,1.0,7.0,0.0,0.8603599071502686
231,72.0,105.0,-96.0,1.0,-11560.0,-10765.0,2984.0,-3165.0,4.0,4.0,-41.0,-66.0,-8.0,46.0,1.0,-11.0,0.8773431777954102
232,-182.0,140.0,-122.0,1.0,-11638.0,-10704.0,2922.0,-3149.0,4.0,4.0,-41.0,-66.0,-8.0,46.0,1.0,-11.0,0.8807597160339355
233,-182.0,140.0,-122.0,1.0,-11638.0,-10704.0,2922.0,-3149.0,12.0,15.0,-75.0,20.0,-28.0,-1.0,44.0,20.0,0.88405442237854
234,-182.0,140.0,-122.0,1.0,-11638.0,-10704.0,2922.0,-3149.0,-2.0,14.0,10.0,44.0,-35.0,-39.0,31.0,-42.0,0.8920161724090576
235,-570.0,181.0,-243.0,1.0,-11770.0,-10588.0,2853.0,-3112.0,-2.0,14.0,10.0,44.0,-35.0,-39.0,31.0,-42.0,0.8938701152801514
236,-570.0,181.0,-243.0,1.0,-11770.0,-10588.0,2853.0,-3112.0,-2.0,-21.0,3.0,13.0,34.0,30.0,-24.0,-11.0,0.8975951671600342
237,-570.0,181.0,-243.0,1.0,-11770.0,-10588.0,2853.0,-3112.0,-1.0,-3.0,-30.0,42.0,10.0,-21.0,34.0,28.0,0.9141690731048584
238,-958.0,387.0,-310.0,1.0,-11958.0,-10409.0,2763.0,-3081.0,-1.0,-3.0,-30.0,42.0,10.0,-21.0,34.0,28.0,0.9176068305969238
239,-958.0,387.0,-310.0,1.0,-11958.0,-10409.0,2763.0,-3081.0,-3.0,-4.0,36.0,36.0,-19.0,1.0,-37.0,-10.0,0.9225854873657227
240,-958.0,387.0,-310.0,1.0,-11958.0,-10409.0,2763.0,-3081.0,-5.0,-19.0,81.0,66.0,15.0,-5.0,7.0,8.0,0.9361348152160645
241,-1101.0,540.0,-467.0,1.0,-12163.0,-10211.0,2644.0,-3044.0,-5.0,-19.0,81.0,66.0,15.0,-5.0,7.0,8.0,0.9391541481018066
242,-1101.0,540.0,-467.0,1.0,-12163.0,-10211.0,2644.0,-3044.0,8.0,25.0,91.0,124.0,-30.0,-17.0,84.0,14.0,0.943260908126831
243,-1101.0,540.0,-467.0,1.0,-12163.0,-10211.0,2644.0,-3044.0,2.0,13.0,43.0,-22.0,-18.0,14.0,-21.0,2.0,0.9521305561065674
244,-1246.0,623.0,-763.0,1.0,-12387.0,-10001.0,2485.0,-2970.0,2.0,13.0,43.0,-22.0,-18.0,14.0,-21.0,2.0,0.9542021751403809
245,-1246.0,623.0,-763.0,1.0,-12387.0,-10001.0,2485.0,-2970.0,-7.0,-25.0,-52.0,32.0,-49.0,-12.0,-24.0,-8.0,0.9579238891601562
246,-1246.0,623.0,-763.0,1.0,-12387.0,-10001.0,2485.0,-2970.0,8.0,28.0,46.0,21.0,-25.0,-44.0,-11.0,4.0,0.9731473922729492
247,-1629.0,757.0,-1011.0,1.0,-12626.0,-9769.0,2316.0,-2869.0,8.0,28.0,46.0,21.0,-25.0,-44.0,-11.0,4.0,0.9749612808227539
248,-1629.0,757.0,-1011.0,1.0,-12626.0,-9769.0,2316.0,-2869.0,-1.0,-4.0,-38.0,-78.0,93.0,-1.0,-17.0,-4.0,0.9804348945617676
249,-1629.0,757.0,-1011.0,1.0,-12626.0,-9769.0,2316.0,-2869.0,-10.0,-21.0,27.0,-37.0,103.0,40.0,-3.0,5.0,0.9957125186920166
250,-2042.0,1027.0,-1044.0,1.0,-12910.0,-9465.0,2115.0,-2779.0,-10.0,-21.0,27.0,-37.0,103.0,40.0,-3.0,5.0,0.9974873065948486
251,-2042.0,1027.0,-1044.0,1.0,-12910.0,-9465.0,2115.0,-2779.0,2.0,5.0,-66.0,-31.0,127.0,-9.0,13.0,7.0,1.0034289360046387
252,-2042.0,1027.0,-1044.0,1.0,-12910.0,-9465.0,2115.0,-2779.0,15.0,44.0,-58.0,-34.0,108.0,-3.0,-17.0,-4.0,1.0120534896850586
253,-2322.0,1272.0,-1065.0,1.0,-13214.0,-9111.0,1885.0,-2701.0,15.0,44.0,-58.0,-34.0,108.0,-3.0,-17.0,-4.0,1.0145251750946045
254,-2322.0,1272.0,-1065.0,1.0,-13214.0,-9111.0,1885.0,-2701.0,4.0,38.0,17.0,22.0,65.0,-4.0,-5.0,-2.0,1.0166473388671875
255,-2322.0,1272.0,-1065.0,1.0,-13214.0,-9111.0,1885.0,-2701.0,16.0,68.0,67.0,43.0,6.0,-6.0,-3.0,9.0,1.0329055786132812
256,-2686.0,1420.0,-1221.0,1.0,-13541.0,-8696.0,1635.0,-2609.0,16.0,68.0,67.0,43.0,6.0,-6.0,-3.0,9.0,1.0346782207489014
257,-2686.0,1420.0,-1221.0,1.0,-13541.0,-8696.0,1635.0,-2609.0,-6.0,-10.0,-17.0,-89.0,-73.0,-6.0,-23.0,-4.0,1.0400440692901611
258,-2686.0,1420.0,-1221.0,1.0,-13541.0,-8696.0,1635.0,-2609.0,-17.0,-45.0,-58.0,-14.0,-11.0,39.0,-3.0,-4.0,1.0565664768218994
259,-2800.0,1604.0,-1484.0,1.0,-13862.0,-8264.0,1340.0,-2492.0,-17.0,-45.0,-58.0,-14.0,-11.0,39.0,-3.0,-4.0,1.0590996742248535
260,-2800.0,1604.0,-1484.0,1.0,-13862.0,-8264.0,1340.0,-2492.0,-9.0,-18.0,31.0,46.0,15.0,-7.0,-8.0,-9.0,1.0623149871826172
261,-2800.0,1604.0,-1484.0,1.0,-13862.0,-8264.0,1340.0,-2492.0,0.0,-9.0,3.0,-30.0,-27.0,47.0,23.0,7.0,1.071751594543457
262,-3253.0,1888.0,-1674.0,1.0,-14204.0,-7755.0,995.0,-2358.0,0.0,-9.0,3.0,-30.0,-27.0,47.0,23.0,7.0,1.0752265453338623
263,-3253.0,1888.0,-1674.0,1.0,-14204.0,-7755.0,995.0,-2358.0,0.0,-11.0,12.0,-10.0,-5.0,-9.0,0.0,-1.0,1.0776326656341553
264,-3253.0,1888.0,-1674.0,1.0,-14204.0,-7755.0,995.0,-2358.0,3.0,24.0,46.0,-6.0,-106.0,-9.0,-21.0,3.0,1.0930581092834473
265,-3962.0,2254.0,-1709.0,1.0,-14575.0,-7116.0,612.0,-2240.0,3.0,24.0,46.0,-6.0,-106.0,-9.0,-21.0,3.0,1.094935655593872
266,-3962.0,2254.0,-1709.0,1.0,-14575.0,-7116.0,612.0,-2240.0,-9.0,-20.0,-11.0,39.0,25.0,-18.0,-4.0,-3.0,1.109848976135254
267,-3962.0,2254.0,-1709.0,1.0,-14575.0,-7116.0,612.0,-2240.0,-5.0,-27.0,4.0,-11.0,106.0,-13.0,-8.0,-4.0,1.117159128189087
268,-4436.0,2505.0,-1672.0,1.0,-14939.0,-6376.0,210.0,-2141.0,-5.0,-27.0,4.0,-11.0,106.0,-13.0,-8.0,-4.0,1.1203391551971436
269,-4436.0,2505.0,-1672.0,1.0,-14939.0,-6376.0,210.0,-2141.0,5.0,37.0,13.0,8.0,28.0,3.0,-10.0,3.0,1.1222355365753174
270,-4436.0,2505.0,-1672.0,1.0,-14939.0,-6376.0,210.0,-2141.0,-2.0,-14.0,-4.0,-15.0,-7.0,-6.0,-1.0,-7.0,1.1304988861083984
271,-4718.0,2840.0,-1560.0,1.0,-15267.0,-5567.0,-223.0,-2078.0,-2.0,-14.0,-4.0,-15.0,-7.0,-6.0,-1.0,-7.0,1.1323106288909912
272,-4718.0,2840.0,-1560.0,1.0,-15267.0,-5567.0,-223.0,-2078.0,12.0,22.0,87.0,27.0,7.0,-6.0,-2.0,14.0,1.1449651718139648
273,-4718.0,2840.0,-1560.0,1.0,-15267.0,-5567.0,-223.0,-2078.0,6.0,17.0,-35.0,5.0,3.0,-50.0,-12.0,-2.0,1.1540095806121826
274,-4726.0,3238.0,-1554.0,1.0,-15535.0,-4741.0,-715.0,-2034.0,6.0,17.0,-35.0,5.0,3.0,-50.0,-12.0,-2.0,1.1570160388946533
275,-4726.0,3238.0,-1554.0,1.0,-15535.0,-4741.0,-715.0,-2034.0,4.0,2.0,21.0,6.0,-8.0,34.0,7.0,16.0,1.1594982147216797
276,-4726.0,3238.0,-1554.0,1.0,-15535.0,-4741.0,-715.0,-2034.0,-5.0,-4.0,-38.0,-8.0,9.0,-7.0,-6.0,-11.0,1.1854331493377686
277,-4714.0,3612.0,-1759.0,1.0,-15740.0,-3899.0,-1278.0,-1966.0,-5.0,-4.0,-38.0,-8.0,9.0,-7.0,-6.0,-11.0,1.189544439315796
278,-4714.0,3612.0,-1759.0,1.0,-15740.0,-3899.0,-1278.0,-1966.0,2.0,-8.0,9.0,-25.0,-11.0,-11.0,0.0,10.0,1.1937577724456787
279,-4714.0,3612.0,-1759.0,1.0,-15740.0,-3899.0,-1278.0,-1966.0,-5.0,-16.0,22.0,-5.0,9.0,16.0,-1.0,-4.0,1.1978416442871094
280,-4616.0,4087.0,-2142.0,1.0,-15877.0,-3036.0,-1937.0,-1843.0,-5.0,-16.0,22.0,-5.0,9.0,16.0,-1.0,-4.0,1.2002766132354736
281,-4616.0,4087.0,-2142.0,1.0,-15877.0,-3036.0,-1937.0,-1843.0,-4.0,-13.0,-66.0,-6.0,-11.0,5.0,-9.0,-9.0,1.202218770980835
282,-4616.0,4087.0,-2142.0,1.0,-15877.0,-3036.0,-1937.0,-1843.0,-2.0,-3.0,-5.0,-9.0,-13.0,-3.0,2.0,0.0,1.2130086421966553
283,-3950.0,4508.0,-2374.0,1.0,-15919.0,-2242.0,-2688.0,-1670.0,-2.0,-3.0,-5.0,-9.0,-13.0,-3.0,2.0,0.0,1.214841365814209
284,-3950.0,4508.0,-2374.0,1.0,-15919.0,-2242.0,-2688.0,-1670.0,-12.0,-38.0,-36.0,-21.0,-6.0,-4.0,8.0,-9.0,1.2205009460449219
285,-3950.0,4508.0,-2374.0,1.0,-15919.0,-2242.0,-2688.0,-1670.0,8.0,10.0,-20.0,-18.0,3.0,11.0,9.0,14.0,1.2360150814056396
286,-3171.0,4819.0,-2545.0,1.0,-15863.0,-1565.0,-3504.0,-1446.0,8.0,10.0,-20.0,-18.0,3.0,11.0,9.0,14.0,1.239288091659546
287,-3171.0,4819.0,-2545.0,1.0,-15863.0,-1565.0,-3504.0,-1446.0,-5.0,6.0,15.0,10.0,51.0,14.0,2.0,-8.0,1.2434265613555908
288,-3171.0,4819.0,-2545.0,1.0,-15863.0,-1565.0,-3504.0,-1446.0,-4.0,-21.0,-33.0,1.0,-16.0,6.0,-4.0,1.0,1.2508196830749512
289,-2930.0,4999.0,-2967.0,1.0,-15730.0,-907.0,-4348.0,-1140.0,-4.0,-21.0,-33.0,1.0,-16.0,6.0,-4.0,1.0,1.2585687637329102
290,-2930.0,4999.0,-2967.0,1.0,-15730.0,-907.0,-4348.0,-1140.0,1.0,13.0,-12.0,-11.0,-17.0,-18.0,-7.0,-21.0,1.2610468864440918
291,-2930.0,4999.0,-2967.0,1.0,-15730.0,-907.0,-4348.0,-1140.0,-1.0,-18.0,-96.0,-18.0,-4.0,-8.0,-14.0,-9.0,1.2734355926513672
292,-2952.0,5396.0,-3333.0,1.0,-15502.0,-201.0,-5246.0,-768.0,-1.0,-18.0,-96.0,-18.0,-4.0,-8.0,-14.0,-9.0,1.2761147022247314
293,-2952.0,5396.0,-3333.0,1.0,-15502.0,-201.0,-5246.0,-768.0,3.0,14.0,39.0,22.0,-6.0,-13.0,-3.0,5.0,1.280806541442871
294,-2952.0,5396.0,-3333.0,1.0,-15502.0,-201.0,-5246.0,-768.0,-8.0,-13.0,18.0,-8.0,5.0,-40.0,-1.0,-5.0,1.2965068817138672
295,-2651.0,5741.0,-3245.0,1.0,-15161.0,481.0,-6183.0,-382.0,-8.0,-13.0,18.0,-8.0,5.0,-40.0,-1.0,-5.0,1.2996785640716553
296,-2651.0,5741.0,-3245.0,1.0,-15161.0,481.0,-6183.0,-382.0,-19.0,-47.0,-79.0,-9.0,-31.0,-1.0,-2.0,-4.0,1.3118183612823486
297,-2651.0,5741.0,-3245.0,1.0,-15161.0,481.0,-6183.0,-382.0,3.0,3.0,-20.0,13.0,-29.0,-22.0,-4.0,11.0,1.3137950897216797
298,-1366.0,5735.0,-3447.0,1.0,-14729.0,986.0,-7108.0,137.0,3.0,3.0,-20.0,13.0,-29.0,-22.0,-4.0,11.0,1.3189976215362549
299,-1366.0,5735.0,-3447.0,1.0,-14729.0,986.0,-7108.0,137.0,-2.0,12.0,47.0,-10.0,-18.0,-41.0,5.0,-7.0,1.321685791015625
300,-1366.0,5735.0,-3447.0,1.0,-14729.0,986.0,-7108.0,137.0,0.0,9.0,32.0,-1.0,15.0,-6.0,-2.0,0.0,1.3330600261688232
301,47.0,5158.0,-3810.0,1.0,-14289.0,1263.0,-7877.0,806.0,0.0,9.0,32.0,-1.0,15.0,-6.0,-2.0,0.0,1.3353173732757568
302,47.0,5158.0,-3810.0,1.0,-14289.0,1263.0,-7877.0,806.0,5.0,2.0,-11.0,-2.0,20.0,-11.0,-3.0,2.0,1.3407790660858154
303,47.0,5158.0,-3810.0,1.0,-14289.0,1263.0,-7877.0,806.0,0.0,14.0,-13.0,-16.0,13.0,-21.0,-5.0,0.0,1.3582768440246582
304,755.0,4239.0,-3810.0,1.0,-13874.0,1432.0,-8461.0,1520.0,0.0,14.0,-13.0,-16.0,13.0,-21.0,-5.0,0.0,1.3625688552856445
305,755.0,4239.0,-3810.0,1.0,-13874.0,1432.0,-8461.0,1520.0,0.0,6.0,10.0,-1.0,8.0,31.0,-3.0,-3.0,1.365480661392212
306,755.0,4239.0,-3810.0,1.0,-13874.0,1432.0,-8461.0,1520.0,5.0,3.0,-17.0,47.0,26.0,57.0,-13.0,2.0,1.3793487548828125
307,853.0,3054.0,-3517.0,1.0,-13529.0,1575.0,-8843.0,2176.0,5.0,3.0,-17.0,47.0,26.0,57.0,-13.0,2.0,1.3837742805480957
308,853.0,3054.0,-3517.0,1.0,-13529.0,1575.0,-8843.0,2176.0,6.0,10.0,7.0,1.0,-49.0,-24.0,-2.0,4.0,1.3873131275177002
309,853.0,3054.0,-3517.0,1.0,-13529.0,1575.0,-8843.0,2176.0,1.0,26.0,68.0,4.0,-10.0,32.0,7.0,-2.0,1.3934593200683594
310,584.0,1644.0,-3046.0,1.0,-13299.0,1742.0,-9013.0,2708.0,1.0,26.0,68.0,4.0,-10.0,32.0,7.0,-2.0,1.3952734470367432
311,584.0,1644.0,-3046.0,1.0,-13299.0,1742.0,-9013.0,2708.0,1.0,-3.0,11.0,5.0,-25.0,-11.0,-7.0,-1.0,1.3998041152954102
312,584.0,1644.0,-3046.0,1.0,-13299.0,1742.0,-9013.0,2708.0,-6.0,-29.0,-80.0,-37.0,-10.0,53.0,4.0,0.0,1.416921854019165
313,662.0,648.0,-2133.0,1.0,-13180.0,1836.0,-9044.0,3094.0,-6.0,-29.0,-80.0,-37.0,-10.0,53.0,4.0,0.0,1.4201931953430176
314,662.0,648.0,-2133.0,1.0,-13180.0,1836.0,-9044.0,3094.0,4.0,11.0,1.0,-1.0,21.0,2.0,-1.0,0.0,1.4246971607208252
315,662.0,648.0,-2133.0,1.0,-13180.0,1836.0,-9044.0,3094.0,0.0,-8.0,16.0,0.0,36.0,-30.0,-11.0,-4.0,1.4300894737243652
316,570.0,103.0,-507.0,1.0,-13164.0,1801.0,-9029.0,3225.0,0.0,-8.0,16.0,0.0,36.0,-30.0,-11.0,-4.0,1.4384360313415527
317,570.0,103.0,-507.0,1.0,-13164.0,1801.0,-9029.0,3225.0,-14.0,-45.0,-10.0,-4.0,20.0,5.0,-4.0,-9.0,1.4414622783660889
318,570.0,103.0,-507.0,1.0,-13164.0,1801.0,-9029.0,3225.0,6.0,0.0,-2.0,-24.0,20.0,4.0,15.0,4.0,1.453627347946167
319,817.0,-462.0,785.0,1.0,-13252.0,1622.0,-8948.0,3184.0,6.0,0.0,-2.0,-24.0,20.0,4.0,15.0,4.0,1.457671880722046
320,817.0,-462.0,785.0,1.0,-13252.0,1622.0,-8948.0,3184.0,-17.0,-32.0,-55.0,-3.0,28.0,11.0,11.0,-1.0,1.4791154861450195
321,817.0,-462.0,785.0,1.0,-13252.0,1622.0,-8948.0,3184.0,17.0,31.0,36.0,2.0,-19.0,-37.0,-1.0,3.0,1.4831321239471436
322,794.0,-904.0,1786.0,1.0,-13381.0,1412.0,-8852.0,3007.0,17.0,31.0,36.0,2.0,-19.0,-37.0,-1.0,3.0,1.4870398044586182
323,794.0,-904.0,1786.0,1.0,-13381.0,1412.0,-8852.0,3007.0,5.0,10.0,-24.0,-11.0,-16.0,-20.0,-1.0,-1.0,1.490631341934204
324,794.0,-904.0,1786.0,1.0,-13381.0,1412.0,-8852.0,3007.0,-8.0,-6.0,-18.0,-14.0,-39.0,-11.0,-2.0,0.0,1.4988555908203125
325,1364.0,-1377.0,2729.0,1.0,-13615.0,994.0,-8643.0,2718.0,-8.0,-6.0,-18.0,-14.0,-39.0,-11.0,-2.0,0.0,1.5006587505340576
326,1364.0,-1377.0,2729.0,1.0,-13615.0,994.0,-8643.0,2718.0,3.0,0.0,48.0,35.0,41.0,37.0,0.0,1.0,1.5027973651885986
327,1364.0,-1377.0,2729.0,1.0,-13615.0,994.0,-8643.0,2718.0,-3.0,-15.0,8.0,28.0,29.0,-54.0,-3.0,-8.0,1.5127277374267578
328,2224.0,-1629.0,3565.0,1.0,-13852.0,421.0,-8405.0,2399.0,-3.0,-15.0,8.0,28.0,29.0,-54.0,-3.0,-8.0,1.5145330429077148
329,2224.0,-1629.0,3565.0,1.0,-13852.0,421.0,-8405.0,2399.0,-2.0,11.0,18.0,-12.0,3.0,-35.0,-33.0,-12.0,1.5201497077941895
330,2224.0,-1629.0,3565.0,1.0,-13852.0,421.0,-8405.0,2399.0,-17.0,-8.0,-22.0,6.0,-77.0,-23.0,-29.0,-19.0,1.5366430282592773
331,2825.0,-1805.0,3943.0,1.0,-14092.0,-292.0,-8094.0,2064.0,-17.0,-8.0,-22.0,6.0,-77.0,-23.0,-29.0,-19.0,1.5410449504852295
332,2825.0,-1805.0,3943.0,1.0,-14092.0,-292.0,-8094.0,2064.0,1.0,9.0,8.0,2.0,-16.0,13.0,8.0,14.0,1.543238878250122
333,2825.0,-1805.0,3943.0,1.0,-14092.0,-292.0,-8094.0,2064.0,0.0,0.0,10.0,-21.0,99.0,74.0,-2.0,-2.0,1.559837818145752
334,2902.0,-1923.0,4067.0,1.0,-14312.0,-1035.0,-7722.0,1708.0,0.0,0.0,10.0,-21.0,99.0,74.0,-2.0,-2.0,1.563187837600708
335,2902.0,-1923.0,4067.0,1.0,-14312.0,-1035.0,-7722.0,1708.0,1.0,1.0,-16.0,-39.0,-66.0,-18.0,-15.0,8.0,1.5668466091156006
336,2902.0,-1923.0,4067.0,1.0,-14312.0,-1035.0,-7722.0,1708.0,5.0,3.0,19.0,15.0,-21.0,115.0,58.0,18.0,1.5811371803283691
337,2672.0,-2265.0,4482.0,1.0,-14527.0,-1794.0,-7256.0,1251.0,5.0,3.0,19.0,15.0,-21.0,115.0,58.0,18.0,1.5829460620880127
338,2672.0,-2265.0,4482.0,1.0,-14527.0,-1794.0,-7256.0,1251.0,-24.0,16.0,33.0,34.0,119.0,104.0,14.0,7.0,1.584815263748169
339,2672.0,-2265.0,4482.0,1.0,-14527.0,-1794.0,-7256.0,1251.0,10.0,6.0,-24.0,-29.0,-22.0,93.0,-80.0,18.0,1.5962998867034912
340,2010.0,-2852.0,4927.0,1.0,-14753.0,-2493.0,-6645.0,665.0,10.0,6.0,-24.0,-29.0,-22.0,93.0,-80.0,18.0,1.598658561706543
341,2010.0,-2852.0,4927.0,1.0,-14753.0,-2493.0,-6645.0,665.0,-46.0,-4.0,-42.0,-26.0,-115.0,-46.0,34.0,-4.0,1.6020927429199219
342,2010.0,-2852.0,4927.0,1.0,-14753.0,-2493.0,-6645.0,665.0,25.0,-10.0,-16.0,25.0,127.0,85.0,70.0,84.0,1.6189854145050049
343,2069.0,-3741.0,5567.0,1.0,-14964.0,-3193.0,-5860.0,21.0,25.0,-10.0,-16.0,25.0,127.0,85.0,70.0,84.0,1.6209204196929932
344,2069.0,-3741.0,5567.0,1.0,-14964.0,-3193.0,-5860.0,21.0,36.0,-8.0,-1.0,-49.0,-3.0,-86.0,-90.0,-7.0,1.6228108406066895
345,2069.0,-3741.0,5567.0,1.0,-14964.0,-3193.0,-5860.0,21.0,-42.0,-7.0,27.0,65.0,-105.0,-47.0,-31.0,0.0,1.6330161094665527
346,1914.0,-3682.0,5917.0,1.0,-15087.0,-3871.0,-5037.0,-692.0,-42.0,-7.0,27.0,65.0,-105.0,-47.0,-31.0,0.0,1.634838581085205
347,1914.0,-3682.0,5917.0,1.0,-15087.0,-3871.0,-5037.0,-692.0,21.0,8.0,36.0,33.0,-21.0,-16.0,35.0,9.0,1.6407725811004639
348,1914.0,-3682.0,5917.0,1.0,-15087.0,-3871.0,-5037.0,-692.0,14.0,-6.0,4.0,20.0,-30.0,-98.0,127.0,-49.0,1.6554770469665527
349,3290.0,-3310.0,6643.0,1.0,-15021.0,-4784.0,-4220.0,-1460.0,14.0,-6.0,4.0,20.0,-30.0,-98.0,127.0,-49.0,1.6642653942108154
350,3290.0,-3310.0,6643.0,1.0,-15021.0,-4784.0,-4220.0,-1460.0,-3.0,-8.0,3.0,35.0,-82.0,-15.0,-10.0,-7.0,1.6676404476165771
351,3290.0,-3310.0,6643.0,1.0,-15021.0,-4784.0,-4220.0,-1460.0,-16.0,-8.0,-18.0,-25.0,-60.0,-76.0,-42.0,-24.0,1.6788456439971924
352,5918.0,-2937.0,6937.0,1.0,-14657.0,-6086.0,-3452.0,-2159.0,-16.0,-8.0,-18.0,-25.0,-60.0,-76.0,-42.0,-24.0,1.6806879043579102
353,5918.0,-2937.0,6937.0,1.0,-14657.0,-6086.0,-3452.0,-2159.0,-6.0,39.0,68.0,-4.0,127.0,-33.0,-71.0,-89.0,1.682555913925171
354,5918.0,-2937.0,6937.0,1.0,-14657.0,-6086.0,-3452.0,-2159.0,67.0,119.0,96.0,-75.0,-83.0,-99.0,39.0,19.0,1.6945443153381348
355,6851.0,-1499.0,6060.0,1.0,-14045.0,-7408.0,-2956.0,-2756.0,67.0,119.0,96.0,-75.0,-83.0,-99.0,39.0,19.0,1.6971099376678467
356,6851.0,-1499.0,6060.0,1.0,-14045.0,-7408.0,-2956.0,-2756.0,-4.0,-81.0,-96.0,57.0,-27.0,127.0,-23.0,26.0,1.6990447044372559
357,6851.0,-1499.0,6060.0,1.0,-14045.0,-7408.0,-2956.0,-2756.0,37.0,63.0,5.0,-14.0,-58.0,-42.0,-22.0,-41.0,1.716080904006958
358,6642.0,-697.0,4336.0,1.0,-13350.0,-8554.0,-2689.0,-3138.0,37.0,63.0,5.0,-14.0,-58.0,-42.0,-22.0,-41.0,1.7196366786956787
359,6642.0,-697.0,4336.0,1.0,-13350.0,-8554.0,-2689.0,-3138.0,4.0,-71.0,79.0,-28.0,47.0,17.0,111.0,31.0,1.7247843742370605
360,6642.0,-697.0,4336.0,1.0,-13350.0,-8554.0,-2689.0,-3138.0,-31.0,-122.0,23.0,48.0,127.0,-33.0,-13.0,2.0,1.7386748790740967
361,5492.0,-184.0,1832.0,1.0,-12755.0,-9395.0,-2674.0,-3221.0,-31.0,-122.0,23.0,48.0,127.0,-33.0,-13.0,2.0,1.7420499324798584
362,5492.0,-184.0,1832.0,1.0,-12755.0,-9395.0,-2674.0,-3221.0,-25.0,59.0,-84.0,13.0,-39.0,-38.0,64.0,11.0,1.7455978393554688
363,5492.0,-184.0,1832.0,1.0,-12755.0,-9395.0,-2674.0,-3221.0,-18.0,-34.0,28.0,32.0,-114.0,76.0,17.0,1.0,1.7549567222595215
364,4265.0,-1070.0,-895.0,1.0,-12365.0,-9988.0,-2763.0,-2859.0,-18.0,-34.0,28.0,32.0,-114.0,76.0,17.0,1.0,1.7584152221679688
365,4265.0,-1070.0,-895.0,1.0,-12365.0,-9988.0,-2763.0,-2859.0,-41.0,-85.0,-49.0,52.0,-41.0,44.0,13.0,22.0,1.7603371143341064
366,4265.0,-1070.0,-895.0,1.0,-12365.0,-9988.0,-2763.0,-2859.0,30.0,104.0,-128.0,-117.0,-79.0,-83.0,44.0,33.0,1.7754559516906738
367,817.0,-1128.0,-2498.0,1.0,-12366.0,-10073.0,-2898.0,-2383.0,30.0,104.0,-128.0,-117.0,-79.0,-83.0,44.0,33.0,1.7773029804229736
368,817.0,-1128.0,-2498.0,1.0,-12366.0,-10073.0,-2898.0,-2383.0,19.0,43.0,10.0,-43.0,61.0,-84.0,95.0,-42.0,1.7905879020690918
369,817.0,-1128.0,-2498.0,1.0,-12366.0,-10073.0,-2898.0,-2383.0,-49.0,-15.0,98.0,-12.0,37.0,-61.0,-128.0,-57.0,1.799530029296875
370,942.0,848.0,1486.0,1.0,-12194.0,-10223.0,-2873.0,-2646.0,-49.0,-15.0,98.0,-12.0,37.0,-61.0,-128.0,-57.0,1.8013677597045898
371,942.0,848.0,1486.0,1.0,-12194.0,-10223.0,-2873.0,-2646.0,-34.0,67.0,127.0,17.0,94.0,-63.0,-116.0,1.0,1.8034586906433105
372,942.0,848.0,1486.0,1.0,-12194.0,-10223.0,-2873.0,-2646.0,-104.0,80.0,31.0,-16.0,-3.0,18.0,-32.0,-96.0,1.8142049312591553
373,999.0,159.0,3327.0,1.0,-11983.0,-10438.0,-2582.0,-3045.0,-104.0,80.0,31.0,-16.0,-3.0,18.0,-32.0,-96.0,1.8207054138183594
374,999.0,159.0,3327.0,1.0,-11983.0,-10438.0,-2582.0,-3045.0,-57.0,9.0,-5.0,19.0,93.0,78.0,-96.0,75.0,1.8226776123046875
375,999.0,159.0,3327.0,1.0,-11983.0,-10438.0,-2582.0,-3045.0,14.0,-61.0,-104.0,2.0,11.0,22.0,91.0,-41.0,1.8359708786010742
376,1176.0,-442.0,1691.0,1.0,-11824.0,-10626.0,-2354.0,-3198.0,14.0,-61.0,-104.0,2.0,11.0,22.0,91.0,-41.0,1.8390412330627441
377,1176.0,-442.0,1691.0,1.0,-11824.0,-10626.0,-2354.0,-3198.0,127.0,0.0,-34.0,-35.0,-120.0,-68.0,13.0,79.0,1.8442604541778564
378,1176.0,-442.0,1691.0,1.0,-11824.0,-10626.0,-2354.0,-3198.0,-23.0,-72.0,-38.0,-52.0,-42.0,69.0,-20.0,-8.0,1.859710931777954
379,385.0,22.0,1451.0,1.0,-11802.0,-10621.0,-2158.0,-3422.0,-23.0,-72.0,-38.0,-52.0,-42.0,69.0,-20.0,-8.0,1.8629562854766846
380,385.0,22.0,1451.0,1.0,-11802.0,-10621.0,-2158.0,-3422.0,-26.0,19.0,15.0,13.0,73.0,99.0,-13.0,-20.0,1.8662903308868408
381,385.0,22.0,1451.0,1.0,-11802.0,-10621.0,-2158.0,-3422.0,-22.0,-61.0,52.0,89.0,72.0,-11.0,-96.0,-18.0,1.8739867210388184
382,8.0,-298.0,215.0,1.0,-11847.0,-10584.0,-2088.0,-3426.0,-22.0,-61.0,52.0,89.0,72.0,-11.0,-96.0,-18.0,1.8764746189117432
383,8.0,-298.0,215.0,1.0,-11847.0,-10584.0,-2088.0,-3426.0,22.0,102.0,76.0,56.0,6.0,98.0,13.0,19.0,1.8801758289337158
384,8.0,-298.0,215.0,1.0,-11847.0,-10584.0,-2088.0,-3426.0,41.0,-52.0,-14.0,86.0,127.0,127.0,-45.0,-15.0,1.8956348896026611
385,1333.0,335.0,60.0,1.0,-11675.0,-10752.0,-2180.0,-3435.0,41.0,-52.0,-14.0,86.0,127.0,127.0,-45.0,-15.0,1.8974359035491943
386,1333.0,335.0,60.0,1.0,-11675.0,-10752.0,-2180.0,-3435.0,-44.0,13.0,23.0,34.0,-38.0,-20.0,114.0,-63.0,1.9026706218719482
387,1333.0,335.0,60.0,1.0,-11675.0,-10752.0,-2180.0,-3435.0,-47.0,22.0,-29.0,39.0,6.0,32.0,-76.0,-51.0,1.9192845821380615
388,1287.0,276.0,209.0,1.0,-11486.0,-10937.0,-2274.0,-3428.0,-47.0,22.0,-29.0,39.0,6.0,32.0,-76.0,-51.0,1.9225122928619385
389,1287.0,276.0,209.0,1.0,-11486.0,-10937.0,-2274.0,-3428.0,2.0,-36.0,-9.0,-39.0,44.0,108.0,-98.0,-39.0,1.9258360862731934
390,1287.0,276.0,209.0,1.0,-11486.0,-10937.0,-2274.0,-3428.0,2.0,-23.0,-34.0,14.0,33.0,121.0,127.0,115.0,1.93330717086792
391,-541.0,-84.0,-127.0,1.0,-11528.0,-10899.0,-2243.0,-3428.0,2.0,-23.0,-34.0,14.0,33.0,121.0,127.0,115.0,1.935697317123413
392,-541.0,-84.0,-127.0,1.0,-11528.0,-10899.0,-2243.0,-3428.0,-30.0,-81.0,-47.0,-25.0,68.0,8.0,-29.0,-58.0,1.9407684803009033
393,-541.0,-84.0,-127.0,1.0,-11528.0,-10899.0,-2243.0,-3428.0,-22.0,-39.0,-62.0,11.0,97.0,-30.0,0.0,-40.0,1.957021951675415
394,-1150.0,-115.0,99.0,1.0,-11629.0,-10795.0,-2143.0,-3479.0,-22.0,-39.0,-62.0,11.0,97.0,-30.0,0.0,-40.0,1.9604003429412842
395,-1150.0,-115.0,99.0,1.0,-11629.0,-10795.0,-2143.0,-3479.0,43.0,29.0,59.0,22.0,-29.0,-55.0,124.0,41.0,1.9638895988464355
396,-1150.0,-115.0,99.0,1.0,-11629.0,-10795.0,-2143.0,-3479.0,8.0,-13.0,-62.0,-11.0,-51.0,40.0,96.0,22.0,1.9796264171600342
397,-398.0,143.0,521.0,1.0,-11632.0,-10774.0,-2088.0,-3566.0,8.0,-13.0,-62.0,-11.0,-51.0,40.0,96.0,22.0,1.9825999736785889
398,-398.0,143.0,521.0,1.0,-11632.0,-10774.0,-2088.0,-3566.0,-59.0,-66.0,-96.0,-66.0,-37.0,-5.0,-54.0,-11.0,1.9858884811401367
399,-398.0,143.0,521.0,1.0,-11632.0,-10774.0,-2088.0,-3566.0,-36.0,31.0,54.0,-29.0,26.0,-128.0,-84.0,48.0,1.9937255382537842
400,-148.0,91.0,255.0,1.0,-11631.0,-10765.0,-2073.0,-3604.0,-36.0,31.0,54.0,-29.0,26.0,-128.0,-84.0,48.0,1.996490716934204
401,-148.0,91.0,255.0,1.0,-11631.0,-10765.0,-2073.0,-3604.0,77.0,23.0,0.0,6.0,-31.0,-21.0,-25.0,18.0,2.0000078678131104
402,-148.0,91.0,255.0,1.0,-11631.0,-10765.0,-2073.0,-3604.0,-21.0,-33.0,5.0,74.0,-47.0,-75.0,-128.0,-43.0,2.0161328315734863
403,-388.0,-116.0,-186.0,1.0,-11682.0,-10720.0,-2047.0,-3591.0,-21.0,-33.0,5.0,74.0,-47.0,-75.0,-128.0,-43.0,2.0195040702819824
404,-388.0,-116.0,-186.0,1.0,-11682.0,-10720.0,-2047.0,-3591.0,-25.0,-2.0,-86.0,57.0,35.0,-122.0,103.0,-4.0,2.0230815410614014
405,-388.0,-116.0,-186.0,1.0,-11682.0,-10720.0,-2047.0,-3591.0,54.0,85.0,69.0,-15.0,-44.0,-29.0,47.0,-1.0,2.03977370262146
406,-148.0,-72.0,-300.0,1.0,-11704.0,-10704.0,-2044.0,-3568.0,54.0,85.0,69.0,-15.0,-44.0,-29.0,47.0,-1.0,2.043829917907715
407,-148.0,-72.0,-300.0,1.0,-11704.0,-10704.0,-2044.0,-3568.0,-4.0,-39.0,-88.0,-22.0,-77.0,17.0,33.0,-12.0,2.0477068424224854
408,-148.0,-72.0,-300.0,1.0,-11704.0,-10704.0,-2044.0,-3568.0,-1.0,10.0,5.0,-36.0,9.0,91.0,88.0,25.0,2.0547258853912354
409,93.0,111.0,-119.0,1.0,-11675.0,-10730.0,-2054.0,-3581.0,-1.0,10.0,5.0,-36.0,9.0,91.0,88.0,25.0,2.0573668479919434
410,93.0,111.0,-119.0,1.0,-11675.0,-10730.0,-2054.0,-3581.0,-45.0,-20.0,-55.0,-88.0,-105.0,-39.0,-109.0,-110.0,2.0599794387817383
411,93.0,111.0,-119.0,1.0,-11675.0,-10730.0,-2054.0,-3581.0,91.0,9.0,17.0,67.0,13.0,38.0,90.0,38.0,2.075608015060425
412,-102.0,143.0,67.0,1.0,-11683.0,-10709.0,-2051.0,-3617.0,91.0,9.0,17.0,67.0,13.0,38.0,90.0,38.0,2.0774314403533936
413,-102.0,143.0,67.0,1.0,-11683.0,-10709.0,-2051.0,-3617.0,75.0,14.0,59.0,22.0,-75.0,-56.0,-88.0,-53.0,2.0824949741363525
414,-102.0,143.0,67.0,1.0,-11683.0,-10709.0,-2051.0,-3617.0,14.0,-8.0,16.0,26.0,60.0,50.0,77.0,18.0,2.099059581756592
415,-225.0,63.0,127.0,1.0,-11699.0,-10686.0,-2038.0,-3643.0,14.0,-8.0,16.0,26.0,60.0,50.0,77.0,18.0,2.102475166320801
416,-225.0,63.0,127.0,1.0,-11699.0,-10686.0,-2038.0,-3643.0,-27.0,7.0,8.0,1.0,88.0,14.0,110.0,28.0,2.106157064437866
417,-225.0,63.0,127.0,1.0,-11699.0,-10686.0,-2038.0,-3643.0,6.0,-30.0,-70.0,-81.0,-15.0,5.0,-77.0,-9.0,2.112884283065796
418,-386.0,51.0,121.0,1.0,-11727.0,-10646.0,-1992.0,-3692.0,6.0,-30.0,-70.0,-81.0,-15.0,5.0,-77.0,-9.0,2.1210711002349854
419,-386.0,51.0,121.0,1.0,-11727.0,-10646.0,-1992.0,-3692.0,-15.0,20.0,61.0,71.0,35.0,90.0,-28.0,25.0,2.124530792236328
420,-386.0,51.0,121.0,1.0,-11727.0,-10646.0,-1992.0,-3692.0,-23.0,27.0,22.0,-8.0,45.0,-21.0,67.0,56.0,2.135664224624634
421,-33.0,151.0,126.0,1.0,-11705.0,-10657.0,-1979.0,-3738.0,-23.0,27.0,22.0,-8.0,45.0,-21.0,67.0,56.0,2.143930673599243
422,-33.0,151.0,126.0,1.0,-11705.0,-10657.0,-1979.0,-3738.0,71.0,25.0,2.0,-55.0,-16.0,80.0,66.0,91.0,2.1470189094543457
423,-33.0,151.0,126.0,1.0,-11705.0,-10657.0,-1979.0,-3738.0,-47.0,0.0,-10.0,-36.0,24.0,-100.0,-82.0,-63.0,2.1593708992004395
424,50.0,140.0,96.0,1.0,-11680.0,-10674.0,-1995.0,-3758.0,-47.0,0.0,-10.0,-36.0,24.0,-100.0,-82.0,-63.0,2.1629812717437744
425,50.0,140.0,96.0,1.0,-11680.0,-10674.0,-1995.0,-3758.0,79.0,20.0,40.0,9.0,-63.0,41.0,-47.0,83.0,2.166628837585449
426,50.0,140.0,96.0,1.0,-11680.0,-10674.0,-1995.0,-3758.0,18.0,-25.0,-58.0,-98.0,-103.0,-16.0,-8.0,-15.0,2.1728434562683105
427,-108.0,51.0,19.0,1.0,-11682.0,-10671.0,-2013.0,-3752.0,18.0,-25.0,-58.0,-98.0,-103.0,-16.0,-8.0,-15.0,2.180967330932617
428,-108.0,51.0,19.0,1.0,-11682.0,-10671.0,-2013.0,-3752.0,-32.0,3.0,23.0,-33.0,64.0,19.0,8.0,-7.0,2.1837871074676514
429,-108.0,51.0,19.0,1.0,-11682.0,-10671.0,-2013.0,-3752.0,-16.0,15.0,39.0,5.0,-66.0,17.0,83.0,30.0,2.1960606575012207
430,-129.0,-13.0,-34.0,1.0,-11690.0,-10664.0,-2011.0,-3746.0,-16.0,15.0,39.0,5.0,-66.0,17.0,83.0,30.0,2.1992602348327637
431,-129.0,-13.0,-34.0,1.0,-11690.0,-10664.0,-2011.0,-3746.0,-25.0,-1.0,1.0,28.0,-51.0,-45.0,-29.0,-20.0,2.203730344772339
432,-129.0,-13.0,-34.0,1.0,-11690.0,-10664.0,-2011.0,-3746.0,6.0,-7.0,42.0,81.0,23.0,14.0,77.0,42.0,2.220407009124756
433,116.0,-39.0,-19.0,1.0,-11667.0,-10692.0,-2012.0,-3737.0,6.0,-7.0,42.0,81.0,23.0,14.0,77.0,42.0,2.2249932289123535
434,116.0,-39.0,-19.0,1.0,-11667.0,-10692.0,-2012.0,-3737.0,-18.0,-23.0,-28.0,-18.0,-66.0,-121.0,57.0,-6.0,2.2286064624786377
435,116.0,-39.0,-19.0,1.0,-11667.0,-10692.0,-2012.0,-3737.0,16.0,9.0,7.0,-7.0,70.0,25.0,51.0,95.0,2.2328598499298096
436,55.0,-28.0,24.0,1.0,-11655.0,-10707.0,-2010.0,-3733.0,16.0,9.0,7.0,-7.0,70.0,25.0,51.0,95.0,2.2404370307922363
437,55.0,-28.0,24.0,1.0,-11655.0,-10707.0,-2010.0,-3733.0,-15.0,38.0,39.0,15.0,41.0,3.0,-14.0,-60.0,2.24288010597229
438,55.0,-28.0,24.0,1.0,-11655.0,-10707.0,-2010.0,-3733.0,48.0,5.0,-3.0,10.0,-107.0,-107.0,-6.0,-3.0,2.2572133541107178
439,-96.0,-37.0,6.0,1.0,-11664.0,-10700.0,-2004.0,-3728.0,48.0,5.0,-3.0,10.0,-107.0,-107.0,-6.0,-3.0,2.2610995769500732
440,-96.0,-37.0,6.0,1.0,-11664.0,-10700.0,-2004.0,-3728.0,-40.0,-75.0,-90.0,-7.0,5.0,45.0,-100.0,-15.0,2.26492977142334
441,-96.0,-37.0,6.0,1.0,-11664.0,-10700.0,-2004.0,-3728.0,-7.0,-2.0,47.0,24.0,-5.0,43.0,-128.0,-69.0,2.2786903381347656
442,25.0,-9.0,-5.0,1.0,-11655.0,-10710.0,-1996.0,-3733.0,-7.0,-2.0,47.0,24.0,-5.0,43.0,-128.0,-69.0,2.2821156978607178
443,25.0,-9.0,-5.0,1.0,-11655.0,-10710.0,-1996.0,-3733.0,-10.0,19.0,1.0,-26.0,-7.0,-41.0,-58.0,-70.0,2.2856950759887695
444,25.0,-9.0,-5.0,1.0,-11655.0,-10710.0,-1996.0,-3733.0,-15.0,12.0,-36.0,-18.0,38.0,91.0,-34.0,-58.0,2.294168710708618
445,293.0,52.0,46.0,1.0,-11614.0,-10749.0,-2002.0,-3745.0,-15.0,12.0,-36.0,-18.0,38.0,91.0,-34.0,-58.0,2.3006691932678223
446,293.0,52.0,46.0,1.0,-11614.0,-10749.0,-2002.0,-3745.0,32.0,18.0,26.0,-60.0,-11.0,-26.0,47.0,38.0,2.303086757659912
447,293.0,52.0,46.0,1.0,-11614.0,-10749.0,-2002.0,-3745.0,3.0,3.0,-20.0,-54.0,9.0,-73.0,-32.0,-49.0,2.315875291824341
448,173.0,56.0,75.0,1.0,-11588.0,-10773.0,-2014.0,-3751.0,3.0,3.0,-20.0,-54.0,9.0,-73.0,-32.0,-49.0,2.319061756134033
449,173.0,56.0,75.0,1.0,-11588.0,-10773.0,-2014.0,-3751.0,50.0,6.0,-29.0,9.0,67.0,59.0,127.0,-32.0,2.3229007720947266
450,173.0,56.0,75.0,1.0,-11588.0,-10773.0,-2014.0,-3751.0,-19.0,-17.0,-4.0,5.0,-44.0,-51.0,-34.0,1.0,2.3411660194396973
451,-225.0,-5.0,68.0,1.0,-11615.0,-10742.0,-1992.0,-3769.0,-19.0,-17.0,-4.0,5.0,-44.0,-51.0,-34.0,1.0,2.344693899154663
452,-225.0,-5.0,68.0,1.0,-11615.0,-10742.0,-1992.0,-3769.0,-11.0,1.0,20.0,31.0,-20.0,28.0,-128.0,10.0,2.347966432571411
453,-225.0,-5.0,68.0,1.0,-11615.0,-10742.0,-1992.0,-3769.0,-30.0,-40.0,-62.0,-19.0,53.0,66.0,-50.0,-15.0,2.3526053428649902
454,-210.0,6.0,32.0,1.0,-11636.0,-10717.0,-1971.0,-3786.0,-30.0,-40.0,-62.0,-19.0,53.0,66.0,-50.0,-15.0,2.3699944019317627
455,-210.0,6.0,32.0,1.0,-11636.0,-10717.0,-1971.0,-3786.0,-15.0,-12.0,1.0,-23.0,9.0,38.0,65.0,13.0,2.3744499683380127
456,-210.0,6.0,32.0,1.0,-11636.0,-10717.0,-1971.0,-3786.0,0.0,19.0,44.0,58.0,-18.0,9.0,79.0,-5.0,2.3778791427612305
457,64.0,52.0,-13.0,1.0,-11624.0,-10726.0,-1981.0,-3789.0,0.0,19.0,44.0,58.0,-18.0,9.0,79.0,-5.0,2.3806161880493164
458,64.0,52.0,-13.0,1.0,-11624.0,-10726.0,-1981.0,-3789.0,-43.0,0.0,0.0,-4.0,-65.0,9.0,79.0,-20.0,2.3826372623443604
459,64.0,52.0,-13.0,1.0,-11624.0,-10726.0,-1981.0,-3789.0,16.0,-10.0,-27.0,-12.0,49.0,1.0,-54.0,-25.0,2.399456024169922
460,30.0,74.0,9.0,1.0,-11615.0,-10733.0,-2003.0,-3787.0,16.0,-10.0,-27.0,-12.0,49.0,1.0,-54.0,-25.0,2.401386260986328
461,30.0,74.0,9.0,1.0,-11615.0,-10733.0,-2003.0,-3787.0,-42.0,1.0,11.0,-31.0,-27.0,-64.0,-49.0,-47.0,2.403290271759033
462,30.0,74.0,9.0,1.0,-11615.0,-10733.0,-2003.0,-3787.0,81.0,13.0,-35.0,-35.0,2.0,25.0,-46.0,40.0,2.412287473678589
463,-133.0,37.0,38.0,1.0,-11626.0,-10719.0,-2004.0,-3794.0,81.0,13.0,-35.0,-35.0,2.0,25.0,-46.0,40.0,2.422055721282959
464,-133.0,37.0,38.0,1.0,-11626.0,-10719.0,-2004.0,-3794.0,18.0,-29.0,-40.0,-15.0,91.0,47.0,-76.0,39.0,2.425673246383667
465,-133.0,37.0,38.0,1.0,-11626.0,-10719.0,-2004.0,-3794.0,-28.0,-10.0,11.0,-27.0,-31.0,25.0,28.0,-41.0,2.4362940788269043
466,-180.0,53.0,11.0,1.0,-11644.0,-10696.0,-1999.0,-3808.0,-28.0,-10.0,11.0,-27.0,-31.0,25.0,28.0,-41.0,2.438401699066162
467,-180.0,53.0,11.0,1.0,-11644.0,-10696.0,-1999.0,-3808.0,24.0,-7.0,-22.0,68.0,10.0,24.0,-46.0,35.0,2.442279100418091
468,-180.0,53.0,11.0,1.0,-11644.0,-10696.0,-1999.0,-3808.0,-57.0,-6.0,-12.0,4.0,-26.0,2.0,-52.0,14.0,2.4595863819122314
469,-105.0,52.0,-19.0,1.0,-11652.0,-10683.0,-1995.0,-3820.0,-57.0,-6.0,-12.0,4.0,-26.0,2.0,-52.0,14.0,2.463012456893921
470,-105.0,52.0,-19.0,1.0,-11652.0,-10683.0,-1995.0,-3820.0,-15.0,-5.0,56.0,5.0,-36.0,-35.0,-30.0,-20.0,2.46612548828125
471,-105.0,52.0,-19.0,1.0,-11652.0,-10683.0,-1995.0,-3820.0,24.0,-3.0,4.0,11.0,-5.0,6.0,37.0,71.0,2.4819819927215576
472,-19.0,63.0,-45.0,1.0,-11650.0,-10682.0,-2007.0,-3822.0,24.0,-3.0,4.0,11.0,-5.0,6.0,37.0,71.0,2.4853763580322266
473,-19.0,63.0,-45.0,1.0,-11650.0,-10682.0,-2007.0,-3822.0,26.0,1.0,0.0,15.0,27.0,35.0,-26.0,0.0,2.489180326461792
474,-19.0,63.0,-45.0,1.0,-11650.0,-10682.0,-2007.0,-3822.0,-26.0,-6.0,-1.0,9.0,-32.0,-47.0,16.0,-52.0,2.4964685440063477
475,-96.0,32.0,-63.0,1.0,-11659.0,-10672.0,-2017.0,-3818.0,-26.0,-6.0,-1.0,9.0,-32.0,-47.0,16.0,-52.0,2.498337745666504
476,-96.0,32.0,-63.0,1.0,-11659.0,-10672.0,-2017.0,-3818.0,-15.0,27.0,10.0,-56.0,7.0,4.0,-20.0,-23.0,2.502741575241089
477,-96.0,32.0,-63.0,1.0,-11659.0,-10672.0,-2017.0,-3818.0,7.0,12.0,55.0,-4.0,26.0,23.0,-33.0,18.0,2.5194520950317383
478,-192.0,19.0,-96.0,1.0,-11682.0,-10647.0,-2019.0,-3815.0,7.0,12.0,55.0,-4.0,26.0,23.0,-33.0,18.0,2.5239155292510986
479,-192.0,19.0,-96.0,1.0,-11682.0,-10647.0,-2019.0,-3815.0,-9.0,-5.0,39.0,-1.0,-16.0,-42.0,-4.0,-6.0,2.527876138687134
480,-192.0,19.0,-96.0,1.0,-11682.0,-10647.0,-2019.0,-3815.0,-1.0,5.0,-10.0,-33.0,-14.0,-2.0,14.0,19.0,2.541022777557373
481,-184.0,7.0,-135.0,1.0,-11702.0,-10628.0,-2021.0,-3808.0,-1.0,5.0,-10.0,-33.0,-14.0,-2.0,14.0,19.0,2.542862892150879
482,-184.0,7.0,-135.0,1.0,-11702.0,-10628.0,-2021.0,-3808.0,-5.0,-9.0,-20.0,-20.0,-62.0,-39.0,28.0,24.0,2.54476261138916
483,-184.0,7.0,-135.0,1.0,-11702.0,-10628.0,-2021.0,-3808.0,-1.0,-8.0,4.0,-2.0,0.0,-54.0,23.0,8.0,2.5816831588745117
484,-163.0,-7.0,-150.0,1.0,-11716.0,-10616.0,-2026.0,-3795.0,-1.0,-8.0,4.0,-2.0,0.0,-54.0,23.0,8.0,2.5854296684265137
485,-163.0,-7.0,-150.0,1.0,-11716.0,-10616.0,-2026.0,-3795.0,-7.0,4.0,3.0,21.0,34.0,-3.0,17.0,-3.0,2.589277505874634
486,-163.0,-7.0,-150.0,1.0,-11716.0,-10616.0,-2026.0,-3795.0,54.0,5.0,-15.0,0.0,-8.0,-4.0,73.0,19.0,2.592331647872925
487,-245.0,-97.0,-142.0,1.0,-11747.0,-10592.0,-2020.0,-3770.0,54.0,5.0,-15.0,0.0,-8.0,-4.0,73.0,19.0,2.5948092937469482
488,-245.0,-97.0,-142.0,1.0,-11747.0,-10592.0,-2020.0,-3770.0,-10.0,1.0,-28.0,-38.0,-9.0,-14.0,-7.0,3.0,2.5971527099609375
489,-245.0,-97.0,-142.0,1.0,-11747.0,-10592.0,-2020.0,-3770.0,-19.0,-3.0,5.0,31.0,32.0,8.0,-19.0,-9.0,2.601100444793701
490,-384.0,-200.0,-144.0,1.0,-11803.0,-10546.0,-1995.0,-3737.0,-19.0,-3.0,5.0,31.0,32.0,8.0,-19.0,-9.0,2.6029257774353027
491,-384.0,-200.0,-144.0,1.0,-11803.0,-10546.0,-1995.0,-3737.0,2.0,3.0,-20.0,-26.0,-2.0,13.0,11.0,6.0,2.6048030853271484
492,-384.0,-200.0,-144.0,1.0,-11803.0,-10546.0,-1995.0,-3737.0,-6.0,3.0,6.0,9.0,-10.0,-17.0,-28.0,5.0,2.6159827709198
493,-606.0,-278.0,-162.0,1.0,-11887.0,-10472.0,-1951.0,-3700.0,-6.0,3.0,6.0,9.0,-10.0,-17.0,-28.0,5.0,2.6193008422851562
494,-606.0,-278.0,-162.0,1.0,-11887.0,-10472.0,-1951.0,-3700.0,-1.0,-5.0,-16.0,26.0,-7.0,-3.0,-3.0,-2.0,2.623969316482544
495,-606.0,-278.0,-162.0,1.0,-11887.0,-10472.0,-1951.0,-3700.0,-9.0,-3.0,-6.0,-9.0,-5.0,37.0,-10.0,-4.0,2.6389570236206055
496,-635.0,-272.0,-75.0,1.0,-11959.0,-10410.0,-1900.0,-3670.0,-9.0,-3.0,-6.0,-9.0,-5.0,37.0,-10.0,-4.0,2.642848253250122
497,-635.0,-272.0,-75.0,1.0,-11959.0,-10410.0,-1900.0,-3670.0,5.0,-1.0,-11.0,-15.0,27.0,12.0,26.0,11.0,2.6526224613189697
498,-635.0,-272.0,-75.0,1.0,-11959.0,-10410.0,-1900.0,-3670.0,-3.0,1.0,-10.0,-5.0,-5.0,-4.0,1.0,-4.0,2.6613736152648926
499,-652.0,-247.0,77.0,1.0,-12025.0,-10348.0,-1834.0,-3664.0,-3.0,1.0,-10.0,-5.0,-5.0,-4.0,1.0,-4.0,2.663217067718506
