,Gyro 0,Gyro 1,Gyro 2,Label,Orientation 0,Orientation 1,Orientation 2,Orientation 3,Sensor 0,Sensor 1,Sensor 2,Sensor 3,Sensor 4,Sensor 5,Sensor 6,Sensor 7,Timestamp
0,-3.0,-7.0,4.0,1.0,-11071.0,-11008.0,1458.0,-4754.0,-4.0,-7.0,-7.0,4.0,-3.0,11.0,-2.0,-2.0,2.1457672119140625e-06
1,-3.0,-7.0,4.0,1.0,-11071.0,-11008.0,1458.0,-4754.0,0.0,-1.0,-8.0,-1.0,11.0,-9.0,12.0,2.0,0.002151012420654297
2,-3.0,-7.0,4.0,1.0,-11071.0,-11008.0,1458.0,-4754.0,4.0,19.0,27.0,0.0,16.0,5.0,6.0,0.0,0.004289865493774414
3,-3.0,27.0,1.0,1.0,-11070.0,-11007.0,1456.0,-4758.0,4.0,19.0,27.0,0.0,16.0,5.0,6.0,0.0,0.00918269157409668
4,-3.0,27.0,1.0,1.0,-11070.0,-11007.0,1456.0,-4758.0,-2.0,0.0,40.0,3.0,-14.0,-15.0,-7.0,2.0,0.011385440826416016
5,32.0,57.0,-6.0,1.0,-11065.0,-11010.0,1449.0,-4765.0,-2.0,0.0,40.0,3.0,-14.0,-15.0,-7.0,2.0,0.013254404067993164
6,32.0,57.0,-6.0,1.0,-11065.0,-11010.0,1449.0,-4765.0,2.0,0.0,5.0,12.0,25.0,-1.0,-3.0,0.0,0.015230655670166016
7,32.0,57.0,-6.0,1.0,-11065.0,-11010.0,1449.0,-4765.0,-8.0,-7.0,-13.0,-7.0,5.0,-3.0,-3.0,-3.0,0.017049789428710938
8,50.0,71.0,1.0,1.0,-11058.0,-11016.0,1437.0,-4772.0,-8.0,-7.0,-13.0,-7.0,5.0,-3.0,-3.0,-3.0,0.019364118576049805
9,50.0,71.0,1.0,1.0,-11058.0,-11016.0,1437.0,-4772.0,-5.0,-22.0,-42.0,-6.0,-21.0,-11.0,-2.0,-3.0,0.02298712730407715
10,50.0,71.0,1.0,1.0,-11058.0,-11016.0,1437.0,-4772.0,-5.0,-12.0,-21.0,2.0,-23.0,-13.0,-3.0,1.0,0.025925636291503906
11,6.0,68.0,13.0,1.0,-11057.0,-11014.0,1428.0,-4780.0,-5.0,-12.0,-21.0,2.0,-23.0,-13.0,-3.0,1.0,0.027866601943969727
12,6.0,68.0,13.0,1.0,-11057.0,-11014.0,1428.0,-4780.0,0.0,16.0,3.0,-22.0,-13.0,0.0,-7.0,-3.0,0.029775142669677734
13,6.0,68.0,13.0,1.0,-11057.0,-11014.0,1428.0,-4780.0,3.0,0.0,11.0,3.0,-3.0,4.0,-7.0,0.0,0.0316014289855957
14,0.0,56.0,20.0,1.0,-11054.0,-11014.0,1426.0,-4790.0,3.0,0.0,11.0,3.0,-3.0,4.0,-7.0,0.0,0.03340315818786621
15,0.0,56.0,20.0,1.0,-11054.0,-11014.0,1426.0,-4790.0,-5.0,-11.0,4.0,-3.0,0.0,-6.0,-1.0,-5.0,0.035635948181152344
16,0.0,56.0,20.0,1.0,-11054.0,-11014.0,1426.0,-4790.0,2.0,1.0,-21.0,-11.0,-12.0,-1.0,1.0,0.0,0.03884434700012207
17,-32.0,52.0,34.0,1.0,-11057.0,-11006.0,1426.0,-4801.0,2.0,1.0,-21.0,-11.0,-12.0,-1.0,1.0,0.0,0.04184126853942871
18,-32.0,52.0,34.0,1.0,-11057.0,-11006.0,1426.0,-4801.0,2.0,1.0,-6.0,9.0,8.0,-2.0,3.0,2.0,0.043787240982055664
19,-32.0,52.0,34.0,1.0,-11057.0,-11006.0,1426.0,-4801.0,1.0,1.0,-15.0,1.0,12.0,-1.0,-9.0,5.0,0.04558992385864258
20,-39.0,47.0,38.0,1.0,-11057.0,-11002.0,1428.0,-4810.0,1.0,1.0,-15.0,1.0,12.0,-1.0,-9.0,5.0,0.04742884635925293
21,-39.0,47.0,38.0,1.0,-11057.0,-11002.0,1428.0,-4810.0,5.0,22.0,24.0,2.0,-9.0,-1.0,7.0,12.0,0.04928278923034668
22,-39.0,47.0,38.0,1.0,-11057.0,-11002.0,1428.0,-4810.0,1.0,4.0,25.0,3.0,10.0,0.0,-56.0,3.0,0.05118250846862793
23,-61.0,30.0,33.0,1.0,-11061.0,-10994.0,1432.0,-4816.0,1.0,4.0,25.0,3.0,10.0,0.0,-56.0,3.0,0.053794145584106445
24,-61.0,30.0,33.0,1.0,-11061.0,-10994.0,1432.0,-4816.0,5.0,1.0,-11.0,-3.0,-7.0,-2.0,-7.0,-1.0,0.057161808013916016
25,-61.0,30.0,33.0,1.0,-11061.0,-10994.0,1432.0,-4816.0,4.0,13.0,4.0,3.0,1.0,-5.0,-20.0,-1.0,0.05976986885070801
26,-38.0,31.0,31.0,1.0,-11063.0,-10988.0,1435.0,-4823.0,4.0,13.0,4.0,3.0,1.0,-5.0,-20.0,-1.0,0.06168484687805176
27,-38.0,31.0,31.0,1.0,-11063.0,-10988.0,1435.0,-4823.0,-1.0,5.0,-6.0,0.0,2.0,8.0,-36.0,-10.0,0.06363773345947266
28,-38.0,31.0,31.0,1.0,-11063.0,-10988.0,1435.0,-4823.0,3.0,-4.0,17.0,5.0,-22.0,-2.0,33.0,2.0,0.06544613838195801
29,0.0,4.0,33.0,1.0,-11062.0,-10990.0,1433.0,-4822.0,3.0,-4.0,17.0,5.0,-22.0,-2.0,33.0,2.0,0.0672605037689209
30,0.0,4.0,33.0,1.0,-11062.0,-10990.0,1433.0,-4822.0,-2.0,-4.0,9.0,0.0,5.0,7.0,16.0,4.0,0.06934285163879395
31,0.0,4.0,33.0,1.0,-11062.0,-10990.0,1433.0,-4822.0,-6.0,-13.0,15.0,-3.0,3.0,-5.0,13.0,-5.0,0.07118344306945801
32,59.0,-31.0,4.0,1.0,-11052.0,-11004.0,1431.0,-4815.0,-6.0,-13.0,15.0,-3.0,3.0,-5.0,13.0,-5.0,0.07295060157775879
33,59.0,-31.0,4.0,1.0,-11052.0,-11004.0,1431.0,-4815.0,-2.0,-9.0,-16.0,-5.0,-19.0,-1.0,-12.0,-6.0,0.07486081123352051
34,59.0,-31.0,4.0,1.0,-11052.0,-11004.0,1431.0,-4815.0,-3.0,1.0,-11.0,-14.0,5.0,-4.0,13.0,-6.0,0.07662105560302734
35,79.0,-27.0,-6.0,1.0,-11040.0,-11019.0,1427.0,-4809.0,-3.0,1.0,-11.0,-14.0,5.0,-4.0,13.0,-6.0,0.07842707633972168
36,79.0,-27.0,-6.0,1.0,-11040.0,-11019.0,1427.0,-4809.0,3.0,9.0,67.0,2.0,8.0,1.0,-1.0,-2.0,0.08025264739990234
37,79.0,-27.0,-6.0,1.0,-11040.0,-11019.0,1427.0,-4809.0,-6.0,-14.0,-62.0,-2.0,-6.0,8.0,13.0,-4.0,0.08251547813415527
38,52.0,-27.0,-4.0,1.0,-11032.0,-11030.0,1425.0,-4804.0,-6.0,-14.0,-62.0,-2.0,-6.0,8.0,13.0,-4.0,0.08611512184143066
39,52.0,-27.0,-4.0,1.0,-11032.0,-11030.0,1425.0,-4804.0,5.0,20.0,13.0,11.0,27.0,2.0,14.0,12.0,0.08857583999633789
40,52.0,-27.0,-4.0,1.0,-11032.0,-11030.0,1425.0,-4804.0,0.0,-14.0,-27.0,-5.0,5.0,-4.0,-4.0,-3.0,0.09138822555541992
41,63.0,-30.0,18.0,1.0,-11023.0,-11040.0,1426.0,-4801.0,0.0,-14.0,-27.0,-5.0,5.0,-4.0,-4.0,-3.0,0.09342718124389648
42,63.0,-30.0,18.0,1.0,-11023.0,-11040.0,1426.0,-4801.0,-2.0,-14.0,-28.0,0.0,8.0,5.0,7.0,4.0,0.09538793563842773
43,63.0,-30.0,18.0,1.0,-11023.0,-11040.0,1426.0,-4801.0,-6.0,3.0,-41.0,3.0,-6.0,3.0,0.0,-5.0,0.09726762771606445
44,68.0,-33.0,13.0,1.0,-11015.0,-11049.0,1425.0,-4798.0,-6.0,3.0,-41.0,3.0,-6.0,3.0,0.0,-5.0,0.09914040565490723
45,68.0,-33.0,13.0,1.0,-11015.0,-11049.0,1425.0,-4798.0,-3.0,-3.0,-14.0,-2.0,-4.0,-14.0,6.0,-4.0,0.10101151466369629
46,68.0,-33.0,13.0,1.0,-11015.0,-11049.0,1425.0,-4798.0,2.0,12.0,18.0,-14.0,-9.0,0.0,44.0,12.0,0.10303664207458496
47,19.0,-30.0,1.0,1.0,-11015.0,-11051.0,1424.0,-4793.0,2.0,12.0,18.0,-14.0,-9.0,0.0,44.0,12.0,0.10482430458068848
48,19.0,-30.0,1.0,1.0,-11015.0,-11051.0,1424.0,-4793.0,-5.0,-22.0,-20.0,-5.0,-9.0,2.0,0.0,0.0,0.10671520233154297
49,19.0,-30.0,1.0,1.0,-11015.0,-11051.0,1424.0,-4793.0,0.0,-2.0,8.0,4.0,6.0,-8.0,-15.0,-4.0,0.10848140716552734
50,-22.0,-45.0,-2.0,1.0,-11020.0,-11049.0,1428.0,-4786.0,0.0,-2.0,8.0,4.0,6.0,-8.0,-15.0,-4.0,0.11027264595031738
51,-22.0,-45.0,-2.0,1.0,-11020.0,-11049.0,1428.0,-4786.0,-1.0,-5.0,-19.0,-2.0,9.0,0.0,4.0,0.0,0.11213564872741699
52,-22.0,-45.0,-2.0,1.0,-11020.0,-11049.0,1428.0,-4786.0,4.0,6.0,-9.0,0.0,4.0,9.0,-1.0,0.0,0.1148691177368164
53,22.0,-43.0,6.0,1.0,-11016.0,-11055.0,1431.0,-4780.0,4.0,6.0,-9.0,0.0,4.0,9.0,-1.0,0.0,0.1173105239868164
54,22.0,-43.0,6.0,1.0,-11016.0,-11055.0,1431.0,-4780.0,-7.0,-23.0,-18.0,1.0,-8.0,-1.0,-5.0,-4.0,0.11927914619445801
55,22.0,-43.0,6.0,1.0,-11016.0,-11055.0,1431.0,-4780.0,1.0,2.0,28.0,12.0,19.0,12.0,-3.0,1.0,0.12112736701965332
56,6.0,-12.0,23.0,1.0,-11013.0,-11057.0,1435.0,-4781.0,1.0,2.0,28.0,12.0,19.0,12.0,-3.0,1.0,0.12301898002624512
57,6.0,-12.0,23.0,1.0,-11013.0,-11057.0,1435.0,-4781.0,-1.0,4.0,2.0,0.0,-9.0,-4.0,-36.0,-11.0,0.12570643424987793
58,6.0,-12.0,23.0,1.0,-11013.0,-11057.0,1435.0,-4781.0,1.0,14.0,-2.0,-5.0,-8.0,-1.0,-4.0,-2.0,0.12758493423461914
59,44.0,2.0,16.0,1.0,-11007.0,-11063.0,1432.0,-4782.0,1.0,14.0,-2.0,-5.0,-8.0,-1.0,-4.0,-2.0,0.12940287590026855
60,44.0,2.0,16.0,1.0,-11007.0,-11063.0,1432.0,-4782.0,3.0,5.0,-5.0,-2.0,2.0,1.0,3.0,1.0,0.13129568099975586
61,44.0,2.0,16.0,1.0,-11007.0,-11063.0,1432.0,-4782.0,-3.0,-15.0,8.0,11.0,22.0,-2.0,-16.0,-10.0,0.13309168815612793
62,41.0,-24.0,-27.0,1.0,-11004.0,-11071.0,1427.0,-4774.0,-3.0,-15.0,8.0,11.0,22.0,-2.0,-16.0,-10.0,0.13496899604797363
63,41.0,-24.0,-27.0,1.0,-11004.0,-11071.0,1427.0,-4774.0,2.0,16.0,37.0,6.0,4.0,0.0,25.0,-1.0,0.13711094856262207
64,41.0,-24.0,-27.0,1.0,-11004.0,-11071.0,1427.0,-4774.0,-1.0,-4.0,-15.0,-5.0,-22.0,-7.0,4.0,2.0,0.1389296054840088
65,-2.0,-7.0,-27.0,1.0,-11004.0,-11073.0,1424.0,-4768.0,-1.0,-4.0,-15.0,-5.0,-22.0,-7.0,4.0,2.0,0.14074492454528809
66,-2.0,-7.0,-27.0,1.0,-11004.0,-11073.0,1424.0,-4768.0,1.0,-1.0,17.0,4.0,-1.0,-19.0,-3.0,-3.0,0.1428086757659912
67,-2.0,-7.0,-27.0,1.0,-11004.0,-11073.0,1424.0,-4768.0,-2.0,2.0,31.0,-3.0,-5.0,4.0,6.0,5.0,0.14577317237854004
68,16.0,-9.0,-30.0,1.0,-11001.0,-11080.0,1419.0,-4761.0,-2.0,2.0,31.0,-3.0,-5.0,4.0,6.0,5.0,0.14829492568969727
69,16.0,-9.0,-30.0,1.0,-11001.0,-11080.0,1419.0,-4761.0,0.0,24.0,2.0,-7.0,-9.0,-5.0,-1.0,-2.0,0.15027952194213867
70,16.0,-9.0,-30.0,1.0,-11001.0,-11080.0,1419.0,-4761.0,-3.0,-5.0,-28.0,-7.0,-10.0,2.0,-9.0,0.0,0.15213513374328613
71,-35.0,-7.0,-22.0,1.0,-11003.0,-11079.0,1420.0,-4757.0,-3.0,-5.0,-28.0,-7.0,-10.0,2.0,-9.0,0.0,0.15397977828979492
72,-35.0,-7.0,-22.0,1.0,-11003.0,-11079.0,1420.0,-4757.0,-2.0,-19.0,0.0,-6.0,-13.0,6.0,4.0,2.0,0.15588998794555664
73,-35.0,-7.0,-22.0,1.0,-11003.0,-11079.0,1420.0,-4757.0,-5.0,-7.0,25.0,-6.0,6.0,9.0,-29.0,-11.0,0.15871191024780273
74,-22.0,-5.0,-2.0,1.0,-11006.0,-11078.0,1420.0,-4754.0,-5.0,-7.0,25.0,-6.0,6.0,9.0,-29.0,-11.0,0.16062188148498535
75,-22.0,-5.0,-2.0,1.0,-11006.0,-11078.0,1420.0,-4754.0,-6.0,-19.0,-25.0,-8.0,-1.0,3.0,2.0,-3.0,0.16253376007080078
76,-22.0,-5.0,-2.0,1.0,-11006.0,-11078.0,1420.0,-4754.0,2.0,-1.0,-28.0,4.0,-25.0,-13.0,2.0,-1.0,0.16436147689819336
77,-10.0,7.0,6.0,1.0,-11006.0,-11078.0,1420.0,-4754.0,2.0,-1.0,-28.0,4.0,-25.0,-13.0,2.0,-1.0,0.16615629196166992
78,-10.0,7.0,6.0,1.0,-11006.0,-11078.0,1420.0,-4754.0,-1.0,2.0,18.0,4.0,-24.0,3.0,-2.0,0.0,0.16800427436828613
79,-10.0,7.0,6.0,1.0,-11006.0,-11078.0,1420.0,-4754.0,-2.0,-6.0,-8.0,0.0,23.0,-17.0,1.0,0.0,0.17001914978027344
80,-5.0,0.0,11.0,1.0,-11006.0,-11078.0,1420.0,-4754.0,-2.0,-6.0,-8.0,0.0,23.0,-17.0,1.0,0.0,0.17185568809509277
81,-5.0,0.0,11.0,1.0,-11006.0,-11078.0,1420.0,-4754.0,-1.0,-6.0,-34.0,3.0,3.0,5.0,4.0,2.0,0.17371344566345215
82,-5.0,0.0,11.0,1.0,-11006.0,-11078.0,1420.0,-4754.0,0.0,3.0,-3.0,-3.0,-6.0,10.0,7.0,-2.0,0.1763005256652832
83,6.0,3.0,7.0,1.0,-11005.0,-11078.0,1420.0,-4754.0,0.0,3.0,-3.0,-3.0,-6.0,10.0,7.0,-2.0,0.17875075340270996
84,6.0,3.0,7.0,1.0,-11005.0,-11078.0,1420.0,-4754.0,-3.0,9.0,17.0,-5.0,19.0,1.0,-2.0,1.0,0.18072819709777832
85,6.0,3.0,7.0,1.0,-11005.0,-11078.0,1420.0,-4754.0,2.0,6.0,6.0,3.0,14.0,2.0,3.0,1.0,0.18254518508911133
86,26.0,-5.0,17.0,1.0,-11000.0,-11081.0,1423.0,-4758.0,2.0,6.0,6.0,3.0,14.0,2.0,3.0,1.0,0.18432402610778809
87,26.0,-5.0,17.0,1.0,-11000.0,-11081.0,1423.0,-4758.0,-4.0,-10.0,-29.0,-4.0,1.0,3.0,-2.0,-4.0,0.18619775772094727
88,26.0,-5.0,17.0,1.0,-11000.0,-11081.0,1423.0,-4758.0,0.0,-1.0,17.0,-2.0,-15.0,-8.0,9.0,1.0,0.1879734992980957
89,45.0,6.0,26.0,1.0,-10993.0,-11087.0,1422.0,-4761.0,0.0,-1.0,17.0,-2.0,-15.0,-8.0,9.0,1.0,0.18993234634399414
90,45.0,6.0,26.0,1.0,-10993.0,-11087.0,1422.0,-4761.0,3.0,5.0,-1.0,-11.0,-6.0,-3.0,9.0,-16.0,0.19240260124206543
91,45.0,6.0,26.0,1.0,-10993.0,-11087.0,1422.0,-4761.0,-1.0,-17.0,-22.0,-9.0,1.0,7.0,-2.0,2.0,0.1942739486694336
92,-5.0,21.0,43.0,1.0,-10992.0,-11085.0,1423.0,-4767.0,-1.0,-17.0,-22.0,-9.0,1.0,7.0,-2.0,2.0,0.19608569145202637
93,-5.0,21.0,43.0,1.0,-10992.0,-11085.0,1423.0,-4767.0,2.0,3.0,-4.0,-4.0,-1.0,-4.0,-11.0,4.0,0.19794368743896484
94,-5.0,21.0,43.0,1.0,-10992.0,-11085.0,1423.0,-4767.0,-3.0,-7.0,-42.0,8.0,27.0,0.0,7.0,-1.0,0.1997063159942627
95,-64.0,19.0,43.0,1.0,-10998.0,-11077.0,1429.0,-4773.0,-3.0,-7.0,-42.0,8.0,27.0,0.0,7.0,-1.0,0.20149946212768555
96,-64.0,19.0,43.0,1.0,-10998.0,-11077.0,1429.0,-4773.0,2.0,-2.0,17.0,-2.0,-11.0,11.0,2.0,1.0,0.20363306999206543
97,-64.0,19.0,43.0,1.0,-10998.0,-11077.0,1429.0,-4773.0,2.0,18.0,35.0,-5.0,-10.0,-3.0,-3.0,3.0,0.20553159713745117
98,-48.0,31.0,37.0,1.0,-11003.0,-11068.0,1431.0,-4780.0,2.0,18.0,35.0,-5.0,-10.0,-3.0,-3.0,3.0,0.20869660377502441
99,-48.0,31.0,37.0,1.0,-11003.0,-11068.0,1431.0,-4780.0,3.0,7.0,40.0,6.0,7.0,3.0,0.0,1.0,0.21073007583618164
100,-48.0,31.0,37.0,1.0,-11003.0,-11068.0,1431.0,-4780.0,-5.0,-22.0,-10.0,7.0,0.0,1.0,-5.0,-4.0,0.21254563331604004
101,-10.0,8.0,39.0,1.0,-11001.0,-11067.0,1436.0,-4785.0,-5.0,-22.0,-10.0,7.0,0.0,1.0,-5.0,-4.0,0.21433806419372559
102,-10.0,8.0,39.0,1.0,-11001.0,-11067.0,1436.0,-4785.0,-3.0,0.0,34.0,-4.0,-17.0,-1.0,1.0,1.0,0.2162177562713623
103,-10.0,8.0,39.0,1.0,-11001.0,-11067.0,1436.0,-4785.0,2.0,1.0,14.0,-3.0,-11.0,-6.0,1.0,0.0,0.2180016040802002
104,17.0,17.0,32.0,1.0,-10996.0,-11070.0,1436.0,-4789.0,2.0,1.0,14.0,-3.0,-11.0,-6.0,1.0,0.0,0.21978092193603516
105,17.0,17.0,32.0,1.0,-10996.0,-11070.0,1436.0,-4789.0,-2.0,-3.0,-20.0,-2.0,-4.0,-6.0,-4.0,2.0,0.22162079811096191
106,17.0,17.0,32.0,1.0,-10996.0,-11070.0,1436.0,-4789.0,12.0,33.0,54.0,-3.0,7.0,10.0,6.0,2.0,0.22423243522644043
107,-21.0,17.0,20.0,1.0,-10999.0,-11067.0,1434.0,-4791.0,12.0,33.0,54.0,-3.0,7.0,10.0,6.0,2.0,0.22621870040893555
108,-21.0,17.0,20.0,1.0,-10999.0,-11067.0,1434.0,-4791.0,-4.0,-11.0,-27.0,-2.0,2.0,-3.0,-5.0,0.0,0.22810912132263184
109,-21.0,17.0,20.0,1.0,-10999.0,-11067.0,1434.0,-4791.0,-10.0,-15.0,-30.0,-5.0,-20.0,-31.0,-7.0,-14.0,0.22989606857299805
110,-18.0,20.0,29.0,1.0,-10998.0,-11066.0,1434.0,-4793.0,-10.0,-15.0,-30.0,-5.0,-20.0,-31.0,-7.0,-14.0,0.23166847229003906
111,-18.0,20.0,29.0,1.0,-10998.0,-11066.0,1434.0,-4793.0,6.0,11.0,-35.0,6.0,6.0,-2.0,2.0,3.0,0.2335052490234375
112,-18.0,20.0,29.0,1.0,-10998.0,-11066.0,1434.0,-4793.0,-2.0,-1.0,-3.0,4.0,3.0,1.0,1.0,2.0,0.2352771759033203
113,-25.0,22.0,33.0,1.0,-10999.0,-11066.0,1433.0,-4795.0,-2.0,-1.0,-3.0,4.0,3.0,1.0,1.0,2.0,0.23810362815856934
114,-25.0,22.0,33.0,1.0,-10999.0,-11066.0,1433.0,-4795.0,-3.0,-15.0,-22.0,7.0,22.0,2.0,-3.0,-2.0,0.241837739944458
115,-25.0,22.0,33.0,1.0,-10999.0,-11066.0,1433.0,-4795.0,-2.0,-5.0,6.0,-4.0,-13.0,-29.0,-27.0,-7.0,0.2438035011291504
116,-53.0,20.0,33.0,1.0,-11002.0,-11061.0,1435.0,-4797.0,-2.0,-5.0,6.0,-4.0,-13.0,-29.0,-27.0,-7.0,0.24562573432922363
117,-53.0,20.0,33.0,1.0,-11002.0,-11061.0,1435.0,-4797.0,-5.0,-15.0,-42.0,-3.0,-1.0,2.0,-4.0,2.0,0.2475111484527588
118,-53.0,20.0,33.0,1.0,-11002.0,-11061.0,1435.0,-4797.0,1.0,1.0,14.0,-2.0,1.0,20.0,0.0,1.0,0.24929428100585938
119,-5.0,4.0,30.0,1.0,-11000.0,-11063.0,1436.0,-4798.0,1.0,1.0,14.0,-2.0,1.0,20.0,0.0,1.0,0.25107574462890625
120,-5.0,4.0,30.0,1.0,-11000.0,-11063.0,1436.0,-4798.0,2.0,21.0,49.0,-6.0,-19.0,-9.0,3.0,0.0,0.25313901901245117
121,-5.0,4.0,30.0,1.0,-11000.0,-11063.0,1436.0,-4798.0,-3.0,-6.0,-34.0,-1.0,2.0,-1.0,3.0,2.0,0.2550067901611328
122,22.0,1.0,28.0,1.0,-10993.0,-11070.0,1436.0,-4798.0,-3.0,-6.0,-34.0,-1.0,2.0,-1.0,3.0,2.0,0.25678467750549316
123,22.0,1.0,28.0,1.0,-10993.0,-11070.0,1436.0,-4798.0,-1.0,-4.0,-3.0,-4.0,3.0,5.0,3.0,-1.0,0.2586355209350586
124,22.0,1.0,28.0,1.0,-10993.0,-11070.0,1436.0,-4798.0,7.0,31.0,30.0,4.0,-4.0,4.0,7.0,4.0,0.26042914390563965
125,21.0,-3.0,21.0,1.0,-10987.0,-11075.0,1437.0,-4799.0,7.0,31.0,30.0,4.0,-4.0,4.0,7.0,4.0,0.26219725608825684
126,21.0,-3.0,21.0,1.0,-10987.0,-11075.0,1437.0,-4799.0,0.0,2.0,14.0,1.0,-8.0,4.0,-4.0,1.0,0.2640254497528076
127,21.0,-3.0,21.0,1.0,-10987.0,-11075.0,1437.0,-4799.0,-5.0,-12.0,-36.0,-6.0,-22.0,1.0,2.0,-2.0,0.26578354835510254
128,36.0,-3.0,6.0,1.0,-10980.0,-11083.0,1435.0,-4797.0,-5.0,-12.0,-36.0,-6.0,-22.0,1.0,2.0,-2.0,0.2683603763580322
129,36.0,-3.0,6.0,1.0,-10980.0,-11083.0,1435.0,-4797.0,-2.0,5.0,30.0,2.0,-6.0,-10.0,2.0,0.0,0.2709670066833496
130,36.0,-3.0,6.0,1.0,-10980.0,-11083.0,1435.0,-4797.0,-4.0,-8.0,-1.0,0.0,24.0,20.0,7.0,-1.0,0.2729976177215576
131,2.0,12.0,6.0,1.0,-10980.0,-11083.0,1434.0,-4796.0,-4.0,-8.0,-1.0,0.0,24.0,20.0,7.0,-1.0,0.27542638778686523
132,2.0,12.0,6.0,1.0,-10980.0,-11083.0,1434.0,-4796.0,0.0,-16.0,-10.0,1.0,0.0,-10.0,-5.0,-1.0,0.2773733139038086
133,2.0,12.0,6.0,1.0,-10980.0,-11083.0,1434.0,-4796.0,3.0,-2.0,1.0,-3.0,-7.0,0.0,0.0,1.0,0.27925777435302734
134,-11.0,-6.0,4.0,1.0,-10980.0,-11084.0,1433.0,-4795.0,3.0,-2.0,1.0,-3.0,-7.0,0.0,0.0,1.0,0.2810657024383545
135,-11.0,-6.0,4.0,1.0,-10980.0,-11084.0,1433.0,-4795.0,2.0,10.0,3.0,0.0,-2.0,2.0,3.0,0.0,0.2829575538635254
136,-11.0,-6.0,4.0,1.0,-10980.0,-11084.0,1433.0,-4795.0,-4.0,-9.0,7.0,2.0,18.0,1.0,-2.0,0.0,0.28475260734558105
137,39.0,-27.0,-7.0,1.0,-10973.0,-11094.0,1431.0,-4788.0,-4.0,-9.0,7.0,2.0,18.0,1.0,-2.0,0.0,0.30266857147216797
138,39.0,-27.0,-7.0,1.0,-10973.0,-11094.0,1431.0,-4788.0,2.0,18.0,44.0,-3.0,15.0,1.0,-2.0,-2.0,0.3046574592590332
139,39.0,-27.0,-7.0,1.0,-10973.0,-11094.0,1431.0,-4788.0,-1.0,7.0,56.0,8.0,15.0,9.0,5.0,-2.0,0.3071327209472656
140,-18.0,-11.0,2.0,1.0,-10975.0,-11093.0,1432.0,-4785.0,-1.0,7.0,56.0,8.0,15.0,9.0,5.0,-2.0,0.31565046310424805
141,-18.0,-11.0,2.0,1.0,-10975.0,-11093.0,1432.0,-4785.0,-2.0,-6.0,-12.0,-3.0,-6.0,-4.0,-4.0,-2.0,0.32391881942749023
142,-18.0,-11.0,2.0,1.0,-10975.0,-11093.0,1432.0,-4785.0,-1.0,3.0,-41.0,-8.0,-4.0,2.0,2.0,3.0,0.3256809711456299
143,-22.0,-5.0,-5.0,1.0,-10978.0,-11091.0,1433.0,-4784.0,-1.0,3.0,-41.0,-8.0,-4.0,2.0,2.0,3.0,0.3409919738769531
144,-22.0,-5.0,-5.0,1.0,-10978.0,-11091.0,1433.0,-4784.0,5.0,-1.0,10.0,14.0,-10.0,-5.0,2.0,2.0,0.3448753356933594
145,-22.0,-5.0,-5.0,1.0,-10978.0,-11091.0,1433.0,-4784.0,-9.0,-35.0,-44.0,2.0,7.0,6.0,-2.0,-5.0,0.34847474098205566
146,48.0,-2.0,7.0,1.0,-10970.0,-11099.0,1432.0,-4785.0,-9.0,-35.0,-44.0,2.0,7.0,6.0,-2.0,-5.0,0.3641493320465088
147,48.0,-2.0,7.0,1.0,-10970.0,-11099.0,1432.0,-4785.0,2.0,-3.0,2.0,0.0,18.0,5.0,2.0,1.0,0.36783456802368164
148,48.0,-2.0,7.0,1.0,-10970.0,-11099.0,1432.0,-4785.0,-1.0,-1.0,14.0,4.0,-12.0,10.0,-2.0,-1.0,0.37126684188842773
149,73.0,-10.0,12.0,1.0,-10958.0,-11111.0,1429.0,-4784.0,-1.0,-1.0,14.0,4.0,-12.0,10.0,-2.0,-1.0,0.38564348220825195
150,73.0,-10.0,12.0,1.0,-10958.0,-11111.0,1429.0,-4784.0,-5.0,1.0,-38.0,-3.0,-3.0,-7.0,-5.0,-5.0,0.38828611373901367
151,73.0,-10.0,12.0,1.0,-10958.0,-11111.0,1429.0,-4784.0,2.0,-2.0,-18.0,-8.0,-3.0,-14.0,0.0,2.0,0.39053893089294434
152,0.0,-3.0,12.0,1.0,-10958.0,-11112.0,1429.0,-4783.0,2.0,-2.0,-18.0,-8.0,-3.0,-14.0,0.0,2.0,0.40796852111816406
153,0.0,-3.0,12.0,1.0,-10958.0,-11112.0,1429.0,-4783.0,-5.0,5.0,-14.0,-2.0,11.0,-5.0,-1.0,-1.0,0.41115665435791016
154,0.0,-3.0,12.0,1.0,-10958.0,-11112.0,1429.0,-4783.0,1.0,13.0,-19.0,0.0,3.0,1.0,-1.0,-2.0,0.4141387939453125
155,-45.0,5.0,10.0,1.0,-10962.0,-11107.0,1433.0,-4784.0,1.0,13.0,-19.0,0.0,3.0,1.0,-1.0,-2.0,0.42250585556030273
156,-45.0,5.0,10.0,1.0,-10962.0,-11107.0,1433.0,-4784.0,3.0,1.0,-6.0,-4.0,-9.0,-3.0,-1.0,0.0,0.4251136779785156
157,-45.0,5.0,10.0,1.0,-10962.0,-11107.0,1433.0,-4784.0,7.0,6.0,-8.0,-4.0,-11.0,-3.0,0.0,-1.0,0.4269073009490967
158,-4.0,11.0,12.0,1.0,-10961.0,-11107.0,1433.0,-4785.0,7.0,6.0,-8.0,-4.0,-11.0,-3.0,0.0,-1.0,0.44454026222229004
159,-4.0,11.0,12.0,1.0,-10961.0,-11107.0,1433.0,-4785.0,-2.0,4.0,-4.0,5.0,11.0,-4.0,-1.0,-4.0,0.44645118713378906
160,-4.0,11.0,12.0,1.0,-10961.0,-11107.0,1433.0,-4785.0,-2.0,-24.0,-14.0,0.0,1.0,-3.0,0.0,-3.0,0.4482076168060303
161,49.0,19.0,19.0,1.0,-10955.0,-11112.0,1430.0,-4790.0,-2.0,-24.0,-14.0,0.0,1.0,-3.0,0.0,-3.0,0.468186616897583
162,49.0,19.0,19.0,1.0,-10955.0,-11112.0,1430.0,-4790.0,-1.0,-5.0,-7.0,0.0,-23.0,-2.0,-3.0,-14.0,0.4717440605163574
163,49.0,19.0,19.0,1.0,-10955.0,-11112.0,1430.0,-4790.0,0.0,7.0,-5.0,-2.0,-3.0,-12.0,-3.0,0.0,0.47488903999328613
164,14.0,15.0,29.0,1.0,-10951.0,-11115.0,1428.0,-4791.0,0.0,7.0,-5.0,-2.0,-3.0,-12.0,-3.0,0.0,0.48210573196411133
165,14.0,15.0,29.0,1.0,-10951.0,-11115.0,1428.0,-4791.0,0.0,-6.0,-31.0,0.0,-4.0,6.0,1.0,4.0,0.484682559967041
166,14.0,15.0,29.0,1.0,-10951.0,-11115.0,1428.0,-4791.0,3.0,10.0,5.0,1.0,-23.0,6.0,2.0,5.0,0.4877660274505615
167,-26.0,14.0,27.0,1.0,-10952.0,-11113.0,1429.0,-4793.0,3.0,10.0,5.0,1.0,-23.0,6.0,2.0,5.0,0.5046870708465576
168,-26.0,14.0,27.0,1.0,-10952.0,-11113.0,1429.0,-4793.0,-1.0,7.0,35.0,-3.0,-5.0,4.0,30.0,2.0,0.5067610740661621
169,-26.0,14.0,27.0,1.0,-10952.0,-11113.0,1429.0,-4793.0,-3.0,-8.0,0.0,4.0,8.0,-14.0,1.0,-2.0,0.5087070465087891
170,-20.0,13.0,22.0,1.0,-10953.0,-11111.0,1430.0,-4795.0,-3.0,-8.0,0.0,4.0,8.0,-14.0,1.0,-2.0,0.5278432369232178
171,-20.0,13.0,22.0,1.0,-10953.0,-11111.0,1430.0,-4795.0,-5.0,-9.0,50.0,-1.0,3.0,19.0,-10.0,2.0,0.5313727855682373
172,-20.0,13.0,22.0,1.0,-10953.0,-11111.0,1430.0,-4795.0,-1.0,13.0,72.0,3.0,18.0,-7.0,-6.0,-1.0,0.5347292423248291
173,-22.0,15.0,22.0,1.0,-10955.0,-11107.0,1431.0,-4799.0,-1.0,13.0,72.0,3.0,18.0,-7.0,-6.0,-1.0,0.5427780151367188
174,-22.0,15.0,22.0,1.0,-10955.0,-11107.0,1431.0,-4799.0,2.0,18.0,2.0,0.0,15.0,4.0,-3.0,-1.0,0.5450966358184814
175,-22.0,15.0,22.0,1.0,-10955.0,-11107.0,1431.0,-4799.0,6.0,12.0,-13.0,-7.0,-3.0,7.0,1.0,-1.0,0.5477111339569092
176,-2.0,20.0,25.0,1.0,-10954.0,-11107.0,1430.0,-4802.0,6.0,12.0,-13.0,-7.0,-3.0,7.0,1.0,-1.0,0.564673900604248
177,-2.0,20.0,25.0,1.0,-10954.0,-11107.0,1430.0,-4802.0,-4.0,-16.0,-33.0,-5.0,7.0,-2.0,-3.0,2.0,0.5665693283081055
178,-2.0,20.0,25.0,1.0,-10954.0,-11107.0,1430.0,-4802.0,-3.0,-4.0,20.0,-1.0,-11.0,-12.0,-4.0,0.0,0.5683281421661377
179,-5.0,22.0,17.0,1.0,-10953.0,-11107.0,1428.0,-4805.0,-3.0,-4.0,20.0,-1.0,-11.0,-12.0,-4.0,0.0,0.5880217552185059
180,-5.0,22.0,17.0,1.0,-10953.0,-11107.0,1428.0,-4805.0,4.0,0.0,13.0,0.0,-19.0,0.0,-3.0,1.0,0.5920941829681396
181,-5.0,22.0,17.0,1.0,-10953.0,-11107.0,1428.0,-4805.0,3.0,7.0,21.0,-3.0,-5.0,9.0,0.0,1.0,0.5952935218811035
182,-9.0,20.0,0.0,1.0,-10955.0,-11106.0,1421.0,-4803.0,3.0,7.0,21.0,-3.0,-5.0,9.0,0.0,1.0,0.6022443771362305
183,-9.0,20.0,0.0,1.0,-10955.0,-11106.0,1421.0,-4803.0,-3.0,0.0,7.0,4.0,1.0,-8.0,-10.0,-11.0,0.6053650379180908
184,-9.0,20.0,0.0,1.0,-10955.0,-11106.0,1421.0,-4803.0,2.0,11.0,2.0,-4.0,-1.0,5.0,4.0,0.0,0.6264317035675049
185,-19.0,14.0,-11.0,1.0,-10957.0,-11107.0,1416.0,-4799.0,2.0,11.0,2.0,-4.0,-1.0,5.0,4.0,0.0,0.6296131610870361
186,-19.0,14.0,-11.0,1.0,-10957.0,-11107.0,1416.0,-4799.0,-5.0,-9.0,-27.0,-6.0,-2.0,-2.0,-28.0,1.0,0.632932186126709
187,-19.0,14.0,-11.0,1.0,-10957.0,-11107.0,1416.0,-4799.0,-2.0,-4.0,4.0,4.0,24.0,-1.0,-3.0,-1.0,0.6366715431213379
188,-53.0,10.0,-9.0,1.0,-10964.0,-11102.0,1415.0,-4796.0,-2.0,-4.0,4.0,4.0,24.0,-1.0,-3.0,-1.0,0.6469860076904297
189,-53.0,10.0,-9.0,1.0,-10964.0,-11102.0,1415.0,-4796.0,-2.0,-12.0,-35.0,-3.0,-10.0,-1.0,-1.0,1.0,0.6488544940948486
190,-53.0,10.0,-9.0,1.0,-10964.0,-11102.0,1415.0,-4796.0,-1.0,6.0,31.0,9.0,35.0,6.0,0.0,0.0,0.6506600379943848
191,-22.0,-1.0,-24.0,1.0,-10967.0,-11101.0,1413.0,-4792.0,-1.0,6.0,31.0,9.0,35.0,6.0,0.0,0.0,0.6612675189971924
192,-22.0,-1.0,-24.0,1.0,-10967.0,-11101.0,1413.0,-4792.0,-1.0,-13.0,-35.0,-3.0,-10.0,-8.0,-1.0,-2.0,0.663177490234375
193,-22.0,-1.0,-24.0,1.0,-10967.0,-11101.0,1413.0,-4792.0,-7.0,-27.0,-28.0,1.0,0.0,-9.0,3.0,-1.0,0.6679518222808838
194,21.0,3.0,-9.0,1.0,-10964.0,-11103.0,1412.0,-4793.0,-7.0,-27.0,-28.0,1.0,0.0,-9.0,3.0,-1.0,0.6842920780181885
195,21.0,3.0,-9.0,1.0,-10964.0,-11103.0,1412.0,-4793.0,-2.0,4.0,-9.0,2.0,5.0,3.0,6.0,2.0,0.6869196891784668
196,21.0,3.0,-9.0,1.0,-10964.0,-11103.0,1412.0,-4793.0,-4.0,1.0,3.0,-5.0,1.0,3.0,-3.0,-4.0,0.6899130344390869
197,50.0,4.0,7.0,1.0,-10958.0,-11110.0,1407.0,-4793.0,-4.0,1.0,3.0,-5.0,1.0,3.0,-3.0,-4.0,0.7089400291442871
198,50.0,4.0,7.0,1.0,-10958.0,-11110.0,1407.0,-4793.0,-5.0,1.0,30.0,4.0,4.0,-5.0,4.0,4.0,0.7139310836791992
199,50.0,4.0,7.0,1.0,-10958.0,-11110.0,1407.0,-4793.0,0.0,4.0,-23.0,-6.0,-8.0,1.0,-4.0,-2.0,0.716454267501831
200,-7.0,23.0,14.0,1.0,-10959.0,-11109.0,1403.0,-4795.0,0.0,4.0,-23.0,-6.0,-8.0,1.0,-4.0,-2.0,0.7212088108062744
201,-7.0,23.0,14.0,1.0,-10959.0,-11109.0,1403.0,-4795.0,1.0,-11.0,-23.0,3.0,18.0,7.0,4.0,-3.0,0.7230930328369141
202,-7.0,23.0,14.0,1.0,-10959.0,-11109.0,1403.0,-4795.0,5.0,8.0,-40.0,-4.0,2.0,0.0,3.0,2.0,0.7278923988342285
203,-71.0,27.0,35.0,1.0,-10968.0,-11096.0,1407.0,-4801.0,5.0,8.0,-40.0,-4.0,2.0,0.0,3.0,2.0,0.7522683143615723
204,-71.0,27.0,35.0,1.0,-10968.0,-11096.0,1407.0,-4801.0,1.0,1.0,19.0,-3.0,-8.0,11.0,0.0,6.0,0.7556242942810059
205,-71.0,27.0,35.0,1.0,-10968.0,-11096.0,1407.0,-4801.0,2.0,9.0,23.0,0.0,-9.0,-6.0,0.0,0.0,0.7587625980377197
206,-34.0,19.0,40.0,1.0,-10976.0,-11083.0,1413.0,-4813.0,2.0,9.0,23.0,0.0,-9.0,-6.0,0.0,0.0,0.7677783966064453
207,-34.0,19.0,40.0,1.0,-10976.0,-11083.0,1413.0,-4813.0,2.0,8.0,12.0,2.0,4.0,1.0,0.0,-3.0,0.7697336673736572
208,-34.0,19.0,40.0,1.0,-10976.0,-11083.0,1413.0,-4813.0,-7.0,-16.0,5.0,1.0,-11.0,1.0,-3.0,-4.0,0.7715580463409424
209,24.0,11.0,26.0,1.0,-10978.0,-11077.0,1413.0,-4821.0,-7.0,-16.0,5.0,1.0,-11.0,1.0,-3.0,-4.0,0.7810211181640625
210,24.0,11.0,26.0,1.0,-10978.0,-11077.0,1413.0,-4821.0,-2.0,-4.0,35.0,-1.0,-2.0,-14.0,2.0,-3.0,0.782883882522583
211,24.0,11.0,26.0,1.0,-10978.0,-11077.0,1413.0,-4821.0,-4.0,-17.0,6.0,-2.0,-20.0,-10.0,-4.0,0.0,0.7880814075469971
212,64.0,26.0,16.0,1.0,-10977.0,-11077.0,1404.0,-4827.0,-4.0,-17.0,6.0,-2.0,-20.0,-10.0,-4.0,0.0,0.8051161766052246
213,64.0,26.0,16.0,1.0,-10977.0,-11077.0,1404.0,-4827.0,-3.0,-6.0,23.0,-7.0,-29.0,-10.0,0.0,4.0,0.808668851852417
214,64.0,26.0,16.0,1.0,-10977.0,-11077.0,1404.0,-4827.0,-4.0,-17.0,-69.0,4.0,0.0,-7.0,-1.0,1.0,0.8104796409606934
215,58.0,52.0,38.0,1.0,-10979.0,-11071.0,1393.0,-4838.0,-4.0,-17.0,-69.0,4.0,0.0,-7.0,-1.0,1.0,0.8286130428314209
216,58.0,52.0,38.0,1.0,-10979.0,-11071.0,1393.0,-4838.0,2.0,53.0,83.0,10.0,-2.0,33.0,-22.0,1.0,0.832298994064331
217,58.0,52.0,38.0,1.0,-10979.0,-11071.0,1393.0,-4838.0,8.0,20.0,78.0,24.0,11.0,-10.0,-4.0,2.0,0.8352582454681396
218,51.0,32.0,93.0,1.0,-10991.0,-11050.0,1392.0,-4861.0,8.0,20.0,78.0,24.0,11.0,-10.0,-4.0,2.0,0.8410911560058594
219,51.0,32.0,93.0,1.0,-10991.0,-11050.0,1392.0,-4861.0,-3.0,2.0,0.0,0.0,13.0,5.0,6.0,-10.0,0.8485167026519775
220,51.0,32.0,93.0,1.0,-10991.0,-11050.0,1392.0,-4861.0,10.0,33.0,-25.0,-31.0,86.0,-8.0,-48.0,-11.0,0.8502964973449707
221,169.0,17.0,98.0,1.0,-10994.0,-11036.0,1384.0,-4886.0,10.0,33.0,-25.0,-31.0,86.0,-8.0,-48.0,-11.0,0.8645930290222168
222,169.0,17.0,98.0,1.0,-10994.0,-11036.0,1384.0,-4886.0,-5.0,-10.0,-64.0,-21.0,-19.0,-12.0,-58.0,10.0,0.8670518398284912
223,169.0,17.0,98.0,1.0,-10994.0,-11036.0,1384.0,-4886.0,0.0,-14.0,-8.0,26.0,-6.0,38.0,11.0,1.0,0.8701865673065186
224,77.0,76.0,-28.0,1.0,-11016.0,-11014.0,1355.0,-4897.0,0.0,-14.0,-8.0,26.0,-6.0,38.0,11.0,1.0,0.8887522220611572
225,77.0,76.0,-28.0,1.0,-11016.0,-11014.0,1355.0,-4897.0,2.0,-6.0,-56.0,1.0,-23.0,-19.0,33.0,7.0,0.89361572265625
226,77.0,76.0,-28.0,1.0,-11016.0,-11014.0,1355.0,-4897.0,-7.0,-10.0,7.0,20.0,9.0,22.0,-30.0,-2.0,0.8975603580474854
227,-113.0,204.0,-252.0,1.0,-11078.0,-10961.0,1292.0,-4893.0,-7.0,-10.0,7.0,20.0,9.0,22.0,-30.0,-2.0,0.9001445770263672
228,-113.0,204.0,-252.0,1.0,-11078.0,-10961.0,1292.0,-4893.0,4.0,-15.0,-47.0,-50.0,-19.0,-20.0,104.0,-25.0,0.9091119766235352
229,-113.0,204.0,-252.0,1.0,-11078.0,-10961.0,1292.0,-4893.0,1.0,-5.0,-17.0,-37.0,-28.0,-4.0,24.0,-4.0,0.9109196662902832
230,-228.0,397.0,-382.0,1.0,-11172.0,-10887.0,1172.0,-4875.0,1.0,-5.0,-17.0,-37.0,-28.0,-4.0,24.0,-4.0,0.9256677627563477
231,-228.0,397.0,-382.0,1.0,-11172.0,-10887.0,1172.0,-4875.0,-8.0,-30.0,-24.0,9.0,27.0,24.0,-30.0,7.0,0.92759108543396
232,-228.0,397.0,-382.0,1.0,-11172.0,-10887.0,1172.0,-4875.0,-4.0,-16.0,-108.0,-23.0,-18.0,-6.0,42.0,12.0,0.9293546676635742
233,-639.0,602.0,-442.0,1.0,-11335.0,-10739.0,1023.0,-4858.0,-4.0,-16.0,-108.0,-23.0,-18.0,-6.0,42.0,12.0,0.9476897716522217
234,-639.0,602.0,-442.0,1.0,-11335.0,-10739.0,1023.0,-4858.0,13.0,40.0,-1.0,50.0,25.0,11.0,-10.0,11.0,0.9512588977813721
235,-639.0,602.0,-442.0,1.0,-11335.0,-10739.0,1023.0,-4858.0,-1.0,10.0,-15.0,-6.0,-46.0,-14.0,-32.0,7.0,0.9549806118011475
236,-1132.0,701.0,-401.0,1.0,-11548.0,-10517.0,907.0,-4866.0,-1.0,10.0,-15.0,-6.0,-46.0,-14.0,-32.0,7.0,0.9603443145751953
237,-1132.0,701.0,-401.0,1.0,-11548.0,-10517.0,907.0,-4866.0,6.0,44.0,78.0,61.0,21.0,10.0,-44.0,-5.0,0.969099760055542
238,-1132.0,701.0,-401.0,1.0,-11548.0,-10517.0,907.0,-4866.0,8.0,30.0,88.0,89.0,3.0,-6.0,52.0,9.0,0.9709587097167969
239,-1590.0,843.0,-588.0,1.0,-11808.0,-10223.0,811.0,-4886.0,8.0,30.0,88.0,89.0,3.0,-6.0,52.0,9.0,0.9849846363067627
240,-1590.0,843.0,-588.0,1.0,-11808.0,-10223.0,811.0,-4886.0,0.0,-13.0,-28.0,33.0,-92.0,3.0,6.0,0.0,0.9876976013183594
241,-1590.0,843.0,-588.0,1.0,-11808.0,-10223.0,811.0,-4886.0,-3.0,-15.0,-31.0,-95.0,-30.0,6.0,-1.0,-4.0,0.9915697574615479
242,-1946.0,979.0,-923.0,1.0,-12090.0,-9909.0,686.0,-4863.0,-3.0,-15.0,-31.0,-95.0,-30.0,6.0,-1.0,-4.0,1.0078728199005127
243,-1946.0,979.0,-923.0,1.0,-12090.0,-9909.0,686.0,-4863.0,-7.0,-9.0,24.0,-12.0,86.0,-22.0,-6.0,-6.0,1.0113887786865234
244,-1946.0,979.0,-923.0,1.0,-12090.0,-9909.0,686.0,-4863.0,-6.0,-20.0,21.0,-45.0,11.0,-18.0,-4.0,-4.0,1.0154433250427246
245,-2009.0,1229.0,-1195.0,1.0,-12384.0,-9569.0,500.0,-4825.0,-6.0,-20.0,21.0,-45.0,11.0,-18.0,-4.0,-4.0,1.021712064743042
246,-2009.0,1229.0,-1195.0,1.0,-12384.0,-9569.0,500.0,-4825.0,-22.0,-85.0,-115.0,-62.0,-11.0,-6.0,4.0,-9.0,1.028653621673584
247,-2009.0,1229.0,-1195.0,1.0,-12384.0,-9569.0,500.0,-4825.0,-7.0,0.0,59.0,26.0,32.0,-5.0,2.0,-5.0,1.030442237854004
248,-2243.0,1617.0,-1290.0,1.0,-12696.0,-9173.0,257.0,-4802.0,-7.0,0.0,59.0,26.0,32.0,-5.0,2.0,-5.0,1.0449659824371338
249,-2243.0,1617.0,-1290.0,1.0,-12696.0,-9173.0,257.0,-4802.0,-10.0,-22.0,5.0,33.0,-20.0,1.0,1.0,-5.0,1.0480539798736572
250,-2243.0,1617.0,-1290.0,1.0,-12696.0,-9173.0,257.0,-4802.0,-1.0,0.0,-10.0,-34.0,-35.0,18.0,-9.0,-4.0,1.0510032176971436
251,-2707.0,1974.0,-1329.0,1.0,-13033.0,-8692.0,-13.0,-4802.0,-1.0,0.0,-10.0,-34.0,-35.0,18.0,-9.0,-4.0,1.067990779876709
252,-2707.0,1974.0,-1329.0,1.0,-13033.0,-8692.0,-13.0,-4802.0,-7.0,-24.0,-23.0,-63.0,-21.0,13.0,8.0,-2.0,1.0720632076263428
253,-2707.0,1974.0,-1329.0,1.0,-13033.0,-8692.0,-13.0,-4802.0,2.0,-1.0,4.0,-6.0,-12.0,6.0,-7.0,-4.0,1.0764055252075195
254,-2797.0,2189.0,-1517.0,1.0,-13357.0,-8186.0,-321.0,-4788.0,2.0,-1.0,4.0,-6.0,-12.0,6.0,-7.0,-4.0,1.0806312561035156
255,-2797.0,2189.0,-1517.0,1.0,-13357.0,-8186.0,-321.0,-4788.0,-1.0,-9.0,-74.0,-21.0,8.0,-14.0,8.0,2.0,1.089263916015625
256,-2797.0,2189.0,-1517.0,1.0,-13357.0,-8186.0,-321.0,-4788.0,-4.0,-12.0,-20.0,27.0,-1.0,-5.0,3.0,-2.0,1.0915868282318115
257,-3343.0,2333.0,-1696.0,1.0,-13711.0,-7580.0,-630.0,-4756.0,-4.0,-12.0,-20.0,27.0,-1.0,-5.0,3.0,-2.0,1.1039409637451172
258,-3343.0,2333.0,-1696.0,1.0,-13711.0,-7580.0,-630.0,-4756.0,-3.0,0.0,14.0,3.0,5.0,-5.0,-7.0,0.0,1.1120460033416748
259,-3343.0,2333.0,-1696.0,1.0,-13711.0,-7580.0,-630.0,-4756.0,-5.0,-1.0,-12.0,6.0,8.0,1.0,-1.0,-1.0,1.1148242950439453
260,-3640.0,2503.0,-1837.0,1.0,-14059.0,-6907.0,-953.0,-4711.0,-5.0,-1.0,-12.0,6.0,8.0,1.0,-1.0,-1.0,1.1273314952850342
261,-3640.0,2503.0,-1837.0,1.0,-14059.0,-6907.0,-953.0,-4711.0,23.0,71.0,31.0,3.0,15.0,5.0,1.0,8.0,1.1308577060699463
262,-3640.0,2503.0,-1837.0,1.0,-14059.0,-6907.0,-953.0,-4711.0,-1.0,-7.0,-20.0,12.0,-3.0,-5.0,-4.0,-2.0,1.1342413425445557
263,-4047.0,2597.0,-1994.0,1.0,-14400.0,-6159.0,-1273.0,-4642.0,-1.0,-7.0,-20.0,12.0,-3.0,-5.0,-4.0,-2.0,1.1428720951080322
264,-4047.0,2597.0,-1994.0,1.0,-14400.0,-6159.0,-1273.0,-4642.0,-6.0,-12.0,62.0,-31.0,-10.0,-10.0,-2.0,-3.0,1.148977279663086
265,-4047.0,2597.0,-1994.0,1.0,-14400.0,-6159.0,-1273.0,-4642.0,1.0,-3.0,-9.0,6.0,-12.0,-8.0,-3.0,-5.0,1.1508049964904785
266,-4617.0,2817.0,-2123.0,1.0,-14730.0,-5303.0,-1597.0,-4561.0,1.0,-3.0,-9.0,6.0,-12.0,-8.0,-3.0,-5.0,1.1641902923583984
267,-4617.0,2817.0,-2123.0,1.0,-14730.0,-5303.0,-1597.0,-4561.0,-4.0,-30.0,-23.0,28.0,-2.0,1.0,0.0,-1.0,1.1662368774414062
268,-4617.0,2817.0,-2123.0,1.0,-14730.0,-5303.0,-1597.0,-4561.0,4.0,10.0,-8.0,18.0,-6.0,2.0,4.0,2.0,1.1705269813537598
269,-4927.0,3090.0,-2206.0,1.0,-15019.0,-4370.0,-1950.0,-4470.0,4.0,10.0,-8.0,18.0,-6.0,2.0,4.0,2.0,1.1878015995025635
270,-4927.0,3090.0,-2206.0,1.0,-15019.0,-4370.0,-1950.0,-4470.0,3.0,-4.0,31.0,-23.0,-7.0,-16.0,-6.0,-4.0,1.191096544265747
271,-4927.0,3090.0,-2206.0,1.0,-15019.0,-4370.0,-1950.0,-4470.0,5.0,5.0,38.0,10.0,24.0,13.0,-26.0,20.0,1.1942341327667236
272,-4671.0,3402.0,-2432.0,1.0,-15241.0,-3432.0,-2370.0,-4333.0,5.0,5.0,38.0,10.0,24.0,13.0,-26.0,20.0,1.2020564079284668
273,-4671.0,3402.0,-2432.0,1.0,-15241.0,-3432.0,-2370.0,-4333.0,5.0,34.0,12.0,24.0,17.0,6.0,0.0,-9.0,1.2092080116271973
274,-4671.0,3402.0,-2432.0,1.0,-15241.0,-3432.0,-2370.0,-4333.0,6.0,19.0,41.0,3.0,4.0,-6.0,1.0,10.0,1.2110188007354736
275,-4048.0,3823.0,-2535.0,1.0,-15373.0,-2550.0,-2885.0,-4159.0,6.0,19.0,41.0,3.0,4.0,-6.0,1.0,10.0,1.2245688438415527
276,-4048.0,3823.0,-2535.0,1.0,-15373.0,-2550.0,-2885.0,-4159.0,-4.0,1.0,-9.0,0.0,10.0,0.0,-3.0,1.0,1.2278642654418945
277,-4048.0,3823.0,-2535.0,1.0,-15373.0,-2550.0,-2885.0,-4159.0,-5.0,-5.0,-3.0,-5.0,-7.0,-2.0,8.0,-5.0,1.231661081314087
278,-3203.0,4245.0,-2661.0,1.0,-15414.0,-1769.0,-3504.0,-3932.0,-5.0,-5.0,-3.0,-5.0,-7.0,-2.0,8.0,-5.0,1.2479586601257324
279,-3203.0,4245.0,-2661.0,1.0,-15414.0,-1769.0,-3504.0,-3932.0,0.0,4.0,68.0,9.0,-7.0,-5.0,3.0,1.0,1.2521772384643555
280,-3203.0,4245.0,-2661.0,1.0,-15414.0,-1769.0,-3504.0,-3932.0,-6.0,-14.0,-33.0,4.0,0.0,0.0,6.0,-10.0,1.2562317848205566
281,-2691.0,4598.0,-2821.0,1.0,-15376.0,-1042.0,-4199.0,-3651.0,-6.0,-14.0,-33.0,4.0,0.0,0.0,6.0,-10.0,1.260941505432129
282,-2691.0,4598.0,-2821.0,1.0,-15376.0,-1042.0,-4199.0,-3651.0,1.0,-5.0,4.0,7.0,5.0,-27.0,-8.0,1.0,1.2687501907348633
283,-2691.0,4598.0,-2821.0,1.0,-15376.0,-1042.0,-4199.0,-3651.0,1.0,4.0,-26.0,-6.0,5.0,4.0,7.0,-3.0,1.2707610130310059
284,-2720.0,4658.0,-2968.0,1.0,-15276.0,-295.0,-4889.0,-3333.0,1.0,4.0,-26.0,-6.0,5.0,4.0,7.0,-3.0,1.28377366065979
285,-2720.0,4658.0,-2968.0,1.0,-15276.0,-295.0,-4889.0,-3333.0,2.0,3.0,5.0,-1.0,-1.0,8.0,6.0,12.0,1.2862308025360107
286,-2720.0,4658.0,-2968.0,1.0,-15276.0,-295.0,-4889.0,-3333.0,-4.0,-3.0,-41.0,-1.0,5.0,-3.0,0.0,-19.0,1.2914345264434814
287,-2720.0,4682.0,-3167.0,1.0,-15113.0,479.0,-5571.0,-2965.0,-4.0,-3.0,-41.0,-1.0,5.0,-3.0,0.0,-19.0,1.3089308738708496
288,-2720.0,4682.0,-3167.0,1.0,-15113.0,479.0,-5571.0,-2965.0,-7.0,-17.0,-50.0,-1.0,0.0,35.0,3.0,-3.0,1.312518835067749
289,-2720.0,4682.0,-3167.0,1.0,-15113.0,479.0,-5571.0,-2965.0,-2.0,1.0,22.0,-5.0,-13.0,-2.0,-6.0,-1.0,1.3158864974975586
290,-2373.0,4534.0,-3407.0,1.0,-14899.0,1230.0,-6216.0,-2514.0,-2.0,1.0,22.0,-5.0,-13.0,-2.0,-6.0,-1.0,1.3295276165008545
291,-2373.0,4534.0,-3407.0,1.0,-14899.0,1230.0,-6216.0,-2514.0,-1.0,-6.0,0.0,-1.0,-1.0,21.0,-7.0,-8.0,1.3314423561096191
292,-2373.0,4534.0,-3407.0,1.0,-14899.0,1230.0,-6216.0,-2514.0,5.0,5.0,-28.0,6.0,33.0,14.0,42.0,16.0,1.333207368850708
293,-1282.0,4299.0,-3377.0,1.0,-14648.0,1813.0,-6834.0,-1977.0,5.0,5.0,-28.0,6.0,33.0,14.0,42.0,16.0,1.344029426574707
294,-1282.0,4299.0,-3377.0,1.0,-14648.0,1813.0,-6834.0,-1977.0,6.0,10.0,9.0,-8.0,4.0,-46.0,-30.0,-6.0,1.3462061882019043
295,-1282.0,4299.0,-3377.0,1.0,-14648.0,1813.0,-6834.0,-1977.0,1.0,0.0,35.0,-18.0,-7.0,26.0,-5.0,-3.0,1.3505127429962158
296,-17.0,3997.0,-3410.0,1.0,-14385.0,2193.0,-7412.0,-1333.0,1.0,0.0,35.0,-18.0,-7.0,26.0,-5.0,-3.0,1.3676176071166992
297,-17.0,3997.0,-3410.0,1.0,-14385.0,2193.0,-7412.0,-1333.0,2.0,9.0,19.0,12.0,8.0,13.0,30.0,11.0,1.370896816253662
298,-17.0,3997.0,-3410.0,1.0,-14385.0,2193.0,-7412.0,-1333.0,-12.0,-20.0,-19.0,-41.0,-7.0,45.0,-16.0,-10.0,1.3738412857055664
299,329.0,3359.0,-3298.0,1.0,-14130.0,2498.0,-7879.0,-686.0,-12.0,-20.0,-19.0,-41.0,-7.0,45.0,-16.0,-10.0,1.391669511795044
300,329.0,3359.0,-3298.0,1.0,-14130.0,2498.0,-7879.0,-686.0,1.0,11.0,-20.0,0.0,-25.0,-31.0,-8.0,3.0,1.39384126663208
301,329.0,3359.0,-3298.0,1.0,-14130.0,2498.0,-7879.0,-686.0,-5.0,-1.0,17.0,-1.0,-49.0,-16.0,1.0,-7.0,1.3956115245819092
302,-114.0,2616.0,-2972.0,1.0,-13887.0,2837.0,-8218.0,-142.0,-5.0,-1.0,17.0,-1.0,-49.0,-16.0,1.0,-7.0,1.4041502475738525
303,-114.0,2616.0,-2972.0,1.0,-13887.0,2837.0,-8218.0,-142.0,20.0,52.0,2.0,15.0,23.0,11.0,1.0,7.0,1.4060204029083252
304,-114.0,2616.0,-2972.0,1.0,-13887.0,2837.0,-8218.0,-142.0,4.0,4.0,7.0,5.0,-4.0,14.0,-7.0,7.0,1.4107770919799805
305,-227.0,1889.0,-2259.0,1.0,-13707.0,3075.0,-8430.0,238.0,4.0,4.0,7.0,5.0,-4.0,14.0,-7.0,7.0,1.4276046752929688
306,-227.0,1889.0,-2259.0,1.0,-13707.0,3075.0,-8430.0,238.0,-2.0,-22.0,-29.0,-2.0,-1.0,17.0,9.0,-5.0,1.4308960437774658
307,-227.0,1889.0,-2259.0,1.0,-13707.0,3075.0,-8430.0,238.0,0.0,10.0,4.0,-11.0,-4.0,-59.0,-22.0,-5.0,1.434025526046753
308,351.0,1200.0,-1099.0,1.0,-13603.0,3119.0,-8570.0,475.0,0.0,10.0,4.0,-11.0,-4.0,-59.0,-22.0,-5.0,1.4505040645599365
309,351.0,1200.0,-1099.0,1.0,-13603.0,3119.0,-8570.0,475.0,-1.0,0.0,14.0,-6.0,-16.0,14.0,11.0,1.0,1.453829050064087
310,351.0,1200.0,-1099.0,1.0,-13603.0,3119.0,-8570.0,475.0,-2.0,-15.0,11.0,16.0,19.0,-32.0,-9.0,-4.0,1.457535743713379
311,1400.0,354.0,-199.0,1.0,-13615.0,2928.0,-8608.0,647.0,-2.0,-15.0,11.0,16.0,19.0,-32.0,-9.0,-4.0,1.4729762077331543
312,1400.0,354.0,-199.0,1.0,-13615.0,2928.0,-8608.0,647.0,6.0,6.0,-1.0,3.0,-11.0,-23.0,1.0,-2.0,1.4773030281066895
313,1400.0,354.0,-199.0,1.0,-13615.0,2928.0,-8608.0,647.0,3.0,13.0,-14.0,24.0,27.0,-12.0,5.0,0.0,1.4808413982391357
314,1911.0,-227.0,737.0,1.0,-13699.0,2576.0,-8582.0,710.0,3.0,13.0,-14.0,24.0,27.0,-12.0,5.0,0.0,1.4870152473449707
315,1911.0,-227.0,737.0,1.0,-13699.0,2576.0,-8582.0,710.0,-3.0,-5.0,-39.0,-7.0,-21.0,15.0,-7.0,-1.0,1.4894709587097168
316,1911.0,-227.0,737.0,1.0,-13699.0,2576.0,-8582.0,710.0,-4.0,-25.0,-8.0,-1.0,-13.0,-27.0,13.0,0.0,1.4916753768920898
317,2081.0,-864.0,1718.0,1.0,-13845.0,2110.0,-8481.0,623.0,-4.0,-25.0,-8.0,-1.0,-13.0,-27.0,13.0,0.0,1.5109505653381348
318,2081.0,-864.0,1718.0,1.0,-13845.0,2110.0,-8481.0,623.0,-7.0,-19.0,-13.0,-13.0,6.0,-2.0,-22.0,-5.0,1.5144984722137451
319,2081.0,-864.0,1718.0,1.0,-13845.0,2110.0,-8481.0,623.0,7.0,-3.0,6.0,-2.0,-19.0,-15.0,15.0,5.0,1.5178537368774414
320,2411.0,-1321.0,2753.0,1.0,-14007.0,1550.0,-8348.0,426.0,7.0,-3.0,6.0,-2.0,-19.0,-15.0,15.0,5.0,1.5237677097320557
321,2411.0,-1321.0,2753.0,1.0,-14007.0,1550.0,-8348.0,426.0,-4.0,-3.0,27.0,-1.0,14.0,-15.0,-14.0,-5.0,1.532013177871704
322,2411.0,-1321.0,2753.0,1.0,-14007.0,1550.0,-8348.0,426.0,2.0,17.0,15.0,14.0,41.0,68.0,13.0,5.0,1.5349688529968262
323,2677.0,-1547.0,3630.0,1.0,-14178.0,844.0,-8168.0,104.0,2.0,17.0,15.0,14.0,41.0,68.0,13.0,5.0,1.547849178314209
324,2677.0,-1547.0,3630.0,1.0,-14178.0,844.0,-8168.0,104.0,-1.0,5.0,33.0,0.0,16.0,-27.0,2.0,-6.0,1.5513558387756348
325,2677.0,-1547.0,3630.0,1.0,-14178.0,844.0,-8168.0,104.0,2.0,4.0,0.0,15.0,38.0,13.0,-19.0,-1.0,1.555006742477417
326,2351.0,-1783.0,4254.0,1.0,-14335.0,112.0,-7927.0,-355.0,2.0,4.0,0.0,15.0,38.0,13.0,-19.0,-1.0,1.5711557865142822
327,2351.0,-1783.0,4254.0,1.0,-14335.0,112.0,-7927.0,-355.0,-6.0,-3.0,15.0,-8.0,-1.0,29.0,47.0,6.0,1.5744028091430664
328,2351.0,-1783.0,4254.0,1.0,-14335.0,112.0,-7927.0,-355.0,-2.0,1.0,14.0,-7.0,-46.0,-7.0,-27.0,-11.0,1.5762040615081787
329,2126.0,-2310.0,4797.0,1.0,-14491.0,-648.0,-7563.0,-925.0,-2.0,1.0,14.0,-7.0,-46.0,-7.0,-27.0,-11.0,1.582977056503296
330,2126.0,-2310.0,4797.0,1.0,-14491.0,-648.0,-7563.0,-925.0,-1.0,3.0,-1.0,11.0,-30.0,-30.0,8.0,4.0,1.5915353298187256
331,2126.0,-2310.0,4797.0,1.0,-14491.0,-648.0,-7563.0,-925.0,-5.0,5.0,17.0,17.0,49.0,9.0,-4.0,-5.0,1.5933656692504883
332,2374.0,-3053.0,5129.0,1.0,-14638.0,-1493.0,-7045.0,-1525.0,-5.0,5.0,17.0,17.0,49.0,9.0,-4.0,-5.0,1.608781099319458
333,2374.0,-3053.0,5129.0,1.0,-14638.0,-1493.0,-7045.0,-1525.0,4.0,3.0,-13.0,-9.0,43.0,116.0,-16.0,-6.0,1.613389015197754
334,2374.0,-3053.0,5129.0,1.0,-14638.0,-1493.0,-7045.0,-1525.0,17.0,-10.0,-13.0,-36.0,54.0,-31.0,37.0,13.0,1.6170756816864014
335,2598.0,-3790.0,5902.0,1.0,-14735.0,-2463.0,-6353.0,-2220.0,17.0,-10.0,-13.0,-36.0,54.0,-31.0,37.0,13.0,1.6295995712280273
336,2598.0,-3790.0,5902.0,1.0,-14735.0,-2463.0,-6353.0,-2220.0,33.0,-4.0,-27.0,7.0,66.0,98.0,32.0,73.0,1.6343910694122314
337,2598.0,-3790.0,5902.0,1.0,-14735.0,-2463.0,-6353.0,-2220.0,-51.0,-6.0,17.0,-31.0,-57.0,3.0,-64.0,-37.0,1.6460456848144531
338,2648.0,-4303.0,6356.0,1.0,-14750.0,-3420.0,-5533.0,-2931.0,-51.0,-6.0,17.0,-31.0,-57.0,3.0,-64.0,-37.0,1.6505239009857178
339,2648.0,-4303.0,6356.0,1.0,-14750.0,-3420.0,-5533.0,-2931.0,23.0,-2.0,-19.0,-35.0,-87.0,80.0,59.0,39.0,1.6535861492156982
340,2648.0,-4303.0,6356.0,1.0,-14750.0,-3420.0,-5533.0,-2931.0,11.0,-10.0,-18.0,-33.0,-40.0,-80.0,127.0,28.0,1.6555767059326172
341,1518.0,-4187.0,6086.0,1.0,-14702.0,-4151.0,-4665.0,-3650.0,11.0,-10.0,-18.0,-33.0,-40.0,-80.0,127.0,28.0,1.6676740646362305
342,1518.0,-4187.0,6086.0,1.0,-14702.0,-4151.0,-4665.0,-3650.0,-48.0,8.0,9.0,-27.0,22.0,-38.0,-37.0,-81.0,1.6709799766540527
343,1518.0,-4187.0,6086.0,1.0,-14702.0,-4151.0,-4665.0,-3650.0,-10.0,0.0,-6.0,37.0,26.0,-75.0,-103.0,-15.0,1.6746571063995361
344,2239.0,-3223.0,5653.0,1.0,-14499.0,-4912.0,-3970.0,-4285.0,-10.0,0.0,-6.0,37.0,26.0,-75.0,-103.0,-15.0,1.6902966499328613
345,2239.0,-3223.0,5653.0,1.0,-14499.0,-4912.0,-3970.0,-4285.0,7.0,-5.0,3.0,7.0,-65.0,19.0,44.0,-7.0,1.6943964958190918
346,2239.0,-3223.0,5653.0,1.0,-14499.0,-4912.0,-3970.0,-4285.0,-70.0,-72.0,-41.0,21.0,66.0,24.0,-120.0,-71.0,1.6978678703308105
347,5250.0,-1790.0,5646.0,1.0,-13979.0,-6048.0,-3617.0,-4837.0,-70.0,-72.0,-41.0,21.0,66.0,24.0,-120.0,-71.0,1.7031102180480957
348,5250.0,-1790.0,5646.0,1.0,-13979.0,-6048.0,-3617.0,-4837.0,-21.0,-82.0,33.0,13.0,-38.0,-112.0,42.0,-36.0,1.7121517658233643
349,5250.0,-1790.0,5646.0,1.0,-13979.0,-6048.0,-3617.0,-4837.0,50.0,6.0,37.0,87.0,18.0,-52.0,-36.0,36.0,1.7152976989746094
350,7283.0,-932.0,5017.0,1.0,-13208.0,-7371.0,-3511.0,-5228.0,50.0,6.0,37.0,87.0,18.0,-52.0,-36.0,36.0,1.7277445793151855
351,7283.0,-932.0,5017.0,1.0,-13208.0,-7371.0,-3511.0,-5228.0,9.0,-30.0,-28.0,-7.0,-65.0,29.0,-24.0,6.0,1.7308473587036133
352,7283.0,-932.0,5017.0,1.0,-13208.0,-7371.0,-3511.0,-5228.0,-3.0,-111.0,33.0,-32.0,2.0,95.0,5.0,45.0,1.733769178390503
353,6107.0,-52.0,3171.0,1.0,-12503.0,-8352.0,-3587.0,-5432.0,-3.0,-111.0,33.0,-32.0,2.0,95.0,5.0,45.0,1.7495427131652832
354,6107.0,-52.0,3171.0,1.0,-12503.0,-8352.0,-3587.0,-5432.0,7.0,-68.0,86.0,46.0,-14.0,38.0,-82.0,13.0,1.754218339920044
355,6107.0,-52.0,3171.0,1.0,-12503.0,-8352.0,-3587.0,-5432.0,4.0,24.0,-14.0,77.0,-110.0,-35.0,-81.0,-3.0,1.7585508823394775
356,5449.0,402.0,513.0,1.0,-11939.0,-9075.0,-3911.0,-5316.0,4.0,24.0,-14.0,77.0,-110.0,-35.0,-81.0,-3.0,1.7636849880218506
357,5449.0,402.0,513.0,1.0,-11939.0,-9075.0,-3911.0,-5316.0,-35.0,-27.0,-37.0,93.0,-30.0,-128.0,-93.0,6.0,1.7715294361114502
358,5449.0,402.0,513.0,1.0,-11939.0,-9075.0,-3911.0,-5316.0,47.0,127.0,79.0,-75.0,-58.0,58.0,127.0,34.0,1.7740347385406494
359,2311.0,-1676.0,-2091.0,1.0,-11894.0,-9377.0,-4031.0,-4776.0,47.0,127.0,79.0,-75.0,-58.0,58.0,127.0,34.0,1.7885732650756836
360,2311.0,-1676.0,-2091.0,1.0,-11894.0,-9377.0,-4031.0,-4776.0,21.0,67.0,-48.0,12.0,-51.0,-71.0,4.0,-72.0,1.792567253112793
361,2311.0,-1676.0,-2091.0,1.0,-11894.0,-9377.0,-4031.0,-4776.0,-12.0,25.0,81.0,-70.0,20.0,-128.0,85.0,-64.0,1.7957193851470947
362,652.0,-696.0,-2194.0,1.0,-11983.0,-9382.0,-4169.0,-4412.0,-12.0,25.0,81.0,-70.0,20.0,-128.0,85.0,-64.0,1.8095834255218506
363,652.0,-696.0,-2194.0,1.0,-11983.0,-9382.0,-4169.0,-4412.0,9.0,85.0,54.0,-7.0,127.0,31.0,120.0,54.0,1.8132410049438477
364,652.0,-696.0,-2194.0,1.0,-11983.0,-9382.0,-4169.0,-4412.0,-9.0,-73.0,-107.0,-8.0,95.0,21.0,93.0,68.0,1.8172671794891357
365,1369.0,1529.0,2106.0,1.0,-11666.0,-9579.0,-4217.0,-4779.0,-9.0,-73.0,-107.0,-8.0,95.0,21.0,93.0,68.0,1.8244075775146484
366,1369.0,1529.0,2106.0,1.0,-11666.0,-9579.0,-4217.0,-4779.0,63.0,-29.0,5.0,62.0,104.0,54.0,6.0,88.0,1.8311944007873535
367,1369.0,1529.0,2106.0,1.0,-11666.0,-9579.0,-4217.0,-4779.0,115.0,18.0,-34.0,10.0,9.0,-81.0,68.0,98.0,1.832972526550293
368,1082.0,-5.0,2769.0,1.0,-11434.0,-9803.0,-4020.0,-5047.0,115.0,18.0,-34.0,10.0,9.0,-81.0,68.0,98.0,1.8486411571502686
369,1082.0,-5.0,2769.0,1.0,-11434.0,-9803.0,-4020.0,-5047.0,-13.0,-4.0,-51.0,11.0,65.0,57.0,-117.0,-96.0,1.8531038761138916
370,1082.0,-5.0,2769.0,1.0,-11434.0,-9803.0,-4020.0,-5047.0,-46.0,-9.0,-87.0,-33.0,-33.0,73.0,-128.0,-49.0,1.857975721359253
371,-229.0,-792.0,1113.0,1.0,-11417.0,-9876.0,-3700.0,-5185.0,-46.0,-9.0,-87.0,-33.0,-33.0,73.0,-128.0,-49.0,1.869624137878418
372,-229.0,-792.0,1113.0,1.0,-11417.0,-9876.0,-3700.0,-5185.0,-64.0,13.0,-64.0,-125.0,-82.0,-66.0,51.0,-20.0,1.8731012344360352
373,-229.0,-792.0,1113.0,1.0,-11417.0,-9876.0,-3700.0,-5185.0,-11.0,-19.0,-47.0,-15.0,-19.0,115.0,28.0,-67.0,1.876469612121582
374,-509.0,-145.0,1094.0,1.0,-11424.0,-9845.0,-3447.0,-5400.0,-11.0,-19.0,-47.0,-15.0,-19.0,115.0,28.0,-67.0,1.8836426734924316
375,-509.0,-145.0,1094.0,1.0,-11424.0,-9845.0,-3447.0,-5400.0,75.0,28.0,13.0,-7.0,47.0,87.0,58.0,59.0,1.8919110298156738
376,-509.0,-145.0,1094.0,1.0,-11424.0,-9845.0,-3447.0,-5400.0,23.0,-6.0,9.0,20.0,-10.0,20.0,-58.0,-4.0,1.8936936855316162
377,1834.0,573.0,515.0,1.0,-11179.0,-10050.0,-3572.0,-5455.0,23.0,-6.0,9.0,20.0,-10.0,20.0,-58.0,-4.0,1.9060773849487305
378,1834.0,573.0,515.0,1.0,-11179.0,-10050.0,-3572.0,-5455.0,3.0,38.0,71.0,20.0,-62.0,-90.0,11.0,14.0,1.9152438640594482
379,1834.0,573.0,515.0,1.0,-11179.0,-10050.0,-3572.0,-5455.0,3.0,38.0,71.0,20.0,-62.0,-90.0,11.0,14.0,1.9184906482696533
380,1834.0,573.0,515.0,1.0,-11179.0,-10050.0,-3572.0,-5455.0,-84.0,-18.0,47.0,-23.0,-88.0,127.0,55.0,-39.0,1.9295463562011719
381,2520.0,812.0,550.0,1.0,-10837.0,-10325.0,-3786.0,-5486.0,-84.0,-18.0,47.0,-23.0,-88.0,127.0,55.0,-39.0,1.9328069686889648
382,2520.0,812.0,550.0,1.0,-10837.0,-10325.0,-3786.0,-5486.0,-14.0,26.0,-69.0,44.0,-45.0,33.0,36.0,-12.0,1.9364991188049316
383,2520.0,812.0,550.0,1.0,-10837.0,-10325.0,-3786.0,-5486.0,-60.0,-6.0,71.0,23.0,-14.0,17.0,-117.0,-17.0,1.9399518966674805
384,89.0,412.0,293.0,1.0,-10792.0,-10323.0,-3807.0,-5563.0,-60.0,-6.0,71.0,23.0,-14.0,17.0,-117.0,-17.0,1.9433948993682861
385,89.0,412.0,293.0,1.0,-10792.0,-10323.0,-3807.0,-5563.0,-88.0,-40.0,-13.0,-80.0,57.0,25.0,-100.0,-30.0,1.951439380645752
386,89.0,412.0,293.0,1.0,-10792.0,-10323.0,-3807.0,-5563.0,6.0,-6.0,-5.0,-6.0,74.0,16.0,104.0,-3.0,1.9532487392425537
387,-1504.0,-125.0,-90.0,1.0,-10939.0,-10181.0,-3685.0,-5619.0,6.0,-6.0,-5.0,-6.0,74.0,16.0,104.0,-3.0,1.9653780460357666
388,-1504.0,-125.0,-90.0,1.0,-10939.0,-10181.0,-3685.0,-5619.0,-32.0,-7.0,30.0,-1.0,90.0,-74.0,-128.0,-120.0,1.9757411479949951
389,-1504.0,-125.0,-90.0,1.0,-10939.0,-10181.0,-3685.0,-5619.0,16.0,-1.0,-20.0,10.0,-9.0,-27.0,-90.0,-4.0,1.978760004043579
390,-648.0,-163.0,200.0,1.0,-10982.0,-10146.0,-3590.0,-5660.0,16.0,-1.0,-20.0,10.0,-9.0,-27.0,-90.0,-4.0,1.990570068359375
391,-648.0,-163.0,200.0,1.0,-10982.0,-10146.0,-3590.0,-5660.0,25.0,20.0,68.0,-70.0,45.0,53.0,99.0,6.0,1.9939346313476562
392,-648.0,-163.0,200.0,1.0,-10982.0,-10146.0,-3590.0,-5660.0,-28.0,16.0,47.0,9.0,-42.0,-128.0,-26.0,-21.0,1.9970510005950928
393,-12.0,-54.0,51.0,1.0,-10965.0,-10171.0,-3582.0,-5654.0,-28.0,16.0,47.0,9.0,-42.0,-128.0,-26.0,-21.0,2.0039515495300293
394,-12.0,-54.0,51.0,1.0,-10965.0,-10171.0,-3582.0,-5654.0,8.0,-37.0,-60.0,-30.0,-86.0,-17.0,-80.0,74.0,2.019733190536499
395,-12.0,-54.0,51.0,1.0,-10965.0,-10171.0,-3582.0,-5654.0,20.0,3.0,-14.0,-2.0,1.0,-5.0,92.0,46.0,2.0231800079345703
396,-226.0,-61.0,-155.0,1.0,-10972.0,-10173.0,-3557.0,-5652.0,20.0,3.0,-14.0,-2.0,1.0,-5.0,92.0,46.0,2.0273969173431396
397,-226.0,-61.0,-155.0,1.0,-10972.0,-10173.0,-3557.0,-5652.0,-14.0,1.0,-13.0,-59.0,-83.0,-98.0,-48.0,37.0,2.0307412147521973
398,-226.0,-61.0,-155.0,1.0,-10972.0,-10173.0,-3557.0,-5652.0,-19.0,27.0,-4.0,19.0,60.0,-43.0,-111.0,-12.0,2.0330147743225098
399,-232.0,-24.0,-304.0,1.0,-10996.0,-10155.0,-3543.0,-5646.0,-19.0,27.0,-4.0,19.0,60.0,-43.0,-111.0,-12.0,2.0496795177459717
400,-232.0,-24.0,-304.0,1.0,-10996.0,-10155.0,-3543.0,-5646.0,-41.0,-12.0,-21.0,36.0,13.0,-28.0,126.0,-23.0,2.053128480911255
401,-232.0,-24.0,-304.0,1.0,-10996.0,-10155.0,-3543.0,-5646.0,-14.0,-20.0,-90.0,-64.0,-3.0,6.0,-1.0,-51.0,2.056330680847168
402,21.0,63.0,-131.0,1.0,-10996.0,-10153.0,-3568.0,-5634.0,-14.0,-20.0,-90.0,-64.0,-3.0,6.0,-1.0,-51.0,2.0634775161743164
403,21.0,63.0,-131.0,1.0,-10996.0,-10153.0,-3568.0,-5634.0,-6.0,-5.0,-11.0,27.0,-82.0,44.0,-81.0,-7.0,2.0715172290802
404,21.0,63.0,-131.0,1.0,-10996.0,-10153.0,-3568.0,-5634.0,-4.0,-43.0,-61.0,15.0,-70.0,-75.0,-104.0,-16.0,2.074300527572632
405,-45.0,152.0,28.0,1.0,-10988.0,-10144.0,-3568.0,-5666.0,-4.0,-43.0,-61.0,15.0,-70.0,-75.0,-104.0,-16.0,2.0871689319610596
406,-45.0,152.0,28.0,1.0,-10988.0,-10144.0,-3568.0,-5666.0,-9.0,-11.0,-14.0,51.0,76.0,67.0,39.0,51.0,2.090285539627075
407,-45.0,152.0,28.0,1.0,-10988.0,-10144.0,-3568.0,-5666.0,-4.0,26.0,22.0,-29.0,-83.0,-4.0,-81.0,13.0,2.093229055404663
408,-11.0,184.0,41.0,1.0,-10965.0,-10145.0,-3558.0,-5713.0,-4.0,26.0,22.0,-29.0,-83.0,-4.0,-81.0,13.0,2.1095259189605713
409,-11.0,184.0,41.0,1.0,-10965.0,-10145.0,-3558.0,-5713.0,41.0,6.0,28.0,27.0,7.0,-69.0,14.0,-19.0,2.11287522315979
410,-11.0,184.0,41.0,1.0,-10965.0,-10145.0,-3558.0,-5713.0,74.0,1.0,12.0,-14.0,-29.0,-44.0,103.0,99.0,2.116240978240967
411,116.0,76.0,19.0,1.0,-10937.0,-10168.0,-3570.0,-5720.0,74.0,1.0,12.0,-14.0,-29.0,-44.0,103.0,99.0,2.123584270477295
412,116.0,76.0,19.0,1.0,-10937.0,-10168.0,-3570.0,-5720.0,21.0,-6.0,-15.0,-8.0,-22.0,127.0,-86.0,-8.0,2.131336212158203
413,116.0,76.0,19.0,1.0,-10937.0,-10168.0,-3570.0,-5720.0,-8.0,33.0,27.0,25.0,27.0,126.0,99.0,1.0,2.1331098079681396
414,-82.0,24.0,111.0,1.0,-10933.0,-10170.0,-3574.0,-5723.0,-8.0,33.0,27.0,25.0,27.0,126.0,99.0,1.0,2.1483662128448486
415,-82.0,24.0,111.0,1.0,-10933.0,-10170.0,-3574.0,-5723.0,32.0,-38.0,-65.0,-10.0,-11.0,2.0,-65.0,-3.0,2.1520371437072754
416,-82.0,24.0,111.0,1.0,-10933.0,-10170.0,-3574.0,-5723.0,3.0,40.0,66.0,49.0,-2.0,24.0,7.0,52.0,2.1563467979431152
417,-157.0,-10.0,89.0,1.0,-10934.0,-10168.0,-3556.0,-5734.0,3.0,40.0,66.0,49.0,-2.0,24.0,7.0,52.0,2.168933153152466
418,-157.0,-10.0,89.0,1.0,-10934.0,-10168.0,-3556.0,-5734.0,34.0,3.0,16.0,13.0,41.0,2.0,-11.0,57.0,2.1708312034606934
419,-157.0,-10.0,89.0,1.0,-10934.0,-10168.0,-3556.0,-5734.0,-6.0,-7.0,25.0,11.0,70.0,57.0,-52.0,-49.0,2.1732704639434814
420,46.0,-3.0,38.0,1.0,-10914.0,-10189.0,-3553.0,-5736.0,-6.0,-7.0,25.0,11.0,70.0,57.0,-52.0,-49.0,2.1833813190460205
421,46.0,-3.0,38.0,1.0,-10914.0,-10189.0,-3553.0,-5736.0,-16.0,3.0,-8.0,-69.0,-88.0,-128.0,-76.0,26.0,2.192241668701172
422,46.0,-3.0,38.0,1.0,-10914.0,-10189.0,-3553.0,-5736.0,-27.0,-11.0,14.0,6.0,11.0,45.0,55.0,-51.0,2.1940438747406006
423,143.0,-27.0,-44.0,1.0,-10894.0,-10217.0,-3574.0,-5712.0,-27.0,-11.0,14.0,6.0,11.0,45.0,55.0,-51.0,2.2068755626678467
424,143.0,-27.0,-44.0,1.0,-10894.0,-10217.0,-3574.0,-5712.0,-30.0,-30.0,-36.0,-9.0,62.0,-7.0,9.0,6.0,2.2087349891662598
425,143.0,-27.0,-44.0,1.0,-10894.0,-10217.0,-3574.0,-5712.0,-2.0,20.0,13.0,34.0,122.0,-11.0,49.0,14.0,2.210557222366333
426,119.0,-40.0,-53.0,1.0,-10880.0,-10239.0,-3596.0,-5684.0,-2.0,20.0,13.0,34.0,122.0,-11.0,49.0,14.0,2.2293379306793213
427,119.0,-40.0,-53.0,1.0,-10880.0,-10239.0,-3596.0,-5684.0,5.0,13.0,29.0,54.0,44.0,113.0,127.0,-2.0,2.2315833568573
428,119.0,-40.0,-53.0,1.0,-10880.0,-10239.0,-3596.0,-5684.0,-29.0,-24.0,-45.0,8.0,-57.0,15.0,-83.0,-43.0,2.2333626747131348
429,-42.0,-45.0,-33.0,1.0,-10878.0,-10248.0,-3593.0,-5674.0,-29.0,-24.0,-45.0,8.0,-57.0,15.0,-83.0,-43.0,2.2525620460510254
430,-42.0,-45.0,-33.0,1.0,-10878.0,-10248.0,-3593.0,-5674.0,-19.0,24.0,62.0,32.0,22.0,25.0,-90.0,-32.0,2.254507064819336
431,-42.0,-45.0,-33.0,1.0,-10878.0,-10248.0,-3593.0,-5674.0,-13.0,-8.0,-55.0,-49.0,23.0,-27.0,-24.0,-68.0,2.2570149898529053
432,-45.0,-57.0,-100.0,1.0,-10881.0,-10253.0,-3586.0,-5664.0,-13.0,-8.0,-55.0,-49.0,23.0,-27.0,-24.0,-68.0,2.265519142150879
433,-45.0,-57.0,-100.0,1.0,-10881.0,-10253.0,-3586.0,-5664.0,11.0,-13.0,-2.0,-10.0,-10.0,-51.0,18.0,59.0,2.2738277912139893
434,-45.0,-57.0,-100.0,1.0,-10881.0,-10253.0,-3586.0,-5664.0,40.0,-7.0,-6.0,23.0,-35.0,8.0,34.0,19.0,2.275606870651245
435,47.0,-55.0,-145.0,1.0,-10881.0,-10263.0,-3591.0,-5645.0,40.0,-7.0,-6.0,23.0,-35.0,8.0,34.0,19.0,2.2904794216156006
436,47.0,-55.0,-145.0,1.0,-10881.0,-10263.0,-3591.0,-5645.0,7.0,40.0,98.0,22.0,19.0,-8.0,-48.0,-94.0,2.2941739559173584
437,47.0,-55.0,-145.0,1.0,-10881.0,-10263.0,-3591.0,-5645.0,6.0,0.0,10.0,7.0,69.0,-70.0,30.0,77.0,2.2975385189056396
438,44.0,-9.0,-3.0,1.0,-10870.0,-10277.0,-3601.0,-5634.0,6.0,0.0,10.0,7.0,69.0,-70.0,30.0,77.0,2.315077543258667
439,44.0,-9.0,-3.0,1.0,-10870.0,-10277.0,-3601.0,-5634.0,-20.0,20.0,36.0,19.0,80.0,4.0,-1.0,7.0,2.3190436363220215
440,44.0,-9.0,-3.0,1.0,-10870.0,-10277.0,-3601.0,-5634.0,2.0,-6.0,17.0,-19.0,65.0,-10.0,-29.0,-16.0,2.3227732181549072
441,-60.0,26.0,56.0,1.0,-10861.0,-10283.0,-3592.0,-5646.0,2.0,-6.0,17.0,-19.0,65.0,-10.0,-29.0,-16.0,2.3266990184783936
442,-60.0,26.0,56.0,1.0,-10861.0,-10283.0,-3592.0,-5646.0,-8.0,-17.0,-32.0,-65.0,-94.0,-48.0,39.0,-22.0,2.3285605907440186
443,-60.0,26.0,56.0,1.0,-10861.0,-10283.0,-3592.0,-5646.0,-15.0,-7.0,-17.0,-19.0,-24.0,-54.0,14.0,13.0,2.3304097652435303
444,-56.0,39.0,64.0,1.0,-10850.0,-10289.0,-3582.0,-5662.0,-15.0,-7.0,-17.0,-19.0,-24.0,-54.0,14.0,13.0,2.3495335578918457
445,-56.0,39.0,64.0,1.0,-10850.0,-10289.0,-3582.0,-5662.0,32.0,16.0,23.0,25.0,29.0,58.0,84.0,-8.0,2.351423501968384
446,-56.0,39.0,64.0,1.0,-10850.0,-10289.0,-3582.0,-5662.0,-16.0,-5.0,5.0,3.0,-17.0,79.0,42.0,-25.0,2.35319447517395
447,-41.0,28.0,38.0,1.0,-10850.0,-10285.0,-3582.0,-5668.0,-16.0,-5.0,5.0,3.0,-17.0,79.0,42.0,-25.0,2.3725998401641846
448,-41.0,28.0,38.0,1.0,-10850.0,-10285.0,-3582.0,-5668.0,-3.0,26.0,30.0,15.0,-24.0,-72.0,-38.0,10.0,2.376770496368408
449,-41.0,28.0,38.0,1.0,-10850.0,-10285.0,-3582.0,-5668.0,-20.0,-22.0,-67.0,-43.0,27.0,-27.0,8.0,-13.0,2.3797895908355713
450,-72.0,5.0,-4.0,1.0,-10858.0,-10277.0,-3584.0,-5667.0,-20.0,-22.0,-67.0,-43.0,27.0,-27.0,8.0,-13.0,2.386150360107422
451,-72.0,5.0,-4.0,1.0,-10858.0,-10277.0,-3584.0,-5667.0,0.0,-9.0,32.0,-14.0,8.0,-15.0,31.0,-18.0,2.3880093097686768
452,-72.0,5.0,-4.0,1.0,-10858.0,-10277.0,-3584.0,-5667.0,0.0,-7.0,-63.0,-39.0,21.0,70.0,-59.0,-38.0,2.3931140899658203
453,-91.0,-3.0,2.0,1.0,-10867.0,-10269.0,-3583.0,-5665.0,0.0,-7.0,-63.0,-39.0,21.0,70.0,-59.0,-38.0,2.409471273422241
454,-91.0,-3.0,2.0,1.0,-10867.0,-10269.0,-3583.0,-5665.0,-28.0,-27.0,-54.0,9.0,-8.0,-12.0,-62.0,26.0,2.4125847816467285
455,-91.0,-3.0,2.0,1.0,-10867.0,-10269.0,-3583.0,-5665.0,3.0,-17.0,-57.0,-18.0,-121.0,50.0,51.0,33.0,2.4157159328460693
456,-59.0,17.0,13.0,1.0,-10862.0,-10274.0,-3589.0,-5662.0,3.0,-17.0,-57.0,-18.0,-121.0,50.0,51.0,33.0,2.43285870552063
457,-59.0,17.0,13.0,1.0,-10862.0,-10274.0,-3589.0,-5662.0,-16.0,-4.0,40.0,40.0,25.0,26.0,-110.0,-5.0,2.437333106994629
458,-59.0,17.0,13.0,1.0,-10862.0,-10274.0,-3589.0,-5662.0,52.0,6.0,7.0,25.0,56.0,10.0,-55.0,19.0,2.4414398670196533
459,-122.0,-11.0,-52.0,1.0,-10867.0,-10273.0,-3596.0,-5648.0,52.0,6.0,7.0,25.0,56.0,10.0,-55.0,19.0,2.447073221206665
460,-122.0,-11.0,-52.0,1.0,-10867.0,-10273.0,-3596.0,-5648.0,-12.0,5.0,-26.0,-4.0,-18.0,38.0,-8.0,17.0,2.4489259719848633
461,-122.0,-11.0,-52.0,1.0,-10867.0,-10273.0,-3596.0,-5648.0,24.0,10.0,8.0,28.0,-28.0,-1.0,84.0,54.0,2.4533421993255615
462,-150.0,9.0,-118.0,1.0,-10882.0,-10260.0,-3602.0,-5639.0,24.0,10.0,8.0,28.0,-28.0,-1.0,84.0,54.0,2.4696438312530518
463,-150.0,9.0,-118.0,1.0,-10882.0,-10260.0,-3602.0,-5639.0,-4.0,5.0,-9.0,-24.0,-9.0,-17.0,22.0,15.0,2.473378896713257
464,-150.0,9.0,-118.0,1.0,-10882.0,-10260.0,-3602.0,-5639.0,-1.0,9.0,55.0,31.0,15.0,-37.0,-39.0,11.0,2.475616216659546
465,-19.0,14.0,-163.0,1.0,-10890.0,-10255.0,-3623.0,-5620.0,-1.0,9.0,55.0,31.0,15.0,-37.0,-39.0,11.0,2.492879867553711
466,-19.0,14.0,-163.0,1.0,-10890.0,-10255.0,-3623.0,-5620.0,-17.0,-6.0,-22.0,-47.0,-75.0,-35.0,-39.0,-53.0,2.496492862701416
467,-19.0,14.0,-163.0,1.0,-10890.0,-10255.0,-3623.0,-5620.0,-17.0,-9.0,22.0,-1.0,-10.0,-8.0,-113.0,-20.0,2.4997589588165283
468,-22.0,-31.0,-144.0,1.0,-10895.0,-10258.0,-3642.0,-5592.0,-17.0,-9.0,22.0,-1.0,-10.0,-8.0,-113.0,-20.0,2.507234573364258
469,-22.0,-31.0,-144.0,1.0,-10895.0,-10258.0,-3642.0,-5592.0,15.0,7.0,18.0,28.0,81.0,33.0,-12.0,0.0,2.5091679096221924
470,-22.0,-31.0,-144.0,1.0,-10895.0,-10258.0,-3642.0,-5592.0,29.0,44.0,59.0,12.0,31.0,4.0,100.0,-22.0,2.513284206390381
471,-122.0,-1.0,-37.0,1.0,-10904.0,-10251.0,-3644.0,-5587.0,29.0,44.0,59.0,12.0,31.0,4.0,100.0,-22.0,2.5308852195739746
472,-122.0,-1.0,-37.0,1.0,-10904.0,-10251.0,-3644.0,-5587.0,-14.0,-12.0,-1.0,47.0,-91.0,-8.0,28.0,46.0,2.5347325801849365
473,-122.0,-1.0,-37.0,1.0,-10904.0,-10251.0,-3644.0,-5587.0,36.0,4.0,10.0,16.0,5.0,19.0,10.0,32.0,2.5383834838867188
474,-117.0,-10.0,29.0,1.0,-10911.0,-10244.0,-3630.0,-5596.0,36.0,4.0,10.0,16.0,5.0,19.0,10.0,32.0,2.5521633625030518
475,-117.0,-10.0,29.0,1.0,-10911.0,-10244.0,-3630.0,-5596.0,6.0,-1.0,-21.0,8.0,33.0,-21.0,32.0,-7.0,2.5540900230407715
476,-117.0,-10.0,29.0,1.0,-10911.0,-10244.0,-3630.0,-5596.0,-22.0,9.0,-2.0,-2.0,9.0,-32.0,-26.0,-15.0,2.555994987487793
477,-160.0,-52.0,39.0,1.0,-10928.0,-10229.0,-3606.0,-5604.0,-22.0,9.0,-2.0,-2.0,9.0,-32.0,-26.0,-15.0,2.5664360523223877
478,-160.0,-52.0,39.0,1.0,-10928.0,-10229.0,-3606.0,-5604.0,-13.0,-8.0,-4.0,0.0,-14.0,18.0,32.0,-21.0,2.568377733230591
479,-160.0,-52.0,39.0,1.0,-10928.0,-10229.0,-3606.0,-5604.0,5.0,-4.0,-16.0,-38.0,-11.0,-41.0,12.0,13.0,2.573951244354248
480,-185.0,-100.0,-3.0,1.0,-10954.0,-10210.0,-3573.0,-5609.0,5.0,-4.0,-16.0,-38.0,-11.0,-41.0,12.0,13.0,2.5908570289611816
481,-185.0,-100.0,-3.0,1.0,-10954.0,-10210.0,-3573.0,-5609.0,9.0,-3.0,-5.0,-14.0,26.0,6.0,63.0,-23.0,2.594061851501465
482,-185.0,-100.0,-3.0,1.0,-10954.0,-10210.0,-3573.0,-5609.0,23.0,1.0,1.0,-12.0,-80.0,0.0,-21.0,47.0,2.59698224067688
483,-204.0,-92.0,-23.0,1.0,-10983.0,-10189.0,-3548.0,-5608.0,23.0,1.0,1.0,-12.0,-80.0,0.0,-21.0,47.0,2.613422155380249
484,-204.0,-92.0,-23.0,1.0,-10983.0,-10189.0,-3548.0,-5608.0,-4.0,4.0,10.0,-29.0,-32.0,-34.0,-6.0,-17.0,2.6173205375671387
485,-204.0,-92.0,-23.0,1.0,-10983.0,-10189.0,-3548.0,-5608.0,-17.0,5.0,26.0,-19.0,-1.0,4.0,-5.0,-9.0,2.623202323913574
486,-95.0,-37.0,0.0,1.0,-10996.0,-10177.0,-3537.0,-5609.0,-17.0,5.0,26.0,-19.0,-1.0,4.0,-5.0,-9.0,2.625976800918579
487,-95.0,-37.0,0.0,1.0,-10996.0,-10177.0,-3537.0,-5609.0,1.0,6.0,-24.0,-22.0,-15.0,20.0,-1.0,-8.0,2.627871513366699
488,-95.0,-37.0,0.0,1.0,-10996.0,-10177.0,-3537.0,-5609.0,-24.0,-7.0,9.0,21.0,-3.0,0.0,-39.0,-6.0,2.633133888244629
489,-91.0,-40.0,66.0,1.0,-11002.0,-10174.0,-3521.0,-5614.0,-24.0,-7.0,9.0,21.0,-3.0,0.0,-39.0,-6.0,2.6521167755126953
490,-91.0,-40.0,66.0,1.0,-11002.0,-10174.0,-3521.0,-5614.0,-4.0,-7.0,-7.0,-10.0,-15.0,-2.0,6.0,-4.0,2.65610671043396
491,-91.0,-40.0,66.0,1.0,-11002.0,-10174.0,-3521.0,-5614.0,-16.0,-7.0,-11.0,4.0,7.0,27.0,-3.0,-13.0,2.6582911014556885
492,-175.0,-132.0,99.0,1.0,-11015.0,-10169.0,-3476.0,-5623.0,-16.0,-7.0,-11.0,4.0,7.0,27.0,-3.0,-13.0,2.6725962162017822
493,-175.0,-132.0,99.0,1.0,-11015.0,-10169.0,-3476.0,-5623.0,16.0,0.0,-1.0,5.0,10.0,7.0,16.0,-7.0,2.675729513168335
494,-175.0,-132.0,99.0,1.0,-11015.0,-10169.0,-3476.0,-5623.0,-12.0,17.0,11.0,14.0,10.0,-5.0,-4.0,-34.0,2.678717613220215
495,-417.0,-217.0,58.0,1.0,-11064.0,-10135.0,-3404.0,-5634.0,-12.0,17.0,11.0,14.0,10.0,-5.0,-4.0,-34.0,2.6859750747680664
496,-417.0,-217.0,58.0,1.0,-11064.0,-10135.0,-3404.0,-5634.0,-11.0,-7.0,5.0,9.0,29.0,23.0,-32.0,-13.0,2.694032907485962
497,-417.0,-217.0,58.0,1.0,-11064.0,-10135.0,-3404.0,-5634.0,-1.0,-11.0,0.0,-13.0,20.0,8.0,9.0,-8.0,2.6970081329345703
498,-663.0,-284.0,6.0,1.0,-11153.0,-10062.0,-3302.0,-5651.0,-1.0,-11.0,0.0,-13.0,20.0,8.0,9.0,-8.0,2.7102699279785156
499,-663.0,-284.0,6.0,1.0,-11153.0,-10062.0,-3302.0,-5651.0,11.0,-2.0,-13.0,65.0,43.0,38.0,2.0,7.0,2.7134573459625244
