,Gyro 0,Gyro 1,Gyro 2,Label,Orientation 0,Orientation 1,Orientation 2,Orientation 3,Sensor 0,Sensor 1,Sensor 2,Sensor 3,Sensor 4,Sensor 5,Sensor 6,Sensor 7,Timestamp
0,8.0,15.0,4.0,1.0,-12359.0,-10407.0,2327.0,-1410.0,-3.0,3.0,1.0,2.0,-11.0,-7.0,-2.0,4.0,2.1457672119140625e-06
1,8.0,15.0,4.0,1.0,-12359.0,-10407.0,2327.0,-1410.0,0.0,-2.0,16.0,-2.0,-21.0,-3.0,10.0,-1.0,0.002191781997680664
2,8.0,15.0,4.0,1.0,-12359.0,-10407.0,2327.0,-1410.0,3.0,4.0,1.0,9.0,17.0,-13.0,-2.0,-1.0,0.004463672637939453
3,-4.0,15.0,6.0,1.0,-12359.0,-10408.0,2326.0,-1409.0,3.0,4.0,1.0,9.0,17.0,-13.0,-2.0,-1.0,0.007825613021850586
4,-4.0,15.0,6.0,1.0,-12359.0,-10408.0,2326.0,-1409.0,-3.0,-8.0,-8.0,-2.0,8.0,17.0,10.0,3.0,0.012241363525390625
5,-30.0,14.0,3.0,1.0,-12359.0,-10408.0,2324.0,-1408.0,-3.0,-8.0,-8.0,-2.0,8.0,17.0,10.0,3.0,0.014255285263061523
6,-30.0,14.0,3.0,1.0,-12359.0,-10408.0,2324.0,-1408.0,2.0,11.0,-22.0,6.0,22.0,6.0,2.0,-3.0,0.01619124412536621
7,-30.0,14.0,3.0,1.0,-12359.0,-10408.0,2324.0,-1408.0,2.0,10.0,4.0,-7.0,-8.0,8.0,-2.0,-2.0,0.01808929443359375
8,-48.0,18.0,10.0,1.0,-12364.0,-10402.0,2323.0,-1410.0,2.0,10.0,4.0,-7.0,-8.0,8.0,-2.0,-2.0,0.02028489112854004
9,-48.0,18.0,10.0,1.0,-12364.0,-10402.0,2323.0,-1410.0,-4.0,0.0,10.0,-10.0,-10.0,-3.0,-9.0,-2.0,0.02368330955505371
10,-48.0,18.0,10.0,1.0,-12364.0,-10402.0,2323.0,-1410.0,0.0,-1.0,-11.0,1.0,13.0,6.0,-6.0,-11.0,0.027042388916015625
11,5.0,26.0,26.0,1.0,-12363.0,-10402.0,2322.0,-1417.0,0.0,-1.0,-11.0,1.0,13.0,6.0,-6.0,-11.0,0.02899312973022461
12,5.0,26.0,26.0,1.0,-12363.0,-10402.0,2322.0,-1417.0,0.0,-1.0,-24.0,-16.0,-34.0,-14.0,5.0,2.0,0.03194451332092285
13,5.0,26.0,26.0,1.0,-12363.0,-10402.0,2322.0,-1417.0,-1.0,-8.0,-11.0,-4.0,-37.0,-3.0,0.0,3.0,0.03392744064331055
14,13.0,22.0,32.0,1.0,-12359.0,-10406.0,2321.0,-1422.0,-1.0,-8.0,-11.0,-4.0,-37.0,-3.0,0.0,3.0,0.0357508659362793
15,13.0,22.0,32.0,1.0,-12359.0,-10406.0,2321.0,-1422.0,-5.0,-1.0,1.0,8.0,28.0,11.0,18.0,-4.0,0.037674665451049805
16,13.0,22.0,32.0,1.0,-12359.0,-10406.0,2321.0,-1422.0,6.0,13.0,15.0,5.0,-7.0,-3.0,-2.0,2.0,0.03946208953857422
17,-10.0,31.0,31.0,1.0,-12359.0,-10406.0,2320.0,-1427.0,6.0,13.0,15.0,5.0,-7.0,-3.0,-2.0,2.0,0.04126310348510742
18,-10.0,31.0,31.0,1.0,-12359.0,-10406.0,2320.0,-1427.0,0.0,3.0,0.0,0.0,-3.0,1.0,-10.0,3.0,0.04380297660827637
19,-10.0,31.0,31.0,1.0,-12359.0,-10406.0,2320.0,-1427.0,-7.0,-5.0,3.0,-1.0,3.0,1.0,2.0,0.0,0.045822858810424805
20,-35.0,4.0,27.0,1.0,-12362.0,-10402.0,2323.0,-1431.0,-7.0,-5.0,3.0,-1.0,3.0,1.0,2.0,0.0,0.047811031341552734
21,-35.0,4.0,27.0,1.0,-12362.0,-10402.0,2323.0,-1431.0,0.0,-4.0,25.0,10.0,16.0,-9.0,0.0,5.0,0.04988861083984375
22,-35.0,4.0,27.0,1.0,-12362.0,-10402.0,2323.0,-1431.0,0.0,2.0,-13.0,-9.0,30.0,9.0,-6.0,-2.0,0.05235147476196289
23,8.0,2.0,26.0,1.0,-12358.0,-10404.0,2327.0,-1436.0,0.0,2.0,-13.0,-9.0,30.0,9.0,-6.0,-2.0,0.055843353271484375
24,8.0,2.0,26.0,1.0,-12358.0,-10404.0,2327.0,-1436.0,1.0,-7.0,27.0,10.0,10.0,-6.0,-3.0,-7.0,0.05845808982849121
25,8.0,2.0,26.0,1.0,-12358.0,-10404.0,2327.0,-1436.0,0.0,5.0,45.0,-5.0,-10.0,-5.0,-1.0,1.0,0.06031346321105957
26,25.0,4.0,30.0,1.0,-12352.0,-10411.0,2330.0,-1440.0,0.0,5.0,45.0,-5.0,-10.0,-5.0,-1.0,1.0,0.06212496757507324
27,25.0,4.0,30.0,1.0,-12352.0,-10411.0,2330.0,-1440.0,-6.0,2.0,-13.0,2.0,4.0,3.0,1.0,1.0,0.06494450569152832
28,25.0,4.0,30.0,1.0,-12352.0,-10411.0,2330.0,-1440.0,-3.0,-8.0,-9.0,-1.0,2.0,-16.0,-2.0,8.0,0.06694293022155762
29,21.0,-20.0,31.0,1.0,-12345.0,-10417.0,2336.0,-1442.0,-3.0,-8.0,-9.0,-1.0,2.0,-16.0,-2.0,8.0,0.06879925727844238
30,21.0,-20.0,31.0,1.0,-12345.0,-10417.0,2336.0,-1442.0,4.0,0.0,-31.0,-10.0,-14.0,-15.0,-13.0,-3.0,0.07069945335388184
31,21.0,-20.0,31.0,1.0,-12345.0,-10417.0,2336.0,-1442.0,-2.0,-5.0,1.0,-3.0,-18.0,2.0,3.0,-2.0,0.07248663902282715
32,28.0,-23.0,61.0,1.0,-12339.0,-10422.0,2345.0,-1447.0,-2.0,-5.0,1.0,-3.0,-18.0,2.0,3.0,-2.0,0.07425975799560547
33,28.0,-23.0,61.0,1.0,-12339.0,-10422.0,2345.0,-1447.0,2.0,-4.0,-7.0,-7.0,4.0,-3.0,-8.0,-7.0,0.07637739181518555
34,28.0,-23.0,61.0,1.0,-12339.0,-10422.0,2345.0,-1447.0,-3.0,-9.0,-22.0,1.0,3.0,-4.0,19.0,-5.0,0.07818055152893066
35,37.0,-14.0,68.0,1.0,-12332.0,-10428.0,2352.0,-1453.0,-3.0,-9.0,-22.0,1.0,3.0,-4.0,19.0,-5.0,0.07996845245361328
36,37.0,-14.0,68.0,1.0,-12332.0,-10428.0,2352.0,-1453.0,-7.0,5.0,36.0,4.0,-15.0,-3.0,6.0,-3.0,0.08269333839416504
37,37.0,-14.0,68.0,1.0,-12332.0,-10428.0,2352.0,-1453.0,-7.0,-11.0,0.0,-1.0,5.0,-10.0,-7.0,-4.0,0.08596587181091309
38,9.0,-5.0,66.0,1.0,-12327.0,-10431.0,2359.0,-1460.0,-7.0,-11.0,0.0,-1.0,5.0,-10.0,-7.0,-4.0,0.0886678695678711
39,9.0,-5.0,66.0,1.0,-12327.0,-10431.0,2359.0,-1460.0,-5.0,-19.0,-42.0,-5.0,-11.0,1.0,-11.0,8.0,0.09061074256896973
40,9.0,-5.0,66.0,1.0,-12327.0,-10431.0,2359.0,-1460.0,8.0,14.0,6.0,5.0,-4.0,1.0,-3.0,5.0,0.09251642227172852
41,34.0,-11.0,71.0,1.0,-12320.0,-10437.0,2366.0,-1467.0,8.0,14.0,6.0,5.0,-4.0,1.0,-3.0,5.0,0.09434771537780762
42,34.0,-11.0,71.0,1.0,-12320.0,-10437.0,2366.0,-1467.0,-2.0,6.0,12.0,-2.0,-3.0,-6.0,-3.0,-3.0,0.09630846977233887
43,34.0,-11.0,71.0,1.0,-12320.0,-10437.0,2366.0,-1467.0,-2.0,-10.0,-8.0,-6.0,3.0,5.0,1.0,-8.0,0.09911274909973145
44,52.0,-20.0,41.0,1.0,-12310.0,-10446.0,2371.0,-1470.0,-2.0,-10.0,-8.0,-6.0,3.0,5.0,1.0,-8.0,0.10103273391723633
45,52.0,-20.0,41.0,1.0,-12310.0,-10446.0,2371.0,-1470.0,3.0,0.0,-16.0,-1.0,-7.0,21.0,7.0,1.0,0.1030130386352539
46,52.0,-20.0,41.0,1.0,-12310.0,-10446.0,2371.0,-1470.0,-2.0,-6.0,-5.0,2.0,37.0,5.0,-11.0,-4.0,0.10490703582763672
47,57.0,-1.0,24.0,1.0,-12302.0,-10455.0,2373.0,-1474.0,-2.0,-6.0,-5.0,2.0,37.0,5.0,-11.0,-4.0,0.10670304298400879
48,57.0,-1.0,24.0,1.0,-12302.0,-10455.0,2373.0,-1474.0,-2.0,-13.0,-20.0,-5.0,-5.0,2.0,2.0,-1.0,0.10860395431518555
49,57.0,-1.0,24.0,1.0,-12302.0,-10455.0,2373.0,-1474.0,5.0,10.0,10.0,4.0,2.0,15.0,-1.0,-1.0,0.1106722354888916
50,41.0,2.0,50.0,1.0,-12297.0,-10460.0,2375.0,-1480.0,5.0,10.0,10.0,4.0,2.0,15.0,-1.0,-1.0,0.11252284049987793
51,41.0,2.0,50.0,1.0,-12297.0,-10460.0,2375.0,-1480.0,6.0,8.0,27.0,-4.0,-11.0,3.0,1.0,1.0,0.11490297317504883
52,41.0,2.0,50.0,1.0,-12297.0,-10460.0,2375.0,-1480.0,-5.0,-13.0,-26.0,-2.0,-18.0,-11.0,36.0,0.0,0.11836910247802734
53,38.0,-15.0,47.0,1.0,-12291.0,-10466.0,2381.0,-1484.0,-5.0,-13.0,-26.0,-2.0,-18.0,-11.0,36.0,0.0,0.12035465240478516
54,38.0,-15.0,47.0,1.0,-12291.0,-10466.0,2381.0,-1484.0,-2.0,8.0,-9.0,-2.0,-2.0,13.0,-1.0,1.0,0.12230515480041504
55,38.0,-15.0,47.0,1.0,-12291.0,-10466.0,2381.0,-1484.0,-6.0,-1.0,-18.0,-10.0,-19.0,0.0,-16.0,-2.0,0.12410140037536621
56,26.0,-19.0,38.0,1.0,-12284.0,-10471.0,2388.0,-1488.0,-6.0,-1.0,-18.0,-10.0,-19.0,0.0,-16.0,-2.0,0.12593436241149902
57,26.0,-19.0,38.0,1.0,-12284.0,-10471.0,2388.0,-1488.0,1.0,3.0,4.0,12.0,31.0,3.0,5.0,1.0,0.12779855728149414
58,26.0,-19.0,38.0,1.0,-12284.0,-10471.0,2388.0,-1488.0,-3.0,-6.0,-5.0,6.0,4.0,2.0,-6.0,-2.0,0.12966656684875488
59,13.0,-20.0,23.0,1.0,-12281.0,-10473.0,2395.0,-1491.0,-3.0,-6.0,-5.0,6.0,4.0,2.0,-6.0,-2.0,0.13255000114440918
60,13.0,-20.0,23.0,1.0,-12281.0,-10473.0,2395.0,-1491.0,0.0,-3.0,-6.0,-5.0,-18.0,-23.0,-10.0,-6.0,0.13458538055419922
61,13.0,-20.0,23.0,1.0,-12281.0,-10473.0,2395.0,-1491.0,2.0,1.0,21.0,-1.0,10.0,-5.0,-5.0,1.0,0.13644957542419434
62,32.0,-17.0,14.0,1.0,-12276.0,-10477.0,2400.0,-1493.0,2.0,1.0,21.0,-1.0,10.0,-5.0,-5.0,1.0,0.13825702667236328
63,32.0,-17.0,14.0,1.0,-12276.0,-10477.0,2400.0,-1493.0,5.0,7.0,-13.0,2.0,7.0,5.0,7.0,4.0,0.1401364803314209
64,32.0,-17.0,14.0,1.0,-12276.0,-10477.0,2400.0,-1493.0,-4.0,-11.0,-16.0,4.0,-1.0,-10.0,-9.0,-2.0,0.14196324348449707
65,12.0,-10.0,32.0,1.0,-12274.0,-10478.0,2404.0,-1496.0,-4.0,-11.0,-16.0,4.0,-1.0,-10.0,-9.0,-2.0,0.14405441284179688
66,12.0,-10.0,32.0,1.0,-12274.0,-10478.0,2404.0,-1496.0,-1.0,-1.0,-4.0,-3.0,-29.0,-4.0,0.0,-4.0,0.14836716651916504
67,12.0,-10.0,32.0,1.0,-12274.0,-10478.0,2404.0,-1496.0,2.0,-3.0,10.0,-4.0,-2.0,8.0,-7.0,3.0,0.15057158470153809
68,31.0,6.0,40.0,1.0,-12270.0,-10481.0,2405.0,-1501.0,2.0,-3.0,10.0,-4.0,-2.0,8.0,-7.0,3.0,0.15248847007751465
69,31.0,6.0,40.0,1.0,-12270.0,-10481.0,2405.0,-1501.0,-4.0,-12.0,-11.0,-4.0,-20.0,-16.0,-1.0,-3.0,0.15439581871032715
70,31.0,6.0,40.0,1.0,-12270.0,-10481.0,2405.0,-1501.0,1.0,4.0,20.0,-2.0,2.0,15.0,-3.0,-2.0,0.1561741828918457
71,9.0,7.0,33.0,1.0,-12268.0,-10483.0,2408.0,-1506.0,1.0,4.0,20.0,-2.0,2.0,15.0,-3.0,-2.0,0.15796899795532227
72,9.0,7.0,33.0,1.0,-12268.0,-10483.0,2408.0,-1506.0,-4.0,1.0,1.0,-3.0,12.0,8.0,5.0,1.0,0.1598224639892578
73,9.0,7.0,33.0,1.0,-12268.0,-10483.0,2408.0,-1506.0,0.0,-2.0,-12.0,-2.0,-3.0,-14.0,8.0,-1.0,0.16162943840026855
74,-20.0,1.0,38.0,1.0,-12268.0,-10481.0,2413.0,-1511.0,0.0,-2.0,-12.0,-2.0,-3.0,-14.0,8.0,-1.0,0.16379570960998535
75,-20.0,1.0,38.0,1.0,-12268.0,-10481.0,2413.0,-1511.0,-3.0,-6.0,23.0,3.0,-26.0,-5.0,-3.0,2.0,0.16640353202819824
76,-20.0,1.0,38.0,1.0,-12268.0,-10481.0,2413.0,-1511.0,-1.0,1.0,-3.0,3.0,14.0,0.0,-11.0,-4.0,0.16823101043701172
77,5.0,-12.0,24.0,1.0,-12266.0,-10482.0,2416.0,-1512.0,-1.0,1.0,-3.0,3.0,14.0,0.0,-11.0,-4.0,0.17003607749938965
78,5.0,-12.0,24.0,1.0,-12266.0,-10482.0,2416.0,-1512.0,3.0,7.0,0.0,9.0,23.0,-2.0,2.0,-5.0,0.17188453674316406
79,5.0,-12.0,24.0,1.0,-12266.0,-10482.0,2416.0,-1512.0,-1.0,7.0,-11.0,-6.0,-15.0,-9.0,3.0,2.0,0.17366647720336914
80,-8.0,-21.0,34.0,1.0,-12266.0,-10481.0,2422.0,-1513.0,-1.0,7.0,-11.0,-6.0,-15.0,-9.0,3.0,2.0,0.17566156387329102
81,-8.0,-21.0,34.0,1.0,-12266.0,-10481.0,2422.0,-1513.0,5.0,13.0,35.0,1.0,14.0,18.0,0.0,5.0,0.17963719367980957
82,-8.0,-21.0,34.0,1.0,-12266.0,-10481.0,2422.0,-1513.0,3.0,-1.0,0.0,4.0,6.0,-9.0,-2.0,-4.0,0.1824817657470703
83,4.0,-5.0,33.0,1.0,-12262.0,-10484.0,2426.0,-1516.0,3.0,-1.0,0.0,4.0,6.0,-9.0,-2.0,-4.0,0.1843397617340088
84,4.0,-5.0,33.0,1.0,-12262.0,-10484.0,2426.0,-1516.0,0.0,-3.0,-14.0,-8.0,-2.0,-6.0,-4.0,-2.0,0.18622589111328125
85,4.0,-5.0,33.0,1.0,-12262.0,-10484.0,2426.0,-1516.0,-2.0,-4.0,7.0,-2.0,-12.0,-4.0,2.0,2.0,0.18808627128601074
86,-58.0,6.0,37.0,1.0,-12266.0,-10478.0,2431.0,-1520.0,-2.0,-4.0,7.0,-2.0,-12.0,-4.0,2.0,2.0,0.18992257118225098
87,-58.0,6.0,37.0,1.0,-12266.0,-10478.0,2431.0,-1520.0,0.0,-6.0,-18.0,-9.0,10.0,5.0,0.0,-1.0,0.19343924522399902
88,-58.0,6.0,37.0,1.0,-12266.0,-10478.0,2431.0,-1520.0,2.0,11.0,-2.0,1.0,0.0,-5.0,-1.0,5.0,0.19685745239257812
89,-47.0,10.0,42.0,1.0,-12270.0,-10471.0,2435.0,-1525.0,2.0,11.0,-2.0,1.0,0.0,-5.0,-1.0,5.0,0.19891047477722168
90,-47.0,10.0,42.0,1.0,-12270.0,-10471.0,2435.0,-1525.0,-6.0,-2.0,-23.0,1.0,18.0,-1.0,-3.0,-3.0,0.2011089324951172
91,-47.0,10.0,42.0,1.0,-12270.0,-10471.0,2435.0,-1525.0,0.0,4.0,14.0,2.0,-31.0,-2.0,-6.0,-16.0,0.2029879093170166
92,33.0,5.0,42.0,1.0,-12264.0,-10476.0,2438.0,-1531.0,0.0,4.0,14.0,2.0,-31.0,-2.0,-6.0,-16.0,0.20479488372802734
93,33.0,5.0,42.0,1.0,-12264.0,-10476.0,2438.0,-1531.0,-2.0,-4.0,-6.0,-1.0,-6.0,9.0,0.0,0.0,0.20674371719360352
94,33.0,5.0,42.0,1.0,-12264.0,-10476.0,2438.0,-1531.0,1.0,-9.0,-3.0,-3.0,3.0,4.0,0.0,2.0,0.21036338806152344
95,19.0,-5.0,24.0,1.0,-12259.0,-10480.0,2443.0,-1536.0,1.0,-9.0,-3.0,-3.0,3.0,4.0,0.0,2.0,0.2124311923980713
96,19.0,-5.0,24.0,1.0,-12259.0,-10480.0,2443.0,-1536.0,0.0,-10.0,-7.0,1.0,-7.0,-1.0,0.0,-4.0,0.21527767181396484
97,19.0,-5.0,24.0,1.0,-12259.0,-10480.0,2443.0,-1536.0,1.0,10.0,24.0,-1.0,14.0,1.0,2.0,2.0,0.21716952323913574
98,-7.0,5.0,6.0,1.0,-12259.0,-10481.0,2444.0,-1536.0,1.0,10.0,24.0,-1.0,14.0,1.0,2.0,2.0,0.2189798355102539
99,-7.0,5.0,6.0,1.0,-12259.0,-10481.0,2444.0,-1536.0,-6.0,-8.0,9.0,3.0,14.0,-6.0,-2.0,3.0,0.2208542823791504
100,-7.0,5.0,6.0,1.0,-12259.0,-10481.0,2444.0,-1536.0,-2.0,-11.0,-9.0,1.0,0.0,-3.0,-2.0,-5.0,0.22262787818908691
101,-16.0,-32.0,24.0,1.0,-12258.0,-10480.0,2453.0,-1536.0,-2.0,-11.0,-9.0,1.0,0.0,-3.0,-2.0,-5.0,0.22441935539245605
102,-16.0,-32.0,24.0,1.0,-12258.0,-10480.0,2453.0,-1536.0,2.0,1.0,1.0,-6.0,-48.0,-6.0,-2.0,-3.0,0.2264864444732666
103,-16.0,-32.0,24.0,1.0,-12258.0,-10480.0,2453.0,-1536.0,-5.0,-3.0,-6.0,-8.0,-20.0,1.0,-4.0,-3.0,0.22830486297607422
104,35.0,-38.0,48.0,1.0,-12250.0,-10487.0,2460.0,-1536.0,-5.0,-3.0,-6.0,-8.0,-20.0,1.0,-4.0,-3.0,0.23009085655212402
105,35.0,-38.0,48.0,1.0,-12250.0,-10487.0,2460.0,-1536.0,-4.0,-3.0,5.0,-6.0,-13.0,-25.0,-3.0,-3.0,0.2319645881652832
106,35.0,-38.0,48.0,1.0,-12250.0,-10487.0,2460.0,-1536.0,-3.0,-6.0,-6.0,8.0,26.0,-2.0,-3.0,1.0,0.23373723030090332
107,-45.0,-32.0,45.0,1.0,-12253.0,-10483.0,2467.0,-1535.0,-3.0,-6.0,-6.0,8.0,26.0,-2.0,-3.0,1.0,0.2355954647064209
108,-45.0,-32.0,45.0,1.0,-12253.0,-10483.0,2467.0,-1535.0,4.0,-3.0,-9.0,1.0,17.0,2.0,2.0,1.0,0.23757004737854004
109,-45.0,-32.0,45.0,1.0,-12253.0,-10483.0,2467.0,-1535.0,4.0,13.0,34.0,-6.0,-6.0,8.0,3.0,8.0,0.24078750610351562
110,-40.0,-20.0,49.0,1.0,-12255.0,-10478.0,2474.0,-1536.0,4.0,13.0,34.0,-6.0,-6.0,8.0,3.0,8.0,0.24274325370788574
111,-40.0,-20.0,49.0,1.0,-12255.0,-10478.0,2474.0,-1536.0,-2.0,-1.0,-3.0,5.0,-3.0,4.0,-4.0,-5.0,0.24466347694396973
112,-40.0,-20.0,49.0,1.0,-12255.0,-10478.0,2474.0,-1536.0,-5.0,-3.0,-3.0,2.0,-1.0,5.0,1.0,-1.0,0.2465357780456543
113,-15.0,-25.0,79.0,1.0,-12254.0,-10475.0,2489.0,-1545.0,-5.0,-3.0,-3.0,2.0,-1.0,5.0,1.0,-1.0,0.24919724464416504
114,-15.0,-25.0,79.0,1.0,-12254.0,-10475.0,2489.0,-1545.0,1.0,7.0,-18.0,6.0,13.0,-4.0,1.0,1.0,0.25119662284851074
115,-15.0,-25.0,79.0,1.0,-12254.0,-10475.0,2489.0,-1545.0,1.0,2.0,16.0,1.0,-7.0,-3.0,-3.0,-3.0,0.2530217170715332
116,29.0,-24.0,72.0,1.0,-12246.0,-10479.0,2503.0,-1554.0,1.0,2.0,16.0,1.0,-7.0,-3.0,-3.0,-3.0,0.25481748580932617
117,29.0,-24.0,72.0,1.0,-12246.0,-10479.0,2503.0,-1554.0,0.0,-6.0,-14.0,-4.0,-4.0,-2.0,0.0,0.0,0.256725549697876
118,29.0,-24.0,72.0,1.0,-12246.0,-10479.0,2503.0,-1554.0,-4.0,-6.0,-17.0,-1.0,13.0,1.0,-2.0,0.0,0.25849437713623047
119,-32.0,-40.0,75.0,1.0,-12245.0,-10476.0,2517.0,-1558.0,-4.0,-6.0,-17.0,-1.0,13.0,1.0,-2.0,0.0,0.2605574131011963
120,-32.0,-40.0,75.0,1.0,-12245.0,-10476.0,2517.0,-1558.0,-6.0,3.0,15.0,14.0,31.0,8.0,-2.0,-3.0,0.26241588592529297
121,-32.0,-40.0,75.0,1.0,-12245.0,-10476.0,2517.0,-1558.0,0.0,-4.0,-29.0,4.0,28.0,-18.0,-4.0,-4.0,0.26418519020080566
122,-32.0,-38.0,68.0,1.0,-12247.0,-10470.0,2530.0,-1562.0,0.0,-4.0,-29.0,4.0,28.0,-18.0,-4.0,-4.0,0.26596522331237793
123,-32.0,-38.0,68.0,1.0,-12247.0,-10470.0,2530.0,-1562.0,-5.0,-4.0,-4.0,-2.0,-6.0,-5.0,0.0,1.0,0.26795244216918945
124,-32.0,-38.0,68.0,1.0,-12247.0,-10470.0,2530.0,-1562.0,-3.0,-5.0,29.0,7.0,-3.0,13.0,6.0,2.0,0.27097201347351074
125,-8.0,-20.0,47.0,1.0,-12247.0,-10468.0,2538.0,-1566.0,-3.0,-5.0,29.0,7.0,-3.0,13.0,6.0,2.0,0.2729957103729248
126,-8.0,-20.0,47.0,1.0,-12247.0,-10468.0,2538.0,-1566.0,-1.0,-4.0,10.0,-1.0,-50.0,-7.0,-3.0,-2.0,0.27489519119262695
127,-8.0,-20.0,47.0,1.0,-12247.0,-10468.0,2538.0,-1566.0,1.0,-4.0,-24.0,-8.0,-8.0,-7.0,-3.0,-6.0,0.27671241760253906
128,-16.0,-11.0,56.0,1.0,-12247.0,-10466.0,2545.0,-1570.0,1.0,-4.0,-24.0,-8.0,-8.0,-7.0,-3.0,-6.0,0.2785019874572754
129,-16.0,-11.0,56.0,1.0,-12247.0,-10466.0,2545.0,-1570.0,0.0,6.0,30.0,-5.0,8.0,8.0,2.0,1.0,0.28087782859802246
130,-16.0,-11.0,56.0,1.0,-12247.0,-10466.0,2545.0,-1570.0,-6.0,1.0,7.0,-1.0,-17.0,-13.0,-4.0,2.0,0.2832214832305908
131,11.0,-14.0,51.0,1.0,-12242.0,-10470.0,2552.0,-1574.0,-6.0,1.0,7.0,-1.0,-17.0,-13.0,-4.0,2.0,0.28505539894104004
132,11.0,-14.0,51.0,1.0,-12242.0,-10470.0,2552.0,-1574.0,1.0,-8.0,-34.0,-8.0,-7.0,15.0,-2.0,-3.0,0.2869246006011963
133,11.0,-14.0,51.0,1.0,-12242.0,-10470.0,2552.0,-1574.0,-6.0,-10.0,-24.0,-12.0,-24.0,-10.0,-6.0,-2.0,0.2887239456176758
134,-6.0,-16.0,50.0,1.0,-12240.0,-10469.0,2558.0,-1577.0,-6.0,-10.0,-24.0,-12.0,-24.0,-10.0,-6.0,-2.0,0.2904982566833496
135,-6.0,-16.0,50.0,1.0,-12240.0,-10469.0,2558.0,-1577.0,-4.0,-4.0,-15.0,-1.0,0.0,-3.0,2.0,2.0,0.292438268661499
136,-6.0,-16.0,50.0,1.0,-12240.0,-10469.0,2558.0,-1577.0,4.0,-3.0,-28.0,-8.0,-15.0,3.0,-1.0,-1.0,0.2943727970123291
137,-23.0,-25.0,29.0,1.0,-12241.0,-10468.0,2563.0,-1575.0,4.0,-3.0,-28.0,-8.0,-15.0,3.0,-1.0,-1.0,0.2962064743041992
138,-23.0,-25.0,29.0,1.0,-12241.0,-10468.0,2563.0,-1575.0,-1.0,1.0,8.0,-6.0,-44.0,-3.0,-2.0,0.0,0.29805803298950195
139,-23.0,-25.0,29.0,1.0,-12241.0,-10468.0,2563.0,-1575.0,4.0,25.0,33.0,8.0,7.0,-2.0,0.0,0.0,0.30083799362182617
140,-54.0,-29.0,18.0,1.0,-12246.0,-10461.0,2569.0,-1572.0,4.0,25.0,33.0,8.0,7.0,-2.0,0.0,0.0,0.31109142303466797
141,-54.0,-29.0,18.0,1.0,-12246.0,-10461.0,2569.0,-1572.0,3.0,16.0,18.0,4.0,29.0,6.0,3.0,2.0,0.31321167945861816
142,-54.0,-29.0,18.0,1.0,-12246.0,-10461.0,2569.0,-1572.0,-1.0,13.0,12.0,-7.0,-15.0,1.0,4.0,1.0,0.31755661964416504
143,1.0,-11.0,31.0,1.0,-12243.0,-10462.0,2573.0,-1574.0,-1.0,13.0,12.0,-7.0,-15.0,1.0,4.0,1.0,0.3349580764770508
144,1.0,-11.0,31.0,1.0,-12243.0,-10462.0,2573.0,-1574.0,-1.0,-5.0,-2.0,-1.0,14.0,1.0,-2.0,-3.0,0.33693766593933105
145,1.0,-11.0,31.0,1.0,-12243.0,-10462.0,2573.0,-1574.0,-1.0,-2.0,19.0,19.0,23.0,2.0,-2.0,1.0,0.338756799697876
146,33.0,-8.0,41.0,1.0,-12237.0,-10468.0,2576.0,-1577.0,-1.0,-2.0,19.0,19.0,23.0,2.0,-2.0,1.0,0.35595011711120605
147,33.0,-8.0,41.0,1.0,-12237.0,-10468.0,2576.0,-1577.0,-2.0,-3.0,12.0,2.0,13.0,-14.0,0.0,4.0,0.3577888011932373
148,33.0,-8.0,41.0,1.0,-12237.0,-10468.0,2576.0,-1577.0,2.0,0.0,18.0,-14.0,-20.0,8.0,-1.0,-12.0,0.36401796340942383
149,4.0,-9.0,21.0,1.0,-12234.0,-10471.0,2579.0,-1577.0,2.0,0.0,18.0,-14.0,-20.0,8.0,-1.0,-12.0,0.38039493560791016
150,4.0,-9.0,21.0,1.0,-12234.0,-10471.0,2579.0,-1577.0,1.0,4.0,2.0,1.0,16.0,1.0,-3.0,-3.0,0.38359928131103516
151,4.0,-9.0,21.0,1.0,-12234.0,-10471.0,2579.0,-1577.0,1.0,-8.0,-19.0,4.0,-5.0,10.0,2.0,1.0,0.38547563552856445
152,-20.0,-2.0,5.0,1.0,-12236.0,-10469.0,2581.0,-1578.0,1.0,-8.0,-19.0,4.0,-5.0,10.0,2.0,1.0,0.40168023109436035
153,-20.0,-2.0,5.0,1.0,-12236.0,-10469.0,2581.0,-1578.0,0.0,0.0,-12.0,-8.0,16.0,0.0,0.0,-1.0,0.4035348892211914
154,-20.0,-2.0,5.0,1.0,-12236.0,-10469.0,2581.0,-1578.0,-4.0,1.0,10.0,-11.0,8.0,4.0,0.0,1.0,0.4053208827972412
155,-19.0,-2.0,0.0,1.0,-12237.0,-10467.0,2582.0,-1578.0,-4.0,1.0,10.0,-11.0,8.0,4.0,0.0,1.0,0.41720032691955566
156,-19.0,-2.0,0.0,1.0,-12237.0,-10467.0,2582.0,-1578.0,-5.0,-10.0,-14.0,-8.0,-45.0,-12.0,-4.0,0.0,0.4191708564758301
157,-19.0,-2.0,0.0,1.0,-12237.0,-10467.0,2582.0,-1578.0,-5.0,-14.0,-19.0,-3.0,-15.0,-24.0,-2.0,-2.0,0.4209284782409668
158,3.0,-3.0,7.0,1.0,-12237.0,-10467.0,2582.0,-1578.0,-5.0,-14.0,-19.0,-3.0,-15.0,-24.0,-2.0,-2.0,0.43918919563293457
159,3.0,-3.0,7.0,1.0,-12237.0,-10467.0,2582.0,-1578.0,4.0,7.0,16.0,2.0,13.0,6.0,1.0,1.0,0.44102931022644043
160,3.0,-3.0,7.0,1.0,-12237.0,-10467.0,2582.0,-1578.0,0.0,-4.0,-13.0,7.0,19.0,10.0,2.0,3.0,0.4430360794067383
161,19.0,-5.0,8.0,1.0,-12234.0,-10470.0,2583.0,-1578.0,0.0,-4.0,-13.0,7.0,19.0,10.0,2.0,3.0,0.46244049072265625
162,19.0,-5.0,8.0,1.0,-12234.0,-10470.0,2583.0,-1578.0,-5.0,0.0,8.0,5.0,-1.0,-8.0,-1.0,2.0,0.4660484790802002
163,19.0,-5.0,8.0,1.0,-12234.0,-10470.0,2583.0,-1578.0,-3.0,-7.0,-10.0,8.0,24.0,5.0,-1.0,2.0,0.4678363800048828
164,-43.0,-11.0,1.0,1.0,-12238.0,-10465.0,2586.0,-1577.0,-3.0,-7.0,-10.0,8.0,24.0,5.0,-1.0,2.0,0.47702503204345703
165,-43.0,-11.0,1.0,1.0,-12238.0,-10465.0,2586.0,-1577.0,-2.0,-8.0,-11.0,-5.0,-1.0,11.0,-2.0,-4.0,0.4789423942565918
166,-43.0,-11.0,1.0,1.0,-12238.0,-10465.0,2586.0,-1577.0,-2.0,-4.0,2.0,-3.0,-4.0,-4.0,-1.0,-3.0,0.48070812225341797
167,-33.0,-10.0,5.0,1.0,-12240.0,-10461.0,2590.0,-1577.0,-2.0,-4.0,2.0,-3.0,-4.0,-4.0,-1.0,-3.0,0.49918437004089355
168,-33.0,-10.0,5.0,1.0,-12240.0,-10461.0,2590.0,-1577.0,6.0,-1.0,-1.0,-1.0,2.0,0.0,-1.0,2.0,0.5010640621185303
169,-33.0,-10.0,5.0,1.0,-12240.0,-10461.0,2590.0,-1577.0,5.0,2.0,-18.0,3.0,-5.0,-1.0,-2.0,4.0,0.5028214454650879
170,-34.0,-10.0,29.0,1.0,-12243.0,-10456.0,2595.0,-1579.0,5.0,2.0,-18.0,3.0,-5.0,-1.0,-2.0,4.0,0.5218706130981445
171,-34.0,-10.0,29.0,1.0,-12243.0,-10456.0,2595.0,-1579.0,0.0,2.0,14.0,6.0,15.0,-2.0,1.0,-1.0,0.5237152576446533
172,-34.0,-10.0,29.0,1.0,-12243.0,-10456.0,2595.0,-1579.0,-3.0,-5.0,-14.0,3.0,-15.0,0.0,-2.0,0.0,0.5254766941070557
173,-20.0,-8.0,51.0,1.0,-12244.0,-10452.0,2604.0,-1586.0,-3.0,-5.0,-14.0,3.0,-15.0,0.0,-2.0,0.0,0.5361402034759521
174,-20.0,-8.0,51.0,1.0,-12244.0,-10452.0,2604.0,-1586.0,-4.0,0.0,11.0,14.0,26.0,-7.0,0.0,0.0,0.5380077362060547
175,-20.0,-8.0,51.0,1.0,-12244.0,-10452.0,2604.0,-1586.0,0.0,-2.0,8.0,0.0,19.0,-3.0,-5.0,-3.0,0.5432896614074707
176,30.0,-6.0,54.0,1.0,-12238.0,-10457.0,2610.0,-1592.0,0.0,-2.0,8.0,0.0,19.0,-3.0,-5.0,-3.0,0.5602240562438965
177,30.0,-6.0,54.0,1.0,-12238.0,-10457.0,2610.0,-1592.0,1.0,-7.0,-6.0,-7.0,-11.0,0.0,-1.0,-1.0,0.5649011135101318
178,30.0,-6.0,54.0,1.0,-12238.0,-10457.0,2610.0,-1592.0,3.0,-4.0,-15.0,-4.0,32.0,25.0,3.0,2.0,0.5674974918365479
179,-40.0,-13.0,55.0,1.0,-12240.0,-10452.0,2618.0,-1595.0,3.0,-4.0,-15.0,-4.0,32.0,25.0,3.0,2.0,0.5834283828735352
180,-40.0,-13.0,55.0,1.0,-12240.0,-10452.0,2618.0,-1595.0,9.0,39.0,37.0,8.0,14.0,6.0,5.0,4.0,0.5869846343994141
181,-40.0,-13.0,55.0,1.0,-12240.0,-10452.0,2618.0,-1595.0,-5.0,-10.0,18.0,4.0,-9.0,-6.0,-3.0,-3.0,0.590341329574585
182,-82.0,-7.0,64.0,1.0,-12248.0,-10439.0,2627.0,-1601.0,-5.0,-10.0,18.0,4.0,-9.0,-6.0,-3.0,-3.0,0.5959639549255371
183,-82.0,-7.0,64.0,1.0,-12248.0,-10439.0,2627.0,-1601.0,0.0,-5.0,-17.0,-9.0,-5.0,-2.0,-7.0,-6.0,0.5985376834869385
184,-82.0,-7.0,64.0,1.0,-12248.0,-10439.0,2627.0,-1601.0,-3.0,-1.0,-2.0,-9.0,4.0,-12.0,-1.0,-3.0,0.6026532649993896
185,-3.0,-11.0,68.0,1.0,-12249.0,-10435.0,2636.0,-1609.0,-3.0,-1.0,-2.0,-9.0,4.0,-12.0,-1.0,-3.0,0.6192548274993896
186,-3.0,-11.0,68.0,1.0,-12249.0,-10435.0,2636.0,-1609.0,-1.0,1.0,16.0,-13.0,-50.0,-8.0,0.0,2.0,0.6213080883026123
187,-3.0,-11.0,68.0,1.0,-12249.0,-10435.0,2636.0,-1609.0,-3.0,0.0,-7.0,-11.0,-33.0,-6.0,1.0,-3.0,0.6230924129486084
188,54.0,-20.0,64.0,1.0,-12244.0,-10437.0,2644.0,-1618.0,-3.0,0.0,-7.0,-11.0,-33.0,-6.0,1.0,-3.0,0.6439311504364014
189,54.0,-20.0,64.0,1.0,-12244.0,-10437.0,2644.0,-1618.0,0.0,24.0,73.0,4.0,4.0,27.0,-2.0,-2.0,0.6481215953826904
190,54.0,-20.0,64.0,1.0,-12244.0,-10437.0,2644.0,-1618.0,10.0,30.0,48.0,5.0,0.0,-14.0,-3.0,-2.0,0.6504979133605957
191,71.0,-21.0,65.0,1.0,-12239.0,-10441.0,2650.0,-1625.0,10.0,30.0,48.0,5.0,0.0,-14.0,-3.0,-2.0,0.6557900905609131
192,71.0,-21.0,65.0,1.0,-12239.0,-10441.0,2650.0,-1625.0,-16.0,-25.0,-23.0,-3.0,23.0,10.0,-1.0,-1.0,0.6576478481292725
193,71.0,-21.0,65.0,1.0,-12239.0,-10441.0,2650.0,-1625.0,17.0,64.0,104.0,-16.0,12.0,17.0,23.0,11.0,0.662686824798584
194,100.0,-62.0,76.0,1.0,-12235.0,-10442.0,2660.0,-1630.0,17.0,64.0,104.0,-16.0,12.0,17.0,23.0,11.0,0.6792693138122559
195,100.0,-62.0,76.0,1.0,-12235.0,-10442.0,2660.0,-1630.0,17.0,49.0,-3.0,-10.0,15.0,18.0,87.0,20.0,0.6818139553070068
196,100.0,-62.0,76.0,1.0,-12235.0,-10442.0,2660.0,-1630.0,3.0,11.0,-46.0,-1.0,-17.0,-60.0,30.0,9.0,0.6835870742797852
197,381.0,-120.0,80.0,1.0,-12195.0,-10482.0,2676.0,-1640.0,3.0,11.0,-46.0,-1.0,-17.0,-60.0,30.0,9.0,0.7032253742218018
198,381.0,-120.0,80.0,1.0,-12195.0,-10482.0,2676.0,-1640.0,0.0,22.0,38.0,30.0,22.0,31.0,49.0,17.0,0.7068593502044678
199,381.0,-120.0,80.0,1.0,-12195.0,-10482.0,2676.0,-1640.0,-8.0,-32.0,-55.0,-64.0,-25.0,-4.0,-10.0,-14.0,0.710040807723999
200,582.0,160.0,173.0,1.0,-12155.0,-10528.0,2647.0,-1693.0,-8.0,-32.0,-55.0,-64.0,-25.0,-4.0,-10.0,-14.0,0.7167167663574219
201,582.0,160.0,173.0,1.0,-12155.0,-10528.0,2647.0,-1693.0,-18.0,-69.0,-89.0,6.0,-14.0,-31.0,-120.0,-15.0,0.7236378192901611
202,582.0,160.0,173.0,1.0,-12155.0,-10528.0,2647.0,-1693.0,-19.0,-60.0,-56.0,56.0,18.0,35.0,-5.0,-44.0,0.7254607677459717
203,473.0,293.0,278.0,1.0,-12130.0,-10558.0,2599.0,-1757.0,-19.0,-60.0,-56.0,56.0,18.0,35.0,-5.0,-44.0,0.7398786544799805
204,473.0,293.0,278.0,1.0,-12130.0,-10558.0,2599.0,-1757.0,-14.0,-44.0,-17.0,-45.0,-8.0,-17.0,-22.0,-35.0,0.7429666519165039
205,473.0,293.0,278.0,1.0,-12130.0,-10558.0,2599.0,-1757.0,-15.0,-61.0,-82.0,13.0,-20.0,-64.0,48.0,25.0,0.7456121444702148
206,-160.0,289.0,208.0,1.0,-12181.0,-10510.0,2542.0,-1781.0,-15.0,-61.0,-82.0,13.0,-20.0,-64.0,48.0,25.0,0.7635929584503174
207,-160.0,289.0,208.0,1.0,-12181.0,-10510.0,2542.0,-1781.0,2.0,-14.0,-29.0,-10.0,-10.0,-1.0,-122.0,-16.0,0.7683999538421631
208,-160.0,289.0,208.0,1.0,-12181.0,-10510.0,2542.0,-1781.0,-6.0,-6.0,11.0,12.0,-26.0,-44.0,-27.0,5.0,0.7720849514007568
209,-937.0,225.0,-35.0,1.0,-12336.0,-10335.0,2509.0,-1778.0,-6.0,-6.0,11.0,12.0,-26.0,-44.0,-27.0,5.0,0.7753081321716309
210,-937.0,225.0,-35.0,1.0,-12336.0,-10335.0,2509.0,-1778.0,10.0,2.0,-41.0,-73.0,-54.0,-40.0,-22.0,7.0,0.7837588787078857
211,-937.0,225.0,-35.0,1.0,-12336.0,-10335.0,2509.0,-1778.0,16.0,47.0,-6.0,34.0,30.0,48.0,-39.0,5.0,0.7855608463287354
212,-1088.0,287.0,-107.0,1.0,-12509.0,-10138.0,2465.0,-1769.0,16.0,47.0,-6.0,34.0,30.0,48.0,-39.0,5.0,0.8001596927642822
213,-1088.0,287.0,-107.0,1.0,-12509.0,-10138.0,2465.0,-1769.0,1.0,6.0,22.0,-3.0,63.0,-48.0,8.0,-2.0,0.8031623363494873
214,-1088.0,287.0,-107.0,1.0,-12509.0,-10138.0,2465.0,-1769.0,0.0,-11.0,26.0,-7.0,-14.0,8.0,-18.0,0.0,0.8060784339904785
215,-1088.0,410.0,-312.0,1.0,-12686.0,-9940.0,2383.0,-1747.0,0.0,-11.0,26.0,-7.0,-14.0,8.0,-18.0,0.0,0.8227970600128174
216,-1088.0,410.0,-312.0,1.0,-12686.0,-9940.0,2383.0,-1747.0,-6.0,-14.0,-2.0,53.0,-2.0,10.0,41.0,-3.0,0.8269097805023193
217,-1088.0,410.0,-312.0,1.0,-12686.0,-9940.0,2383.0,-1747.0,2.0,12.0,23.0,-38.0,-8.0,11.0,-47.0,0.0,0.8317382335662842
218,-1107.0,608.0,-548.0,1.0,-12876.0,-9737.0,2230.0,-1701.0,2.0,12.0,23.0,-38.0,-8.0,11.0,-47.0,0.0,0.8350260257720947
219,-1107.0,608.0,-548.0,1.0,-12876.0,-9737.0,2230.0,-1701.0,-10.0,-15.0,-36.0,-2.0,-14.0,0.0,33.0,0.0,0.8439147472381592
220,-1107.0,608.0,-548.0,1.0,-12876.0,-9737.0,2230.0,-1701.0,4.0,9.0,-45.0,1.0,-54.0,12.0,-6.0,3.0,0.8457255363464355
221,-1318.0,744.0,-990.0,1.0,-13088.0,-9518.0,2008.0,-1594.0,4.0,9.0,-45.0,1.0,-54.0,12.0,-6.0,3.0,0.8591983318328857
222,-1318.0,744.0,-990.0,1.0,-13088.0,-9518.0,2008.0,-1594.0,-6.0,-22.0,-3.0,30.0,15.0,11.0,18.0,0.0,0.8612451553344727
223,-1318.0,744.0,-990.0,1.0,-13088.0,-9518.0,2008.0,-1594.0,-1.0,-7.0,-39.0,-56.0,18.0,7.0,24.0,-2.0,0.8660967350006104
224,-1570.0,808.0,-1345.0,1.0,-13313.0,-9279.0,1750.0,-1437.0,-1.0,-7.0,-39.0,-56.0,18.0,7.0,24.0,-2.0,0.8830525875091553
225,-1570.0,808.0,-1345.0,1.0,-13313.0,-9279.0,1750.0,-1437.0,-6.0,-17.0,64.0,43.0,28.0,-2.0,-4.0,-2.0,0.8865699768066406
226,-1570.0,808.0,-1345.0,1.0,-13313.0,-9279.0,1750.0,-1437.0,-3.0,-3.0,13.0,-7.0,4.0,12.0,15.0,0.0,0.8906409740447998
227,-2003.0,906.0,-1595.0,1.0,-13554.0,-8998.0,1489.0,-1259.0,-3.0,-3.0,13.0,-7.0,4.0,12.0,15.0,0.0,0.8951292037963867
228,-2003.0,906.0,-1595.0,1.0,-13554.0,-8998.0,1489.0,-1259.0,8.0,18.0,44.0,8.0,-101.0,14.0,5.0,-2.0,0.9034116268157959
229,-2003.0,906.0,-1595.0,1.0,-13554.0,-8998.0,1489.0,-1259.0,4.0,22.0,64.0,34.0,27.0,-5.0,3.0,3.0,0.9051914215087891
230,-2508.0,1035.0,-1821.0,1.0,-13830.0,-8641.0,1193.0,-1051.0,4.0,22.0,64.0,34.0,27.0,-5.0,3.0,3.0,0.9195232391357422
231,-2508.0,1035.0,-1821.0,1.0,-13830.0,-8641.0,1193.0,-1051.0,-2.0,-6.0,-29.0,-14.0,53.0,2.0,19.0,3.0,0.9228012561798096
232,-2508.0,1035.0,-1821.0,1.0,-13830.0,-8641.0,1193.0,-1051.0,-9.0,0.0,-43.0,-25.0,5.0,-10.0,-13.0,-3.0,0.9259746074676514
233,-3079.0,1137.0,-1946.0,1.0,-14140.0,-8189.0,878.0,-826.0,-9.0,0.0,-43.0,-25.0,5.0,-10.0,-13.0,-3.0,0.9516708850860596
234,-3079.0,1137.0,-1946.0,1.0,-14140.0,-8189.0,878.0,-826.0,5.0,7.0,-19.0,-16.0,-17.0,-6.0,15.0,7.0,0.9548394680023193
235,-3079.0,1137.0,-1946.0,1.0,-14140.0,-8189.0,878.0,-826.0,21.0,23.0,45.0,21.0,50.0,12.0,3.0,5.0,0.956690788269043
236,-3539.0,1359.0,-1989.0,1.0,-14464.0,-7655.0,530.0,-610.0,21.0,23.0,45.0,21.0,50.0,12.0,3.0,5.0,0.9584701061248779
237,-3539.0,1359.0,-1989.0,1.0,-14464.0,-7655.0,530.0,-610.0,7.0,14.0,17.0,-24.0,20.0,4.0,2.0,2.0,0.9636647701263428
238,-3539.0,1359.0,-1989.0,1.0,-14464.0,-7655.0,530.0,-610.0,-13.0,-19.0,7.0,-5.0,-7.0,-2.0,3.0,-5.0,0.9659750461578369
239,-3774.0,1492.0,-2029.0,1.0,-14774.0,-7072.0,163.0,-398.0,-13.0,-19.0,7.0,-5.0,-7.0,-2.0,3.0,-5.0,0.9790098667144775
240,-3774.0,1492.0,-2029.0,1.0,-14774.0,-7072.0,163.0,-398.0,-1.0,-4.0,-39.0,16.0,43.0,4.0,-7.0,-3.0,0.9819340705871582
241,-3774.0,1492.0,-2029.0,1.0,-14774.0,-7072.0,163.0,-398.0,-6.0,-10.0,79.0,17.0,-7.0,10.0,6.0,-2.0,0.9842538833618164
242,-3932.0,1629.0,-1954.0,1.0,-15057.0,-6454.0,-214.0,-210.0,-6.0,-10.0,79.0,17.0,-7.0,10.0,6.0,-2.0,1.0015177726745605
243,-3932.0,1629.0,-1954.0,1.0,-15057.0,-6454.0,-214.0,-210.0,8.0,37.0,4.0,1.0,-23.0,2.0,22.0,9.0,1.003410816192627
244,-3932.0,1629.0,-1954.0,1.0,-15057.0,-6454.0,-214.0,-210.0,-1.0,-12.0,-20.0,-10.0,-9.0,20.0,30.0,-7.0,1.0052011013031006
245,-4048.0,1722.0,-1800.0,1.0,-15309.0,-5808.0,-591.0,-55.0,-1.0,-12.0,-20.0,-10.0,-9.0,20.0,30.0,-7.0,1.0159573554992676
246,-4048.0,1722.0,-1800.0,1.0,-15309.0,-5808.0,-591.0,-55.0,12.0,24.0,6.0,-5.0,31.0,4.0,8.0,10.0,1.0235364437103271
247,-4048.0,1722.0,-1800.0,1.0,-15309.0,-5808.0,-591.0,-55.0,-2.0,-7.0,-12.0,11.0,-3.0,0.0,-5.0,-2.0,1.0253493785858154
248,-4482.0,1864.0,-1674.0,1.0,-15549.0,-5071.0,-981.0,68.0,-2.0,-7.0,-12.0,11.0,-3.0,0.0,-5.0,-2.0,1.0389869213104248
249,-4482.0,1864.0,-1674.0,1.0,-15549.0,-5071.0,-981.0,68.0,9.0,31.0,34.0,3.0,-29.0,-5.0,-13.0,-5.0,1.0413336753845215
250,-4482.0,1864.0,-1674.0,1.0,-15549.0,-5071.0,-981.0,68.0,-9.0,-37.0,-65.0,17.0,-7.0,-16.0,-8.0,0.0,1.0448637008666992
251,-4234.0,2109.0,-1600.0,1.0,-15731.0,-4358.0,-1405.0,168.0,-9.0,-37.0,-65.0,17.0,-7.0,-16.0,-8.0,0.0,1.0623703002929688
252,-4234.0,2109.0,-1600.0,1.0,-15731.0,-4358.0,-1405.0,168.0,11.0,29.0,74.0,-3.0,-3.0,2.0,-5.0,13.0,1.0655252933502197
253,-4234.0,2109.0,-1600.0,1.0,-15731.0,-4358.0,-1405.0,168.0,-1.0,0.0,8.0,-4.0,9.0,1.0,-4.0,0.0,1.0685255527496338
254,-3805.0,2448.0,-1512.0,1.0,-15845.0,-3713.0,-1880.0,244.0,-1.0,0.0,8.0,-4.0,9.0,1.0,-4.0,0.0,1.0768382549285889
255,-3805.0,2448.0,-1512.0,1.0,-15845.0,-3713.0,-1880.0,244.0,-4.0,1.0,32.0,7.0,11.0,4.0,7.0,2.0,1.0840106010437012
256,-3805.0,2448.0,-1512.0,1.0,-15845.0,-3713.0,-1880.0,244.0,-2.0,0.0,-28.0,1.0,10.0,-46.0,-17.0,9.0,1.0858666896820068
257,-3706.0,2749.0,-1496.0,1.0,-15910.0,-3072.0,-2407.0,307.0,-2.0,0.0,-28.0,1.0,10.0,-46.0,-17.0,9.0,1.0986697673797607
258,-3706.0,2749.0,-1496.0,1.0,-15910.0,-3072.0,-2407.0,307.0,-8.0,-2.0,-42.0,6.0,0.0,3.0,6.0,-3.0,1.1005184650421143
259,-3706.0,2749.0,-1496.0,1.0,-15910.0,-3072.0,-2407.0,307.0,-7.0,-22.0,14.0,9.0,-4.0,7.0,-3.0,-6.0,1.1059927940368652
260,-3471.0,3002.0,-1564.0,1.0,-15920.0,-2453.0,-2977.0,381.0,-7.0,-22.0,14.0,9.0,-4.0,7.0,-3.0,-6.0,1.122605562210083
261,-3471.0,3002.0,-1564.0,1.0,-15920.0,-2453.0,-2977.0,381.0,-10.0,-49.0,-37.0,3.0,-5.0,-12.0,-2.0,-3.0,1.126330852508545
262,-3471.0,3002.0,-1564.0,1.0,-15920.0,-2453.0,-2977.0,381.0,4.0,16.0,2.0,4.0,-4.0,7.0,-5.0,4.0,1.1297657489776611
263,-3309.0,3194.0,-1707.0,1.0,-15875.0,-1847.0,-3577.0,480.0,4.0,16.0,2.0,4.0,-4.0,7.0,-5.0,4.0,1.1373119354248047
264,-3309.0,3194.0,-1707.0,1.0,-15875.0,-1847.0,-3577.0,480.0,-6.0,-18.0,-39.0,-9.0,-21.0,6.0,-1.0,-11.0,1.1437757015228271
265,-3309.0,3194.0,-1707.0,1.0,-15875.0,-1847.0,-3577.0,480.0,8.0,14.0,8.0,0.0,-48.0,-5.0,-16.0,-3.0,1.1456708908081055
266,-2797.0,3142.0,-1830.0,1.0,-15779.0,-1315.0,-4166.0,621.0,8.0,14.0,8.0,0.0,-48.0,-5.0,-16.0,-3.0,1.1583805084228516
267,-2797.0,3142.0,-1830.0,1.0,-15779.0,-1315.0,-4166.0,621.0,2.0,16.0,-20.0,0.0,-26.0,46.0,-47.0,-13.0,1.1605992317199707
268,-2797.0,3142.0,-1830.0,1.0,-15779.0,-1315.0,-4166.0,621.0,6.0,32.0,40.0,-3.0,41.0,-29.0,-43.0,-10.0,1.1659271717071533
269,-2771.0,3204.0,-1998.0,1.0,-15638.0,-774.0,-4763.0,791.0,6.0,32.0,40.0,-3.0,41.0,-29.0,-43.0,-10.0,1.18284273147583
270,-2771.0,3204.0,-1998.0,1.0,-15638.0,-774.0,-4763.0,791.0,-2.0,-2.0,-1.0,5.0,23.0,-39.0,20.0,9.0,1.1861612796783447
271,-2540.0,3521.0,-2165.0,1.0,-15434.0,-255.0,-5401.0,998.0,-2.0,-2.0,-1.0,5.0,23.0,-39.0,20.0,9.0,1.1892945766448975
272,-2540.0,3521.0,-2165.0,1.0,-15434.0,-255.0,-5401.0,998.0,8.0,11.0,5.0,-9.0,19.0,26.0,18.0,4.0,1.192704439163208
273,-2540.0,3521.0,-2165.0,1.0,-15434.0,-255.0,-5401.0,998.0,4.0,13.0,29.0,-2.0,10.0,34.0,-3.0,-1.0,1.2033050060272217
274,-1670.0,3657.0,-2146.0,1.0,-15175.0,134.0,-6048.0,1257.0,4.0,13.0,29.0,-2.0,10.0,34.0,-3.0,-1.0,1.2055871486663818
275,-1670.0,3657.0,-2146.0,1.0,-15175.0,134.0,-6048.0,1257.0,-11.0,-15.0,-39.0,5.0,-4.0,-19.0,9.0,-3.0,1.211235761642456
276,-1670.0,3657.0,-2146.0,1.0,-15175.0,134.0,-6048.0,1257.0,2.0,-14.0,-24.0,15.0,33.0,26.0,4.0,-2.0,1.2185091972351074
277,-530.0,3830.0,-2095.0,1.0,-14865.0,328.0,-6699.0,1581.0,2.0,-14.0,-24.0,15.0,33.0,26.0,4.0,-2.0,1.227210521697998
278,-530.0,3830.0,-2095.0,1.0,-14865.0,328.0,-6699.0,1581.0,-4.0,2.0,-36.0,-30.0,-18.0,-14.0,-1.0,-2.0,1.2313439846038818
279,-530.0,3830.0,-2095.0,1.0,-14865.0,328.0,-6699.0,1581.0,-3.0,-21.0,-40.0,-12.0,24.0,-22.0,7.0,-8.0,1.240868330001831
280,321.0,3586.0,-2527.0,1.0,-14527.0,422.0,-7288.0,2033.0,-3.0,-21.0,-40.0,-12.0,24.0,-22.0,7.0,-8.0,1.242903232574463
281,321.0,3586.0,-2527.0,1.0,-14527.0,422.0,-7288.0,2033.0,4.0,15.0,24.0,19.0,7.0,36.0,5.0,-1.0,1.2478456497192383
282,321.0,3586.0,-2527.0,1.0,-14527.0,422.0,-7288.0,2033.0,-6.0,-2.0,4.0,-8.0,-10.0,-45.0,-1.0,-2.0,1.2635161876678467
283,383.0,3274.0,-2899.0,1.0,-14168.0,544.0,-7808.0,2544.0,-6.0,-2.0,4.0,-8.0,-10.0,-45.0,-1.0,-2.0,1.266571044921875
284,383.0,3274.0,-2899.0,1.0,-14168.0,544.0,-7808.0,2544.0,0.0,-2.0,-2.0,2.0,33.0,13.0,9.0,2.0,1.2711889743804932
285,383.0,3274.0,-2899.0,1.0,-14168.0,544.0,-7808.0,2544.0,-5.0,2.0,40.0,-16.0,7.0,-66.0,-13.0,-1.0,1.2783246040344238
286,321.0,2843.0,-2896.0,1.0,-13810.0,684.0,-8248.0,3040.0,-5.0,2.0,40.0,-16.0,7.0,-66.0,-13.0,-1.0,1.2858593463897705
287,321.0,2843.0,-2896.0,1.0,-13810.0,684.0,-8248.0,3040.0,1.0,-15.0,-30.0,5.0,-2.0,-8.0,5.0,-1.0,1.2878210544586182
288,321.0,2843.0,-2896.0,1.0,-13810.0,684.0,-8248.0,3040.0,10.0,24.0,16.0,16.0,-17.0,-3.0,29.0,8.0,1.3024578094482422
289,-13.0,2139.0,-2526.0,1.0,-13500.0,867.0,-8580.0,3440.0,10.0,24.0,16.0,16.0,-17.0,-3.0,29.0,8.0,1.3058106899261475
290,-13.0,2139.0,-2526.0,1.0,-13500.0,867.0,-8580.0,3440.0,-7.0,-4.0,35.0,3.0,-34.0,-54.0,-14.0,-9.0,1.3097527027130127
291,-13.0,2139.0,-2526.0,1.0,-13500.0,867.0,-8580.0,3440.0,0.0,-8.0,-31.0,-1.0,-88.0,32.0,9.0,2.0,1.3249163627624512
292,-89.0,1336.0,-2109.0,1.0,-13261.0,1067.0,-8789.0,3770.0,0.0,-8.0,-31.0,-1.0,-88.0,32.0,9.0,2.0,1.3280003070831299
293,-89.0,1336.0,-2109.0,1.0,-13261.0,1067.0,-8789.0,3770.0,1.0,5.0,-4.0,5.0,48.0,37.0,14.0,2.0,1.33198881149292
294,-89.0,1336.0,-2109.0,1.0,-13261.0,1067.0,-8789.0,3770.0,-3.0,-16.0,-13.0,-13.0,105.0,8.0,-7.0,1.0,1.3376879692077637
295,626.0,718.0,-1335.0,1.0,-13008.0,1232.0,-9003.0,4083.0,-3.0,-16.0,-13.0,-13.0,105.0,8.0,-7.0,1.0,1.3469469547271729
296,626.0,718.0,-1335.0,1.0,-13008.0,1232.0,-9003.0,4083.0,-4.0,-7.0,-10.0,1.0,114.0,21.0,7.0,4.0,1.3505375385284424
297,626.0,718.0,-1335.0,1.0,-13008.0,1232.0,-9003.0,4083.0,-5.0,-6.0,27.0,5.0,50.0,2.0,-8.0,-7.0,1.361853837966919
298,719.0,164.0,-365.0,1.0,-12836.0,1318.0,-9157.0,4254.0,-5.0,-6.0,27.0,5.0,50.0,2.0,-8.0,-7.0,1.3645412921905518
299,719.0,164.0,-365.0,1.0,-12836.0,1318.0,-9157.0,4254.0,-2.0,-1.0,-4.0,12.0,45.0,39.0,1.0,-2.0,1.3672943115234375
300,719.0,164.0,-365.0,1.0,-12836.0,1318.0,-9157.0,4254.0,24.0,63.0,63.0,34.0,-1.0,0.0,-4.0,7.0,1.3844687938690186
301,901.0,-562.0,530.0,1.0,-12792.0,1341.0,-9181.0,4327.0,24.0,63.0,63.0,34.0,-1.0,0.0,-4.0,7.0,1.3864154815673828
302,901.0,-562.0,530.0,1.0,-12792.0,1341.0,-9181.0,4327.0,3.0,-3.0,-20.0,-23.0,3.0,13.0,6.0,3.0,1.390413761138916
303,901.0,-562.0,530.0,1.0,-12792.0,1341.0,-9181.0,4327.0,-17.0,-37.0,-40.0,-3.0,-6.0,0.0,-11.0,-10.0,1.3983843326568604
304,1805.0,-1094.0,1317.0,1.0,-12985.0,1008.0,-8959.0,4307.0,-17.0,-37.0,-40.0,-3.0,-6.0,0.0,-11.0,-10.0,1.405914068222046
305,1805.0,-1094.0,1317.0,1.0,-12985.0,1008.0,-8959.0,4307.0,14.0,12.0,1.0,7.0,-23.0,3.0,11.0,3.0,1.407745361328125
306,1805.0,-1094.0,1317.0,1.0,-12985.0,1008.0,-8959.0,4307.0,2.0,-11.0,-40.0,-18.0,-48.0,-42.0,-13.0,-5.0,1.4209485054016113
307,2210.0,-1249.0,2139.0,1.0,-13189.0,584.0,-8740.0,4216.0,2.0,-11.0,-40.0,-18.0,-48.0,-42.0,-13.0,-5.0,1.4227046966552734
308,2210.0,-1249.0,2139.0,1.0,-13189.0,584.0,-8740.0,4216.0,-4.0,-5.0,5.0,2.0,-14.0,12.0,-8.0,0.0,1.4280121326446533
309,2210.0,-1249.0,2139.0,1.0,-13189.0,584.0,-8740.0,4216.0,-19.0,-28.0,-10.0,-17.0,40.0,8.0,4.0,-4.0,1.4454286098480225
310,2160.0,-1569.0,2543.0,1.0,-13432.0,142.0,-8458.0,4060.0,-19.0,-28.0,-10.0,-17.0,40.0,8.0,4.0,-4.0,1.4499642848968506
311,2160.0,-1569.0,2543.0,1.0,-13432.0,142.0,-8458.0,4060.0,6.0,19.0,2.0,-18.0,-7.0,13.0,0.0,5.0,1.4533860683441162
312,2160.0,-1569.0,2543.0,1.0,-13432.0,142.0,-8458.0,4060.0,-9.0,-22.0,-32.0,20.0,17.0,33.0,4.0,-6.0,1.4665820598602295
313,2486.0,-2013.0,2811.0,1.0,-13710.0,-357.0,-8079.0,3885.0,-9.0,-22.0,-32.0,20.0,17.0,33.0,4.0,-6.0,1.4684081077575684
314,2486.0,-2013.0,2811.0,1.0,-13710.0,-357.0,-8079.0,3885.0,-11.0,-21.0,-15.0,-16.0,-60.0,-73.0,-10.0,-5.0,1.470245122909546
315,2486.0,-2013.0,2811.0,1.0,-13710.0,-357.0,-8079.0,3885.0,-4.0,7.0,-15.0,-2.0,-19.0,-18.0,-1.0,1.0,1.4899349212646484
316,3006.0,-2200.0,3044.0,1.0,-13987.0,-960.0,-7625.0,3707.0,-4.0,7.0,-15.0,-2.0,-19.0,-18.0,-1.0,1.0,1.4937372207641602
317,3006.0,-2200.0,3044.0,1.0,-13987.0,-960.0,-7625.0,3707.0,0.0,1.0,3.0,11.0,21.0,15.0,22.0,-3.0,1.4975473880767822
318,3006.0,-2200.0,3044.0,1.0,-13987.0,-960.0,-7625.0,3707.0,4.0,8.0,13.0,3.0,10.0,22.0,-10.0,0.0,1.5047740936279297
319,3463.0,-2127.0,3277.0,1.0,-14233.0,-1676.0,-7123.0,3510.0,4.0,8.0,13.0,3.0,10.0,22.0,-10.0,0.0,1.507375955581665
320,3463.0,-2127.0,3277.0,1.0,-14233.0,-1676.0,-7123.0,3510.0,1.0,-6.0,-10.0,2.0,-60.0,31.0,10.0,1.0,1.5100507736206055
321,3463.0,-2127.0,3277.0,1.0,-14233.0,-1676.0,-7123.0,3510.0,10.0,7.0,2.0,9.0,1.0,23.0,-39.0,4.0,1.517991542816162
322,3478.0,-2067.0,3573.0,1.0,-14444.0,-2433.0,-6585.0,3247.0,10.0,7.0,2.0,9.0,1.0,23.0,-39.0,4.0,1.5262095928192139
323,3478.0,-2067.0,3573.0,1.0,-14444.0,-2433.0,-6585.0,3247.0,-14.0,7.0,-3.0,18.0,93.0,99.0,45.0,-8.0,1.5280981063842773
324,3478.0,-2067.0,3573.0,1.0,-14444.0,-2433.0,-6585.0,3247.0,-28.0,-5.0,-15.0,-50.0,-115.0,-90.0,-59.0,9.0,1.5426371097564697
325,3669.0,-2322.0,4551.0,1.0,-14647.0,-3296.0,-5923.0,2823.0,-28.0,-5.0,-15.0,-50.0,-115.0,-90.0,-59.0,9.0,1.5461411476135254
326,3669.0,-2322.0,4551.0,1.0,-14647.0,-3296.0,-5923.0,2823.0,-78.0,7.0,13.0,1.0,49.0,99.0,-128.0,-44.0,1.5505850315093994
327,3669.0,-2322.0,4551.0,1.0,-14647.0,-3296.0,-5923.0,2823.0,33.0,6.0,2.0,-17.0,32.0,-49.0,112.0,-43.0,1.5634279251098633
328,3731.0,-2401.0,5554.0,1.0,-14795.0,-4165.0,-5210.0,2256.0,33.0,6.0,2.0,-17.0,32.0,-49.0,112.0,-43.0,1.5659453868865967
329,3731.0,-2401.0,5554.0,1.0,-14795.0,-4165.0,-5210.0,2256.0,107.0,23.0,47.0,61.0,74.0,61.0,-25.0,90.0,1.5719952583312988
330,3731.0,-2401.0,5554.0,1.0,-14795.0,-4165.0,-5210.0,2256.0,-38.0,9.0,6.0,19.0,-4.0,107.0,10.0,-50.0,1.5781481266021729
331,2222.0,-2220.0,6392.0,1.0,-14932.0,-4817.0,-4493.0,1447.0,-38.0,9.0,6.0,19.0,-4.0,107.0,10.0,-50.0,1.585953712463379
332,2222.0,-2220.0,6392.0,1.0,-14932.0,-4817.0,-4493.0,1447.0,-96.0,-18.0,-7.0,-14.0,-128.0,57.0,82.0,-34.0,1.5877790451049805
333,2222.0,-2220.0,6392.0,1.0,-14932.0,-4817.0,-4493.0,1447.0,-35.0,0.0,7.0,-4.0,19.0,105.0,9.0,-34.0,1.6023406982421875
334,2426.0,-1543.0,7145.0,1.0,-14941.0,-5519.0,-3814.0,482.0,-35.0,0.0,7.0,-4.0,19.0,105.0,9.0,-34.0,1.605893611907959
335,2426.0,-1543.0,7145.0,1.0,-14941.0,-5519.0,-3814.0,482.0,127.0,-1.0,-9.0,8.0,-124.0,-53.0,-24.0,127.0,1.609471082687378
336,2426.0,-1543.0,7145.0,1.0,-14941.0,-5519.0,-3814.0,482.0,-7.0,26.0,14.0,-59.0,-31.0,13.0,-8.0,5.0,1.6245574951171875
337,5461.0,-1636.0,8068.0,1.0,-14637.0,-6697.0,-3016.0,-505.0,-7.0,26.0,14.0,-59.0,-31.0,13.0,-8.0,5.0,1.627147912979126
338,5461.0,-1636.0,8068.0,1.0,-14637.0,-6697.0,-3016.0,-505.0,-128.0,-42.0,-32.0,-90.0,-24.0,-74.0,-8.0,-128.0,1.6308190822601318
339,5461.0,-1636.0,8068.0,1.0,-14637.0,-6697.0,-3016.0,-505.0,25.0,36.0,56.0,4.0,-78.0,-93.0,50.0,6.0,1.6480200290679932
340,4388.0,-1850.0,6470.0,1.0,-14287.0,-7592.0,-2263.0,-1254.0,25.0,36.0,56.0,4.0,-78.0,-93.0,50.0,6.0,1.6513800621032715
341,4388.0,-1850.0,6470.0,1.0,-14287.0,-7592.0,-2263.0,-1254.0,127.0,122.0,55.0,-63.0,-63.0,-91.0,115.0,-19.0,1.654703140258789
342,4388.0,-1850.0,6470.0,1.0,-14287.0,-7592.0,-2263.0,-1254.0,105.0,68.0,86.0,45.0,-75.0,10.0,32.0,78.0,1.662001371383667
343,3705.0,-561.0,1936.0,1.0,-13953.0,-8216.0,-2064.0,-1416.0,105.0,68.0,86.0,45.0,-75.0,10.0,32.0,78.0,1.6656239032745361
344,3705.0,-561.0,1936.0,1.0,-13953.0,-8216.0,-2064.0,-1416.0,40.0,-3.0,1.0,21.0,38.0,84.0,83.0,1.0,1.667612075805664
345,3705.0,-561.0,1936.0,1.0,-13953.0,-8216.0,-2064.0,-1416.0,-6.0,-15.0,57.0,-36.0,35.0,-98.0,-113.0,63.0,1.6835179328918457
346,4497.0,-323.0,-697.0,1.0,-13551.0,-8879.0,-2144.0,-1179.0,-6.0,-15.0,57.0,-36.0,35.0,-98.0,-113.0,63.0,1.6862194538116455
347,4497.0,-323.0,-697.0,1.0,-13551.0,-8879.0,-2144.0,-1179.0,3.0,2.0,112.0,33.0,36.0,-53.0,-43.0,26.0,1.692159652709961
348,4497.0,-323.0,-697.0,1.0,-13551.0,-8879.0,-2144.0,-1179.0,-71.0,-122.0,-128.0,18.0,-58.0,23.0,127.0,47.0,1.7155611515045166
349,6102.0,-1520.0,-4516.0,1.0,-13007.0,-9661.0,-2427.0,-220.0,-71.0,-122.0,-128.0,18.0,-58.0,23.0,127.0,47.0,1.7191927433013916
350,6102.0,-1520.0,-4516.0,1.0,-13007.0,-9661.0,-2427.0,-220.0,-85.0,-62.0,-102.0,51.0,-62.0,-121.0,-107.0,-120.0,1.7240099906921387
351,6102.0,-1520.0,-4516.0,1.0,-13007.0,-9661.0,-2427.0,-220.0,-9.0,-108.0,-44.0,12.0,127.0,11.0,28.0,18.0,1.7270023822784424
352,2849.0,-379.0,-3659.0,1.0,-12710.0,-9956.0,-2762.0,413.0,-9.0,-108.0,-44.0,12.0,127.0,11.0,28.0,18.0,1.728837490081787
353,2849.0,-379.0,-3659.0,1.0,-12710.0,-9956.0,-2762.0,413.0,9.0,-48.0,-128.0,48.0,-85.0,-111.0,0.0,-16.0,1.731670618057251
354,2849.0,-379.0,-3659.0,1.0,-12710.0,-9956.0,-2762.0,413.0,-39.0,11.0,-42.0,-26.0,-45.0,91.0,6.0,31.0,1.7436857223510742
355,570.0,895.0,5508.0,1.0,-12622.0,-10186.0,-2281.0,-430.0,-39.0,11.0,-42.0,-26.0,-45.0,91.0,6.0,31.0,1.7455015182495117
356,570.0,895.0,5508.0,1.0,-12622.0,-10186.0,-2281.0,-430.0,78.0,-41.0,-59.0,11.0,127.0,5.0,55.0,-23.0,1.7505156993865967
357,570.0,895.0,5508.0,1.0,-12622.0,-10186.0,-2281.0,-430.0,11.0,124.0,70.0,15.0,-98.0,78.0,87.0,-87.0,1.7582571506500244
358,-1209.0,-955.0,1457.0,1.0,-12770.0,-10058.0,-1981.0,-554.0,11.0,124.0,70.0,15.0,-98.0,78.0,87.0,-87.0,1.7663812637329102
359,-1209.0,-955.0,1457.0,1.0,-12770.0,-10058.0,-1981.0,-554.0,11.0,124.0,70.0,15.0,-98.0,78.0,87.0,-87.0,1.7682812213897705
360,-1209.0,-955.0,1457.0,1.0,-12770.0,-10058.0,-1981.0,-554.0,9.0,-48.0,16.0,-34.0,-14.0,102.0,102.0,100.0,1.782013177871704
361,-1209.0,-955.0,1457.0,1.0,-12770.0,-10058.0,-1981.0,-554.0,-20.0,-17.0,-10.0,-62.0,1.0,44.0,92.0,106.0,1.7865936756134033
362,-57.0,-470.0,1683.0,1.0,-12806.0,-10051.0,-1698.0,-760.0,-20.0,-17.0,-10.0,-62.0,1.0,44.0,92.0,106.0,1.790369987487793
363,-57.0,-470.0,1683.0,1.0,-12806.0,-10051.0,-1698.0,-760.0,23.0,-3.0,14.0,-17.0,76.0,59.0,71.0,13.0,1.7936897277832031
364,-57.0,-470.0,1683.0,1.0,-12806.0,-10051.0,-1698.0,-760.0,-15.0,-6.0,-18.0,10.0,118.0,-51.0,-84.0,6.0,1.803574562072754
365,518.0,-89.0,1418.0,1.0,-12794.0,-10081.0,-1468.0,-988.0,-15.0,-6.0,-18.0,10.0,118.0,-51.0,-84.0,6.0,1.8060295581817627
366,518.0,-89.0,1418.0,1.0,-12794.0,-10081.0,-1468.0,-988.0,-111.0,-7.0,-1.0,3.0,-4.0,-27.0,-128.0,10.0,1.8114616870880127
367,518.0,-89.0,1418.0,1.0,-12794.0,-10081.0,-1468.0,-988.0,83.0,23.0,38.0,70.0,23.0,-15.0,-128.0,-98.0,1.8186883926391602
368,2576.0,425.0,386.0,1.0,-12490.0,-10445.0,-1502.0,-1056.0,83.0,23.0,38.0,70.0,23.0,-15.0,-128.0,-98.0,1.8260447978973389
369,2576.0,425.0,386.0,1.0,-12490.0,-10445.0,-1502.0,-1056.0,85.0,109.0,62.0,30.0,30.0,-108.0,-93.0,83.0,1.8279268741607666
370,2576.0,425.0,386.0,1.0,-12490.0,-10445.0,-1502.0,-1056.0,-43.0,-8.0,-17.0,86.0,3.0,-105.0,-90.0,-20.0,1.8416647911071777
371,3031.0,880.0,930.0,1.0,-12112.0,-10856.0,-1549.0,-1233.0,-43.0,-8.0,-17.0,86.0,3.0,-105.0,-90.0,-20.0,1.845442771911621
372,3031.0,880.0,930.0,1.0,-12112.0,-10856.0,-1549.0,-1233.0,-21.0,2.0,-36.0,1.0,-93.0,-44.0,-66.0,-46.0,1.8494863510131836
373,3031.0,880.0,930.0,1.0,-12112.0,-10856.0,-1549.0,-1233.0,68.0,-14.0,-107.0,47.0,34.0,-97.0,-97.0,72.0,1.8653419017791748
374,34.0,533.0,960.0,1.0,-12085.0,-10869.0,-1507.0,-1423.0,68.0,-14.0,-107.0,47.0,34.0,-97.0,-97.0,72.0,1.8673336505889893
375,34.0,533.0,960.0,1.0,-12085.0,-10869.0,-1507.0,-1423.0,25.0,-29.0,-6.0,-7.0,92.0,82.0,-79.0,-98.0,1.8699615001678467
376,34.0,533.0,960.0,1.0,-12085.0,-10869.0,-1507.0,-1423.0,91.0,-10.0,-27.0,-62.0,-75.0,102.0,26.0,36.0,1.878408432006836
377,-1918.0,-124.0,184.0,1.0,-12307.0,-10621.0,-1419.0,-1480.0,91.0,-10.0,-27.0,-62.0,-75.0,102.0,26.0,36.0,1.886033058166504
378,-1918.0,-124.0,184.0,1.0,-12307.0,-10621.0,-1419.0,-1480.0,-64.0,-8.0,49.0,13.0,-51.0,75.0,49.0,-22.0,1.8878612518310547
379,-1918.0,-124.0,184.0,1.0,-12307.0,-10621.0,-1419.0,-1480.0,-88.0,44.0,102.0,-103.0,47.0,64.0,-72.0,-69.0,1.9017462730407715
380,-890.0,-204.0,-104.0,1.0,-12354.0,-10573.0,-1350.0,-1490.0,-88.0,44.0,102.0,-103.0,47.0,64.0,-72.0,-69.0,1.9054124355316162
381,-890.0,-204.0,-104.0,1.0,-12354.0,-10573.0,-1350.0,-1490.0,17.0,27.0,23.0,-16.0,78.0,-8.0,97.0,35.0,1.910477638244629
382,-890.0,-204.0,-104.0,1.0,-12354.0,-10573.0,-1350.0,-1490.0,-67.0,-29.0,-79.0,-10.0,1.0,-107.0,127.0,-66.0,1.9237267971038818
383,59.0,137.0,435.0,1.0,-12265.0,-10669.0,-1328.0,-1557.0,-67.0,-29.0,-79.0,-10.0,1.0,-107.0,127.0,-66.0,1.926759958267212
384,59.0,137.0,435.0,1.0,-12265.0,-10669.0,-1328.0,-1557.0,16.0,10.0,8.0,-42.0,5.0,47.0,106.0,-53.0,1.9316844940185547
385,59.0,137.0,435.0,1.0,-12265.0,-10669.0,-1328.0,-1557.0,121.0,27.0,51.0,32.0,13.0,127.0,22.0,45.0,1.9388270378112793
386,-269.0,36.0,50.0,1.0,-12268.0,-10665.0,-1302.0,-1589.0,121.0,27.0,51.0,32.0,13.0,127.0,22.0,45.0,1.9463615417480469
387,-269.0,36.0,50.0,1.0,-12268.0,-10665.0,-1302.0,-1589.0,-11.0,41.0,42.0,28.0,82.0,67.0,71.0,17.0,1.948800802230835
388,-269.0,36.0,50.0,1.0,-12268.0,-10665.0,-1302.0,-1589.0,-60.0,-86.0,-98.0,-47.0,112.0,-21.0,-92.0,-63.0,1.9609780311584473
389,-328.0,-57.0,-164.0,1.0,-12328.0,-10597.0,-1239.0,-1624.0,-60.0,-86.0,-98.0,-47.0,112.0,-21.0,-92.0,-63.0,1.9641096591949463
390,-328.0,-57.0,-164.0,1.0,-12328.0,-10597.0,-1239.0,-1624.0,-50.0,3.0,-3.0,5.0,-12.0,-25.0,-79.0,-18.0,1.969407558441162
391,-328.0,-57.0,-164.0,1.0,-12328.0,-10597.0,-1239.0,-1624.0,-21.0,-71.0,-103.0,-8.0,-107.0,-76.0,120.0,16.0,1.9842796325683594
392,336.0,-8.0,-226.0,1.0,-12288.0,-10645.0,-1239.0,-1616.0,-21.0,-71.0,-103.0,-8.0,-107.0,-76.0,120.0,16.0,1.987445592880249
393,336.0,-8.0,-226.0,1.0,-12288.0,-10645.0,-1239.0,-1616.0,-10.0,-11.0,39.0,-34.0,-13.0,85.0,-128.0,14.0,1.9912161827087402
394,336.0,-8.0,-226.0,1.0,-12288.0,-10645.0,-1239.0,-1616.0,32.0,-23.0,9.0,72.0,-4.0,57.0,-82.0,-6.0,2.007631301879883
395,350.0,87.0,-12.0,1.0,-12206.0,-10736.0,-1247.0,-1628.0,32.0,-23.0,9.0,72.0,-4.0,57.0,-82.0,-6.0,2.0108017921447754
396,350.0,87.0,-12.0,1.0,-12206.0,-10736.0,-1247.0,-1628.0,-64.0,-24.0,-60.0,-78.0,-24.0,-62.0,42.0,-24.0,2.01461124420166
397,350.0,87.0,-12.0,1.0,-12206.0,-10736.0,-1247.0,-1628.0,35.0,46.0,92.0,34.0,85.0,123.0,111.0,55.0,2.021629571914673
398,-95.0,84.0,57.0,1.0,-12188.0,-10753.0,-1226.0,-1668.0,35.0,46.0,92.0,34.0,85.0,123.0,111.0,55.0,2.023425340652466
399,-95.0,84.0,57.0,1.0,-12188.0,-10753.0,-1226.0,-1668.0,-16.0,-16.0,-39.0,45.0,41.0,6.0,-112.0,-59.0,2.028026580810547
400,-95.0,84.0,57.0,1.0,-12188.0,-10753.0,-1226.0,-1668.0,-68.0,-45.0,-118.0,26.0,58.0,58.0,-38.0,-31.0,2.043290376663208
401,-32.0,53.0,208.0,1.0,-12192.0,-10744.0,-1182.0,-1725.0,-68.0,-45.0,-118.0,26.0,58.0,58.0,-38.0,-31.0,2.045348882675171
402,-32.0,53.0,208.0,1.0,-12192.0,-10744.0,-1182.0,-1725.0,0.0,-64.0,-102.0,41.0,54.0,-29.0,106.0,3.0,2.0503058433532715
403,-32.0,53.0,208.0,1.0,-12192.0,-10744.0,-1182.0,-1725.0,-38.0,-26.0,84.0,16.0,-33.0,-57.0,22.0,2.0,2.0670626163482666
404,267.0,-11.0,285.0,1.0,-12147.0,-10793.0,-1133.0,-1775.0,-38.0,-26.0,84.0,16.0,-33.0,-57.0,22.0,2.0,2.069544553756714
405,267.0,-11.0,285.0,1.0,-12147.0,-10793.0,-1133.0,-1775.0,5.0,-2.0,67.0,22.0,-91.0,-94.0,-121.0,-58.0,2.072704792022705
406,267.0,-11.0,285.0,1.0,-12147.0,-10793.0,-1133.0,-1775.0,-70.0,-18.0,-29.0,-6.0,70.0,-48.0,65.0,-128.0,2.082212209701538
407,-63.0,-17.0,363.0,1.0,-12130.0,-10809.0,-1082.0,-1826.0,-70.0,-18.0,-29.0,-6.0,70.0,-48.0,65.0,-128.0,2.0845258235931396
408,-63.0,-17.0,363.0,1.0,-12130.0,-10809.0,-1082.0,-1826.0,66.0,36.0,25.0,-2.0,-28.0,-29.0,104.0,111.0,2.087695360183716
409,-63.0,-17.0,363.0,1.0,-12130.0,-10809.0,-1082.0,-1826.0,-11.0,9.0,45.0,0.0,-34.0,-116.0,-128.0,20.0,2.103571891784668
410,-368.0,-46.0,190.0,1.0,-12156.0,-10777.0,-1033.0,-1861.0,-11.0,9.0,45.0,0.0,-34.0,-116.0,-128.0,20.0,2.105376958847046
411,-368.0,-46.0,190.0,1.0,-12156.0,-10777.0,-1033.0,-1861.0,17.0,1.0,-113.0,-57.0,17.0,66.0,6.0,9.0,2.110654592514038
412,-368.0,-46.0,190.0,1.0,-12156.0,-10777.0,-1033.0,-1861.0,41.0,54.0,76.0,50.0,34.0,88.0,106.0,7.0,2.127363681793213
413,-1.0,-4.0,-15.0,1.0,-12155.0,-10778.0,-1026.0,-1867.0,41.0,54.0,76.0,50.0,34.0,88.0,106.0,7.0,2.1298060417175293
414,-1.0,-4.0,-15.0,1.0,-12155.0,-10778.0,-1026.0,-1867.0,-24.0,-19.0,-37.0,-8.0,-55.0,-38.0,-105.0,-23.0,2.132397413253784
415,-1.0,-4.0,-15.0,1.0,-12155.0,-10778.0,-1026.0,-1867.0,-7.0,14.0,15.0,-15.0,-43.0,36.0,7.0,50.0,2.1409082412719727
416,476.0,72.0,-59.0,1.0,-12087.0,-10853.0,-1040.0,-1873.0,-7.0,14.0,15.0,-15.0,-43.0,36.0,7.0,50.0,2.1429340839385986
417,476.0,72.0,-59.0,1.0,-12087.0,-10853.0,-1040.0,-1873.0,-2.0,4.0,46.0,17.0,34.0,15.0,71.0,18.0,2.1481781005859375
418,476.0,72.0,-59.0,1.0,-12087.0,-10853.0,-1040.0,-1873.0,6.0,-3.0,-14.0,-1.0,75.0,4.0,-20.0,12.0,2.164118528366089
419,167.0,56.0,-44.0,1.0,-12054.0,-10887.0,-1045.0,-1881.0,6.0,-3.0,-14.0,-1.0,75.0,4.0,-20.0,12.0,2.16609263420105
420,167.0,56.0,-44.0,1.0,-12054.0,-10887.0,-1045.0,-1881.0,-25.0,-7.0,47.0,-16.0,-51.0,37.0,20.0,-36.0,2.170671224594116
421,167.0,56.0,-44.0,1.0,-12054.0,-10887.0,-1045.0,-1881.0,-18.0,-1.0,41.0,-64.0,-59.0,67.0,-116.0,-25.0,2.188586950302124
422,-341.0,9.0,30.0,1.0,-12091.0,-10845.0,-1014.0,-1908.0,-18.0,-1.0,41.0,-64.0,-59.0,67.0,-116.0,-25.0,2.192094326019287
423,-341.0,9.0,30.0,1.0,-12091.0,-10845.0,-1014.0,-1908.0,18.0,50.0,64.0,67.0,52.0,-28.0,-15.0,4.0,2.195667028427124
424,-341.0,9.0,30.0,1.0,-12091.0,-10845.0,-1014.0,-1908.0,-12.0,-3.0,-80.0,-45.0,-18.0,-39.0,-98.0,23.0,2.200998067855835
425,-214.0,15.0,16.0,1.0,-12103.0,-10828.0,-974.0,-1945.0,-12.0,-3.0,-80.0,-45.0,-18.0,-39.0,-98.0,23.0,2.2027807235717773
426,-214.0,15.0,16.0,1.0,-12103.0,-10828.0,-974.0,-1945.0,-2.0,47.0,27.0,-1.0,24.0,-26.0,-73.0,90.0,2.2082090377807617
427,-214.0,15.0,16.0,1.0,-12103.0,-10828.0,-974.0,-1945.0,37.0,6.0,-12.0,-3.0,-128.0,-128.0,-35.0,-16.0,2.22344970703125
428,166.0,85.0,43.0,1.0,-12064.0,-10866.0,-958.0,-1981.0,37.0,6.0,-12.0,-3.0,-128.0,-128.0,-35.0,-16.0,2.225925922393799
429,166.0,85.0,43.0,1.0,-12064.0,-10866.0,-958.0,-1981.0,-44.0,-54.0,-35.0,10.0,13.0,-128.0,-40.0,-26.0,2.231559991836548
430,166.0,85.0,43.0,1.0,-12064.0,-10866.0,-958.0,-1981.0,4.0,-2.0,-45.0,-48.0,-48.0,-62.0,-64.0,-5.0,2.248234272003174
431,99.0,103.0,167.0,1.0,-12030.0,-10899.0,-955.0,-2012.0,4.0,-2.0,-45.0,-48.0,-48.0,-62.0,-64.0,-5.0,2.252163887023926
432,99.0,103.0,167.0,1.0,-12030.0,-10899.0,-955.0,-2012.0,17.0,-43.0,-1.0,-36.0,41.0,10.0,-51.0,41.0,2.2557427883148193
433,99.0,103.0,167.0,1.0,-12030.0,-10899.0,-955.0,-2012.0,18.0,0.0,3.0,47.0,30.0,45.0,-37.0,-59.0,2.2618114948272705
434,-273.0,36.0,139.0,1.0,-12046.0,-10877.0,-928.0,-2045.0,18.0,0.0,3.0,47.0,30.0,45.0,-37.0,-59.0,2.2644906044006348
435,-273.0,36.0,139.0,1.0,-12046.0,-10877.0,-928.0,-2045.0,11.0,-32.0,1.0,-71.0,-77.0,77.0,-17.0,-49.0,2.2680351734161377
436,-273.0,36.0,139.0,1.0,-12046.0,-10877.0,-928.0,-2045.0,-26.0,5.0,62.0,54.0,98.0,41.0,86.0,0.0,2.283738374710083
437,-180.0,17.0,66.0,1.0,-12047.0,-10873.0,-901.0,-2071.0,-26.0,5.0,62.0,54.0,98.0,41.0,86.0,0.0,2.285630941390991
438,-180.0,17.0,66.0,1.0,-12047.0,-10873.0,-901.0,-2071.0,36.0,105.0,107.0,-39.0,-51.0,-35.0,-80.0,-14.0,2.290750026702881
439,-180.0,17.0,66.0,1.0,-12047.0,-10873.0,-901.0,-2071.0,43.0,-3.0,-23.0,-86.0,-10.0,80.0,21.0,46.0,2.3067686557769775
440,151.0,66.0,18.0,1.0,-12010.0,-10911.0,-906.0,-2083.0,43.0,-3.0,-23.0,-86.0,-10.0,80.0,21.0,46.0,2.309807300567627
441,151.0,66.0,18.0,1.0,-12010.0,-10911.0,-906.0,-2083.0,-68.0,-33.0,-50.0,-23.0,-71.0,-49.0,27.0,-107.0,2.3138937950134277
442,151.0,66.0,18.0,1.0,-12010.0,-10911.0,-906.0,-2083.0,38.0,21.0,-9.0,30.0,62.0,25.0,73.0,106.0,2.32143497467041
443,85.0,32.0,27.0,1.0,-11986.0,-10937.0,-916.0,-2082.0,38.0,21.0,-9.0,30.0,62.0,25.0,73.0,106.0,2.3232882022857666
444,85.0,32.0,27.0,1.0,-11986.0,-10937.0,-916.0,-2082.0,-19.0,-36.0,-30.0,19.0,59.0,125.0,95.0,90.0,2.327878952026367
445,85.0,32.0,27.0,1.0,-11986.0,-10937.0,-916.0,-2082.0,-22.0,-17.0,11.0,13.0,90.0,64.0,31.0,-42.0,2.3438823223114014
446,-118.0,-39.0,-14.0,1.0,-11989.0,-10935.0,-901.0,-2085.0,-22.0,-17.0,11.0,13.0,90.0,64.0,31.0,-42.0,2.3457906246185303
447,-118.0,-39.0,-14.0,1.0,-11989.0,-10935.0,-901.0,-2085.0,-11.0,-8.0,15.0,9.0,-31.0,-41.0,-80.0,28.0,2.3502280712127686
448,-118.0,-39.0,-14.0,1.0,-11989.0,-10935.0,-901.0,-2085.0,2.0,39.0,57.0,-14.0,27.0,2.0,-78.0,43.0,2.366804838180542
449,-36.0,-53.0,-78.0,1.0,-11981.0,-10945.0,-883.0,-2085.0,2.0,39.0,57.0,-14.0,27.0,2.0,-78.0,43.0,2.368804931640625
450,-36.0,-53.0,-78.0,1.0,-11981.0,-10945.0,-883.0,-2085.0,-14.0,-30.0,14.0,45.0,35.0,42.0,70.0,-7.0,2.3719019889831543
451,-36.0,-53.0,-78.0,1.0,-11981.0,-10945.0,-883.0,-2085.0,-21.0,-13.0,-46.0,31.0,7.0,-64.0,30.0,-40.0,2.381716251373291
452,59.0,-10.0,-82.0,1.0,-11961.0,-10967.0,-876.0,-2087.0,-21.0,-13.0,-46.0,31.0,7.0,-64.0,30.0,-40.0,2.383507490158081
453,59.0,-10.0,-82.0,1.0,-11961.0,-10967.0,-876.0,-2087.0,-34.0,-12.0,-83.0,-44.0,-11.0,-67.0,127.0,-29.0,2.3880434036254883
454,59.0,-10.0,-82.0,1.0,-11961.0,-10967.0,-876.0,-2087.0,-4.0,10.0,14.0,60.0,14.0,-37.0,2.0,-106.0,2.404125690460205
455,84.0,0.0,-40.0,1.0,-11941.0,-10989.0,-879.0,-2083.0,-4.0,10.0,14.0,60.0,14.0,-37.0,2.0,-106.0,2.406049966812134
456,84.0,0.0,-40.0,1.0,-11941.0,-10989.0,-879.0,-2083.0,43.0,5.0,15.0,32.0,28.0,54.0,-122.0,-2.0,2.4106247425079346
457,84.0,0.0,-40.0,1.0,-11941.0,-10989.0,-879.0,-2083.0,-57.0,-1.0,-14.0,-53.0,-92.0,56.0,89.0,-20.0,2.4278078079223633
458,-106.0,-11.0,10.0,1.0,-11947.0,-10983.0,-869.0,-2088.0,-57.0,-1.0,-14.0,-53.0,-92.0,56.0,89.0,-20.0,2.431478977203369
459,-106.0,-11.0,10.0,1.0,-11947.0,-10983.0,-869.0,-2088.0,20.0,1.0,-52.0,-11.0,-6.0,-34.0,-18.0,-12.0,2.435324192047119
460,-106.0,-11.0,10.0,1.0,-11947.0,-10983.0,-869.0,-2088.0,14.0,1.0,-29.0,9.0,41.0,-63.0,-67.0,36.0,2.4410910606384277
461,-155.0,-26.0,-18.0,1.0,-11962.0,-10965.0,-847.0,-2099.0,14.0,1.0,-29.0,9.0,41.0,-63.0,-67.0,36.0,2.442901372909546
462,-155.0,-26.0,-18.0,1.0,-11962.0,-10965.0,-847.0,-2099.0,4.0,-15.0,-18.0,-3.0,39.0,-57.0,-2.0,-11.0,2.4487240314483643
463,-155.0,-26.0,-18.0,1.0,-11962.0,-10965.0,-847.0,-2099.0,15.0,20.0,22.0,-25.0,-63.0,-8.0,47.0,15.0,2.4644505977630615
464,-49.0,38.0,-33.0,1.0,-11960.0,-10966.0,-839.0,-2114.0,15.0,20.0,22.0,-25.0,-63.0,-8.0,47.0,15.0,2.466592788696289
465,-49.0,38.0,-33.0,1.0,-11960.0,-10966.0,-839.0,-2114.0,16.0,14.0,-23.0,30.0,33.0,106.0,9.0,17.0,2.4705233573913574
466,-49.0,38.0,-33.0,1.0,-11960.0,-10966.0,-839.0,-2114.0,-6.0,-15.0,-18.0,-12.0,-84.0,-49.0,-42.0,-42.0,2.487600564956665
467,-18.0,20.0,-68.0,1.0,-11952.0,-10974.0,-841.0,-2114.0,-6.0,-15.0,-18.0,-12.0,-84.0,-49.0,-42.0,-42.0,2.4907569885253906
468,-18.0,20.0,-68.0,1.0,-11952.0,-10974.0,-841.0,-2114.0,-11.0,5.0,38.0,14.0,-50.0,-71.0,127.0,46.0,2.4948558807373047
469,-18.0,20.0,-68.0,1.0,-11952.0,-10974.0,-841.0,-2114.0,-2.0,-16.0,-10.0,0.0,7.0,39.0,-9.0,5.0,2.5011110305786133
470,-91.0,28.0,-80.0,1.0,-11957.0,-10968.0,-843.0,-2115.0,-2.0,-16.0,-10.0,0.0,7.0,39.0,-9.0,5.0,2.502913236618042
471,-91.0,28.0,-80.0,1.0,-11957.0,-10968.0,-843.0,-2115.0,-4.0,-16.0,-57.0,13.0,46.0,20.0,-56.0,-12.0,2.5081186294555664
472,-91.0,28.0,-80.0,1.0,-11957.0,-10968.0,-843.0,-2115.0,-4.0,30.0,82.0,-9.0,4.0,-35.0,49.0,6.0,2.524353265762329
473,-98.0,-31.0,-106.0,1.0,-11967.0,-10959.0,-839.0,-2107.0,-4.0,30.0,82.0,-9.0,4.0,-35.0,49.0,6.0,2.5281221866607666
474,-98.0,-31.0,-106.0,1.0,-11967.0,-10959.0,-839.0,-2107.0,3.0,-2.0,47.0,1.0,-45.0,-88.0,90.0,-36.0,2.532093048095703
475,-98.0,-31.0,-106.0,1.0,-11967.0,-10959.0,-839.0,-2107.0,-5.0,-12.0,-16.0,-12.0,-46.0,10.0,-25.0,-11.0,2.5480048656463623
476,-41.0,-46.0,-149.0,1.0,-11968.0,-10961.0,-838.0,-2093.0,-5.0,-12.0,-16.0,-12.0,-46.0,10.0,-25.0,-11.0,2.551191568374634
477,-41.0,-46.0,-149.0,1.0,-11968.0,-10961.0,-838.0,-2093.0,18.0,5.0,-7.0,-4.0,-20.0,76.0,20.0,-2.0,2.554507255554199
478,-41.0,-46.0,-149.0,1.0,-11968.0,-10961.0,-838.0,-2093.0,1.0,-12.0,-10.0,-11.0,-14.0,0.0,-31.0,-19.0,2.561612606048584
479,-26.0,-105.0,-184.0,1.0,-11965.0,-10970.0,-839.0,-2062.0,1.0,-12.0,-10.0,-11.0,-14.0,0.0,-31.0,-19.0,2.5641348361968994
480,-26.0,-105.0,-184.0,1.0,-11965.0,-10970.0,-839.0,-2062.0,-8.0,5.0,1.0,-8.0,-19.0,-8.0,-128.0,24.0,2.567931652069092
481,-26.0,-105.0,-184.0,1.0,-11965.0,-10970.0,-839.0,-2062.0,-18.0,-3.0,4.0,-3.0,-12.0,-5.0,-20.0,-33.0,2.5836129188537598
482,-117.0,-144.0,-188.0,1.0,-11977.0,-10964.0,-833.0,-2028.0,-18.0,-3.0,4.0,-3.0,-12.0,-5.0,-20.0,-33.0,2.5859525203704834
483,-117.0,-144.0,-188.0,1.0,-11977.0,-10964.0,-833.0,-2028.0,-15.0,-21.0,13.0,9.0,11.0,13.0,-71.0,-23.0,2.590209484100342
484,-117.0,-144.0,-188.0,1.0,-11977.0,-10964.0,-833.0,-2028.0,9.0,5.0,31.0,8.0,-16.0,-23.0,-98.0,19.0,2.606651782989502
485,-273.0,-198.0,-193.0,1.0,-12013.0,-10932.0,-810.0,-1993.0,9.0,5.0,31.0,8.0,-16.0,-23.0,-98.0,19.0,2.608511209487915
486,-273.0,-198.0,-193.0,1.0,-12013.0,-10932.0,-810.0,-1993.0,11.0,11.0,-22.0,-1.0,27.0,26.0,24.0,17.0,2.612041473388672
487,-273.0,-198.0,-193.0,1.0,-12013.0,-10932.0,-810.0,-1993.0,-5.0,-22.0,-41.0,5.0,-10.0,7.0,-20.0,2.0,2.6220555305480957
488,-298.0,-308.0,-169.0,1.0,-12045.0,-10908.0,-767.0,-1951.0,-5.0,-22.0,-41.0,5.0,-10.0,7.0,-20.0,2.0,2.6252691745758057
489,-298.0,-308.0,-169.0,1.0,-12045.0,-10908.0,-767.0,-1951.0,11.0,-1.0,11.0,-12.0,2.0,9.0,10.0,-1.0,2.628641128540039
490,-298.0,-308.0,-169.0,1.0,-12045.0,-10908.0,-767.0,-1951.0,-1.0,-2.0,-8.0,1.0,21.0,-26.0,-21.0,-17.0,2.644882917404175
491,-271.0,-394.0,-145.0,1.0,-12070.0,-10894.0,-715.0,-1896.0,-1.0,-2.0,-8.0,1.0,21.0,-26.0,-21.0,-17.0,2.648510217666626
492,-271.0,-394.0,-145.0,1.0,-12070.0,-10894.0,-715.0,-1896.0,3.0,4.0,-6.0,-14.0,-22.0,-16.0,102.0,-26.0,2.651829719543457
493,-271.0,-394.0,-145.0,1.0,-12070.0,-10894.0,-715.0,-1896.0,-1.0,-1.0,11.0,12.0,13.0,-36.0,-31.0,-11.0,2.667322874069214
494,-405.0,-439.0,-111.0,1.0,-12117.0,-10855.0,-659.0,-1835.0,-1.0,-1.0,11.0,12.0,13.0,-36.0,-31.0,-11.0,2.670295000076294
495,-405.0,-439.0,-111.0,1.0,-12117.0,-10855.0,-659.0,-1835.0,-17.0,-23.0,-23.0,-7.0,28.0,-24.0,-65.0,0.0,2.673367738723755
496,-405.0,-439.0,-111.0,1.0,-12117.0,-10855.0,-659.0,-1835.0,15.0,17.0,8.0,8.0,11.0,-2.0,42.0,28.0,2.6826133728027344
497,-457.0,-474.0,-107.0,1.0,-12179.0,-10800.0,-595.0,-1773.0,15.0,17.0,8.0,8.0,11.0,-2.0,42.0,28.0,2.6844496726989746
498,-457.0,-474.0,-107.0,1.0,-12179.0,-10800.0,-595.0,-1773.0,-11.0,-12.0,2.0,-2.0,-10.0,-4.0,-42.0,-8.0,2.688157796859741
499,-457.0,-474.0,-107.0,1.0,-12179.0,-10800.0,-595.0,-1773.0,0.0,-20.0,-16.0,-9.0,-20.0,1.0,-10.0,23.0,2.7036592960357666
