,Gyro 0,Gyro 1,Gyro 2,Label,Orientation 0,Orientation 1,Orientation 2,Orientation 3,Sensor 0,Sensor 1,Sensor 2,Sensor 3,Sensor 4,Sensor 5,Sensor 6,Sensor 7,Timestamp
0,95.0,-436.0,312.0,1.0,-11809.0,-9112.0,6644.0,1346.0,0.0,18.0,59.0,-1.0,17.0,-7.0,-1.0,-2.0,2.384185791015625e-06
1,95.0,-436.0,312.0,1.0,-11809.0,-9112.0,6644.0,1346.0,-4.0,-1.0,-87.0,-3.0,3.0,-1.0,1.0,4.0,0.002412557601928711
2,95.0,-436.0,312.0,1.0,-11809.0,-9112.0,6644.0,1346.0,-3.0,-13.0,-9.0,-9.0,-1.0,-12.0,-9.0,-5.0,0.0045223236083984375
3,95.0,-436.0,312.0,1.0,-11809.0,-9112.0,6644.0,1346.0,14.0,64.0,94.0,-14.0,6.0,4.0,0.0,-1.0,0.009505510330200195
4,156.0,-424.0,406.0,1.0,-11770.0,-9104.0,6726.0,1341.0,14.0,64.0,94.0,-14.0,6.0,4.0,0.0,-1.0,0.011805295944213867
5,156.0,-424.0,406.0,1.0,-11770.0,-9104.0,6726.0,1341.0,7.0,22.0,28.0,7.0,15.0,12.0,6.0,10.0,0.01381373405456543
6,156.0,-424.0,406.0,1.0,-11770.0,-9104.0,6726.0,1341.0,2.0,18.0,48.0,6.0,-8.0,-7.0,0.0,-4.0,0.015630483627319336
7,190.0,-427.0,526.0,1.0,-11716.0,-9105.0,6821.0,1324.0,2.0,18.0,48.0,6.0,-8.0,-7.0,0.0,-4.0,0.01743602752685547
8,190.0,-427.0,526.0,1.0,-11716.0,-9105.0,6821.0,1324.0,-5.0,-27.0,22.0,11.0,-3.0,4.0,-2.0,-10.0,0.019720077514648438
9,190.0,-427.0,526.0,1.0,-11716.0,-9105.0,6821.0,1324.0,0.0,-26.0,-23.0,1.0,8.0,-4.0,-11.0,-8.0,0.022879600524902344
10,-40.0,-431.0,634.0,1.0,-11692.0,-9057.0,6929.0,1302.0,0.0,-26.0,-23.0,1.0,8.0,-4.0,-11.0,-8.0,0.025156497955322266
11,-40.0,-431.0,634.0,1.0,-11692.0,-9057.0,6929.0,1302.0,9.0,29.0,14.0,-16.0,-21.0,-31.0,-27.0,5.0,0.02759552001953125
12,-40.0,-431.0,634.0,1.0,-11692.0,-9057.0,6929.0,1302.0,-3.0,-11.0,-7.0,33.0,19.0,33.0,-12.0,2.0,0.030024290084838867
13,-12.0,-368.0,613.0,1.0,-11670.0,-9005.0,7041.0,1258.0,-3.0,-11.0,-7.0,33.0,19.0,33.0,-12.0,2.0,0.03195691108703613
14,-12.0,-368.0,613.0,1.0,-11670.0,-9005.0,7041.0,1258.0,-12.0,-17.0,-64.0,-15.0,-10.0,6.0,-1.0,-7.0,0.03387713432312012
15,-12.0,-368.0,613.0,1.0,-11670.0,-9005.0,7041.0,1258.0,8.0,-3.0,18.0,-5.0,13.0,-3.0,3.0,2.0,0.03571271896362305
16,154.0,-323.0,485.0,1.0,-11622.0,-8996.0,7139.0,1217.0,8.0,-3.0,18.0,-5.0,13.0,-3.0,3.0,2.0,0.03756856918334961
17,154.0,-323.0,485.0,1.0,-11622.0,-8996.0,7139.0,1217.0,-6.0,-18.0,-18.0,6.0,-6.0,12.0,69.0,-4.0,0.03944897651672363
18,154.0,-323.0,485.0,1.0,-11622.0,-8996.0,7139.0,1217.0,-15.0,-37.0,-42.0,8.0,-10.0,-5.0,-12.0,-3.0,0.041509151458740234
19,-73.0,-211.0,343.0,1.0,-11601.0,-8969.0,7211.0,1195.0,-15.0,-37.0,-42.0,8.0,-10.0,-5.0,-12.0,-3.0,0.043334245681762695
20,-73.0,-211.0,343.0,1.0,-11601.0,-8969.0,7211.0,1195.0,-10.0,-42.0,-54.0,-7.0,5.0,-2.0,-25.0,4.0,0.04521489143371582
21,-73.0,-211.0,343.0,1.0,-11601.0,-8969.0,7211.0,1195.0,-6.0,-20.0,0.0,-13.0,4.0,-10.0,3.0,0.0,0.04702496528625488
22,26.0,-161.0,241.0,1.0,-11574.0,-8964.0,7263.0,1179.0,-6.0,-20.0,0.0,-13.0,4.0,-10.0,3.0,0.0,0.048821449279785156
23,26.0,-161.0,241.0,1.0,-11574.0,-8964.0,7263.0,1179.0,3.0,6.0,-20.0,-11.0,-19.0,15.0,6.0,-5.0,0.05231523513793945
24,26.0,-161.0,241.0,1.0,-11574.0,-8964.0,7263.0,1179.0,2.0,14.0,12.0,-13.0,17.0,-7.0,-8.0,1.0,0.05517578125
25,91.0,-73.0,143.0,1.0,-11540.0,-8984.0,7295.0,1166.0,2.0,14.0,12.0,-13.0,17.0,-7.0,-8.0,1.0,0.05715203285217285
26,91.0,-73.0,143.0,1.0,-11540.0,-8984.0,7295.0,1166.0,-3.0,-1.0,-3.0,-3.0,-11.0,-19.0,10.0,7.0,0.059069156646728516
27,91.0,-73.0,143.0,1.0,-11540.0,-8984.0,7295.0,1166.0,5.0,11.0,-15.0,-2.0,-29.0,-5.0,14.0,-3.0,0.06101226806640625
28,68.0,60.0,52.0,1.0,-11527.0,-9000.0,7298.0,1150.0,5.0,11.0,-15.0,-2.0,-29.0,-5.0,14.0,-3.0,0.06365323066711426
29,68.0,60.0,52.0,1.0,-11527.0,-9000.0,7298.0,1150.0,2.0,-3.0,-80.0,-5.0,3.0,4.0,-19.0,-3.0,0.06558680534362793
30,68.0,60.0,52.0,1.0,-11527.0,-9000.0,7298.0,1150.0,-7.0,-8.0,3.0,5.0,-8.0,5.0,-18.0,1.0,0.06741046905517578
31,159.0,182.0,-30.0,1.0,-11518.0,-9032.0,7275.0,1126.0,-7.0,-8.0,3.0,5.0,-8.0,5.0,-18.0,1.0,0.06921577453613281
32,159.0,182.0,-30.0,1.0,-11518.0,-9032.0,7275.0,1126.0,1.0,3.0,-10.0,14.0,6.0,8.0,3.0,0.0,0.07109689712524414
33,159.0,182.0,-30.0,1.0,-11518.0,-9032.0,7275.0,1126.0,-5.0,-12.0,-9.0,-9.0,-1.0,-1.0,17.0,2.0,0.07292819023132324
34,67.0,261.0,-58.0,1.0,-11533.0,-9050.0,7232.0,1108.0,-5.0,-12.0,-9.0,-9.0,-1.0,-1.0,17.0,2.0,0.07492995262145996
35,67.0,261.0,-58.0,1.0,-11533.0,-9050.0,7232.0,1108.0,2.0,7.0,14.0,-5.0,5.0,-1.0,-3.0,-1.0,0.07681035995483398
36,67.0,261.0,-58.0,1.0,-11533.0,-9050.0,7232.0,1108.0,-5.0,12.0,-9.0,-8.0,-12.0,-1.0,4.0,0.0,0.07860803604125977
37,32.0,360.0,-138.0,1.0,-11556.0,-9067.0,7178.0,1082.0,-5.0,12.0,-9.0,-8.0,-12.0,-1.0,4.0,0.0,0.0804140567779541
38,32.0,360.0,-138.0,1.0,-11556.0,-9067.0,7178.0,1082.0,6.0,7.0,5.0,17.0,-20.0,-9.0,-14.0,-3.0,0.08360004425048828
39,32.0,360.0,-138.0,1.0,-11556.0,-9067.0,7178.0,1082.0,-6.0,-2.0,-18.0,2.0,-7.0,-15.0,4.0,0.0,0.08624887466430664
40,161.0,464.0,-186.0,1.0,-11569.0,-9110.0,7109.0,1043.0,-6.0,-2.0,-18.0,2.0,-7.0,-15.0,4.0,0.0,0.08810257911682129
41,161.0,464.0,-186.0,1.0,-11569.0,-9110.0,7109.0,1043.0,2.0,10.0,50.0,8.0,26.0,18.0,6.0,12.0,0.09001374244689941
42,161.0,464.0,-186.0,1.0,-11569.0,-9110.0,7109.0,1043.0,-4.0,-12.0,-27.0,-3.0,8.0,7.0,-40.0,7.0,0.09181904792785645
43,214.0,350.0,-236.0,1.0,-11581.0,-9152.0,7038.0,1022.0,-4.0,-12.0,-27.0,-3.0,8.0,7.0,-40.0,7.0,0.0936896800994873
44,214.0,350.0,-236.0,1.0,-11581.0,-9152.0,7038.0,1022.0,2.0,18.0,61.0,15.0,22.0,2.0,-10.0,-3.0,0.09654402732849121
45,214.0,350.0,-236.0,1.0,-11581.0,-9152.0,7038.0,1022.0,-5.0,-22.0,-59.0,-2.0,-2.0,-4.0,-5.0,-4.0,0.09846973419189453
46,272.0,244.0,-277.0,1.0,-11585.0,-9196.0,6976.0,1010.0,-5.0,-22.0,-59.0,-2.0,-2.0,-4.0,-5.0,-4.0,0.1003103256225586
47,272.0,244.0,-277.0,1.0,-11585.0,-9196.0,6976.0,1010.0,-2.0,-23.0,-4.0,7.0,1.0,-1.0,-22.0,-9.0,0.10229182243347168
48,272.0,244.0,-277.0,1.0,-11585.0,-9196.0,6976.0,1010.0,7.0,5.0,30.0,-10.0,-10.0,-5.0,4.0,-8.0,0.10413432121276855
49,307.0,194.0,-251.0,1.0,-11582.0,-9244.0,6916.0,1003.0,7.0,5.0,30.0,-10.0,-10.0,-5.0,4.0,-8.0,0.10594964027404785
50,307.0,194.0,-251.0,1.0,-11582.0,-9244.0,6916.0,1003.0,-5.0,8.0,-4.0,-19.0,-15.0,5.0,28.0,-3.0,0.10810637474060059
51,307.0,194.0,-251.0,1.0,-11582.0,-9244.0,6916.0,1003.0,-1.0,-5.0,7.0,-11.0,-38.0,-4.0,26.0,3.0,0.1099252700805664
52,164.0,152.0,-203.0,1.0,-11587.0,-9277.0,6864.0,1011.0,-1.0,-5.0,7.0,-11.0,-38.0,-4.0,26.0,3.0,0.11219215393066406
53,164.0,152.0,-203.0,1.0,-11587.0,-9277.0,6864.0,1011.0,6.0,21.0,44.0,3.0,11.0,-4.0,-3.0,5.0,0.11574053764343262
54,164.0,152.0,-203.0,1.0,-11587.0,-9277.0,6864.0,1011.0,8.0,25.0,53.0,5.0,26.0,5.0,-1.0,-6.0,0.1177668571472168
55,-28.0,114.0,-148.0,1.0,-11604.0,-9282.0,6825.0,1026.0,8.0,25.0,53.0,5.0,26.0,5.0,-1.0,-6.0,0.11969900131225586
56,-28.0,114.0,-148.0,1.0,-11604.0,-9282.0,6825.0,1026.0,-9.0,-29.0,-72.0,-2.0,-24.0,-17.0,-11.0,-5.0,0.12161040306091309
57,-28.0,114.0,-148.0,1.0,-11604.0,-9282.0,6825.0,1026.0,9.0,17.0,9.0,8.0,-19.0,-9.0,11.0,-2.0,0.12344980239868164
58,-144.0,43.0,-79.0,1.0,-11631.0,-9259.0,6809.0,1037.0,9.0,17.0,9.0,8.0,-19.0,-9.0,11.0,-2.0,0.12526702880859375
59,-144.0,43.0,-79.0,1.0,-11631.0,-9259.0,6809.0,1037.0,-4.0,12.0,10.0,2.0,-41.0,9.0,36.0,-3.0,0.12718772888183594
60,-144.0,43.0,-79.0,1.0,-11631.0,-9259.0,6809.0,1037.0,-10.0,-17.0,-9.0,14.0,11.0,2.0,84.0,-12.0,0.12999796867370605
61,-24.0,-14.0,-6.0,1.0,-11636.0,-9245.0,6820.0,1027.0,-10.0,-17.0,-9.0,14.0,11.0,2.0,84.0,-12.0,0.1319572925567627
62,-24.0,-14.0,-6.0,1.0,-11636.0,-9245.0,6820.0,1027.0,3.0,-6.0,-19.0,-5.0,21.0,5.0,-14.0,-1.0,0.13386154174804688
63,-24.0,-14.0,-6.0,1.0,-11636.0,-9245.0,6820.0,1027.0,-3.0,-16.0,-6.0,-16.0,-17.0,-30.0,-31.0,3.0,0.1356668472290039
64,3.0,-46.0,38.0,1.0,-11634.0,-9235.0,6839.0,1015.0,-3.0,-16.0,-6.0,-16.0,-17.0,-30.0,-31.0,3.0,0.1374645233154297
65,3.0,-46.0,38.0,1.0,-11634.0,-9235.0,6839.0,1015.0,0.0,-4.0,0.0,-10.0,-4.0,-8.0,-11.0,-6.0,0.1393413543701172
66,3.0,-46.0,38.0,1.0,-11634.0,-9235.0,6839.0,1015.0,-2.0,5.0,16.0,37.0,68.0,18.0,-13.0,2.0,0.1414966583251953
67,103.0,-81.0,48.0,1.0,-11616.0,-9239.0,6868.0,996.0,-2.0,5.0,16.0,37.0,68.0,18.0,-13.0,2.0,0.14493012428283691
68,103.0,-81.0,48.0,1.0,-11616.0,-9239.0,6868.0,996.0,-6.0,-9.0,-3.0,-8.0,-12.0,-13.0,-12.0,-4.0,0.14748573303222656
69,103.0,-81.0,48.0,1.0,-11616.0,-9239.0,6868.0,996.0,22.0,60.0,91.0,6.0,-19.0,17.0,1.0,8.0,0.14935016632080078
70,296.0,-89.0,62.0,1.0,-11571.0,-9274.0,6900.0,967.0,22.0,60.0,91.0,6.0,-19.0,17.0,1.0,8.0,0.15118193626403809
71,296.0,-89.0,62.0,1.0,-11571.0,-9274.0,6900.0,967.0,-7.0,-9.0,-24.0,7.0,25.0,9.0,2.0,3.0,0.15306711196899414
72,296.0,-89.0,62.0,1.0,-11571.0,-9274.0,6900.0,967.0,-3.0,-8.0,5.0,-13.0,3.0,7.0,-10.0,2.0,0.15491032600402832
73,284.0,-73.0,98.0,1.0,-11529.0,-9308.0,6929.0,937.0,-3.0,-8.0,5.0,-13.0,3.0,7.0,-10.0,2.0,0.15677928924560547
74,284.0,-73.0,98.0,1.0,-11529.0,-9308.0,6929.0,937.0,-7.0,-8.0,0.0,-10.0,-17.0,-9.0,-7.0,-6.0,0.15868830680847168
75,284.0,-73.0,98.0,1.0,-11529.0,-9308.0,6929.0,937.0,-4.0,0.0,-19.0,-18.0,-4.0,-6.0,14.0,2.0,0.1605832576751709
76,177.0,-89.0,172.0,1.0,-11496.0,-9321.0,6971.0,904.0,-4.0,0.0,-19.0,-18.0,-4.0,-6.0,14.0,2.0,0.16323351860046387
77,177.0,-89.0,172.0,1.0,-11496.0,-9321.0,6971.0,904.0,6.0,11.0,-3.0,1.0,10.0,2.0,1.0,0.0,0.16520309448242188
78,177.0,-89.0,172.0,1.0,-11496.0,-9321.0,6971.0,904.0,-5.0,-24.0,-12.0,-11.0,-3.0,1.0,-33.0,2.0,0.1670527458190918
79,263.0,-68.0,237.0,1.0,-11455.0,-9342.0,7016.0,856.0,-5.0,-24.0,-12.0,-11.0,-3.0,1.0,-33.0,2.0,0.16887688636779785
80,263.0,-68.0,237.0,1.0,-11455.0,-9342.0,7016.0,856.0,6.0,10.0,23.0,15.0,2.0,-1.0,1.0,2.0,0.17078328132629395
81,263.0,-68.0,237.0,1.0,-11455.0,-9342.0,7016.0,856.0,-2.0,-3.0,-11.0,-12.0,-29.0,0.0,11.0,-7.0,0.17272114753723145
82,233.0,-20.0,322.0,1.0,-11420.0,-9354.0,7063.0,797.0,-2.0,-3.0,-11.0,-12.0,-29.0,0.0,11.0,-7.0,0.17691969871520996
83,233.0,-20.0,322.0,1.0,-11420.0,-9354.0,7063.0,797.0,-1.0,-7.0,-1.0,-10.0,11.0,0.0,-5.0,0.0,0.18013381958007812
84,233.0,-20.0,322.0,1.0,-11420.0,-9354.0,7063.0,797.0,3.0,6.0,26.0,-9.0,-11.0,-9.0,-7.0,-3.0,0.18204998970031738
85,268.0,69.0,358.0,1.0,-11388.0,-9376.0,7092.0,734.0,3.0,6.0,26.0,-9.0,-11.0,-9.0,-7.0,-3.0,0.1838698387145996
86,268.0,69.0,358.0,1.0,-11388.0,-9376.0,7092.0,734.0,11.0,36.0,14.0,-6.0,-4.0,7.0,3.0,7.0,0.18581485748291016
87,268.0,69.0,358.0,1.0,-11388.0,-9376.0,7092.0,734.0,-9.0,-19.0,-20.0,0.0,26.0,-5.0,-7.0,-3.0,0.18761205673217773
88,207.0,101.0,235.0,1.0,-11371.0,-9397.0,7098.0,692.0,-9.0,-19.0,-20.0,0.0,26.0,-5.0,-7.0,-3.0,0.18939685821533203
89,207.0,101.0,235.0,1.0,-11371.0,-9397.0,7098.0,692.0,2.0,5.0,18.0,4.0,-10.0,4.0,-2.0,0.0,0.19154953956604004
90,207.0,101.0,235.0,1.0,-11371.0,-9397.0,7098.0,692.0,1.0,0.0,23.0,17.0,-7.0,0.0,-5.0,-2.0,0.19334721565246582
91,276.0,82.0,47.0,1.0,-11355.0,-9424.0,7090.0,657.0,1.0,0.0,23.0,17.0,-7.0,0.0,-5.0,-2.0,0.1951436996459961
92,276.0,82.0,47.0,1.0,-11355.0,-9424.0,7090.0,657.0,-4.0,-7.0,4.0,0.0,-16.0,-3.0,-27.0,7.0,0.19702839851379395
93,276.0,82.0,47.0,1.0,-11355.0,-9424.0,7090.0,657.0,-3.0,3.0,-7.0,10.0,2.0,2.0,-13.0,-1.0,0.19881892204284668
94,356.0,36.0,32.0,1.0,-11323.0,-9468.0,7084.0,630.0,-3.0,3.0,-7.0,10.0,2.0,2.0,-13.0,-1.0,0.20062637329101562
95,356.0,36.0,32.0,1.0,-11323.0,-9468.0,7084.0,630.0,1.0,0.0,3.0,-7.0,5.0,-9.0,-2.0,-4.0,0.20253872871398926
96,356.0,36.0,32.0,1.0,-11323.0,-9468.0,7084.0,630.0,1.0,3.0,-18.0,-1.0,-16.0,19.0,-1.0,-2.0,0.20542454719543457
97,135.0,27.0,43.0,1.0,-11314.0,-9487.0,7074.0,625.0,1.0,3.0,-18.0,-1.0,-16.0,19.0,-1.0,-2.0,0.20806598663330078
98,135.0,27.0,43.0,1.0,-11314.0,-9487.0,7074.0,625.0,1.0,-17.0,-16.0,8.0,8.0,0.0,9.0,-4.0,0.21001648902893066
99,135.0,27.0,43.0,1.0,-11314.0,-9487.0,7074.0,625.0,3.0,2.0,-10.0,-1.0,8.0,-3.0,8.0,0.0,0.21285367012023926
100,-115.0,39.0,66.0,1.0,-11329.0,-9476.0,7064.0,635.0,3.0,2.0,-10.0,-1.0,8.0,-3.0,8.0,0.0,0.21478271484375
101,-115.0,39.0,66.0,1.0,-11329.0,-9476.0,7064.0,635.0,-11.0,-11.0,55.0,4.0,2.0,-5.0,2.0,-5.0,0.21673965454101562
102,-115.0,39.0,66.0,1.0,-11329.0,-9476.0,7064.0,635.0,2.0,9.0,9.0,10.0,-6.0,3.0,0.0,7.0,0.2185676097869873
103,-273.0,-31.0,32.0,1.0,-11357.0,-9444.0,7060.0,666.0,2.0,9.0,9.0,10.0,-6.0,3.0,0.0,7.0,0.22036123275756836
104,-273.0,-31.0,32.0,1.0,-11357.0,-9444.0,7060.0,666.0,-4.0,-12.0,-33.0,-1.0,-10.0,-12.0,-3.0,-2.0,0.22226595878601074
105,-273.0,-31.0,32.0,1.0,-11357.0,-9444.0,7060.0,666.0,-3.0,-12.0,-25.0,-16.0,-9.0,-1.0,-1.0,3.0,0.22428607940673828
106,-100.0,-94.0,-5.0,1.0,-11357.0,-9435.0,7071.0,686.0,-3.0,-12.0,-25.0,-16.0,-9.0,-1.0,-1.0,3.0,0.22611236572265625
107,-100.0,-94.0,-5.0,1.0,-11357.0,-9435.0,7071.0,686.0,9.0,10.0,-2.0,-13.0,12.0,-7.0,3.0,-4.0,0.22797584533691406
108,-100.0,-94.0,-5.0,1.0,-11357.0,-9435.0,7071.0,686.0,-8.0,-12.0,-30.0,3.0,-7.0,-8.0,-1.0,-6.0,0.22976446151733398
109,-15.0,-124.0,-60.0,1.0,-11339.0,-9445.0,7083.0,709.0,-8.0,-12.0,-30.0,3.0,-7.0,-8.0,-1.0,-6.0,0.23158025741577148
110,-15.0,-124.0,-60.0,1.0,-11339.0,-9445.0,7083.0,709.0,-9.0,-16.0,-18.0,-1.0,-10.0,7.0,2.0,2.0,0.23342657089233398
111,-15.0,-124.0,-60.0,1.0,-11339.0,-9445.0,7083.0,709.0,3.0,5.0,-14.0,-11.0,19.0,7.0,-2.0,-1.0,0.2363581657409668
112,-172.0,-133.0,-118.0,1.0,-11339.0,-9437.0,7089.0,751.0,3.0,5.0,-14.0,-11.0,19.0,7.0,-2.0,-1.0,0.2390127182006836
113,-172.0,-133.0,-118.0,1.0,-11339.0,-9437.0,7089.0,751.0,5.0,21.0,37.0,5.0,16.0,13.0,3.0,3.0,0.24098610877990723
114,-172.0,-133.0,-118.0,1.0,-11339.0,-9437.0,7089.0,751.0,-2.0,-1.0,-12.0,-12.0,-26.0,-28.0,-6.0,-5.0,0.24281930923461914
115,-140.0,-80.0,-138.0,1.0,-11347.0,-9428.0,7085.0,784.0,-2.0,-1.0,-12.0,-12.0,-26.0,-28.0,-6.0,-5.0,0.24570155143737793
116,-140.0,-80.0,-138.0,1.0,-11347.0,-9428.0,7085.0,784.0,1.0,-5.0,-22.0,2.0,-4.0,-1.0,3.0,2.0,0.2476804256439209
117,-140.0,-80.0,-138.0,1.0,-11347.0,-9428.0,7085.0,784.0,2.0,-1.0,-11.0,1.0,-23.0,5.0,5.0,4.0,0.24950194358825684
118,-10.0,-36.0,-112.0,1.0,-11347.0,-9431.0,7078.0,800.0,2.0,-1.0,-11.0,1.0,-23.0,5.0,5.0,4.0,0.2513153553009033
119,-10.0,-36.0,-112.0,1.0,-11347.0,-9431.0,7078.0,800.0,-6.0,-11.0,-44.0,-5.0,-41.0,-8.0,-4.0,0.0,0.25318336486816406
120,-10.0,-36.0,-112.0,1.0,-11347.0,-9431.0,7078.0,800.0,-5.0,-16.0,-25.0,-2.0,19.0,7.0,-1.0,-6.0,0.25497961044311523
121,39.0,-24.0,-55.0,1.0,-11343.0,-9436.0,7078.0,801.0,-5.0,-16.0,-25.0,-2.0,19.0,7.0,-1.0,-6.0,0.2569723129272461
122,39.0,-24.0,-55.0,1.0,-11343.0,-9436.0,7078.0,801.0,-7.0,-4.0,8.0,9.0,2.0,-5.0,0.0,-3.0,0.25888514518737793
123,39.0,-24.0,-55.0,1.0,-11343.0,-9436.0,7078.0,801.0,-1.0,-3.0,8.0,0.0,3.0,-5.0,-2.0,1.0,0.26071643829345703
124,-42.0,-4.0,-13.0,1.0,-11349.0,-9424.0,7085.0,796.0,-1.0,-3.0,8.0,0.0,3.0,-5.0,-2.0,1.0,0.2625570297241211
125,-42.0,-4.0,-13.0,1.0,-11349.0,-9424.0,7085.0,796.0,-1.0,-4.0,6.0,-4.0,-10.0,-4.0,0.0,-7.0,0.2644169330596924
126,-42.0,-4.0,-13.0,1.0,-11349.0,-9424.0,7085.0,796.0,8.0,27.0,27.0,3.0,33.0,-2.0,-1.0,2.0,0.26734495162963867
127,-98.0,-3.0,8.0,1.0,-11358.0,-9407.0,7094.0,792.0,8.0,27.0,27.0,3.0,33.0,-2.0,-1.0,2.0,0.2699720859527588
128,-98.0,-3.0,8.0,1.0,-11358.0,-9407.0,7094.0,792.0,2.0,-7.0,-6.0,-3.0,-6.0,-1.0,1.0,-1.0,0.2718997001647949
129,-98.0,-3.0,8.0,1.0,-11358.0,-9407.0,7094.0,792.0,-1.0,13.0,56.0,1.0,-2.0,4.0,3.0,1.0,0.2737250328063965
130,-138.0,18.0,-7.0,1.0,-11373.0,-9386.0,7098.0,793.0,-1.0,13.0,56.0,1.0,-2.0,4.0,3.0,1.0,0.2756013870239258
131,-138.0,18.0,-7.0,1.0,-11373.0,-9386.0,7098.0,793.0,5.0,16.0,9.0,-2.0,16.0,-8.0,-2.0,-1.0,0.27763891220092773
132,-138.0,18.0,-7.0,1.0,-11373.0,-9386.0,7098.0,793.0,-3.0,11.0,13.0,1.0,7.0,-2.0,-3.0,-4.0,0.280167818069458
133,-73.0,-8.0,-24.0,1.0,-11381.0,-9374.0,7101.0,795.0,-3.0,11.0,13.0,1.0,7.0,-2.0,-3.0,-4.0,0.28207945823669434
134,-73.0,-8.0,-24.0,1.0,-11381.0,-9374.0,7101.0,795.0,-4.0,-3.0,-4.0,1.0,10.0,5.0,-15.0,-2.0,0.28398776054382324
135,-73.0,-8.0,-24.0,1.0,-11381.0,-9374.0,7101.0,795.0,-8.0,-27.0,-21.0,2.0,2.0,0.0,20.0,-3.0,0.2858123779296875
136,11.0,26.0,-2.0,1.0,-11381.0,-9377.0,7098.0,791.0,-8.0,-27.0,-21.0,2.0,2.0,0.0,20.0,-3.0,0.28762197494506836
137,11.0,26.0,-2.0,1.0,-11381.0,-9377.0,7098.0,791.0,12.0,33.0,56.0,0.0,8.0,13.0,2.0,8.0,0.2895011901855469
138,11.0,26.0,-2.0,1.0,-11381.0,-9377.0,7098.0,791.0,4.0,-4.0,-49.0,0.0,17.0,7.0,-9.0,-1.0,0.29146623611450195
139,-80.0,45.0,39.0,1.0,-11390.0,-9371.0,7090.0,796.0,4.0,-4.0,-49.0,0.0,17.0,7.0,-9.0,-1.0,0.29328370094299316
140,-80.0,45.0,39.0,1.0,-11390.0,-9371.0,7090.0,796.0,-6.0,-11.0,-59.0,10.0,29.0,4.0,3.0,-2.0,0.29517650604248047
141,-80.0,45.0,39.0,1.0,-11390.0,-9371.0,7090.0,796.0,0.0,-15.0,-15.0,-3.0,-7.0,-8.0,2.0,-3.0,0.29844093322753906
142,-228.0,46.0,49.0,1.0,-11417.0,-9341.0,7085.0,806.0,0.0,-15.0,-15.0,-3.0,-7.0,-8.0,2.0,-3.0,0.3010079860687256
143,-228.0,46.0,49.0,1.0,-11417.0,-9341.0,7085.0,806.0,5.0,8.0,2.0,0.0,-14.0,-21.0,-12.0,-3.0,0.30297136306762695
144,-228.0,46.0,49.0,1.0,-11417.0,-9341.0,7085.0,806.0,2.0,7.0,23.0,6.0,3.0,2.0,-6.0,-4.0,0.30480027198791504
145,-184.0,26.0,32.0,1.0,-11438.0,-9314.0,7085.0,811.0,2.0,7.0,23.0,6.0,3.0,2.0,-6.0,-4.0,0.3066380023956299
146,-184.0,26.0,32.0,1.0,-11438.0,-9314.0,7085.0,811.0,-12.0,-19.0,-9.0,-7.0,-10.0,8.0,5.0,1.0,0.30853819847106934
147,-89.0,15.0,16.0,1.0,-11448.0,-9300.0,7087.0,811.0,-12.0,-19.0,-9.0,-7.0,-10.0,8.0,5.0,1.0,0.3104217052459717
148,-89.0,15.0,16.0,1.0,-11448.0,-9300.0,7087.0,811.0,1.0,5.0,57.0,2.0,-21.0,-4.0,-5.0,1.0,0.3130347728729248
149,-89.0,15.0,16.0,1.0,-11448.0,-9300.0,7087.0,811.0,5.0,4.0,-1.0,6.0,10.0,0.0,6.0,0.0,0.3149240016937256
150,-63.0,38.0,16.0,1.0,-11456.0,-9293.0,7084.0,810.0,5.0,4.0,-1.0,6.0,10.0,0.0,6.0,0.0,0.31674981117248535
151,-63.0,38.0,16.0,1.0,-11456.0,-9293.0,7084.0,810.0,-7.0,-13.0,-24.0,-4.0,2.0,-14.0,-3.0,0.0,0.31868886947631836
152,-63.0,38.0,16.0,1.0,-11456.0,-9293.0,7084.0,810.0,-8.0,-11.0,67.0,8.0,12.0,-3.0,-1.0,0.0,0.320528507232666
153,-111.0,25.0,1.0,1.0,-11466.0,-9284.0,7079.0,819.0,-8.0,-11.0,67.0,8.0,12.0,-3.0,-1.0,0.0,0.32239675521850586
154,-111.0,25.0,1.0,1.0,-11466.0,-9284.0,7079.0,819.0,-10.0,-18.0,-43.0,4.0,26.0,-5.0,-5.0,-1.0,0.32456278800964355
155,-111.0,25.0,1.0,1.0,-11466.0,-9284.0,7079.0,819.0,-5.0,-15.0,-23.0,-1.0,8.0,2.0,-7.0,-13.0,0.32686352729797363
156,-158.0,7.0,-5.0,1.0,-11480.0,-9267.0,7078.0,830.0,-5.0,-15.0,-23.0,-1.0,8.0,2.0,-7.0,-13.0,0.33016300201416016
157,-158.0,7.0,-5.0,1.0,-11480.0,-9267.0,7078.0,830.0,6.0,3.0,13.0,-8.0,-36.0,4.0,-6.0,2.0,0.3322296142578125
158,-158.0,7.0,-5.0,1.0,-11480.0,-9267.0,7078.0,830.0,5.0,-2.0,-7.0,-5.0,1.0,4.0,-7.0,1.0,0.33409738540649414
159,-148.0,9.0,-35.0,1.0,-11493.0,-9252.0,7074.0,845.0,5.0,-2.0,-7.0,-5.0,1.0,4.0,-7.0,1.0,0.33597326278686523
160,-148.0,9.0,-35.0,1.0,-11493.0,-9252.0,7074.0,845.0,-4.0,-11.0,-36.0,5.0,-44.0,10.0,6.0,2.0,0.33788180351257324
161,-148.0,9.0,-35.0,1.0,-11493.0,-9252.0,7074.0,845.0,9.0,17.0,0.0,-8.0,-10.0,-13.0,7.0,7.0,0.33969783782958984
162,-80.0,12.0,-8.0,1.0,-11501.0,-9245.0,7069.0,853.0,9.0,17.0,0.0,-8.0,-10.0,-13.0,7.0,7.0,0.34153127670288086
163,-80.0,12.0,-8.0,1.0,-11501.0,-9245.0,7069.0,853.0,0.0,18.0,-20.0,-17.0,14.0,-3.0,-1.0,-3.0,0.343428373336792
164,-80.0,12.0,-8.0,1.0,-11501.0,-9245.0,7069.0,853.0,0.0,-5.0,14.0,1.0,-5.0,4.0,2.0,-6.0,0.34641575813293457
165,-153.0,-2.0,38.0,1.0,-11518.0,-9222.0,7072.0,859.0,0.0,-5.0,14.0,1.0,-5.0,4.0,2.0,-6.0,0.3483567237854004
166,-153.0,-2.0,38.0,1.0,-11518.0,-9222.0,7072.0,859.0,-3.0,-7.0,4.0,3.0,11.0,10.0,-3.0,2.0,0.3502826690673828
167,-153.0,-2.0,38.0,1.0,-11518.0,-9222.0,7072.0,859.0,-1.0,2.0,-8.0,-15.0,-18.0,-2.0,2.0,1.0,0.3520998954772949
168,-119.0,0.0,70.0,1.0,-11529.0,-9204.0,7078.0,861.0,-1.0,2.0,-8.0,-15.0,-18.0,-2.0,2.0,1.0,0.35394287109375
169,-119.0,0.0,70.0,1.0,-11529.0,-9204.0,7078.0,861.0,6.0,12.0,6.0,-5.0,3.0,1.0,-14.0,1.0,0.3558166027069092
170,-119.0,0.0,70.0,1.0,-11529.0,-9204.0,7078.0,861.0,-3.0,2.0,10.0,11.0,23.0,22.0,25.0,-8.0,0.3588254451751709
171,-140.0,-17.0,48.0,1.0,-11538.0,-9185.0,7085.0,867.0,-3.0,2.0,10.0,11.0,23.0,22.0,25.0,-8.0,0.362809419631958
172,-140.0,-17.0,48.0,1.0,-11538.0,-9185.0,7085.0,867.0,3.0,1.0,9.0,0.0,11.0,4.0,7.0,0.0,0.3649895191192627
173,-140.0,-17.0,48.0,1.0,-11538.0,-9185.0,7085.0,867.0,1.0,7.0,-25.0,-10.0,-32.0,4.0,-9.0,4.0,0.36684346199035645
174,-186.0,5.0,24.0,1.0,-11556.0,-9160.0,7088.0,875.0,1.0,7.0,-25.0,-10.0,-32.0,4.0,-9.0,4.0,0.3686537742614746
175,-186.0,5.0,24.0,1.0,-11556.0,-9160.0,7088.0,875.0,0.0,-1.0,-22.0,1.0,8.0,-9.0,2.0,-4.0,0.37053990364074707
176,-186.0,5.0,24.0,1.0,-11556.0,-9160.0,7088.0,875.0,-9.0,-25.0,-2.0,-1.0,5.0,-1.0,-3.0,2.0,0.37233710289001465
177,-74.0,-30.0,20.0,1.0,-11558.0,-9152.0,7095.0,882.0,-9.0,-25.0,-2.0,-1.0,5.0,-1.0,-3.0,2.0,0.3744080066680908
178,-74.0,-30.0,20.0,1.0,-11558.0,-9152.0,7095.0,882.0,0.0,1.0,9.0,2.0,-2.0,-8.0,-2.0,1.0,0.3762993812561035
179,-74.0,-30.0,20.0,1.0,-11558.0,-9152.0,7095.0,882.0,0.0,-3.0,-7.0,-4.0,-24.0,-6.0,-1.0,-2.0,0.37810206413269043
180,-62.0,-9.0,59.0,1.0,-11558.0,-9146.0,7102.0,883.0,0.0,-3.0,-7.0,-4.0,-24.0,-6.0,-1.0,-2.0,0.37989354133605957
181,-62.0,-9.0,59.0,1.0,-11558.0,-9146.0,7102.0,883.0,-2.0,-5.0,37.0,-7.0,8.0,13.0,2.0,0.0,0.38182902336120605
182,-62.0,-9.0,59.0,1.0,-11558.0,-9146.0,7102.0,883.0,4.0,8.0,-26.0,-9.0,-8.0,-4.0,-3.0,3.0,0.38361167907714844
183,-61.0,-1.0,27.0,1.0,-11558.0,-9143.0,7104.0,888.0,4.0,8.0,-26.0,-9.0,-8.0,-4.0,-3.0,3.0,0.38538622856140137
184,-61.0,-1.0,27.0,1.0,-11558.0,-9143.0,7104.0,888.0,3.0,-6.0,12.0,10.0,-7.0,-5.0,-16.0,4.0,0.3872816562652588
185,-61.0,-1.0,27.0,1.0,-11558.0,-9143.0,7104.0,888.0,2.0,7.0,1.0,-1.0,6.0,0.0,-7.0,1.0,0.3902125358581543
186,-127.0,-7.0,5.0,1.0,-11567.0,-9129.0,7107.0,896.0,2.0,7.0,1.0,-1.0,6.0,0.0,-7.0,1.0,0.3931574821472168
187,-127.0,-7.0,5.0,1.0,-11567.0,-9129.0,7107.0,896.0,-7.0,-1.0,-10.0,1.0,0.0,-8.0,-7.0,0.0,0.3959343433380127
188,-127.0,-7.0,5.0,1.0,-11567.0,-9129.0,7107.0,896.0,12.0,33.0,43.0,1.0,18.0,5.0,1.0,0.0,0.3978297710418701
189,-24.0,7.0,-9.0,1.0,-11567.0,-9127.0,7110.0,894.0,12.0,33.0,43.0,1.0,18.0,5.0,1.0,0.0,0.3996732234954834
190,-24.0,7.0,-9.0,1.0,-11567.0,-9127.0,7110.0,894.0,-6.0,-8.0,0.0,8.0,20.0,-10.0,9.0,-6.0,0.4015963077545166
191,-24.0,7.0,-9.0,1.0,-11567.0,-9127.0,7110.0,894.0,-4.0,-12.0,-29.0,5.0,28.0,2.0,5.0,1.0,0.40342068672180176
192,35.0,3.0,-11.0,1.0,-11560.0,-9136.0,7111.0,893.0,-4.0,-12.0,-29.0,5.0,28.0,2.0,5.0,1.0,0.4052309989929199
193,35.0,3.0,-11.0,1.0,-11560.0,-9136.0,7111.0,893.0,3.0,-13.0,-27.0,7.0,2.0,1.0,3.0,-2.0,0.40735888481140137
194,35.0,3.0,-11.0,1.0,-11560.0,-9136.0,7111.0,893.0,-8.0,-4.0,-17.0,-9.0,0.0,-4.0,-7.0,-4.0,0.4091932773590088
195,52.0,2.0,0.0,1.0,-11550.0,-9147.0,7112.0,890.0,-8.0,-4.0,-17.0,-9.0,0.0,-4.0,-7.0,-4.0,0.42126893997192383
196,52.0,2.0,0.0,1.0,-11550.0,-9147.0,7112.0,890.0,0.0,4.0,20.0,-10.0,-11.0,-2.0,3.0,-2.0,0.42389559745788574
197,52.0,2.0,0.0,1.0,-11550.0,-9147.0,7112.0,890.0,4.0,19.0,15.0,2.0,-16.0,-9.0,-2.0,-2.0,0.4257819652557373
198,2.0,-2.0,2.0,1.0,-11549.0,-9148.0,7112.0,891.0,4.0,19.0,15.0,2.0,-16.0,-9.0,-2.0,-2.0,0.4428713321685791
199,2.0,-2.0,2.0,1.0,-11549.0,-9148.0,7112.0,891.0,1.0,17.0,-13.0,-8.0,-18.0,1.0,5.0,3.0,0.444732666015625
200,2.0,-2.0,2.0,1.0,-11549.0,-9148.0,7112.0,891.0,-5.0,-20.0,14.0,1.0,-13.0,-20.0,-3.0,2.0,0.4464991092681885
201,-54.0,-8.0,8.0,1.0,-11554.0,-9141.0,7112.0,896.0,-5.0,-20.0,14.0,1.0,-13.0,-20.0,-3.0,2.0,0.45768260955810547
202,-54.0,-8.0,8.0,1.0,-11554.0,-9141.0,7112.0,896.0,-1.0,6.0,-28.0,1.0,20.0,5.0,-2.0,-16.0,0.4597046375274658
203,-54.0,-8.0,8.0,1.0,-11554.0,-9141.0,7112.0,896.0,-3.0,-3.0,-9.0,2.0,-3.0,8.0,8.0,1.0,0.4638550281524658
204,-24.0,-1.0,37.0,1.0,-11556.0,-9136.0,7115.0,894.0,-3.0,-3.0,-9.0,2.0,-3.0,8.0,8.0,1.0,0.48009562492370605
205,-24.0,-1.0,37.0,1.0,-11556.0,-9136.0,7115.0,894.0,-5.0,-5.0,57.0,5.0,3.0,-4.0,-10.0,0.0,0.4826834201812744
206,-24.0,-1.0,37.0,1.0,-11556.0,-9136.0,7115.0,894.0,-6.0,-18.0,-36.0,-6.0,-13.0,7.0,-5.0,3.0,0.48505234718322754
207,9.0,18.0,52.0,1.0,-11555.0,-9137.0,7118.0,887.0,-6.0,-18.0,-36.0,-6.0,-13.0,7.0,-5.0,3.0,0.502943754196167
208,9.0,18.0,52.0,1.0,-11555.0,-9137.0,7118.0,887.0,2.0,-6.0,7.0,2.0,0.0,-2.0,7.0,4.0,0.5048806667327881
209,9.0,18.0,52.0,1.0,-11555.0,-9137.0,7118.0,887.0,10.0,35.0,73.0,0.0,6.0,-7.0,-3.0,1.0,0.5073592662811279
210,-8.0,7.0,14.0,1.0,-11554.0,-9138.0,7118.0,887.0,10.0,35.0,73.0,0.0,6.0,-7.0,-3.0,1.0,0.518455982208252
211,-8.0,7.0,14.0,1.0,-11554.0,-9138.0,7118.0,887.0,-5.0,-3.0,-14.0,-6.0,11.0,-1.0,-4.0,5.0,0.520745038986206
212,-8.0,7.0,14.0,1.0,-11554.0,-9138.0,7118.0,887.0,-7.0,-24.0,-34.0,-4.0,-2.0,4.0,1.0,-4.0,0.5242965221405029
213,-87.0,9.0,8.0,1.0,-11562.0,-9126.0,7120.0,889.0,-7.0,-24.0,-34.0,-4.0,-2.0,4.0,1.0,-4.0,0.5407068729400635
214,-87.0,9.0,8.0,1.0,-11562.0,-9126.0,7120.0,889.0,2.0,1.0,17.0,4.0,-3.0,1.0,-2.0,-1.0,0.5427775382995605
215,-87.0,9.0,8.0,1.0,-11562.0,-9126.0,7120.0,889.0,-10.0,-14.0,-32.0,-1.0,2.0,0.0,5.0,-1.0,0.5456974506378174
216,-35.0,-4.0,-1.0,1.0,-11564.0,-9122.0,7121.0,891.0,-10.0,-14.0,-32.0,-1.0,2.0,0.0,5.0,-1.0,0.5631976127624512
217,-35.0,-4.0,-1.0,1.0,-11564.0,-9122.0,7121.0,891.0,-6.0,-8.0,-2.0,2.0,-30.0,-16.0,37.0,3.0,0.5650770664215088
218,-35.0,-4.0,-1.0,1.0,-11564.0,-9122.0,7121.0,891.0,6.0,-4.0,-34.0,-2.0,5.0,-5.0,-2.0,-4.0,0.5668714046478271
219,-20.0,-2.0,22.0,1.0,-11566.0,-9119.0,7122.0,892.0,6.0,-4.0,-34.0,-2.0,5.0,-5.0,-2.0,-4.0,0.578833818435669
220,-20.0,-2.0,22.0,1.0,-11566.0,-9119.0,7122.0,892.0,-2.0,-4.0,-8.0,0.0,19.0,11.0,-7.0,3.0,0.5808815956115723
221,-20.0,-2.0,22.0,1.0,-11566.0,-9119.0,7122.0,892.0,-4.0,9.0,9.0,7.0,1.0,1.0,-3.0,-3.0,0.5839762687683105
222,-25.0,23.0,24.0,1.0,-11568.0,-9118.0,7120.0,892.0,-4.0,9.0,9.0,7.0,1.0,1.0,-3.0,-3.0,0.6003122329711914
223,-25.0,23.0,24.0,1.0,-11568.0,-9118.0,7120.0,892.0,8.0,31.0,49.0,-7.0,-7.0,2.0,-3.0,-2.0,0.6021990776062012
224,-25.0,23.0,24.0,1.0,-11568.0,-9118.0,7120.0,892.0,0.0,-2.0,-5.0,4.0,1.0,11.0,-6.0,-1.0,0.6039772033691406
225,-28.0,-4.0,10.0,1.0,-11567.0,-9118.0,7122.0,895.0,0.0,-2.0,-5.0,4.0,1.0,11.0,-6.0,-1.0,0.6236517429351807
226,-28.0,-4.0,10.0,1.0,-11567.0,-9118.0,7122.0,895.0,-7.0,-15.0,-11.0,-3.0,-5.0,-15.0,-6.0,-6.0,0.6270103454589844
227,-28.0,-4.0,10.0,1.0,-11567.0,-9118.0,7122.0,895.0,4.0,1.0,8.0,6.0,8.0,-5.0,-3.0,2.0,0.6301724910736084
228,-28.0,-9.0,-4.0,1.0,-11568.0,-9114.0,7125.0,895.0,4.0,1.0,8.0,6.0,8.0,-5.0,-3.0,2.0,0.6380832195281982
229,-28.0,-9.0,-4.0,1.0,-11568.0,-9114.0,7125.0,895.0,-5.0,-8.0,3.0,4.0,-13.0,5.0,-7.0,-3.0,0.6458172798156738
230,-28.0,-9.0,-4.0,1.0,-11568.0,-9114.0,7125.0,895.0,-6.0,-20.0,-19.0,-5.0,-15.0,11.0,-3.0,-2.0,0.6476688385009766
231,18.0,9.0,5.0,1.0,-11565.0,-9117.0,7127.0,891.0,-6.0,-20.0,-19.0,-5.0,-15.0,11.0,-3.0,-2.0,0.6605188846588135
232,18.0,9.0,5.0,1.0,-11565.0,-9117.0,7127.0,891.0,8.0,15.0,-49.0,-1.0,6.0,5.0,-4.0,-1.0,0.662402868270874
233,18.0,9.0,5.0,1.0,-11565.0,-9117.0,7127.0,891.0,-1.0,18.0,85.0,8.0,9.0,0.0,-5.0,4.0,0.6641817092895508
234,-8.0,-4.0,10.0,1.0,-11565.0,-9118.0,7126.0,891.0,-1.0,18.0,85.0,8.0,9.0,0.0,-5.0,4.0,0.6837396621704102
235,-8.0,-4.0,10.0,1.0,-11565.0,-9118.0,7126.0,891.0,-1.0,-10.0,-15.0,-8.0,-11.0,-11.0,-8.0,-8.0,0.6870553493499756
236,-8.0,-4.0,10.0,1.0,-11565.0,-9118.0,7126.0,891.0,2.0,4.0,36.0,-5.0,-8.0,-12.0,2.0,-4.0,0.6904046535491943
237,-37.0,-7.0,11.0,1.0,-11566.0,-9115.0,7127.0,895.0,2.0,4.0,36.0,-5.0,-8.0,-12.0,2.0,-4.0,0.6975569725036621
238,-37.0,-7.0,11.0,1.0,-11566.0,-9115.0,7127.0,895.0,-3.0,-10.0,-23.0,13.0,12.0,0.0,19.0,1.0,0.7051753997802734
239,-37.0,-7.0,11.0,1.0,-11566.0,-9115.0,7127.0,895.0,-2.0,-8.0,-7.0,-5.0,-1.0,0.0,7.0,-1.0,0.7075202465057373
240,-21.0,-4.0,2.0,1.0,-11566.0,-9114.0,7128.0,898.0,-2.0,-8.0,-7.0,-5.0,-1.0,0.0,7.0,-1.0,0.7212934494018555
241,-21.0,-4.0,2.0,1.0,-11566.0,-9114.0,7128.0,898.0,-5.0,-14.0,-26.0,-12.0,-10.0,-6.0,-9.0,-1.0,0.7247300148010254
242,-21.0,-4.0,2.0,1.0,-11566.0,-9114.0,7128.0,898.0,3.0,4.0,-48.0,0.0,-3.0,0.0,0.0,9.0,0.7279758453369141
243,-7.0,-16.0,5.0,1.0,-11566.0,-9114.0,7128.0,898.0,3.0,4.0,-48.0,0.0,-3.0,0.0,0.0,9.0,0.7460625171661377
244,-7.0,-16.0,5.0,1.0,-11566.0,-9114.0,7128.0,898.0,-3.0,3.0,5.0,-15.0,-17.0,2.0,-7.0,-1.0,0.7502779960632324
245,-7.0,-16.0,5.0,1.0,-11566.0,-9114.0,7128.0,898.0,-6.0,-21.0,-34.0,0.0,10.0,7.0,-2.0,-5.0,0.754256010055542
246,18.0,-10.0,18.0,1.0,-11561.0,-9117.0,7132.0,896.0,-6.0,-21.0,-34.0,0.0,10.0,7.0,-2.0,-5.0,0.7585856914520264
247,18.0,-10.0,18.0,1.0,-11561.0,-9117.0,7132.0,896.0,13.0,26.0,-9.0,-6.0,-4.0,0.0,6.0,13.0,0.7652606964111328
248,18.0,-10.0,18.0,1.0,-11561.0,-9117.0,7132.0,896.0,2.0,-5.0,-11.0,4.0,-6.0,12.0,6.0,3.0,0.7671539783477783
249,2.0,-5.0,28.0,1.0,-11558.0,-9118.0,7136.0,893.0,2.0,-5.0,-11.0,4.0,-6.0,12.0,6.0,3.0,0.7805845737457275
250,2.0,-5.0,28.0,1.0,-11558.0,-9118.0,7136.0,893.0,-3.0,0.0,16.0,-2.0,12.0,-9.0,-8.0,-6.0,0.7824842929840088
251,2.0,-5.0,28.0,1.0,-11558.0,-9118.0,7136.0,893.0,-1.0,1.0,37.0,-10.0,20.0,-2.0,-3.0,-10.0,0.7842621803283691
252,69.0,28.0,9.0,1.0,-11552.0,-9128.0,7134.0,884.0,-1.0,1.0,37.0,-10.0,20.0,-2.0,-3.0,-10.0,0.8043203353881836
253,69.0,28.0,9.0,1.0,-11552.0,-9128.0,7134.0,884.0,-7.0,-1.0,19.0,0.0,-1.0,4.0,32.0,1.0,0.8078205585479736
254,69.0,28.0,9.0,1.0,-11552.0,-9128.0,7134.0,884.0,4.0,12.0,-25.0,-8.0,-13.0,1.0,7.0,3.0,0.811021089553833
255,60.0,30.0,-2.0,1.0,-11547.0,-9137.0,7131.0,877.0,4.0,12.0,-25.0,-8.0,-13.0,1.0,7.0,3.0,0.8164670467376709
256,60.0,30.0,-2.0,1.0,-11547.0,-9137.0,7131.0,877.0,-4.0,-18.0,-16.0,2.0,-9.0,12.0,-13.0,-1.0,0.826108455657959
257,60.0,30.0,-2.0,1.0,-11547.0,-9137.0,7131.0,877.0,-5.0,-3.0,35.0,-5.0,-11.0,-29.0,-6.0,-1.0,0.8285493850708008
258,97.0,16.0,1.0,1.0,-11537.0,-9150.0,7131.0,868.0,-5.0,-3.0,35.0,-5.0,-11.0,-29.0,-6.0,-1.0,0.8405084609985352
259,97.0,16.0,1.0,1.0,-11537.0,-9150.0,7131.0,868.0,-3.0,-3.0,-13.0,1.0,-16.0,-2.0,-8.0,-3.0,0.8423972129821777
260,97.0,16.0,1.0,1.0,-11537.0,-9150.0,7131.0,868.0,16.0,54.0,12.0,-12.0,-6.0,4.0,-1.0,-1.0,0.8444955348968506
261,93.0,-5.0,12.0,1.0,-11528.0,-9161.0,7134.0,859.0,16.0,54.0,12.0,-12.0,-6.0,4.0,-1.0,-1.0,0.863410472869873
262,93.0,-5.0,12.0,1.0,-11528.0,-9161.0,7134.0,859.0,-2.0,-9.0,14.0,9.0,42.0,7.0,-5.0,-3.0,0.8653149604797363
263,93.0,-5.0,12.0,1.0,-11528.0,-9161.0,7134.0,859.0,-6.0,-16.0,22.0,-3.0,-18.0,-17.0,10.0,0.0,0.8671112060546875
264,97.0,6.0,20.0,1.0,-11519.0,-9171.0,7137.0,847.0,-6.0,-16.0,22.0,-3.0,-18.0,-17.0,10.0,0.0,0.8782413005828857
265,97.0,6.0,20.0,1.0,-11519.0,-9171.0,7137.0,847.0,4.0,15.0,1.0,-6.0,-27.0,9.0,4.0,8.0,0.885382890701294
266,97.0,6.0,20.0,1.0,-11519.0,-9171.0,7137.0,847.0,0.0,-6.0,-9.0,15.0,-6.0,2.0,3.0,1.0,0.8877663612365723
267,58.0,-7.0,32.0,1.0,-11517.0,-9175.0,7136.0,843.0,0.0,-6.0,-9.0,15.0,-6.0,2.0,3.0,1.0,0.9004838466644287
268,58.0,-7.0,32.0,1.0,-11517.0,-9175.0,7136.0,843.0,-6.0,-15.0,-19.0,-14.0,-37.0,-32.0,-39.0,-10.0,0.9023725986480713
269,58.0,-7.0,32.0,1.0,-11517.0,-9175.0,7136.0,843.0,-1.0,-14.0,4.0,-2.0,43.0,11.0,-5.0,3.0,0.9041645526885986
270,-37.0,-15.0,11.0,1.0,-11532.0,-9161.0,7128.0,851.0,-1.0,-14.0,4.0,-2.0,43.0,11.0,-5.0,3.0,0.9237298965454102
271,-37.0,-15.0,11.0,1.0,-11532.0,-9161.0,7128.0,851.0,2.0,-6.0,-7.0,0.0,-16.0,5.0,6.0,3.0,0.9269709587097168
272,-37.0,-15.0,11.0,1.0,-11532.0,-9161.0,7128.0,851.0,-4.0,-12.0,-37.0,7.0,10.0,4.0,5.0,2.0,0.9310922622680664
273,59.0,-11.0,42.0,1.0,-11540.0,-9158.0,7119.0,850.0,-4.0,-12.0,-37.0,7.0,10.0,4.0,5.0,2.0,0.9374525547027588
274,59.0,-11.0,42.0,1.0,-11540.0,-9158.0,7119.0,850.0,1.0,10.0,-54.0,14.0,52.0,-6.0,1.0,-14.0,0.9452359676361084
275,59.0,-11.0,42.0,1.0,-11540.0,-9158.0,7119.0,850.0,10.0,3.0,-42.0,3.0,-9.0,2.0,-1.0,11.0,0.9477896690368652
276,34.0,-53.0,95.0,1.0,-11563.0,-9138.0,7108.0,854.0,10.0,3.0,-42.0,3.0,-9.0,2.0,-1.0,11.0,0.9614355564117432
277,34.0,-53.0,95.0,1.0,-11563.0,-9138.0,7108.0,854.0,-12.0,-41.0,56.0,22.0,35.0,45.0,8.0,12.0,0.9635517597198486
278,34.0,-53.0,95.0,1.0,-11563.0,-9138.0,7108.0,854.0,-9.0,-33.0,-94.0,-70.0,-42.0,-28.0,-30.0,-2.0,0.9653406143188477
279,9.0,-21.0,107.0,1.0,-11594.0,-9106.0,7097.0,849.0,-9.0,-33.0,-94.0,-70.0,-42.0,-28.0,-30.0,-2.0,0.9839808940887451
280,9.0,-21.0,107.0,1.0,-11594.0,-9106.0,7097.0,849.0,20.0,76.0,80.0,64.0,-31.0,24.0,-12.0,-9.0,0.9872920513153076
281,9.0,-21.0,107.0,1.0,-11594.0,-9106.0,7097.0,849.0,1.0,33.0,89.0,39.0,19.0,27.0,-6.0,3.0,0.9904739856719971
282,-8.0,211.0,116.0,1.0,-11647.0,-9075.0,7053.0,825.0,1.0,33.0,89.0,39.0,19.0,27.0,-6.0,3.0,0.9975533485412598
283,-8.0,211.0,116.0,1.0,-11647.0,-9075.0,7053.0,825.0,2.0,38.0,52.0,-22.0,-35.0,-11.0,61.0,20.0,1.0047826766967773
284,-8.0,211.0,116.0,1.0,-11647.0,-9075.0,7053.0,825.0,-19.0,-36.0,-24.0,23.0,12.0,57.0,45.0,4.0,1.007453203201294
285,-402.0,449.0,-45.0,1.0,-11760.0,-9010.0,6946.0,838.0,-19.0,-36.0,-24.0,23.0,12.0,57.0,45.0,4.0,1.0203893184661865
286,-402.0,449.0,-45.0,1.0,-11760.0,-9010.0,6946.0,838.0,-23.0,-79.0,-66.0,-18.0,-35.0,-40.0,46.0,-51.0,1.022265911102295
287,-402.0,449.0,-45.0,1.0,-11760.0,-9010.0,6946.0,838.0,4.0,5.0,-40.0,-66.0,-28.0,-14.0,-79.0,-10.0,1.026627779006958
288,-757.0,575.0,-349.0,1.0,-11919.0,-8921.0,6781.0,911.0,4.0,5.0,-40.0,-66.0,-28.0,-14.0,-79.0,-10.0,1.044788122177124
289,-757.0,575.0,-349.0,1.0,-11919.0,-8921.0,6781.0,911.0,-2.0,-35.0,-54.0,24.0,66.0,36.0,-83.0,20.0,1.0474793910980225
290,-757.0,575.0,-349.0,1.0,-11919.0,-8921.0,6781.0,911.0,0.0,25.0,52.0,-45.0,31.0,-8.0,-58.0,-12.0,1.0492892265319824
291,-928.0,721.0,-528.0,1.0,-12105.0,-8823.0,6561.0,1017.0,0.0,25.0,52.0,-45.0,31.0,-8.0,-58.0,-12.0,1.0666851997375488
292,-928.0,721.0,-528.0,1.0,-12105.0,-8823.0,6561.0,1017.0,8.0,23.0,-1.0,-36.0,-17.0,-10.0,-1.0,5.0,1.0706145763397217
293,-928.0,721.0,-528.0,1.0,-12105.0,-8823.0,6561.0,1017.0,7.0,20.0,51.0,4.0,-28.0,-43.0,-55.0,16.0,1.0739870071411133
294,-1176.0,920.0,-516.0,1.0,-12331.0,-8679.0,6311.0,1114.0,7.0,20.0,51.0,4.0,-28.0,-43.0,-55.0,16.0,1.0806429386138916
295,-1176.0,920.0,-516.0,1.0,-12331.0,-8679.0,6311.0,1114.0,5.0,28.0,37.0,106.0,27.0,-18.0,-77.0,-2.0,1.0825412273406982
296,-1176.0,920.0,-516.0,1.0,-12331.0,-8679.0,6311.0,1114.0,4.0,-9.0,-33.0,-51.0,11.0,13.0,72.0,35.0,1.086794376373291
297,-1588.0,1152.0,-570.0,1.0,-12602.0,-8475.0,6029.0,1211.0,4.0,-9.0,-33.0,-51.0,11.0,13.0,72.0,35.0,1.1041431427001953
298,-1588.0,1152.0,-570.0,1.0,-12602.0,-8475.0,6029.0,1211.0,-18.0,-51.0,-70.0,-16.0,-21.0,-37.0,-7.0,-33.0,1.1072852611541748
299,-1588.0,1152.0,-570.0,1.0,-12602.0,-8475.0,6029.0,1211.0,-1.0,4.0,-29.0,60.0,-6.0,26.0,26.0,-16.0,1.110347032546997
300,-1853.0,1357.0,-845.0,1.0,-12860.0,-8278.0,5727.0,1325.0,-1.0,4.0,-29.0,60.0,-6.0,26.0,26.0,-16.0,1.1256649494171143
301,-1853.0,1357.0,-845.0,1.0,-12860.0,-8278.0,5727.0,1325.0,12.0,39.0,46.0,-28.0,19.0,9.0,70.0,9.0,1.127558946609497
302,-1853.0,1357.0,-845.0,1.0,-12860.0,-8278.0,5727.0,1325.0,4.0,-7.0,-6.0,52.0,46.0,-11.0,12.0,-5.0,1.129472017288208
303,-1969.0,1632.0,-1104.0,1.0,-13126.0,-8083.0,5358.0,1458.0,4.0,-7.0,-6.0,52.0,46.0,-11.0,12.0,-5.0,1.140136480331421
304,-1969.0,1632.0,-1104.0,1.0,-13126.0,-8083.0,5358.0,1458.0,-7.0,-12.0,3.0,-33.0,-18.0,-28.0,-76.0,-3.0,1.1422805786132812
305,-1969.0,1632.0,-1104.0,1.0,-13126.0,-8083.0,5358.0,1458.0,-7.0,-14.0,-8.0,62.0,70.0,-6.0,11.0,-9.0,1.147413730621338
306,-2366.0,1946.0,-1477.0,1.0,-13421.0,-7850.0,4901.0,1638.0,-7.0,-14.0,-8.0,62.0,70.0,-6.0,11.0,-9.0,1.165619134902954
307,-2366.0,1946.0,-1477.0,1.0,-13421.0,-7850.0,4901.0,1638.0,12.0,21.0,20.0,-22.0,-2.0,33.0,24.0,5.0,1.1693081855773926
308,-2366.0,1946.0,-1477.0,1.0,-13421.0,-7850.0,4901.0,1638.0,-9.0,-30.0,-38.0,13.0,-80.0,-9.0,26.0,-20.0,1.1719615459442139
309,-2567.0,2206.0,-1879.0,1.0,-13710.0,-7613.0,4368.0,1861.0,-9.0,-30.0,-38.0,13.0,-80.0,-9.0,26.0,-20.0,1.185598611831665
310,-2567.0,2206.0,-1879.0,1.0,-13710.0,-7613.0,4368.0,1861.0,6.0,5.0,-10.0,47.0,-27.0,13.0,-8.0,6.0,1.1874971389770508
311,-2567.0,2206.0,-1879.0,1.0,-13710.0,-7613.0,4368.0,1861.0,-1.0,8.0,30.0,-49.0,-45.0,12.0,-26.0,-11.0,1.1893305778503418
312,-3012.0,2390.0,-2158.0,1.0,-14007.0,-7313.0,3776.0,2122.0,-1.0,8.0,30.0,-49.0,-45.0,12.0,-26.0,-11.0,1.1992108821868896
313,-3012.0,2390.0,-2158.0,1.0,-14007.0,-7313.0,3776.0,2122.0,-9.0,-27.0,-78.0,-58.0,-32.0,-6.0,24.0,7.0,1.2085487842559814
314,-3012.0,2390.0,-2158.0,1.0,-14007.0,-7313.0,3776.0,2122.0,2.0,0.0,10.0,7.0,-4.0,12.0,13.0,-1.0,1.2129161357879639
315,-3493.0,2517.0,-2322.0,1.0,-14303.0,-6943.0,3143.0,2407.0,2.0,0.0,10.0,7.0,-4.0,12.0,13.0,-1.0,1.2240839004516602
316,-3493.0,2517.0,-2322.0,1.0,-14303.0,-6943.0,3143.0,2407.0,-17.0,-58.0,-55.0,-14.0,7.0,5.0,3.0,4.0,1.2268762588500977
317,-3493.0,2517.0,-2322.0,1.0,-14303.0,-6943.0,3143.0,2407.0,-17.0,-37.0,24.0,18.0,0.0,-21.0,-7.0,-10.0,1.2297618389129639
318,-4100.0,2648.0,-2429.0,1.0,-14599.0,-6473.0,2467.0,2708.0,-17.0,-37.0,24.0,18.0,0.0,-21.0,-7.0,-10.0,1.245607852935791
319,-4100.0,2648.0,-2429.0,1.0,-14599.0,-6473.0,2467.0,2708.0,7.0,2.0,0.0,2.0,9.0,-17.0,-5.0,-1.0,1.2475147247314453
320,-4100.0,2648.0,-2429.0,1.0,-14599.0,-6473.0,2467.0,2708.0,15.0,60.0,115.0,-6.0,-28.0,-8.0,-1.0,4.0,1.2493484020233154
321,-4380.0,2837.0,-2496.0,1.0,-14869.0,-5941.0,1747.0,3002.0,15.0,60.0,115.0,-6.0,-28.0,-8.0,-1.0,4.0,1.259312391281128
322,-4380.0,2837.0,-2496.0,1.0,-14869.0,-5941.0,1747.0,3002.0,10.0,35.0,0.0,-1.0,18.0,12.0,4.0,10.0,1.2674236297607422
323,-4380.0,2837.0,-2496.0,1.0,-14869.0,-5941.0,1747.0,3002.0,14.0,59.0,-34.0,31.0,-3.0,-9.0,5.0,2.0,1.269202470779419
324,-4002.0,3033.0,-2442.0,1.0,-15068.0,-5459.0,1008.0,3255.0,14.0,59.0,-34.0,31.0,-3.0,-9.0,5.0,2.0,1.2829256057739258
325,-4002.0,3033.0,-2442.0,1.0,-15068.0,-5459.0,1008.0,3255.0,-4.0,17.0,97.0,20.0,-3.0,1.0,8.0,1.0,1.285372018814087
326,-4002.0,3033.0,-2442.0,1.0,-15068.0,-5459.0,1008.0,3255.0,-5.0,-33.0,-39.0,-8.0,-4.0,4.0,-3.0,-5.0,1.2876403331756592
327,-3824.0,3186.0,-2527.0,1.0,-15204.0,-4999.0,240.0,3501.0,-5.0,-33.0,-39.0,-8.0,-4.0,4.0,-3.0,-5.0,1.3054261207580566
328,-3824.0,3186.0,-2527.0,1.0,-15204.0,-4999.0,240.0,3501.0,0.0,6.0,50.0,8.0,6.0,-6.0,2.0,0.0,1.308652400970459
329,-3824.0,3186.0,-2527.0,1.0,-15204.0,-4999.0,240.0,3501.0,-8.0,-16.0,-14.0,1.0,1.0,-13.0,8.0,-2.0,1.3116352558135986
330,-3975.0,3161.0,-2639.0,1.0,-15291.0,-4499.0,-538.0,3754.0,-8.0,-16.0,-14.0,1.0,1.0,-13.0,8.0,-2.0,1.319800615310669
331,-3975.0,3161.0,-2639.0,1.0,-15291.0,-4499.0,-538.0,3754.0,15.0,51.0,37.0,-10.0,2.0,-9.0,-4.0,1.0,1.3281562328338623
332,-3975.0,3161.0,-2639.0,1.0,-15291.0,-4499.0,-538.0,3754.0,15.0,25.0,24.0,8.0,5.0,14.0,15.0,11.0,1.3302645683288574
333,-4138.0,3336.0,-2805.0,1.0,-15325.0,-3955.0,-1359.0,4012.0,15.0,25.0,24.0,8.0,5.0,14.0,15.0,11.0,1.343665599822998
334,-4138.0,3336.0,-2805.0,1.0,-15325.0,-3955.0,-1359.0,4012.0,-4.0,-17.0,-64.0,-17.0,-10.0,5.0,17.0,16.0,1.34759521484375
335,-4138.0,3336.0,-2805.0,1.0,-15325.0,-3955.0,-1359.0,4012.0,-12.0,-4.0,55.0,-7.0,-2.0,0.0,9.0,-21.0,1.351430892944336
336,-3781.0,3672.0,-2727.0,1.0,-15285.0,-3460.0,-2220.0,4234.0,-12.0,-4.0,55.0,-7.0,-2.0,0.0,9.0,-21.0,1.3654780387878418
337,-3781.0,3672.0,-2727.0,1.0,-15285.0,-3460.0,-2220.0,4234.0,-6.0,-11.0,-67.0,-6.0,6.0,8.0,3.0,-12.0,1.3673467636108398
338,-3781.0,3672.0,-2727.0,1.0,-15285.0,-3460.0,-2220.0,4234.0,-11.0,-40.0,-54.0,-8.0,-6.0,-9.0,-4.0,6.0,1.3691158294677734
339,-3110.0,3836.0,-2593.0,1.0,-15165.0,-3063.0,-3075.0,4432.0,-11.0,-40.0,-54.0,-8.0,-6.0,-9.0,-4.0,6.0,1.3799664974212646
340,-3110.0,3836.0,-2593.0,1.0,-15165.0,-3063.0,-3075.0,4432.0,-6.0,-7.0,-27.0,3.0,4.0,-11.0,-12.0,-2.0,1.3881704807281494
341,-3110.0,3836.0,-2593.0,1.0,-15165.0,-3063.0,-3075.0,4432.0,-10.0,-34.0,-75.0,0.0,5.0,6.0,-12.0,-8.0,1.3911476135253906
342,-2629.0,3908.0,-2518.0,1.0,-14977.0,-2737.0,-3914.0,4618.0,-10.0,-34.0,-75.0,0.0,5.0,6.0,-12.0,-8.0,1.4029788970947266
343,-2629.0,3908.0,-2518.0,1.0,-14977.0,-2737.0,-3914.0,4618.0,-3.0,-21.0,-15.0,13.0,-8.0,3.0,-5.0,-5.0,1.4048347473144531
344,-2629.0,3908.0,-2518.0,1.0,-14977.0,-2737.0,-3914.0,4618.0,-7.0,-28.0,-68.0,8.0,49.0,4.0,9.0,-4.0,1.4069383144378662
345,-2300.0,3872.0,-2781.0,1.0,-14717.0,-2448.0,-4731.0,4846.0,-7.0,-28.0,-68.0,8.0,49.0,4.0,9.0,-4.0,1.4265310764312744
346,-2300.0,3872.0,-2781.0,1.0,-14717.0,-2448.0,-4731.0,4846.0,4.0,-6.0,11.0,-3.0,24.0,-8.0,-5.0,-1.0,1.4298360347747803
347,-2300.0,3872.0,-2781.0,1.0,-14717.0,-2448.0,-4731.0,4846.0,-4.0,-6.0,38.0,4.0,-108.0,-7.0,-11.0,0.0,1.4332025051116943
348,-2431.0,3753.0,-3328.0,1.0,-14387.0,-2088.0,-5537.0,5142.0,-4.0,-6.0,38.0,4.0,-108.0,-7.0,-11.0,0.0,1.4396827220916748
349,-2431.0,3753.0,-3328.0,1.0,-14387.0,-2088.0,-5537.0,5142.0,0.0,-5.0,16.0,-2.0,14.0,-1.0,2.0,-2.0,1.4487249851226807
350,-2431.0,3753.0,-3328.0,1.0,-14387.0,-2088.0,-5537.0,5142.0,17.0,66.0,29.0,-15.0,74.0,-10.0,3.0,9.0,1.4521315097808838
351,-2451.0,3837.0,-3264.0,1.0,-13995.0,-1705.0,-6355.0,5413.0,17.0,66.0,29.0,-15.0,74.0,-10.0,3.0,9.0,1.4630134105682373
352,-2451.0,3837.0,-3264.0,1.0,-13995.0,-1705.0,-6355.0,5413.0,5.0,31.0,74.0,-11.0,47.0,10.0,7.0,2.0,1.4648935794830322
353,-2451.0,3837.0,-3264.0,1.0,-13995.0,-1705.0,-6355.0,5413.0,-3.0,-13.0,-67.0,-20.0,50.0,-29.0,14.0,-1.0,1.4666967391967773
354,-1275.0,3887.0,-3020.0,1.0,-13535.0,-1499.0,-7094.0,5717.0,-3.0,-13.0,-67.0,-20.0,50.0,-29.0,14.0,-1.0,1.4855098724365234
355,-1275.0,3887.0,-3020.0,1.0,-13535.0,-1499.0,-7094.0,5717.0,1.0,1.0,64.0,30.0,28.0,-36.0,-21.0,-9.0,1.487450122833252
356,-1275.0,3887.0,-3020.0,1.0,-13535.0,-1499.0,-7094.0,5717.0,-1.0,-16.0,-8.0,6.0,-3.0,27.0,-22.0,-3.0,1.4892921447753906
357,334.0,3692.0,-3339.0,1.0,-12992.0,-1490.0,-7701.0,6176.0,-1.0,-16.0,-8.0,6.0,-3.0,27.0,-22.0,-3.0,1.4997873306274414
358,334.0,3692.0,-3339.0,1.0,-12992.0,-1490.0,-7701.0,6176.0,-3.0,13.0,-8.0,-21.0,-18.0,-32.0,-3.0,0.0,1.5086264610290527
359,334.0,3692.0,-3339.0,1.0,-12992.0,-1490.0,-7701.0,6176.0,-4.0,-3.0,79.0,10.0,-44.0,7.0,0.0,0.0,1.512671947479248
360,988.0,2816.0,-3566.0,1.0,-12455.0,-1502.0,-8125.0,6711.0,-4.0,-3.0,79.0,10.0,-44.0,7.0,0.0,0.0,1.5238754749298096
361,988.0,2816.0,-3566.0,1.0,-12455.0,-1502.0,-8125.0,6711.0,15.0,37.0,17.0,-17.0,-17.0,22.0,3.0,0.0,1.525871753692627
362,988.0,2816.0,-3566.0,1.0,-12455.0,-1502.0,-8125.0,6711.0,-7.0,1.0,-17.0,6.0,4.0,6.0,4.0,1.0,1.527656078338623
363,381.0,1906.0,-3309.0,1.0,-12000.0,-1375.0,-8442.0,7161.0,-7.0,1.0,-17.0,6.0,4.0,6.0,4.0,1.0,1.545839548110962
364,381.0,1906.0,-3309.0,1.0,-12000.0,-1375.0,-8442.0,7161.0,-7.0,-12.0,-9.0,-14.0,-15.0,37.0,9.0,2.0,1.5477354526519775
365,381.0,1906.0,-3309.0,1.0,-12000.0,-1375.0,-8442.0,7161.0,1.0,-7.0,3.0,-14.0,23.0,-42.0,-4.0,1.0,1.5495219230651855
366,-342.0,1449.0,-2876.0,1.0,-11606.0,-1138.0,-8735.0,7492.0,1.0,-7.0,3.0,-14.0,23.0,-42.0,-4.0,1.0,1.5590295791625977
367,-342.0,1449.0,-2876.0,1.0,-11606.0,-1138.0,-8735.0,7492.0,5.0,0.0,-5.0,5.0,8.0,24.0,8.0,3.0,1.5676376819610596
368,-342.0,1449.0,-2876.0,1.0,-11606.0,-1138.0,-8735.0,7492.0,-4.0,-5.0,-13.0,-6.0,-69.0,-5.0,-11.0,2.0,1.5694372653961182
369,78.0,1162.0,-2450.0,1.0,-11290.0,-1009.0,-8903.0,7792.0,-4.0,-5.0,-13.0,-6.0,-69.0,-5.0,-11.0,2.0,1.5830106735229492
370,78.0,1162.0,-2450.0,1.0,-11290.0,-1009.0,-8903.0,7792.0,-1.0,-11.0,-8.0,-11.0,45.0,23.0,-18.0,-1.0,1.5849053859710693
371,78.0,1162.0,-2450.0,1.0,-11290.0,-1009.0,-8903.0,7792.0,12.0,23.0,34.0,3.0,93.0,54.0,8.0,-4.0,1.5867207050323486
372,669.0,1001.0,-1753.0,1.0,-11033.0,-1006.0,-8986.0,8060.0,12.0,23.0,34.0,3.0,93.0,54.0,8.0,-4.0,1.605520248413086
373,669.0,1001.0,-1753.0,1.0,-11033.0,-1006.0,-8986.0,8060.0,6.0,7.0,0.0,0.0,-18.0,22.0,19.0,6.0,1.6092233657836914
374,669.0,1001.0,-1753.0,1.0,-11033.0,-1006.0,-8986.0,8060.0,-9.0,-12.0,-27.0,-31.0,-63.0,31.0,-2.0,-2.0,1.6126201152801514
375,1223.0,494.0,-712.0,1.0,-10758.0,-994.0,-9125.0,8274.0,-9.0,-12.0,-27.0,-31.0,-63.0,31.0,-2.0,-2.0,1.6197640895843506
376,1223.0,494.0,-712.0,1.0,-10758.0,-994.0,-9125.0,8274.0,-12.0,-21.0,29.0,20.0,-13.0,-41.0,-6.0,-7.0,1.6285362243652344
377,1223.0,494.0,-712.0,1.0,-10758.0,-994.0,-9125.0,8274.0,1.0,0.0,-5.0,13.0,33.0,28.0,22.0,6.0,1.6304314136505127
378,1161.0,-181.0,281.0,1.0,-10666.0,-1033.0,-9142.0,8370.0,1.0,0.0,-5.0,13.0,33.0,28.0,22.0,6.0,1.6425533294677734
379,1161.0,-181.0,281.0,1.0,-10666.0,-1033.0,-9142.0,8370.0,-14.0,-34.0,-29.0,8.0,-43.0,-42.0,-27.0,-9.0,1.6444697380065918
380,1161.0,-181.0,281.0,1.0,-10666.0,-1033.0,-9142.0,8370.0,20.0,36.0,58.0,-14.0,23.0,-10.0,-5.0,2.0,1.650061845779419
381,1020.0,-491.0,1102.0,1.0,-10694.0,-1095.0,-9094.0,8378.0,20.0,36.0,58.0,-14.0,23.0,-10.0,-5.0,2.0,1.6659915447235107
382,1020.0,-491.0,1102.0,1.0,-10694.0,-1095.0,-9094.0,8378.0,14.0,51.0,68.0,4.0,-22.0,-17.0,8.0,-3.0,1.6678533554077148
383,1020.0,-491.0,1102.0,1.0,-10694.0,-1095.0,-9094.0,8378.0,26.0,46.0,-28.0,17.0,-15.0,-21.0,-5.0,0.0,1.6697759628295898
384,1585.0,-583.0,2009.0,1.0,-10884.0,-1397.0,-8887.0,8310.0,26.0,46.0,-28.0,17.0,-15.0,-21.0,-5.0,0.0,1.6888742446899414
385,1585.0,-583.0,2009.0,1.0,-10884.0,-1397.0,-8887.0,8310.0,-7.0,-19.0,-35.0,4.0,71.0,15.0,7.0,-2.0,1.695882797241211
386,1585.0,-583.0,2009.0,1.0,-10884.0,-1397.0,-8887.0,8310.0,-25.0,-51.0,-59.0,8.0,47.0,-19.0,-16.0,-7.0,1.699105978012085
387,2005.0,-827.0,2866.0,1.0,-11157.0,-1813.0,-8594.0,8175.0,-25.0,-51.0,-59.0,8.0,47.0,-19.0,-16.0,-7.0,1.703059434890747
388,2005.0,-827.0,2866.0,1.0,-11157.0,-1813.0,-8594.0,8175.0,-5.0,-21.0,-71.0,1.0,44.0,-2.0,-2.0,-2.0,1.704941749572754
389,2005.0,-827.0,2866.0,1.0,-11157.0,-1813.0,-8594.0,8175.0,-5.0,-21.0,-71.0,1.0,44.0,-2.0,-2.0,-2.0,1.7070012092590332
390,2005.0,-827.0,2866.0,1.0,-11157.0,-1813.0,-8594.0,8175.0,-7.0,-19.0,-2.0,24.0,-46.0,4.0,-1.0,0.0,1.7265629768371582
391,2421.0,-1417.0,3304.0,1.0,-11503.0,-2268.0,-8161.0,8025.0,-7.0,-19.0,-2.0,24.0,-46.0,4.0,-1.0,0.0,1.7299981117248535
392,2421.0,-1417.0,3304.0,1.0,-11503.0,-2268.0,-8161.0,8025.0,0.0,-3.0,0.0,8.0,11.0,26.0,5.0,4.0,1.7331876754760742
393,2421.0,-1417.0,3304.0,1.0,-11503.0,-2268.0,-8161.0,8025.0,1.0,7.0,76.0,16.0,-5.0,-9.0,-6.0,-5.0,1.7355725765228271
394,2638.0,-1695.0,3627.0,1.0,-11879.0,-2762.0,-7635.0,7838.0,1.0,7.0,76.0,16.0,-5.0,-9.0,-6.0,-5.0,1.739187240600586
395,2638.0,-1695.0,3627.0,1.0,-11879.0,-2762.0,-7635.0,7838.0,-1.0,4.0,-6.0,-18.0,-52.0,1.0,-2.0,0.0,1.747974157333374
396,2638.0,-1695.0,3627.0,1.0,-11879.0,-2762.0,-7635.0,7838.0,-15.0,-16.0,19.0,-4.0,19.0,7.0,8.0,-4.0,1.7505197525024414
397,2758.0,-1770.0,3740.0,1.0,-12241.0,-3278.0,-7054.0,7623.0,-15.0,-16.0,19.0,-4.0,19.0,7.0,8.0,-4.0,1.7628722190856934
398,2758.0,-1770.0,3740.0,1.0,-12241.0,-3278.0,-7054.0,7623.0,-3.0,-15.0,-79.0,-8.0,-9.0,-21.0,-1.0,-1.0,1.764791488647461
399,2758.0,-1770.0,3740.0,1.0,-12241.0,-3278.0,-7054.0,7623.0,2.0,-24.0,-46.0,-9.0,61.0,-29.0,34.0,3.0,1.7692530155181885
400,2767.0,-1692.0,3838.0,1.0,-12575.0,-3795.0,-6446.0,7373.0,2.0,-24.0,-46.0,-9.0,61.0,-29.0,34.0,3.0,1.7867448329925537
401,2767.0,-1692.0,3838.0,1.0,-12575.0,-3795.0,-6446.0,7373.0,-7.0,-15.0,-27.0,3.0,-56.0,-82.0,-22.0,-2.0,1.7903754711151123
402,2767.0,-1692.0,3838.0,1.0,-12575.0,-3795.0,-6446.0,7373.0,-8.0,-5.0,-50.0,-28.0,-115.0,-66.0,-9.0,-5.0,1.7942283153533936
403,3615.0,-1658.0,3997.0,1.0,-12848.0,-4441.0,-5733.0,7128.0,-8.0,-5.0,-50.0,-28.0,-115.0,-66.0,-9.0,-5.0,1.7990710735321045
404,3615.0,-1658.0,3997.0,1.0,-12848.0,-4441.0,-5733.0,7128.0,15.0,35.0,56.0,8.0,-24.0,12.0,8.0,6.0,1.8096857070922852
405,3615.0,-1658.0,3997.0,1.0,-12848.0,-4441.0,-5733.0,7128.0,6.0,13.0,3.0,7.0,119.0,90.0,0.0,11.0,1.8140196800231934
406,4503.0,-1569.0,4431.0,1.0,-13053.0,-5242.0,-4895.0,6828.0,6.0,13.0,3.0,7.0,119.0,90.0,0.0,11.0,1.8228199481964111
407,4503.0,-1569.0,4431.0,1.0,-13053.0,-5242.0,-4895.0,6828.0,-13.0,-11.0,0.0,-26.0,-90.0,-49.0,-19.0,-20.0,1.8251347541809082
408,4503.0,-1569.0,4431.0,1.0,-13053.0,-5242.0,-4895.0,6828.0,2.0,4.0,2.0,6.0,4.0,105.0,-31.0,6.0,1.8293204307556152
409,4451.0,-1324.0,5032.0,1.0,-13208.0,-6029.0,-4076.0,6406.0,2.0,4.0,2.0,6.0,4.0,105.0,-31.0,6.0,1.8530781269073486
410,4451.0,-1324.0,5032.0,1.0,-13208.0,-6029.0,-4076.0,6406.0,-8.0,-15.0,-18.0,-21.0,26.0,127.0,40.0,4.0,1.855041265487671
411,4451.0,-1324.0,5032.0,1.0,-13208.0,-6029.0,-4076.0,6406.0,-7.0,-3.0,-2.0,17.0,15.0,-128.0,37.0,-28.0,1.8570575714111328
412,3976.0,-884.0,5553.0,1.0,-13336.0,-6768.0,-3297.0,5825.0,-7.0,-3.0,-2.0,17.0,15.0,-128.0,37.0,-28.0,1.8589043617248535
413,3976.0,-884.0,5553.0,1.0,-13336.0,-6768.0,-3297.0,5825.0,-99.0,-9.0,0.0,-15.0,4.0,-86.0,89.0,11.0,1.8675270080566406
414,3976.0,-884.0,5553.0,1.0,-13336.0,-6768.0,-3297.0,5825.0,88.0,32.0,43.0,64.0,60.0,127.0,5.0,77.0,1.8700675964355469
415,3192.0,-1046.0,5801.0,1.0,-13471.0,-7355.0,-2507.0,5159.0,88.0,32.0,43.0,64.0,60.0,127.0,5.0,77.0,1.881941318511963
416,3192.0,-1046.0,5801.0,1.0,-13471.0,-7355.0,-2507.0,5159.0,-1.0,-15.0,-13.0,11.0,71.0,-47.0,-102.0,21.0,1.8904430866241455
417,3192.0,-1046.0,5801.0,1.0,-13471.0,-7355.0,-2507.0,5159.0,-76.0,6.0,-10.0,-18.0,-100.0,6.0,79.0,-111.0,1.8935186862945557
418,3470.0,-1184.0,6435.0,1.0,-13543.0,-7949.0,-1616.0,4389.0,-76.0,6.0,-10.0,-18.0,-100.0,6.0,79.0,-111.0,1.9065742492675781
419,3470.0,-1184.0,6435.0,1.0,-13543.0,-7949.0,-1616.0,4389.0,-65.0,-5.0,4.0,32.0,108.0,81.0,127.0,-69.0,1.910374641418457
420,3470.0,-1184.0,6435.0,1.0,-13543.0,-7949.0,-1616.0,4389.0,76.0,-10.0,-14.0,-57.0,-82.0,-22.0,-128.0,83.0,1.914287805557251
421,3328.0,-314.0,7244.0,1.0,-13555.0,-8521.0,-779.0,3392.0,76.0,-10.0,-14.0,-57.0,-82.0,-22.0,-128.0,83.0,1.928713321685791
422,3328.0,-314.0,7244.0,1.0,-13555.0,-8521.0,-779.0,3392.0,-9.0,-8.0,5.0,41.0,26.0,7.0,-124.0,-37.0,1.9318463802337646
423,3328.0,-314.0,7244.0,1.0,-13555.0,-8521.0,-779.0,3392.0,-101.0,-46.0,-27.0,-91.0,-19.0,96.0,1.0,-40.0,1.9357202053070068
424,2589.0,60.0,6064.0,1.0,-13504.0,-8934.0,-128.0,2505.0,-101.0,-46.0,-27.0,-91.0,-19.0,96.0,1.0,-40.0,1.9426634311676025
425,2589.0,60.0,6064.0,1.0,-13504.0,-8934.0,-128.0,2505.0,39.0,-36.0,45.0,-26.0,36.0,53.0,-87.0,7.0,1.94527268409729
426,2589.0,60.0,6064.0,1.0,-13504.0,-8934.0,-128.0,2505.0,108.0,74.0,69.0,-20.0,14.0,-17.0,48.0,3.0,1.9493703842163086
427,2789.0,255.0,3768.0,1.0,-13317.0,-9345.0,277.0,1926.0,108.0,74.0,69.0,-20.0,14.0,-17.0,48.0,3.0,1.956939697265625
428,2789.0,255.0,3768.0,1.0,-13317.0,-9345.0,277.0,1926.0,67.0,23.0,104.0,-31.0,-97.0,-9.0,-58.0,-34.0,1.9659013748168945
429,2789.0,255.0,3768.0,1.0,-13317.0,-9345.0,277.0,1926.0,0.0,20.0,127.0,44.0,9.0,-22.0,114.0,66.0,1.968149185180664
430,2843.0,481.0,-148.0,1.0,-13019.0,-9764.0,252.0,1889.0,0.0,20.0,127.0,44.0,9.0,-22.0,114.0,66.0,1.971747636795044
431,2843.0,481.0,-148.0,1.0,-13019.0,-9764.0,252.0,1889.0,-40.0,-30.0,110.0,92.0,96.0,-18.0,5.0,-21.0,1.9803624153137207
432,2843.0,481.0,-148.0,1.0,-13019.0,-9764.0,252.0,1889.0,-46.0,-100.0,-128.0,17.0,107.0,49.0,72.0,27.0,1.982274055480957
433,3872.0,-445.0,-2199.0,1.0,-12545.0,-10298.0,161.0,2235.0,-46.0,-100.0,-128.0,17.0,107.0,49.0,72.0,27.0,1.9957892894744873
434,3872.0,-445.0,-2199.0,1.0,-12545.0,-10298.0,161.0,2235.0,-76.0,-110.0,-128.0,-11.0,71.0,57.0,81.0,28.0,2.0037682056427
435,3872.0,-445.0,-2199.0,1.0,-12545.0,-10298.0,161.0,2235.0,-76.0,-110.0,-128.0,-11.0,71.0,57.0,81.0,28.0,2.0069730281829834
436,3872.0,-445.0,-2199.0,1.0,-12545.0,-10298.0,161.0,2235.0,-15.0,-82.0,-51.0,-55.0,-42.0,8.0,-108.0,-6.0,2.028981924057007
437,2392.0,-1325.0,-4823.0,1.0,-12134.0,-10583.0,-141.0,3034.0,-15.0,-82.0,-51.0,-55.0,-42.0,8.0,-108.0,-6.0,2.033104181289673
438,2392.0,-1325.0,-4823.0,1.0,-12134.0,-10583.0,-141.0,3034.0,58.0,-38.0,12.0,-23.0,64.0,-63.0,25.0,-36.0,2.0360488891601562
439,2392.0,-1325.0,-4823.0,1.0,-12134.0,-10583.0,-141.0,3034.0,10.0,-38.0,-83.0,66.0,-22.0,-102.0,24.0,53.0,2.0379064083099365
440,1434.0,1306.0,542.0,1.0,-11889.0,-10877.0,-372.0,2942.0,10.0,-38.0,-83.0,66.0,-22.0,-102.0,24.0,53.0,2.0480151176452637
441,1434.0,1306.0,542.0,1.0,-11889.0,-10877.0,-372.0,2942.0,-93.0,-57.0,-128.0,-80.0,-128.0,-69.0,-60.0,-26.0,2.049912452697754
442,1434.0,1306.0,542.0,1.0,-11889.0,-10877.0,-372.0,2942.0,57.0,37.0,127.0,31.0,-119.0,-26.0,-128.0,-42.0,2.0517115592956543
443,-3791.0,-288.0,2700.0,1.0,-12411.0,-10374.0,-136.0,2607.0,57.0,37.0,127.0,31.0,-119.0,-26.0,-128.0,-42.0,2.0628104209899902
444,-3791.0,-288.0,2700.0,1.0,-12411.0,-10374.0,-136.0,2607.0,-31.0,127.0,127.0,52.0,91.0,121.0,-13.0,29.0,2.0647222995758057
445,-3791.0,-288.0,2700.0,1.0,-12411.0,-10374.0,-136.0,2607.0,55.0,-84.0,-39.0,13.0,68.0,18.0,-94.0,-55.0,2.0692105293273926
446,-1558.0,-664.0,1619.0,1.0,-12630.0,-10143.0,93.0,2460.0,55.0,-84.0,-39.0,13.0,68.0,18.0,-94.0,-55.0,2.0874969959259033
447,-1558.0,-664.0,1619.0,1.0,-12630.0,-10143.0,93.0,2460.0,82.0,-6.0,-128.0,-59.0,-128.0,-50.0,48.0,58.0,2.0922372341156006
448,-1558.0,-664.0,1619.0,1.0,-12630.0,-10143.0,93.0,2460.0,-99.0,54.0,-44.0,41.0,100.0,-8.0,-39.0,-98.0,2.096435308456421
449,1050.0,-125.0,2184.0,1.0,-12583.0,-10259.0,384.0,2170.0,-99.0,54.0,-44.0,41.0,100.0,-8.0,-39.0,-98.0,2.1082749366760254
450,1050.0,-125.0,2184.0,1.0,-12583.0,-10259.0,384.0,2170.0,-14.0,61.0,-11.0,-13.0,18.0,101.0,76.0,86.0,2.1101772785186768
451,1050.0,-125.0,2184.0,1.0,-12583.0,-10259.0,384.0,2170.0,38.0,17.0,-47.0,-91.0,122.0,-128.0,-17.0,-52.0,2.11196231842041
452,1222.0,-36.0,1121.0,1.0,-12543.0,-10334.0,569.0,2000.0,38.0,17.0,-47.0,-91.0,122.0,-128.0,-17.0,-52.0,2.130890369415283
453,1222.0,-36.0,1121.0,1.0,-12543.0,-10334.0,569.0,2000.0,-73.0,5.0,18.0,77.0,-10.0,9.0,-68.0,-114.0,2.1342380046844482
454,1222.0,-36.0,1121.0,1.0,-12543.0,-10334.0,569.0,2000.0,-96.0,40.0,18.0,19.0,63.0,127.0,93.0,-11.0,2.137390375137329
455,1752.0,268.0,665.0,1.0,-12359.0,-10574.0,650.0,1864.0,-96.0,40.0,18.0,19.0,63.0,127.0,93.0,-11.0,2.1464121341705322
456,1752.0,268.0,665.0,1.0,-12359.0,-10574.0,650.0,1864.0,93.0,-78.0,-105.0,-3.0,-75.0,-91.0,127.0,-48.0,2.1491012573242188
457,1752.0,268.0,665.0,1.0,-12359.0,-10574.0,650.0,1864.0,-31.0,33.0,-36.0,-67.0,-59.0,45.0,-60.0,33.0,2.1514081954956055
458,1594.0,480.0,156.0,1.0,-12180.0,-10796.0,636.0,1776.0,-31.0,33.0,-36.0,-67.0,-59.0,45.0,-60.0,33.0,2.168004274368286
459,1594.0,480.0,156.0,1.0,-12180.0,-10796.0,636.0,1776.0,14.0,4.0,64.0,52.0,123.0,18.0,-14.0,2.0,2.1698694229125977
460,1594.0,480.0,156.0,1.0,-12180.0,-10796.0,636.0,1776.0,24.0,31.0,-14.0,17.0,-127.0,-128.0,-66.0,57.0,2.1716394424438477
461,-174.0,348.0,465.0,1.0,-12212.0,-10776.0,641.0,1674.0,24.0,31.0,-14.0,17.0,-127.0,-128.0,-66.0,57.0,2.1825292110443115
462,-174.0,348.0,465.0,1.0,-12212.0,-10776.0,641.0,1674.0,9.0,6.0,-50.0,-38.0,20.0,31.0,-128.0,-44.0,2.1903247833251953
463,-174.0,348.0,465.0,1.0,-12212.0,-10776.0,641.0,1674.0,-99.0,-8.0,48.0,12.0,10.0,-67.0,127.0,26.0,2.1933486461639404
464,-2014.0,-147.0,197.0,1.0,-12448.0,-10502.0,666.0,1663.0,-99.0,-8.0,48.0,12.0,10.0,-67.0,127.0,26.0,2.2055399417877197
465,-2014.0,-147.0,197.0,1.0,-12448.0,-10502.0,666.0,1663.0,96.0,23.0,8.0,-24.0,-115.0,-127.0,-42.0,127.0,2.20935320854187
466,-2014.0,-147.0,197.0,1.0,-12448.0,-10502.0,666.0,1663.0,80.0,68.0,98.0,38.0,45.0,57.0,35.0,-21.0,2.2138116359710693
467,-405.0,-48.0,-378.0,1.0,-12473.0,-10471.0,697.0,1659.0,80.0,68.0,98.0,38.0,45.0,57.0,35.0,-21.0,2.2300779819488525
468,-405.0,-48.0,-378.0,1.0,-12473.0,-10471.0,697.0,1659.0,-85.0,-16.0,41.0,-6.0,118.0,-43.0,-37.0,38.0,2.2339227199554443
469,-405.0,-48.0,-378.0,1.0,-12473.0,-10471.0,697.0,1659.0,-11.0,-71.0,79.0,-5.0,3.0,-14.0,-107.0,-83.0,2.2375593185424805
470,437.0,198.0,-200.0,1.0,-12372.0,-10595.0,680.0,1635.0,-11.0,-71.0,79.0,-5.0,3.0,-14.0,-107.0,-83.0,2.2420108318328857
471,437.0,198.0,-200.0,1.0,-12372.0,-10595.0,680.0,1635.0,3.0,82.0,96.0,17.0,28.0,75.0,90.0,-8.0,2.249699831008911
472,437.0,198.0,-200.0,1.0,-12372.0,-10595.0,680.0,1635.0,1.0,-29.0,-89.0,5.0,76.0,-105.0,-21.0,-22.0,2.251497268676758
473,-261.0,-33.0,-15.0,1.0,-12396.0,-10568.0,704.0,1620.0,1.0,-29.0,-89.0,5.0,76.0,-105.0,-21.0,-22.0,2.2658963203430176
474,-261.0,-33.0,-15.0,1.0,-12396.0,-10568.0,704.0,1620.0,-49.0,-22.0,-52.0,8.0,-74.0,-70.0,-14.0,-51.0,2.269411087036133
475,-261.0,-33.0,-15.0,1.0,-12396.0,-10568.0,704.0,1620.0,-40.0,29.0,42.0,59.0,54.0,-56.0,-29.0,-44.0,2.2736496925354004
476,-279.0,-148.0,-200.0,1.0,-12424.0,-10531.0,738.0,1631.0,-40.0,29.0,42.0,59.0,54.0,-56.0,-29.0,-44.0,2.2880778312683105
477,-279.0,-148.0,-200.0,1.0,-12424.0,-10531.0,738.0,1631.0,92.0,9.0,-5.0,-44.0,-86.0,96.0,-93.0,-5.0,2.290494203567505
478,-279.0,-148.0,-200.0,1.0,-12424.0,-10531.0,738.0,1631.0,-9.0,-29.0,-36.0,17.0,2.0,127.0,-25.0,29.0,2.293492317199707
479,-109.0,-177.0,-317.0,1.0,-12424.0,-10523.0,751.0,1671.0,-9.0,-29.0,-36.0,17.0,2.0,127.0,-25.0,29.0,2.3025436401367188
480,-109.0,-177.0,-317.0,1.0,-12424.0,-10523.0,751.0,1671.0,-5.0,-69.0,21.0,78.0,89.0,-18.0,-39.0,-23.0,2.310088872909546
481,-109.0,-177.0,-317.0,1.0,-12424.0,-10523.0,751.0,1671.0,-20.0,-3.0,-36.0,29.0,-12.0,32.0,109.0,-78.0,2.3126254081726074
482,95.0,17.0,-119.0,1.0,-12408.0,-10542.0,752.0,1672.0,-20.0,-3.0,-36.0,29.0,-12.0,32.0,109.0,-78.0,2.325723886489868
483,95.0,17.0,-119.0,1.0,-12408.0,-10542.0,752.0,1672.0,16.0,35.0,-45.0,63.0,124.0,-35.0,-67.0,39.0,2.329089403152466
484,95.0,17.0,-119.0,1.0,-12408.0,-10542.0,752.0,1672.0,16.0,92.0,92.0,-4.0,4.0,-10.0,-89.0,-4.0,2.3323817253112793
485,171.0,8.0,-85.0,1.0,-12393.0,-10561.0,783.0,1648.0,16.0,92.0,92.0,-4.0,4.0,-10.0,-89.0,-4.0,2.3495075702667236
486,171.0,8.0,-85.0,1.0,-12393.0,-10561.0,783.0,1648.0,25.0,4.0,-17.0,28.0,39.0,-37.0,-55.0,-12.0,2.3529112339019775
487,171.0,8.0,-85.0,1.0,-12393.0,-10561.0,783.0,1648.0,50.0,-14.0,-19.0,-11.0,-99.0,-26.0,123.0,62.0,2.3563311100006104
488,343.0,9.0,-93.0,1.0,-12350.0,-10612.0,804.0,1634.0,50.0,-14.0,-19.0,-11.0,-99.0,-26.0,123.0,62.0,2.362621545791626
489,343.0,9.0,-93.0,1.0,-12350.0,-10612.0,804.0,1634.0,44.0,4.0,-31.0,-80.0,-21.0,53.0,127.0,25.0,2.3713572025299072
490,343.0,9.0,-93.0,1.0,-12350.0,-10612.0,804.0,1634.0,-38.0,-24.0,-33.0,-44.0,-62.0,-75.0,-128.0,-14.0,2.3733036518096924
491,-71.0,-22.0,60.0,1.0,-12365.0,-10596.0,829.0,1616.0,-38.0,-24.0,-33.0,-44.0,-62.0,-75.0,-128.0,-14.0,2.385624647140503
492,-71.0,-22.0,60.0,1.0,-12365.0,-10596.0,829.0,1616.0,-35.0,-11.0,10.0,64.0,7.0,89.0,-55.0,-122.0,2.38753342628479
493,-71.0,-22.0,60.0,1.0,-12365.0,-10596.0,829.0,1616.0,3.0,35.0,61.0,-12.0,37.0,-30.0,45.0,7.0,2.3895859718322754
494,-447.0,-4.0,178.0,1.0,-12428.0,-10525.0,874.0,1569.0,3.0,35.0,61.0,-12.0,37.0,-30.0,45.0,7.0,2.4083781242370605
495,-447.0,-4.0,178.0,1.0,-12428.0,-10525.0,874.0,1569.0,-24.0,22.0,18.0,-26.0,72.0,82.0,-12.0,-2.0,2.411672592163086
496,-447.0,-4.0,178.0,1.0,-12428.0,-10525.0,874.0,1569.0,4.0,-13.0,-33.0,-21.0,4.0,-50.0,27.0,111.0,2.415236711502075
497,-18.0,77.0,31.0,1.0,-12435.0,-10520.0,900.0,1528.0,4.0,-13.0,-33.0,-21.0,4.0,-50.0,27.0,111.0,2.4227867126464844
498,-18.0,77.0,31.0,1.0,-12435.0,-10520.0,900.0,1528.0,-43.0,-26.0,-22.0,-10.0,-39.0,51.0,-11.0,-1.0,2.430417776107788
499,-18.0,77.0,31.0,1.0,-12435.0,-10520.0,900.0,1528.0,-2.0,-25.0,-70.0,-27.0,-72.0,-35.0,29.0,-97.0,2.4323160648345947
