,Gyro 0,Gyro 1,Gyro 2,Label,Orientation 0,Orientation 1,Orientation 2,Orientation 3,Sensor 0,Sensor 1,Sensor 2,Sensor 3,Sensor 4,Sensor 5,Sensor 6,Sensor 7,Timestamp
0,-284.0,48.0,50.0,0.0,-9462.0,-12003.0,4994.0,-3149.0,-1.0,-3.0,-2.0,-1.0,-8.0,-3.0,-4.0,-2.0,1.9073486328125e-06
1,-284.0,48.0,50.0,0.0,-9462.0,-12003.0,4994.0,-3149.0,-1.0,-3.0,-2.0,-1.0,-8.0,-3.0,-4.0,-2.0,0.0029146671295166016
2,-284.0,48.0,50.0,0.0,-9462.0,-12003.0,4994.0,-3149.0,1.0,-10.0,-17.0,-2.0,3.0,4.0,1.0,-2.0,0.005460977554321289
3,-284.0,48.0,50.0,0.0,-9462.0,-12003.0,4994.0,-3149.0,-2.0,-5.0,-2.0,3.0,20.0,0.0,2.0,0.0,0.007989645004272461
4,-284.0,48.0,50.0,0.0,-9462.0,-12003.0,4994.0,-3149.0,3.0,6.0,10.0,1.0,4.0,0.0,-3.0,1.0,0.010393381118774414
5,-284.0,48.0,50.0,0.0,-9462.0,-12003.0,4994.0,-3149.0,-3.0,-4.0,-4.0,-1.0,-9.0,-7.0,-1.0,-1.0,0.012700080871582031
6,-271.0,127.0,91.0,0.0,-9538.0,-11934.0,5012.0,-3152.0,-3.0,-4.0,-4.0,-1.0,-9.0,-7.0,-1.0,-1.0,0.015035152435302734
7,-271.0,127.0,91.0,0.0,-9538.0,-11934.0,5012.0,-3152.0,5.0,7.0,-7.0,-1.0,-7.0,0.0,2.0,2.0,0.017409563064575195
8,-271.0,127.0,91.0,0.0,-9538.0,-11934.0,5012.0,-3152.0,-1.0,1.0,1.0,-3.0,-1.0,-2.0,-1.0,-2.0,0.0199129581451416
9,-239.0,187.0,104.0,0.0,-9572.0,-11903.0,5012.0,-3166.0,-1.0,1.0,1.0,-3.0,-1.0,-2.0,-1.0,-2.0,0.0230100154876709
10,-239.0,187.0,104.0,0.0,-9572.0,-11903.0,5012.0,-3166.0,-5.0,-13.0,-35.0,-1.0,5.0,-1.0,-3.0,0.0,0.025981426239013672
11,-239.0,187.0,104.0,0.0,-9572.0,-11903.0,5012.0,-3166.0,1.0,-4.0,-27.0,-5.0,-1.0,3.0,-1.0,0.0,0.028341054916381836
12,-274.0,236.0,88.0,0.0,-9612.0,-11868.0,5006.0,-3184.0,1.0,-4.0,-27.0,-5.0,-1.0,3.0,-1.0,0.0,0.03064727783203125
13,-274.0,236.0,88.0,0.0,-9612.0,-11868.0,5006.0,-3184.0,-4.0,-17.0,-21.0,3.0,19.0,1.0,2.0,-1.0,0.03306460380554199
14,-274.0,236.0,88.0,0.0,-9612.0,-11868.0,5006.0,-3184.0,-4.0,-24.0,-12.0,-4.0,-2.0,5.0,1.0,-2.0,0.03539872169494629
15,-244.0,252.0,43.0,0.0,-9651.0,-11836.0,4994.0,-3205.0,-4.0,-24.0,-12.0,-4.0,-2.0,5.0,1.0,-2.0,0.037752389907836914
16,-244.0,252.0,43.0,0.0,-9651.0,-11836.0,4994.0,-3205.0,-9.0,-24.0,9.0,-7.0,-1.0,0.0,-3.0,-4.0,0.04012894630432129
17,-244.0,252.0,43.0,0.0,-9651.0,-11836.0,4994.0,-3205.0,-3.0,1.0,7.0,-8.0,-48.0,-4.0,-3.0,-1.0,0.04245352745056152
18,-150.0,256.0,-2.0,0.0,-9677.0,-11816.0,4977.0,-3230.0,-3.0,1.0,7.0,-8.0,-48.0,-4.0,-3.0,-1.0,0.04474329948425293
19,-150.0,256.0,-2.0,0.0,-9677.0,-11816.0,4977.0,-3230.0,-6.0,-3.0,12.0,8.0,-7.0,1.0,-1.0,-3.0,0.04719853401184082
20,-150.0,256.0,-2.0,0.0,-9677.0,-11816.0,4977.0,-3230.0,-3.0,-4.0,-11.0,3.0,0.0,-12.0,-4.0,-2.0,0.04953622817993164
21,-78.0,227.0,-27.0,0.0,-9694.0,-11804.0,4955.0,-3253.0,-3.0,-4.0,-11.0,3.0,0.0,-12.0,-4.0,-2.0,0.051957130432128906
22,-78.0,227.0,-27.0,0.0,-9694.0,-11804.0,4955.0,-3253.0,8.0,17.0,4.0,-7.0,-14.0,4.0,-5.0,4.0,0.05502820014953613
23,-78.0,227.0,-27.0,0.0,-9694.0,-11804.0,4955.0,-3253.0,-5.0,-7.0,2.0,-10.0,20.0,3.0,0.0,-2.0,0.057729244232177734
24,-53.0,195.0,-99.0,0.0,-9710.0,-11798.0,4929.0,-3269.0,-5.0,-7.0,2.0,-10.0,20.0,3.0,0.0,-2.0,0.06009030342102051
25,-53.0,195.0,-99.0,0.0,-9710.0,-11798.0,4929.0,-3269.0,-5.0,5.0,18.0,-2.0,0.0,-4.0,-2.0,-3.0,0.0624699592590332
26,-53.0,195.0,-99.0,0.0,-9710.0,-11798.0,4929.0,-3269.0,-2.0,2.0,16.0,14.0,-2.0,3.0,0.0,0.0,0.06480669975280762
27,-73.0,108.0,-142.0,0.0,-9722.0,-11796.0,4909.0,-3269.0,-2.0,2.0,16.0,14.0,-2.0,3.0,0.0,0.0,0.06711387634277344
28,-73.0,108.0,-142.0,0.0,-9722.0,-11796.0,4909.0,-3269.0,-2.0,23.0,22.0,-3.0,-15.0,-8.0,4.0,0.0,0.06954360008239746
29,-73.0,108.0,-142.0,0.0,-9722.0,-11796.0,4909.0,-3269.0,11.0,27.0,-10.0,1.0,6.0,-5.0,-3.0,1.0,0.07184696197509766
30,-139.0,41.0,-147.0,0.0,-9744.0,-11785.0,4898.0,-3260.0,11.0,27.0,-10.0,1.0,6.0,-5.0,-3.0,1.0,0.07416343688964844
31,-139.0,41.0,-147.0,0.0,-9744.0,-11785.0,4898.0,-3260.0,-1.0,-2.0,-9.0,3.0,25.0,3.0,-1.0,-3.0,0.0765371322631836
32,-139.0,41.0,-147.0,0.0,-9744.0,-11785.0,4898.0,-3260.0,-3.0,2.0,24.0,3.0,5.0,5.0,2.0,-2.0,0.07883810997009277
33,-192.0,26.0,-115.0,0.0,-9769.0,-11767.0,4897.0,-3253.0,-3.0,2.0,24.0,3.0,5.0,5.0,2.0,-2.0,0.08115696907043457
34,-192.0,26.0,-115.0,0.0,-9769.0,-11767.0,4897.0,-3253.0,6.0,11.0,4.0,-3.0,-14.0,-3.0,-3.0,3.0,0.08353567123413086
35,-192.0,26.0,-115.0,0.0,-9769.0,-11767.0,4897.0,-3253.0,-4.0,-2.0,15.0,-2.0,-21.0,-3.0,-3.0,-2.0,0.08671021461486816
36,-119.0,3.0,-103.0,0.0,-9784.0,-11757.0,4895.0,-3246.0,-4.0,-2.0,15.0,-2.0,-21.0,-3.0,-3.0,-2.0,0.08936214447021484
37,-119.0,3.0,-103.0,0.0,-9784.0,-11757.0,4895.0,-3246.0,2.0,-5.0,-14.0,4.0,-7.0,-2.0,3.0,-2.0,0.09177327156066895
38,-119.0,3.0,-103.0,0.0,-9784.0,-11757.0,4895.0,-3246.0,3.0,5.0,-11.0,4.0,12.0,-4.0,0.0,0.0,0.09407210350036621
39,-96.0,-9.0,-78.0,0.0,-9794.0,-11749.0,4898.0,-3241.0,3.0,5.0,-11.0,4.0,12.0,-4.0,0.0,0.0,0.09643101692199707
40,-96.0,-9.0,-78.0,0.0,-9794.0,-11749.0,4898.0,-3241.0,-8.0,-6.0,8.0,0.0,0.0,-1.0,0.0,-3.0,0.0988168716430664
41,-96.0,-9.0,-78.0,0.0,-9794.0,-11749.0,4898.0,-3241.0,4.0,8.0,-1.0,0.0,-2.0,3.0,3.0,2.0,0.10176277160644531
42,-43.0,-45.0,-92.0,0.0,-9794.0,-11751.0,4900.0,-3229.0,4.0,8.0,-1.0,0.0,-2.0,3.0,3.0,2.0,0.10515356063842773
43,-43.0,-45.0,-92.0,0.0,-9794.0,-11751.0,4900.0,-3229.0,0.0,5.0,-5.0,-1.0,3.0,-1.0,-3.0,-1.0,0.10819220542907715
44,-43.0,-45.0,-92.0,0.0,-9794.0,-11751.0,4900.0,-3229.0,-6.0,-10.0,-2.0,-1.0,14.0,3.0,4.0,-3.0,0.11049652099609375
45,-40.0,-61.0,-89.0,0.0,-9793.0,-11756.0,4901.0,-3213.0,-6.0,-10.0,-2.0,-1.0,14.0,3.0,4.0,-3.0,0.11281490325927734
46,-40.0,-61.0,-89.0,0.0,-9793.0,-11756.0,4901.0,-3213.0,-5.0,-23.0,-21.0,-3.0,-8.0,-2.0,-2.0,-3.0,0.11527013778686523
47,-40.0,-61.0,-89.0,0.0,-9793.0,-11756.0,4901.0,-3213.0,4.0,-6.0,-6.0,-4.0,4.0,-3.0,-8.0,2.0,0.11780452728271484
48,-46.0,-71.0,-83.0,0.0,-9792.0,-11760.0,4905.0,-3196.0,4.0,-6.0,-6.0,-4.0,4.0,-3.0,-8.0,2.0,0.12050461769104004
49,-46.0,-71.0,-83.0,0.0,-9792.0,-11760.0,4905.0,-3196.0,-15.0,-18.0,24.0,8.0,-2.0,-2.0,-2.0,-6.0,0.12288188934326172
50,-46.0,-71.0,-83.0,0.0,-9792.0,-11760.0,4905.0,-3196.0,-1.0,8.0,9.0,0.0,-2.0,-15.0,0.0,-1.0,0.1251544952392578
51,-17.0,-84.0,-74.0,0.0,-9786.0,-11766.0,4911.0,-3181.0,-1.0,8.0,9.0,0.0,-2.0,-15.0,0.0,-1.0,0.12747955322265625
52,-17.0,-84.0,-74.0,0.0,-9786.0,-11766.0,4911.0,-3181.0,-7.0,-17.0,2.0,4.0,-1.0,-2.0,-1.0,-4.0,0.1298837661743164
53,-17.0,-84.0,-74.0,0.0,-9786.0,-11766.0,4911.0,-3181.0,5.0,6.0,-9.0,0.0,22.0,12.0,2.0,1.0,0.13220953941345215
54,9.0,-71.0,-68.0,0.0,-9777.0,-11775.0,4916.0,-3169.0,5.0,6.0,-9.0,0.0,22.0,12.0,2.0,1.0,0.13451600074768066
55,9.0,-71.0,-68.0,0.0,-9777.0,-11775.0,4916.0,-3169.0,2.0,0.0,-19.0,-9.0,-20.0,-6.0,6.0,1.0,0.13686871528625488
56,9.0,-71.0,-68.0,0.0,-9777.0,-11775.0,4916.0,-3169.0,1.0,-2.0,3.0,-1.0,-4.0,4.0,11.0,-3.0,0.13915324211120605
57,37.0,-52.0,-57.0,0.0,-9766.0,-11786.0,4917.0,-3162.0,1.0,-2.0,3.0,-1.0,-4.0,4.0,11.0,-3.0,0.14142465591430664
58,37.0,-52.0,-57.0,0.0,-9766.0,-11786.0,4917.0,-3162.0,0.0,-6.0,-10.0,0.0,3.0,-2.0,-6.0,-2.0,0.14379620552062988
59,37.0,-52.0,-57.0,0.0,-9766.0,-11786.0,4917.0,-3162.0,7.0,-5.0,-17.0,-3.0,13.0,5.0,-1.0,3.0,0.14634227752685547
60,31.0,-32.0,-35.0,0.0,-9758.0,-11792.0,4919.0,-3159.0,7.0,-5.0,-17.0,-3.0,13.0,5.0,-1.0,3.0,0.14892292022705078
61,31.0,-32.0,-35.0,0.0,-9758.0,-11792.0,4919.0,-3159.0,6.0,13.0,3.0,-4.0,-1.0,-2.0,0.0,1.0,0.15160679817199707
62,31.0,-32.0,-35.0,0.0,-9758.0,-11792.0,4919.0,-3159.0,-3.0,-2.0,-7.0,-2.0,-8.0,-1.0,-4.0,-2.0,0.1539623737335205
63,45.0,-20.0,-5.0,0.0,-9747.0,-11799.0,4922.0,-3161.0,-3.0,-2.0,-7.0,-2.0,-8.0,-1.0,-4.0,-2.0,0.1562800407409668
64,45.0,-20.0,-5.0,0.0,-9747.0,-11799.0,4922.0,-3161.0,3.0,1.0,-5.0,-1.0,8.0,4.0,1.0,2.0,0.15863776206970215
65,45.0,-20.0,-5.0,0.0,-9747.0,-11799.0,4922.0,-3161.0,-13.0,-15.0,18.0,-1.0,-26.0,-4.0,-7.0,-8.0,0.1609048843383789
66,48.0,-3.0,25.0,0.0,-9738.0,-11803.0,4926.0,-3168.0,-13.0,-15.0,18.0,-1.0,-26.0,-4.0,-7.0,-8.0,0.1632847785949707
67,48.0,-3.0,25.0,0.0,-9738.0,-11803.0,4926.0,-3168.0,3.0,7.0,-2.0,-5.0,2.0,0.0,-3.0,0.0,0.16580438613891602
68,48.0,-3.0,25.0,0.0,-9738.0,-11803.0,4926.0,-3168.0,-5.0,0.0,-10.0,-1.0,11.0,0.0,-2.0,-1.0,0.1681995391845703
69,21.0,15.0,38.0,0.0,-9735.0,-11802.0,4930.0,-3177.0,-5.0,0.0,-10.0,-1.0,11.0,0.0,-2.0,-1.0,0.17049837112426758
70,21.0,15.0,38.0,0.0,-9735.0,-11802.0,4930.0,-3177.0,2.0,4.0,-1.0,-2.0,-8.0,-4.0,1.0,2.0,0.1730797290802002
71,21.0,15.0,38.0,0.0,-9735.0,-11802.0,4930.0,-3177.0,-7.0,-4.0,3.0,1.0,-1.0,0.0,-4.0,-2.0,0.17543530464172363
72,36.0,23.0,47.0,0.0,-9730.0,-11802.0,4933.0,-3188.0,-7.0,-4.0,3.0,1.0,-1.0,0.0,-4.0,-2.0,0.17774605751037598
73,36.0,23.0,47.0,0.0,-9730.0,-11802.0,4933.0,-3188.0,1.0,8.0,9.0,-1.0,0.0,-1.0,2.0,0.0,0.18071365356445312
74,36.0,23.0,47.0,0.0,-9730.0,-11802.0,4933.0,-3188.0,-3.0,-9.0,-13.0,0.0,-2.0,-5.0,-4.0,-3.0,0.18334054946899414
75,30.0,31.0,55.0,0.0,-9726.0,-11800.0,4937.0,-3202.0,-3.0,-9.0,-13.0,0.0,-2.0,-5.0,-4.0,-3.0,0.18569326400756836
76,30.0,31.0,55.0,0.0,-9726.0,-11800.0,4937.0,-3202.0,3.0,1.0,-8.0,1.0,2.0,4.0,0.0,1.0,0.1880965232849121
77,30.0,31.0,55.0,0.0,-9726.0,-11800.0,4937.0,-3202.0,-8.0,-13.0,-19.0,0.0,8.0,5.0,0.0,-2.0,0.1904921531677246
78,36.0,32.0,59.0,0.0,-9723.0,-11799.0,4938.0,-3213.0,-8.0,-13.0,-19.0,0.0,8.0,5.0,0.0,-2.0,0.1927797794342041
79,36.0,32.0,59.0,0.0,-9723.0,-11799.0,4938.0,-3213.0,3.0,-3.0,-14.0,-12.0,-21.0,-7.0,-4.0,-2.0,0.19514155387878418
80,36.0,32.0,59.0,0.0,-9723.0,-11799.0,4938.0,-3213.0,0.0,-6.0,-4.0,-3.0,-13.0,-3.0,-1.0,-2.0,0.19744062423706055
81,42.0,40.0,59.0,0.0,-9718.0,-11800.0,4939.0,-3225.0,0.0,-6.0,-4.0,-3.0,-13.0,-3.0,-1.0,-2.0,0.19972753524780273
82,42.0,40.0,59.0,0.0,-9718.0,-11800.0,4939.0,-3225.0,-3.0,2.0,6.0,3.0,8.0,3.0,-1.0,1.0,0.20209836959838867
83,42.0,40.0,59.0,0.0,-9718.0,-11800.0,4939.0,-3225.0,4.0,12.0,13.0,0.0,-1.0,0.0,-1.0,1.0,0.2045271396636963
84,19.0,45.0,55.0,0.0,-9716.0,-11798.0,4939.0,-3236.0,4.0,12.0,13.0,0.0,-1.0,0.0,-1.0,1.0,0.2079026699066162
85,19.0,45.0,55.0,0.0,-9716.0,-11798.0,4939.0,-3236.0,-4.0,-6.0,21.0,4.0,4.0,1.0,0.0,-4.0,0.2106630802154541
86,19.0,45.0,55.0,0.0,-9716.0,-11798.0,4939.0,-3236.0,7.0,13.0,-5.0,0.0,7.0,5.0,2.0,4.0,0.2133655548095703
87,0.0,33.0,37.0,0.0,-9715.0,-11797.0,4939.0,-3241.0,7.0,13.0,-5.0,0.0,7.0,5.0,2.0,4.0,0.215789794921875
88,0.0,33.0,37.0,0.0,-9715.0,-11797.0,4939.0,-3241.0,0.0,-4.0,-11.0,-6.0,-16.0,-9.0,-1.0,0.0,0.21819257736206055
89,0.0,33.0,37.0,0.0,-9715.0,-11797.0,4939.0,-3241.0,-2.0,-3.0,11.0,-4.0,-5.0,-2.0,0.0,-2.0,0.22052741050720215
90,1.0,25.0,30.0,0.0,-9714.0,-11797.0,4939.0,-3244.0,-2.0,-3.0,11.0,-4.0,-5.0,-2.0,0.0,-2.0,0.22286105155944824
91,1.0,25.0,30.0,0.0,-9714.0,-11797.0,4939.0,-3244.0,-6.0,-3.0,-10.0,3.0,9.0,3.0,-3.0,-2.0,0.22523069381713867
92,1.0,25.0,30.0,0.0,-9714.0,-11797.0,4939.0,-3244.0,6.0,15.0,25.0,-1.0,-5.0,-2.0,1.0,2.0,0.2276160717010498
93,8.0,20.0,21.0,0.0,-9711.0,-11799.0,4939.0,-3247.0,6.0,15.0,25.0,-1.0,-5.0,-2.0,1.0,2.0,0.2299206256866455
94,8.0,20.0,21.0,0.0,-9711.0,-11799.0,4939.0,-3247.0,1.0,-7.0,-11.0,-2.0,8.0,-1.0,-3.0,-1.0,0.23231124877929688
95,8.0,20.0,21.0,0.0,-9711.0,-11799.0,4939.0,-3247.0,-3.0,-9.0,-11.0,-1.0,-10.0,-6.0,-6.0,-3.0,0.23464012145996094
96,9.0,13.0,14.0,0.0,-9710.0,-11800.0,4939.0,-3246.0,-3.0,-9.0,-11.0,-1.0,-10.0,-6.0,-6.0,-3.0,0.2369687557220459
97,9.0,13.0,14.0,0.0,-9710.0,-11800.0,4939.0,-3246.0,3.0,12.0,9.0,-1.0,3.0,1.0,2.0,-1.0,0.2393488883972168
98,9.0,13.0,14.0,0.0,-9710.0,-11800.0,4939.0,-3246.0,0.0,-3.0,-6.0,-1.0,8.0,1.0,0.0,-1.0,0.24205255508422852
99,10.0,2.0,5.0,0.0,-9709.0,-11801.0,4939.0,-3246.0,0.0,-3.0,-6.0,-1.0,8.0,1.0,0.0,-1.0,0.2448885440826416
100,10.0,2.0,5.0,0.0,-9709.0,-11801.0,4939.0,-3246.0,-6.0,-6.0,22.0,-1.0,4.0,0.0,-2.0,-1.0,0.2473616600036621
101,10.0,2.0,5.0,0.0,-9709.0,-11801.0,4939.0,-3246.0,-3.0,4.0,-12.0,-4.0,-26.0,-5.0,-10.0,-2.0,0.24970030784606934
102,11.0,-1.0,-2.0,0.0,-9708.0,-11802.0,4939.0,-3245.0,-3.0,4.0,-12.0,-4.0,-26.0,-5.0,-10.0,-2.0,0.25205183029174805
103,11.0,-1.0,-2.0,0.0,-9708.0,-11802.0,4939.0,-3245.0,-7.0,-20.0,-12.0,3.0,10.0,3.0,-1.0,-3.0,0.25449490547180176
104,11.0,-1.0,-2.0,0.0,-9708.0,-11802.0,4939.0,-3245.0,6.0,7.0,5.0,-5.0,-5.0,-1.0,3.0,2.0,0.25681138038635254
105,39.0,-5.0,-8.0,0.0,-9699.0,-11810.0,4938.0,-3244.0,6.0,7.0,5.0,-5.0,-5.0,-1.0,3.0,2.0,0.2591381072998047
106,39.0,-5.0,-8.0,0.0,-9699.0,-11810.0,4938.0,-3244.0,-2.0,-7.0,-1.0,2.0,12.0,-1.0,-6.0,-1.0,0.2615489959716797
107,39.0,-5.0,-8.0,0.0,-9699.0,-11810.0,4938.0,-3244.0,3.0,12.0,9.0,-1.0,-15.0,-4.0,3.0,1.0,0.26385021209716797
108,42.0,-9.0,-9.0,0.0,-9690.0,-11820.0,4936.0,-3240.0,3.0,12.0,9.0,-1.0,-15.0,-4.0,3.0,1.0,0.2661454677581787
109,42.0,-9.0,-9.0,0.0,-9690.0,-11820.0,4936.0,-3240.0,2.0,12.0,5.0,0.0,9.0,-3.0,3.0,0.0,0.2685229778289795
110,42.0,-9.0,-9.0,0.0,-9690.0,-11820.0,4936.0,-3240.0,-2.0,-10.0,-13.0,1.0,9.0,3.0,-1.0,-1.0,0.27083683013916016
111,7.0,-12.0,-3.0,0.0,-9689.0,-11821.0,4936.0,-3239.0,-2.0,-10.0,-13.0,1.0,9.0,3.0,-1.0,-1.0,0.2735896110534668
112,7.0,-12.0,-3.0,0.0,-9689.0,-11821.0,4936.0,-3239.0,0.0,5.0,-2.0,-1.0,-11.0,6.0,2.0,2.0,0.27643752098083496
113,7.0,-12.0,-3.0,0.0,-9689.0,-11821.0,4936.0,-3239.0,3.0,-3.0,11.0,-1.0,-4.0,3.0,0.0,3.0,0.2788279056549072
114,-18.0,-22.0,2.0,0.0,-9686.0,-11823.0,4940.0,-3234.0,3.0,-3.0,11.0,-1.0,-4.0,3.0,0.0,3.0,0.2811307907104492
115,-18.0,-22.0,2.0,0.0,-9686.0,-11823.0,4940.0,-3234.0,-1.0,8.0,14.0,1.0,-6.0,-8.0,-12.0,-5.0,0.28354406356811523
116,-18.0,-22.0,2.0,0.0,-9686.0,-11823.0,4940.0,-3234.0,0.0,-1.0,-15.0,-1.0,5.0,0.0,2.0,-1.0,0.28586268424987793
117,-7.0,-22.0,4.0,0.0,-9681.0,-11825.0,4946.0,-3232.0,0.0,-1.0,-15.0,-1.0,5.0,0.0,2.0,-1.0,0.28829312324523926
118,-7.0,-22.0,4.0,0.0,-9681.0,-11825.0,4946.0,-3232.0,0.0,-3.0,-10.0,-1.0,-3.0,3.0,6.0,1.0,0.2907228469848633
119,-7.0,-22.0,4.0,0.0,-9681.0,-11825.0,4946.0,-3232.0,-6.0,-6.0,27.0,6.0,11.0,1.0,-4.0,-3.0,0.2930171489715576
120,2.0,-16.0,4.0,0.0,-9680.0,-11825.0,4946.0,-3232.0,-6.0,-6.0,27.0,6.0,11.0,1.0,-4.0,-3.0,0.2953329086303711
121,2.0,-16.0,4.0,0.0,-9680.0,-11825.0,4946.0,-3232.0,-3.0,-9.0,-6.0,-7.0,-29.0,-9.0,6.0,-2.0,0.29772377014160156
122,2.0,-16.0,4.0,0.0,-9680.0,-11825.0,4946.0,-3232.0,3.0,22.0,21.0,1.0,19.0,4.0,3.0,0.0,0.3000493049621582
123,23.0,-16.0,6.0,0.0,-9673.0,-11830.0,4950.0,-3231.0,3.0,22.0,21.0,1.0,19.0,4.0,3.0,0.0,0.3023495674133301
124,23.0,-16.0,6.0,0.0,-9673.0,-11830.0,4950.0,-3231.0,1.0,-3.0,-8.0,1.0,6.0,1.0,-1.0,2.0,0.30518364906311035
125,23.0,-16.0,6.0,0.0,-9673.0,-11830.0,4950.0,-3231.0,-4.0,-11.0,-11.0,-1.0,-10.0,0.0,0.0,-1.0,0.30815601348876953
126,19.0,-14.0,14.0,0.0,-9667.0,-11833.0,4953.0,-3232.0,-4.0,-11.0,-11.0,-1.0,-10.0,0.0,0.0,-1.0,0.310715913772583
127,19.0,-14.0,14.0,0.0,-9667.0,-11833.0,4953.0,-3232.0,6.0,2.0,-17.0,-3.0,9.0,2.0,-2.0,2.0,0.3131694793701172
128,19.0,-14.0,14.0,0.0,-9667.0,-11833.0,4953.0,-3232.0,-3.0,-1.0,10.0,1.0,5.0,-5.0,-4.0,-3.0,0.3155336380004883
129,14.0,-16.0,9.0,0.0,-9666.0,-11834.0,4954.0,-3232.0,-3.0,-1.0,10.0,1.0,5.0,-5.0,-4.0,-3.0,0.31783437728881836
130,14.0,-16.0,9.0,0.0,-9666.0,-11834.0,4954.0,-3232.0,-6.0,-6.0,6.0,3.0,3.0,0.0,1.0,-2.0,0.3202340602874756
131,14.0,-16.0,9.0,0.0,-9666.0,-11834.0,4954.0,-3232.0,1.0,0.0,-3.0,1.0,-6.0,-1.0,-1.0,-1.0,0.32259202003479004
132,-2.0,-16.0,13.0,0.0,-9665.0,-11835.0,4954.0,-3232.0,1.0,0.0,-3.0,1.0,-6.0,-1.0,-1.0,-1.0,0.3248884677886963
133,-2.0,-16.0,13.0,0.0,-9665.0,-11835.0,4954.0,-3232.0,0.0,0.0,1.0,0.0,8.0,4.0,1.0,-1.0,0.32730603218078613
134,-2.0,-16.0,13.0,0.0,-9665.0,-11835.0,4954.0,-3232.0,11.0,-2.0,-25.0,-1.0,-11.0,-15.0,-11.0,3.0,0.3296184539794922
135,-22.0,-23.0,19.0,0.0,-9661.0,-11834.0,4963.0,-3231.0,11.0,-2.0,-25.0,-1.0,-11.0,-15.0,-11.0,3.0,0.33199000358581543
136,-22.0,-23.0,19.0,0.0,-9661.0,-11834.0,4963.0,-3231.0,15.0,30.0,-6.0,-6.0,-8.0,0.0,-2.0,2.0,0.33443355560302734
137,-22.0,-23.0,19.0,0.0,-9661.0,-11834.0,4963.0,-3231.0,-7.0,-9.0,-1.0,-1.0,13.0,5.0,7.0,0.0,0.3374297618865967
138,1.0,-16.0,24.0,0.0,-9654.0,-11837.0,4970.0,-3231.0,-7.0,-9.0,-1.0,-1.0,13.0,5.0,7.0,0.0,0.34008240699768066
139,1.0,-16.0,24.0,0.0,-9654.0,-11837.0,4970.0,-3231.0,-3.0,-4.0,0.0,1.0,-7.0,-3.0,1.0,-1.0,0.3424866199493408
140,1.0,-16.0,24.0,0.0,-9654.0,-11837.0,4970.0,-3231.0,-5.0,-8.0,1.0,1.0,0.0,2.0,0.0,-4.0,0.34481024742126465
141,-24.0,-23.0,37.0,0.0,-9650.0,-11835.0,4981.0,-3232.0,-5.0,-8.0,1.0,1.0,0.0,2.0,0.0,-4.0,0.34716343879699707
142,-24.0,-23.0,37.0,0.0,-9650.0,-11835.0,4981.0,-3232.0,-12.0,-16.0,-1.0,1.0,-3.0,7.0,1.0,-4.0,0.3495368957519531
143,-24.0,-23.0,37.0,0.0,-9650.0,-11835.0,4981.0,-3232.0,2.0,22.0,7.0,-3.0,-18.0,-3.0,-3.0,-1.0,0.35187339782714844
144,0.0,-22.0,19.0,0.0,-9645.0,-11836.0,4989.0,-3233.0,2.0,22.0,7.0,-3.0,-18.0,-3.0,-3.0,-1.0,0.3543686866760254
145,0.0,-22.0,19.0,0.0,-9645.0,-11836.0,4989.0,-3233.0,-2.0,-2.0,3.0,0.0,10.0,-1.0,-2.0,-2.0,0.35672760009765625
146,0.0,-22.0,19.0,0.0,-9645.0,-11836.0,4989.0,-3233.0,-1.0,-3.0,-6.0,-1.0,2.0,2.0,2.0,1.0,0.35901951789855957
147,26.0,-16.0,29.0,0.0,-9636.0,-11840.0,4995.0,-3236.0,-1.0,-3.0,-6.0,-1.0,2.0,2.0,2.0,1.0,0.3613297939300537
148,26.0,-16.0,29.0,0.0,-9636.0,-11840.0,4995.0,-3236.0,-1.0,-3.0,4.0,2.0,-1.0,-1.0,-1.0,1.0,0.36370062828063965
149,26.0,-16.0,29.0,0.0,-9636.0,-11840.0,4995.0,-3236.0,-2.0,-1.0,5.0,-1.0,-1.0,-1.0,1.0,-1.0,0.36608076095581055
150,20.0,-26.0,26.0,0.0,-9628.0,-11844.0,5002.0,-3235.0,-2.0,-1.0,5.0,-1.0,-1.0,-1.0,1.0,-1.0,0.3689463138580322
151,20.0,-26.0,26.0,0.0,-9628.0,-11844.0,5002.0,-3235.0,-10.0,-21.0,-2.0,4.0,2.0,1.0,2.0,-5.0,0.37178897857666016
152,20.0,-26.0,26.0,0.0,-9628.0,-11844.0,5002.0,-3235.0,8.0,20.0,21.0,2.0,-15.0,-5.0,-3.0,0.0,0.37409043312072754
153,0.0,-22.0,25.0,0.0,-9624.0,-11846.0,5007.0,-3233.0,8.0,20.0,21.0,2.0,-15.0,-5.0,-3.0,0.0,0.3764510154724121
154,0.0,-22.0,25.0,0.0,-9624.0,-11846.0,5007.0,-3233.0,3.0,1.0,-29.0,-6.0,-10.0,-3.0,-1.0,2.0,0.3790755271911621
155,0.0,-22.0,25.0,0.0,-9624.0,-11846.0,5007.0,-3233.0,-7.0,-16.0,-5.0,2.0,11.0,4.0,2.0,-2.0,0.38140058517456055
156,14.0,-20.0,37.0,0.0,-9616.0,-11849.0,5013.0,-3232.0,-7.0,-16.0,-5.0,2.0,11.0,4.0,2.0,-2.0,0.3837265968322754
157,14.0,-20.0,37.0,0.0,-9616.0,-11849.0,5013.0,-3232.0,1.0,6.0,-7.0,-1.0,-4.0,-3.0,-2.0,-1.0,0.3865087032318115
158,14.0,-20.0,37.0,0.0,-9616.0,-11849.0,5013.0,-3232.0,6.0,19.0,22.0,-4.0,13.0,5.0,2.0,2.0,0.38882923126220703
159,18.0,-25.0,33.0,0.0,-9608.0,-11853.0,5020.0,-3231.0,6.0,19.0,22.0,-4.0,13.0,5.0,2.0,2.0,0.39127039909362793
160,18.0,-25.0,33.0,0.0,-9608.0,-11853.0,5020.0,-3231.0,12.0,8.0,-21.0,-7.0,-10.0,-5.0,2.0,1.0,0.3936958312988281
161,18.0,-25.0,33.0,0.0,-9608.0,-11853.0,5020.0,-3231.0,-6.0,-6.0,-9.0,0.0,0.0,-3.0,-2.0,-2.0,0.3960134983062744
162,4.0,-29.0,26.0,0.0,-9602.0,-11857.0,5025.0,-3227.0,-6.0,-6.0,-9.0,0.0,0.0,-3.0,-2.0,-2.0,0.39875030517578125
163,4.0,-29.0,26.0,0.0,-9602.0,-11857.0,5025.0,-3227.0,0.0,3.0,24.0,5.0,6.0,2.0,-3.0,1.0,0.4018416404724121
164,4.0,-29.0,26.0,0.0,-9602.0,-11857.0,5025.0,-3227.0,-11.0,-21.0,-20.0,1.0,-4.0,-1.0,-2.0,-4.0,0.4042527675628662
165,2.0,-33.0,31.0,0.0,-9597.0,-11859.0,5033.0,-3224.0,-11.0,-21.0,-20.0,1.0,-4.0,-1.0,-2.0,-4.0,0.40662527084350586
166,2.0,-33.0,31.0,0.0,-9597.0,-11859.0,5033.0,-3224.0,5.0,14.0,3.0,-1.0,5.0,0.0,-1.0,1.0,0.40900731086730957
167,2.0,-33.0,31.0,0.0,-9597.0,-11859.0,5033.0,-3224.0,0.0,11.0,20.0,-4.0,-5.0,-12.0,-12.0,-5.0,0.4113137722015381
168,-4.0,-34.0,24.0,0.0,-9593.0,-11860.0,5040.0,-3221.0,0.0,11.0,20.0,-4.0,-5.0,-12.0,-12.0,-5.0,0.41365885734558105
169,-4.0,-34.0,24.0,0.0,-9593.0,-11860.0,5040.0,-3221.0,-1.0,1.0,6.0,-2.0,-11.0,-8.0,-5.0,-3.0,0.4169325828552246
170,-4.0,-34.0,24.0,0.0,-9593.0,-11860.0,5040.0,-3221.0,-2.0,-11.0,-9.0,4.0,15.0,7.0,2.0,0.0,0.4194197654724121
171,-16.0,-26.0,22.0,0.0,-9592.0,-11859.0,5046.0,-3218.0,-2.0,-11.0,-9.0,4.0,15.0,7.0,2.0,0.0,0.42176008224487305
172,-16.0,-26.0,22.0,0.0,-9592.0,-11859.0,5046.0,-3218.0,-2.0,-2.0,0.0,-1.0,-1.0,0.0,2.0,1.0,0.4241452217102051
173,-16.0,-26.0,22.0,0.0,-9592.0,-11859.0,5046.0,-3218.0,-4.0,-13.0,-8.0,2.0,17.0,1.0,0.0,-2.0,0.4264523983001709
174,-16.0,-24.0,25.0,0.0,-9591.0,-11857.0,5053.0,-3217.0,-4.0,-13.0,-8.0,2.0,17.0,1.0,0.0,-2.0,0.42887449264526367
175,-16.0,-24.0,25.0,0.0,-9591.0,-11857.0,5053.0,-3217.0,1.0,7.0,23.0,4.0,1.0,1.0,3.0,1.0,0.4318573474884033
176,-16.0,-24.0,25.0,0.0,-9591.0,-11857.0,5053.0,-3217.0,1.0,-5.0,-9.0,-3.0,-11.0,2.0,1.0,0.0,0.43458080291748047
177,-2.0,-25.0,28.0,0.0,-9588.0,-11857.0,5060.0,-3217.0,1.0,-5.0,-9.0,-3.0,-11.0,2.0,1.0,0.0,0.4369361400604248
178,-2.0,-25.0,28.0,0.0,-9588.0,-11857.0,5060.0,-3217.0,-7.0,-13.0,-3.0,-1.0,4.0,-1.0,0.0,-2.0,0.4393198490142822
179,-2.0,-25.0,28.0,0.0,-9588.0,-11857.0,5060.0,-3217.0,3.0,-1.0,-21.0,-4.0,10.0,7.0,2.0,2.0,0.4416213035583496
180,-6.0,-22.0,26.0,0.0,-9585.0,-11857.0,5065.0,-3215.0,3.0,-1.0,-21.0,-4.0,10.0,7.0,2.0,2.0,0.4439513683319092
181,-6.0,-22.0,26.0,0.0,-9585.0,-11857.0,5065.0,-3215.0,5.0,14.0,6.0,-9.0,-42.0,-7.0,-6.0,0.0,0.44632863998413086
182,-6.0,-22.0,26.0,0.0,-9585.0,-11857.0,5065.0,-3215.0,-6.0,-7.0,3.0,-1.0,-14.0,-1.0,-1.0,-2.0,0.44863057136535645
183,-10.0,-21.0,23.0,0.0,-9582.0,-11858.0,5071.0,-3213.0,-6.0,-7.0,3.0,-1.0,-14.0,-1.0,-1.0,-2.0,0.4510362148284912
184,-10.0,-21.0,23.0,0.0,-9582.0,-11858.0,5071.0,-3213.0,-5.0,-8.0,-5.0,3.0,13.0,3.0,3.0,-2.0,0.45352983474731445
185,-10.0,-21.0,23.0,0.0,-9582.0,-11858.0,5071.0,-3213.0,0.0,0.0,3.0,1.0,-2.0,0.0,-2.0,0.0,0.45583558082580566
186,-36.0,-19.0,20.0,0.0,-9582.0,-11856.0,5077.0,-3209.0,0.0,0.0,3.0,1.0,-2.0,0.0,-2.0,0.0,0.4581308364868164
187,-36.0,-19.0,20.0,0.0,-9582.0,-11856.0,5077.0,-3209.0,-2.0,1.0,19.0,-1.0,2.0,-6.0,-6.0,-2.0,0.4606668949127197
188,-36.0,-19.0,20.0,0.0,-9582.0,-11856.0,5077.0,-3209.0,7.0,-6.0,-32.0,-4.0,0.0,4.0,12.0,4.0,0.46395301818847656
189,-37.0,-22.0,14.0,0.0,-9582.0,-11854.0,5084.0,-3205.0,7.0,-6.0,-32.0,-4.0,0.0,4.0,12.0,4.0,0.4666862487792969
190,-37.0,-22.0,14.0,0.0,-9582.0,-11854.0,5084.0,-3205.0,-5.0,0.0,2.0,0.0,6.0,-5.0,-5.0,-3.0,0.46913814544677734
191,-37.0,-22.0,14.0,0.0,-9582.0,-11854.0,5084.0,-3205.0,-1.0,-2.0,3.0,-1.0,-8.0,-6.0,-1.0,-2.0,0.471454381942749
192,-19.0,-18.0,13.0,0.0,-9581.0,-11852.0,5090.0,-3204.0,-1.0,-2.0,3.0,-1.0,-8.0,-6.0,-1.0,-2.0,0.4737873077392578
193,-19.0,-18.0,13.0,0.0,-9581.0,-11852.0,5090.0,-3204.0,-3.0,-12.0,-10.0,1.0,12.0,4.0,-3.0,-3.0,0.47623419761657715
194,-19.0,-18.0,13.0,0.0,-9581.0,-11852.0,5090.0,-3204.0,10.0,17.0,24.0,5.0,3.0,3.0,1.0,3.0,0.47855544090270996
195,-12.0,-8.0,15.0,0.0,-9581.0,-11852.0,5090.0,-3204.0,10.0,17.0,24.0,5.0,3.0,3.0,1.0,3.0,0.48102641105651855
196,-12.0,-8.0,15.0,0.0,-9581.0,-11852.0,5090.0,-3204.0,0.0,14.0,16.0,-4.0,-23.0,1.0,-3.0,1.0,0.4835317134857178
197,-12.0,-8.0,15.0,0.0,-9581.0,-11852.0,5090.0,-3204.0,-8.0,-9.0,-2.0,-1.0,-4.0,-5.0,-6.0,-2.0,0.48584437370300293
198,-6.0,0.0,22.0,0.0,-9581.0,-11851.0,5093.0,-3205.0,-8.0,-9.0,-2.0,-1.0,-4.0,-5.0,-6.0,-2.0,0.48819494247436523
199,-6.0,0.0,22.0,0.0,-9581.0,-11851.0,5093.0,-3205.0,1.0,-3.0,-10.0,0.0,6.0,4.0,5.0,0.0,0.49067139625549316
200,-6.0,0.0,22.0,0.0,-9581.0,-11851.0,5093.0,-3205.0,-6.0,-13.0,-10.0,-3.0,-3.0,-3.0,-4.0,-4.0,0.4933888912200928
201,-14.0,-1.0,27.0,0.0,-9581.0,-11849.0,5096.0,-3206.0,-6.0,-13.0,-10.0,-3.0,-3.0,-3.0,-4.0,-4.0,0.4964175224304199
202,-14.0,-1.0,27.0,0.0,-9581.0,-11849.0,5096.0,-3206.0,9.0,16.0,9.0,-2.0,2.0,-1.0,-3.0,5.0,0.49926161766052246
203,-14.0,-1.0,27.0,0.0,-9581.0,-11849.0,5096.0,-3206.0,-4.0,1.0,0.0,-5.0,2.0,-5.0,2.0,-2.0,0.5015754699707031
204,-20.0,7.0,22.0,0.0,-9580.0,-11849.0,5099.0,-3206.0,-4.0,1.0,0.0,-5.0,2.0,-5.0,2.0,-2.0,0.5038707256317139
205,-20.0,7.0,22.0,0.0,-9580.0,-11849.0,5099.0,-3206.0,-5.0,-13.0,-11.0,0.0,-2.0,0.0,0.0,-3.0,0.5062685012817383
206,-20.0,7.0,22.0,0.0,-9580.0,-11849.0,5099.0,-3206.0,-1.0,0.0,1.0,3.0,-1.0,1.0,0.0,0.0,0.5085608959197998
207,-33.0,-1.0,21.0,0.0,-9581.0,-11846.0,5104.0,-3205.0,-1.0,0.0,1.0,3.0,-1.0,1.0,0.0,0.0,0.5141537189483643
208,-33.0,-1.0,21.0,0.0,-9581.0,-11846.0,5104.0,-3205.0,-2.0,1.0,14.0,3.0,2.0,3.0,-2.0,-1.0,0.51666259765625
209,-33.0,-1.0,21.0,0.0,-9581.0,-11846.0,5104.0,-3205.0,12.0,16.0,-14.0,-4.0,6.0,4.0,8.0,5.0,0.519129753112793
210,-35.0,3.0,8.0,0.0,-9583.0,-11844.0,5106.0,-3204.0,12.0,16.0,-14.0,-4.0,6.0,4.0,8.0,5.0,0.5285439491271973
211,-35.0,3.0,8.0,0.0,-9583.0,-11844.0,5106.0,-3204.0,-3.0,0.0,-3.0,-3.0,-1.0,-8.0,-4.0,-3.0,0.5370388031005859
212,-35.0,3.0,8.0,0.0,-9583.0,-11844.0,5106.0,-3204.0,-1.0,-7.0,-6.0,-3.0,-6.0,-2.0,-4.0,-1.0,0.5393686294555664
213,-4.0,1.0,6.0,0.0,-9582.0,-11845.0,5107.0,-3203.0,-1.0,-7.0,-6.0,-3.0,-6.0,-2.0,-4.0,-1.0,0.5521674156188965
214,-4.0,1.0,6.0,0.0,-9582.0,-11845.0,5107.0,-3203.0,-3.0,1.0,-1.0,-1.0,7.0,3.0,4.0,0.0,0.5545802116394043
215,-4.0,1.0,6.0,0.0,-9582.0,-11845.0,5107.0,-3203.0,2.0,4.0,-16.0,-3.0,-2.0,0.0,-1.0,1.0,0.5595686435699463
216,1.0,11.0,6.0,0.0,-9582.0,-11845.0,5106.0,-3203.0,2.0,4.0,-16.0,-3.0,-2.0,0.0,-1.0,1.0,0.5757181644439697
217,1.0,11.0,6.0,0.0,-9582.0,-11845.0,5106.0,-3203.0,0.0,-14.0,-25.0,-2.0,1.0,3.0,12.0,1.0,0.5781500339508057
218,1.0,11.0,6.0,0.0,-9582.0,-11845.0,5106.0,-3203.0,-6.0,-4.0,15.0,-1.0,-12.0,-2.0,1.0,-5.0,0.580573320388794
219,-2.0,15.0,15.0,0.0,-9582.0,-11846.0,5106.0,-3202.0,-6.0,-4.0,15.0,-1.0,-12.0,-2.0,1.0,-5.0,0.5888104438781738
220,-2.0,15.0,15.0,0.0,-9582.0,-11846.0,5106.0,-3202.0,-2.0,-2.0,0.0,-3.0,2.0,2.0,0.0,-1.0,0.5964834690093994
221,-2.0,15.0,15.0,0.0,-9582.0,-11846.0,5106.0,-3202.0,4.0,13.0,11.0,-3.0,0.0,-2.0,-4.0,0.0,0.5988543033599854
222,-13.0,9.0,10.0,0.0,-9581.0,-11846.0,5106.0,-3202.0,4.0,13.0,11.0,-3.0,0.0,-2.0,-4.0,0.0,0.6134316921234131
223,-13.0,9.0,10.0,0.0,-9581.0,-11846.0,5106.0,-3202.0,1.0,-1.0,-14.0,1.0,12.0,4.0,0.0,2.0,0.6179196834564209
224,-13.0,9.0,10.0,0.0,-9581.0,-11846.0,5106.0,-3202.0,2.0,0.0,0.0,-3.0,-37.0,-8.0,-9.0,0.0,0.6234114170074463
225,-14.0,8.0,2.0,0.0,-9581.0,-11846.0,5106.0,-3202.0,2.0,0.0,0.0,-3.0,-37.0,-8.0,-9.0,0.0,0.6350247859954834
226,-14.0,8.0,2.0,0.0,-9581.0,-11846.0,5106.0,-3202.0,6.0,14.0,3.0,2.0,17.0,-7.0,-4.0,1.0,0.6391334533691406
227,-7.0,9.0,2.0,0.0,-9581.0,-11847.0,5106.0,-3201.0,6.0,14.0,3.0,2.0,17.0,-7.0,-4.0,1.0,0.6431052684783936
228,-7.0,9.0,2.0,0.0,-9581.0,-11847.0,5106.0,-3201.0,-4.0,-2.0,13.0,4.0,-5.0,3.0,2.0,-2.0,0.6471095085144043
229,-7.0,9.0,2.0,0.0,-9581.0,-11847.0,5106.0,-3201.0,-2.0,-13.0,6.0,-4.0,-4.0,-1.0,-3.0,-3.0,0.6568124294281006
230,-12.0,4.0,0.0,0.0,-9580.0,-11847.0,5106.0,-3201.0,-2.0,-13.0,6.0,-4.0,-4.0,-1.0,-3.0,-3.0,0.6591606140136719
231,-12.0,4.0,0.0,0.0,-9580.0,-11847.0,5106.0,-3201.0,-3.0,-6.0,-2.0,-2.0,11.0,3.0,8.0,1.0,0.6636319160461426
232,-12.0,4.0,0.0,0.0,-9580.0,-11847.0,5106.0,-3201.0,-4.0,8.0,8.0,-3.0,-25.0,-7.0,-5.0,-3.0,0.6714315414428711
233,-12.0,-2.0,-2.0,0.0,-9580.0,-11848.0,5106.0,-3200.0,-4.0,8.0,8.0,-3.0,-25.0,-7.0,-5.0,-3.0,0.6737103462219238
234,-12.0,-2.0,-2.0,0.0,-9580.0,-11848.0,5106.0,-3200.0,-3.0,1.0,8.0,3.0,4.0,2.0,-3.0,-2.0,0.6782820224761963
235,-12.0,-2.0,-2.0,0.0,-9580.0,-11848.0,5106.0,-3200.0,2.0,1.0,-1.0,4.0,36.0,-1.0,-2.0,0.0,0.6939446926116943
236,-22.0,6.0,-1.0,0.0,-9581.0,-11848.0,5106.0,-3197.0,2.0,1.0,-1.0,4.0,36.0,-1.0,-2.0,0.0,0.6962897777557373
237,-22.0,6.0,-1.0,0.0,-9581.0,-11848.0,5106.0,-3197.0,-5.0,-7.0,-6.0,2.0,16.0,-1.0,-1.0,-1.0,0.7004983425140381
238,-22.0,6.0,-1.0,0.0,-9581.0,-11848.0,5106.0,-3197.0,-4.0,-5.0,2.0,-2.0,-16.0,0.0,-7.0,-5.0,0.7180087566375732
239,-10.0,3.0,0.0,0.0,-9581.0,-11848.0,5106.0,-3197.0,-4.0,-5.0,2.0,-2.0,-16.0,0.0,-7.0,-5.0,0.7222414016723633
240,-10.0,3.0,0.0,0.0,-9581.0,-11848.0,5106.0,-3197.0,-6.0,-12.0,-19.0,-1.0,11.0,-3.0,-4.0,-3.0,0.7264087200164795
241,-10.0,3.0,0.0,0.0,-9581.0,-11848.0,5106.0,-3197.0,-6.0,-15.0,18.0,2.0,-8.0,-1.0,1.0,-2.0,0.7316937446594238
242,2.0,0.0,-3.0,0.0,-9580.0,-11849.0,5105.0,-3196.0,-6.0,-15.0,18.0,2.0,-8.0,-1.0,1.0,-2.0,0.7339663505554199
243,2.0,0.0,-3.0,0.0,-9580.0,-11849.0,5105.0,-3196.0,1.0,5.0,2.0,0.0,-10.0,-2.0,-1.0,-1.0,0.7386040687561035
244,2.0,0.0,-3.0,0.0,-9580.0,-11849.0,5105.0,-3196.0,-7.0,-7.0,-2.0,1.0,-33.0,-13.0,-1.0,-5.0,0.7539403438568115
245,2.0,-4.0,-5.0,0.0,-9579.0,-11850.0,5105.0,-3195.0,-7.0,-7.0,-2.0,1.0,-33.0,-13.0,-1.0,-5.0,0.7578449249267578
246,2.0,-4.0,-5.0,0.0,-9579.0,-11850.0,5105.0,-3195.0,-2.0,-1.0,8.0,0.0,4.0,-1.0,-1.0,-1.0,0.7619419097900391
247,2.0,-4.0,-5.0,0.0,-9579.0,-11850.0,5105.0,-3195.0,-2.0,-4.0,-10.0,-2.0,1.0,2.0,4.0,3.0,0.7778952121734619
248,-8.0,-3.0,-3.0,0.0,-9579.0,-11850.0,5105.0,-3195.0,-2.0,-4.0,-10.0,-2.0,1.0,2.0,4.0,3.0,0.782782793045044
249,-8.0,-3.0,-3.0,0.0,-9579.0,-11850.0,5105.0,-3195.0,0.0,1.0,9.0,-1.0,-10.0,-2.0,16.0,-1.0,0.787041425704956
250,-8.0,-3.0,-3.0,0.0,-9579.0,-11850.0,5105.0,-3195.0,3.0,-4.0,-24.0,-3.0,6.0,2.0,-2.0,2.0,0.7917795181274414
251,-10.0,0.0,-1.0,0.0,-9579.0,-11851.0,5105.0,-3194.0,3.0,-4.0,-24.0,-3.0,6.0,2.0,-2.0,2.0,0.7940895557403564
252,-10.0,0.0,-1.0,0.0,-9579.0,-11851.0,5105.0,-3194.0,-4.0,-1.0,4.0,-1.0,11.0,-1.0,-4.0,-1.0,0.7983393669128418
253,-10.0,0.0,-1.0,0.0,-9579.0,-11851.0,5105.0,-3194.0,2.0,8.0,7.0,2.0,8.0,5.0,2.0,1.0,0.8151535987854004
254,0.0,5.0,3.0,0.0,-9579.0,-11851.0,5105.0,-3194.0,2.0,8.0,7.0,2.0,8.0,5.0,2.0,1.0,0.8198878765106201
255,0.0,5.0,3.0,0.0,-9579.0,-11851.0,5105.0,-3194.0,-1.0,-15.0,-14.0,-3.0,-33.0,0.0,-5.0,-2.0,0.8248515129089355
256,0.0,5.0,3.0,0.0,-9579.0,-11851.0,5105.0,-3194.0,-2.0,-6.0,1.0,-1.0,-6.0,-5.0,-7.0,-2.0,0.8365497589111328
257,13.0,1.0,2.0,0.0,-9579.0,-11851.0,5105.0,-3193.0,-2.0,-6.0,1.0,-1.0,-6.0,-5.0,-7.0,-2.0,0.8388431072235107
258,13.0,1.0,2.0,0.0,-9579.0,-11851.0,5105.0,-3193.0,2.0,11.0,14.0,5.0,4.0,-3.0,2.0,0.0,0.8439347743988037
259,13.0,1.0,2.0,0.0,-9579.0,-11851.0,5105.0,-3193.0,2.0,0.0,-3.0,2.0,8.0,3.0,-3.0,0.0,0.8512754440307617
260,12.0,3.0,3.0,0.0,-9579.0,-11851.0,5104.0,-3193.0,2.0,0.0,-3.0,2.0,8.0,3.0,-3.0,0.0,0.8535704612731934
261,12.0,3.0,3.0,0.0,-9579.0,-11851.0,5104.0,-3193.0,3.0,-12.0,-19.0,-5.0,3.0,-11.0,2.0,-1.0,0.8584766387939453
262,12.0,3.0,3.0,0.0,-9579.0,-11851.0,5104.0,-3193.0,-1.0,6.0,7.0,2.0,7.0,0.0,-2.0,-3.0,0.8739509582519531
263,4.0,4.0,4.0,0.0,-9578.0,-11852.0,5104.0,-3192.0,-1.0,6.0,7.0,2.0,7.0,0.0,-2.0,-3.0,0.8767013549804688
264,4.0,4.0,4.0,0.0,-9578.0,-11852.0,5104.0,-3192.0,-2.0,-2.0,11.0,1.0,5.0,3.0,-9.0,-1.0,0.8806076049804688
265,4.0,4.0,4.0,0.0,-9578.0,-11852.0,5104.0,-3192.0,3.0,8.0,-2.0,-1.0,-11.0,2.0,4.0,2.0,0.8962633609771729
266,0.0,-5.0,-3.0,0.0,-9578.0,-11852.0,5104.0,-3192.0,3.0,8.0,-2.0,-1.0,-11.0,2.0,4.0,2.0,0.898571252822876
267,0.0,-5.0,-3.0,0.0,-9578.0,-11852.0,5104.0,-3192.0,-7.0,-1.0,20.0,-1.0,0.0,-8.0,-13.0,-6.0,0.9034192562103271
268,0.0,-5.0,-3.0,0.0,-9578.0,-11852.0,5104.0,-3192.0,-5.0,-6.0,-6.0,0.0,9.0,5.0,0.0,-3.0,0.9116165637969971
269,-13.0,2.0,-1.0,0.0,-9578.0,-11853.0,5104.0,-3191.0,-5.0,-6.0,-6.0,0.0,9.0,5.0,0.0,-3.0,0.9139149188995361
270,-13.0,2.0,-1.0,0.0,-9578.0,-11853.0,5104.0,-3191.0,-7.0,-5.0,9.0,3.0,11.0,3.0,3.0,-1.0,0.9185187816619873
271,-13.0,2.0,-1.0,0.0,-9578.0,-11853.0,5104.0,-3191.0,-5.0,-14.0,-19.0,-5.0,-5.0,-5.0,-5.0,-1.0,0.9338760375976562
272,-2.0,-8.0,0.0,0.0,-9577.0,-11854.0,5104.0,-3190.0,-5.0,-14.0,-19.0,-5.0,-5.0,-5.0,-5.0,-1.0,0.9365265369415283
273,-2.0,-8.0,0.0,0.0,-9577.0,-11854.0,5104.0,-3190.0,-1.0,-7.0,-18.0,1.0,5.0,1.0,1.0,-2.0,0.9408938884735107
274,-2.0,-8.0,0.0,0.0,-9577.0,-11854.0,5104.0,-3190.0,4.0,12.0,4.0,-2.0,1.0,2.0,7.0,3.0,0.9563355445861816
275,-5.0,-7.0,-7.0,0.0,-9577.0,-11854.0,5103.0,-3190.0,4.0,12.0,4.0,-2.0,1.0,2.0,7.0,3.0,0.9586281776428223
276,-5.0,-7.0,-7.0,0.0,-9577.0,-11854.0,5103.0,-3190.0,-1.0,-1.0,-8.0,0.0,-4.0,2.0,-6.0,-1.0,0.9736716747283936
277,-5.0,-7.0,-7.0,0.0,-9577.0,-11854.0,5103.0,-3190.0,2.0,-4.0,-2.0,-2.0,-3.0,1.0,-2.0,-2.0,0.9777159690856934
278,-6.0,-4.0,-6.0,0.0,-9576.0,-11855.0,5103.0,-3189.0,2.0,-4.0,-2.0,-2.0,-3.0,1.0,-2.0,-2.0,0.9817144870758057
279,-6.0,-4.0,-6.0,0.0,-9576.0,-11855.0,5103.0,-3189.0,1.0,8.0,4.0,-1.0,11.0,5.0,2.0,0.0,0.98470139503479
280,-6.0,-4.0,-6.0,0.0,-9576.0,-11855.0,5103.0,-3189.0,0.0,6.0,13.0,-1.0,8.0,-14.0,-1.0,-1.0,0.9936256408691406
281,10.0,-11.0,-2.0,0.0,-9576.0,-11855.0,5103.0,-3188.0,0.0,6.0,13.0,-1.0,8.0,-14.0,-1.0,-1.0,1.0021297931671143
282,10.0,-11.0,-2.0,0.0,-9576.0,-11855.0,5103.0,-3188.0,1.0,3.0,-4.0,-3.0,-16.0,-1.0,1.0,1.0,1.0045900344848633
283,10.0,-11.0,-2.0,0.0,-9576.0,-11855.0,5103.0,-3188.0,4.0,3.0,6.0,1.0,7.0,8.0,1.0,2.0,1.0163230895996094
284,0.0,-14.0,-11.0,0.0,-9575.0,-11856.0,5103.0,-3188.0,4.0,3.0,6.0,1.0,7.0,8.0,1.0,2.0,1.0186305046081543
285,0.0,-14.0,-11.0,0.0,-9575.0,-11856.0,5103.0,-3188.0,-1.0,-10.0,5.0,-3.0,-7.0,-6.0,-11.0,0.0,1.0237352848052979
286,0.0,-14.0,-11.0,0.0,-9575.0,-11856.0,5103.0,-3188.0,-8.0,-17.0,-11.0,-1.0,-7.0,-2.0,-2.0,-2.0,1.0318267345428467
287,-1.0,-16.0,-2.0,0.0,-9575.0,-11857.0,5103.0,-3187.0,-8.0,-17.0,-11.0,-1.0,-7.0,-2.0,-2.0,-2.0,1.034574270248413
288,-1.0,-16.0,-2.0,0.0,-9575.0,-11857.0,5103.0,-3187.0,2.0,11.0,15.0,-1.0,0.0,5.0,0.0,2.0,1.037661075592041
289,-1.0,-16.0,-2.0,0.0,-9575.0,-11857.0,5103.0,-3187.0,1.0,2.0,-5.0,-1.0,0.0,0.0,2.0,-1.0,1.0539181232452393
290,0.0,-17.0,-3.0,0.0,-9571.0,-11861.0,5105.0,-3182.0,1.0,2.0,-5.0,-1.0,0.0,0.0,2.0,-1.0,1.056236743927002
291,0.0,-17.0,-3.0,0.0,-9571.0,-11861.0,5105.0,-3182.0,-3.0,4.0,6.0,3.0,6.0,-2.0,0.0,-2.0,1.0615229606628418
292,0.0,-17.0,-3.0,0.0,-9571.0,-11861.0,5105.0,-3182.0,0.0,-4.0,-7.0,-1.0,3.0,0.0,-1.0,-1.0,1.0764186382293701
293,-5.0,-15.0,9.0,0.0,-9570.0,-11861.0,5104.0,-3182.0,0.0,-4.0,-7.0,-1.0,3.0,0.0,-1.0,-1.0,1.0787274837493896
294,-5.0,-15.0,9.0,0.0,-9570.0,-11861.0,5104.0,-3182.0,1.0,1.0,-3.0,-2.0,-7.0,-2.0,-3.0,-1.0,1.083874225616455
295,-5.0,-15.0,9.0,0.0,-9570.0,-11861.0,5104.0,-3182.0,-4.0,-10.0,-6.0,-2.0,1.0,2.0,-3.0,-3.0,1.0914788246154785
296,-7.0,-9.0,9.0,0.0,-9569.0,-11862.0,5105.0,-3181.0,-4.0,-10.0,-6.0,-2.0,1.0,2.0,-3.0,-3.0,1.0942754745483398
297,-7.0,-9.0,9.0,0.0,-9569.0,-11862.0,5105.0,-3181.0,-1.0,-3.0,-10.0,-1.0,11.0,-4.0,1.0,-2.0,1.0979986190795898
298,-7.0,-9.0,9.0,0.0,-9569.0,-11862.0,5105.0,-3181.0,-1.0,-10.0,-18.0,-1.0,-1.0,4.0,-3.0,0.0,1.113962173461914
299,-6.0,-4.0,12.0,0.0,-9569.0,-11862.0,5105.0,-3181.0,-1.0,-10.0,-18.0,-1.0,-1.0,4.0,-3.0,0.0,1.1162779331207275
300,-6.0,-4.0,12.0,0.0,-9569.0,-11862.0,5105.0,-3181.0,9.0,12.0,0.0,-2.0,-4.0,5.0,10.0,3.0,1.1206810474395752
301,-6.0,-4.0,12.0,0.0,-9569.0,-11862.0,5105.0,-3181.0,4.0,5.0,-5.0,-3.0,10.0,4.0,-10.0,1.0,1.136451005935669
302,-6.0,-6.0,10.0,0.0,-9568.0,-11863.0,5105.0,-3180.0,4.0,5.0,-5.0,-3.0,10.0,4.0,-10.0,1.0,1.1387841701507568
303,-6.0,-6.0,10.0,0.0,-9568.0,-11863.0,5105.0,-3180.0,-2.0,-6.0,-11.0,-2.0,-5.0,-3.0,-2.0,0.0,1.1435916423797607
304,-6.0,-6.0,10.0,0.0,-9568.0,-11863.0,5105.0,-3180.0,-5.0,-5.0,-4.0,1.0,-8.0,-1.0,4.0,-2.0,1.1512117385864258
305,-1.0,-11.0,4.0,0.0,-9567.0,-11864.0,5105.0,-3180.0,-5.0,-5.0,-4.0,1.0,-8.0,-1.0,4.0,-2.0,1.153759241104126
306,-1.0,-11.0,4.0,0.0,-9567.0,-11864.0,5105.0,-3180.0,2.0,13.0,15.0,3.0,-20.0,-9.0,-12.0,0.0,1.1584324836730957
307,-1.0,-11.0,4.0,0.0,-9567.0,-11864.0,5105.0,-3180.0,-3.0,13.0,12.0,-5.0,-21.0,-12.0,-5.0,-2.0,1.1737148761749268
308,-14.0,-11.0,-3.0,0.0,-9566.0,-11864.0,5106.0,-3180.0,-3.0,13.0,12.0,-5.0,-21.0,-12.0,-5.0,-2.0,1.176055908203125
309,-14.0,-11.0,-3.0,0.0,-9566.0,-11864.0,5106.0,-3180.0,-10.0,-30.0,-35.0,4.0,17.0,5.0,2.0,-4.0,1.1810765266418457
310,-14.0,-11.0,-3.0,0.0,-9566.0,-11864.0,5106.0,-3180.0,6.0,13.0,4.0,-1.0,14.0,4.0,2.0,3.0,1.1962077617645264
311,-6.0,-21.0,-18.0,0.0,-9564.0,-11867.0,5107.0,-3176.0,6.0,13.0,4.0,-1.0,14.0,4.0,2.0,3.0,1.198542833328247
312,-6.0,-21.0,-18.0,0.0,-9564.0,-11867.0,5107.0,-3176.0,4.0,7.0,-7.0,-7.0,-8.0,-4.0,2.0,1.0,1.2032456398010254
313,-6.0,-21.0,-18.0,0.0,-9564.0,-11867.0,5107.0,-3176.0,-5.0,-8.0,5.0,-2.0,-7.0,-5.0,1.0,-5.0,1.211333990097046
314,20.0,-33.0,-32.0,0.0,-9556.0,-11873.0,5109.0,-3171.0,-5.0,-8.0,5.0,-2.0,-7.0,-5.0,1.0,-5.0,1.2136328220367432
315,20.0,-33.0,-32.0,0.0,-9556.0,-11873.0,5109.0,-3171.0,-7.0,-9.0,1.0,-1.0,22.0,-1.0,-5.0,-4.0,1.219212293624878
316,20.0,-33.0,-32.0,0.0,-9556.0,-11873.0,5109.0,-3171.0,1.0,-5.0,-5.0,-2.0,21.0,9.0,-11.0,0.0,1.2337782382965088
317,43.0,-55.0,-56.0,0.0,-9547.0,-11883.0,5109.0,-3162.0,1.0,-5.0,-5.0,-2.0,21.0,9.0,-11.0,0.0,1.2360761165618896
318,43.0,-55.0,-56.0,0.0,-9547.0,-11883.0,5109.0,-3162.0,8.0,10.0,-12.0,-10.0,-10.0,-2.0,2.0,4.0,1.2411742210388184
319,43.0,-55.0,-56.0,0.0,-9547.0,-11883.0,5109.0,-3162.0,-3.0,-5.0,-1.0,-1.0,-26.0,-8.0,2.0,-2.0,1.257814645767212
320,36.0,-110.0,-103.0,0.0,-9538.0,-11896.0,5108.0,-3142.0,-3.0,-5.0,-1.0,-1.0,-26.0,-8.0,2.0,-2.0,1.2618446350097656
321,36.0,-110.0,-103.0,0.0,-9538.0,-11896.0,5108.0,-3142.0,-21.0,-25.0,-1.0,4.0,13.0,1.0,-1.0,-8.0,1.2660071849822998
322,36.0,-110.0,-103.0,0.0,-9538.0,-11896.0,5108.0,-3142.0,-7.0,-14.0,-8.0,13.0,1.0,13.0,11.0,-1.0,1.2717201709747314
323,49.0,-180.0,-166.0,0.0,-9523.0,-11916.0,5108.0,-3110.0,-7.0,-14.0,-8.0,13.0,1.0,13.0,11.0,-1.0,1.2739970684051514
324,49.0,-180.0,-166.0,0.0,-9523.0,-11916.0,5108.0,-3110.0,3.0,20.0,-2.0,2.0,-33.0,-2.0,-2.0,-1.0,1.2784626483917236
325,49.0,-180.0,-166.0,0.0,-9523.0,-11916.0,5108.0,-3110.0,20.0,39.0,11.0,-22.0,5.0,0.0,6.0,8.0,1.2938220500946045
326,105.0,-254.0,-224.0,0.0,-9499.0,-11950.0,5105.0,-3061.0,20.0,39.0,11.0,-22.0,5.0,0.0,6.0,8.0,1.29789400100708
327,105.0,-254.0,-224.0,0.0,-9499.0,-11950.0,5105.0,-3061.0,12.0,23.0,50.0,25.0,-63.0,-10.0,2.0,7.0,1.3023395538330078
328,105.0,-254.0,-224.0,0.0,-9499.0,-11950.0,5105.0,-3061.0,-1.0,-12.0,-30.0,-13.0,-7.0,-5.0,-3.0,-1.0,1.3186736106872559
329,69.0,-299.0,-286.0,0.0,-9478.0,-11985.0,5099.0,-2997.0,-1.0,-12.0,-30.0,-13.0,-7.0,-5.0,-3.0,-1.0,1.322784662246704
330,69.0,-299.0,-286.0,0.0,-9478.0,-11985.0,5099.0,-2997.0,-16.0,-21.0,20.0,-5.0,33.0,-10.0,-9.0,-10.0,1.3268251419067383
331,69.0,-299.0,-286.0,0.0,-9478.0,-11985.0,5099.0,-2997.0,-15.0,-21.0,12.0,9.0,-25.0,-9.0,-6.0,-7.0,1.3305232524871826
332,93.0,-302.0,-311.0,0.0,-9452.0,-12026.0,5089.0,-2929.0,-15.0,-21.0,12.0,9.0,-25.0,-9.0,-6.0,-7.0,1.3388278484344482
333,93.0,-302.0,-311.0,0.0,-9452.0,-12026.0,5089.0,-2929.0,-2.0,-16.0,-7.0,0.0,8.0,14.0,6.0,1.0,1.3411970138549805
334,93.0,-302.0,-311.0,0.0,-9452.0,-12026.0,5089.0,-2929.0,20.0,20.0,-46.0,-13.0,24.0,-3.0,-3.0,5.0,1.3543131351470947
335,86.0,-344.0,-286.0,0.0,-9434.0,-12065.0,5077.0,-2849.0,20.0,20.0,-46.0,-13.0,24.0,-3.0,-3.0,5.0,1.3566253185272217
336,86.0,-344.0,-286.0,0.0,-9434.0,-12065.0,5077.0,-2849.0,23.0,25.0,-69.0,-26.0,3.0,3.0,7.0,10.0,1.3609366416931152
337,86.0,-344.0,-286.0,0.0,-9434.0,-12065.0,5077.0,-2849.0,65.0,115.0,-28.0,-16.0,-8.0,3.0,12.0,22.0,1.376424789428711
338,88.0,-399.0,-259.0,0.0,-9413.0,-12105.0,5070.0,-2760.0,65.0,115.0,-28.0,-16.0,-8.0,3.0,12.0,22.0,1.3796226978302002
339,88.0,-399.0,-259.0,0.0,-9413.0,-12105.0,5070.0,-2760.0,-15.0,-23.0,27.0,7.0,3.0,-7.0,-11.0,-6.0,1.3828086853027344
340,88.0,-399.0,-259.0,0.0,-9413.0,-12105.0,5070.0,-2760.0,-18.0,-93.0,-73.0,6.0,-2.0,-2.0,-10.0,-5.0,1.3910536766052246
341,178.0,-451.0,-141.0,0.0,-9373.0,-12153.0,5077.0,-2673.0,-18.0,-93.0,-73.0,6.0,-2.0,-2.0,-10.0,-5.0,1.399219274520874
342,178.0,-451.0,-141.0,0.0,-9373.0,-12153.0,5077.0,-2673.0,7.0,9.0,-21.0,-7.0,17.0,4.0,5.0,3.0,1.4016199111938477
343,178.0,-451.0,-141.0,0.0,-9373.0,-12153.0,5077.0,-2673.0,-23.0,-5.0,72.0,9.0,-2.0,-7.0,-2.0,-12.0,1.414581060409546
344,148.0,-453.0,-21.0,0.0,-9348.0,-12186.0,5088.0,-2586.0,-23.0,-5.0,72.0,9.0,-2.0,-7.0,-2.0,-12.0,1.4169282913208008
345,148.0,-453.0,-21.0,0.0,-9348.0,-12186.0,5088.0,-2586.0,-16.0,-26.0,25.0,5.0,1.0,0.0,-4.0,-10.0,1.421013593673706
346,148.0,-453.0,-21.0,0.0,-9348.0,-12186.0,5088.0,-2586.0,-6.0,0.0,19.0,9.0,-1.0,3.0,2.0,-2.0,1.4371907711029053
347,84.0,-380.0,34.0,0.0,-9345.0,-12203.0,5094.0,-2507.0,-6.0,0.0,19.0,9.0,-1.0,3.0,2.0,-2.0,1.44022536277771
348,84.0,-380.0,34.0,0.0,-9345.0,-12203.0,5094.0,-2507.0,-3.0,-7.0,-18.0,3.0,2.0,1.0,2.0,-1.0,1.4431753158569336
349,84.0,-380.0,34.0,0.0,-9345.0,-12203.0,5094.0,-2507.0,12.0,49.0,46.0,2.0,4.0,1.0,4.0,5.0,1.4508209228515625
350,27.0,-321.0,66.0,0.0,-9363.0,-12204.0,5092.0,-2431.0,12.0,49.0,46.0,2.0,4.0,1.0,4.0,5.0,1.459172010421753
351,27.0,-321.0,66.0,0.0,-9363.0,-12204.0,5092.0,-2431.0,5.0,13.0,15.0,-7.0,-9.0,-1.0,-1.0,1.0,1.4615964889526367
352,27.0,-321.0,66.0,0.0,-9363.0,-12204.0,5092.0,-2431.0,-12.0,-1.0,30.0,7.0,-4.0,-3.0,-2.0,-5.0,1.4742705821990967
353,-47.0,-325.0,-7.0,0.0,-9402.0,-12202.0,5072.0,-2331.0,-12.0,-1.0,30.0,7.0,-4.0,-3.0,-2.0,-5.0,1.4769845008850098
354,-47.0,-325.0,-7.0,0.0,-9402.0,-12202.0,5072.0,-2331.0,3.0,2.0,-15.0,-6.0,6.0,4.0,1.0,1.0,1.480224847793579
355,-47.0,-325.0,-7.0,0.0,-9402.0,-12202.0,5072.0,-2331.0,-19.0,-22.0,13.0,10.0,2.0,-1.0,-1.0,-7.0,1.4961612224578857
356,-405.0,-349.0,-198.0,0.0,-9498.0,-12178.0,5023.0,-2168.0,-19.0,-22.0,13.0,10.0,2.0,-1.0,-1.0,-7.0,1.5041847229003906
357,-405.0,-349.0,-198.0,0.0,-9498.0,-12178.0,5023.0,-2168.0,5.0,2.0,-10.0,-5.0,4.0,0.0,0.0,-2.0,1.5069727897644043
358,-405.0,-349.0,-198.0,0.0,-9498.0,-12178.0,5023.0,-2168.0,-10.0,-8.0,24.0,4.0,1.0,-2.0,-1.0,-5.0,1.520716667175293
359,-799.0,-377.0,-414.0,0.0,-9654.0,-12122.0,4951.0,-1952.0,-10.0,-8.0,24.0,4.0,1.0,-2.0,-1.0,-5.0,1.5249946117401123
360,-799.0,-377.0,-414.0,0.0,-9654.0,-12122.0,4951.0,-1952.0,2.0,16.0,6.0,0.0,2.0,0.0,0.0,2.0,1.5293769836425781
361,-799.0,-377.0,-414.0,0.0,-9654.0,-12122.0,4951.0,-1952.0,-3.0,-18.0,-12.0,-4.0,-4.0,-2.0,-3.0,-5.0,1.5340220928192139
362,-1109.0,-373.0,-685.0,0.0,-9855.0,-12041.0,4846.0,-1690.0,-3.0,-18.0,-12.0,-4.0,-4.0,-2.0,-3.0,-5.0,1.5366287231445312
363,-1109.0,-373.0,-685.0,0.0,-9855.0,-12041.0,4846.0,-1690.0,0.0,-5.0,6.0,0.0,-2.0,1.0,2.0,1.0,1.5404326915740967
364,-1109.0,-373.0,-685.0,0.0,-9855.0,-12041.0,4846.0,-1690.0,-14.0,-32.0,-18.0,-4.0,-1.0,0.0,-5.0,-7.0,1.5576303005218506
365,-1182.0,-345.0,-952.0,0.0,-10063.0,-11961.0,4707.0,-1406.0,-14.0,-32.0,-18.0,-4.0,-1.0,0.0,-5.0,-7.0,1.5616724491119385
366,-1182.0,-345.0,-952.0,0.0,-10063.0,-11961.0,4707.0,-1406.0,20.0,23.0,2.0,-1.0,1.0,1.0,3.0,9.0,1.5662386417388916
367,-1182.0,-345.0,-952.0,0.0,-10063.0,-11961.0,4707.0,-1406.0,-9.0,-15.0,-9.0,-1.0,-2.0,-1.0,-3.0,-2.0,1.5712733268737793
368,-1135.0,-328.0,-1376.0,0.0,-10259.0,-11906.0,4505.0,-1074.0,-9.0,-15.0,-9.0,-1.0,-2.0,-1.0,-3.0,-2.0,1.5792500972747803
369,-1135.0,-328.0,-1376.0,0.0,-10259.0,-11906.0,4505.0,-1074.0,-5.0,-4.0,-2.0,-1.0,1.0,0.0,-1.0,-1.0,1.5816359519958496
370,-1135.0,-328.0,-1376.0,0.0,-10259.0,-11906.0,4505.0,-1074.0,-10.0,-6.0,-7.0,-1.0,-3.0,-2.0,-1.0,-5.0,1.5937232971191406
371,-971.0,-375.0,-1678.0,0.0,-10391.0,-11881.0,4325.0,-774.0,-10.0,-6.0,-7.0,-1.0,-3.0,-2.0,-1.0,-5.0,1.5960915088653564
372,-971.0,-375.0,-1678.0,0.0,-10391.0,-11881.0,4325.0,-774.0,-10.0,-6.0,-7.0,-1.0,-3.0,-2.0,-1.0,-5.0,1.6018660068511963
373,-971.0,-375.0,-1678.0,0.0,-10391.0,-11881.0,4325.0,-774.0,-1.0,-2.0,5.0,2.0,1.0,-1.0,3.0,-2.0,1.617832899093628
374,-971.0,-375.0,-1678.0,0.0,-10391.0,-11881.0,4325.0,-774.0,6.0,5.0,5.0,1.0,0.0,1.0,-1.0,5.0,1.6218791007995605
375,-1056.0,-292.0,-2008.0,0.0,-10531.0,-11857.0,4096.0,-447.0,6.0,5.0,5.0,1.0,0.0,1.0,-1.0,5.0,1.6259779930114746
376,-1056.0,-292.0,-2008.0,0.0,-10531.0,-11857.0,4096.0,-447.0,-6.0,-8.0,-4.0,1.0,2.0,0.0,-2.0,-6.0,1.6292457580566406
377,-1056.0,-292.0,-2008.0,0.0,-10531.0,-11857.0,4096.0,-447.0,3.0,5.0,-3.0,-6.0,-5.0,-1.0,2.0,1.0,1.631878137588501
378,-1231.0,-170.0,-2208.0,0.0,-10688.0,-11813.0,3828.0,-108.0,3.0,5.0,-3.0,-6.0,-5.0,-1.0,2.0,1.0,1.6388194561004639
379,-1231.0,-170.0,-2208.0,0.0,-10688.0,-11813.0,3828.0,-108.0,-3.0,-10.0,-1.0,-3.0,-6.0,-2.0,-5.0,-3.0,1.6412227153778076
380,-1231.0,-170.0,-2208.0,0.0,-10688.0,-11813.0,3828.0,-108.0,-1.0,-3.0,-4.0,-2.0,1.0,0.0,1.0,-3.0,1.6547200679779053
381,-1429.0,-62.0,-2363.0,0.0,-10863.0,-11745.0,3529.0,238.0,-1.0,-3.0,-4.0,-2.0,1.0,0.0,1.0,-3.0,1.6570470333099365
382,-1429.0,-62.0,-2363.0,0.0,-10863.0,-11745.0,3529.0,238.0,-2.0,-1.0,-1.0,-6.0,21.0,3.0,1.0,-1.0,1.6603639125823975
383,-1429.0,-62.0,-2363.0,0.0,-10863.0,-11745.0,3529.0,238.0,2.0,2.0,-3.0,-5.0,7.0,3.0,-1.0,-3.0,1.6766364574432373
384,-1632.0,63.0,-2505.0,0.0,-11054.0,-11649.0,3197.0,588.0,2.0,2.0,-3.0,-5.0,7.0,3.0,-1.0,-3.0,1.6789445877075195
385,-1632.0,63.0,-2505.0,0.0,-11054.0,-11649.0,3197.0,588.0,-2.0,-2.0,-6.0,0.0,-1.0,-3.0,5.0,-2.0,1.6834802627563477
386,-1632.0,63.0,-2505.0,0.0,-11054.0,-11649.0,3197.0,588.0,-6.0,-10.0,-8.0,-16.0,6.0,6.0,-6.0,0.0,1.6907942295074463
387,-1618.0,160.0,-2520.0,0.0,-11234.0,-11544.0,2852.0,922.0,-6.0,-10.0,-8.0,-16.0,6.0,6.0,-6.0,0.0,1.7074806690216064
388,-1618.0,160.0,-2520.0,0.0,-11234.0,-11544.0,2852.0,922.0,-1.0,-2.0,-2.0,10.0,6.0,3.0,-5.0,-4.0,1.7119379043579102
389,-1618.0,160.0,-2520.0,0.0,-11234.0,-11544.0,2852.0,922.0,2.0,3.0,0.0,2.0,-12.0,-9.0,-14.0,-3.0,1.7165992259979248
390,-1421.0,275.0,-2457.0,0.0,-11383.0,-11451.0,2501.0,1225.0,2.0,3.0,0.0,2.0,-12.0,-9.0,-14.0,-3.0,1.7203927040100098
391,-1421.0,275.0,-2457.0,0.0,-11383.0,-11451.0,2501.0,1225.0,0.0,1.0,0.0,-2.0,5.0,1.0,10.0,4.0,1.723348617553711
392,-1421.0,275.0,-2457.0,0.0,-11383.0,-11451.0,2501.0,1225.0,5.0,3.0,4.0,7.0,-6.0,9.0,33.0,13.0,1.7366957664489746
393,-1128.0,478.0,-2343.0,0.0,-11495.0,-11382.0,2142.0,1478.0,5.0,3.0,4.0,7.0,-6.0,9.0,33.0,13.0,1.7389984130859375
394,-1128.0,478.0,-2343.0,0.0,-11495.0,-11382.0,2142.0,1478.0,-4.0,-3.0,0.0,0.0,-5.0,4.0,10.0,7.0,1.7435362339019775
395,-1128.0,478.0,-2343.0,0.0,-11495.0,-11382.0,2142.0,1478.0,1.0,0.0,-2.0,0.0,-6.0,-3.0,3.0,-6.0,1.7600131034851074
396,-910.0,755.0,-2136.0,0.0,-11582.0,-11331.0,1774.0,1666.0,1.0,0.0,-2.0,0.0,-6.0,-3.0,3.0,-6.0,1.7623443603515625
397,-910.0,755.0,-2136.0,0.0,-11582.0,-11331.0,1774.0,1666.0,-1.0,-1.0,3.0,-2.0,-4.0,-7.0,-30.0,-9.0,1.7647080421447754
398,-910.0,755.0,-2136.0,0.0,-11582.0,-11331.0,1774.0,1666.0,2.0,3.0,1.0,3.0,-31.0,-15.0,-22.0,-9.0,1.7734971046447754
399,-832.0,1063.0,-1841.0,0.0,-11665.0,-11281.0,1402.0,1777.0,2.0,3.0,1.0,3.0,-31.0,-15.0,-22.0,-9.0,1.7813913822174072
400,-832.0,1063.0,-1841.0,0.0,-11665.0,-11281.0,1402.0,1777.0,1.0,-1.0,4.0,0.0,-14.0,1.0,11.0,2.0,1.7838163375854492
401,-832.0,1063.0,-1841.0,0.0,-11665.0,-11281.0,1402.0,1777.0,1.0,0.0,2.0,3.0,34.0,18.0,-86.0,9.0,1.8049886226654053
402,-1064.0,1355.0,-1278.0,0.0,-11804.0,-11174.0,1086.0,1757.0,1.0,0.0,2.0,3.0,34.0,18.0,-86.0,9.0,1.8087942600250244
403,-1064.0,1355.0,-1278.0,0.0,-11804.0,-11174.0,1086.0,1757.0,-3.0,2.0,3.0,-5.0,-62.0,-27.0,-19.0,-9.0,1.8138706684112549
404,-1064.0,1355.0,-1278.0,0.0,-11804.0,-11174.0,1086.0,1757.0,-1.0,-1.0,0.0,-1.0,-1.0,-1.0,39.0,5.0,1.820117473602295
405,-628.0,1353.0,-427.0,0.0,-11867.0,-11145.0,864.0,1637.0,-1.0,-1.0,0.0,-1.0,-1.0,-1.0,39.0,5.0,1.8225288391113281
406,-628.0,1353.0,-427.0,0.0,-11867.0,-11145.0,864.0,1637.0,-1.0,-3.0,-4.0,6.0,8.0,-9.0,-13.0,0.0,1.8249006271362305
407,-628.0,1353.0,-427.0,0.0,-11867.0,-11145.0,864.0,1637.0,-2.0,1.0,4.0,10.0,15.0,1.0,-47.0,-9.0,1.833747386932373
408,-569.0,1296.0,833.0,0.0,-11924.0,-11125.0,805.0,1359.0,-2.0,1.0,4.0,10.0,15.0,1.0,-47.0,-9.0,1.8360671997070312
409,-569.0,1296.0,833.0,0.0,-11924.0,-11125.0,805.0,1359.0,-4.0,-2.0,-6.0,-6.0,-37.0,-10.0,1.0,-6.0,1.840399980545044
410,-569.0,1296.0,833.0,0.0,-11924.0,-11125.0,805.0,1359.0,-1.0,0.0,-5.0,-3.0,-30.0,2.0,38.0,5.0,1.8584396839141846
411,164.0,1708.0,1290.0,0.0,-11928.0,-11166.0,755.0,969.0,-1.0,0.0,-5.0,-3.0,-30.0,2.0,38.0,5.0,1.8630356788635254
412,164.0,1708.0,1290.0,0.0,-11928.0,-11166.0,755.0,969.0,5.0,-1.0,-5.0,-9.0,-6.0,42.0,47.0,4.0,1.8674168586730957
413,164.0,1708.0,1290.0,0.0,-11928.0,-11166.0,755.0,969.0,-2.0,-3.0,1.0,-1.0,9.0,-25.0,37.0,20.0,1.881608486175537
414,-528.0,2063.0,1442.0,0.0,-12014.0,-11109.0,669.0,523.0,-2.0,-3.0,1.0,-1.0,9.0,-25.0,37.0,20.0,1.8870165348052979
415,-528.0,2063.0,1442.0,0.0,-12014.0,-11109.0,669.0,523.0,5.0,4.0,5.0,-1.0,-30.0,14.0,-11.0,-9.0,1.891596794128418
416,-528.0,2063.0,1442.0,0.0,-12014.0,-11109.0,669.0,523.0,-9.0,-5.0,-2.0,-10.0,47.0,-32.0,2.0,-28.0,1.8939619064331055
417,-371.0,2026.0,1781.0,0.0,-12074.0,-11058.0,632.0,33.0,-9.0,-5.0,-2.0,-10.0,47.0,-32.0,2.0,-28.0,1.8962645530700684
418,-371.0,2026.0,1781.0,0.0,-12074.0,-11058.0,632.0,33.0,-4.0,-3.0,-6.0,-24.0,-66.0,-36.0,-47.0,0.0,1.900853157043457
419,-371.0,2026.0,1781.0,0.0,-12074.0,-11058.0,632.0,33.0,-8.0,-5.0,-8.0,-49.0,30.0,-67.0,-16.0,-18.0,1.9183807373046875
420,-36.0,1697.0,2269.0,0.0,-12081.0,-11036.0,693.0,-480.0,-8.0,-5.0,-8.0,-49.0,30.0,-67.0,-16.0,-18.0,1.9227447509765625
421,-36.0,1697.0,2269.0,0.0,-12081.0,-11036.0,693.0,-480.0,-4.0,-4.0,0.0,8.0,72.0,-21.0,-55.0,-14.0,1.926971435546875
422,-36.0,1697.0,2269.0,0.0,-12081.0,-11036.0,693.0,-480.0,6.0,-5.0,-15.0,-21.0,30.0,34.0,27.0,21.0,1.9409642219543457
423,67.0,1385.0,2291.0,0.0,-12064.0,-11016.0,800.0,-962.0,6.0,-5.0,-15.0,-21.0,30.0,34.0,27.0,21.0,1.946324110031128
424,67.0,1385.0,2291.0,0.0,-12064.0,-11016.0,800.0,-962.0,1.0,-2.0,-8.0,-57.0,-67.0,-21.0,-4.0,18.0,1.951554775238037
425,67.0,1385.0,2291.0,0.0,-12064.0,-11016.0,800.0,-962.0,1.0,2.0,13.0,60.0,81.0,-40.0,-93.0,-14.0,1.954000473022461
426,229.0,1161.0,2172.0,0.0,-12016.0,-11012.0,920.0,-1402.0,1.0,2.0,13.0,60.0,81.0,-40.0,-93.0,-14.0,1.9563055038452148
427,229.0,1161.0,2172.0,0.0,-12016.0,-11012.0,920.0,-1402.0,0.0,-4.0,-12.0,-26.0,-57.0,-59.0,8.0,3.0,1.960904836654663
428,229.0,1161.0,2172.0,0.0,-12016.0,-11012.0,920.0,-1402.0,8.0,6.0,2.0,-13.0,36.0,100.0,101.0,18.0,1.979003667831421
429,262.0,911.0,2021.0,0.0,-11952.0,-11014.0,1052.0,-1788.0,8.0,6.0,2.0,-13.0,36.0,100.0,101.0,18.0,1.9857141971588135
430,262.0,911.0,2021.0,0.0,-11952.0,-11014.0,1052.0,-1788.0,-6.0,-5.0,-1.0,74.0,127.0,74.0,-12.0,4.0,1.9891245365142822
431,262.0,911.0,2021.0,0.0,-11952.0,-11014.0,1052.0,-1788.0,-9.0,-5.0,-6.0,-14.0,-95.0,-36.0,21.0,-21.0,2.000920057296753
432,619.0,792.0,1702.0,0.0,-11844.0,-11061.0,1153.0,-2122.0,-9.0,-5.0,-6.0,-14.0,-95.0,-36.0,21.0,-21.0,2.0049402713775635
433,619.0,792.0,1702.0,0.0,-11844.0,-11061.0,1153.0,-2122.0,10.0,8.0,13.0,-11.0,-72.0,-12.0,81.0,13.0,2.0095505714416504
434,619.0,792.0,1702.0,0.0,-11844.0,-11061.0,1153.0,-2122.0,-8.0,-22.0,-20.0,55.0,23.0,-13.0,-44.0,-4.0,2.0137712955474854
435,574.0,778.0,1436.0,0.0,-11730.0,-11109.0,1241.0,-2431.0,-8.0,-22.0,-20.0,55.0,23.0,-13.0,-44.0,-4.0,2.016113519668579
436,574.0,778.0,1436.0,0.0,-11730.0,-11109.0,1241.0,-2431.0,-22.0,-8.0,-19.0,14.0,127.0,15.0,16.0,-7.0,2.02099609375
437,574.0,778.0,1436.0,0.0,-11730.0,-11109.0,1241.0,-2431.0,8.0,21.0,-6.0,30.0,54.0,-8.0,-3.0,3.0,2.038377285003662
438,199.0,1076.0,1023.0,0.0,-11685.0,-11092.0,1242.0,-2711.0,8.0,21.0,-6.0,30.0,54.0,-8.0,-3.0,3.0,2.04477596282959
439,199.0,1076.0,1023.0,0.0,-11685.0,-11092.0,1242.0,-2711.0,-55.0,-96.0,-81.0,1.0,46.0,21.0,48.0,-11.0,2.048835515975952
440,199.0,1076.0,1023.0,0.0,-11685.0,-11092.0,1242.0,-2711.0,0.0,34.0,-111.0,-93.0,-100.0,-29.0,-20.0,3.0,2.0607388019561768
441,823.0,962.0,1001.0,0.0,-11553.0,-11164.0,1228.0,-2973.0,0.0,34.0,-111.0,-93.0,-100.0,-29.0,-20.0,3.0,2.0650441646575928
442,823.0,962.0,1001.0,0.0,-11553.0,-11164.0,1228.0,-2973.0,36.0,-53.0,-19.0,36.0,39.0,27.0,-46.0,26.0,2.069603204727173
443,823.0,962.0,1001.0,0.0,-11553.0,-11164.0,1228.0,-2973.0,24.0,-5.0,-49.0,-8.0,-68.0,36.0,53.0,36.0,2.0744330883026123
444,1400.0,214.0,833.0,0.0,-11333.0,-11342.0,1270.0,-3127.0,24.0,-5.0,-49.0,-8.0,-68.0,36.0,53.0,36.0,2.0771329402923584
445,1400.0,214.0,833.0,0.0,-11333.0,-11342.0,1270.0,-3127.0,25.0,41.0,99.0,-40.0,-128.0,-64.0,50.0,4.0,2.0800769329071045
446,1400.0,214.0,833.0,0.0,-11333.0,-11342.0,1270.0,-3127.0,11.0,66.0,71.0,-26.0,7.0,-22.0,-1.0,-29.0,2.0986011028289795
447,1849.0,-379.0,-276.0,0.0,-11108.0,-11582.0,1221.0,-3073.0,11.0,66.0,71.0,-26.0,7.0,-22.0,-1.0,-29.0,2.1041343212127686
448,1849.0,-379.0,-276.0,0.0,-11108.0,-11582.0,1221.0,-3073.0,0.0,30.0,21.0,71.0,102.0,22.0,33.0,31.0,2.1088497638702393
449,1849.0,-379.0,-276.0,0.0,-11108.0,-11582.0,1221.0,-3073.0,-38.0,-58.0,66.0,85.0,-4.0,71.0,-17.0,-32.0,2.1207921504974365
450,922.0,-285.0,-744.0,0.0,-10988.0,-11730.0,1149.0,-2971.0,-38.0,-58.0,66.0,85.0,-4.0,71.0,-17.0,-32.0,2.12485408782959
451,922.0,-285.0,-744.0,0.0,-10988.0,-11730.0,1149.0,-2971.0,3.0,19.0,-53.0,-53.0,-82.0,-73.0,-82.0,-23.0,2.1289901733398438
452,922.0,-285.0,-744.0,0.0,-10988.0,-11730.0,1149.0,-2971.0,-23.0,-13.0,77.0,2.0,-69.0,-48.0,-35.0,-83.0,2.1339423656463623
453,850.0,167.0,395.0,0.0,-10880.0,-11801.0,1169.0,-3075.0,-23.0,-13.0,77.0,2.0,-69.0,-48.0,-35.0,-83.0,2.1366255283355713
454,850.0,167.0,395.0,0.0,-10880.0,-11801.0,1169.0,-3075.0,-10.0,-11.0,-20.0,-6.0,45.0,84.0,26.0,-12.0,2.1406748294830322
455,850.0,167.0,395.0,0.0,-10880.0,-11801.0,1169.0,-3075.0,36.0,55.0,39.0,-35.0,-78.0,-39.0,2.0,30.0,2.158097982406616
456,-17.0,287.0,828.0,0.0,-10924.0,-11719.0,1220.0,-3212.0,36.0,55.0,39.0,-35.0,-78.0,-39.0,2.0,30.0,2.162187099456787
457,-17.0,287.0,828.0,0.0,-10924.0,-11719.0,1220.0,-3212.0,14.0,-7.0,44.0,8.0,13.0,-1.0,-18.0,16.0,2.166304111480713
458,-17.0,287.0,828.0,0.0,-10924.0,-11719.0,1220.0,-3212.0,4.0,10.0,22.0,-13.0,90.0,-27.0,-21.0,-55.0,2.1813313961029053
459,225.0,205.0,360.0,0.0,-10932.0,-11679.0,1244.0,-3316.0,4.0,10.0,22.0,-13.0,90.0,-27.0,-21.0,-55.0,2.1862897872924805
460,225.0,205.0,360.0,0.0,-10932.0,-11679.0,1244.0,-3316.0,-15.0,6.0,14.0,-16.0,1.0,13.0,-23.0,-30.0,2.1911890506744385
461,225.0,205.0,360.0,0.0,-10932.0,-11679.0,1244.0,-3316.0,-3.0,-27.0,-9.0,26.0,48.0,61.0,32.0,60.0,2.19408917427063
462,-89.0,93.0,528.0,0.0,-10964.0,-11618.0,1301.0,-3403.0,-3.0,-27.0,-9.0,26.0,48.0,61.0,32.0,60.0,2.196470260620117
463,-89.0,93.0,528.0,0.0,-10964.0,-11618.0,1301.0,-3403.0,-2.0,4.0,-8.0,-13.0,-16.0,6.0,-23.0,-17.0,2.2083771228790283
464,-89.0,93.0,528.0,0.0,-10964.0,-11618.0,1301.0,-3403.0,-7.0,-4.0,9.0,13.0,9.0,10.0,-21.0,27.0,2.216679811477661
465,-311.0,-40.0,533.0,0.0,-10989.0,-11559.0,1404.0,-3483.0,-7.0,-4.0,9.0,13.0,9.0,10.0,-21.0,27.0,2.218984842300415
466,-311.0,-40.0,533.0,0.0,-10989.0,-11559.0,1404.0,-3483.0,-5.0,10.0,10.0,11.0,-17.0,-15.0,69.0,-23.0,2.22375226020813
467,-311.0,-40.0,533.0,0.0,-10989.0,-11559.0,1404.0,-3483.0,-17.0,-41.0,-5.0,15.0,27.0,20.0,5.0,9.0,2.2408955097198486
468,-19.0,3.0,339.0,0.0,-10951.0,-11570.0,1470.0,-3536.0,-17.0,-41.0,-5.0,15.0,27.0,20.0,5.0,9.0,2.2451629638671875
469,-19.0,3.0,339.0,0.0,-10951.0,-11570.0,1470.0,-3536.0,13.0,47.0,-15.0,15.0,-18.0,-23.0,-26.0,5.0,2.249606132507324
470,-19.0,3.0,339.0,0.0,-10951.0,-11570.0,1470.0,-3536.0,-10.0,-14.0,-23.0,12.0,4.0,1.0,5.0,-8.0,2.254286766052246
471,150.0,168.0,255.0,0.0,-10882.0,-11614.0,1496.0,-3593.0,-10.0,-14.0,-23.0,12.0,4.0,1.0,5.0,-8.0,2.256591558456421
472,150.0,168.0,255.0,0.0,-10882.0,-11614.0,1496.0,-3593.0,-3.0,4.0,33.0,3.0,6.0,12.0,-3.0,-6.0,2.260962724685669
473,150.0,168.0,255.0,0.0,-10882.0,-11614.0,1496.0,-3593.0,4.0,0.0,12.0,-9.0,-61.0,1.0,-25.0,20.0,2.2779693603515625
474,49.0,240.0,159.0,0.0,-10843.0,-11635.0,1499.0,-3643.0,4.0,0.0,12.0,-9.0,-61.0,1.0,-25.0,20.0,2.2804715633392334
475,49.0,240.0,159.0,0.0,-10843.0,-11635.0,1499.0,-3643.0,2.0,8.0,-21.0,9.0,33.0,5.0,4.0,1.0,2.282844305038452
476,49.0,240.0,159.0,0.0,-10843.0,-11635.0,1499.0,-3643.0,11.0,-1.0,-7.0,28.0,35.0,10.0,27.0,18.0,2.2997684478759766
477,71.0,198.0,77.0,0.0,-10818.0,-11645.0,1496.0,-3686.0,11.0,-1.0,-7.0,28.0,35.0,10.0,27.0,18.0,2.3020994663238525
478,71.0,198.0,77.0,0.0,-10818.0,-11645.0,1496.0,-3686.0,-6.0,-7.0,0.0,-1.0,-15.0,-2.0,-20.0,-5.0,2.304691791534424
479,71.0,198.0,77.0,0.0,-10818.0,-11645.0,1496.0,-3686.0,-2.0,0.0,-30.0,16.0,25.0,23.0,8.0,5.0,2.313920736312866
480,206.0,135.0,-10.0,0.0,-10783.0,-11667.0,1488.0,-3720.0,-2.0,0.0,-30.0,16.0,25.0,23.0,8.0,5.0,2.316246509552002
481,206.0,135.0,-10.0,0.0,-10783.0,-11667.0,1488.0,-3720.0,-2.0,-25.0,-61.0,-14.0,35.0,-5.0,-27.0,3.0,2.3211209774017334
482,206.0,135.0,-10.0,0.0,-10783.0,-11667.0,1488.0,-3720.0,4.0,0.0,-17.0,-25.0,28.0,2.0,24.0,4.0,2.3368618488311768
483,209.0,90.0,-102.0,0.0,-10749.0,-11697.0,1470.0,-3733.0,4.0,0.0,-17.0,-25.0,28.0,2.0,24.0,4.0,2.3391737937927246
484,209.0,90.0,-102.0,0.0,-10749.0,-11697.0,1470.0,-3733.0,4.0,5.0,16.0,-1.0,10.0,3.0,-2.0,10.0,2.3435351848602295
485,209.0,90.0,-102.0,0.0,-10749.0,-11697.0,1470.0,-3733.0,2.0,6.0,1.0,-13.0,-25.0,-2.0,13.0,3.0,2.3602426052093506
486,65.0,59.0,-144.0,0.0,-10735.0,-11712.0,1454.0,-3733.0,2.0,6.0,1.0,-13.0,-25.0,-2.0,13.0,3.0,2.3629276752471924
487,65.0,59.0,-144.0,0.0,-10735.0,-11712.0,1454.0,-3733.0,0.0,-5.0,8.0,-4.0,-52.0,0.0,6.0,4.0,2.365314483642578
488,65.0,59.0,-144.0,0.0,-10735.0,-11712.0,1454.0,-3733.0,-2.0,-2.0,25.0,24.0,47.0,19.0,-13.0,-4.0,2.373323678970337
489,26.0,35.0,-171.0,0.0,-10726.0,-11723.0,1441.0,-3728.0,-2.0,-2.0,25.0,24.0,47.0,19.0,-13.0,-4.0,2.38169002532959
490,26.0,35.0,-171.0,0.0,-10726.0,-11723.0,1441.0,-3728.0,5.0,10.0,14.0,-4.0,-10.0,-15.0,1.0,1.0,2.3841142654418945
491,26.0,35.0,-171.0,0.0,-10726.0,-11723.0,1441.0,-3728.0,-9.0,-5.0,17.0,27.0,-4.0,5.0,8.0,-4.0,2.3976526260375977
492,96.0,33.0,-178.0,0.0,-10711.0,-11741.0,1423.0,-3722.0,-9.0,-5.0,17.0,27.0,-4.0,5.0,8.0,-4.0,2.401747941970825
493,96.0,33.0,-178.0,0.0,-10711.0,-11741.0,1423.0,-3722.0,6.0,7.0,0.0,16.0,-25.0,-2.0,4.0,2.0,2.405939817428589
494,96.0,33.0,-178.0,0.0,-10711.0,-11741.0,1423.0,-3722.0,6.0,1.0,-35.0,-13.0,9.0,2.0,-9.0,4.0,2.421476125717163
495,132.0,29.0,-153.0,0.0,-10691.0,-11761.0,1409.0,-3722.0,6.0,1.0,-35.0,-13.0,9.0,2.0,-9.0,4.0,2.426903486251831
496,132.0,29.0,-153.0,0.0,-10691.0,-11761.0,1409.0,-3722.0,-11.0,-16.0,-5.0,-1.0,-61.0,-37.0,-26.0,-12.0,2.4314866065979004
497,132.0,29.0,-153.0,0.0,-10691.0,-11761.0,1409.0,-3722.0,2.0,5.0,17.0,4.0,-3.0,-9.0,-7.0,-6.0,2.4339120388031006
498,151.0,-7.0,-112.0,0.0,-10669.0,-11782.0,1401.0,-3721.0,2.0,5.0,17.0,4.0,-3.0,-9.0,-7.0,-6.0,2.441579580307007
499,151.0,-7.0,-112.0,0.0,-10669.0,-11782.0,1401.0,-3721.0,2.0,7.0,3.0,-3.0,40.0,19.0,-1.0,5.0,2.4440040588378906
