,Gyro 0,Gyro 1,Gyro 2,Label,Orientation 0,Orientation 1,Orientation 2,Orientation 3,Sensor 0,Sensor 1,Sensor 2,Sensor 3,Sensor 4,Sensor 5,Sensor 6,Sensor 7,Timestamp
0,-557.0,-66.0,958.0,0.0,-7567.0,-13283.0,803.0,-5841.0,3.0,10.0,5.0,-9.0,17.0,-6.0,3.0,-1.0,1.9073486328125e-06
1,-557.0,-66.0,958.0,0.0,-7567.0,-13283.0,803.0,-5841.0,1.0,-10.0,-10.0,3.0,-6.0,-5.0,-2.0,2.0,0.002966642379760742
2,-557.0,-66.0,958.0,0.0,-7567.0,-13283.0,803.0,-5841.0,0.0,-7.0,-3.0,24.0,29.0,9.0,8.0,1.0,0.0055735111236572266
3,-951.0,-160.0,605.0,0.0,-7667.0,-13212.0,957.0,-5848.0,0.0,-7.0,-3.0,24.0,29.0,9.0,8.0,1.0,0.008066654205322266
4,-951.0,-160.0,605.0,0.0,-7667.0,-13212.0,957.0,-5848.0,-10.0,-19.0,-25.0,-12.0,-2.0,-21.0,-10.0,-7.0,0.010463237762451172
5,-795.0,-190.0,353.0,0.0,-7754.0,-13157.0,1074.0,-5838.0,-10.0,-19.0,-25.0,-12.0,-2.0,-21.0,-10.0,-7.0,0.01281881332397461
6,-795.0,-190.0,353.0,0.0,-7754.0,-13157.0,1074.0,-5838.0,0.0,4.0,-2.0,7.0,19.0,8.0,-4.0,-1.0,0.01561117172241211
7,-795.0,-190.0,353.0,0.0,-7754.0,-13157.0,1074.0,-5838.0,10.0,9.0,-2.0,7.0,27.0,18.0,5.0,6.0,0.018038272857666016
8,-481.0,-182.0,225.0,0.0,-7802.0,-13133.0,1148.0,-5814.0,10.0,9.0,-2.0,7.0,27.0,18.0,5.0,6.0,0.020465850830078125
9,-481.0,-182.0,225.0,0.0,-7802.0,-13133.0,1148.0,-5814.0,5.0,13.0,7.0,-6.0,-19.0,0.0,1.0,4.0,0.023201942443847656
10,-481.0,-182.0,225.0,0.0,-7802.0,-13133.0,1148.0,-5814.0,-5.0,1.0,12.0,2.0,-14.0,3.0,-2.0,-3.0,0.02600574493408203
11,-188.0,-143.0,202.0,0.0,-7816.0,-13124.0,1198.0,-5804.0,-5.0,1.0,12.0,2.0,-14.0,3.0,-2.0,-3.0,0.028425931930541992
12,-188.0,-143.0,202.0,0.0,-7816.0,-13124.0,1198.0,-5804.0,-1.0,1.0,6.0,1.0,16.0,4.0,-1.0,1.0,0.030811548233032227
13,-188.0,-143.0,202.0,0.0,-7816.0,-13124.0,1198.0,-5804.0,-3.0,0.0,-4.0,-10.0,-27.0,-12.0,-7.0,-3.0,0.033093929290771484
14,-46.0,-32.0,96.0,0.0,-7826.0,-13111.0,1218.0,-5816.0,-3.0,0.0,-4.0,-10.0,-27.0,-12.0,-7.0,-3.0,0.03550386428833008
15,-46.0,-32.0,96.0,0.0,-7826.0,-13111.0,1218.0,-5816.0,-3.0,-2.0,3.0,1.0,17.0,7.0,3.0,-1.0,0.03793597221374512
16,-46.0,-32.0,96.0,0.0,-7826.0,-13111.0,1218.0,-5816.0,8.0,14.0,-20.0,-13.0,-18.0,-1.0,-1.0,3.0,0.04027676582336426
17,12.0,79.0,-34.0,0.0,-7835.0,-13102.0,1202.0,-5828.0,8.0,14.0,-20.0,-13.0,-18.0,-1.0,-1.0,3.0,0.042587995529174805
18,12.0,79.0,-34.0,0.0,-7835.0,-13102.0,1202.0,-5828.0,-7.0,1.0,2.0,-19.0,4.0,4.0,4.0,-3.0,0.045008182525634766
19,12.0,79.0,-34.0,0.0,-7835.0,-13102.0,1202.0,-5828.0,-2.0,-10.0,-5.0,7.0,-9.0,2.0,-8.0,-4.0,0.04733562469482422
20,29.0,99.0,103.0,0.0,-7833.0,-13096.0,1200.0,-5845.0,-2.0,-10.0,-5.0,7.0,-9.0,2.0,-8.0,-4.0,0.04962897300720215
21,29.0,99.0,103.0,0.0,-7833.0,-13096.0,1200.0,-5845.0,3.0,-4.0,-12.0,5.0,-6.0,-3.0,-4.0,0.0,0.05221891403198242
22,29.0,99.0,103.0,0.0,-7833.0,-13096.0,1200.0,-5845.0,-8.0,-13.0,12.0,5.0,8.0,2.0,1.0,-2.0,0.0548863410949707
23,-32.0,55.0,173.0,0.0,-7828.0,-13088.0,1220.0,-5865.0,-8.0,-13.0,12.0,5.0,8.0,2.0,1.0,-2.0,0.05762624740600586
24,-32.0,55.0,173.0,0.0,-7828.0,-13088.0,1220.0,-5865.0,6.0,14.0,12.0,-4.0,13.0,4.0,4.0,3.0,0.06015491485595703
25,-32.0,55.0,173.0,0.0,-7828.0,-13088.0,1220.0,-5865.0,0.0,-2.0,-4.0,-6.0,-20.0,-5.0,-2.0,-2.0,0.06250262260437012
26,-214.0,48.0,97.0,0.0,-7850.0,-13068.0,1243.0,-5874.0,0.0,-2.0,-4.0,-6.0,-20.0,-5.0,-2.0,-2.0,0.06480789184570312
27,-214.0,48.0,97.0,0.0,-7850.0,-13068.0,1243.0,-5874.0,-4.0,-3.0,1.0,3.0,0.0,2.0,-1.0,-2.0,0.06729912757873535
28,-214.0,48.0,97.0,0.0,-7850.0,-13068.0,1243.0,-5874.0,-1.0,1.0,3.0,1.0,4.0,2.0,-2.0,2.0,0.0695950984954834
29,-293.0,20.0,60.0,0.0,-7878.0,-13047.0,1274.0,-5878.0,-1.0,1.0,3.0,1.0,4.0,2.0,-2.0,2.0,0.07218265533447266
30,-293.0,20.0,60.0,0.0,-7878.0,-13047.0,1274.0,-5878.0,-3.0,-4.0,1.0,3.0,-6.0,-2.0,6.0,0.0,0.07472920417785645
31,-293.0,20.0,60.0,0.0,-7878.0,-13047.0,1274.0,-5878.0,7.0,16.0,13.0,1.0,-1.0,3.0,-2.0,1.0,0.07716917991638184
32,-224.0,0.0,36.0,0.0,-7893.0,-13033.0,1302.0,-5881.0,7.0,16.0,13.0,1.0,-1.0,3.0,-2.0,1.0,0.07950234413146973
33,-224.0,0.0,36.0,0.0,-7893.0,-13033.0,1302.0,-5881.0,-2.0,-5.0,-3.0,3.0,4.0,-1.0,-4.0,-2.0,0.08194661140441895
34,-224.0,0.0,36.0,0.0,-7893.0,-13033.0,1302.0,-5881.0,-3.0,-5.0,4.0,-2.0,1.0,-1.0,2.0,-2.0,0.08477926254272461
35,-141.0,-1.0,26.0,0.0,-7898.0,-13026.0,1325.0,-5886.0,-3.0,-5.0,4.0,-2.0,1.0,-1.0,2.0,-2.0,0.08768677711486816
36,-141.0,-1.0,26.0,0.0,-7898.0,-13026.0,1325.0,-5886.0,-5.0,-13.0,-8.0,0.0,-6.0,4.0,-2.0,-2.0,0.09021329879760742
37,-141.0,-1.0,26.0,0.0,-7898.0,-13026.0,1325.0,-5886.0,2.0,4.0,3.0,-12.0,-31.0,-11.0,-1.0,0.0,0.09252476692199707
38,-42.0,4.0,18.0,0.0,-7892.0,-13024.0,1339.0,-5895.0,2.0,4.0,3.0,-12.0,-31.0,-11.0,-1.0,0.0,0.09484243392944336
39,-42.0,4.0,18.0,0.0,-7892.0,-13024.0,1339.0,-5895.0,0.0,-2.0,-6.0,-2.0,-7.0,-2.0,-5.0,-4.0,0.09726238250732422
40,-42.0,4.0,18.0,0.0,-7892.0,-13024.0,1339.0,-5895.0,-3.0,-6.0,0.0,6.0,20.0,7.0,0.0,-3.0,0.09974551200866699
41,12.0,29.0,9.0,0.0,-7884.0,-13024.0,1343.0,-5905.0,-3.0,-6.0,0.0,6.0,20.0,7.0,0.0,-3.0,0.10207295417785645
42,12.0,29.0,9.0,0.0,-7884.0,-13024.0,1343.0,-5905.0,-1.0,-1.0,-4.0,-4.0,-2.0,-4.0,-4.0,-1.0,0.10452032089233398
43,12.0,29.0,9.0,0.0,-7884.0,-13024.0,1343.0,-5905.0,-6.0,-4.0,14.0,9.0,22.0,7.0,2.0,0.0,0.1068575382232666
44,-2.0,29.0,40.0,0.0,-7880.0,-13021.0,1349.0,-5915.0,-6.0,-4.0,14.0,9.0,22.0,7.0,2.0,0.0,0.10945415496826172
45,-2.0,29.0,40.0,0.0,-7880.0,-13021.0,1349.0,-5915.0,3.0,7.0,8.0,-1.0,-21.0,-3.0,-7.0,3.0,0.11206483840942383
46,-2.0,29.0,40.0,0.0,-7880.0,-13021.0,1349.0,-5915.0,-10.0,-27.0,-17.0,-5.0,-17.0,-13.0,-15.0,-5.0,0.11440110206604004
47,-1.0,45.0,46.0,0.0,-7879.0,-13016.0,1351.0,-5927.0,-10.0,-27.0,-17.0,-5.0,-17.0,-13.0,-15.0,-5.0,0.11742615699768066
48,-1.0,45.0,46.0,0.0,-7879.0,-13016.0,1351.0,-5927.0,-1.0,4.0,6.0,1.0,11.0,7.0,5.0,-4.0,0.12025618553161621
49,-1.0,45.0,46.0,0.0,-7879.0,-13016.0,1351.0,-5927.0,-4.0,-5.0,5.0,3.0,4.0,4.0,3.0,0.0,0.12264251708984375
50,-46.0,31.0,47.0,0.0,-7885.0,-13008.0,1358.0,-5936.0,-4.0,-5.0,5.0,3.0,4.0,4.0,3.0,0.0,0.12496733665466309
51,-46.0,31.0,47.0,0.0,-7885.0,-13008.0,1358.0,-5936.0,-2.0,0.0,-3.0,-2.0,13.0,-2.0,5.0,1.0,0.1274106502532959
52,-46.0,31.0,47.0,0.0,-7885.0,-13008.0,1358.0,-5936.0,0.0,11.0,11.0,-9.0,-15.0,-4.0,9.0,-2.0,0.1297290325164795
53,-108.0,14.0,39.0,0.0,-7899.0,-12995.0,1370.0,-5943.0,0.0,11.0,11.0,-9.0,-15.0,-4.0,9.0,-2.0,0.13213038444519043
54,-108.0,14.0,39.0,0.0,-7899.0,-12995.0,1370.0,-5943.0,7.0,6.0,-46.0,-22.0,-5.0,0.0,-14.0,1.0,0.1345353126525879
55,-108.0,14.0,39.0,0.0,-7899.0,-12995.0,1370.0,-5943.0,3.0,4.0,-4.0,0.0,12.0,2.0,-3.0,3.0,0.13699650764465332
56,-98.0,35.0,45.0,0.0,-7911.0,-12983.0,1380.0,-5951.0,3.0,4.0,-4.0,0.0,12.0,2.0,-3.0,3.0,0.13933348655700684
57,-98.0,35.0,45.0,0.0,-7911.0,-12983.0,1380.0,-5951.0,-10.0,-17.0,8.0,4.0,0.0,-2.0,5.0,-5.0,0.1417393684387207
58,-98.0,35.0,45.0,0.0,-7911.0,-12983.0,1380.0,-5951.0,-4.0,-7.0,1.0,8.0,12.0,8.0,10.0,3.0,0.14409947395324707
59,-88.0,26.0,60.0,0.0,-7917.0,-12974.0,1395.0,-5961.0,-4.0,-7.0,1.0,8.0,12.0,8.0,10.0,3.0,0.14677906036376953
60,-88.0,26.0,60.0,0.0,-7917.0,-12974.0,1395.0,-5961.0,0.0,-1.0,-15.0,0.0,17.0,-15.0,-32.0,-7.0,0.14970803260803223
61,-88.0,26.0,60.0,0.0,-7917.0,-12974.0,1395.0,-5961.0,1.0,7.0,10.0,2.0,-4.0,-5.0,-4.0,0.0,0.15232038497924805
62,-54.0,46.0,31.0,0.0,-7917.0,-12969.0,1402.0,-5969.0,1.0,7.0,10.0,2.0,-4.0,-5.0,-4.0,0.0,0.15466785430908203
63,-54.0,46.0,31.0,0.0,-7917.0,-12969.0,1402.0,-5969.0,1.0,2.0,16.0,3.0,15.0,10.0,11.0,3.0,0.1570572853088379
64,-54.0,46.0,31.0,0.0,-7917.0,-12969.0,1402.0,-5969.0,-4.0,-6.0,-9.0,-2.0,-1.0,2.0,-5.0,-3.0,0.15953326225280762
65,-70.0,24.0,5.0,0.0,-7922.0,-12964.0,1407.0,-5971.0,-4.0,-6.0,-9.0,-2.0,-1.0,2.0,-5.0,-3.0,0.16185259819030762
66,-70.0,24.0,5.0,0.0,-7922.0,-12964.0,1407.0,-5971.0,-7.0,-24.0,1.0,-3.0,-5.0,-2.0,3.0,-2.0,0.16431093215942383
67,-70.0,24.0,5.0,0.0,-7922.0,-12964.0,1407.0,-5971.0,6.0,14.0,-36.0,-7.0,-1.0,1.0,8.0,3.0,0.1668102741241455
68,-42.0,-3.0,-14.0,0.0,-7926.0,-12964.0,1407.0,-5965.0,6.0,14.0,-36.0,-7.0,-1.0,1.0,8.0,3.0,0.16910886764526367
69,-42.0,-3.0,-14.0,0.0,-7926.0,-12964.0,1407.0,-5965.0,-2.0,-10.0,-7.0,-4.0,-8.0,-1.0,1.0,-1.0,0.17152190208435059
70,-42.0,-3.0,-14.0,0.0,-7926.0,-12964.0,1407.0,-5965.0,-1.0,0.0,6.0,0.0,6.0,0.0,-14.0,-4.0,0.17392182350158691
71,-43.0,-11.0,-6.0,0.0,-7929.0,-12967.0,1409.0,-5957.0,-1.0,0.0,6.0,0.0,6.0,0.0,-14.0,-4.0,0.17623019218444824
72,-43.0,-11.0,-6.0,0.0,-7929.0,-12967.0,1409.0,-5957.0,-9.0,-8.0,8.0,7.0,-15.0,-4.0,-5.0,-4.0,0.17907953262329102
73,-43.0,-11.0,-6.0,0.0,-7929.0,-12967.0,1409.0,-5957.0,6.0,9.0,3.0,-7.0,6.0,15.0,-16.0,7.0,0.18204188346862793
74,2.0,-91.0,33.0,0.0,-7920.0,-12978.0,1421.0,-5942.0,6.0,9.0,3.0,-7.0,6.0,15.0,-16.0,7.0,0.18442940711975098
75,2.0,-91.0,33.0,0.0,-7920.0,-12978.0,1421.0,-5942.0,0.0,3.0,-33.0,-8.0,-45.0,-14.0,-1.0,-2.0,0.18682336807250977
76,2.0,-91.0,33.0,0.0,-7920.0,-12978.0,1421.0,-5942.0,1.0,0.0,2.0,7.0,2.0,7.0,8.0,-1.0,0.1891765594482422
77,-64.0,-81.0,28.0,0.0,-7925.0,-12979.0,1434.0,-5927.0,1.0,0.0,2.0,7.0,2.0,7.0,8.0,-1.0,0.1914966106414795
78,-64.0,-81.0,28.0,0.0,-7925.0,-12979.0,1434.0,-5927.0,6.0,13.0,20.0,3.0,14.0,3.0,2.0,5.0,0.19388675689697266
79,-64.0,-81.0,28.0,0.0,-7925.0,-12979.0,1434.0,-5927.0,-6.0,-7.0,-2.0,2.0,-3.0,-7.0,5.0,-3.0,0.196305513381958
80,-105.0,-71.0,45.0,0.0,-7936.0,-12974.0,1454.0,-5920.0,-6.0,-7.0,-2.0,2.0,-3.0,-7.0,5.0,-3.0,0.19863462448120117
81,-105.0,-71.0,45.0,0.0,-7936.0,-12974.0,1454.0,-5920.0,5.0,16.0,13.0,1.0,4.0,3.0,-2.0,-1.0,0.20101618766784668
82,-105.0,-71.0,45.0,0.0,-7936.0,-12974.0,1454.0,-5920.0,-4.0,-31.0,-16.0,-3.0,-13.0,-11.0,-7.0,-4.0,0.20337462425231934
83,-83.0,-69.0,51.0,0.0,-7944.0,-12971.0,1471.0,-5912.0,-4.0,-31.0,-16.0,-3.0,-13.0,-11.0,-7.0,-4.0,0.2057969570159912
84,-83.0,-69.0,51.0,0.0,-7944.0,-12971.0,1471.0,-5912.0,3.0,26.0,33.0,2.0,-9.0,2.0,8.0,5.0,0.20818209648132324
85,-83.0,-69.0,51.0,0.0,-7944.0,-12971.0,1471.0,-5912.0,7.0,3.0,-25.0,-5.0,12.0,10.0,2.0,1.0,0.21091771125793457
86,-72.0,-72.0,62.0,0.0,-7948.0,-12969.0,1490.0,-5905.0,7.0,3.0,-25.0,-5.0,12.0,10.0,2.0,1.0,0.21364808082580566
87,-72.0,-72.0,62.0,0.0,-7948.0,-12969.0,1490.0,-5905.0,-6.0,-14.0,-9.0,2.0,-8.0,-7.0,-7.0,-2.0,0.216139554977417
88,-72.0,-72.0,62.0,0.0,-7948.0,-12969.0,1490.0,-5905.0,-1.0,1.0,2.0,-1.0,4.0,-13.0,-4.0,-4.0,0.21854948997497559
89,-79.0,-92.0,68.0,0.0,-7951.0,-12970.0,1513.0,-5894.0,-1.0,1.0,2.0,-1.0,4.0,-13.0,-4.0,-4.0,0.2209310531616211
90,-79.0,-92.0,68.0,0.0,-7951.0,-12970.0,1513.0,-5894.0,0.0,6.0,21.0,5.0,24.0,7.0,4.0,-3.0,0.2233281135559082
91,-79.0,-92.0,68.0,0.0,-7951.0,-12970.0,1513.0,-5894.0,1.0,6.0,0.0,0.0,-11.0,-4.0,16.0,2.0,0.2256934642791748
92,-114.0,-74.0,86.0,0.0,-7958.0,-12966.0,1538.0,-5886.0,1.0,6.0,0.0,0.0,-11.0,-4.0,16.0,2.0,0.22815823554992676
93,-114.0,-74.0,86.0,0.0,-7958.0,-12966.0,1538.0,-5886.0,1.0,-5.0,-40.0,-11.0,-2.0,-3.0,-5.0,-3.0,0.23062729835510254
94,-114.0,-74.0,86.0,0.0,-7958.0,-12966.0,1538.0,-5886.0,0.0,3.0,9.0,-2.0,-12.0,-9.0,-4.0,-5.0,0.23302197456359863
95,-111.0,-41.0,89.0,0.0,-7965.0,-12959.0,1561.0,-5885.0,0.0,3.0,9.0,-2.0,-12.0,-9.0,-4.0,-5.0,0.2354135513305664
96,-111.0,-41.0,89.0,0.0,-7965.0,-12959.0,1561.0,-5885.0,-4.0,-12.0,8.0,1.0,0.0,8.0,6.0,-1.0,0.23780584335327148
97,-111.0,-41.0,89.0,0.0,-7965.0,-12959.0,1561.0,-5885.0,7.0,19.0,24.0,2.0,1.0,1.0,3.0,5.0,0.24015498161315918
98,-59.0,-36.0,74.0,0.0,-7970.0,-12953.0,1579.0,-5888.0,7.0,19.0,24.0,2.0,1.0,1.0,3.0,5.0,0.24307036399841309
99,-59.0,-36.0,74.0,0.0,-7970.0,-12953.0,1579.0,-5888.0,4.0,5.0,0.0,6.0,-3.0,1.0,-4.0,1.0,0.24600625038146973
100,-59.0,-36.0,74.0,0.0,-7970.0,-12953.0,1579.0,-5888.0,-5.0,5.0,-5.0,5.0,-5.0,-4.0,-9.0,-2.0,0.24837112426757812
101,-28.0,-28.0,57.0,0.0,-7971.0,-12951.0,1589.0,-5887.0,-5.0,5.0,-5.0,5.0,-5.0,-4.0,-9.0,-2.0,0.25077033042907715
102,-28.0,-28.0,57.0,0.0,-7971.0,-12951.0,1589.0,-5887.0,-3.0,-8.0,-18.0,-2.0,12.0,3.0,4.0,1.0,0.25315117835998535
103,-28.0,-28.0,57.0,0.0,-7971.0,-12951.0,1589.0,-5887.0,1.0,-19.0,7.0,2.0,-2.0,2.0,0.0,0.0,0.2554819583892822
104,-12.0,-32.0,55.0,0.0,-7971.0,-12951.0,1599.0,-5885.0,1.0,-19.0,7.0,2.0,-2.0,2.0,0.0,0.0,0.25782275199890137
105,-12.0,-32.0,55.0,0.0,-7971.0,-12951.0,1599.0,-5885.0,0.0,4.0,5.0,3.0,19.0,2.0,8.0,-4.0,0.26027488708496094
106,-12.0,-32.0,55.0,0.0,-7971.0,-12951.0,1599.0,-5885.0,-3.0,1.0,3.0,-9.0,-51.0,-12.0,-2.0,-6.0,0.26262688636779785
107,-62.0,-30.0,51.0,0.0,-7976.0,-12948.0,1611.0,-5882.0,-3.0,1.0,3.0,-9.0,-51.0,-12.0,-2.0,-6.0,0.26494836807250977
108,-62.0,-30.0,51.0,0.0,-7976.0,-12948.0,1611.0,-5882.0,3.0,-1.0,5.0,-3.0,-16.0,-7.0,5.0,1.0,0.2673940658569336
109,-62.0,-30.0,51.0,0.0,-7976.0,-12948.0,1611.0,-5882.0,-3.0,-12.0,2.0,1.0,15.0,5.0,0.0,-1.0,0.26970386505126953
110,-86.0,-35.0,50.0,0.0,-7983.0,-12944.0,1627.0,-5878.0,-3.0,-12.0,2.0,1.0,15.0,5.0,0.0,-1.0,0.2720072269439697
111,-86.0,-35.0,50.0,0.0,-7983.0,-12944.0,1627.0,-5878.0,8.0,14.0,-2.0,-3.0,5.0,8.0,14.0,4.0,0.2746715545654297
112,-86.0,-35.0,50.0,0.0,-7983.0,-12944.0,1627.0,-5878.0,4.0,9.0,7.0,4.0,10.0,-5.0,-13.0,-2.0,0.2773408889770508
113,-64.0,-28.0,43.0,0.0,-7986.0,-12941.0,1639.0,-5875.0,4.0,9.0,7.0,4.0,10.0,-5.0,-13.0,-2.0,0.27981066703796387
114,-64.0,-28.0,43.0,0.0,-7986.0,-12941.0,1639.0,-5875.0,0.0,-1.0,5.0,-2.0,-4.0,-7.0,-1.0,-1.0,0.28226232528686523
115,-64.0,-28.0,43.0,0.0,-7986.0,-12941.0,1639.0,-5875.0,-5.0,-13.0,-6.0,-4.0,15.0,6.0,9.0,2.0,0.2845957279205322
116,-45.0,-16.0,34.0,0.0,-7989.0,-12939.0,1648.0,-5873.0,-5.0,-13.0,-6.0,-4.0,15.0,6.0,9.0,2.0,0.28690576553344727
117,-45.0,-16.0,34.0,0.0,-7989.0,-12939.0,1648.0,-5873.0,5.0,1.0,3.0,-4.0,-38.0,-7.0,-5.0,0.0,0.28931140899658203
118,-45.0,-16.0,34.0,0.0,-7989.0,-12939.0,1648.0,-5873.0,-5.0,0.0,5.0,0.0,15.0,2.0,-2.0,-4.0,0.29162049293518066
119,-37.0,-18.0,32.0,0.0,-7991.0,-12939.0,1654.0,-5869.0,-5.0,0.0,5.0,0.0,15.0,2.0,-2.0,-4.0,0.2939443588256836
120,-37.0,-18.0,32.0,0.0,-7991.0,-12939.0,1654.0,-5869.0,-2.0,-6.0,-30.0,-4.0,10.0,4.0,10.0,0.0,0.2963261604309082
121,-37.0,-18.0,32.0,0.0,-7991.0,-12939.0,1654.0,-5869.0,-1.0,3.0,2.0,4.0,1.0,0.0,-13.0,1.0,0.2986719608306885
122,-56.0,-31.0,44.0,0.0,-7994.0,-12939.0,1665.0,-5863.0,-1.0,3.0,2.0,4.0,1.0,0.0,-13.0,1.0,0.3010437488555908
123,-56.0,-31.0,44.0,0.0,-7994.0,-12939.0,1665.0,-5863.0,-6.0,-1.0,15.0,1.0,2.0,-2.0,-6.0,-3.0,0.30345678329467773
124,-56.0,-31.0,44.0,0.0,-7994.0,-12939.0,1665.0,-5863.0,3.0,-9.0,-15.0,2.0,10.0,2.0,5.0,2.0,0.30600666999816895
125,-73.0,-34.0,39.0,0.0,-8000.0,-12936.0,1677.0,-5857.0,3.0,-9.0,-15.0,2.0,10.0,2.0,5.0,2.0,0.30861473083496094
126,-73.0,-34.0,39.0,0.0,-8000.0,-12936.0,1677.0,-5857.0,0.0,-7.0,-23.0,-2.0,-2.0,-9.0,-11.0,-1.0,0.3111097812652588
127,-73.0,-34.0,39.0,0.0,-8000.0,-12936.0,1677.0,-5857.0,0.0,-1.0,0.0,-10.0,-13.0,-2.0,-1.0,-1.0,0.31348729133605957
128,-62.0,-28.0,30.0,0.0,-8004.0,-12935.0,1687.0,-5852.0,0.0,-1.0,0.0,-10.0,-13.0,-2.0,-1.0,-1.0,0.3157968521118164
129,-62.0,-28.0,30.0,0.0,-8004.0,-12935.0,1687.0,-5852.0,-4.0,-21.0,11.0,0.0,2.0,0.0,-1.0,-3.0,0.31821489334106445
130,-62.0,-28.0,30.0,0.0,-8004.0,-12935.0,1687.0,-5852.0,2.0,2.0,-21.0,-4.0,-19.0,-1.0,6.0,-1.0,0.32056355476379395
131,-47.0,-20.0,33.0,0.0,-8008.0,-12934.0,1695.0,-5847.0,2.0,2.0,-21.0,-4.0,-19.0,-1.0,6.0,-1.0,0.32291150093078613
132,-47.0,-20.0,33.0,0.0,-8008.0,-12934.0,1695.0,-5847.0,-3.0,4.0,23.0,2.0,4.0,0.0,-10.0,-3.0,0.3253772258758545
133,-47.0,-20.0,33.0,0.0,-8008.0,-12934.0,1695.0,-5847.0,0.0,3.0,14.0,1.0,9.0,-1.0,-2.0,-1.0,0.3277294635772705
134,-43.0,-33.0,52.0,0.0,-8008.0,-12934.0,1707.0,-5843.0,0.0,3.0,14.0,1.0,9.0,-1.0,-2.0,-1.0,0.33005404472351074
135,-43.0,-33.0,52.0,0.0,-8008.0,-12934.0,1707.0,-5843.0,2.0,0.0,-9.0,2.0,-7.0,4.0,2.0,1.0,0.33245325088500977
136,-43.0,-33.0,52.0,0.0,-8008.0,-12934.0,1707.0,-5843.0,0.0,-3.0,-35.0,-4.0,5.0,1.0,4.0,2.0,0.334808349609375
137,-67.0,-33.0,50.0,0.0,-8013.0,-12931.0,1719.0,-5838.0,0.0,-3.0,-35.0,-4.0,5.0,1.0,4.0,2.0,0.3373093605041504
138,-67.0,-33.0,50.0,0.0,-8013.0,-12931.0,1719.0,-5838.0,8.0,13.0,-2.0,-1.0,5.0,-7.0,2.0,4.0,0.34003210067749023
139,-67.0,-33.0,50.0,0.0,-8013.0,-12931.0,1719.0,-5838.0,1.0,9.0,15.0,6.0,17.0,-1.0,2.0,-3.0,0.34243130683898926
140,-71.0,-33.0,60.0,0.0,-8015.0,-12930.0,1734.0,-5832.0,1.0,9.0,15.0,6.0,17.0,-1.0,2.0,-3.0,0.34485960006713867
141,-71.0,-33.0,60.0,0.0,-8015.0,-12930.0,1734.0,-5832.0,-4.0,-8.0,4.0,1.0,7.0,4.0,-2.0,-2.0,0.347275972366333
142,-71.0,-33.0,60.0,0.0,-8015.0,-12930.0,1734.0,-5832.0,2.0,3.0,-27.0,-11.0,-25.0,-7.0,0.0,1.0,0.3495767116546631
143,-58.0,-37.0,63.0,0.0,-8016.0,-12930.0,1749.0,-5828.0,2.0,3.0,-27.0,-11.0,-25.0,-7.0,0.0,1.0,0.3519172668457031
144,-58.0,-37.0,63.0,0.0,-8016.0,-12930.0,1749.0,-5828.0,-3.0,0.0,21.0,-1.0,9.0,2.0,0.0,0.0,0.3544931411743164
145,-58.0,-37.0,63.0,0.0,-8016.0,-12930.0,1749.0,-5828.0,-2.0,1.0,24.0,4.0,11.0,2.0,-3.0,0.0,0.3567688465118408
146,-64.0,-28.0,57.0,0.0,-8020.0,-12928.0,1762.0,-5823.0,-2.0,1.0,24.0,4.0,11.0,2.0,-3.0,0.0,0.3590967655181885
147,-64.0,-28.0,57.0,0.0,-8020.0,-12928.0,1762.0,-5823.0,-1.0,-1.0,-5.0,0.0,-8.0,0.0,-1.0,-2.0,0.36151766777038574
148,-64.0,-28.0,57.0,0.0,-8020.0,-12928.0,1762.0,-5823.0,6.0,10.0,0.0,2.0,-2.0,0.0,-1.0,2.0,0.3638477325439453
149,-92.0,-22.0,61.0,0.0,-8028.0,-12922.0,1777.0,-5821.0,6.0,10.0,0.0,2.0,-2.0,0.0,-1.0,2.0,0.36618947982788086
150,-92.0,-22.0,61.0,0.0,-8028.0,-12922.0,1777.0,-5821.0,0.0,3.0,3.0,-2.0,-1.0,1.0,-2.0,1.0,0.36873435974121094
151,-92.0,-22.0,61.0,0.0,-8028.0,-12922.0,1777.0,-5821.0,-10.0,-15.0,22.0,-1.0,5.0,0.0,-2.0,-4.0,0.37143635749816895
152,-77.0,-22.0,51.0,0.0,-8035.0,-12916.0,1791.0,-5820.0,-10.0,-15.0,22.0,-1.0,5.0,0.0,-2.0,-4.0,0.3739316463470459
153,-77.0,-22.0,51.0,0.0,-8035.0,-12916.0,1791.0,-5820.0,-2.0,-5.0,-31.0,-4.0,1.0,-1.0,-1.0,1.0,0.37630367279052734
154,-77.0,-22.0,51.0,0.0,-8035.0,-12916.0,1791.0,-5820.0,2.0,5.0,15.0,2.0,-1.0,-1.0,0.0,-1.0,0.37862324714660645
155,-50.0,-30.0,45.0,0.0,-8038.0,-12913.0,1803.0,-5818.0,2.0,5.0,15.0,2.0,-1.0,-1.0,0.0,-1.0,0.3809633255004883
156,-50.0,-30.0,45.0,0.0,-8038.0,-12913.0,1803.0,-5818.0,-3.0,-2.0,-4.0,-1.0,-11.0,-3.0,-1.0,-2.0,0.3833925724029541
157,-50.0,-30.0,45.0,0.0,-8038.0,-12913.0,1803.0,-5818.0,-5.0,-4.0,7.0,2.0,-4.0,1.0,-3.0,-3.0,0.3860495090484619
158,-42.0,-45.0,37.0,0.0,-8039.0,-12913.0,1815.0,-5813.0,-5.0,-4.0,7.0,2.0,-4.0,1.0,-3.0,-3.0,0.3884885311126709
159,-42.0,-45.0,37.0,0.0,-8039.0,-12913.0,1815.0,-5813.0,-7.0,1.0,-14.0,-1.0,6.0,-1.0,-4.0,-3.0,0.3908843994140625
160,-42.0,-45.0,37.0,0.0,-8039.0,-12913.0,1815.0,-5813.0,1.0,-6.0,9.0,0.0,0.0,-1.0,1.0,-2.0,0.39322590827941895
161,-40.0,-42.0,12.0,0.0,-8042.0,-12913.0,1823.0,-5807.0,1.0,-6.0,9.0,0.0,0.0,-1.0,1.0,-2.0,0.3955364227294922
162,-40.0,-42.0,12.0,0.0,-8042.0,-12913.0,1823.0,-5807.0,0.0,-4.0,0.0,0.0,4.0,1.0,-2.0,-3.0,0.39802074432373047
163,-40.0,-42.0,12.0,0.0,-8042.0,-12913.0,1823.0,-5807.0,-5.0,-7.0,-10.0,-5.0,7.0,0.0,3.0,0.0,0.40048909187316895
164,-23.0,-52.0,10.0,0.0,-8039.0,-12918.0,1830.0,-5797.0,-5.0,-7.0,-10.0,-5.0,7.0,0.0,3.0,0.0,0.4031333923339844
165,-23.0,-52.0,10.0,0.0,-8039.0,-12918.0,1830.0,-5797.0,4.0,12.0,25.0,3.0,-19.0,-4.0,-6.0,1.0,0.40586090087890625
166,-23.0,-52.0,10.0,0.0,-8039.0,-12918.0,1830.0,-5797.0,2.0,16.0,-15.0,-25.0,-19.0,-1.0,1.0,-1.0,0.4081602096557617
167,-13.0,-65.0,18.0,0.0,-8036.0,-12924.0,1839.0,-5786.0,2.0,16.0,-15.0,-25.0,-19.0,-1.0,1.0,-1.0,0.41046571731567383
168,-13.0,-65.0,18.0,0.0,-8036.0,-12924.0,1839.0,-5786.0,0.0,3.0,-3.0,1.0,5.0,2.0,3.0,1.0,0.412874698638916
169,-13.0,-65.0,18.0,0.0,-8036.0,-12924.0,1839.0,-5786.0,-6.0,-11.0,3.0,8.0,8.0,0.0,-7.0,-3.0,0.4151937961578369
170,-32.0,-52.0,19.0,0.0,-8034.0,-12928.0,1849.0,-5777.0,-6.0,-11.0,3.0,8.0,8.0,0.0,-7.0,-3.0,0.41749143600463867
171,-32.0,-52.0,19.0,0.0,-8034.0,-12928.0,1849.0,-5777.0,1.0,8.0,14.0,-2.0,-5.0,1.0,-6.0,-1.0,0.4199235439300537
172,-32.0,-52.0,19.0,0.0,-8034.0,-12928.0,1849.0,-5777.0,-2.0,0.0,-1.0,-1.0,7.0,1.0,3.0,1.0,0.42233777046203613
173,-27.0,-51.0,25.0,0.0,-8034.0,-12929.0,1858.0,-5770.0,-2.0,0.0,-1.0,-1.0,7.0,1.0,3.0,1.0,0.4246342182159424
174,-27.0,-51.0,25.0,0.0,-8034.0,-12929.0,1858.0,-5770.0,-1.0,-13.0,-9.0,0.0,-6.0,-4.0,0.0,-2.0,0.427048921585083
175,-27.0,-51.0,25.0,0.0,-8034.0,-12929.0,1858.0,-5770.0,4.0,13.0,-16.0,-4.0,-17.0,-1.0,-3.0,2.0,0.42935848236083984
176,5.0,-47.0,27.0,0.0,-8029.0,-12934.0,1865.0,-5764.0,4.0,13.0,-16.0,-4.0,-17.0,-1.0,-3.0,2.0,0.4318423271179199
177,5.0,-47.0,27.0,0.0,-8029.0,-12934.0,1865.0,-5764.0,-3.0,-9.0,-29.0,-1.0,-1.0,2.0,5.0,1.0,0.4347658157348633
178,5.0,-47.0,27.0,0.0,-8029.0,-12934.0,1865.0,-5764.0,-7.0,-11.0,7.0,8.0,19.0,1.0,-5.0,-5.0,0.4371490478515625
179,34.0,-39.0,40.0,0.0,-8020.0,-12940.0,1871.0,-5760.0,-7.0,-11.0,7.0,8.0,19.0,1.0,-5.0,-5.0,0.4394710063934326
180,34.0,-39.0,40.0,0.0,-8020.0,-12940.0,1871.0,-5760.0,0.0,0.0,45.0,4.0,-8.0,-3.0,-1.0,0.0,0.4418942928314209
181,34.0,-39.0,40.0,0.0,-8020.0,-12940.0,1871.0,-5760.0,3.0,4.0,4.0,2.0,2.0,1.0,1.0,1.0,0.4443082809448242
182,13.0,-47.0,48.0,0.0,-8015.0,-12946.0,1878.0,-5753.0,3.0,4.0,4.0,2.0,2.0,1.0,1.0,1.0,0.4466099739074707
183,13.0,-47.0,48.0,0.0,-8015.0,-12946.0,1878.0,-5753.0,-2.0,1.0,2.0,0.0,1.0,-4.0,-2.0,-2.0,0.44898438453674316
184,13.0,-47.0,48.0,0.0,-8015.0,-12946.0,1878.0,-5753.0,-3.0,-9.0,-16.0,1.0,-3.0,1.0,-1.0,1.0,0.4513285160064697
185,-23.0,-43.0,52.0,0.0,-8014.0,-12948.0,1889.0,-5748.0,-3.0,-9.0,-16.0,1.0,-3.0,1.0,-1.0,1.0,0.4591810703277588
186,-23.0,-43.0,52.0,0.0,-8014.0,-12948.0,1889.0,-5748.0,-7.0,-9.0,2.0,5.0,6.0,2.0,-2.0,-2.0,0.46830058097839355
187,-23.0,-43.0,52.0,0.0,-8014.0,-12948.0,1889.0,-5748.0,1.0,9.0,6.0,-1.0,-7.0,-5.0,1.0,-1.0,0.47063660621643066
188,-28.0,-44.0,48.0,0.0,-8014.0,-12946.0,1901.0,-5746.0,1.0,9.0,6.0,-1.0,-7.0,-5.0,1.0,-1.0,0.4841780662536621
189,-28.0,-44.0,48.0,0.0,-8014.0,-12946.0,1901.0,-5746.0,0.0,2.0,-8.0,-8.0,0.0,-5.0,-3.0,-3.0,0.48663878440856934
190,-28.0,-44.0,48.0,0.0,-8014.0,-12946.0,1901.0,-5746.0,-4.0,-9.0,33.0,6.0,-5.0,-1.0,-1.0,-4.0,0.4889860153198242
191,3.0,-39.0,37.0,0.0,-8011.0,-12948.0,1909.0,-5743.0,-4.0,-9.0,33.0,6.0,-5.0,-1.0,-1.0,-4.0,0.5063390731811523
192,3.0,-39.0,37.0,0.0,-8011.0,-12948.0,1909.0,-5743.0,3.0,8.0,12.0,0.0,9.0,1.0,1.0,1.0,0.5087499618530273
193,3.0,-39.0,37.0,0.0,-8011.0,-12948.0,1909.0,-5743.0,-3.0,-7.0,4.0,-3.0,6.0,2.0,-1.0,1.0,0.5111308097839355
194,44.0,-47.0,25.0,0.0,-8000.0,-12956.0,1914.0,-5738.0,-3.0,-7.0,4.0,-3.0,6.0,2.0,-1.0,1.0,0.5200450420379639
195,44.0,-47.0,25.0,0.0,-8000.0,-12956.0,1914.0,-5738.0,0.0,-3.0,-26.0,-17.0,-2.0,-14.0,-3.0,-2.0,0.5280735492706299
196,44.0,-47.0,25.0,0.0,-8000.0,-12956.0,1914.0,-5738.0,9.0,21.0,24.0,3.0,13.0,2.0,-8.0,1.0,0.5308306217193604
197,44.0,-39.0,26.0,0.0,-7991.0,-12964.0,1916.0,-5733.0,9.0,21.0,24.0,3.0,13.0,2.0,-8.0,1.0,0.5446739196777344
198,44.0,-39.0,26.0,0.0,-7991.0,-12964.0,1916.0,-5733.0,-3.0,-7.0,-9.0,-4.0,33.0,1.0,-7.0,-3.0,0.5491669178009033
199,44.0,-39.0,26.0,0.0,-7991.0,-12964.0,1916.0,-5733.0,2.0,8.0,9.0,-2.0,-16.0,6.0,23.0,6.0,0.5535142421722412
200,21.0,-45.0,19.0,0.0,-7987.0,-12969.0,1920.0,-5726.0,2.0,8.0,9.0,-2.0,-16.0,6.0,23.0,6.0,0.5660765171051025
201,21.0,-45.0,19.0,0.0,-7987.0,-12969.0,1920.0,-5726.0,3.0,12.0,-20.0,2.0,-3.0,1.0,-14.0,-8.0,0.5708301067352295
202,21.0,-45.0,19.0,0.0,-7987.0,-12969.0,1920.0,-5726.0,1.0,-18.0,-63.0,10.0,40.0,2.0,7.0,-2.0,0.5751121044158936
203,76.0,-40.0,-9.0,0.0,-7978.0,-12977.0,1917.0,-5722.0,1.0,-18.0,-63.0,10.0,40.0,2.0,7.0,-2.0,0.5800807476043701
204,76.0,-40.0,-9.0,0.0,-7978.0,-12977.0,1917.0,-5722.0,15.0,12.0,-6.0,-16.0,23.0,23.0,17.0,9.0,0.5879518985748291
205,76.0,-40.0,-9.0,0.0,-7978.0,-12977.0,1917.0,-5722.0,2.0,-18.0,-16.0,-14.0,-32.0,-27.0,-13.0,-1.0,0.5906257629394531
206,280.0,-52.0,-113.0,0.0,-7940.0,-13007.0,1892.0,-5715.0,2.0,-18.0,-16.0,-14.0,-32.0,-27.0,-13.0,-1.0,0.6125118732452393
207,280.0,-52.0,-113.0,0.0,-7940.0,-13007.0,1892.0,-5715.0,29.0,56.0,-38.0,3.0,-6.0,-7.0,18.0,8.0,0.6172106266021729
208,280.0,-52.0,-113.0,0.0,-7940.0,-13007.0,1892.0,-5715.0,18.0,48.0,14.0,-63.0,-7.0,-2.0,3.0,11.0,0.6219205856323242
209,381.0,-42.0,-244.0,0.0,-7900.0,-13048.0,1836.0,-5694.0,18.0,48.0,14.0,-63.0,-7.0,-2.0,3.0,11.0,0.6257598400115967
210,381.0,-42.0,-244.0,0.0,-7900.0,-13048.0,1836.0,-5694.0,-21.0,-33.0,45.0,22.0,-21.0,-14.0,-7.0,-5.0,0.6281628608703613
211,381.0,-42.0,-244.0,0.0,-7900.0,-13048.0,1836.0,-5694.0,-21.0,-54.0,-70.0,-8.0,7.0,11.0,-2.0,-4.0,0.6304776668548584
212,337.0,18.0,-491.0,0.0,-7892.0,-13082.0,1738.0,-5659.0,-21.0,-54.0,-70.0,-8.0,7.0,11.0,-2.0,-4.0,0.6398558616638184
213,337.0,18.0,-491.0,0.0,-7892.0,-13082.0,1738.0,-5659.0,12.0,28.0,-10.0,-18.0,-34.0,-12.0,1.0,13.0,0.6481940746307373
214,337.0,18.0,-491.0,0.0,-7892.0,-13082.0,1738.0,-5659.0,-39.0,-74.0,42.0,35.0,-13.0,-4.0,-9.0,-34.0,0.650580883026123
215,327.0,10.0,-847.0,0.0,-7914.0,-13115.0,1589.0,-5595.0,-39.0,-74.0,42.0,35.0,-13.0,-4.0,-9.0,-34.0,0.6635036468505859
216,327.0,10.0,-847.0,0.0,-7914.0,-13115.0,1589.0,-5595.0,-1.0,-3.0,7.0,-19.0,21.0,-1.0,6.0,-2.0,0.6677443981170654
217,327.0,10.0,-847.0,0.0,-7914.0,-13115.0,1589.0,-5595.0,13.0,14.0,-7.0,8.0,-33.0,-15.0,-9.0,1.0,0.6717755794525146
218,355.0,-130.0,-1240.0,0.0,-7972.0,-13149.0,1389.0,-5485.0,13.0,14.0,-7.0,8.0,-33.0,-15.0,-9.0,1.0,0.6861476898193359
219,355.0,-130.0,-1240.0,0.0,-7972.0,-13149.0,1389.0,-5485.0,12.0,13.0,-25.0,21.0,-6.0,-1.0,-10.0,4.0,0.6906099319458008
220,355.0,-130.0,-1240.0,0.0,-7972.0,-13149.0,1389.0,-5485.0,12.0,15.0,-46.0,-12.0,-13.0,7.0,11.0,2.0,0.6946506500244141
221,194.0,-146.0,-1545.0,0.0,-8095.0,-13166.0,1134.0,-5321.0,12.0,15.0,-46.0,-12.0,-13.0,7.0,11.0,2.0,0.6998136043548584
222,194.0,-146.0,-1545.0,0.0,-8095.0,-13166.0,1134.0,-5321.0,-29.0,-54.0,15.0,-1.0,-5.0,-1.0,-2.0,3.0,0.708148717880249
223,194.0,-146.0,-1545.0,0.0,-8095.0,-13166.0,1134.0,-5321.0,-13.0,-2.0,26.0,21.0,13.0,5.0,-5.0,3.0,0.7104759216308594
224,234.0,-136.0,-1509.0,0.0,-8216.0,-13193.0,853.0,-5115.0,-13.0,-2.0,26.0,21.0,13.0,5.0,-5.0,3.0,0.7238001823425293
225,234.0,-136.0,-1509.0,0.0,-8216.0,-13193.0,853.0,-5115.0,-13.0,-6.0,-24.0,5.0,3.0,9.0,1.0,-8.0,0.7283222675323486
226,234.0,-136.0,-1509.0,0.0,-8216.0,-13193.0,853.0,-5115.0,46.0,63.0,41.0,-15.0,5.0,-4.0,3.0,20.0,0.7326197624206543
227,-40.0,-20.0,-1284.0,0.0,-8385.0,-13181.0,581.0,-4909.0,46.0,63.0,41.0,-15.0,5.0,-4.0,3.0,20.0,0.7463419437408447
228,-40.0,-20.0,-1284.0,0.0,-8385.0,-13181.0,581.0,-4909.0,-17.0,9.0,36.0,-7.0,-37.0,-2.0,-4.0,-8.0,0.7517285346984863
229,-40.0,-20.0,-1284.0,0.0,-8385.0,-13181.0,581.0,-4909.0,-25.0,-9.0,-11.0,3.0,-1.0,-1.0,-2.0,-6.0,0.7563650608062744
230,-608.0,169.0,-1429.0,0.0,-8645.0,-13100.0,289.0,-4695.0,-25.0,-9.0,-11.0,3.0,-1.0,-1.0,-2.0,-6.0,0.7690041065216064
231,-608.0,169.0,-1429.0,0.0,-8645.0,-13100.0,289.0,-4695.0,0.0,0.0,6.0,7.0,5.0,3.0,-4.0,-8.0,0.7729554176330566
232,-608.0,169.0,-1429.0,0.0,-8645.0,-13100.0,289.0,-4695.0,-27.0,-20.0,4.0,8.0,5.0,3.0,-2.0,22.0,0.7773032188415527
233,-1012.0,269.0,-1803.0,0.0,-8905.0,-12985.0,33.0,-4534.0,-27.0,-20.0,4.0,8.0,5.0,3.0,-2.0,22.0,0.783888578414917
234,-1012.0,269.0,-1803.0,0.0,-8905.0,-12985.0,33.0,-4534.0,-15.0,-21.0,30.0,2.0,3.0,0.0,0.0,3.0,0.7863471508026123
235,-1012.0,269.0,-1803.0,0.0,-8905.0,-12985.0,33.0,-4534.0,0.0,15.0,-32.0,-4.0,1.0,1.0,-4.0,-18.0,0.7886872291564941
236,-1167.0,239.0,-2269.0,0.0,-9205.0,-12844.0,-278.0,-4324.0,0.0,15.0,-32.0,-4.0,1.0,1.0,-4.0,-18.0,0.806302547454834
237,-1167.0,239.0,-2269.0,0.0,-9205.0,-12844.0,-278.0,-4324.0,16.0,29.0,12.0,-11.0,-3.0,0.0,1.0,-10.0,0.808711051940918
238,-1167.0,239.0,-2269.0,0.0,-9205.0,-12844.0,-278.0,-4324.0,2.0,-11.0,-1.0,5.0,2.0,0.0,1.0,-4.0,0.8113136291503906
239,-1269.0,205.0,-2993.0,0.0,-9517.0,-12690.0,-657.0,-4054.0,2.0,-11.0,-1.0,5.0,2.0,0.0,1.0,-4.0,0.8290259838104248
240,-1269.0,205.0,-2993.0,0.0,-9517.0,-12690.0,-657.0,-4054.0,16.0,-16.0,-20.0,2.0,4.0,2.0,-1.0,-1.0,0.8314173221588135
241,-1269.0,205.0,-2993.0,0.0,-9517.0,-12690.0,-657.0,-4054.0,10.0,10.0,17.0,-2.0,-5.0,-2.0,1.0,8.0,0.8337202072143555
242,-1709.0,39.0,-3673.0,0.0,-9906.0,-12472.0,-1093.0,-3687.0,10.0,10.0,17.0,-2.0,-5.0,-2.0,1.0,8.0,0.8432679176330566
243,-1709.0,39.0,-3673.0,0.0,-9906.0,-12472.0,-1093.0,-3687.0,-10.0,-12.0,2.0,-5.0,4.0,1.0,-3.0,-2.0,0.8460733890533447
244,-1709.0,39.0,-3673.0,0.0,-9906.0,-12472.0,-1093.0,-3687.0,-8.0,-2.0,31.0,15.0,2.0,1.0,-6.0,-13.0,0.8486366271972656
245,-2139.0,-141.0,-4297.0,0.0,-10357.0,-12179.0,-1574.0,-3225.0,-8.0,-2.0,31.0,15.0,2.0,1.0,-6.0,-13.0,0.8662052154541016
246,-2139.0,-141.0,-4297.0,0.0,-10357.0,-12179.0,-1574.0,-3225.0,0.0,-8.0,-15.0,-15.0,-2.0,-1.0,0.0,4.0,0.8685903549194336
247,-2139.0,-141.0,-4297.0,0.0,-10357.0,-12179.0,-1574.0,-3225.0,1.0,5.0,11.0,9.0,3.0,-2.0,-4.0,-4.0,0.8708982467651367
248,-2772.0,-190.0,-4704.0,0.0,-10875.0,-11771.0,-2077.0,-2711.0,1.0,5.0,11.0,9.0,3.0,-2.0,-4.0,-4.0,0.8884778022766113
249,-2772.0,-190.0,-4704.0,0.0,-10875.0,-11771.0,-2077.0,-2711.0,9.0,0.0,-43.0,-23.0,9.0,3.0,0.0,7.0,0.890918493270874
250,-2772.0,-190.0,-4704.0,0.0,-10875.0,-11771.0,-2077.0,-2711.0,-7.0,-5.0,-35.0,-51.0,-5.0,-3.0,-3.0,-10.0,0.8932340145111084
251,-3478.0,-185.0,-4934.0,0.0,-11446.0,-11227.0,-2580.0,-2176.0,-7.0,-5.0,-35.0,-51.0,-5.0,-3.0,-3.0,-10.0,0.9027714729309082
252,-3478.0,-185.0,-4934.0,0.0,-11446.0,-11227.0,-2580.0,-2176.0,-6.0,-10.0,-42.0,-36.0,-4.0,-4.0,-2.0,8.0,0.9054133892059326
253,-3478.0,-185.0,-4934.0,0.0,-11446.0,-11227.0,-2580.0,-2176.0,10.0,11.0,23.0,20.0,10.0,2.0,1.0,6.0,0.9093654155731201
254,-3950.0,-200.0,-5118.0,0.0,-12027.0,-10569.0,-3080.0,-1620.0,10.0,11.0,23.0,20.0,10.0,2.0,1.0,6.0,0.9262542724609375
255,-3950.0,-200.0,-5118.0,0.0,-12027.0,-10569.0,-3080.0,-1620.0,-17.0,-17.0,-2.0,8.0,0.0,-3.0,-9.0,-18.0,0.9286749362945557
256,-3950.0,-200.0,-5118.0,0.0,-12027.0,-10569.0,-3080.0,-1620.0,2.0,-3.0,2.0,-33.0,-24.0,-5.0,0.0,-1.0,0.9309873580932617
257,-4290.0,-134.0,-5196.0,0.0,-12584.0,-9808.0,-3576.0,-1064.0,2.0,-3.0,2.0,-33.0,-24.0,-5.0,0.0,-1.0,0.9488983154296875
258,-4290.0,-134.0,-5196.0,0.0,-12584.0,-9808.0,-3576.0,-1064.0,9.0,7.0,13.0,6.0,-19.0,-5.0,3.0,13.0,0.9514808654785156
259,-4290.0,-134.0,-5196.0,0.0,-12584.0,-9808.0,-3576.0,-1064.0,3.0,1.0,11.0,15.0,15.0,2.0,0.0,5.0,0.9539308547973633
260,-4568.0,-52.0,-5254.0,0.0,-13066.0,-9007.0,-4038.0,-550.0,3.0,1.0,11.0,15.0,15.0,2.0,0.0,5.0,0.9619410037994385
261,-4568.0,-52.0,-5254.0,0.0,-13066.0,-9007.0,-4038.0,-550.0,-4.0,-3.0,17.0,24.0,-9.0,-1.0,-1.0,-5.0,0.9708232879638672
262,-4568.0,-52.0,-5254.0,0.0,-13066.0,-9007.0,-4038.0,-550.0,2.0,2.0,-9.0,3.0,4.0,0.0,1.0,-3.0,0.9735188484191895
263,-4740.0,84.0,-5241.0,0.0,-13492.0,-8135.0,-4500.0,-53.0,2.0,2.0,-9.0,3.0,4.0,0.0,1.0,-3.0,0.9867684841156006
264,-4740.0,84.0,-5241.0,0.0,-13492.0,-8135.0,-4500.0,-53.0,1.0,4.0,20.0,14.0,11.0,1.0,3.0,2.0,0.9911623001098633
265,-4740.0,84.0,-5241.0,0.0,-13492.0,-8135.0,-4500.0,-53.0,-4.0,-5.0,-9.0,15.0,18.0,12.0,2.0,-1.0,0.9954631328582764
266,-4506.0,321.0,-5209.0,0.0,-13819.0,-7250.0,-4974.0,432.0,-4.0,-5.0,-9.0,15.0,18.0,12.0,2.0,-1.0,1.0104758739471436
267,-4506.0,321.0,-5209.0,0.0,-13819.0,-7250.0,-4974.0,432.0,1.0,3.0,18.0,19.0,-13.0,-10.0,-4.0,-5.0,1.0131003856658936
268,-4506.0,321.0,-5209.0,0.0,-13819.0,-7250.0,-4974.0,432.0,-2.0,-4.0,-14.0,-29.0,-21.0,-3.0,1.0,-2.0,1.0157561302185059
269,-4108.0,517.0,-5298.0,0.0,-14040.0,-6372.0,-5465.0,942.0,-2.0,-4.0,-14.0,-29.0,-21.0,-3.0,1.0,-2.0,1.022322416305542
270,-4108.0,517.0,-5298.0,0.0,-14040.0,-6372.0,-5465.0,942.0,-2.0,-5.0,-1.0,10.0,74.0,7.0,10.0,0.0,1.030297040939331
271,-3603.0,542.0,-5378.0,0.0,-14158.0,-5522.0,-5940.0,1494.0,-2.0,-5.0,-1.0,10.0,74.0,7.0,10.0,0.0,1.0328989028930664
272,-3603.0,542.0,-5378.0,0.0,-14158.0,-5522.0,-5940.0,1494.0,0.0,-3.0,2.0,20.0,12.0,-7.0,-8.0,-2.0,1.0471341609954834
273,-3603.0,542.0,-5378.0,0.0,-14158.0,-5522.0,-5940.0,1494.0,-1.0,-1.0,5.0,-3.0,30.0,1.0,-6.0,-3.0,1.051194429397583
274,-3290.0,531.0,-5343.0,0.0,-14195.0,-4689.0,-6383.0,2058.0,-1.0,-1.0,5.0,-3.0,30.0,1.0,-6.0,-3.0,1.0552806854248047
275,-3290.0,531.0,-5343.0,0.0,-14195.0,-4689.0,-6383.0,2058.0,-1.0,-5.0,-8.0,-34.0,-39.0,28.0,20.0,9.0,1.05908203125
276,-3290.0,531.0,-5343.0,0.0,-14195.0,-4689.0,-6383.0,2058.0,-3.0,-2.0,1.0,-1.0,-2.0,16.0,0.0,-11.0,1.06807279586792
277,-2828.0,522.0,-5037.0,0.0,-14155.0,-3920.0,-6779.0,2603.0,-3.0,-2.0,1.0,-1.0,-2.0,16.0,0.0,-11.0,1.0704424381256104
278,-2828.0,522.0,-5037.0,0.0,-14155.0,-3920.0,-6779.0,2603.0,4.0,1.0,1.0,-2.0,1.0,25.0,31.0,-11.0,1.0751996040344238
279,-2828.0,522.0,-5037.0,0.0,-14155.0,-3920.0,-6779.0,2603.0,-4.0,-4.0,-5.0,22.0,-83.0,-46.0,-25.0,-9.0,1.091221809387207
280,-2419.0,616.0,-4416.0,0.0,-14057.0,-3229.0,-7139.0,3078.0,-4.0,-4.0,-5.0,22.0,-83.0,-46.0,-25.0,-9.0,1.0954351425170898
281,-2419.0,616.0,-4416.0,0.0,-14057.0,-3229.0,-7139.0,3078.0,8.0,5.0,9.0,56.0,39.0,-5.0,-16.0,-2.0,1.1001286506652832
282,-2419.0,616.0,-4416.0,0.0,-14057.0,-3229.0,-7139.0,3078.0,-1.0,-1.0,-7.0,-11.0,48.0,37.0,2.0,31.0,1.1057002544403076
283,-1957.0,740.0,-3948.0,0.0,-13906.0,-2611.0,-7475.0,3520.0,-1.0,-1.0,-7.0,-11.0,48.0,37.0,2.0,31.0,1.1082921028137207
284,-1957.0,740.0,-3948.0,0.0,-13906.0,-2611.0,-7475.0,3520.0,-4.0,2.0,11.0,45.0,-5.0,-9.0,-67.0,-64.0,1.112133502960205
285,-1957.0,740.0,-3948.0,0.0,-13906.0,-2611.0,-7475.0,3520.0,1.0,3.0,10.0,-15.0,-2.0,10.0,3.0,-11.0,1.1294257640838623
286,-1203.0,781.0,-3584.0,0.0,-13727.0,-2164.0,-7735.0,3940.0,1.0,3.0,10.0,-15.0,-2.0,10.0,3.0,-11.0,1.1341116428375244
287,-1203.0,781.0,-3584.0,0.0,-13727.0,-2164.0,-7735.0,3940.0,5.0,5.0,5.0,-23.0,5.0,-5.0,8.0,4.0,1.1386475563049316
288,-1203.0,781.0,-3584.0,0.0,-13727.0,-2164.0,-7735.0,3940.0,-3.0,-3.0,-9.0,-23.0,-13.0,-6.0,37.0,2.0,1.1508502960205078
289,325.0,1146.0,-2661.0,0.0,-13501.0,-2037.0,-7951.0,4337.0,-3.0,-3.0,-9.0,-23.0,-13.0,-6.0,37.0,2.0,1.1552321910858154
290,325.0,1146.0,-2661.0,0.0,-13501.0,-2037.0,-7951.0,4337.0,-7.0,-6.0,-9.0,-20.0,-33.0,-18.0,-6.0,3.0,1.160435438156128
291,325.0,1146.0,-2661.0,0.0,-13501.0,-2037.0,-7951.0,4337.0,-6.0,-2.0,-5.0,21.0,-20.0,-2.0,-17.0,0.0,1.1653039455413818
292,1548.0,1618.0,-1526.0,0.0,-13248.0,-2208.0,-8147.0,4658.0,-6.0,-2.0,-5.0,21.0,-20.0,-2.0,-17.0,0.0,1.167649745941162
293,1548.0,1618.0,-1526.0,0.0,-13248.0,-2208.0,-8147.0,4658.0,17.0,13.0,32.0,18.0,63.0,9.0,-27.0,28.0,1.1722590923309326
294,1548.0,1618.0,-1526.0,0.0,-13248.0,-2208.0,-8147.0,4658.0,13.0,-20.0,-24.0,-9.0,5.0,-3.0,-27.0,-21.0,1.189589023590088
295,2637.0,2287.0,-712.0,0.0,-12935.0,-2640.0,-8354.0,4936.0,13.0,-20.0,-24.0,-9.0,5.0,-3.0,-27.0,-21.0,1.1951746940612793
296,2637.0,2287.0,-712.0,0.0,-12935.0,-2640.0,-8354.0,4936.0,2.0,-8.0,-9.0,-4.0,-9.0,23.0,2.0,32.0,1.1995937824249268
297,2637.0,2287.0,-712.0,0.0,-12935.0,-2640.0,-8354.0,4936.0,10.0,9.0,-17.0,-21.0,-35.0,-41.0,-34.0,-18.0,1.211052417755127
298,3365.0,2736.0,457.0,0.0,-12600.0,-3301.0,-8536.0,5094.0,10.0,9.0,-17.0,-21.0,-35.0,-41.0,-34.0,-18.0,1.2153661251068115
299,3365.0,2736.0,457.0,0.0,-12600.0,-3301.0,-8536.0,5094.0,5.0,-13.0,-25.0,-42.0,-29.0,-9.0,-41.0,-1.0,1.2198526859283447
300,3365.0,2736.0,457.0,0.0,-12600.0,-3301.0,-8536.0,5094.0,-21.0,-27.0,3.0,2.0,-52.0,-15.0,-15.0,-2.0,1.225055456161499
301,3933.0,2952.0,2984.0,0.0,-12325.0,-4275.0,-8599.0,4934.0,-21.0,-27.0,3.0,2.0,-52.0,-15.0,-15.0,-2.0,1.2275421619415283
302,3933.0,2952.0,2984.0,0.0,-12325.0,-4275.0,-8599.0,4934.0,-7.0,1.0,-13.0,17.0,24.0,-7.0,53.0,3.0,1.23222017288208
303,3933.0,2952.0,2984.0,0.0,-12325.0,-4275.0,-8599.0,4934.0,11.0,11.0,-8.0,-8.0,54.0,-19.0,116.0,27.0,1.249061107635498
304,4329.0,3433.0,5974.0,0.0,-12075.0,-5580.0,-8516.0,4359.0,11.0,11.0,-8.0,-8.0,54.0,-19.0,116.0,27.0,1.2531168460845947
305,4329.0,3433.0,5974.0,0.0,-12075.0,-5580.0,-8516.0,4359.0,-28.0,-15.0,-7.0,3.0,-65.0,-86.0,66.0,-33.0,1.2635910511016846
306,4329.0,3433.0,5974.0,0.0,-12075.0,-5580.0,-8516.0,4359.0,25.0,34.0,46.0,23.0,-12.0,35.0,-48.0,-25.0,1.2709670066833496
307,4873.0,3826.0,8511.0,0.0,-11750.0,-7148.0,-8216.0,3435.0,25.0,34.0,46.0,23.0,-12.0,35.0,-48.0,-25.0,1.2737665176391602
308,4873.0,3826.0,8511.0,0.0,-11750.0,-7148.0,-8216.0,3435.0,-26.0,-37.0,-43.0,-82.0,-60.0,-82.0,5.0,-19.0,1.276308298110962
309,4873.0,3826.0,8511.0,0.0,-11750.0,-7148.0,-8216.0,3435.0,10.0,0.0,-21.0,-28.0,86.0,-41.0,61.0,73.0,1.2852413654327393
310,6187.0,4676.0,10844.0,0.0,-11138.0,-8993.0,-7657.0,2212.0,10.0,0.0,-21.0,-28.0,86.0,-41.0,61.0,73.0,1.2879328727722168
311,6187.0,4676.0,10844.0,0.0,-11138.0,-8993.0,-7657.0,2212.0,-27.0,-3.0,-43.0,-73.0,59.0,-20.0,-54.0,-36.0,1.2920162677764893
312,6187.0,4676.0,10844.0,0.0,-11138.0,-8993.0,-7657.0,2212.0,-61.0,-71.0,-50.0,16.0,-125.0,-116.0,-68.0,-65.0,1.3086967468261719
313,5149.0,6051.0,13014.0,0.0,-10300.0,-10705.0,-6897.0,461.0,-61.0,-71.0,-50.0,16.0,-125.0,-116.0,-68.0,-65.0,1.3110227584838867
314,5149.0,6051.0,13014.0,0.0,-10300.0,-10705.0,-6897.0,461.0,-55.0,-77.0,-23.0,98.0,121.0,94.0,83.0,22.0,1.313999891281128
315,5149.0,6051.0,13014.0,0.0,-10300.0,-10705.0,-6897.0,461.0,-33.0,-62.0,-55.0,-24.0,-37.0,33.0,-56.0,-31.0,1.3310167789459229
316,4200.0,6613.0,14757.0,0.0,-9234.0,-12120.0,-5800.0,-1627.0,-33.0,-62.0,-55.0,-24.0,-37.0,33.0,-56.0,-31.0,1.3350636959075928
317,4200.0,6613.0,14757.0,0.0,-9234.0,-12120.0,-5800.0,-1627.0,57.0,114.0,101.0,53.0,-13.0,-7.0,-35.0,14.0,1.3391990661621094
318,4200.0,6613.0,14757.0,0.0,-9234.0,-12120.0,-5800.0,-1627.0,-49.0,-41.0,105.0,99.0,84.0,127.0,34.0,29.0,1.3464248180389404
319,1727.0,5027.0,13778.0,0.0,-8336.0,-12910.0,-4458.0,-3524.0,-49.0,-41.0,105.0,99.0,84.0,127.0,34.0,29.0,1.3490197658538818
320,1727.0,5027.0,13778.0,0.0,-8336.0,-12910.0,-4458.0,-3524.0,74.0,-36.0,-24.0,76.0,9.0,28.0,-67.0,5.0,1.3517346382141113
321,1727.0,5027.0,13778.0,0.0,-8336.0,-12910.0,-4458.0,-3524.0,-43.0,14.0,0.0,-1.0,44.0,-54.0,-3.0,-5.0,1.367793083190918
322,2067.0,2015.0,10716.0,0.0,-7480.0,-13444.0,-3188.0,-4648.0,-43.0,14.0,0.0,-1.0,44.0,-54.0,-3.0,-5.0,1.370100498199463
323,2067.0,2015.0,10716.0,0.0,-7480.0,-13444.0,-3188.0,-4648.0,-3.0,46.0,58.0,-9.0,17.0,70.0,104.0,43.0,1.3747680187225342
324,2067.0,2015.0,10716.0,0.0,-7480.0,-13444.0,-3188.0,-4648.0,45.0,-6.0,-40.0,84.0,127.0,118.0,-29.0,-19.0,1.3905997276306152
325,3429.0,942.0,5043.0,0.0,-6674.0,-13820.0,-2693.0,-5067.0,45.0,-6.0,-40.0,84.0,127.0,118.0,-29.0,-19.0,1.3929274082183838
326,3429.0,942.0,5043.0,0.0,-6674.0,-13820.0,-2693.0,-5067.0,0.0,31.0,-35.0,-71.0,93.0,115.0,5.0,24.0,1.3972172737121582
327,3429.0,942.0,5043.0,0.0,-6674.0,-13820.0,-2693.0,-5067.0,-37.0,16.0,107.0,-52.0,41.0,-62.0,30.0,-61.0,1.405698299407959
328,904.0,16.0,5464.0,0.0,-6224.0,-14020.0,-1917.0,-5431.0,-37.0,16.0,107.0,-52.0,41.0,-62.0,30.0,-61.0,1.408019781112671
329,904.0,16.0,5464.0,0.0,-6224.0,-14020.0,-1917.0,-5431.0,47.0,2.0,-127.0,15.0,47.0,8.0,-27.0,1.0,1.4124586582183838
330,904.0,16.0,5464.0,0.0,-6224.0,-14020.0,-1917.0,-5431.0,79.0,33.0,-28.0,17.0,-33.0,63.0,17.0,32.0,1.4279391765594482
331,-619.0,-133.0,3770.0,0.0,-6092.0,-14052.0,-1294.0,-5675.0,79.0,33.0,-28.0,17.0,-33.0,63.0,17.0,32.0,1.4302647113800049
332,-619.0,-133.0,3770.0,0.0,-6092.0,-14052.0,-1294.0,-5675.0,79.0,33.0,-28.0,17.0,-33.0,63.0,17.0,32.0,1.434786081314087
333,-619.0,-133.0,3770.0,0.0,-6092.0,-14052.0,-1294.0,-5675.0,-77.0,-60.0,-1.0,2.0,-78.0,-85.0,-53.0,-33.0,1.4510419368743896
334,-619.0,-133.0,3770.0,0.0,-6092.0,-14052.0,-1294.0,-5675.0,-53.0,-43.0,6.0,-62.0,-57.0,19.0,69.0,-48.0,1.4533519744873047
335,-434.0,407.0,3187.0,0.0,-5983.0,-14035.0,-833.0,-5916.0,-53.0,-43.0,6.0,-62.0,-57.0,19.0,69.0,-48.0,1.4557421207427979
336,-434.0,407.0,3187.0,0.0,-5983.0,-14035.0,-833.0,-5916.0,76.0,125.0,127.0,47.0,-56.0,25.0,8.0,52.0,1.4581623077392578
337,-434.0,407.0,3187.0,0.0,-5983.0,-14035.0,-833.0,-5916.0,96.0,110.0,46.0,-30.0,97.0,35.0,-30.0,14.0,1.465390682220459
338,-2045.0,205.0,2980.0,0.0,-6117.0,-13917.0,-289.0,-6105.0,96.0,110.0,46.0,-30.0,97.0,35.0,-30.0,14.0,1.4678139686584473
339,-2045.0,205.0,2980.0,0.0,-6117.0,-13917.0,-289.0,-6105.0,-117.0,-116.0,-57.0,-26.0,127.0,75.0,123.0,2.0,1.4727470874786377
340,-2045.0,205.0,2980.0,0.0,-6117.0,-13917.0,-289.0,-6105.0,3.0,50.0,-51.0,-10.0,-90.0,-46.0,-121.0,-41.0,1.4882731437683105
341,-1795.0,-529.0,2023.0,0.0,-6241.0,-13829.0,188.0,-6184.0,3.0,50.0,-51.0,-10.0,-90.0,-46.0,-121.0,-41.0,1.490614891052246
342,-1795.0,-529.0,2023.0,0.0,-6241.0,-13829.0,188.0,-6184.0,57.0,-24.0,-3.0,0.0,8.0,-124.0,-77.0,11.0,1.4949581623077393
343,-1795.0,-529.0,2023.0,0.0,-6241.0,-13829.0,188.0,-6184.0,-7.0,-9.0,-32.0,-16.0,-8.0,-20.0,121.0,50.0,1.5109658241271973
344,-609.0,-63.0,1932.0,0.0,-6205.0,-13776.0,528.0,-6317.0,-7.0,-9.0,-32.0,-16.0,-8.0,-20.0,121.0,50.0,1.5133750438690186
345,-609.0,-63.0,1932.0,0.0,-6205.0,-13776.0,528.0,-6317.0,-1.0,12.0,41.0,1.0,-60.0,-70.0,-90.0,-41.0,1.516890048980713
346,-609.0,-63.0,1932.0,0.0,-6205.0,-13776.0,528.0,-6317.0,-64.0,-78.0,31.0,10.0,1.0,-18.0,-26.0,-8.0,1.5254604816436768
347,-919.0,33.0,1565.0,0.0,-6292.0,-13633.0,832.0,-6506.0,-64.0,-78.0,31.0,10.0,1.0,-18.0,-26.0,-8.0,1.52781081199646
348,-919.0,33.0,1565.0,0.0,-6292.0,-13633.0,832.0,-6506.0,78.0,29.0,-14.0,39.0,47.0,127.0,119.0,40.0,1.5323636531829834
349,-919.0,33.0,1565.0,0.0,-6292.0,-13633.0,832.0,-6506.0,31.0,20.0,19.0,-15.0,-47.0,52.0,11.0,32.0,1.5481338500976562
350,-1059.0,173.0,1132.0,0.0,-6355.0,-13523.0,1086.0,-6634.0,31.0,20.0,19.0,-15.0,-47.0,52.0,11.0,32.0,1.5504612922668457
351,-1059.0,173.0,1132.0,0.0,-6355.0,-13523.0,1086.0,-6634.0,-42.0,-43.0,-86.0,-98.0,38.0,19.0,5.0,-15.0,1.5551443099975586
352,-1059.0,173.0,1132.0,0.0,-6355.0,-13523.0,1086.0,-6634.0,3.0,39.0,26.0,23.0,-14.0,-10.0,-30.0,16.0,1.5709221363067627
353,-528.0,295.0,751.0,0.0,-6324.0,-13473.0,1251.0,-6736.0,3.0,39.0,26.0,23.0,-14.0,-10.0,-30.0,16.0,1.5737457275390625
354,-528.0,295.0,751.0,0.0,-6324.0,-13473.0,1251.0,-6736.0,8.0,27.0,39.0,-38.0,1.0,-4.0,-20.0,-6.0,1.576415777206421
355,-528.0,295.0,751.0,0.0,-6324.0,-13473.0,1251.0,-6736.0,25.0,0.0,16.0,-32.0,-30.0,-96.0,-33.0,8.0,1.585644006729126
356,-244.0,406.0,357.0,0.0,-6308.0,-13426.0,1316.0,-6831.0,25.0,0.0,16.0,-32.0,-30.0,-96.0,-33.0,8.0,1.5880177021026611
357,-244.0,406.0,357.0,0.0,-6308.0,-13426.0,1316.0,-6831.0,-36.0,-23.0,-19.0,-19.0,-95.0,-84.0,-15.0,-36.0,1.5922307968139648
358,-244.0,406.0,357.0,0.0,-6308.0,-13426.0,1316.0,-6831.0,-9.0,-14.0,-91.0,4.0,127.0,69.0,48.0,15.0,1.6081578731536865
359,-256.0,428.0,263.0,0.0,-6333.0,-13351.0,1360.0,-6947.0,-9.0,-14.0,-91.0,4.0,127.0,69.0,48.0,15.0,1.6105268001556396
360,-256.0,428.0,263.0,0.0,-6333.0,-13351.0,1360.0,-6947.0,-28.0,92.0,127.0,60.0,46.0,16.0,-15.0,-17.0,1.6150143146514893
361,-256.0,428.0,263.0,0.0,-6333.0,-13351.0,1360.0,-6947.0,11.0,-2.0,-48.0,1.0,-27.0,4.0,-22.0,2.0,1.6305370330810547
362,-527.0,450.0,198.0,0.0,-6408.0,-13259.0,1404.0,-7044.0,11.0,-2.0,-48.0,1.0,-27.0,4.0,-22.0,2.0,1.6332743167877197
363,-527.0,450.0,198.0,0.0,-6408.0,-13259.0,1404.0,-7044.0,-19.0,-55.0,7.0,12.0,-83.0,-11.0,-35.0,-11.0,1.637202501296997
364,-527.0,450.0,198.0,0.0,-6408.0,-13259.0,1404.0,-7044.0,0.0,-1.0,26.0,15.0,-46.0,-46.0,-49.0,5.0,1.6452453136444092
365,-760.0,318.0,191.0,0.0,-6512.0,-13173.0,1468.0,-7097.0,0.0,-1.0,26.0,15.0,-46.0,-46.0,-49.0,5.0,1.6476378440856934
366,-760.0,318.0,191.0,0.0,-6512.0,-13173.0,1468.0,-7097.0,16.0,11.0,58.0,25.0,85.0,-3.0,5.0,13.0,1.6526200771331787
367,-760.0,318.0,191.0,0.0,-6512.0,-13173.0,1468.0,-7097.0,4.0,12.0,-15.0,3.0,110.0,56.0,13.0,3.0,1.6684539318084717
368,-676.0,253.0,131.0,0.0,-6568.0,-13113.0,1546.0,-7141.0,4.0,12.0,-15.0,3.0,110.0,56.0,13.0,3.0,1.670856237411499
369,-676.0,253.0,131.0,0.0,-6568.0,-13113.0,1546.0,-7141.0,-12.0,-2.0,43.0,37.0,53.0,56.0,-34.0,-5.0,1.6748425960540771
370,-676.0,253.0,131.0,0.0,-6568.0,-13113.0,1546.0,-7141.0,-7.0,10.0,33.0,-48.0,-3.0,-45.0,-2.0,-9.0,1.6903440952301025
371,-329.0,299.0,60.0,0.0,-6584.0,-13085.0,1573.0,-7171.0,-7.0,10.0,33.0,-48.0,-3.0,-45.0,-2.0,-9.0,1.6926841735839844
372,-329.0,299.0,60.0,0.0,-6584.0,-13085.0,1573.0,-7171.0,13.0,0.0,31.0,3.0,110.0,32.0,86.0,14.0,1.6982321739196777
373,-329.0,299.0,60.0,0.0,-6584.0,-13085.0,1573.0,-7171.0,6.0,22.0,10.0,41.0,43.0,9.0,-3.0,-8.0,1.7056524753570557
374,-143.0,266.0,29.0,0.0,-6597.0,-13074.0,1563.0,-7182.0,6.0,22.0,10.0,41.0,43.0,9.0,-3.0,-8.0,1.7080752849578857
375,-143.0,266.0,29.0,0.0,-6597.0,-13074.0,1563.0,-7182.0,16.0,-34.0,-79.0,-10.0,-72.0,-32.0,-6.0,-5.0,1.71268892288208
376,-143.0,266.0,29.0,0.0,-6597.0,-13074.0,1563.0,-7182.0,23.0,35.0,58.0,40.0,-70.0,12.0,53.0,22.0,1.7285091876983643
377,-372.0,200.0,35.0,0.0,-6649.0,-13040.0,1577.0,-7192.0,23.0,35.0,58.0,40.0,-70.0,12.0,53.0,22.0,1.731200933456421
378,-372.0,200.0,35.0,0.0,-6649.0,-13040.0,1577.0,-7192.0,-20.0,-71.0,-83.0,-23.0,24.0,5.0,-14.0,-17.0,1.7339503765106201
379,-372.0,200.0,35.0,0.0,-6649.0,-13040.0,1577.0,-7192.0,3.0,-2.0,53.0,30.0,-3.0,17.0,-15.0,5.0,1.7503111362457275
380,-370.0,135.0,-68.0,0.0,-6698.0,-13012.0,1591.0,-7194.0,3.0,-2.0,53.0,30.0,-3.0,17.0,-15.0,5.0,1.752673625946045
381,-370.0,135.0,-68.0,0.0,-6698.0,-13012.0,1591.0,-7194.0,-6.0,4.0,-29.0,18.0,56.0,41.0,12.0,11.0,1.757404088973999
382,-370.0,135.0,-68.0,0.0,-6698.0,-13012.0,1591.0,-7194.0,-8.0,-25.0,-30.0,-21.0,63.0,68.0,46.0,6.0,1.765831708908081
383,-377.0,100.0,-81.0,0.0,-6740.0,-12987.0,1613.0,-7196.0,-8.0,-25.0,-30.0,-21.0,63.0,68.0,46.0,6.0,1.77280855178833
384,-377.0,100.0,-81.0,0.0,-6740.0,-12987.0,1613.0,-7196.0,-24.0,-30.0,61.0,3.0,-55.0,-59.0,-52.0,-23.0,1.7752459049224854
385,-377.0,100.0,-81.0,0.0,-6740.0,-12987.0,1613.0,-7196.0,5.0,39.0,11.0,9.0,39.0,15.0,16.0,6.0,1.788050889968872
386,-287.0,98.0,-73.0,0.0,-6768.0,-12964.0,1633.0,-7206.0,5.0,39.0,11.0,9.0,39.0,15.0,16.0,6.0,1.7906103134155273
387,-287.0,98.0,-73.0,0.0,-6768.0,-12964.0,1633.0,-7206.0,39.0,79.0,6.0,-50.0,-4.0,-3.0,-18.0,6.0,1.7948899269104004
388,-287.0,98.0,-73.0,0.0,-6768.0,-12964.0,1633.0,-7206.0,-22.0,-37.0,-16.0,4.0,13.0,-15.0,3.0,-6.0,1.8104169368743896
389,-85.0,106.0,-130.0,0.0,-6776.0,-12950.0,1630.0,-7224.0,-22.0,-37.0,-16.0,4.0,13.0,-15.0,3.0,-6.0,1.8127610683441162
390,-85.0,106.0,-130.0,0.0,-6776.0,-12950.0,1630.0,-7224.0,-33.0,-45.0,-55.0,9.0,-78.0,-15.0,-54.0,-11.0,1.8174612522125244
391,-85.0,106.0,-130.0,0.0,-6776.0,-12950.0,1630.0,-7224.0,-9.0,-8.0,40.0,1.0,-19.0,-13.0,-2.0,-2.0,1.8253653049468994
392,-6.0,113.0,-120.0,0.0,-6780.0,-12941.0,1614.0,-7240.0,-9.0,-8.0,40.0,1.0,-19.0,-13.0,-2.0,-2.0,1.8280177116394043
393,-6.0,113.0,-120.0,0.0,-6780.0,-12941.0,1614.0,-7240.0,21.0,43.0,0.0,-32.0,-20.0,11.0,13.0,16.0,1.8324825763702393
394,-6.0,113.0,-120.0,0.0,-6780.0,-12941.0,1614.0,-7240.0,-6.0,-30.0,-11.0,-5.0,17.0,-7.0,-53.0,-9.0,1.8483319282531738
395,-65.0,106.0,-113.0,0.0,-6796.0,-12927.0,1601.0,-7253.0,-6.0,-30.0,-11.0,-5.0,17.0,-7.0,-53.0,-9.0,1.850677728652954
396,-65.0,106.0,-113.0,0.0,-6796.0,-12927.0,1601.0,-7253.0,-6.0,-14.0,15.0,-8.0,-74.0,-106.0,-17.0,-19.0,1.8550059795379639
397,-65.0,106.0,-113.0,0.0,-6796.0,-12927.0,1601.0,-7253.0,12.0,13.0,-7.0,7.0,31.0,10.0,32.0,5.0,1.8719260692596436
398,-76.0,78.0,-95.0,0.0,-6803.0,-12919.0,1598.0,-7261.0,12.0,13.0,-7.0,7.0,31.0,10.0,32.0,5.0,1.876319408416748
399,-76.0,78.0,-95.0,0.0,-6803.0,-12919.0,1598.0,-7261.0,-8.0,-27.0,-67.0,3.0,74.0,38.0,-6.0,2.0,1.8807857036590576
400,-76.0,78.0,-95.0,0.0,-6803.0,-12919.0,1598.0,-7261.0,-8.0,-28.0,-65.0,-1.0,88.0,11.0,-30.0,-4.0,1.885617971420288
401,-32.0,51.0,-77.0,0.0,-6793.0,-12926.0,1598.0,-7259.0,-8.0,-28.0,-65.0,-1.0,88.0,11.0,-30.0,-4.0,1.888594388961792
402,-32.0,51.0,-77.0,0.0,-6793.0,-12926.0,1598.0,-7259.0,-19.0,-35.0,-31.0,14.0,-5.0,-37.0,-13.0,-11.0,1.8918375968933105
403,-32.0,51.0,-77.0,0.0,-6793.0,-12926.0,1598.0,-7259.0,-18.0,-4.0,-60.0,-29.0,-25.0,17.0,-4.0,-1.0,1.9092037677764893
404,47.0,58.0,-73.0,0.0,-6775.0,-12942.0,1584.0,-7249.0,-18.0,-4.0,-60.0,-29.0,-25.0,17.0,-4.0,-1.0,1.9133803844451904
405,47.0,58.0,-73.0,0.0,-6775.0,-12942.0,1584.0,-7249.0,-5.0,-15.0,47.0,43.0,42.0,33.0,32.0,10.0,1.9179928302764893
406,47.0,58.0,-73.0,0.0,-6775.0,-12942.0,1584.0,-7249.0,21.0,23.0,-31.0,-35.0,-61.0,-23.0,8.0,-1.0,1.9321677684783936
407,85.0,41.0,-46.0,0.0,-6753.0,-12963.0,1570.0,-7237.0,21.0,23.0,-31.0,-35.0,-61.0,-23.0,8.0,-1.0,1.9368584156036377
408,85.0,41.0,-46.0,0.0,-6753.0,-12963.0,1570.0,-7237.0,-17.0,-18.0,20.0,8.0,-6.0,22.0,37.0,1.0,1.9416420459747314
409,85.0,41.0,-46.0,0.0,-6753.0,-12963.0,1570.0,-7237.0,-17.0,-20.0,-1.0,8.0,-5.0,-10.0,16.0,0.0,1.9452853202819824
410,97.0,32.0,-32.0,0.0,-6729.0,-12980.0,1558.0,-7229.0,-17.0,-20.0,-1.0,8.0,-5.0,-10.0,16.0,0.0,1.9476213455200195
411,97.0,32.0,-32.0,0.0,-6729.0,-12980.0,1558.0,-7229.0,29.0,51.0,25.0,-13.0,12.0,25.0,27.0,9.0,1.9537594318389893
412,97.0,32.0,-32.0,0.0,-6729.0,-12980.0,1558.0,-7229.0,-16.0,-20.0,12.0,-2.0,-76.0,-24.0,-13.0,-14.0,1.9699077606201172
413,119.0,22.0,-14.0,0.0,-6708.0,-12995.0,1545.0,-7226.0,-16.0,-20.0,12.0,-2.0,-76.0,-24.0,-13.0,-14.0,1.9749536514282227
414,119.0,22.0,-14.0,0.0,-6708.0,-12995.0,1545.0,-7226.0,2.0,3.0,38.0,23.0,54.0,6.0,-21.0,2.0,1.9792799949645996
415,119.0,22.0,-14.0,0.0,-6708.0,-12995.0,1545.0,-7226.0,-30.0,-37.0,20.0,5.0,2.0,4.0,2.0,-7.0,1.9924325942993164
416,72.0,13.0,11.0,0.0,-6696.0,-13003.0,1538.0,-7225.0,-30.0,-37.0,20.0,5.0,2.0,4.0,2.0,-7.0,1.9970462322235107
417,72.0,13.0,11.0,0.0,-6696.0,-13003.0,1538.0,-7225.0,7.0,23.0,29.0,-1.0,-36.0,-30.0,24.0,4.0,2.0018441677093506
418,72.0,13.0,11.0,0.0,-6696.0,-13003.0,1538.0,-7225.0,5.0,-7.0,-44.0,-6.0,-39.0,-8.0,-28.0,-5.0,2.004955291748047
419,62.0,-30.0,29.0,0.0,-6676.0,-13013.0,1544.0,-7223.0,5.0,-7.0,-44.0,-6.0,-39.0,-8.0,-28.0,-5.0,2.007310390472412
420,62.0,-30.0,29.0,0.0,-6676.0,-13013.0,1544.0,-7223.0,1.0,-1.0,14.0,15.0,12.0,25.0,23.0,6.0,2.012314558029175
421,62.0,-30.0,29.0,0.0,-6676.0,-13013.0,1544.0,-7223.0,1.0,8.0,-9.0,-14.0,-71.0,-25.0,-37.0,-12.0,2.029069423675537
422,68.0,-30.0,24.0,0.0,-6662.0,-13021.0,1546.0,-7222.0,1.0,8.0,-9.0,-14.0,-71.0,-25.0,-37.0,-12.0,2.0344889163970947
423,68.0,-30.0,24.0,0.0,-6662.0,-13021.0,1546.0,-7222.0,-20.0,-18.0,-14.0,-9.0,31.0,33.0,1.0,-10.0,2.039273500442505
424,68.0,-30.0,24.0,0.0,-6662.0,-13021.0,1546.0,-7222.0,31.0,24.0,-32.0,6.0,-25.0,13.0,-29.0,14.0,2.0531771183013916
425,66.0,-30.0,35.0,0.0,-6649.0,-13027.0,1548.0,-7222.0,31.0,24.0,-32.0,6.0,-25.0,13.0,-29.0,14.0,2.0578696727752686
426,66.0,-30.0,35.0,0.0,-6649.0,-13027.0,1548.0,-7222.0,1.0,-14.0,-24.0,-17.0,-37.0,-19.0,-32.0,-1.0,2.0625364780426025
427,66.0,-30.0,35.0,0.0,-6649.0,-13027.0,1548.0,-7222.0,11.0,-9.0,-48.0,-15.0,38.0,-8.0,25.0,15.0,2.0653529167175293
428,47.0,-34.0,40.0,0.0,-6640.0,-13032.0,1551.0,-7219.0,11.0,-9.0,-48.0,-15.0,38.0,-8.0,25.0,15.0,2.0677080154418945
429,47.0,-34.0,40.0,0.0,-6640.0,-13032.0,1551.0,-7219.0,22.0,14.0,6.0,27.0,-84.0,0.0,4.0,4.0,2.0726163387298584
430,47.0,-34.0,40.0,0.0,-6640.0,-13032.0,1551.0,-7219.0,-11.0,-9.0,34.0,-8.0,17.0,-12.0,8.0,-10.0,2.0896756649017334
431,-1.0,-37.0,40.0,0.0,-6636.0,-13038.0,1557.0,-7211.0,-11.0,-9.0,34.0,-8.0,17.0,-12.0,8.0,-10.0,2.0948569774627686
432,-1.0,-37.0,40.0,0.0,-6636.0,-13038.0,1557.0,-7211.0,-6.0,-3.0,-4.0,2.0,18.0,18.0,-5.0,5.0,2.099487781524658
433,-1.0,-37.0,40.0,0.0,-6636.0,-13038.0,1557.0,-7211.0,14.0,52.0,73.0,26.0,15.0,47.0,24.0,17.0,2.1138648986816406
434,-31.0,-12.0,55.0,0.0,-6631.0,-13039.0,1570.0,-7211.0,14.0,52.0,73.0,26.0,15.0,47.0,24.0,17.0,2.118694305419922
435,-31.0,-12.0,55.0,0.0,-6631.0,-13039.0,1570.0,-7211.0,11.0,13.0,8.0,-3.0,32.0,-3.0,-13.0,-3.0,2.1231439113616943
436,-31.0,-12.0,55.0,0.0,-6631.0,-13039.0,1570.0,-7211.0,9.0,11.0,10.0,0.0,-16.0,-5.0,6.0,-1.0,2.125849485397339
437,22.0,37.0,80.0,0.0,-6615.0,-13041.0,1580.0,-7220.0,9.0,11.0,10.0,0.0,-16.0,-5.0,6.0,-1.0,2.1281588077545166
438,22.0,37.0,80.0,0.0,-6615.0,-13041.0,1580.0,-7220.0,-2.0,-27.0,-70.0,-17.0,0.0,0.0,5.0,8.0,2.132380247116089
439,22.0,37.0,80.0,0.0,-6615.0,-13041.0,1580.0,-7220.0,52.0,90.0,69.0,-18.0,-3.0,-15.0,5.0,7.0,2.149202346801758
440,46.0,60.0,91.0,0.0,-6595.0,-13043.0,1589.0,-7234.0,52.0,90.0,69.0,-18.0,-3.0,-15.0,5.0,7.0,2.1532833576202393
441,46.0,60.0,91.0,0.0,-6595.0,-13043.0,1589.0,-7234.0,-12.0,10.0,16.0,21.0,-27.0,-16.0,-22.0,-19.0,2.1583220958709717
442,46.0,60.0,91.0,0.0,-6595.0,-13043.0,1589.0,-7234.0,-23.0,-52.0,13.0,18.0,67.0,29.0,43.0,-3.0,2.172250986099243
443,50.0,28.0,91.0,0.0,-6576.0,-13048.0,1596.0,-7240.0,-23.0,-52.0,13.0,18.0,67.0,29.0,43.0,-3.0,2.1773338317871094
444,50.0,28.0,91.0,0.0,-6576.0,-13048.0,1596.0,-7240.0,7.0,19.0,-6.0,-19.0,21.0,-47.0,-72.0,6.0,2.181577444076538
445,50.0,28.0,91.0,0.0,-6576.0,-13048.0,1596.0,-7240.0,-24.0,-40.0,8.0,39.0,33.0,-14.0,-41.0,-17.0,2.1852433681488037
446,33.0,55.0,105.0,0.0,-6566.0,-13047.0,1601.0,-7250.0,-24.0,-40.0,8.0,39.0,33.0,-14.0,-41.0,-17.0,2.187568426132202
447,33.0,55.0,105.0,0.0,-6566.0,-13047.0,1601.0,-7250.0,-8.0,-1.0,3.0,-24.0,-27.0,22.0,32.0,-5.0,2.1926443576812744
448,33.0,55.0,105.0,0.0,-6566.0,-13047.0,1601.0,-7250.0,-1.0,-5.0,-28.0,-19.0,-17.0,6.0,0.0,4.0,2.2106165885925293
449,-44.0,77.0,118.0,0.0,-6572.0,-13039.0,1607.0,-7258.0,-1.0,-5.0,-28.0,-19.0,-17.0,6.0,0.0,4.0,2.2153120040893555
450,-44.0,77.0,118.0,0.0,-6572.0,-13039.0,1607.0,-7258.0,0.0,7.0,-55.0,-13.0,23.0,13.0,31.0,0.0,2.2196850776672363
451,-44.0,77.0,118.0,0.0,-6572.0,-13039.0,1607.0,-7258.0,-4.0,10.0,-18.0,-23.0,-13.0,-22.0,-33.0,-5.0,2.233044385910034
452,-122.0,55.0,93.0,0.0,-6581.0,-13028.0,1625.0,-7266.0,-4.0,10.0,-18.0,-23.0,-13.0,-22.0,-33.0,-5.0,2.2381348609924316
453,-122.0,55.0,93.0,0.0,-6581.0,-13028.0,1625.0,-7266.0,-1.0,26.0,38.0,-14.0,-36.0,-11.0,14.0,0.0,2.2432680130004883
454,-122.0,55.0,93.0,0.0,-6581.0,-13028.0,1625.0,-7266.0,-11.0,-30.0,-21.0,-12.0,-79.0,-48.0,-39.0,2.0,2.246145248413086
455,-29.0,33.0,76.0,0.0,-6572.0,-13025.0,1640.0,-7276.0,-11.0,-30.0,-21.0,-12.0,-79.0,-48.0,-39.0,2.0,2.252976655960083
456,-29.0,33.0,76.0,0.0,-6572.0,-13025.0,1640.0,-7276.0,-9.0,-21.0,1.0,27.0,63.0,2.0,-5.0,-6.0,2.2554638385772705
457,-29.0,33.0,76.0,0.0,-6572.0,-13025.0,1640.0,-7276.0,-1.0,4.0,-11.0,13.0,52.0,16.0,12.0,-3.0,2.277743339538574
458,9.0,48.0,38.0,0.0,-6568.0,-13026.0,1638.0,-7278.0,-1.0,4.0,-11.0,13.0,52.0,16.0,12.0,-3.0,2.282092809677124
459,9.0,48.0,38.0,0.0,-6568.0,-13026.0,1638.0,-7278.0,-4.0,-11.0,-14.0,-28.0,-11.0,-14.0,3.0,-9.0,2.286439895629883
460,9.0,48.0,38.0,0.0,-6568.0,-13026.0,1638.0,-7278.0,3.0,-8.0,17.0,-10.0,-35.0,9.0,-5.0,0.0,2.2911486625671387
461,-66.0,53.0,46.0,0.0,-6578.0,-13019.0,1640.0,-7279.0,3.0,-8.0,17.0,-10.0,-35.0,9.0,-5.0,0.0,2.293539047241211
462,-66.0,53.0,46.0,0.0,-6578.0,-13019.0,1640.0,-7279.0,-5.0,-9.0,50.0,15.0,-1.0,17.0,25.0,3.0,2.295955181121826
463,-66.0,53.0,46.0,0.0,-6578.0,-13019.0,1640.0,-7279.0,1.0,-6.0,35.0,16.0,-35.0,-15.0,0.0,-2.0,2.305967092514038
464,-73.0,29.0,29.0,0.0,-6585.0,-13017.0,1646.0,-7276.0,1.0,-6.0,35.0,16.0,-35.0,-15.0,0.0,-2.0,2.308328151702881
465,-73.0,29.0,29.0,0.0,-6585.0,-13017.0,1646.0,-7276.0,6.0,-7.0,-35.0,-19.0,-2.0,-10.0,4.0,8.0,2.3117010593414307
466,-73.0,29.0,29.0,0.0,-6585.0,-13017.0,1646.0,-7276.0,-1.0,10.0,38.0,6.0,12.0,9.0,-6.0,-3.0,2.3292977809906006
467,-104.0,10.0,19.0,0.0,-6594.0,-13013.0,1656.0,-7272.0,-1.0,10.0,38.0,6.0,12.0,9.0,-6.0,-3.0,2.3345446586608887
468,-104.0,10.0,19.0,0.0,-6594.0,-13013.0,1656.0,-7272.0,2.0,2.0,-26.0,-1.0,-21.0,-12.0,10.0,-4.0,2.339306354522705
469,-104.0,10.0,19.0,0.0,-6594.0,-13013.0,1656.0,-7272.0,-1.0,8.0,19.0,-13.0,-19.0,-25.0,25.0,2.0,2.352656841278076
470,-81.0,7.0,17.0,0.0,-6598.0,-13011.0,1668.0,-7271.0,-1.0,8.0,19.0,-13.0,-19.0,-25.0,25.0,2.0,2.357633352279663
471,-81.0,7.0,17.0,0.0,-6598.0,-13011.0,1668.0,-7271.0,-3.0,-1.0,-16.0,9.0,-26.0,-16.0,4.0,-1.0,2.3625874519348145
472,-81.0,7.0,17.0,0.0,-6598.0,-13011.0,1668.0,-7271.0,7.0,6.0,-16.0,-2.0,24.0,7.0,-6.0,-2.0,2.3656070232391357
473,-43.0,4.0,-6.0,0.0,-6598.0,-13011.0,1674.0,-7270.0,7.0,6.0,-16.0,-2.0,24.0,7.0,-6.0,-2.0,2.372828245162964
474,-43.0,4.0,-6.0,0.0,-6598.0,-13011.0,1674.0,-7270.0,2.0,5.0,10.0,2.0,28.0,14.0,-18.0,3.0,2.375265598297119
475,-43.0,4.0,-6.0,0.0,-6598.0,-13011.0,1674.0,-7270.0,-17.0,-22.0,-8.0,-1.0,-8.0,25.0,26.0,-4.0,2.3892529010772705
476,-51.0,-7.0,-11.0,0.0,-6602.0,-13013.0,1677.0,-7262.0,-17.0,-22.0,-8.0,-1.0,-8.0,25.0,26.0,-4.0,2.3936214447021484
477,-51.0,-7.0,-11.0,0.0,-6602.0,-13013.0,1677.0,-7262.0,15.0,19.0,27.0,-3.0,36.0,11.0,-30.0,2.0,2.398510694503784
478,-51.0,-7.0,-11.0,0.0,-6602.0,-13013.0,1677.0,-7262.0,-3.0,9.0,-23.0,-3.0,60.0,4.0,18.0,0.0,2.412902355194092
479,-85.0,-17.0,-1.0,0.0,-6609.0,-13014.0,1685.0,-7252.0,-3.0,9.0,-23.0,-3.0,60.0,4.0,18.0,0.0,2.41829514503479
480,-85.0,-17.0,-1.0,0.0,-6609.0,-13014.0,1685.0,-7252.0,-10.0,27.0,105.0,12.0,-11.0,-8.0,19.0,3.0,2.423166513442993
481,-85.0,-17.0,-1.0,0.0,-6609.0,-13014.0,1685.0,-7252.0,27.0,30.0,-12.0,-18.0,9.0,13.0,-5.0,8.0,2.4258196353912354
482,-90.0,-23.0,-1.0,0.0,-6615.0,-13013.0,1696.0,-7245.0,27.0,30.0,-12.0,-18.0,9.0,13.0,-5.0,8.0,2.433290719985962
483,-90.0,-23.0,-1.0,0.0,-6615.0,-13013.0,1696.0,-7245.0,-6.0,-1.0,12.0,-5.0,42.0,24.0,-18.0,1.0,2.436230182647705
484,-90.0,-23.0,-1.0,0.0,-6615.0,-13013.0,1696.0,-7245.0,-4.0,4.0,21.0,18.0,-24.0,-1.0,4.0,0.0,2.4479053020477295
485,-81.0,-50.0,0.0,0.0,-6623.0,-13012.0,1709.0,-7237.0,-4.0,4.0,21.0,18.0,-24.0,-1.0,4.0,0.0,2.450327157974243
486,-81.0,-50.0,0.0,0.0,-6623.0,-13012.0,1709.0,-7237.0,17.0,12.0,-35.0,3.0,-44.0,-3.0,11.0,23.0,2.455409288406372
487,-81.0,-50.0,0.0,0.0,-6623.0,-13012.0,1709.0,-7237.0,-15.0,-34.0,-43.0,19.0,32.0,18.0,2.0,-2.0,2.4713737964630127
488,-51.0,-51.0,13.0,0.0,-6625.0,-13014.0,1719.0,-7228.0,-15.0,-34.0,-43.0,19.0,32.0,18.0,2.0,-2.0,2.4738428592681885
489,-51.0,-51.0,13.0,0.0,-6625.0,-13014.0,1719.0,-7228.0,5.0,11.0,8.0,2.0,-24.0,-12.0,2.0,-2.0,2.4763152599334717
490,-51.0,-51.0,13.0,0.0,-6625.0,-13014.0,1719.0,-7228.0,-4.0,13.0,33.0,7.0,32.0,20.0,26.0,-3.0,2.4851303100585938
491,-55.0,-33.0,22.0,0.0,-6628.0,-13016.0,1728.0,-7219.0,-4.0,13.0,33.0,7.0,32.0,20.0,26.0,-3.0,2.493511915206909
492,-55.0,-33.0,22.0,0.0,-6628.0,-13016.0,1728.0,-7219.0,-9.0,-45.0,-44.0,-4.0,44.0,7.0,-15.0,-11.0,2.4963173866271973
493,-55.0,-33.0,22.0,0.0,-6628.0,-13016.0,1728.0,-7219.0,6.0,-4.0,-10.0,-9.0,-34.0,-1.0,-21.0,-1.0,2.5080058574676514
494,-81.0,0.0,40.0,0.0,-6634.0,-13013.0,1740.0,-7217.0,6.0,-4.0,-10.0,-9.0,-34.0,-1.0,-21.0,-1.0,2.5103518962860107
495,-81.0,0.0,40.0,0.0,-6634.0,-13013.0,1740.0,-7217.0,-5.0,14.0,26.0,22.0,-33.0,-11.0,-9.0,-9.0,2.515019655227661
496,-81.0,0.0,40.0,0.0,-6634.0,-13013.0,1740.0,-7217.0,-7.0,-18.0,-3.0,-12.0,38.0,2.0,8.0,8.0,2.532148599624634
497,-67.0,6.0,43.0,0.0,-6637.0,-13009.0,1753.0,-7219.0,-7.0,-18.0,-3.0,-12.0,38.0,2.0,8.0,8.0,2.536198377609253
498,-67.0,6.0,43.0,0.0,-6637.0,-13009.0,1753.0,-7219.0,1.0,-21.0,-60.0,-42.0,-82.0,-22.0,-41.0,-16.0,2.540540933609009
499,-67.0,6.0,43.0,0.0,-6637.0,-13009.0,1753.0,-7219.0,6.0,-6.0,45.0,-10.0,20.0,-12.0,17.0,7.0,2.544989585876465
