,Gyro 0,Gyro 1,Gyro 2,Label,Orientation 0,Orientation 1,Orientation 2,Orientation 3,Sensor 0,Sensor 1,Sensor 2,Sensor 3,Sensor 4,Sensor 5,Sensor 6,Sensor 7,Timestamp
0,-135.0,132.0,294.0,0.0,-9202.0,-11947.0,5997.0,-2257.0,-2.0,-7.0,-7.0,-1.0,5.0,1.0,3.0,0.0,1.6689300537109375e-06
1,-135.0,132.0,294.0,0.0,-9202.0,-11947.0,5997.0,-2257.0,1.0,5.0,-1.0,2.0,-19.0,-1.0,6.0,1.0,0.0028290748596191406
2,-135.0,132.0,294.0,0.0,-9202.0,-11947.0,5997.0,-2257.0,4.0,4.0,2.0,-6.0,-7.0,-8.0,-6.0,1.0,0.005415678024291992
3,-212.0,140.0,344.0,0.0,-9234.0,-11904.0,6023.0,-2281.0,4.0,4.0,2.0,-6.0,-7.0,-8.0,-6.0,1.0,0.007836103439331055
4,-212.0,140.0,344.0,0.0,-9234.0,-11904.0,6023.0,-2281.0,-2.0,-4.0,-8.0,0.0,7.0,3.0,-1.0,0.0,0.010196447372436523
5,-212.0,140.0,344.0,0.0,-9234.0,-11904.0,6023.0,-2281.0,-3.0,-13.0,-13.0,3.0,4.0,4.0,3.0,-1.0,0.012741327285766602
6,-326.0,108.0,355.0,0.0,-9273.0,-11852.0,6060.0,-2297.0,-3.0,-13.0,-13.0,3.0,4.0,4.0,3.0,-1.0,0.015089988708496094
7,-326.0,108.0,355.0,0.0,-9273.0,-11852.0,6060.0,-2297.0,2.0,-3.0,-4.0,-2.0,2.0,4.0,4.0,0.0,0.01766800880432129
8,-326.0,108.0,355.0,0.0,-9273.0,-11852.0,6060.0,-2297.0,-2.0,-17.0,-32.0,-6.0,-12.0,-2.0,0.0,0.0,0.020163774490356445
9,-452.0,52.0,312.0,0.0,-9323.0,-11788.0,6106.0,-2301.0,-2.0,-17.0,-32.0,-6.0,-12.0,-2.0,0.0,0.0,0.02312636375427246
10,-452.0,52.0,312.0,0.0,-9323.0,-11788.0,6106.0,-2301.0,-4.0,-1.0,-2.0,1.0,-17.0,-6.0,-5.0,-2.0,0.025973081588745117
11,-452.0,52.0,312.0,0.0,-9323.0,-11788.0,6106.0,-2301.0,-8.0,2.0,25.0,3.0,4.0,0.0,-4.0,-6.0,0.028284549713134766
12,-506.0,5.0,260.0,0.0,-9375.0,-11719.0,6159.0,-2302.0,-8.0,2.0,25.0,3.0,4.0,0.0,-4.0,-6.0,0.030580759048461914
13,-506.0,5.0,260.0,0.0,-9375.0,-11719.0,6159.0,-2302.0,0.0,-1.0,2.0,1.0,9.0,2.0,5.0,1.0,0.032881736755371094
14,-506.0,5.0,260.0,0.0,-9375.0,-11719.0,6159.0,-2302.0,-5.0,-4.0,-2.0,7.0,9.0,5.0,1.0,-2.0,0.03514456748962402
15,-476.0,-9.0,226.0,0.0,-9422.0,-11654.0,6210.0,-2303.0,-5.0,-4.0,-2.0,7.0,9.0,5.0,1.0,-2.0,0.03739619255065918
16,-476.0,-9.0,226.0,0.0,-9422.0,-11654.0,6210.0,-2303.0,1.0,10.0,14.0,0.0,-13.0,2.0,-7.0,-2.0,0.039743661880493164
17,-476.0,-9.0,226.0,0.0,-9422.0,-11654.0,6210.0,-2303.0,-2.0,2.0,0.0,-2.0,-11.0,-5.0,-3.0,-1.0,0.04204297065734863
18,-377.0,-24.0,198.0,0.0,-9455.0,-11599.0,6259.0,-2310.0,-2.0,2.0,0.0,-2.0,-11.0,-5.0,-3.0,-1.0,0.044275522232055664
19,-377.0,-24.0,198.0,0.0,-9455.0,-11599.0,6259.0,-2310.0,4.0,-2.0,-15.0,-8.0,1.0,0.0,0.0,3.0,0.04662346839904785
20,-377.0,-24.0,198.0,0.0,-9455.0,-11599.0,6259.0,-2310.0,-2.0,12.0,19.0,-1.0,1.0,6.0,-2.0,-1.0,0.0488591194152832
21,-283.0,-45.0,162.0,0.0,-9475.0,-11558.0,6303.0,-2316.0,-2.0,12.0,19.0,-1.0,1.0,6.0,-2.0,-1.0,0.05109429359436035
22,-283.0,-45.0,162.0,0.0,-9475.0,-11558.0,6303.0,-2316.0,1.0,1.0,0.0,-2.0,-9.0,-3.0,-4.0,1.0,0.05402112007141113
23,-283.0,-45.0,162.0,0.0,-9475.0,-11558.0,6303.0,-2316.0,7.0,10.0,0.0,-2.0,16.0,-5.0,16.0,4.0,0.05660247802734375
24,-221.0,-43.0,134.0,0.0,-9491.0,-11524.0,6340.0,-2321.0,7.0,10.0,0.0,-2.0,16.0,-5.0,16.0,4.0,0.05906510353088379
25,-221.0,-43.0,134.0,0.0,-9491.0,-11524.0,6340.0,-2321.0,-6.0,-7.0,-1.0,-1.0,8.0,2.0,-3.0,-2.0,0.06144833564758301
26,-221.0,-43.0,134.0,0.0,-9491.0,-11524.0,6340.0,-2321.0,-2.0,-18.0,-19.0,-4.0,-13.0,-2.0,-3.0,-2.0,0.06376314163208008
27,-102.0,-26.0,107.0,0.0,-9493.0,-11506.0,6366.0,-2330.0,-2.0,-18.0,-19.0,-4.0,-13.0,-2.0,-3.0,-2.0,0.0659940242767334
28,-102.0,-26.0,107.0,0.0,-9493.0,-11506.0,6366.0,-2330.0,6.0,1.0,-9.0,-4.0,9.0,3.0,6.0,2.0,0.06833314895629883
29,-102.0,-26.0,107.0,0.0,-9493.0,-11506.0,6366.0,-2330.0,5.0,13.0,26.0,6.0,-5.0,-1.0,-1.0,2.0,0.07059836387634277
30,-12.0,-33.0,54.0,0.0,-9486.0,-11503.0,6380.0,-2333.0,5.0,13.0,26.0,6.0,-5.0,-1.0,-1.0,2.0,0.07283329963684082
31,-12.0,-33.0,54.0,0.0,-9486.0,-11503.0,6380.0,-2333.0,-7.0,-2.0,0.0,4.0,-2.0,5.0,1.0,-2.0,0.0751497745513916
32,-12.0,-33.0,54.0,0.0,-9486.0,-11503.0,6380.0,-2333.0,2.0,8.0,-2.0,-9.0,-29.0,-6.0,-9.0,-1.0,0.07740211486816406
33,39.0,-62.0,33.0,0.0,-9471.0,-11511.0,6391.0,-2329.0,2.0,8.0,-2.0,-9.0,-29.0,-6.0,-9.0,-1.0,0.07963061332702637
34,39.0,-62.0,33.0,0.0,-9471.0,-11511.0,6391.0,-2329.0,-1.0,1.0,0.0,1.0,-7.0,-3.0,-2.0,1.0,0.08195686340332031
35,39.0,-62.0,33.0,0.0,-9471.0,-11511.0,6391.0,-2329.0,-1.0,-2.0,-19.0,-2.0,7.0,2.0,-12.0,2.0,0.0847465991973877
36,44.0,-84.0,28.0,0.0,-9457.0,-11517.0,6402.0,-2323.0,-1.0,-2.0,-19.0,-2.0,7.0,2.0,-12.0,2.0,0.08749079704284668
37,44.0,-84.0,28.0,0.0,-9457.0,-11517.0,6402.0,-2323.0,-6.0,-6.0,18.0,0.0,-2.0,-5.0,0.0,-4.0,0.08997082710266113
38,44.0,-84.0,28.0,0.0,-9457.0,-11517.0,6402.0,-2323.0,-4.0,-7.0,-2.0,0.0,5.0,-1.0,-7.0,-3.0,0.09225583076477051
39,63.0,-79.0,22.0,0.0,-9440.0,-11525.0,6414.0,-2321.0,-4.0,-7.0,-2.0,0.0,5.0,-1.0,-7.0,-3.0,0.09451985359191895
40,63.0,-79.0,22.0,0.0,-9440.0,-11525.0,6414.0,-2321.0,-6.0,-9.0,2.0,3.0,3.0,-2.0,-2.0,-4.0,0.09684610366821289
41,63.0,-79.0,22.0,0.0,-9440.0,-11525.0,6414.0,-2321.0,7.0,3.0,-18.0,-3.0,-11.0,1.0,3.0,1.0,0.09915661811828613
42,71.0,-79.0,39.0,0.0,-9422.0,-11534.0,6425.0,-2319.0,7.0,3.0,-18.0,-3.0,-11.0,1.0,3.0,1.0,0.1015024185180664
43,71.0,-79.0,39.0,0.0,-9422.0,-11534.0,6425.0,-2319.0,-5.0,-4.0,-5.0,1.0,7.0,0.0,-2.0,-5.0,0.10383343696594238
44,71.0,-79.0,39.0,0.0,-9422.0,-11534.0,6425.0,-2319.0,3.0,3.0,11.0,2.0,3.0,-1.0,1.0,1.0,0.10609078407287598
45,52.0,-68.0,48.0,0.0,-9409.0,-11538.0,6437.0,-2319.0,3.0,3.0,11.0,2.0,3.0,-1.0,1.0,1.0,0.1083686351776123
46,52.0,-68.0,48.0,0.0,-9409.0,-11538.0,6437.0,-2319.0,-1.0,2.0,-9.0,-2.0,-13.0,1.0,-2.0,-3.0,0.11070466041564941
47,52.0,-68.0,48.0,0.0,-9409.0,-11538.0,6437.0,-2319.0,-4.0,-1.0,4.0,-5.0,-4.0,-2.0,-5.0,0.0,0.11295890808105469
48,96.0,-59.0,74.0,0.0,-9388.0,-11543.0,6453.0,-2329.0,-4.0,-1.0,4.0,-5.0,-4.0,-2.0,-5.0,0.0,0.11527681350708008
49,96.0,-59.0,74.0,0.0,-9388.0,-11543.0,6453.0,-2329.0,-1.0,3.0,18.0,2.0,15.0,-4.0,-5.0,-1.0,0.11821103096008301
50,96.0,-59.0,74.0,0.0,-9388.0,-11543.0,6453.0,-2329.0,4.0,9.0,34.0,1.0,16.0,1.0,11.0,-1.0,0.12087368965148926
51,131.0,-70.0,84.0,0.0,-9363.0,-11554.0,6468.0,-2338.0,4.0,9.0,34.0,1.0,16.0,1.0,11.0,-1.0,0.12319493293762207
52,131.0,-70.0,84.0,0.0,-9363.0,-11554.0,6468.0,-2338.0,6.0,7.0,0.0,-3.0,12.0,8.0,-1.0,2.0,0.1255629062652588
53,131.0,-70.0,84.0,0.0,-9363.0,-11554.0,6468.0,-2338.0,-9.0,-9.0,-5.0,-8.0,1.0,-9.0,-6.0,-6.0,0.1278243064880371
54,100.0,-70.0,96.0,0.0,-9342.0,-11559.0,6485.0,-2347.0,-9.0,-9.0,-5.0,-8.0,1.0,-9.0,-6.0,-6.0,0.13016462326049805
55,100.0,-70.0,96.0,0.0,-9342.0,-11559.0,6485.0,-2347.0,4.0,-2.0,3.0,-1.0,-4.0,-3.0,-1.0,-4.0,0.132584810256958
56,100.0,-70.0,96.0,0.0,-9342.0,-11559.0,6485.0,-2347.0,-5.0,-11.0,-6.0,1.0,0.0,2.0,3.0,2.0,0.13487887382507324
57,79.0,-67.0,96.0,0.0,-9326.0,-11561.0,6502.0,-2355.0,-5.0,-11.0,-6.0,1.0,0.0,2.0,3.0,2.0,0.13713431358337402
58,79.0,-67.0,96.0,0.0,-9326.0,-11561.0,6502.0,-2355.0,-5.0,-10.0,-14.0,-4.0,-18.0,-1.0,3.0,-1.0,0.13958454132080078
59,79.0,-67.0,96.0,0.0,-9326.0,-11561.0,6502.0,-2355.0,-9.0,-15.0,-21.0,3.0,2.0,0.0,-4.0,-6.0,0.14186835289001465
60,92.0,-68.0,98.0,0.0,-9308.0,-11564.0,6519.0,-2364.0,-9.0,-15.0,-21.0,3.0,2.0,0.0,-4.0,-6.0,0.14411091804504395
61,92.0,-68.0,98.0,0.0,-9308.0,-11564.0,6519.0,-2364.0,8.0,-3.0,-17.0,2.0,13.0,3.0,1.0,2.0,0.14670062065124512
62,92.0,-68.0,98.0,0.0,-9308.0,-11564.0,6519.0,-2364.0,-1.0,0.0,-4.0,-3.0,-15.0,0.0,1.0,0.0,0.1495664119720459
63,100.0,-37.0,95.0,0.0,-9291.0,-11567.0,6532.0,-2377.0,-1.0,0.0,-4.0,-3.0,-15.0,0.0,1.0,0.0,0.15212583541870117
64,100.0,-37.0,95.0,0.0,-9291.0,-11567.0,6532.0,-2377.0,-9.0,-8.0,12.0,3.0,-4.0,1.0,-1.0,-2.0,0.15453577041625977
65,100.0,-37.0,95.0,0.0,-9291.0,-11567.0,6532.0,-2377.0,-2.0,-9.0,-7.0,3.0,25.0,0.0,-9.0,0.0,0.15678715705871582
66,94.0,-18.0,96.0,0.0,-9277.0,-11570.0,6543.0,-2390.0,-2.0,-9.0,-7.0,3.0,25.0,0.0,-9.0,0.0,0.15909171104431152
67,94.0,-18.0,96.0,0.0,-9277.0,-11570.0,6543.0,-2390.0,-4.0,-9.0,-9.0,-6.0,-1.0,-10.0,-15.0,-6.0,0.16160917282104492
68,94.0,-18.0,96.0,0.0,-9277.0,-11570.0,6543.0,-2390.0,1.0,12.0,21.0,1.0,5.0,1.0,3.0,0.0,0.163862943649292
69,67.0,-6.0,88.0,0.0,-9269.0,-11571.0,6550.0,-2401.0,1.0,12.0,21.0,1.0,5.0,1.0,3.0,0.0,0.16620349884033203
70,67.0,-6.0,88.0,0.0,-9269.0,-11571.0,6550.0,-2401.0,0.0,-6.0,-7.0,-1.0,-13.0,1.0,3.0,1.0,0.16856098175048828
71,67.0,-6.0,88.0,0.0,-9269.0,-11571.0,6550.0,-2401.0,3.0,31.0,14.0,-1.0,2.0,-1.0,0.0,0.0,0.17086386680603027
72,52.0,11.0,76.0,0.0,-9264.0,-11570.0,6553.0,-2411.0,3.0,31.0,14.0,-1.0,2.0,-1.0,0.0,0.0,0.17311358451843262
73,52.0,11.0,76.0,0.0,-9264.0,-11570.0,6553.0,-2411.0,-1.0,9.0,6.0,-3.0,6.0,3.0,3.0,1.0,0.1755387783050537
74,52.0,11.0,76.0,0.0,-9264.0,-11570.0,6553.0,-2411.0,0.0,-10.0,-2.0,-4.0,-4.0,-3.0,1.0,-1.0,0.17794346809387207
75,38.0,10.0,79.0,0.0,-9257.0,-11570.0,6561.0,-2421.0,0.0,-10.0,-2.0,-4.0,-4.0,-3.0,1.0,-1.0,0.1807260513305664
76,38.0,10.0,79.0,0.0,-9257.0,-11570.0,6561.0,-2421.0,0.0,-10.0,-28.0,-6.0,-4.0,0.0,0.0,1.0,0.18361759185791016
77,38.0,10.0,79.0,0.0,-9257.0,-11570.0,6561.0,-2421.0,0.0,-4.0,-4.0,1.0,-3.0,-1.0,0.0,-1.0,0.18596649169921875
78,42.0,-11.0,71.0,0.0,-9247.0,-11572.0,6569.0,-2426.0,0.0,-4.0,-4.0,1.0,-3.0,-1.0,0.0,-1.0,0.18841266632080078
79,42.0,-11.0,71.0,0.0,-9247.0,-11572.0,6569.0,-2426.0,-3.0,-9.0,-2.0,0.0,4.0,6.0,3.0,2.0,0.19086050987243652
80,42.0,-11.0,71.0,0.0,-9247.0,-11572.0,6569.0,-2426.0,-6.0,-9.0,3.0,10.0,5.0,-8.0,6.0,-2.0,0.19314002990722656
81,16.0,-17.0,77.0,0.0,-9238.0,-11573.0,6579.0,-2428.0,-6.0,-9.0,3.0,10.0,5.0,-8.0,6.0,-2.0,0.19542717933654785
82,16.0,-17.0,77.0,0.0,-9238.0,-11573.0,6579.0,-2428.0,-5.0,10.0,10.0,-1.0,-8.0,-5.0,2.0,-3.0,0.19777536392211914
83,16.0,-17.0,77.0,0.0,-9238.0,-11573.0,6579.0,-2428.0,-2.0,-7.0,-18.0,0.0,4.0,2.0,-1.0,0.0,0.20004534721374512
84,-21.0,17.0,75.0,0.0,-9235.0,-11569.0,6589.0,-2433.0,-2.0,-7.0,-18.0,0.0,4.0,2.0,-1.0,0.0,0.2023007869720459
85,-21.0,17.0,75.0,0.0,-9235.0,-11569.0,6589.0,-2433.0,-4.0,8.0,17.0,2.0,4.0,2.0,-10.0,-2.0,0.2046358585357666
86,-21.0,17.0,75.0,0.0,-9235.0,-11569.0,6589.0,-2433.0,-6.0,-14.0,-17.0,-8.0,-36.0,-2.0,-7.0,-5.0,0.20693302154541016
87,13.0,22.0,67.0,0.0,-9228.0,-11569.0,6596.0,-2441.0,-6.0,-14.0,-17.0,-8.0,-36.0,-2.0,-7.0,-5.0,0.2092275619506836
88,13.0,22.0,67.0,0.0,-9228.0,-11569.0,6596.0,-2441.0,2.0,0.0,3.0,-1.0,-9.0,-2.0,3.0,1.0,0.21198391914367676
89,13.0,22.0,67.0,0.0,-9228.0,-11569.0,6596.0,-2441.0,1.0,12.0,18.0,2.0,9.0,5.0,1.0,2.0,0.21460676193237305
90,52.0,6.0,62.0,0.0,-9214.0,-11573.0,6603.0,-2450.0,1.0,12.0,18.0,2.0,9.0,5.0,1.0,2.0,0.2168893814086914
91,52.0,6.0,62.0,0.0,-9214.0,-11573.0,6603.0,-2450.0,-2.0,-3.0,4.0,2.0,2.0,-4.0,-3.0,-2.0,0.21924901008605957
92,52.0,6.0,62.0,0.0,-9214.0,-11573.0,6603.0,-2450.0,7.0,-4.0,-24.0,1.0,1.0,6.0,6.0,2.0,0.2215585708618164
93,56.0,3.0,46.0,0.0,-9204.0,-11577.0,6607.0,-2457.0,7.0,-4.0,-24.0,1.0,1.0,6.0,6.0,2.0,0.22382855415344238
94,56.0,3.0,46.0,0.0,-9204.0,-11577.0,6607.0,-2457.0,-1.0,-12.0,-6.0,-3.0,-8.0,-8.0,-9.0,-2.0,0.22624659538269043
95,56.0,3.0,46.0,0.0,-9204.0,-11577.0,6607.0,-2457.0,12.0,30.0,5.0,-5.0,16.0,5.0,7.0,4.0,0.22854018211364746
96,55.0,13.0,53.0,0.0,-9196.0,-11580.0,6611.0,-2468.0,12.0,30.0,5.0,-5.0,16.0,5.0,7.0,4.0,0.23079609870910645
97,55.0,13.0,53.0,0.0,-9196.0,-11580.0,6611.0,-2468.0,-2.0,-9.0,7.0,3.0,-3.0,1.0,8.0,-1.0,0.23311066627502441
98,55.0,13.0,53.0,0.0,-9196.0,-11580.0,6611.0,-2468.0,-1.0,3.0,15.0,-2.0,-5.0,3.0,-16.0,-1.0,0.23535728454589844
99,57.0,5.0,49.0,0.0,-9190.0,-11582.0,6613.0,-2475.0,-1.0,3.0,15.0,-2.0,-5.0,3.0,-16.0,-1.0,0.2377166748046875
100,57.0,5.0,49.0,0.0,-9190.0,-11582.0,6613.0,-2475.0,3.0,23.0,20.0,3.0,6.0,-2.0,3.0,0.0,0.2400515079498291
101,57.0,5.0,49.0,0.0,-9190.0,-11582.0,6613.0,-2475.0,3.0,1.0,-14.0,-2.0,13.0,-2.0,4.0,-1.0,0.24268865585327148
102,48.0,-11.0,49.0,0.0,-9184.0,-11583.0,6617.0,-2481.0,3.0,1.0,-14.0,-2.0,13.0,-2.0,4.0,-1.0,0.2453746795654297
103,48.0,-11.0,49.0,0.0,-9184.0,-11583.0,6617.0,-2481.0,6.0,0.0,-18.0,-5.0,-3.0,2.0,6.0,3.0,0.24774527549743652
104,48.0,-11.0,49.0,0.0,-9184.0,-11583.0,6617.0,-2481.0,-6.0,-10.0,1.0,-3.0,-11.0,-9.0,-3.0,-3.0,0.24999189376831055
105,33.0,-9.0,54.0,0.0,-9179.0,-11583.0,6622.0,-2485.0,-6.0,-10.0,1.0,-3.0,-11.0,-9.0,-3.0,-3.0,0.2522306442260742
106,33.0,-9.0,54.0,0.0,-9179.0,-11583.0,6622.0,-2485.0,-5.0,-12.0,-7.0,6.0,19.0,7.0,3.0,-2.0,0.25457763671875
107,33.0,-9.0,54.0,0.0,-9179.0,-11583.0,6622.0,-2485.0,-3.0,-2.0,3.0,2.0,-45.0,-10.0,1.0,-2.0,0.2568178176879883
108,9.0,-14.0,53.0,0.0,-9176.0,-11581.0,6628.0,-2487.0,-3.0,-2.0,3.0,2.0,-45.0,-10.0,1.0,-2.0,0.2590615749359131
109,9.0,-14.0,53.0,0.0,-9176.0,-11581.0,6628.0,-2487.0,-1.0,4.0,6.0,-2.0,6.0,-8.0,-19.0,0.0,0.2614147663116455
110,9.0,-14.0,53.0,0.0,-9176.0,-11581.0,6628.0,-2487.0,-4.0,-3.0,2.0,0.0,-8.0,0.0,-5.0,-3.0,0.2636549472808838
111,-25.0,-6.0,48.0,0.0,-9178.0,-11577.0,6634.0,-2487.0,-4.0,-3.0,2.0,0.0,-8.0,0.0,-5.0,-3.0,0.26595377922058105
112,-25.0,-6.0,48.0,0.0,-9178.0,-11577.0,6634.0,-2487.0,1.0,6.0,-2.0,-2.0,-10.0,0.0,11.0,-1.0,0.26828813552856445
113,-25.0,-6.0,48.0,0.0,-9178.0,-11577.0,6634.0,-2487.0,7.0,-2.0,-15.0,0.0,12.0,2.0,5.0,2.0,0.2705550193786621
114,-40.0,0.0,48.0,0.0,-9183.0,-11570.0,6639.0,-2487.0,7.0,-2.0,-15.0,0.0,12.0,2.0,5.0,2.0,0.2729613780975342
115,-40.0,0.0,48.0,0.0,-9183.0,-11570.0,6639.0,-2487.0,5.0,4.0,-1.0,-5.0,-4.0,-5.0,-5.0,1.0,0.27571558952331543
116,-40.0,0.0,48.0,0.0,-9183.0,-11570.0,6639.0,-2487.0,-8.0,-11.0,-1.0,-3.0,-7.0,-1.0,-2.0,-2.0,0.2781057357788086
117,-6.0,-5.0,47.0,0.0,-9179.0,-11569.0,6646.0,-2487.0,-8.0,-11.0,-1.0,-3.0,-7.0,-1.0,-2.0,-2.0,0.28183603286743164
118,-6.0,-5.0,47.0,0.0,-9179.0,-11569.0,6646.0,-2487.0,-2.0,-1.0,-6.0,1.0,3.0,1.0,-3.0,-1.0,0.2841622829437256
119,-6.0,-5.0,47.0,0.0,-9179.0,-11569.0,6646.0,-2487.0,-2.0,-22.0,-21.0,-1.0,3.0,-2.0,-2.0,0.0,0.28883814811706543
120,-8.0,-7.0,45.0,0.0,-9176.0,-11569.0,6651.0,-2485.0,-2.0,-22.0,-21.0,-1.0,3.0,-2.0,-2.0,0.0,0.3059525489807129
121,-8.0,-7.0,45.0,0.0,-9176.0,-11569.0,6651.0,-2485.0,9.0,19.0,-14.0,-8.0,1.0,3.0,4.0,4.0,0.31041741371154785
122,-8.0,-7.0,45.0,0.0,-9176.0,-11569.0,6651.0,-2485.0,-3.0,4.0,11.0,-7.0,-8.0,-7.0,-8.0,-5.0,0.3143432140350342
123,-31.0,19.0,28.0,0.0,-9178.0,-11566.0,6653.0,-2485.0,-3.0,4.0,11.0,-7.0,-8.0,-7.0,-8.0,-5.0,0.32918453216552734
124,-31.0,19.0,28.0,0.0,-9178.0,-11566.0,6653.0,-2485.0,-6.0,-13.0,-5.0,-3.0,0.0,1.0,-1.0,-3.0,0.3333587646484375
125,-31.0,19.0,28.0,0.0,-9178.0,-11566.0,6653.0,-2485.0,1.0,1.0,21.0,4.0,5.0,1.0,2.0,0.0,0.33750081062316895
126,-20.0,23.0,39.0,0.0,-9179.0,-11564.0,6655.0,-2487.0,1.0,1.0,21.0,4.0,5.0,1.0,2.0,0.0,0.34246015548706055
127,-20.0,23.0,39.0,0.0,-9179.0,-11564.0,6655.0,-2487.0,-4.0,8.0,30.0,-3.0,-10.0,-3.0,-2.0,-1.0,0.3447868824005127
128,-20.0,23.0,39.0,0.0,-9179.0,-11564.0,6655.0,-2487.0,-6.0,0.0,12.0,4.0,6.0,0.0,0.0,-3.0,0.349090576171875
129,-23.0,31.0,30.0,0.0,-9183.0,-11560.0,6656.0,-2490.0,-6.0,0.0,12.0,4.0,6.0,0.0,0.0,-3.0,0.3660471439361572
130,-23.0,31.0,30.0,0.0,-9183.0,-11560.0,6656.0,-2490.0,1.0,7.0,3.0,1.0,-1.0,-1.0,0.0,1.0,0.37157416343688965
131,-23.0,31.0,30.0,0.0,-9183.0,-11560.0,6656.0,-2490.0,-4.0,-8.0,4.0,1.0,14.0,6.0,-2.0,-1.0,0.376375675201416
132,-14.0,21.0,27.0,0.0,-9183.0,-11557.0,6658.0,-2493.0,-4.0,-8.0,4.0,1.0,14.0,6.0,-2.0,-1.0,0.3881113529205322
133,-14.0,21.0,27.0,0.0,-9183.0,-11557.0,6658.0,-2493.0,5.0,21.0,0.0,0.0,7.0,0.0,-7.0,1.0,0.39044880867004395
134,-14.0,21.0,27.0,0.0,-9183.0,-11557.0,6658.0,-2493.0,5.0,15.0,17.0,-8.0,-25.0,-5.0,-2.0,0.0,0.39271044731140137
135,-7.0,23.0,17.0,0.0,-9183.0,-11556.0,6659.0,-2497.0,5.0,15.0,17.0,-8.0,-25.0,-5.0,-2.0,0.0,0.4114811420440674
136,-7.0,23.0,17.0,0.0,-9183.0,-11556.0,6659.0,-2497.0,0.0,-8.0,-6.0,2.0,1.0,1.0,0.0,1.0,0.41553735733032227
137,-7.0,23.0,17.0,0.0,-9183.0,-11556.0,6659.0,-2497.0,-5.0,-14.0,-11.0,2.0,9.0,0.0,-5.0,-2.0,0.419464111328125
138,-5.0,32.0,26.0,0.0,-9184.0,-11555.0,6658.0,-2500.0,-5.0,-14.0,-11.0,2.0,9.0,0.0,-5.0,-2.0,0.42534852027893066
139,-5.0,32.0,26.0,0.0,-9184.0,-11555.0,6658.0,-2500.0,-1.0,-3.0,3.0,0.0,3.0,1.0,2.0,-2.0,0.42766714096069336
140,-5.0,32.0,26.0,0.0,-9184.0,-11555.0,6658.0,-2500.0,11.0,26.0,16.0,0.0,7.0,1.0,8.0,3.0,0.42993807792663574
141,-16.0,39.0,23.0,0.0,-9187.0,-11552.0,6657.0,-2505.0,11.0,26.0,16.0,0.0,7.0,1.0,8.0,3.0,0.44803929328918457
142,-16.0,39.0,23.0,0.0,-9187.0,-11552.0,6657.0,-2505.0,-1.0,-8.0,-17.0,-4.0,-16.0,-3.0,-10.0,-4.0,0.4503629207611084
143,-16.0,39.0,23.0,0.0,-9187.0,-11552.0,6657.0,-2505.0,-8.0,-9.0,-14.0,1.0,4.0,-1.0,-2.0,-2.0,0.4526031017303467
144,1.0,33.0,21.0,0.0,-9188.0,-11552.0,6656.0,-2508.0,-8.0,-9.0,-14.0,1.0,4.0,-1.0,-2.0,-2.0,0.4708409309387207
145,1.0,33.0,21.0,0.0,-9188.0,-11552.0,6656.0,-2508.0,-5.0,-9.0,4.0,2.0,1.0,-1.0,4.0,-1.0,0.47318220138549805
146,1.0,33.0,21.0,0.0,-9188.0,-11552.0,6656.0,-2508.0,7.0,-2.0,-14.0,-3.0,6.0,4.0,4.0,3.0,0.4754199981689453
147,-8.0,30.0,18.0,0.0,-9190.0,-11550.0,6655.0,-2512.0,7.0,-2.0,-14.0,-3.0,6.0,4.0,4.0,3.0,0.4933466911315918
148,-8.0,30.0,18.0,0.0,-9190.0,-11550.0,6655.0,-2512.0,-4.0,-6.0,1.0,-3.0,-39.0,-8.0,-6.0,-3.0,0.4960954189300537
149,-8.0,30.0,18.0,0.0,-9190.0,-11550.0,6655.0,-2512.0,-8.0,-6.0,-1.0,1.0,-17.0,-6.0,-10.0,-5.0,0.49854421615600586
150,5.0,33.0,11.0,0.0,-9188.0,-11552.0,6652.0,-2514.0,-8.0,-6.0,-1.0,1.0,-17.0,-6.0,-10.0,-5.0,0.5074419975280762
151,5.0,33.0,11.0,0.0,-9188.0,-11552.0,6652.0,-2514.0,-3.0,-8.0,0.0,2.0,8.0,0.0,0.0,-2.0,0.509765625
152,5.0,33.0,11.0,0.0,-9188.0,-11552.0,6652.0,-2514.0,0.0,4.0,-3.0,-1.0,3.0,4.0,3.0,2.0,0.5139389038085938
153,3.0,26.0,10.0,0.0,-9188.0,-11553.0,6651.0,-2516.0,0.0,4.0,-3.0,-1.0,3.0,4.0,3.0,2.0,0.53067946434021
154,3.0,26.0,10.0,0.0,-9188.0,-11553.0,6651.0,-2516.0,-4.0,-10.0,3.0,2.0,8.0,-1.0,-3.0,-4.0,0.5330195426940918
155,3.0,26.0,10.0,0.0,-9188.0,-11553.0,6651.0,-2516.0,12.0,14.0,-13.0,-2.0,5.0,2.0,9.0,6.0,0.5352792739868164
156,15.0,34.0,-4.0,0.0,-9187.0,-11555.0,6646.0,-2520.0,12.0,14.0,-13.0,-2.0,5.0,2.0,9.0,6.0,0.5530383586883545
157,15.0,34.0,-4.0,0.0,-9187.0,-11555.0,6646.0,-2520.0,-7.0,-14.0,-10.0,-4.0,12.0,-3.0,-10.0,-5.0,0.5553913116455078
158,15.0,34.0,-4.0,0.0,-9187.0,-11555.0,6646.0,-2520.0,-7.0,-6.0,-2.0,-2.0,-8.0,-6.0,-5.0,-4.0,0.5581808090209961
159,28.0,42.0,-4.0,0.0,-9185.0,-11560.0,6640.0,-2523.0,-7.0,-6.0,-2.0,-2.0,-8.0,-6.0,-5.0,-4.0,0.5681822299957275
160,28.0,42.0,-4.0,0.0,-9185.0,-11560.0,6640.0,-2523.0,2.0,1.0,-2.0,-1.0,-2.0,2.0,7.0,3.0,0.5705313682556152
161,28.0,42.0,-4.0,0.0,-9185.0,-11560.0,6640.0,-2523.0,-1.0,0.0,0.0,0.0,7.0,0.0,2.0,-1.0,0.5727577209472656
162,20.0,33.0,-3.0,0.0,-9183.0,-11563.0,6636.0,-2528.0,-1.0,0.0,0.0,0.0,7.0,0.0,2.0,-1.0,0.5909404754638672
163,20.0,33.0,-3.0,0.0,-9183.0,-11563.0,6636.0,-2528.0,-1.0,-8.0,4.0,2.0,2.0,0.0,1.0,2.0,0.5935957431793213
164,20.0,33.0,-3.0,0.0,-9183.0,-11563.0,6636.0,-2528.0,1.0,5.0,-3.0,2.0,2.0,2.0,5.0,1.0,0.5958759784698486
165,41.0,34.0,-13.0,0.0,-9180.0,-11568.0,6629.0,-2532.0,1.0,5.0,-3.0,2.0,2.0,2.0,5.0,1.0,0.6129164695739746
166,41.0,34.0,-13.0,0.0,-9180.0,-11568.0,6629.0,-2532.0,-4.0,4.0,0.0,-4.0,-29.0,-5.0,9.0,-2.0,0.6152698993682861
167,41.0,34.0,-13.0,0.0,-9180.0,-11568.0,6629.0,-2532.0,-4.0,-13.0,-27.0,-3.0,2.0,-3.0,-8.0,-1.0,0.617565393447876
168,36.0,27.0,-6.0,0.0,-9176.0,-11575.0,6623.0,-2533.0,-4.0,-13.0,-27.0,-3.0,2.0,-3.0,-8.0,-1.0,0.6269810199737549
169,36.0,27.0,-6.0,0.0,-9176.0,-11575.0,6623.0,-2533.0,-3.0,4.0,-6.0,0.0,3.0,-2.0,-1.0,-2.0,0.6293289661407471
170,36.0,27.0,-6.0,0.0,-9176.0,-11575.0,6623.0,-2533.0,0.0,12.0,25.0,4.0,8.0,5.0,3.0,1.0,0.634143590927124
171,44.0,22.0,-8.0,0.0,-9171.0,-11581.0,6618.0,-2536.0,0.0,12.0,25.0,4.0,8.0,5.0,3.0,1.0,0.6499423980712891
172,44.0,22.0,-8.0,0.0,-9171.0,-11581.0,6618.0,-2536.0,-1.0,6.0,4.0,-4.0,2.0,-4.0,4.0,0.0,0.6529695987701416
173,44.0,22.0,-8.0,0.0,-9171.0,-11581.0,6618.0,-2536.0,-8.0,-22.0,-7.0,2.0,9.0,-5.0,-15.0,-5.0,0.65572190284729
174,39.0,20.0,-2.0,0.0,-9166.0,-11587.0,6613.0,-2537.0,-8.0,-22.0,-7.0,2.0,9.0,-5.0,-15.0,-5.0,0.6729495525360107
175,39.0,20.0,-2.0,0.0,-9166.0,-11587.0,6613.0,-2537.0,8.0,4.0,-9.0,-5.0,-4.0,4.0,-10.0,1.0,0.6753013134002686
176,39.0,20.0,-2.0,0.0,-9166.0,-11587.0,6613.0,-2537.0,0.0,4.0,6.0,-1.0,12.0,-10.0,-17.0,-1.0,0.6776037216186523
177,37.0,15.0,0.0,0.0,-9162.0,-11592.0,6610.0,-2539.0,0.0,4.0,6.0,-1.0,12.0,-10.0,-17.0,-1.0,0.6877777576446533
178,37.0,15.0,0.0,0.0,-9162.0,-11592.0,6610.0,-2539.0,-4.0,-11.0,-25.0,0.0,13.0,2.0,-13.0,-1.0,0.6902256011962891
179,37.0,15.0,0.0,0.0,-9162.0,-11592.0,6610.0,-2539.0,-4.0,-2.0,4.0,-5.0,3.0,3.0,9.0,1.0,0.6936790943145752
180,30.0,13.0,-6.0,0.0,-9160.0,-11597.0,6604.0,-2537.0,-4.0,-2.0,4.0,-5.0,3.0,3.0,9.0,1.0,0.7108800411224365
181,30.0,13.0,-6.0,0.0,-9160.0,-11597.0,6604.0,-2537.0,6.0,8.0,-7.0,1.0,-5.0,1.0,23.0,2.0,0.713371753692627
182,30.0,13.0,-6.0,0.0,-9160.0,-11597.0,6604.0,-2537.0,3.0,20.0,2.0,-6.0,-12.0,-9.0,-15.0,-5.0,0.7161557674407959
183,52.0,9.0,-8.0,0.0,-9156.0,-11604.0,6598.0,-2538.0,3.0,20.0,2.0,-6.0,-12.0,-9.0,-15.0,-5.0,0.7330596446990967
184,52.0,9.0,-8.0,0.0,-9156.0,-11604.0,6598.0,-2538.0,1.0,0.0,-8.0,2.0,3.0,1.0,-6.0,2.0,0.7354073524475098
185,52.0,9.0,-8.0,0.0,-9156.0,-11604.0,6598.0,-2538.0,6.0,5.0,0.0,-8.0,-25.0,1.0,-7.0,0.0,0.7376635074615479
186,91.0,15.0,-21.0,0.0,-9147.0,-11617.0,6588.0,-2538.0,6.0,5.0,0.0,-8.0,-25.0,1.0,-7.0,0.0,0.7479815483093262
187,91.0,15.0,-21.0,0.0,-9147.0,-11617.0,6588.0,-2538.0,-3.0,1.0,-5.0,-11.0,29.0,-4.0,-5.0,-4.0,0.7510936260223389
188,91.0,15.0,-21.0,0.0,-9147.0,-11617.0,6588.0,-2538.0,-6.0,-20.0,-56.0,-7.0,38.0,6.0,18.0,1.0,0.7533931732177734
189,111.0,-8.0,-62.0,0.0,-9136.0,-11633.0,6574.0,-2536.0,-6.0,-20.0,-56.0,-7.0,38.0,6.0,18.0,1.0,0.7706539630889893
190,111.0,-8.0,-62.0,0.0,-9136.0,-11633.0,6574.0,-2536.0,-11.0,-19.0,30.0,-27.0,18.0,-11.0,-13.0,-12.0,0.7729969024658203
191,111.0,-8.0,-62.0,0.0,-9136.0,-11633.0,6574.0,-2536.0,0.0,1.0,-11.0,2.0,14.0,-13.0,-11.0,-9.0,0.7752702236175537
192,126.0,-52.0,-170.0,0.0,-9117.0,-11660.0,6559.0,-2525.0,0.0,1.0,-11.0,2.0,14.0,-13.0,-11.0,-9.0,0.7931149005889893
193,126.0,-52.0,-170.0,0.0,-9117.0,-11660.0,6559.0,-2525.0,-14.0,-30.0,-14.0,8.0,-43.0,-8.0,7.0,-2.0,0.795473575592041
194,126.0,-52.0,-170.0,0.0,-9117.0,-11660.0,6559.0,-2525.0,9.0,-3.0,8.0,13.0,-83.0,11.0,11.0,7.0,0.7977776527404785
195,224.0,-84.0,-319.0,0.0,-9083.0,-11709.0,6525.0,-2501.0,9.0,-3.0,8.0,13.0,-83.0,11.0,11.0,7.0,0.8069097995758057
196,224.0,-84.0,-319.0,0.0,-9083.0,-11709.0,6525.0,-2501.0,33.0,96.0,60.0,12.0,-17.0,0.0,7.0,9.0,0.8147678375244141
197,224.0,-84.0,-319.0,0.0,-9083.0,-11709.0,6525.0,-2501.0,4.0,6.0,-26.0,-22.0,-3.0,5.0,-1.0,5.0,0.8170757293701172
198,236.0,114.0,-501.0,0.0,-9074.0,-11762.0,6447.0,-2490.0,4.0,6.0,-26.0,-22.0,-3.0,5.0,-1.0,5.0,0.8320398330688477
199,236.0,114.0,-501.0,0.0,-9074.0,-11762.0,6447.0,-2490.0,-5.0,-19.0,-3.0,7.0,9.0,8.0,4.0,2.0,0.8370275497436523
200,236.0,114.0,-501.0,0.0,-9074.0,-11762.0,6447.0,-2490.0,0.0,-2.0,-28.0,-12.0,54.0,13.0,11.0,-3.0,0.8423066139221191
201,248.0,348.0,-572.0,0.0,-9120.0,-11808.0,6303.0,-2474.0,0.0,-2.0,-28.0,-12.0,54.0,13.0,11.0,-3.0,0.853276252746582
202,248.0,348.0,-572.0,0.0,-9120.0,-11808.0,6303.0,-2474.0,0.0,-18.0,-72.0,-8.0,-31.0,-10.0,-6.0,-2.0,0.8556714057922363
203,248.0,348.0,-572.0,0.0,-9120.0,-11808.0,6303.0,-2474.0,34.0,30.0,21.0,-2.0,-26.0,-6.0,0.0,9.0,0.8579325675964355
204,99.0,443.0,-541.0,0.0,-9210.0,-11833.0,6136.0,-2442.0,34.0,30.0,21.0,-2.0,-26.0,-6.0,0.0,9.0,0.8668344020843506
205,99.0,443.0,-541.0,0.0,-9210.0,-11833.0,6136.0,-2442.0,-7.0,7.0,39.0,17.0,31.0,15.0,1.0,-4.0,0.8751223087310791
206,99.0,443.0,-541.0,0.0,-9210.0,-11833.0,6136.0,-2442.0,-15.0,-8.0,37.0,12.0,-17.0,-8.0,1.0,-2.0,0.8778355121612549
207,-228.0,245.0,-361.0,0.0,-9338.0,-11828.0,5990.0,-2337.0,-15.0,-8.0,37.0,12.0,-17.0,-8.0,1.0,-2.0,0.890730619430542
208,-228.0,245.0,-361.0,0.0,-9338.0,-11828.0,5990.0,-2337.0,6.0,-1.0,-13.0,-6.0,-3.0,4.0,-5.0,-2.0,0.8930604457855225
209,-228.0,245.0,-361.0,0.0,-9338.0,-11828.0,5990.0,-2337.0,-12.0,-18.0,13.0,10.0,12.0,1.0,9.0,-3.0,0.8952887058258057
210,-994.0,282.0,-133.0,0.0,-9582.0,-11723.0,5865.0,-2192.0,-12.0,-18.0,13.0,10.0,12.0,1.0,9.0,-3.0,0.9128198623657227
211,-994.0,282.0,-133.0,0.0,-9582.0,-11723.0,5865.0,-2192.0,7.0,-7.0,-24.0,-19.0,-33.0,-10.0,3.0,2.0,0.9151661396026611
212,-994.0,282.0,-133.0,0.0,-9582.0,-11723.0,5865.0,-2192.0,21.0,32.0,-2.0,-3.0,-3.0,-4.0,1.0,5.0,0.9174289703369141
213,-1579.0,477.0,-69.0,0.0,-9921.0,-11531.0,5732.0,-2049.0,21.0,32.0,-2.0,-3.0,-3.0,-4.0,1.0,5.0,0.9265711307525635
214,-1579.0,477.0,-69.0,0.0,-9921.0,-11531.0,5732.0,-2049.0,3.0,-27.0,-11.0,9.0,7.0,0.0,-4.0,1.0,0.9351463317871094
215,-1579.0,477.0,-69.0,0.0,-9921.0,-11531.0,5732.0,-2049.0,-33.0,-18.0,-2.0,-3.0,2.0,0.0,-1.0,-17.0,0.9375941753387451
216,-1402.0,823.0,-866.0,0.0,-10271.0,-11398.0,5440.0,-1858.0,-33.0,-18.0,-2.0,-3.0,2.0,0.0,-1.0,-17.0,0.9503910541534424
217,-1402.0,823.0,-866.0,0.0,-10271.0,-11398.0,5440.0,-1858.0,34.0,82.0,62.0,13.0,8.0,0.0,3.0,17.0,0.9527051448822021
218,-1402.0,823.0,-866.0,0.0,-10271.0,-11398.0,5440.0,-1858.0,-9.0,-18.0,2.0,14.0,12.0,5.0,1.0,0.0,0.9549379348754883
219,-1013.0,840.0,-1575.0,0.0,-10476.0,-11358.0,5169.0,-1726.0,-9.0,-18.0,2.0,14.0,12.0,5.0,1.0,0.0,0.973325252532959
220,-1013.0,840.0,-1575.0,0.0,-10476.0,-11358.0,5169.0,-1726.0,-17.0,-23.0,13.0,39.0,11.0,0.0,-3.0,-10.0,0.9757001399993896
221,-1013.0,840.0,-1575.0,0.0,-10476.0,-11358.0,5169.0,-1726.0,5.0,9.0,32.0,20.0,-7.0,-4.0,-8.0,-3.0,0.9779725074768066
222,-758.0,834.0,-2362.0,0.0,-10657.0,-11385.0,4793.0,-1516.0,5.0,9.0,32.0,20.0,-7.0,-4.0,-8.0,-3.0,0.9867534637451172
223,-758.0,834.0,-2362.0,0.0,-10657.0,-11385.0,4793.0,-1516.0,-14.0,-21.0,-25.0,9.0,11.0,5.0,4.0,-2.0,0.9950032234191895
224,-758.0,834.0,-2362.0,0.0,-10657.0,-11385.0,4793.0,-1516.0,-20.0,-39.0,-35.0,-105.0,-32.0,-11.0,-8.0,-7.0,0.9972531795501709
225,-1207.0,870.0,-3391.0,0.0,-10899.0,-11398.0,4287.0,-1166.0,-20.0,-39.0,-35.0,-105.0,-32.0,-11.0,-8.0,-7.0,1.0105037689208984
226,-1207.0,870.0,-3391.0,0.0,-10899.0,-11398.0,4287.0,-1166.0,-19.0,-31.0,46.0,106.0,29.0,9.0,4.0,1.0,1.0128238201141357
227,-1207.0,870.0,-3391.0,0.0,-10899.0,-11398.0,4287.0,-1166.0,21.0,12.0,-49.0,21.0,-17.0,-6.0,-1.0,6.0,1.0150597095489502
228,-1921.0,861.0,-4050.0,0.0,-11216.0,-11334.0,3701.0,-701.0,21.0,12.0,-49.0,21.0,-17.0,-6.0,-1.0,6.0,1.0331101417541504
229,-1921.0,861.0,-4050.0,0.0,-11216.0,-11334.0,3701.0,-701.0,-7.0,16.0,19.0,8.0,1.0,-3.0,-2.0,-7.0,1.0358421802520752
230,-1921.0,861.0,-4050.0,0.0,-11216.0,-11334.0,3701.0,-701.0,-10.0,-40.0,28.0,22.0,7.0,10.0,2.0,2.0,1.0381572246551514
231,-2646.0,842.0,-4752.0,0.0,-11593.0,-11176.0,3026.0,-117.0,-10.0,-40.0,28.0,22.0,7.0,10.0,2.0,2.0,1.0471076965332031
232,-2646.0,842.0,-4752.0,0.0,-11593.0,-11176.0,3026.0,-117.0,9.0,27.0,-35.0,-67.0,22.0,1.0,-3.0,-1.0,1.0550429821014404
233,-2646.0,842.0,-4752.0,0.0,-11593.0,-11176.0,3026.0,-117.0,-7.0,14.0,-11.0,-24.0,-6.0,-25.0,-5.0,-3.0,1.0572714805603027
234,-2621.0,936.0,-5320.0,0.0,-11924.0,-10995.0,2257.0,527.0,-7.0,14.0,-11.0,-24.0,-6.0,-25.0,-5.0,-3.0,1.0716168880462646
235,-2621.0,936.0,-5320.0,0.0,-11924.0,-10995.0,2257.0,527.0,-7.0,-11.0,5.0,-37.0,5.0,-4.0,-2.0,-5.0,1.076502799987793
236,-2621.0,936.0,-5320.0,0.0,-11924.0,-10995.0,2257.0,527.0,4.0,11.0,1.0,7.0,4.0,8.0,2.0,1.0,1.0810422897338867
237,-2372.0,1104.0,-5618.0,0.0,-12176.0,-10807.0,1423.0,1181.0,4.0,11.0,1.0,7.0,4.0,8.0,2.0,1.0,1.1009600162506104
238,-2372.0,1104.0,-5618.0,0.0,-12176.0,-10807.0,1423.0,1181.0,1.0,-14.0,-3.0,-16.0,-13.0,-5.0,0.0,0.0,1.1051299571990967
239,-2372.0,1104.0,-5618.0,0.0,-12176.0,-10807.0,1423.0,1181.0,-10.0,-5.0,18.0,30.0,6.0,2.0,0.0,-4.0,1.1094672679901123
240,-2333.0,1089.0,-5699.0,0.0,-12365.0,-10575.0,575.0,1841.0,-10.0,-5.0,18.0,30.0,6.0,2.0,0.0,-4.0,1.1136314868927002
241,-2333.0,1089.0,-5699.0,0.0,-12365.0,-10575.0,575.0,1841.0,-6.0,-11.0,-2.0,-12.0,-18.0,-4.0,-4.0,-4.0,1.1162424087524414
242,-2333.0,1089.0,-5699.0,0.0,-12365.0,-10575.0,575.0,1841.0,2.0,-14.0,17.0,-1.0,36.0,7.0,3.0,0.0,1.1185569763183594
243,-2853.0,995.0,-5858.0,0.0,-12551.0,-10221.0,-291.0,2528.0,2.0,-14.0,17.0,-1.0,36.0,7.0,3.0,0.0,1.1310756206512451
244,-2853.0,995.0,-5858.0,0.0,-12551.0,-10221.0,-291.0,2528.0,3.0,1.0,34.0,32.0,-66.0,-7.0,-2.0,4.0,1.1335532665252686
245,-2853.0,995.0,-5858.0,0.0,-12551.0,-10221.0,-291.0,2528.0,-13.0,3.0,-3.0,-4.0,3.0,-2.0,-4.0,-5.0,1.1358180046081543
246,-3050.0,945.0,-6006.0,0.0,-12687.0,-9783.0,-1171.0,3226.0,-13.0,3.0,-3.0,-4.0,3.0,-2.0,-4.0,-5.0,1.1529810428619385
247,-3050.0,945.0,-6006.0,0.0,-12687.0,-9783.0,-1171.0,3226.0,-9.0,-15.0,-10.0,4.0,19.0,6.0,4.0,-5.0,1.1553802490234375
248,-3050.0,945.0,-6006.0,0.0,-12687.0,-9783.0,-1171.0,3226.0,1.0,18.0,-13.0,-28.0,-24.0,-3.0,0.0,-2.0,1.1579172611236572
249,-3110.0,966.0,-6007.0,0.0,-12760.0,-9285.0,-2049.0,3904.0,1.0,18.0,-13.0,-28.0,-24.0,-3.0,0.0,-2.0,1.1665523052215576
250,-3110.0,966.0,-6007.0,0.0,-12760.0,-9285.0,-2049.0,3904.0,22.0,33.0,-16.0,-13.0,2.0,-2.0,1.0,7.0,1.1752207279205322
251,-3110.0,966.0,-6007.0,0.0,-12760.0,-9285.0,-2049.0,3904.0,23.0,35.0,30.0,24.0,11.0,4.0,0.0,5.0,1.1775145530700684
252,-3165.0,950.0,-6030.0,0.0,-12766.0,-8725.0,-2919.0,4563.0,23.0,35.0,30.0,24.0,11.0,4.0,0.0,5.0,1.1914126873016357
253,-3165.0,950.0,-6030.0,0.0,-12766.0,-8725.0,-2919.0,4563.0,-8.0,28.0,-36.0,-64.0,-6.0,-2.0,-1.0,-2.0,1.1942572593688965
254,-3165.0,950.0,-6030.0,0.0,-12766.0,-8725.0,-2919.0,4563.0,10.0,3.0,-3.0,20.0,2.0,1.0,1.0,5.0,1.1965570449829102
255,-3155.0,842.0,-6113.0,0.0,-12699.0,-8110.0,-3764.0,5219.0,10.0,3.0,-3.0,20.0,2.0,1.0,1.0,5.0,1.212106466293335
256,-3155.0,842.0,-6113.0,0.0,-12699.0,-8110.0,-3764.0,5219.0,-29.0,-28.0,16.0,14.0,4.0,-1.0,-3.0,-11.0,1.2203314304351807
257,-3155.0,842.0,-6113.0,0.0,-12699.0,-8110.0,-3764.0,5219.0,-15.0,-14.0,4.0,-26.0,-7.0,2.0,-5.0,-8.0,1.2233290672302246
258,-2948.0,669.0,-6153.0,0.0,-12553.0,-7499.0,-4523.0,5846.0,-15.0,-14.0,4.0,-26.0,-7.0,2.0,-5.0,-8.0,1.2260844707489014
259,-2948.0,669.0,-6153.0,0.0,-12553.0,-7499.0,-4523.0,5846.0,4.0,-23.0,-37.0,-19.0,8.0,-3.0,-5.0,2.0,1.234905481338501
260,-2948.0,669.0,-6153.0,0.0,-12553.0,-7499.0,-4523.0,5846.0,-32.0,-27.0,37.0,22.0,12.0,-1.0,-4.0,-13.0,1.237166166305542
261,-2691.0,591.0,-6068.0,0.0,-12332.0,-6876.0,-5234.0,6458.0,-32.0,-27.0,37.0,22.0,12.0,-1.0,-4.0,-13.0,1.2499642372131348
262,-2691.0,591.0,-6068.0,0.0,-12332.0,-6876.0,-5234.0,6458.0,14.0,-10.0,-6.0,-9.0,7.0,0.0,1.0,5.0,1.2523236274719238
263,-2691.0,591.0,-6068.0,0.0,-12332.0,-6876.0,-5234.0,6458.0,-3.0,-14.0,-50.0,22.0,-1.0,-1.0,0.0,-2.0,1.2562730312347412
264,-2612.0,555.0,-5904.0,0.0,-12057.0,-6229.0,-5904.0,7030.0,-3.0,-14.0,-50.0,22.0,-1.0,-1.0,0.0,-2.0,1.2730729579925537
265,-2612.0,555.0,-5904.0,0.0,-12057.0,-6229.0,-5904.0,7030.0,-1.0,-5.0,-5.0,-5.0,-5.0,0.0,-2.0,0.0,1.275416374206543
266,-2612.0,555.0,-5904.0,0.0,-12057.0,-6229.0,-5904.0,7030.0,-11.0,-5.0,11.0,-16.0,-3.0,-4.0,-3.0,-4.0,1.2776553630828857
267,-2604.0,560.0,-5751.0,0.0,-11732.0,-5552.0,-6547.0,7559.0,-11.0,-5.0,11.0,-16.0,-3.0,-4.0,-3.0,-4.0,1.2870986461639404
268,-2604.0,560.0,-5751.0,0.0,-11732.0,-5552.0,-6547.0,7559.0,6.0,-7.0,-26.0,-12.0,-6.0,5.0,-1.0,-4.0,1.2949585914611816
269,-2604.0,560.0,-5751.0,0.0,-11732.0,-5552.0,-6547.0,7559.0,-5.0,-32.0,-37.0,5.0,-3.0,3.0,2.0,3.0,1.2971837520599365
270,-2325.0,611.0,-5487.0,0.0,-11346.0,-4893.0,-7144.0,8046.0,-5.0,-32.0,-37.0,5.0,-3.0,3.0,2.0,3.0,1.310758113861084
271,-2325.0,611.0,-5487.0,0.0,-11346.0,-4893.0,-7144.0,8046.0,34.0,39.0,-33.0,-4.0,26.0,7.0,25.0,20.0,1.3147811889648438
272,-2325.0,611.0,-5487.0,0.0,-11346.0,-4893.0,-7144.0,8046.0,8.0,26.0,30.0,-2.0,-33.0,-9.0,-25.0,-1.0,1.3192353248596191
273,-1685.0,578.0,-5157.0,0.0,-10903.0,-4300.0,-7647.0,8522.0,8.0,26.0,30.0,-2.0,-33.0,-9.0,-25.0,-1.0,1.332939624786377
274,-1685.0,578.0,-5157.0,0.0,-10903.0,-4300.0,-7647.0,8522.0,-18.0,-28.0,-11.0,-13.0,-98.0,-12.0,-17.0,-10.0,1.3368048667907715
275,-1685.0,578.0,-5157.0,0.0,-10903.0,-4300.0,-7647.0,8522.0,9.0,18.0,10.0,15.0,34.0,6.0,15.0,5.0,1.3407096862792969
276,-750.0,364.0,-4892.0,0.0,-10415.0,-3802.0,-8005.0,9024.0,9.0,18.0,10.0,15.0,34.0,6.0,15.0,5.0,1.3472414016723633
277,-750.0,364.0,-4892.0,0.0,-10415.0,-3802.0,-8005.0,9024.0,12.0,28.0,39.0,12.0,52.0,9.0,9.0,7.0,1.3551454544067383
278,-750.0,364.0,-4892.0,0.0,-10415.0,-3802.0,-8005.0,9024.0,-3.0,-7.0,1.0,-3.0,-12.0,6.0,9.0,0.0,1.3574333190917969
279,-252.0,47.0,-4511.0,0.0,-9947.0,-3358.0,-8234.0,9509.0,-3.0,-7.0,1.0,-3.0,-12.0,6.0,9.0,0.0,1.3704664707183838
280,-252.0,47.0,-4511.0,0.0,-9947.0,-3358.0,-8234.0,9509.0,-7.0,-7.0,5.0,5.0,-2.0,-11.0,-31.0,-6.0,1.3745899200439453
281,-252.0,47.0,-4511.0,0.0,-9947.0,-3358.0,-8234.0,9509.0,4.0,-4.0,0.0,-2.0,7.0,-6.0,-8.0,1.0,1.3785340785980225
282,-786.0,-186.0,-3828.0,0.0,-9566.0,-2880.0,-8451.0,9861.0,4.0,-4.0,0.0,-2.0,7.0,-6.0,-8.0,1.0,1.394540548324585
283,-786.0,-186.0,-3828.0,0.0,-9566.0,-2880.0,-8451.0,9861.0,-8.0,-14.0,-3.0,1.0,-1.0,6.0,15.0,-2.0,1.3970444202423096
284,-786.0,-186.0,-3828.0,0.0,-9566.0,-2880.0,-8451.0,9861.0,10.0,9.0,15.0,12.0,30.0,-10.0,-21.0,6.0,1.3994884490966797
285,-1441.0,-289.0,-3128.0,0.0,-9261.0,-2362.0,-8698.0,10072.0,10.0,9.0,15.0,12.0,30.0,-10.0,-21.0,6.0,1.4062774181365967
286,-1441.0,-289.0,-3128.0,0.0,-9261.0,-2362.0,-8698.0,10072.0,-12.0,-5.0,19.0,13.0,40.0,7.0,-24.0,-12.0,1.4155516624450684
287,-1441.0,-289.0,-3128.0,0.0,-9261.0,-2362.0,-8698.0,10072.0,16.0,21.0,2.0,-3.0,-63.0,-23.0,7.0,14.0,1.417917251586914
288,-2616.0,-63.0,-1350.0,0.0,-9181.0,-1961.0,-9009.0,9956.0,16.0,21.0,2.0,-3.0,-63.0,-23.0,7.0,14.0,1.4385490417480469
289,-2616.0,-63.0,-1350.0,0.0,-9181.0,-1961.0,-9009.0,9956.0,-9.0,-12.0,8.0,21.0,8.0,5.0,18.0,-2.0,1.442676305770874
290,-2616.0,-63.0,-1350.0,0.0,-9181.0,-1961.0,-9009.0,9956.0,-2.0,-4.0,-9.0,-6.0,26.0,51.0,20.0,-4.0,1.447068214416504
291,734.0,-527.0,484.0,0.0,-9269.0,-2025.0,-8866.0,9991.0,-2.0,-4.0,-9.0,-6.0,26.0,51.0,20.0,-4.0,1.4540259838104248
292,734.0,-527.0,484.0,0.0,-9269.0,-2025.0,-8866.0,9991.0,-2.0,-3.0,-11.0,-16.0,-23.0,-39.0,-14.0,-3.0,1.4564602375030518
293,734.0,-527.0,484.0,0.0,-9269.0,-2025.0,-8866.0,9991.0,-2.0,-13.0,-28.0,-8.0,-25.0,-8.0,-6.0,-5.0,1.4587175846099854
294,-1060.0,-249.0,864.0,0.0,-9410.0,-1974.0,-8936.0,9805.0,-2.0,-13.0,-28.0,-8.0,-25.0,-8.0,-6.0,-5.0,1.4757075309753418
295,-1060.0,-249.0,864.0,0.0,-9410.0,-1974.0,-8936.0,9805.0,-8.0,-7.0,4.0,3.0,4.0,13.0,2.0,-3.0,1.4785077571868896
296,-1060.0,-249.0,864.0,0.0,-9410.0,-1974.0,-8936.0,9805.0,-3.0,-4.0,2.0,-2.0,7.0,1.0,3.0,-2.0,1.480816125869751
297,45.0,113.0,1532.0,0.0,-9561.0,-2140.0,-8909.0,9649.0,-3.0,-4.0,2.0,-2.0,7.0,1.0,3.0,-2.0,1.4897449016571045
298,45.0,113.0,1532.0,0.0,-9561.0,-2140.0,-8909.0,9649.0,-7.0,-10.0,4.0,-2.0,-5.0,-1.0,7.0,-4.0,1.4976727962493896
299,45.0,113.0,1532.0,0.0,-9561.0,-2140.0,-8909.0,9649.0,-2.0,1.0,-3.0,-2.0,4.0,-16.0,-12.0,-2.0,1.4999079704284668
300,1668.0,489.0,2233.0,0.0,-9704.0,-2582.0,-8728.0,9562.0,-2.0,1.0,-3.0,-2.0,4.0,-16.0,-12.0,-2.0,1.513596773147583
301,1668.0,489.0,2233.0,0.0,-9704.0,-2582.0,-8728.0,9562.0,18.0,36.0,43.0,7.0,-10.0,-7.0,-1.0,6.0,1.5159823894500732
302,1668.0,489.0,2233.0,0.0,-9704.0,-2582.0,-8728.0,9562.0,-3.0,2.0,6.0,-2.0,-1.0,9.0,11.0,0.0,1.5182690620422363
303,2159.0,607.0,3147.0,0.0,-9905.0,-3170.0,-8471.0,9409.0,-3.0,2.0,6.0,-2.0,-1.0,9.0,11.0,0.0,1.5355730056762695
304,2159.0,607.0,3147.0,0.0,-9905.0,-3170.0,-8471.0,9409.0,-10.0,-16.0,-25.0,-3.0,-7.0,-11.0,-5.0,-6.0,1.5380818843841553
305,2159.0,607.0,3147.0,0.0,-9905.0,-3170.0,-8471.0,9409.0,2.0,3.0,-4.0,-5.0,-3.0,-5.0,-1.0,-2.0,1.5406031608581543
306,2759.0,592.0,3501.0,0.0,-10073.0,-3797.0,-8151.0,9280.0,2.0,3.0,-4.0,-5.0,-3.0,-5.0,-1.0,-2.0,1.549973964691162
307,2759.0,592.0,3501.0,0.0,-10073.0,-3797.0,-8151.0,9280.0,-1.0,-2.0,-1.0,6.0,19.0,14.0,7.0,0.0,1.5522761344909668
308,2759.0,592.0,3501.0,0.0,-10073.0,-3797.0,-8151.0,9280.0,-7.0,-4.0,4.0,-2.0,1.0,-4.0,-3.0,-6.0,1.5563926696777344
309,3237.0,652.0,4314.0,0.0,-10280.0,-4551.0,-7726.0,9076.0,-7.0,-4.0,4.0,-2.0,1.0,-4.0,-3.0,-6.0,1.5728583335876465
310,3237.0,652.0,4314.0,0.0,-10280.0,-4551.0,-7726.0,9076.0,3.0,-7.0,-23.0,-1.0,1.0,10.0,9.0,3.0,1.5754008293151855
311,3262.0,705.0,4964.0,0.0,-10519.0,-5360.0,-7232.0,8762.0,3.0,-7.0,-23.0,-1.0,1.0,10.0,9.0,3.0,1.5776753425598145
312,3262.0,705.0,4964.0,0.0,-10519.0,-5360.0,-7232.0,8762.0,-3.0,-6.0,-3.0,2.0,-4.0,-12.0,-8.0,-5.0,1.579988718032837
313,3262.0,705.0,4964.0,0.0,-10519.0,-5360.0,-7232.0,8762.0,-3.0,-8.0,1.0,-2.0,11.0,3.0,-5.0,-2.0,1.5949599742889404
314,3121.0,656.0,5323.0,0.0,-10771.0,-6165.0,-6681.0,8354.0,-3.0,-8.0,1.0,-2.0,11.0,3.0,-5.0,-2.0,1.5972206592559814
315,3121.0,656.0,5323.0,0.0,-10771.0,-6165.0,-6681.0,8354.0,9.0,3.0,0.0,-6.0,4.0,7.0,-13.0,6.0,1.6095054149627686
316,3121.0,656.0,5323.0,0.0,-10771.0,-6165.0,-6681.0,8354.0,0.0,7.0,21.0,10.0,8.0,-17.0,-2.0,0.0,1.6181375980377197
317,3128.0,680.0,5855.0,0.0,-11026.0,-6999.0,-6051.0,7828.0,0.0,7.0,21.0,10.0,8.0,-17.0,-2.0,0.0,1.6203536987304688
318,3128.0,680.0,5855.0,0.0,-11026.0,-6999.0,-6051.0,7828.0,-1.0,-5.0,-3.0,3.0,-8.0,28.0,19.0,3.0,1.6226859092712402
319,3128.0,680.0,5855.0,0.0,-11026.0,-6999.0,-6051.0,7828.0,0.0,-5.0,-9.0,-1.0,1.0,13.0,-3.0,0.0,1.6325898170471191
320,2779.0,841.0,6466.0,0.0,-11294.0,-7823.0,-5373.0,7130.0,0.0,-5.0,-9.0,-1.0,1.0,13.0,-3.0,0.0,1.635101318359375
321,2779.0,841.0,6466.0,0.0,-11294.0,-7823.0,-5373.0,7130.0,4.0,5.0,-3.0,0.0,-13.0,-3.0,55.0,6.0,1.6387965679168701
322,2779.0,841.0,6466.0,0.0,-11294.0,-7823.0,-5373.0,7130.0,-2.0,2.0,-2.0,-7.0,-5.0,-17.0,-56.0,-10.0,1.655834674835205
323,2201.0,1046.0,6969.0,0.0,-11550.0,-8556.0,-4721.0,6291.0,-2.0,2.0,-2.0,-7.0,-5.0,-17.0,-56.0,-10.0,1.6597156524658203
324,2201.0,1046.0,6969.0,0.0,-11550.0,-8556.0,-4721.0,6291.0,-3.0,-4.0,-3.0,-1.0,0.0,-5.0,17.0,-1.0,1.6637346744537354
325,2201.0,1046.0,6969.0,0.0,-11550.0,-8556.0,-4721.0,6291.0,2.0,0.0,-5.0,3.0,22.0,48.0,-49.0,12.0,1.6787238121032715
326,1925.0,1223.0,7469.0,0.0,-11777.0,-9234.0,-4031.0,5315.0,2.0,0.0,-5.0,3.0,22.0,48.0,-49.0,12.0,1.682868480682373
327,1925.0,1223.0,7469.0,0.0,-11777.0,-9234.0,-4031.0,5315.0,-11.0,-7.0,-1.0,9.0,97.0,-83.0,-110.0,-26.0,1.6871469020843506
328,1925.0,1223.0,7469.0,0.0,-11777.0,-9234.0,-4031.0,5315.0,-4.0,-1.0,-12.0,-4.0,-3.0,23.0,-24.0,-13.0,1.694129228591919
329,2143.0,1223.0,7838.0,0.0,-11914.0,-9885.0,-3261.0,4262.0,-4.0,-1.0,-12.0,-4.0,-3.0,23.0,-24.0,-13.0,1.696882724761963
330,2143.0,1223.0,7838.0,0.0,-11914.0,-9885.0,-3261.0,4262.0,2.0,2.0,2.0,-53.0,120.0,112.0,-30.0,37.0,1.699638843536377
331,2143.0,1223.0,7838.0,0.0,-11914.0,-9885.0,-3261.0,4262.0,-3.0,-12.0,-26.0,-47.0,-89.0,16.0,-1.0,-4.0,1.7149183750152588
332,2602.0,1216.0,8089.0,0.0,-11914.0,-10521.0,-2415.0,3159.0,-3.0,-12.0,-26.0,-47.0,-89.0,16.0,-1.0,-4.0,1.7171528339385986
333,2602.0,1216.0,8089.0,0.0,-11914.0,-10521.0,-2415.0,3159.0,15.0,4.0,0.0,50.0,-120.0,-88.0,13.0,15.0,1.7221808433532715
334,2602.0,1216.0,8089.0,0.0,-11914.0,-10521.0,-2415.0,3159.0,-12.0,2.0,25.0,57.0,-98.0,-56.0,-74.0,-45.0,1.739006757736206
335,2445.0,1696.0,8676.0,0.0,-11829.0,-11071.0,-1548.0,1891.0,-12.0,2.0,25.0,57.0,-98.0,-56.0,-74.0,-45.0,1.7437777519226074
336,2445.0,1696.0,8676.0,0.0,-11829.0,-11071.0,-1548.0,1891.0,17.0,8.0,-17.0,-30.0,-3.0,81.0,67.0,55.0,1.7486670017242432
337,2445.0,1696.0,8676.0,0.0,-11829.0,-11071.0,-1548.0,1891.0,-20.0,-14.0,-24.0,-86.0,19.0,-116.0,-16.0,-27.0,1.7524633407592773
338,1913.0,2116.0,8676.0,0.0,-11683.0,-11451.0,-730.0,546.0,-20.0,-14.0,-24.0,-86.0,19.0,-116.0,-16.0,-27.0,1.754777431488037
339,1913.0,2116.0,8676.0,0.0,-11683.0,-11451.0,-730.0,546.0,-51.0,-13.0,21.0,53.0,81.0,53.0,97.0,-18.0,1.7672905921936035
340,1913.0,2116.0,8676.0,0.0,-11683.0,-11451.0,-730.0,546.0,-36.0,32.0,-39.0,-91.0,10.0,59.0,127.0,27.0,1.774634838104248
341,2023.0,2282.0,7161.0,0.0,-11414.0,-11737.0,-114.0,-634.0,-36.0,32.0,-39.0,-91.0,10.0,59.0,127.0,27.0,1.7769193649291992
342,2023.0,2282.0,7161.0,0.0,-11414.0,-11737.0,-114.0,-634.0,-8.0,80.0,59.0,-7.0,8.0,-128.0,-128.0,-38.0,1.7818059921264648
343,2023.0,2282.0,7161.0,0.0,-11414.0,-11737.0,-114.0,-634.0,67.0,102.0,4.0,26.0,97.0,50.0,66.0,34.0,1.7984707355499268
344,2390.0,1526.0,6148.0,0.0,-11033.0,-12000.0,465.0,-1587.0,67.0,102.0,4.0,26.0,97.0,50.0,66.0,34.0,1.8023838996887207
345,2390.0,1526.0,6148.0,0.0,-11033.0,-12000.0,465.0,-1587.0,-75.0,-68.0,-74.0,-46.0,-104.0,-7.0,-6.0,-65.0,1.8064055442810059
346,2390.0,1526.0,6148.0,0.0,-11033.0,-12000.0,465.0,-1587.0,44.0,66.0,80.0,63.0,69.0,14.0,88.0,61.0,1.8122310638427734
347,1928.0,276.0,5476.0,0.0,-10666.0,-12175.0,1113.0,-2288.0,44.0,66.0,80.0,63.0,69.0,14.0,88.0,61.0,1.8145036697387695
348,1928.0,276.0,5476.0,0.0,-10666.0,-12175.0,1113.0,-2288.0,127.0,92.0,122.0,53.0,-38.0,-55.0,28.0,74.0,1.8196535110473633
349,1928.0,276.0,5476.0,0.0,-10666.0,-12175.0,1113.0,-2288.0,-34.0,-19.0,87.0,-30.0,-9.0,38.0,-6.0,-61.0,1.8374476432800293
350,1681.0,-1189.0,2615.0,0.0,-10356.0,-12360.0,1556.0,-2453.0,-34.0,-19.0,87.0,-30.0,-9.0,38.0,-6.0,-61.0,1.8425559997558594
351,1681.0,-1189.0,2615.0,0.0,-10356.0,-12360.0,1556.0,-2453.0,63.0,56.0,19.0,-19.0,116.0,72.0,-17.0,34.0,1.847120761871338
352,1681.0,-1189.0,2615.0,0.0,-10356.0,-12360.0,1556.0,-2453.0,-18.0,-7.0,114.0,98.0,86.0,127.0,15.0,59.0,1.8593077659606934
353,850.0,-1452.0,667.0,0.0,-10197.0,-12481.0,1787.0,-2347.0,-18.0,-7.0,114.0,98.0,86.0,127.0,15.0,59.0,1.8632547855377197
354,850.0,-1452.0,667.0,0.0,-10197.0,-12481.0,1787.0,-2347.0,-124.0,-128.0,-53.0,4.0,-71.0,-33.0,-74.0,-54.0,1.8672854900360107
355,850.0,-1452.0,667.0,0.0,-10197.0,-12481.0,1787.0,-2347.0,-17.0,-5.0,51.0,-20.0,27.0,-3.0,-100.0,-101.0,1.8722639083862305
356,1474.0,89.0,2793.0,0.0,-9934.0,-12581.0,2091.0,-2665.0,-17.0,-5.0,51.0,-20.0,27.0,-3.0,-100.0,-101.0,1.874500036239624
357,1474.0,89.0,2793.0,0.0,-9934.0,-12581.0,2091.0,-2665.0,85.0,54.0,76.0,68.0,27.0,-92.0,-92.0,54.0,1.879248857498169
358,1474.0,89.0,2793.0,0.0,-9934.0,-12581.0,2091.0,-2665.0,-11.0,-64.0,41.0,118.0,55.0,-16.0,62.0,-36.0,1.8962652683258057
359,1214.0,-60.0,1922.0,0.0,-9734.0,-12649.0,2314.0,-2890.0,-11.0,-64.0,41.0,118.0,55.0,-16.0,62.0,-36.0,1.9010322093963623
360,1214.0,-60.0,1922.0,0.0,-9734.0,-12649.0,2314.0,-2890.0,-47.0,-69.0,-32.0,-20.0,-12.0,58.0,15.0,-60.0,1.9058301448822021
361,1214.0,-60.0,1922.0,0.0,-9734.0,-12649.0,2314.0,-2890.0,39.0,-10.0,-114.0,-42.0,28.0,-81.0,13.0,102.0,1.908665657043457
362,122.0,-278.0,1372.0,0.0,-9765.0,-12580.0,2465.0,-2962.0,39.0,-10.0,-114.0,-42.0,28.0,-81.0,13.0,102.0,1.9109182357788086
363,122.0,-278.0,1372.0,0.0,-9765.0,-12580.0,2465.0,-2962.0,39.0,-10.0,-114.0,-42.0,28.0,-81.0,13.0,102.0,1.9243838787078857
364,122.0,-278.0,1372.0,0.0,-9765.0,-12580.0,2465.0,-2962.0,-18.0,-24.0,-46.0,-65.0,32.0,111.0,121.0,-16.0,1.9329066276550293
365,122.0,-278.0,1372.0,0.0,-9765.0,-12580.0,2465.0,-2962.0,-37.0,-35.0,-64.0,-53.0,-29.0,22.0,-1.0,-1.0,1.935227870941162
366,-1010.0,-425.0,1214.0,0.0,-9915.0,-12416.0,2665.0,-2979.0,-37.0,-35.0,-64.0,-53.0,-29.0,22.0,-1.0,-1.0,1.937530279159546
367,-1010.0,-425.0,1214.0,0.0,-9915.0,-12416.0,2665.0,-2979.0,1.0,-10.0,-46.0,-103.0,-76.0,-58.0,-13.0,24.0,1.939892053604126
368,-1010.0,-425.0,1214.0,0.0,-9915.0,-12416.0,2665.0,-2979.0,22.0,-29.0,50.0,11.0,103.0,67.0,13.0,29.0,1.9560246467590332
369,-809.0,-350.0,627.0,0.0,-9948.0,-12345.0,2848.0,-2998.0,22.0,-29.0,50.0,11.0,103.0,67.0,13.0,29.0,1.9599826335906982
370,-809.0,-350.0,627.0,0.0,-9948.0,-12345.0,2848.0,-2998.0,12.0,-66.0,-33.0,9.0,80.0,27.0,53.0,-17.0,1.9640295505523682
371,-809.0,-350.0,627.0,0.0,-9948.0,-12345.0,2848.0,-2998.0,-1.0,23.0,-6.0,-24.0,-128.0,-126.0,-67.0,-18.0,1.9772522449493408
372,-187.0,-138.0,367.0,0.0,-9918.0,-12331.0,2959.0,-3047.0,-1.0,23.0,-6.0,-24.0,-128.0,-126.0,-67.0,-18.0,1.9819574356079102
373,-187.0,-138.0,367.0,0.0,-9918.0,-12331.0,2959.0,-3047.0,-16.0,27.0,-4.0,71.0,67.0,58.0,35.0,-8.0,1.9867289066314697
374,-187.0,-138.0,367.0,0.0,-9918.0,-12331.0,2959.0,-3047.0,-28.0,-67.0,-72.0,1.0,-87.0,-48.0,-25.0,-2.0,1.9936881065368652
375,-454.0,-59.0,210.0,0.0,-9978.0,-12275.0,2998.0,-3038.0,-28.0,-67.0,-72.0,1.0,-87.0,-48.0,-25.0,-2.0,1.996427297592163
376,-454.0,-59.0,210.0,0.0,-9978.0,-12275.0,2998.0,-3038.0,25.0,62.0,65.0,61.0,47.0,6.0,9.0,9.0,1.9987335205078125
377,-454.0,-59.0,210.0,0.0,-9978.0,-12275.0,2998.0,-3038.0,9.0,21.0,15.0,30.0,84.0,36.0,13.0,-12.0,2.0153486728668213
378,-723.0,-90.0,-55.0,0.0,-10075.0,-12179.0,3058.0,-3045.0,9.0,21.0,15.0,30.0,84.0,36.0,13.0,-12.0,2.0178756713867188
379,-723.0,-90.0,-55.0,0.0,-10075.0,-12179.0,3058.0,-3045.0,-14.0,-31.0,-26.0,-6.0,-57.0,-24.0,-45.0,-22.0,2.0215675830841064
380,-723.0,-90.0,-55.0,0.0,-10075.0,-12179.0,3058.0,-3045.0,2.0,35.0,13.0,42.0,93.0,-16.0,3.0,-17.0,2.03847599029541
381,-443.0,-39.0,-261.0,0.0,-10142.0,-12121.0,3073.0,-3039.0,2.0,35.0,13.0,42.0,93.0,-16.0,3.0,-17.0,2.040710687637329
382,-443.0,-39.0,-261.0,0.0,-10142.0,-12121.0,3073.0,-3039.0,-8.0,-1.0,-6.0,-22.0,25.0,0.0,13.0,-4.0,2.043055772781372
383,-443.0,-39.0,-261.0,0.0,-10142.0,-12121.0,3073.0,-3039.0,6.0,-15.0,-47.0,-13.0,-82.0,-21.0,-23.0,-3.0,2.0524442195892334
384,-371.0,-79.0,-374.0,0.0,-10191.0,-12094.0,3063.0,-2994.0,6.0,-15.0,-47.0,-13.0,-82.0,-21.0,-23.0,-3.0,2.0547072887420654
385,-371.0,-79.0,-374.0,0.0,-10191.0,-12094.0,3063.0,-2994.0,-8.0,7.0,-16.0,-2.0,-18.0,-8.0,-37.0,-3.0,2.059636116027832
386,-371.0,-79.0,-374.0,0.0,-10191.0,-12094.0,3063.0,-2994.0,15.0,12.0,12.0,-3.0,-20.0,10.0,-23.0,12.0,2.0760767459869385
387,-396.0,-10.0,-379.0,0.0,-10237.0,-12067.0,3049.0,-2957.0,15.0,12.0,12.0,-3.0,-20.0,10.0,-23.0,12.0,2.0804708003997803
388,-396.0,-10.0,-379.0,0.0,-10237.0,-12067.0,3049.0,-2957.0,-21.0,-29.0,-43.0,-73.0,-61.0,-25.0,4.0,-12.0,2.084538698196411
389,-396.0,-10.0,-379.0,0.0,-10237.0,-12067.0,3049.0,-2957.0,23.0,10.0,-39.0,-1.0,65.0,49.0,2.0,6.0,2.0976247787475586
390,-189.0,4.0,-363.0,0.0,-10243.0,-12072.0,3035.0,-2932.0,23.0,10.0,-39.0,-1.0,65.0,49.0,2.0,6.0,2.1015214920043945
391,-189.0,4.0,-363.0,0.0,-10243.0,-12072.0,3035.0,-2932.0,2.0,6.0,-10.0,29.0,27.0,1.0,16.0,1.0,2.114697217941284
392,-189.0,4.0,-363.0,0.0,-10243.0,-12072.0,3035.0,-2932.0,-23.0,-28.0,-43.0,-17.0,-33.0,-28.0,6.0,-21.0,2.1186258792877197
393,-54.0,24.0,-283.0,0.0,-10233.0,-12086.0,3023.0,-2921.0,-23.0,-28.0,-43.0,-17.0,-33.0,-28.0,6.0,-21.0,2.122511863708496
394,-54.0,24.0,-283.0,0.0,-10233.0,-12086.0,3023.0,-2921.0,11.0,10.0,26.0,56.0,75.0,20.0,2.0,15.0,2.1263203620910645
395,-54.0,24.0,-283.0,0.0,-10233.0,-12086.0,3023.0,-2921.0,-6.0,-13.0,-13.0,-35.0,-50.0,-38.0,-4.0,-10.0,2.1349213123321533
396,-101.0,13.0,-212.0,0.0,-10236.0,-12086.0,3018.0,-2914.0,-6.0,-13.0,-13.0,-35.0,-50.0,-38.0,-4.0,-10.0,2.137183427810669
397,-101.0,13.0,-212.0,0.0,-10236.0,-12086.0,3018.0,-2914.0,4.0,12.0,14.0,0.0,-46.0,-37.0,-15.0,-8.0,2.142252206802368
398,-101.0,13.0,-212.0,0.0,-10236.0,-12086.0,3018.0,-2914.0,-2.0,-4.0,-24.0,-8.0,29.0,7.0,9.0,3.0,2.1573476791381836
399,-217.0,-43.0,-183.0,0.0,-10253.0,-12069.0,3033.0,-2909.0,-2.0,-4.0,-24.0,-8.0,29.0,7.0,9.0,3.0,2.1612558364868164
400,-217.0,-43.0,-183.0,0.0,-10253.0,-12069.0,3033.0,-2909.0,-2.0,13.0,24.0,-4.0,11.0,26.0,20.0,-9.0,2.1653146743774414
401,-217.0,-43.0,-183.0,0.0,-10253.0,-12069.0,3033.0,-2909.0,13.0,-13.0,-25.0,-30.0,26.0,-32.0,2.0,1.0,2.1740939617156982
402,-138.0,-43.0,-177.0,0.0,-10260.0,-12058.0,3050.0,-2913.0,13.0,-13.0,-25.0,-30.0,26.0,-32.0,2.0,1.0,2.1766481399536133
403,-138.0,-43.0,-177.0,0.0,-10260.0,-12058.0,3050.0,-2913.0,6.0,18.0,6.0,15.0,-60.0,-8.0,0.0,-8.0,2.1790120601654053
404,-138.0,-43.0,-177.0,0.0,-10260.0,-12058.0,3050.0,-2913.0,2.0,-14.0,18.0,15.0,42.0,0.0,-11.0,1.0,2.1950643062591553
405,6.0,-4.0,-142.0,0.0,-10240.0,-12069.0,3062.0,-2924.0,2.0,-14.0,18.0,15.0,42.0,0.0,-11.0,1.0,2.1973166465759277
406,6.0,-4.0,-142.0,0.0,-10240.0,-12069.0,3062.0,-2924.0,3.0,19.0,21.0,7.0,91.0,37.0,-12.0,13.0,2.202162265777588
407,6.0,-4.0,-142.0,0.0,-10240.0,-12069.0,3062.0,-2924.0,2.0,17.0,16.0,23.0,-21.0,7.0,-7.0,-4.0,2.2095773220062256
408,64.0,54.0,-25.0,0.0,-10212.0,-12084.0,3075.0,-2950.0,2.0,17.0,16.0,23.0,-21.0,7.0,-7.0,-4.0,2.2175965309143066
409,64.0,54.0,-25.0,0.0,-10212.0,-12084.0,3075.0,-2950.0,-8.0,-24.0,-36.0,-20.0,-5.0,-7.0,21.0,-9.0,2.219916343688965
410,64.0,54.0,-25.0,0.0,-10212.0,-12084.0,3075.0,-2950.0,-2.0,-15.0,-19.0,17.0,63.0,5.0,-3.0,6.0,2.232295513153076
411,-47.0,86.0,49.0,0.0,-10204.0,-12078.0,3092.0,-2982.0,-2.0,-15.0,-19.0,17.0,63.0,5.0,-3.0,6.0,2.234813690185547
412,-47.0,86.0,49.0,0.0,-10204.0,-12078.0,3092.0,-2982.0,10.0,19.0,14.0,-11.0,-29.0,2.0,2.0,3.0,2.2393484115600586
413,-47.0,86.0,49.0,0.0,-10204.0,-12078.0,3092.0,-2982.0,-7.0,-6.0,-51.0,0.0,-28.0,-3.0,8.0,-2.0,2.255892276763916
414,-88.0,157.0,162.0,0.0,-10204.0,-12059.0,3115.0,-3034.0,-7.0,-6.0,-51.0,0.0,-28.0,-3.0,8.0,-2.0,2.2598094940185547
415,-88.0,157.0,162.0,0.0,-10204.0,-12059.0,3115.0,-3034.0,10.0,32.0,20.0,-4.0,8.0,8.0,-2.0,1.0,2.2638561725616455
416,-88.0,157.0,162.0,0.0,-10204.0,-12059.0,3115.0,-3034.0,3.0,11.0,25.0,10.0,-11.0,2.0,22.0,2.0,2.269542932510376
417,-35.0,204.0,200.0,0.0,-10199.0,-12044.0,3131.0,-3092.0,3.0,11.0,25.0,10.0,-11.0,2.0,22.0,2.0,2.277549982070923
418,-35.0,204.0,200.0,0.0,-10199.0,-12044.0,3131.0,-3092.0,-3.0,-15.0,6.0,13.0,19.0,-4.0,-6.0,0.0,2.279860734939575
419,-35.0,204.0,200.0,0.0,-10199.0,-12044.0,3131.0,-3092.0,-5.0,11.0,31.0,12.0,-30.0,-23.0,19.0,9.0,2.2925257682800293
420,-13.0,243.0,256.0,0.0,-10188.0,-12031.0,3151.0,-3161.0,-5.0,11.0,31.0,12.0,-30.0,-23.0,19.0,9.0,2.294855833053589
421,-13.0,243.0,256.0,0.0,-10188.0,-12031.0,3151.0,-3161.0,-4.0,3.0,-47.0,-2.0,-21.0,-3.0,-1.0,-1.0,2.2997868061065674
422,-13.0,243.0,256.0,0.0,-10188.0,-12031.0,3151.0,-3161.0,3.0,-7.0,-1.0,-19.0,-19.0,-1.0,-9.0,-3.0,2.3149302005767822
423,8.0,295.0,278.0,0.0,-10173.0,-12024.0,3160.0,-3229.0,3.0,-7.0,-1.0,-19.0,-19.0,-1.0,-9.0,-3.0,2.317192554473877
424,8.0,295.0,278.0,0.0,-10173.0,-12024.0,3160.0,-3229.0,-10.0,-23.0,-19.0,-12.0,-4.0,-7.0,-8.0,-8.0,2.322014331817627
425,8.0,295.0,278.0,0.0,-10173.0,-12024.0,3160.0,-3229.0,6.0,21.0,24.0,-9.0,17.0,14.0,-1.0,2.0,2.337557315826416
426,-33.0,296.0,270.0,0.0,-10164.0,-12009.0,3171.0,-3299.0,6.0,21.0,24.0,-9.0,17.0,14.0,-1.0,2.0,2.339815616607666
427,-33.0,296.0,270.0,0.0,-10164.0,-12009.0,3171.0,-3299.0,3.0,-7.0,9.0,0.0,3.0,-20.0,-10.0,1.0,2.3446106910705566
428,-33.0,296.0,270.0,0.0,-10164.0,-12009.0,3171.0,-3299.0,8.0,27.0,32.0,-42.0,-7.0,4.0,-6.0,1.0,2.352290391921997
429,-41.0,246.0,267.0,0.0,-10152.0,-12000.0,3184.0,-3355.0,8.0,27.0,32.0,-42.0,-7.0,4.0,-6.0,1.0,2.354801654815674
430,-41.0,246.0,267.0,0.0,-10152.0,-12000.0,3184.0,-3355.0,-1.0,-5.0,-19.0,-22.0,-55.0,-1.0,0.0,-2.0,2.3597512245178223
431,-41.0,246.0,267.0,0.0,-10152.0,-12000.0,3184.0,-3355.0,-9.0,-19.0,-11.0,19.0,-17.0,4.0,23.0,-1.0,2.3763911724090576
432,-70.0,240.0,186.0,0.0,-10151.0,-11987.0,3187.0,-3401.0,-9.0,-19.0,-11.0,19.0,-17.0,4.0,23.0,-1.0,2.380856513977051
433,-70.0,240.0,186.0,0.0,-10151.0,-11987.0,3187.0,-3401.0,7.0,15.0,6.0,11.0,-10.0,9.0,-4.0,3.0,2.385470390319824
434,-70.0,240.0,186.0,0.0,-10151.0,-11987.0,3187.0,-3401.0,12.0,-2.0,-62.0,-29.0,-98.0,-7.0,5.0,1.0,2.4062716960906982
435,-107.0,226.0,152.0,0.0,-10159.0,-11969.0,3188.0,-3440.0,12.0,-2.0,-62.0,-29.0,-98.0,-7.0,5.0,1.0,2.4110500812530518
436,-107.0,226.0,152.0,0.0,-10159.0,-11969.0,3188.0,-3440.0,-10.0,-21.0,-12.0,18.0,12.0,-8.0,25.0,2.0,2.415926456451416
437,-107.0,226.0,152.0,0.0,-10159.0,-11969.0,3188.0,-3440.0,-10.0,-28.0,-7.0,-6.0,31.0,2.0,-3.0,-1.0,2.4194319248199463
438,-81.0,190.0,92.0,0.0,-10160.0,-11958.0,3190.0,-3475.0,-10.0,-28.0,-7.0,-6.0,31.0,2.0,-3.0,-1.0,2.422138214111328
439,-81.0,190.0,92.0,0.0,-10160.0,-11958.0,3190.0,-3475.0,7.0,16.0,-3.0,-10.0,19.0,0.0,-9.0,-2.0,2.4247987270355225
440,-81.0,190.0,92.0,0.0,-10160.0,-11958.0,3190.0,-3475.0,-16.0,-17.0,21.0,38.0,38.0,-7.0,-10.0,-9.0,2.4347715377807617
441,-8.0,157.0,31.0,0.0,-10152.0,-11963.0,3178.0,-3493.0,-16.0,-17.0,21.0,38.0,38.0,-7.0,-10.0,-9.0,2.4370028972625732
442,-8.0,157.0,31.0,0.0,-10152.0,-11963.0,3178.0,-3493.0,-7.0,-4.0,25.0,3.0,25.0,5.0,17.0,3.0,2.4419944286346436
443,-8.0,157.0,31.0,0.0,-10152.0,-11963.0,3178.0,-3493.0,4.0,7.0,-29.0,11.0,21.0,12.0,-10.0,5.0,2.4585814476013184
444,-79.0,151.0,-11.0,0.0,-10158.0,-11958.0,3163.0,-3502.0,4.0,7.0,-29.0,11.0,21.0,12.0,-10.0,5.0,2.4608969688415527
445,-79.0,151.0,-11.0,0.0,-10158.0,-11958.0,3163.0,-3502.0,-1.0,-12.0,3.0,-7.0,-25.0,-10.0,-14.0,-5.0,2.463245391845703
446,-79.0,151.0,-11.0,0.0,-10158.0,-11958.0,3163.0,-3502.0,-1.0,11.0,26.0,-4.0,3.0,6.0,-12.0,-4.0,2.4727165699005127
447,-111.0,134.0,-39.0,0.0,-10169.0,-11950.0,3151.0,-3510.0,-1.0,11.0,26.0,-4.0,3.0,6.0,-12.0,-4.0,2.4749655723571777
448,-111.0,134.0,-39.0,0.0,-10169.0,-11950.0,3151.0,-3510.0,-7.0,-6.0,5.0,-4.0,-2.0,-13.0,-10.0,-1.0,2.479598045349121
449,-111.0,134.0,-39.0,0.0,-10169.0,-11950.0,3151.0,-3510.0,3.0,7.0,38.0,20.0,12.0,0.0,14.0,-3.0,2.496032238006592
450,-95.0,129.0,-51.0,0.0,-10178.0,-11942.0,3141.0,-3521.0,3.0,7.0,38.0,20.0,12.0,0.0,14.0,-3.0,2.4999544620513916
451,-95.0,129.0,-51.0,0.0,-10178.0,-11942.0,3141.0,-3521.0,9.0,31.0,5.0,-13.0,5.0,-3.0,-1.0,6.0,2.5040109157562256
452,-95.0,129.0,-51.0,0.0,-10178.0,-11942.0,3141.0,-3521.0,-3.0,3.0,26.0,20.0,1.0,0.0,-2.0,-1.0,2.5196704864501953
453,-37.0,122.0,-78.0,0.0,-10182.0,-11938.0,3126.0,-3533.0,-3.0,3.0,26.0,20.0,1.0,0.0,-2.0,-1.0,2.5248594284057617
454,-37.0,122.0,-78.0,0.0,-10182.0,-11938.0,3126.0,-3533.0,-5.0,-14.0,-14.0,-1.0,-23.0,2.0,-1.0,-3.0,2.53023624420166
455,-37.0,122.0,-78.0,0.0,-10182.0,-11938.0,3126.0,-3533.0,15.0,26.0,-1.0,-10.0,-9.0,12.0,-4.0,9.0,2.53277850151062
456,14.0,128.0,-72.0,0.0,-10183.0,-11939.0,3107.0,-3546.0,15.0,26.0,-1.0,-10.0,-9.0,12.0,-4.0,9.0,2.5350494384765625
457,14.0,128.0,-72.0,0.0,-10183.0,-11939.0,3107.0,-3546.0,-9.0,-20.0,51.0,0.0,-37.0,-17.0,-62.0,-13.0,2.539194107055664
458,14.0,128.0,-72.0,0.0,-10183.0,-11939.0,3107.0,-3546.0,-15.0,-33.0,14.0,4.0,-7.0,-6.0,-8.0,-7.0,2.555018424987793
459,-51.0,124.0,-83.0,0.0,-10189.0,-11937.0,3088.0,-3551.0,-15.0,-33.0,14.0,4.0,-7.0,-6.0,-8.0,-7.0,2.557330369949341
460,-51.0,124.0,-83.0,0.0,-10189.0,-11937.0,3088.0,-3551.0,3.0,9.0,19.0,20.0,31.0,8.0,20.0,1.0,2.5620646476745605
461,-51.0,124.0,-83.0,0.0,-10189.0,-11937.0,3088.0,-3551.0,-12.0,-3.0,-27.0,-2.0,-7.0,-4.0,-11.0,0.0,2.5779850482940674
462,-112.0,133.0,-78.0,0.0,-10204.0,-11926.0,3074.0,-3560.0,-12.0,-3.0,-27.0,-2.0,-7.0,-4.0,-11.0,0.0,2.5804052352905273
463,-112.0,133.0,-78.0,0.0,-10204.0,-11926.0,3074.0,-3560.0,21.0,51.0,21.0,-22.0,39.0,22.0,18.0,10.0,2.583099842071533
464,-112.0,133.0,-78.0,0.0,-10204.0,-11926.0,3074.0,-3560.0,3.0,13.0,-19.0,-13.0,-26.0,-30.0,-26.0,-9.0,2.592209577560425
465,-57.0,128.0,-65.0,0.0,-10211.0,-11919.0,3060.0,-3573.0,3.0,13.0,-19.0,-13.0,-26.0,-30.0,-26.0,-9.0,2.5945005416870117
466,-57.0,128.0,-65.0,0.0,-10211.0,-11919.0,3060.0,-3573.0,-10.0,-26.0,-31.0,-7.0,-5.0,1.0,-3.0,-5.0,2.608039140701294
467,-57.0,128.0,-65.0,0.0,-10211.0,-11919.0,3060.0,-3573.0,-8.0,-12.0,11.0,4.0,10.0,2.0,10.0,-2.0,2.6169285774230957
468,25.0,131.0,-74.0,0.0,-10211.0,-11920.0,3040.0,-3587.0,-8.0,-12.0,11.0,4.0,10.0,2.0,10.0,-2.0,2.6198410987854004
469,25.0,131.0,-74.0,0.0,-10211.0,-11920.0,3040.0,-3587.0,3.0,-7.0,-27.0,-8.0,11.0,1.0,1.0,2.0,2.622166395187378
470,25.0,131.0,-74.0,0.0,-10211.0,-11920.0,3040.0,-3587.0,-1.0,-4.0,17.0,3.0,7.0,7.0,-2.0,3.0,2.638038396835327
471,50.0,141.0,-70.0,0.0,-10207.0,-11924.0,3019.0,-3604.0,-1.0,-4.0,17.0,3.0,7.0,7.0,-2.0,3.0,2.6402804851531982
472,50.0,141.0,-70.0,0.0,-10207.0,-11924.0,3019.0,-3604.0,-9.0,-11.0,-18.0,12.0,-49.0,-17.0,-14.0,-8.0,2.642657995223999
473,50.0,141.0,-70.0,0.0,-10207.0,-11924.0,3019.0,-3604.0,-7.0,-5.0,12.0,10.0,-4.0,2.0,-4.0,-3.0,2.652339458465576
474,17.0,127.0,-52.0,0.0,-10204.0,-11926.0,3002.0,-3617.0,-7.0,-5.0,12.0,10.0,-4.0,2.0,-4.0,-3.0,2.654601573944092
475,17.0,127.0,-52.0,0.0,-10204.0,-11926.0,3002.0,-3617.0,4.0,2.0,-8.0,0.0,30.0,2.0,15.0,5.0,2.6678688526153564
476,17.0,127.0,-52.0,0.0,-10204.0,-11926.0,3002.0,-3617.0,-1.0,-7.0,-31.0,-13.0,7.0,5.0,4.0,0.0,2.676091432571411
477,-24.0,122.0,-34.0,0.0,-10206.0,-11923.0,2991.0,-3632.0,-1.0,-7.0,-31.0,-13.0,7.0,5.0,4.0,0.0,2.679598808288574
478,-24.0,122.0,-34.0,0.0,-10206.0,-11923.0,2991.0,-3632.0,-5.0,-8.0,10.0,8.0,15.0,-9.0,-43.0,-3.0,2.6819746494293213
479,-24.0,122.0,-34.0,0.0,-10206.0,-11923.0,2991.0,-3632.0,-7.0,-21.0,-25.0,3.0,-16.0,-5.0,0.0,-3.0,2.6981217861175537
480,19.0,125.0,-32.0,0.0,-10198.0,-11927.0,2979.0,-3649.0,-7.0,-21.0,-25.0,3.0,-16.0,-5.0,0.0,-3.0,2.7003560066223145
481,19.0,125.0,-32.0,0.0,-10198.0,-11927.0,2979.0,-3649.0,-1.0,2.0,28.0,1.0,-7.0,8.0,23.0,1.0,2.7026829719543457
482,19.0,125.0,-32.0,0.0,-10198.0,-11927.0,2979.0,-3649.0,4.0,13.0,24.0,-8.0,26.0,4.0,-22.0,-2.0,2.7127792835235596
483,56.0,119.0,-36.0,0.0,-10188.0,-11936.0,2963.0,-3663.0,4.0,13.0,24.0,-8.0,26.0,4.0,-22.0,-2.0,2.7150700092315674
484,56.0,119.0,-36.0,0.0,-10188.0,-11936.0,2963.0,-3663.0,-4.0,-8.0,16.0,-9.0,21.0,-8.0,1.0,-2.0,2.719568967819214
485,56.0,119.0,-36.0,0.0,-10188.0,-11936.0,2963.0,-3663.0,-3.0,-14.0,-21.0,-5.0,-22.0,-7.0,13.0,0.0,2.734848737716675
486,11.0,109.0,-17.0,0.0,-10185.0,-11937.0,2952.0,-3676.0,-3.0,-14.0,-21.0,-5.0,-22.0,-7.0,13.0,0.0,2.737309217453003
487,11.0,109.0,-17.0,0.0,-10185.0,-11937.0,2952.0,-3676.0,-7.0,-3.0,10.0,0.0,10.0,11.0,19.0,1.0,2.749363422393799
488,11.0,109.0,-17.0,0.0,-10185.0,-11937.0,2952.0,-3676.0,7.0,11.0,-34.0,-11.0,-16.0,-4.0,0.0,1.0,2.7584145069122314
489,-20.0,107.0,8.0,0.0,-10185.0,-11934.0,2945.0,-3691.0,7.0,11.0,-34.0,-11.0,-16.0,-4.0,0.0,1.0,2.760641098022461
490,-20.0,107.0,8.0,0.0,-10185.0,-11934.0,2945.0,-3691.0,6.0,16.0,-6.0,-7.0,-4.0,-1.0,-17.0,2.0,2.7629504203796387
491,-20.0,107.0,8.0,0.0,-10185.0,-11934.0,2945.0,-3691.0,2.0,3.0,28.0,10.0,1.0,-2.0,-3.0,1.0,2.772712469100952
492,-55.0,103.0,16.0,0.0,-10189.0,-11927.0,2942.0,-3705.0,2.0,3.0,28.0,10.0,1.0,-2.0,-3.0,1.0,2.775360584259033
493,-55.0,103.0,16.0,0.0,-10189.0,-11927.0,2942.0,-3705.0,-4.0,-9.0,-41.0,-5.0,4.0,-2.0,-2.0,-2.0,2.7792670726776123
494,-55.0,103.0,16.0,0.0,-10189.0,-11927.0,2942.0,-3705.0,1.0,-8.0,2.0,3.0,25.0,6.0,10.0,2.0,2.7949461936950684
495,-59.0,95.0,23.0,0.0,-10193.0,-11920.0,2939.0,-3719.0,1.0,-8.0,2.0,3.0,25.0,6.0,10.0,2.0,2.7972192764282227
496,-59.0,95.0,23.0,0.0,-10193.0,-11920.0,2939.0,-3719.0,9.0,10.0,9.0,-25.0,-20.0,-6.0,3.0,1.0,2.802448034286499
497,-59.0,95.0,23.0,0.0,-10193.0,-11920.0,2939.0,-3719.0,-7.0,-21.0,-2.0,2.0,-18.0,-5.0,3.0,6.0,2.8182148933410645
498,-6.0,66.0,35.0,0.0,-10187.0,-11921.0,2940.0,-3731.0,-7.0,-21.0,-2.0,2.0,-18.0,-5.0,3.0,6.0,2.8204777240753174
499,-6.0,66.0,35.0,0.0,-10187.0,-11921.0,2940.0,-3731.0,-6.0,-5.0,23.0,25.0,-3.0,5.0,7.0,4.0,2.8227949142456055
