,Gyro 0,Gyro 1,Gyro 2,Label,Orientation 0,Orientation 1,Orientation 2,Orientation 3,Sensor 0,Sensor 1,Sensor 2,Sensor 3,Sensor 4,Sensor 5,Sensor 6,Sensor 7,Timestamp
0,-38.0,142.0,-51.0,0.0,-9407.0,-11341.0,6274.0,-3460.0,-3.0,-1.0,-3.0,12.0,8.0,3.0,0.0,0.0,1.6689300537109375e-06
1,-38.0,142.0,-51.0,0.0,-9407.0,-11341.0,6274.0,-3460.0,0.0,-1.0,1.0,-6.0,-3.0,0.0,0.0,-3.0,0.002876758575439453
2,-38.0,142.0,-51.0,0.0,-9407.0,-11341.0,6274.0,-3460.0,2.0,6.0,20.0,-2.0,9.0,-1.0,-1.0,2.0,0.005465507507324219
3,42.0,163.0,-17.0,0.0,-9425.0,-11346.0,6237.0,-3462.0,2.0,6.0,20.0,-2.0,9.0,-1.0,-1.0,2.0,0.007901430130004883
4,42.0,163.0,-17.0,0.0,-9425.0,-11346.0,6237.0,-3462.0,-5.0,-9.0,-3.0,2.0,4.0,-4.0,2.0,-2.0,0.010289907455444336
5,-19.0,150.0,-89.0,0.0,-9453.0,-11349.0,6195.0,-3452.0,-5.0,-9.0,-3.0,2.0,4.0,-4.0,2.0,-2.0,0.012558460235595703
6,-19.0,150.0,-89.0,0.0,-9453.0,-11349.0,6195.0,-3452.0,3.0,2.0,36.0,-1.0,2.0,-6.0,-3.0,0.0,0.014886140823364258
7,-19.0,150.0,-89.0,0.0,-9453.0,-11349.0,6195.0,-3452.0,2.0,-1.0,-2.0,-1.0,4.0,3.0,0.0,0.0,0.017191648483276367
8,-60.0,166.0,-115.0,0.0,-9490.0,-11342.0,6153.0,-3449.0,2.0,-1.0,-2.0,-1.0,4.0,3.0,0.0,0.0,0.019481658935546875
9,-60.0,166.0,-115.0,0.0,-9490.0,-11342.0,6153.0,-3449.0,-4.0,-2.0,6.0,2.0,-3.0,-1.0,0.0,-1.0,0.02245187759399414
10,-60.0,166.0,-115.0,0.0,-9490.0,-11342.0,6153.0,-3449.0,-4.0,-10.0,-13.0,-6.0,-7.0,-1.0,-1.0,-2.0,0.025223493576049805
11,-22.0,209.0,-111.0,0.0,-9527.0,-11333.0,6108.0,-3458.0,-4.0,-10.0,-13.0,-6.0,-7.0,-1.0,-1.0,-2.0,0.02757406234741211
12,-22.0,209.0,-111.0,0.0,-9527.0,-11333.0,6108.0,-3458.0,-3.0,3.0,5.0,-7.0,-10.0,2.0,-2.0,-2.0,0.029931306838989258
13,-22.0,209.0,-111.0,0.0,-9527.0,-11333.0,6108.0,-3458.0,-1.0,-3.0,-12.0,-7.0,-16.0,2.0,-2.0,-1.0,0.03218412399291992
14,147.0,198.0,-143.0,0.0,-9540.0,-11347.0,6053.0,-3472.0,-1.0,-3.0,-12.0,-7.0,-16.0,2.0,-2.0,-1.0,0.03450345993041992
15,147.0,198.0,-143.0,0.0,-9540.0,-11347.0,6053.0,-3472.0,-4.0,-9.0,-12.0,-7.0,-21.0,-3.0,-2.0,-2.0,0.036837100982666016
16,147.0,198.0,-143.0,0.0,-9540.0,-11347.0,6053.0,-3472.0,0.0,-2.0,-10.0,-3.0,-16.0,-4.0,-1.0,0.0,0.039084434509277344
17,169.0,173.0,-100.0,0.0,-9544.0,-11363.0,6006.0,-3487.0,0.0,-2.0,-10.0,-3.0,-16.0,-4.0,-1.0,0.0,0.041370391845703125
18,169.0,173.0,-100.0,0.0,-9544.0,-11363.0,6006.0,-3487.0,-6.0,-4.0,3.0,0.0,2.0,-1.0,-1.0,-4.0,0.0437009334564209
19,169.0,173.0,-100.0,0.0,-9544.0,-11363.0,6006.0,-3487.0,2.0,6.0,10.0,-1.0,8.0,3.0,0.0,0.0,0.045970916748046875
20,119.0,108.0,-35.0,0.0,-9544.0,-11377.0,5976.0,-3493.0,2.0,6.0,10.0,-1.0,8.0,3.0,0.0,0.0,0.0482480525970459
21,119.0,108.0,-35.0,0.0,-9544.0,-11377.0,5976.0,-3493.0,-3.0,-3.0,-8.0,1.0,-1.0,13.0,-1.0,1.0,0.05068492889404297
22,119.0,108.0,-35.0,0.0,-9544.0,-11377.0,5976.0,-3493.0,1.0,3.0,1.0,0.0,2.0,-2.0,0.0,0.0,0.05339407920837402
23,-55.0,33.0,-15.0,0.0,-9557.0,-11378.0,5964.0,-3477.0,1.0,3.0,1.0,0.0,2.0,-2.0,0.0,0.0,0.05601358413696289
24,-55.0,33.0,-15.0,0.0,-9557.0,-11378.0,5964.0,-3477.0,8.0,1.0,-13.0,-9.0,-5.0,-4.0,2.0,2.0,0.058580875396728516
25,-55.0,33.0,-15.0,0.0,-9557.0,-11378.0,5964.0,-3477.0,-4.0,-13.0,-26.0,3.0,9.0,5.0,-1.0,-1.0,0.06086444854736328
26,-233.0,5.0,24.0,0.0,-9583.0,-11359.0,5970.0,-3455.0,-4.0,-13.0,-26.0,3.0,9.0,5.0,-1.0,-1.0,0.06318545341491699
27,-233.0,5.0,24.0,0.0,-9583.0,-11359.0,5970.0,-3455.0,0.0,-3.0,-9.0,-1.0,-5.0,-1.0,-2.0,-1.0,0.06558847427368164
28,-233.0,5.0,24.0,0.0,-9583.0,-11359.0,5970.0,-3455.0,-3.0,-5.0,3.0,1.0,-1.0,-5.0,-1.0,-2.0,0.0678563117980957
29,-331.0,-33.0,81.0,0.0,-9609.0,-11331.0,5997.0,-3430.0,-3.0,-5.0,3.0,1.0,-1.0,-5.0,-1.0,-2.0,0.07013964653015137
30,-331.0,-33.0,81.0,0.0,-9609.0,-11331.0,5997.0,-3430.0,1.0,6.0,6.0,2.0,2.0,-3.0,0.0,2.0,0.0724942684173584
31,-331.0,-33.0,81.0,0.0,-9609.0,-11331.0,5997.0,-3430.0,2.0,4.0,8.0,-2.0,-4.0,0.0,0.0,0.0,0.07477736473083496
32,-414.0,-71.0,136.0,0.0,-9639.0,-11289.0,6042.0,-3406.0,2.0,4.0,8.0,-2.0,-4.0,0.0,0.0,0.0,0.0770716667175293
33,-414.0,-71.0,136.0,0.0,-9639.0,-11289.0,6042.0,-3406.0,-4.0,0.0,12.0,2.0,-4.0,-4.0,-3.0,-4.0,0.07944297790527344
34,-414.0,-71.0,136.0,0.0,-9639.0,-11289.0,6042.0,-3406.0,-4.0,-15.0,-13.0,-8.0,-5.0,-4.0,-3.0,-4.0,0.08182048797607422
35,-398.0,-109.0,126.0,0.0,-9661.0,-11252.0,6091.0,-3377.0,-4.0,-15.0,-13.0,-8.0,-5.0,-4.0,-3.0,-4.0,0.08425307273864746
36,-398.0,-109.0,126.0,0.0,-9661.0,-11252.0,6091.0,-3377.0,-1.0,-8.0,-8.0,-11.0,-2.0,0.0,3.0,0.0,0.08724737167358398
37,-398.0,-109.0,126.0,0.0,-9661.0,-11252.0,6091.0,-3377.0,-2.0,-6.0,-3.0,1.0,-10.0,-4.0,-2.0,-1.0,0.08983230590820312
38,-381.0,-122.0,154.0,0.0,-9682.0,-11213.0,6143.0,-3351.0,-2.0,-6.0,-3.0,1.0,-10.0,-4.0,-2.0,-1.0,0.09211039543151855
39,-381.0,-122.0,154.0,0.0,-9682.0,-11213.0,6143.0,-3351.0,-2.0,6.0,15.0,10.0,5.0,-2.0,-2.0,-2.0,0.09448647499084473
40,-381.0,-122.0,154.0,0.0,-9682.0,-11213.0,6143.0,-3351.0,4.0,15.0,16.0,-3.0,1.0,-2.0,0.0,-1.0,0.09675240516662598
41,-304.0,-97.0,146.0,0.0,-9694.0,-11183.0,6190.0,-3333.0,4.0,15.0,16.0,-3.0,1.0,-2.0,0.0,-1.0,0.09922337532043457
42,-304.0,-97.0,146.0,0.0,-9694.0,-11183.0,6190.0,-3333.0,0.0,-4.0,-12.0,5.0,-3.0,-11.0,0.0,-1.0,0.10176992416381836
43,-304.0,-97.0,146.0,0.0,-9694.0,-11183.0,6190.0,-3333.0,-1.0,0.0,3.0,-1.0,1.0,0.0,-2.0,-2.0,0.10411977767944336
44,-280.0,-44.0,165.0,0.0,-9711.0,-11151.0,6227.0,-3321.0,-1.0,0.0,3.0,-1.0,1.0,0.0,-2.0,-2.0,0.10639262199401855
45,-280.0,-44.0,165.0,0.0,-9711.0,-11151.0,6227.0,-3321.0,-3.0,-2.0,0.0,12.0,6.0,2.0,-1.0,-2.0,0.10880613327026367
46,-280.0,-44.0,165.0,0.0,-9711.0,-11151.0,6227.0,-3321.0,1.0,18.0,10.0,1.0,5.0,-1.0,2.0,-2.0,0.11108517646789551
47,-287.0,-12.0,137.0,0.0,-9736.0,-11115.0,6257.0,-3314.0,1.0,18.0,10.0,1.0,5.0,-1.0,2.0,-2.0,0.11334729194641113
48,-287.0,-12.0,137.0,0.0,-9736.0,-11115.0,6257.0,-3314.0,3.0,0.0,-19.0,9.0,1.0,-7.0,-4.0,1.0,0.11572670936584473
49,-287.0,-12.0,137.0,0.0,-9736.0,-11115.0,6257.0,-3314.0,-2.0,-1.0,-3.0,-2.0,-6.0,-1.0,-3.0,-2.0,0.11852097511291504
50,-229.0,-16.0,97.0,0.0,-9761.0,-11083.0,6278.0,-3307.0,-2.0,-1.0,-3.0,-2.0,-6.0,-1.0,-3.0,-2.0,0.12116193771362305
51,-229.0,-16.0,97.0,0.0,-9761.0,-11083.0,6278.0,-3307.0,-1.0,0.0,37.0,7.0,0.0,-5.0,-2.0,1.0,0.12355446815490723
52,-229.0,-16.0,97.0,0.0,-9761.0,-11083.0,6278.0,-3307.0,-3.0,-4.0,-18.0,-1.0,-9.0,1.0,-2.0,-2.0,0.12585830688476562
53,-174.0,-41.0,38.0,0.0,-9783.0,-11058.0,6292.0,-3298.0,-3.0,-4.0,-18.0,-1.0,-9.0,1.0,-2.0,-2.0,0.12812066078186035
54,-174.0,-41.0,38.0,0.0,-9783.0,-11058.0,6292.0,-3298.0,2.0,-5.0,4.0,8.0,-10.0,-2.0,-1.0,-1.0,0.1304943561553955
55,-174.0,-41.0,38.0,0.0,-9783.0,-11058.0,6292.0,-3298.0,3.0,5.0,25.0,13.0,8.0,-1.0,4.0,1.0,0.1328108310699463
56,-241.0,-63.0,0.0,0.0,-9816.0,-11027.0,6305.0,-3280.0,3.0,5.0,25.0,13.0,8.0,-1.0,4.0,1.0,0.13507604598999023
57,-241.0,-63.0,0.0,0.0,-9816.0,-11027.0,6305.0,-3280.0,0.0,4.0,-11.0,4.0,5.0,15.0,2.0,1.0,0.13741779327392578
58,-241.0,-63.0,0.0,0.0,-9816.0,-11027.0,6305.0,-3280.0,-3.0,-4.0,-15.0,11.0,0.0,-7.0,-2.0,2.0,0.13969016075134277
59,-293.0,-78.0,-33.0,0.0,-9856.0,-10991.0,6318.0,-3255.0,-3.0,-4.0,-15.0,11.0,0.0,-7.0,-2.0,2.0,0.14197325706481934
60,-293.0,-78.0,-33.0,0.0,-9856.0,-10991.0,6318.0,-3255.0,-3.0,-5.0,-26.0,-33.0,-8.0,-4.0,-2.0,-4.0,0.1443021297454834
61,-293.0,-78.0,-33.0,0.0,-9856.0,-10991.0,6318.0,-3255.0,0.0,-5.0,-3.0,-16.0,-2.0,-3.0,-3.0,1.0,0.1466214656829834
62,-297.0,-85.0,-96.0,0.0,-9894.0,-10960.0,6329.0,-3224.0,0.0,-5.0,-3.0,-16.0,-2.0,-3.0,-3.0,1.0,0.1493394374847412
63,-297.0,-85.0,-96.0,0.0,-9894.0,-10960.0,6329.0,-3224.0,4.0,12.0,21.0,2.0,7.0,5.0,3.0,1.0,0.15198421478271484
64,-297.0,-85.0,-96.0,0.0,-9894.0,-10960.0,6329.0,-3224.0,-1.0,2.0,10.0,6.0,14.0,-2.0,-1.0,-1.0,0.15434980392456055
65,-112.0,-52.0,-147.0,0.0,-9913.0,-10946.0,6328.0,-3212.0,-1.0,2.0,10.0,6.0,14.0,-2.0,-1.0,-1.0,0.15664196014404297
66,-112.0,-52.0,-147.0,0.0,-9913.0,-10946.0,6328.0,-3212.0,-5.0,-1.0,-4.0,-10.0,10.0,-2.0,-2.0,-4.0,0.15897011756896973
67,-112.0,-52.0,-147.0,0.0,-9913.0,-10946.0,6328.0,-3212.0,-2.0,1.0,1.0,-2.0,-5.0,7.0,-1.0,-2.0,0.1613752841949463
68,101.0,-55.0,-101.0,0.0,-9894.0,-10961.0,6331.0,-3215.0,-2.0,1.0,1.0,-2.0,-5.0,7.0,-1.0,-2.0,0.16367673873901367
69,101.0,-55.0,-101.0,0.0,-9894.0,-10961.0,6331.0,-3215.0,-2.0,-6.0,-16.0,10.0,16.0,6.0,10.0,1.0,0.16601872444152832
70,101.0,-55.0,-101.0,0.0,-9894.0,-10961.0,6331.0,-3215.0,2.0,14.0,1.0,-13.0,-3.0,5.0,3.0,4.0,0.16828370094299316
71,132.0,-38.0,-72.0,0.0,-9873.0,-10982.0,6327.0,-3217.0,2.0,14.0,1.0,-13.0,-3.0,5.0,3.0,4.0,0.1705460548400879
72,132.0,-38.0,-72.0,0.0,-9873.0,-10982.0,6327.0,-3217.0,-2.0,13.0,21.0,14.0,-6.0,-14.0,-18.0,-7.0,0.17290735244750977
73,-28.0,21.0,-63.0,0.0,-9876.0,-10985.0,6320.0,-3210.0,-2.0,13.0,21.0,14.0,-6.0,-14.0,-18.0,-7.0,0.17516350746154785
74,-28.0,21.0,-63.0,0.0,-9876.0,-10985.0,6320.0,-3210.0,-3.0,-17.0,-20.0,-13.0,-5.0,-1.0,13.0,2.0,0.17754411697387695
75,-28.0,21.0,-63.0,0.0,-9876.0,-10985.0,6320.0,-3210.0,9.0,-3.0,1.0,-1.0,-28.0,3.0,-5.0,10.0,0.1798396110534668
76,-93.0,48.0,-50.0,0.0,-9892.0,-10972.0,6317.0,-3212.0,9.0,-3.0,1.0,-1.0,-28.0,3.0,-5.0,10.0,0.18264007568359375
77,-93.0,48.0,-50.0,0.0,-9892.0,-10972.0,6317.0,-3212.0,-5.0,-22.0,-16.0,-5.0,-4.0,7.0,-5.0,-3.0,0.18530797958374023
78,-93.0,48.0,-50.0,0.0,-9892.0,-10972.0,6317.0,-3212.0,-6.0,-4.0,7.0,-11.0,22.0,-18.0,4.0,-2.0,0.18785452842712402
79,-26.0,53.0,-31.0,0.0,-9900.0,-10966.0,6311.0,-3219.0,-6.0,-4.0,7.0,-11.0,22.0,-18.0,4.0,-2.0,0.19014763832092285
80,-26.0,53.0,-31.0,0.0,-9900.0,-10966.0,6311.0,-3219.0,-2.0,-8.0,-11.0,-1.0,-12.0,-10.0,-15.0,-7.0,0.19248557090759277
81,-26.0,53.0,-31.0,0.0,-9900.0,-10966.0,6311.0,-3219.0,-1.0,11.0,12.0,-6.0,30.0,11.0,15.0,-1.0,0.1947770118713379
82,-18.0,69.0,-35.0,0.0,-9910.0,-10961.0,6301.0,-3226.0,-1.0,11.0,12.0,-6.0,30.0,11.0,15.0,-1.0,0.19705843925476074
83,-18.0,69.0,-35.0,0.0,-9910.0,-10961.0,6301.0,-3226.0,1.0,5.0,8.0,6.0,16.0,4.0,1.0,2.0,0.19943976402282715
84,-18.0,69.0,-35.0,0.0,-9910.0,-10961.0,6301.0,-3226.0,-1.0,1.0,9.0,-5.0,-17.0,0.0,-1.0,1.0,0.2017662525177002
85,-81.0,61.0,-28.0,0.0,-9928.0,-10950.0,6292.0,-3225.0,-1.0,1.0,9.0,-5.0,-17.0,0.0,-1.0,1.0,0.20438456535339355
86,-81.0,61.0,-28.0,0.0,-9928.0,-10950.0,6292.0,-3225.0,5.0,10.0,7.0,-2.0,1.0,-2.0,-1.0,0.0,0.20701122283935547
87,-81.0,61.0,-28.0,0.0,-9928.0,-10950.0,6292.0,-3225.0,-9.0,-22.0,-28.0,-11.0,-17.0,3.0,-9.0,-6.0,0.2093214988708496
88,-121.0,68.0,-26.0,0.0,-9949.0,-10933.0,6288.0,-3227.0,-9.0,-22.0,-28.0,-11.0,-17.0,3.0,-9.0,-6.0,0.21166205406188965
89,-121.0,68.0,-26.0,0.0,-9949.0,-10933.0,6288.0,-3227.0,4.0,6.0,-2.0,6.0,10.0,-1.0,4.0,1.0,0.21463727951049805
90,-121.0,68.0,-26.0,0.0,-9949.0,-10933.0,6288.0,-3227.0,4.0,21.0,4.0,-5.0,8.0,-1.0,-2.0,-1.0,0.21718478202819824
91,-66.0,92.0,-35.0,0.0,-9962.0,-10920.0,6282.0,-3238.0,4.0,21.0,4.0,-5.0,8.0,-1.0,-2.0,-1.0,0.21950221061706543
92,-66.0,92.0,-35.0,0.0,-9962.0,-10920.0,6282.0,-3238.0,-1.0,-1.0,6.0,5.0,-12.0,2.0,1.0,0.0,0.22188043594360352
93,-66.0,92.0,-35.0,0.0,-9962.0,-10920.0,6282.0,-3238.0,-7.0,-13.0,-11.0,1.0,-1.0,1.0,-6.0,-4.0,0.22415423393249512
94,20.0,70.0,-42.0,0.0,-9962.0,-10922.0,6274.0,-3249.0,-7.0,-13.0,-11.0,1.0,-1.0,1.0,-6.0,-4.0,0.22644567489624023
95,20.0,70.0,-42.0,0.0,-9962.0,-10922.0,6274.0,-3249.0,1.0,11.0,14.0,1.0,3.0,10.0,14.0,3.0,0.22884106636047363
96,20.0,70.0,-42.0,0.0,-9962.0,-10922.0,6274.0,-3249.0,3.0,-3.0,-46.0,-15.0,-51.0,-15.0,-5.0,-2.0,0.23110055923461914
97,-17.0,53.0,-49.0,0.0,-9964.0,-10927.0,6264.0,-3245.0,3.0,-3.0,-46.0,-15.0,-51.0,-15.0,-5.0,-2.0,0.23339176177978516
98,-17.0,53.0,-49.0,0.0,-9964.0,-10927.0,6264.0,-3245.0,-4.0,7.0,-5.0,1.0,12.0,-4.0,-3.0,-4.0,0.23573756217956543
99,-17.0,53.0,-49.0,0.0,-9964.0,-10927.0,6264.0,-3245.0,-8.0,-18.0,5.0,11.0,21.0,11.0,0.0,-1.0,0.2381289005279541
100,-74.0,47.0,-30.0,0.0,-9972.0,-10921.0,6262.0,-3244.0,-8.0,-18.0,5.0,11.0,21.0,11.0,0.0,-1.0,0.24041533470153809
101,-74.0,47.0,-30.0,0.0,-9972.0,-10921.0,6262.0,-3244.0,-3.0,-14.0,-18.0,-9.0,-22.0,-1.0,3.0,-2.0,0.24280738830566406
102,-74.0,47.0,-30.0,0.0,-9972.0,-10921.0,6262.0,-3244.0,2.0,2.0,13.0,-7.0,3.0,-15.0,-21.0,0.0,0.24570155143737793
103,-53.0,62.0,-9.0,0.0,-9979.0,-10915.0,6260.0,-3249.0,2.0,2.0,13.0,-7.0,3.0,-15.0,-21.0,0.0,0.24825263023376465
104,-53.0,62.0,-9.0,0.0,-9979.0,-10915.0,6260.0,-3249.0,-6.0,-12.0,0.0,6.0,5.0,-1.0,-8.0,-1.0,0.250612735748291
105,-53.0,62.0,-9.0,0.0,-9979.0,-10915.0,6260.0,-3249.0,4.0,1.0,-6.0,1.0,-3.0,9.0,11.0,3.0,0.25289106369018555
106,-54.0,74.0,-16.0,0.0,-9989.0,-10907.0,6254.0,-3255.0,4.0,1.0,-6.0,1.0,-3.0,9.0,11.0,3.0,0.25515198707580566
107,-54.0,74.0,-16.0,0.0,-9989.0,-10907.0,6254.0,-3255.0,-3.0,-5.0,-1.0,0.0,14.0,-8.0,0.0,-3.0,0.2575263977050781
108,-54.0,74.0,-16.0,0.0,-9989.0,-10907.0,6254.0,-3255.0,-6.0,2.0,18.0,-2.0,-1.0,0.0,3.0,-3.0,0.2598409652709961
109,-23.0,47.0,-6.0,0.0,-9996.0,-10903.0,6248.0,-3257.0,-6.0,2.0,18.0,-2.0,-1.0,0.0,3.0,-3.0,0.26211023330688477
110,-23.0,47.0,-6.0,0.0,-9996.0,-10903.0,6248.0,-3257.0,6.0,28.0,25.0,-1.0,-3.0,3.0,3.0,1.0,0.2644655704498291
111,-23.0,47.0,-6.0,0.0,-9996.0,-10903.0,6248.0,-3257.0,1.0,8.0,11.0,3.0,10.0,2.0,2.0,1.0,0.2667734622955322
112,-103.0,24.0,-1.0,0.0,-10010.0,-10894.0,6246.0,-3249.0,1.0,8.0,11.0,3.0,10.0,2.0,2.0,1.0,0.269026517868042
113,-103.0,24.0,-1.0,0.0,-10010.0,-10894.0,6246.0,-3249.0,-6.0,-7.0,-19.0,-4.0,-1.0,-6.0,-7.0,0.0,0.27138447761535645
114,-103.0,24.0,-1.0,0.0,-10010.0,-10894.0,6246.0,-3249.0,-2.0,-11.0,-10.0,-2.0,-9.0,2.0,0.0,-1.0,0.2736544609069824
115,-141.0,20.0,20.0,0.0,-10025.0,-10880.0,6251.0,-3241.0,-2.0,-11.0,-10.0,-2.0,-9.0,2.0,0.0,-1.0,0.27645325660705566
116,-141.0,20.0,20.0,0.0,-10025.0,-10880.0,6251.0,-3241.0,3.0,2.0,6.0,2.0,-1.0,2.0,-3.0,1.0,0.27913665771484375
117,-141.0,20.0,20.0,0.0,-10025.0,-10880.0,6251.0,-3241.0,2.0,4.0,-12.0,-2.0,15.0,-1.0,8.0,0.0,0.2814502716064453
118,-154.0,41.0,41.0,0.0,-10040.0,-10862.0,6259.0,-3238.0,2.0,4.0,-12.0,-2.0,15.0,-1.0,8.0,0.0,0.283740758895874
119,-154.0,41.0,41.0,0.0,-10040.0,-10862.0,6259.0,-3238.0,-1.0,6.0,19.0,-6.0,-24.0,-4.0,-4.0,-3.0,0.28616952896118164
120,-154.0,41.0,41.0,0.0,-10040.0,-10862.0,6259.0,-3238.0,-1.0,-13.0,-3.0,-2.0,-7.0,1.0,0.0,1.0,0.2884640693664551
121,-93.0,70.0,40.0,0.0,-10048.0,-10850.0,6264.0,-3246.0,-1.0,-13.0,-3.0,-2.0,-7.0,1.0,0.0,1.0,0.2907428741455078
122,-93.0,70.0,40.0,0.0,-10048.0,-10850.0,6264.0,-3246.0,1.0,-3.0,2.0,5.0,13.0,1.0,-1.0,2.0,0.2930896282196045
123,-93.0,70.0,40.0,0.0,-10048.0,-10850.0,6264.0,-3246.0,-7.0,-10.0,-8.0,0.0,10.0,8.0,11.0,-1.0,0.2953643798828125
124,-37.0,81.0,44.0,0.0,-10052.0,-10842.0,6264.0,-3258.0,-7.0,-10.0,-8.0,0.0,10.0,8.0,11.0,-1.0,0.29762840270996094
125,-37.0,81.0,44.0,0.0,-10052.0,-10842.0,6264.0,-3258.0,-2.0,-1.0,-2.0,-4.0,-8.0,-6.0,-12.0,-4.0,0.299957275390625
126,-37.0,81.0,44.0,0.0,-10052.0,-10842.0,6264.0,-3258.0,4.0,6.0,0.0,-3.0,3.0,6.0,0.0,2.0,0.30225586891174316
127,-30.0,101.0,40.0,0.0,-10058.0,-10833.0,6262.0,-3275.0,4.0,6.0,0.0,-3.0,3.0,6.0,0.0,2.0,0.3045988082885742
128,-30.0,101.0,40.0,0.0,-10058.0,-10833.0,6262.0,-3275.0,-9.0,-21.0,6.0,6.0,-6.0,-3.0,-1.0,-5.0,0.3077256679534912
129,-30.0,101.0,40.0,0.0,-10058.0,-10833.0,6262.0,-3275.0,11.0,13.0,-11.0,-10.0,-10.0,-1.0,1.0,3.0,0.3105897903442383
130,57.0,116.0,29.0,0.0,-10056.0,-10834.0,6253.0,-3296.0,11.0,13.0,-11.0,-10.0,-10.0,-1.0,1.0,3.0,0.3128774166107178
131,57.0,116.0,29.0,0.0,-10056.0,-10834.0,6253.0,-3296.0,-2.0,-5.0,-22.0,-2.0,20.0,-5.0,4.0,0.0,0.3152158260345459
132,57.0,116.0,29.0,0.0,-10056.0,-10834.0,6253.0,-3296.0,-7.0,-6.0,3.0,5.0,-2.0,-9.0,-11.0,-9.0,0.3175466060638428
133,77.0,97.0,3.0,0.0,-10051.0,-10840.0,6240.0,-3313.0,-7.0,-6.0,3.0,5.0,-2.0,-9.0,-11.0,-9.0,0.32004809379577637
134,77.0,97.0,3.0,0.0,-10051.0,-10840.0,6240.0,-3313.0,0.0,-3.0,0.0,-4.0,15.0,6.0,1.0,2.0,0.32241249084472656
135,77.0,97.0,3.0,0.0,-10051.0,-10840.0,6240.0,-3313.0,-8.0,-7.0,21.0,11.0,-5.0,-3.0,-4.0,-4.0,0.32469987869262695
136,79.0,73.0,-32.0,0.0,-10046.0,-10851.0,6226.0,-3321.0,-8.0,-7.0,21.0,11.0,-5.0,-3.0,-4.0,-4.0,0.3270449638366699
137,79.0,73.0,-32.0,0.0,-10046.0,-10851.0,6226.0,-3321.0,1.0,7.0,0.0,-6.0,-11.0,-2.0,1.0,0.0,0.3293876647949219
138,79.0,73.0,-32.0,0.0,-10046.0,-10851.0,6226.0,-3321.0,-3.0,-8.0,-1.0,2.0,-11.0,-1.0,-3.0,1.0,0.3316500186920166
139,62.0,42.0,-47.0,0.0,-10040.0,-10862.0,6215.0,-3325.0,-3.0,-8.0,-1.0,2.0,-11.0,-1.0,-3.0,1.0,0.33393120765686035
140,62.0,42.0,-47.0,0.0,-10040.0,-10862.0,6215.0,-3325.0,-1.0,4.0,7.0,-1.0,-8.0,-10.0,-10.0,-1.0,0.33643221855163574
141,62.0,42.0,-47.0,0.0,-10040.0,-10862.0,6215.0,-3325.0,-3.0,-1.0,-9.0,2.0,6.0,-2.0,-2.0,-3.0,0.3392772674560547
142,82.0,2.0,-64.0,0.0,-10028.0,-10878.0,6207.0,-3323.0,-3.0,-1.0,-9.0,2.0,6.0,-2.0,-2.0,-3.0,0.3419640064239502
143,82.0,2.0,-64.0,0.0,-10028.0,-10878.0,6207.0,-3323.0,5.0,-4.0,-38.0,-4.0,-10.0,0.0,3.0,1.0,0.3443167209625244
144,82.0,2.0,-64.0,0.0,-10028.0,-10878.0,6207.0,-3323.0,0.0,4.0,0.0,1.0,3.0,1.0,2.0,-1.0,0.3467428684234619
145,70.0,-10.0,-77.0,0.0,-10018.0,-10893.0,6199.0,-3319.0,0.0,4.0,0.0,1.0,3.0,1.0,2.0,-1.0,0.34906816482543945
146,70.0,-10.0,-77.0,0.0,-10018.0,-10893.0,6199.0,-3319.0,-5.0,-9.0,27.0,9.0,8.0,6.0,3.0,-2.0,0.35146188735961914
147,70.0,-10.0,-77.0,0.0,-10018.0,-10893.0,6199.0,-3319.0,2.0,22.0,20.0,2.0,-47.0,-16.0,-9.0,-1.0,0.35372114181518555
148,104.0,-11.0,-78.0,0.0,-10005.0,-10910.0,6190.0,-3318.0,2.0,22.0,20.0,2.0,-47.0,-16.0,-9.0,-1.0,0.35600781440734863
149,104.0,-11.0,-78.0,0.0,-10005.0,-10910.0,6190.0,-3318.0,10.0,27.0,12.0,1.0,-14.0,-3.0,-9.0,2.0,0.3583405017852783
150,104.0,-11.0,-78.0,0.0,-10005.0,-10910.0,6190.0,-3318.0,1.0,1.0,2.0,0.0,15.0,3.0,0.0,1.0,0.36060047149658203
151,114.0,-25.0,-71.0,0.0,-9989.0,-10930.0,6182.0,-3316.0,1.0,1.0,2.0,0.0,15.0,3.0,0.0,1.0,0.36284708976745605
152,114.0,-25.0,-71.0,0.0,-9989.0,-10930.0,6182.0,-3316.0,4.0,4.0,-17.0,-10.0,-3.0,1.0,5.0,2.0,0.3652520179748535
153,114.0,-25.0,-71.0,0.0,-9989.0,-10930.0,6182.0,-3316.0,-5.0,-7.0,6.0,3.0,-5.0,4.0,6.0,0.0,0.36763668060302734
154,127.0,-19.0,-67.0,0.0,-9973.0,-10950.0,6173.0,-3315.0,-5.0,-7.0,6.0,3.0,-5.0,4.0,6.0,0.0,0.3705005645751953
155,127.0,-19.0,-67.0,0.0,-9973.0,-10950.0,6173.0,-3315.0,-1.0,-11.0,-15.0,-8.0,-23.0,-5.0,-8.0,-5.0,0.37318849563598633
156,127.0,-19.0,-67.0,0.0,-9973.0,-10950.0,6173.0,-3315.0,-1.0,-14.0,-14.0,-4.0,-4.0,-1.0,-6.0,-1.0,0.37546539306640625
157,111.0,-5.0,-56.0,0.0,-9960.0,-10967.0,6163.0,-3315.0,-1.0,-14.0,-14.0,-4.0,-4.0,-1.0,-6.0,-1.0,0.37773561477661133
158,111.0,-5.0,-56.0,0.0,-9960.0,-10967.0,6163.0,-3315.0,-4.0,0.0,7.0,8.0,13.0,2.0,3.0,-1.0,0.380155086517334
159,111.0,-5.0,-56.0,0.0,-9960.0,-10967.0,6163.0,-3315.0,-7.0,-20.0,-8.0,-8.0,-2.0,1.0,1.0,-3.0,0.38243532180786133
160,95.0,7.0,-43.0,0.0,-9951.0,-10981.0,6152.0,-3315.0,-7.0,-20.0,-8.0,-8.0,-2.0,1.0,1.0,-3.0,0.3848080635070801
161,95.0,7.0,-43.0,0.0,-9951.0,-10981.0,6152.0,-3315.0,-5.0,-4.0,20.0,7.0,7.0,2.0,1.0,-2.0,0.3872106075286865
162,95.0,7.0,-43.0,0.0,-9951.0,-10981.0,6152.0,-3315.0,-4.0,-5.0,-9.0,-3.0,12.0,-12.0,-1.0,-2.0,0.3894815444946289
163,72.0,15.0,-34.0,0.0,-9943.0,-10992.0,6145.0,-3318.0,-4.0,-5.0,-9.0,-3.0,12.0,-12.0,-1.0,-2.0,0.39174890518188477
164,72.0,15.0,-34.0,0.0,-9943.0,-10992.0,6145.0,-3318.0,2.0,7.0,0.0,-5.0,-7.0,1.0,-11.0,-1.0,0.39409613609313965
165,72.0,15.0,-34.0,0.0,-9943.0,-10992.0,6145.0,-3318.0,5.0,10.0,4.0,-2.0,4.0,7.0,3.0,2.0,0.3963954448699951
166,58.0,9.0,-24.0,0.0,-9935.0,-11001.0,6141.0,-3321.0,5.0,10.0,4.0,-2.0,4.0,7.0,3.0,2.0,0.398695707321167
167,58.0,9.0,-24.0,0.0,-9935.0,-11001.0,6141.0,-3321.0,2.0,3.0,3.0,2.0,0.0,4.0,8.0,1.0,0.4018125534057617
168,58.0,9.0,-24.0,0.0,-9935.0,-11001.0,6141.0,-3321.0,8.0,23.0,5.0,2.0,4.0,0.0,0.0,2.0,0.40436840057373047
169,47.0,5.0,-19.0,0.0,-9928.0,-11007.0,6139.0,-3325.0,8.0,23.0,5.0,2.0,4.0,0.0,0.0,2.0,0.40668272972106934
170,47.0,5.0,-19.0,0.0,-9928.0,-11007.0,6139.0,-3325.0,-5.0,-3.0,14.0,2.0,-5.0,-7.0,-3.0,-2.0,0.4090564250946045
171,47.0,5.0,-19.0,0.0,-9928.0,-11007.0,6139.0,-3325.0,0.0,-2.0,-10.0,-3.0,4.0,0.0,0.0,-2.0,0.4117298126220703
172,78.0,13.0,-10.0,0.0,-9916.0,-11016.0,6137.0,-3333.0,0.0,-2.0,-10.0,-3.0,4.0,0.0,0.0,-2.0,0.41411638259887695
173,78.0,13.0,-10.0,0.0,-9916.0,-11016.0,6137.0,-3333.0,-5.0,-9.0,-6.0,6.0,12.0,1.0,-1.0,0.0,0.41653895378112793
174,78.0,13.0,-10.0,0.0,-9916.0,-11016.0,6137.0,-3333.0,1.0,-18.0,-26.0,2.0,27.0,16.0,-2.0,-1.0,0.418926477432251
175,115.0,27.0,-12.0,0.0,-9902.0,-11029.0,6130.0,-3344.0,1.0,-18.0,-26.0,2.0,27.0,16.0,-2.0,-1.0,0.4214637279510498
176,115.0,27.0,-12.0,0.0,-9902.0,-11029.0,6130.0,-3344.0,-1.0,-3.0,-5.0,-5.0,6.0,-9.0,0.0,-2.0,0.4241478443145752
177,115.0,27.0,-12.0,0.0,-9902.0,-11029.0,6130.0,-3344.0,2.0,17.0,23.0,-3.0,-10.0,-5.0,8.0,2.0,0.42656850814819336
178,121.0,27.0,-3.0,0.0,-9888.0,-11042.0,6123.0,-3355.0,2.0,17.0,23.0,-3.0,-10.0,-5.0,8.0,2.0,0.4288618564605713
179,121.0,27.0,-3.0,0.0,-9888.0,-11042.0,6123.0,-3355.0,2.0,3.0,-13.0,-9.0,-5.0,-1.0,-12.0,-1.0,0.4317152500152588
180,121.0,27.0,-3.0,0.0,-9888.0,-11042.0,6123.0,-3355.0,-3.0,-10.0,2.0,3.0,3.0,4.0,0.0,0.0,0.4344484806060791
181,111.0,24.0,-12.0,0.0,-9877.0,-11055.0,6114.0,-3363.0,-3.0,-10.0,2.0,3.0,3.0,4.0,0.0,0.0,0.43681764602661133
182,111.0,24.0,-12.0,0.0,-9877.0,-11055.0,6114.0,-3363.0,-2.0,-9.0,-2.0,4.0,-11.0,1.0,10.0,0.0,0.4391944408416748
183,111.0,24.0,-12.0,0.0,-9877.0,-11055.0,6114.0,-3363.0,-1.0,2.0,-6.0,2.0,3.0,-5.0,-9.0,-4.0,0.44153761863708496
184,74.0,31.0,-3.0,0.0,-9870.0,-11062.0,6107.0,-3370.0,-1.0,2.0,-6.0,2.0,3.0,-5.0,-9.0,-4.0,0.4438180923461914
185,74.0,31.0,-3.0,0.0,-9870.0,-11062.0,6107.0,-3370.0,-4.0,-4.0,4.0,2.0,-22.0,-9.0,0.0,-2.0,0.4462101459503174
186,74.0,31.0,-3.0,0.0,-9870.0,-11062.0,6107.0,-3370.0,-3.0,-7.0,1.0,0.0,-3.0,-6.0,-5.0,-1.0,0.4485890865325928
187,71.0,45.0,3.0,0.0,-9865.0,-11069.0,6099.0,-3379.0,-3.0,-7.0,1.0,0.0,-3.0,-6.0,-5.0,-1.0,0.4508678913116455
188,71.0,45.0,3.0,0.0,-9865.0,-11069.0,6099.0,-3379.0,0.0,2.0,0.0,-2.0,14.0,4.0,0.0,1.0,0.4532308578491211
189,71.0,45.0,3.0,0.0,-9865.0,-11069.0,6099.0,-3379.0,-1.0,3.0,-7.0,-2.0,-2.0,0.0,2.0,0.0,0.45551156997680664
190,61.0,48.0,19.0,0.0,-9860.0,-11074.0,6093.0,-3389.0,-1.0,3.0,-7.0,-2.0,-2.0,0.0,2.0,0.0,0.4578273296356201
191,61.0,48.0,19.0,0.0,-9860.0,-11074.0,6093.0,-3389.0,7.0,5.0,-21.0,-7.0,2.0,3.0,15.0,3.0,0.4601900577545166
192,61.0,48.0,19.0,0.0,-9860.0,-11074.0,6093.0,-3389.0,5.0,12.0,3.0,0.0,-1.0,-3.0,-4.0,1.0,0.4629402160644531
193,44.0,58.0,15.0,0.0,-9857.0,-11078.0,6086.0,-3398.0,5.0,12.0,3.0,0.0,-1.0,-3.0,-4.0,1.0,0.46573352813720703
194,44.0,58.0,15.0,0.0,-9857.0,-11078.0,6086.0,-3398.0,-7.0,-9.0,-1.0,-2.0,-16.0,-6.0,-5.0,-4.0,0.4682276248931885
195,44.0,58.0,15.0,0.0,-9857.0,-11078.0,6086.0,-3398.0,-3.0,-10.0,-15.0,-6.0,-9.0,3.0,-1.0,-1.0,0.4705355167388916
196,28.0,50.0,12.0,0.0,-9854.0,-11080.0,6081.0,-3406.0,-3.0,-10.0,-15.0,-6.0,-9.0,3.0,-1.0,-1.0,0.4728419780731201
197,28.0,50.0,12.0,0.0,-9854.0,-11080.0,6081.0,-3406.0,-4.0,-4.0,10.0,-1.0,-8.0,-1.0,1.0,-4.0,0.47519373893737793
198,28.0,50.0,12.0,0.0,-9854.0,-11080.0,6081.0,-3406.0,1.0,-6.0,-2.0,-2.0,3.0,2.0,10.0,-1.0,0.4774758815765381
199,42.0,43.0,7.0,0.0,-9850.0,-11084.0,6076.0,-3413.0,1.0,-6.0,-2.0,-2.0,3.0,2.0,10.0,-1.0,0.47983717918395996
200,42.0,43.0,7.0,0.0,-9850.0,-11084.0,6076.0,-3413.0,-2.0,-6.0,-20.0,-6.0,0.0,1.0,-10.0,-2.0,0.48221778869628906
201,42.0,43.0,7.0,0.0,-9850.0,-11084.0,6076.0,-3413.0,2.0,-3.0,4.0,-5.0,-16.0,-3.0,2.0,0.0,0.48472166061401367
202,44.0,47.0,12.0,0.0,-9845.0,-11089.0,6071.0,-3421.0,2.0,-3.0,4.0,-5.0,-16.0,-3.0,2.0,0.0,0.4870736598968506
203,44.0,47.0,12.0,0.0,-9845.0,-11089.0,6071.0,-3421.0,-2.0,7.0,19.0,3.0,14.0,1.0,0.0,0.0,0.4894218444824219
204,44.0,47.0,12.0,0.0,-9845.0,-11089.0,6071.0,-3421.0,-5.0,-2.0,-3.0,4.0,-3.0,0.0,-2.0,-3.0,0.49169135093688965
205,20.0,51.0,8.0,0.0,-9845.0,-11090.0,6065.0,-3428.0,-5.0,-2.0,-3.0,4.0,-3.0,0.0,-2.0,-3.0,0.4944114685058594
206,20.0,51.0,8.0,0.0,-9845.0,-11090.0,6065.0,-3428.0,5.0,21.0,16.0,-7.0,-3.0,-2.0,-3.0,1.0,0.49726438522338867
207,20.0,51.0,8.0,0.0,-9845.0,-11090.0,6065.0,-3428.0,0.0,-5.0,2.0,3.0,2.0,-1.0,5.0,0.0,0.49969983100891113
208,31.0,45.0,7.0,0.0,-9841.0,-11094.0,6061.0,-3434.0,0.0,-5.0,2.0,3.0,2.0,-1.0,5.0,0.0,0.5020065307617188
209,31.0,45.0,7.0,0.0,-9841.0,-11094.0,6061.0,-3434.0,-3.0,-5.0,-3.0,2.0,6.0,3.0,0.0,-2.0,0.5043559074401855
210,31.0,45.0,7.0,0.0,-9841.0,-11094.0,6061.0,-3434.0,9.0,12.0,19.0,-1.0,10.0,4.0,-4.0,4.0,0.5066697597503662
211,35.0,42.0,5.0,0.0,-9839.0,-11098.0,6054.0,-3439.0,9.0,12.0,19.0,-1.0,10.0,4.0,-4.0,4.0,0.5089516639709473
212,35.0,42.0,5.0,0.0,-9839.0,-11098.0,6054.0,-3439.0,5.0,8.0,-1.0,1.0,10.0,4.0,5.0,4.0,0.5114362239837646
213,35.0,42.0,5.0,0.0,-9839.0,-11098.0,6054.0,-3439.0,-7.0,-6.0,13.0,-2.0,-20.0,-7.0,-3.0,-4.0,0.523902416229248
214,21.0,32.0,4.0,0.0,-9837.0,-11102.0,6050.0,-3442.0,-7.0,-6.0,13.0,-2.0,-20.0,-7.0,-3.0,-4.0,0.5293190479278564
215,21.0,32.0,4.0,0.0,-9837.0,-11102.0,6050.0,-3442.0,1.0,1.0,2.0,-1.0,0.0,-2.0,10.0,2.0,0.5336282253265381
216,21.0,32.0,4.0,0.0,-9837.0,-11102.0,6050.0,-3442.0,-5.0,5.0,-6.0,-2.0,5.0,-4.0,-1.0,-3.0,0.5481610298156738
217,13.0,28.0,-1.0,0.0,-9834.0,-11106.0,6046.0,-3443.0,-5.0,5.0,-6.0,-2.0,5.0,-4.0,-1.0,-3.0,0.5521285533905029
218,13.0,28.0,-1.0,0.0,-9834.0,-11106.0,6046.0,-3443.0,-2.0,-17.0,-24.0,0.0,6.0,5.0,1.0,1.0,0.5562748908996582
219,13.0,28.0,-1.0,0.0,-9834.0,-11106.0,6046.0,-3443.0,1.0,4.0,-12.0,-6.0,-38.0,-10.0,-4.0,1.0,0.5619537830352783
220,-5.0,30.0,1.0,0.0,-9835.0,-11107.0,6042.0,-3443.0,1.0,4.0,-12.0,-6.0,-38.0,-10.0,-4.0,1.0,0.5643858909606934
221,-5.0,30.0,1.0,0.0,-9835.0,-11107.0,6042.0,-3443.0,0.0,8.0,19.0,8.0,9.0,-2.0,-3.0,-3.0,0.5690183639526367
222,-5.0,30.0,1.0,0.0,-9835.0,-11107.0,6042.0,-3443.0,-5.0,-7.0,4.0,1.0,15.0,6.0,-2.0,-1.0,0.5841491222381592
223,-3.0,28.0,5.0,0.0,-9835.0,-11107.0,6040.0,-3445.0,-5.0,-7.0,4.0,1.0,15.0,6.0,-2.0,-1.0,0.587944746017456
224,-3.0,28.0,5.0,0.0,-9835.0,-11107.0,6040.0,-3445.0,5.0,21.0,19.0,-2.0,1.0,-2.0,1.0,2.0,0.6001760959625244
225,-3.0,28.0,5.0,0.0,-9835.0,-11107.0,6040.0,-3445.0,5.0,6.0,-5.0,-2.0,11.0,2.0,-7.0,2.0,0.6089491844177246
226,-13.0,24.0,1.0,0.0,-9837.0,-11107.0,6038.0,-3446.0,5.0,6.0,-5.0,-2.0,11.0,2.0,-7.0,2.0,0.6118049621582031
227,-13.0,24.0,1.0,0.0,-9837.0,-11107.0,6038.0,-3446.0,-1.0,-4.0,-8.0,-7.0,-17.0,-5.0,-5.0,-3.0,0.6141476631164551
228,-13.0,24.0,1.0,0.0,-9837.0,-11107.0,6038.0,-3446.0,0.0,-12.0,-20.0,-2.0,1.0,5.0,8.0,0.0,0.6222817897796631
229,-14.0,15.0,-3.0,0.0,-9837.0,-11107.0,6038.0,-3446.0,0.0,-12.0,-20.0,-2.0,1.0,5.0,8.0,0.0,0.6251580715179443
230,-14.0,15.0,-3.0,0.0,-9837.0,-11107.0,6038.0,-3446.0,-4.0,-14.0,-18.0,-4.0,-3.0,-3.0,-7.0,-2.0,0.6277198791503906
231,-14.0,15.0,-3.0,0.0,-9837.0,-11107.0,6038.0,-3446.0,0.0,9.0,8.0,-5.0,4.0,-4.0,-14.0,-4.0,0.6439764499664307
232,5.0,5.0,-8.0,0.0,-9836.0,-11107.0,6038.0,-3446.0,0.0,9.0,8.0,-5.0,4.0,-4.0,-14.0,-4.0,0.6462750434875488
233,5.0,5.0,-8.0,0.0,-9836.0,-11107.0,6038.0,-3446.0,-8.0,-20.0,-13.0,-7.0,-6.0,-6.0,-5.0,-2.0,0.6517937183380127
234,5.0,5.0,-8.0,0.0,-9836.0,-11107.0,6038.0,-3446.0,2.0,-4.0,-13.0,-5.0,1.0,-4.0,5.0,0.0,0.6673905849456787
235,16.0,8.0,-17.0,0.0,-9834.0,-11111.0,6035.0,-3445.0,2.0,-4.0,-13.0,-5.0,1.0,-4.0,5.0,0.0,0.6705629825592041
236,16.0,8.0,-17.0,0.0,-9834.0,-11111.0,6035.0,-3445.0,1.0,-10.0,-6.0,6.0,4.0,3.0,3.0,3.0,0.6747941970825195
237,16.0,8.0,-17.0,0.0,-9834.0,-11111.0,6035.0,-3445.0,-1.0,-24.0,-37.0,-8.0,-6.0,1.0,-8.0,1.0,0.6823992729187012
238,44.0,2.0,-27.0,0.0,-9828.0,-11118.0,6031.0,-3445.0,-1.0,-24.0,-37.0,-8.0,-6.0,1.0,-8.0,1.0,0.685049295425415
239,44.0,2.0,-27.0,0.0,-9828.0,-11118.0,6031.0,-3445.0,11.0,16.0,-14.0,-8.0,-11.0,-5.0,-1.0,3.0,0.6878941059112549
240,44.0,2.0,-27.0,0.0,-9828.0,-11118.0,6031.0,-3445.0,-6.0,14.0,32.0,21.0,32.0,5.0,7.0,-2.0,0.7044785022735596
241,127.0,-18.0,-61.0,0.0,-9813.0,-11135.0,6023.0,-3449.0,-6.0,14.0,32.0,21.0,32.0,5.0,7.0,-2.0,0.7067663669586182
242,127.0,-18.0,-61.0,0.0,-9813.0,-11135.0,6023.0,-3449.0,-17.0,-23.0,-11.0,3.0,15.0,6.0,6.0,-6.0,0.7115426063537598
243,127.0,-18.0,-61.0,0.0,-9813.0,-11135.0,6023.0,-3449.0,9.0,32.0,-2.0,3.0,3.0,-7.0,-5.0,3.0,0.7269506454467773
244,269.0,-80.0,-157.0,0.0,-9779.0,-11172.0,6009.0,-3450.0,9.0,32.0,-2.0,3.0,3.0,-7.0,-5.0,3.0,0.7294232845306396
245,269.0,-80.0,-157.0,0.0,-9779.0,-11172.0,6009.0,-3450.0,-11.0,-74.0,-52.0,-4.0,-23.0,4.0,24.0,1.0,0.7338035106658936
246,269.0,-80.0,-157.0,0.0,-9779.0,-11172.0,6009.0,-3450.0,17.0,23.0,1.0,-32.0,-34.0,-25.0,5.0,4.0,0.7418625354766846
247,419.0,-139.0,-345.0,0.0,-9729.0,-11237.0,5976.0,-3439.0,17.0,23.0,1.0,-32.0,-34.0,-25.0,5.0,4.0,0.7441463470458984
248,419.0,-139.0,-345.0,0.0,-9729.0,-11237.0,5976.0,-3439.0,18.0,34.0,23.0,7.0,-30.0,-5.0,-3.0,4.0,0.7486562728881836
249,419.0,-139.0,-345.0,0.0,-9729.0,-11237.0,5976.0,-3439.0,-1.0,-18.0,18.0,18.0,5.0,7.0,2.0,6.0,0.7643799781799316
250,673.0,-218.0,-516.0,0.0,-9642.0,-11351.0,5919.0,-3408.0,-1.0,-18.0,18.0,18.0,5.0,7.0,2.0,6.0,0.7669045925140381
251,673.0,-218.0,-516.0,0.0,-9642.0,-11351.0,5919.0,-3408.0,-26.0,-5.0,38.0,7.0,18.0,-4.0,-12.0,-13.0,0.7712399959564209
252,673.0,-218.0,-516.0,0.0,-9642.0,-11351.0,5919.0,-3408.0,21.0,29.0,-47.0,-17.0,14.0,5.0,-2.0,4.0,0.7867188453674316
253,621.0,-177.0,-680.0,0.0,-9593.0,-11467.0,5813.0,-3338.0,21.0,29.0,-47.0,-17.0,14.0,5.0,-2.0,4.0,0.789043664932251
254,621.0,-177.0,-680.0,0.0,-9593.0,-11467.0,5813.0,-3338.0,-2.0,-13.0,-34.0,9.0,-3.0,3.0,-3.0,0.0,0.7940199375152588
255,621.0,-177.0,-680.0,0.0,-9593.0,-11467.0,5813.0,-3338.0,-37.0,-43.0,38.0,7.0,-6.0,-6.0,-18.0,-16.0,0.8018062114715576
256,414.0,-107.0,-745.0,0.0,-9567.0,-11566.0,5704.0,-3259.0,-37.0,-43.0,38.0,7.0,-6.0,-6.0,-18.0,-16.0,0.8041143417358398
257,414.0,-107.0,-745.0,0.0,-9567.0,-11566.0,5704.0,-3259.0,-8.0,10.0,10.0,-3.0,22.0,2.0,-11.0,-5.0,0.8087527751922607
258,414.0,-107.0,-745.0,0.0,-9567.0,-11566.0,5704.0,-3259.0,1.0,1.0,-49.0,-5.0,-17.0,-3.0,6.0,-1.0,0.8244907855987549
259,438.0,-168.0,-850.0,0.0,-9549.0,-11669.0,5579.0,-3158.0,1.0,1.0,-49.0,-5.0,-17.0,-3.0,6.0,-1.0,0.8268232345581055
260,438.0,-168.0,-850.0,0.0,-9549.0,-11669.0,5579.0,-3158.0,7.0,-12.0,-3.0,-8.0,7.0,-1.0,-3.0,1.0,0.8311574459075928
261,438.0,-168.0,-850.0,0.0,-9549.0,-11669.0,5579.0,-3158.0,-9.0,-21.0,14.0,11.0,-4.0,4.0,4.0,-2.0,0.8469905853271484
262,344.0,-248.0,-847.0,0.0,-9551.0,-11770.0,5442.0,-3013.0,-9.0,-21.0,14.0,11.0,-4.0,4.0,4.0,-2.0,0.8492989540100098
263,344.0,-248.0,-847.0,0.0,-9551.0,-11770.0,5442.0,-3013.0,-7.0,25.0,28.0,-2.0,-1.0,-4.0,-2.0,-5.0,0.8538188934326172
264,344.0,-248.0,-847.0,0.0,-9551.0,-11770.0,5442.0,-3013.0,-7.0,-4.0,21.0,6.0,7.0,2.0,-1.0,-2.0,0.8697009086608887
265,366.0,-243.0,-855.0,0.0,-9560.0,-11870.0,5290.0,-2858.0,-7.0,-4.0,21.0,6.0,7.0,2.0,-1.0,-2.0,0.8719832897186279
266,366.0,-243.0,-855.0,0.0,-9560.0,-11870.0,5290.0,-2858.0,5.0,-7.0,-17.0,-2.0,-5.0,0.0,-13.0,0.0,0.874678373336792
267,366.0,-243.0,-855.0,0.0,-9560.0,-11870.0,5290.0,-2858.0,-46.0,-88.0,16.0,0.0,2.0,4.0,0.0,-7.0,0.8840951919555664
268,383.0,-250.0,-1196.0,0.0,-9579.0,-11989.0,5088.0,-2658.0,-46.0,-88.0,16.0,0.0,2.0,4.0,0.0,-7.0,0.8863856792449951
269,383.0,-250.0,-1196.0,0.0,-9579.0,-11989.0,5088.0,-2658.0,19.0,-4.0,11.0,2.0,1.0,8.0,10.0,15.0,0.8911137580871582
270,383.0,-250.0,-1196.0,0.0,-9579.0,-11989.0,5088.0,-2658.0,33.0,107.0,15.0,-1.0,1.0,0.0,3.0,13.0,0.9067683219909668
271,467.0,-391.0,-1864.0,0.0,-9563.0,-12147.0,4856.0,-2424.0,33.0,107.0,15.0,-1.0,1.0,0.0,3.0,13.0,0.9095587730407715
272,467.0,-391.0,-1864.0,0.0,-9563.0,-12147.0,4856.0,-2424.0,87.0,114.0,10.0,-53.0,-3.0,-3.0,-3.0,9.0,0.9137153625488281
273,467.0,-391.0,-1864.0,0.0,-9563.0,-12147.0,4856.0,-2424.0,3.0,-2.0,-11.0,-8.0,-3.0,-2.0,1.0,1.0,0.9215011596679688
274,710.0,-562.0,-2826.0,0.0,-9526.0,-12373.0,4506.0,-2080.0,3.0,-2.0,-11.0,-8.0,-3.0,-2.0,1.0,1.0,0.9293458461761475
275,710.0,-562.0,-2826.0,0.0,-9526.0,-12373.0,4506.0,-2080.0,25.0,37.0,9.0,41.0,13.0,1.0,1.0,-6.0,0.9317142963409424
276,710.0,-562.0,-2826.0,0.0,-9526.0,-12373.0,4506.0,-2080.0,-4.0,-19.0,-20.0,18.0,-2.0,2.0,3.0,-3.0,0.9441266059875488
277,687.0,-674.0,-3825.0,0.0,-9497.0,-12629.0,4023.0,-1607.0,-4.0,-19.0,-20.0,18.0,-2.0,2.0,3.0,-3.0,0.9479129314422607
278,687.0,-674.0,-3825.0,0.0,-9497.0,-12629.0,4023.0,-1607.0,-35.0,-18.0,-8.0,-10.0,-10.0,-9.0,-5.0,-10.0,0.9520692825317383
279,687.0,-674.0,-3825.0,0.0,-9497.0,-12629.0,4023.0,-1607.0,-21.0,-23.0,-11.0,-7.0,-2.0,0.0,-6.0,-12.0,0.9684605598449707
280,67.0,-764.0,-4713.0,0.0,-9524.0,-12839.0,3447.0,-1015.0,-21.0,-23.0,-11.0,-7.0,-2.0,0.0,-6.0,-12.0,0.9730446338653564
281,67.0,-764.0,-4713.0,0.0,-9524.0,-12839.0,3447.0,-1015.0,4.0,19.0,18.0,30.0,4.0,-2.0,7.0,11.0,0.977078914642334
282,67.0,-764.0,-4713.0,0.0,-9524.0,-12839.0,3447.0,-1015.0,6.0,3.0,15.0,-16.0,-4.0,-1.0,-3.0,-7.0,0.9808855056762695
283,-826.0,-935.0,-5308.0,0.0,-9646.0,-12940.0,2805.0,-302.0,6.0,3.0,15.0,-16.0,-4.0,-1.0,-3.0,-7.0,0.9891452789306641
284,-826.0,-935.0,-5308.0,0.0,-9646.0,-12940.0,2805.0,-302.0,4.0,9.0,4.0,1.0,5.0,3.0,-2.0,-4.0,0.9914894104003906
285,-826.0,-935.0,-5308.0,0.0,-9646.0,-12940.0,2805.0,-302.0,19.0,18.0,9.0,17.0,7.0,4.0,6.0,14.0,1.0048737525939941
286,-1642.0,-1093.0,-5468.0,0.0,-9850.0,-12909.0,2131.0,500.0,19.0,18.0,9.0,17.0,7.0,4.0,6.0,14.0,1.0072059631347656
287,-1642.0,-1093.0,-5468.0,0.0,-9850.0,-12909.0,2131.0,500.0,-42.0,-17.0,-21.0,-12.0,-6.0,-10.0,-2.0,-11.0,1.010810375213623
288,-1642.0,-1093.0,-5468.0,0.0,-9850.0,-12909.0,2131.0,500.0,23.0,24.0,0.0,-18.0,-26.0,-2.0,2.0,3.0,1.026627540588379
289,-2086.0,-1181.0,-5610.0,0.0,-10065.0,-12779.0,1444.0,1327.0,23.0,24.0,0.0,-18.0,-26.0,-2.0,2.0,3.0,1.0289249420166016
290,-2086.0,-1181.0,-5610.0,0.0,-10065.0,-12779.0,1444.0,1327.0,-19.0,-36.0,-11.0,2.0,-3.0,1.0,-3.0,-10.0,1.0341997146606445
291,-2086.0,-1181.0,-5610.0,0.0,-10065.0,-12779.0,1444.0,1327.0,-10.0,-1.0,13.0,16.0,4.0,-3.0,-2.0,3.0,1.049854040145874
292,-2343.0,-1257.0,-5740.0,0.0,-10262.0,-12566.0,744.0,2166.0,-10.0,-1.0,13.0,16.0,4.0,-3.0,-2.0,3.0,1.0521578788757324
293,-2343.0,-1257.0,-5740.0,0.0,-10262.0,-12566.0,744.0,2166.0,1.0,-2.0,8.0,-9.0,-1.0,2.0,3.0,6.0,1.0545084476470947
294,-2343.0,-1257.0,-5740.0,0.0,-10262.0,-12566.0,744.0,2166.0,-14.0,-17.0,-9.0,0.0,20.0,8.0,1.0,-4.0,1.0724050998687744
295,-2670.0,-1309.0,-5666.0,0.0,-10453.0,-12258.0,56.0,2987.0,-14.0,-17.0,-9.0,0.0,20.0,8.0,1.0,-4.0,1.0747261047363281
296,-2670.0,-1309.0,-5666.0,0.0,-10453.0,-12258.0,56.0,2987.0,-9.0,-12.0,-7.0,-21.0,-6.0,2.0,-20.0,-6.0,1.0770652294158936
297,-2670.0,-1309.0,-5666.0,0.0,-10453.0,-12258.0,56.0,2987.0,5.0,1.0,-4.0,-10.0,32.0,9.0,-13.0,-2.0,1.086683988571167
298,-2814.0,-1434.0,-5681.0,0.0,-10609.0,-11877.0,-618.0,3801.0,5.0,1.0,-4.0,-10.0,32.0,9.0,-13.0,-2.0,1.0889935493469238
299,-2814.0,-1434.0,-5681.0,0.0,-10609.0,-11877.0,-618.0,3801.0,-13.0,-14.0,10.0,18.0,-5.0,-8.0,-1.0,-5.0,1.102095603942871
300,-2814.0,-1434.0,-5681.0,0.0,-10609.0,-11877.0,-618.0,3801.0,7.0,4.0,3.0,-33.0,19.0,1.0,15.0,1.0,1.104398488998413
301,-3126.0,-1478.0,-5700.0,0.0,-10750.0,-11406.0,-1295.0,4595.0,7.0,4.0,3.0,-33.0,19.0,1.0,15.0,1.0,1.1095695495605469
302,-3126.0,-1478.0,-5700.0,0.0,-10750.0,-11406.0,-1295.0,4595.0,-10.0,-14.0,-2.0,-7.0,-6.0,0.0,-3.0,1.0,1.1119365692138672
303,-3126.0,-1478.0,-5700.0,0.0,-10750.0,-11406.0,-1295.0,4595.0,-3.0,2.0,1.0,9.0,-5.0,-34.0,-6.0,-4.0,1.124574899673462
304,-3306.0,-1462.0,-5733.0,0.0,-10855.0,-10860.0,-1982.0,5362.0,-3.0,2.0,1.0,9.0,-5.0,-34.0,-6.0,-4.0,1.1301956176757812
305,-3306.0,-1462.0,-5733.0,0.0,-10855.0,-10860.0,-1982.0,5362.0,-7.0,-11.0,-15.0,-60.0,-1.0,-4.0,-13.0,-7.0,1.1349420547485352
306,-3306.0,-1462.0,-5733.0,0.0,-10855.0,-10860.0,-1982.0,5362.0,-2.0,0.0,8.0,14.0,-42.0,0.0,-3.0,0.0,1.146740436553955
307,-3198.0,-1424.0,-5732.0,0.0,-10891.0,-10276.0,-2657.0,6098.0,-2.0,0.0,8.0,14.0,-42.0,0.0,-3.0,0.0,1.1490240097045898
308,-3198.0,-1424.0,-5732.0,0.0,-10891.0,-10276.0,-2657.0,6098.0,2.0,-1.0,4.0,17.0,-4.0,6.0,7.0,1.0,1.1536309719085693
309,-3198.0,-1424.0,-5732.0,0.0,-10891.0,-10276.0,-2657.0,6098.0,-7.0,-9.0,-11.0,-58.0,-23.0,-6.0,-12.0,-5.0,1.1615641117095947
310,-3041.0,-1372.0,-5762.0,0.0,-10854.0,-9661.0,-3319.0,6804.0,-7.0,-9.0,-11.0,-58.0,-23.0,-6.0,-12.0,-5.0,1.1692943572998047
311,-3041.0,-1372.0,-5762.0,0.0,-10854.0,-9661.0,-3319.0,6804.0,-3.0,-2.0,2.0,4.0,-8.0,20.0,-6.0,-3.0,1.1716792583465576
312,-3041.0,-1372.0,-5762.0,0.0,-10854.0,-9661.0,-3319.0,6804.0,0.0,1.0,1.0,27.0,26.0,-9.0,-12.0,1.0,1.1847703456878662
313,-2915.0,-1356.0,-5713.0,0.0,-10753.0,-9015.0,-3957.0,7476.0,0.0,1.0,1.0,27.0,26.0,-9.0,-12.0,1.0,1.1871919631958008
314,-2915.0,-1356.0,-5713.0,0.0,-10753.0,-9015.0,-3957.0,7476.0,-2.0,-3.0,5.0,16.0,14.0,5.0,14.0,7.0,1.1936705112457275
315,-2915.0,-1356.0,-5713.0,0.0,-10753.0,-9015.0,-3957.0,7476.0,3.0,-1.0,1.0,27.0,24.0,11.0,13.0,1.0,1.2070086002349854
316,-2851.0,-1291.0,-5520.0,0.0,-10610.0,-8344.0,-4564.0,8089.0,3.0,-1.0,1.0,27.0,24.0,11.0,13.0,1.0,1.2093424797058105
317,-2851.0,-1291.0,-5520.0,0.0,-10610.0,-8344.0,-4564.0,8089.0,-7.0,-6.0,-2.0,-8.0,-45.0,-15.0,-12.0,-9.0,1.2134959697723389
318,-2851.0,-1291.0,-5520.0,0.0,-10610.0,-8344.0,-4564.0,8089.0,9.0,8.0,6.0,-2.0,-38.0,-8.0,38.0,14.0,1.2298238277435303
319,-2682.0,-1171.0,-5267.0,0.0,-10422.0,-7671.0,-5132.0,8640.0,9.0,8.0,6.0,-2.0,-38.0,-8.0,38.0,14.0,1.232102870941162
320,-2682.0,-1171.0,-5267.0,0.0,-10422.0,-7671.0,-5132.0,8640.0,2.0,0.0,2.0,8.0,8.0,-5.0,-3.0,3.0,1.234539270401001
321,-2682.0,-1171.0,-5267.0,0.0,-10422.0,-7671.0,-5132.0,8640.0,-4.0,-3.0,-2.0,19.0,32.0,17.0,4.0,-3.0,1.244553565979004
322,-2602.0,-1044.0,-4867.0,0.0,-10217.0,-6999.0,-5659.0,9113.0,-4.0,-3.0,-2.0,19.0,32.0,17.0,4.0,-3.0,1.2470622062683105
323,-2602.0,-1044.0,-4867.0,0.0,-10217.0,-6999.0,-5659.0,9113.0,4.0,2.0,1.0,4.0,10.0,1.0,13.0,7.0,1.2503037452697754
324,-2602.0,-1044.0,-4867.0,0.0,-10217.0,-6999.0,-5659.0,9113.0,-5.0,-2.0,1.0,35.0,27.0,-6.0,-19.0,-13.0,1.2669031620025635
325,-2370.0,-945.0,-4295.0,0.0,-10008.0,-6366.0,-6118.0,9504.0,-5.0,-2.0,1.0,35.0,27.0,-6.0,-19.0,-13.0,1.2691752910614014
326,-2370.0,-945.0,-4295.0,0.0,-10008.0,-6366.0,-6118.0,9504.0,0.0,-3.0,0.0,19.0,20.0,8.0,52.0,6.0,1.2739448547363281
327,-2370.0,-945.0,-4295.0,0.0,-10008.0,-6366.0,-6118.0,9504.0,-3.0,-2.0,-2.0,5.0,-47.0,-4.0,-34.0,-7.0,1.2902421951293945
328,-2145.0,-845.0,-3598.0,0.0,-9821.0,-5779.0,-6504.0,9813.0,-3.0,-2.0,-2.0,5.0,-47.0,-4.0,-34.0,-7.0,1.292534589767456
329,-2145.0,-845.0,-3598.0,0.0,-9821.0,-5779.0,-6504.0,9813.0,4.0,1.0,4.0,23.0,-5.0,5.0,8.0,13.0,1.295320987701416
330,-2145.0,-845.0,-3598.0,0.0,-9821.0,-5779.0,-6504.0,9813.0,-5.0,-4.0,-3.0,6.0,3.0,-14.0,21.0,2.0,1.3039987087249756
331,-1123.0,-599.0,-3232.0,0.0,-9575.0,-5349.0,-6767.0,10117.0,-5.0,-4.0,-3.0,6.0,3.0,-14.0,21.0,2.0,1.311887502670288
332,-1123.0,-599.0,-3232.0,0.0,-9575.0,-5349.0,-6767.0,10117.0,6.0,-1.0,-1.0,-7.0,-5.0,4.0,43.0,24.0,1.3142640590667725
333,-1123.0,-599.0,-3232.0,0.0,-9575.0,-5349.0,-6767.0,10117.0,-11.0,-3.0,-12.0,-23.0,-78.0,-11.0,-69.0,-36.0,1.3284235000610352
334,-1222.0,68.0,-2500.0,0.0,-9350.0,-5013.0,-7064.0,10295.0,-11.0,-3.0,-12.0,-23.0,-78.0,-11.0,-69.0,-36.0,1.3340351581573486
335,-1222.0,68.0,-2500.0,0.0,-9350.0,-5013.0,-7064.0,10295.0,-2.0,-1.0,2.0,-2.0,0.0,-13.0,-24.0,-9.0,1.3383715152740479
336,-1222.0,68.0,-2500.0,0.0,-9350.0,-5013.0,-7064.0,10295.0,-3.0,-3.0,-7.0,-29.0,17.0,20.0,21.0,9.0,1.351973295211792
337,-675.0,358.0,49.0,0.0,-9283.0,-4879.0,-7281.0,10270.0,-3.0,-3.0,-7.0,-29.0,17.0,20.0,21.0,9.0,1.3566279411315918
338,-675.0,358.0,49.0,0.0,-9283.0,-4879.0,-7281.0,10270.0,-5.0,-2.0,0.0,-2.0,21.0,-16.0,-15.0,-8.0,1.3611714839935303
339,-675.0,358.0,49.0,0.0,-9283.0,-4879.0,-7281.0,10270.0,2.0,-1.0,-7.0,-8.0,3.0,4.0,9.0,6.0,1.3639929294586182
340,95.0,195.0,2027.0,0.0,-9468.0,-5049.0,-7206.0,10069.0,2.0,-1.0,-7.0,-8.0,3.0,4.0,9.0,6.0,1.3662667274475098
341,95.0,195.0,2027.0,0.0,-9468.0,-5049.0,-7206.0,10069.0,2.0,1.0,-3.0,4.0,54.0,15.0,-19.0,1.0,1.3713030815124512
342,95.0,195.0,2027.0,0.0,-9468.0,-5049.0,-7206.0,10069.0,-4.0,-2.0,6.0,0.0,3.0,-6.0,-14.0,-8.0,1.3870604038238525
343,905.0,-45.0,2733.0,0.0,-9694.0,-5319.0,-6981.0,9872.0,-4.0,-2.0,6.0,0.0,3.0,-6.0,-14.0,-8.0,1.3893556594848633
344,905.0,-45.0,2733.0,0.0,-9694.0,-5319.0,-6981.0,9872.0,3.0,2.0,0.0,-8.0,-34.0,-4.0,-14.0,-3.0,1.3937387466430664
345,905.0,-45.0,2733.0,0.0,-9694.0,-5319.0,-6981.0,9872.0,10.0,3.0,1.0,-1.0,12.0,22.0,26.0,19.0,1.4112253189086914
346,1670.0,597.0,3050.0,0.0,-9873.0,-5788.0,-6682.0,9635.0,10.0,3.0,1.0,-1.0,12.0,22.0,26.0,19.0,1.4139728546142578
347,1670.0,597.0,3050.0,0.0,-9873.0,-5788.0,-6682.0,9635.0,1.0,-1.0,-10.0,1.0,11.0,3.0,20.0,-1.0,1.416430950164795
348,1670.0,597.0,3050.0,0.0,-9873.0,-5788.0,-6682.0,9635.0,2.0,8.0,10.0,9.0,-37.0,-6.0,-28.0,-6.0,1.4249258041381836
349,3271.0,1452.0,4131.0,0.0,-9974.0,-6576.0,-6227.0,9324.0,2.0,8.0,10.0,9.0,-37.0,-6.0,-28.0,-6.0,1.4271748065948486
350,3271.0,1452.0,4131.0,0.0,-9974.0,-6576.0,-6227.0,9324.0,-7.0,-7.0,-7.0,-51.0,16.0,-7.0,-33.0,-1.0,1.4387755393981934
351,3271.0,1452.0,4131.0,0.0,-9974.0,-6576.0,-6227.0,9324.0,-5.0,-2.0,-3.0,-6.0,41.0,-40.0,-21.0,-23.0,1.4472010135650635
352,3769.0,1791.0,5199.0,0.0,-10086.0,-7523.0,-5643.0,8847.0,-5.0,-2.0,-3.0,-6.0,41.0,-40.0,-21.0,-23.0,1.4495339393615723
353,3769.0,1791.0,5199.0,0.0,-10086.0,-7523.0,-5643.0,8847.0,2.0,1.0,3.0,10.0,-35.0,-3.0,30.0,-3.0,1.4541730880737305
354,3769.0,1791.0,5199.0,0.0,-10086.0,-7523.0,-5643.0,8847.0,8.0,2.0,5.0,30.0,111.0,61.0,69.0,36.0,1.4713690280914307
355,3156.0,2575.0,6311.0,0.0,-10249.0,-8516.0,-5066.0,8077.0,8.0,2.0,5.0,30.0,111.0,61.0,69.0,36.0,1.475679874420166
356,3156.0,2575.0,6311.0,0.0,-10249.0,-8516.0,-5066.0,8077.0,-23.0,-11.0,4.0,14.0,-107.0,-87.0,28.0,-39.0,1.4805736541748047
357,3156.0,2575.0,6311.0,0.0,-10249.0,-8516.0,-5066.0,8077.0,-4.0,-1.0,0.0,2.0,69.0,15.0,-12.0,-22.0,1.483555555343628
358,2389.0,3409.0,7459.0,0.0,-10452.0,-9496.0,-4497.0,6986.0,-4.0,-1.0,0.0,2.0,69.0,15.0,-12.0,-22.0,1.4917223453521729
359,2389.0,3409.0,7459.0,0.0,-10452.0,-9496.0,-4497.0,6986.0,29.0,6.0,17.0,73.0,119.0,116.0,-2.0,78.0,1.494067907333374
360,2389.0,3409.0,7459.0,0.0,-10452.0,-9496.0,-4497.0,6986.0,-33.0,-19.0,-15.0,-44.0,-50.0,-42.0,-69.0,-91.0,1.508345365524292
361,1931.0,3951.0,8558.0,0.0,-10652.0,-10413.0,-3862.0,5624.0,-33.0,-19.0,-15.0,-44.0,-50.0,-42.0,-69.0,-91.0,1.5135645866394043
362,1931.0,3951.0,8558.0,0.0,-10652.0,-10413.0,-3862.0,5624.0,31.0,24.0,26.0,48.0,85.0,86.0,5.0,44.0,1.5177812576293945
363,1931.0,3951.0,8558.0,0.0,-10652.0,-10413.0,-3862.0,5624.0,-30.0,-27.0,-25.0,-31.0,-82.0,-21.0,-69.0,-5.0,1.5325887203216553
364,2278.0,3810.0,9430.0,0.0,-10738.0,-11263.0,-3046.0,4126.0,-30.0,-27.0,-25.0,-31.0,-82.0,-21.0,-69.0,-5.0,1.537442684173584
365,2278.0,3810.0,9430.0,0.0,-10738.0,-11263.0,-3046.0,4126.0,-1.0,4.0,9.0,-69.0,-128.0,23.0,43.0,-15.0,1.542590618133545
366,2278.0,3810.0,9430.0,0.0,-10738.0,-11263.0,-3046.0,4126.0,57.0,37.0,56.0,122.0,91.0,82.0,36.0,44.0,1.5449497699737549
367,2430.0,3038.0,9856.0,0.0,-10711.0,-11932.0,-2068.0,2661.0,57.0,37.0,56.0,122.0,91.0,82.0,36.0,44.0,1.551745891571045
368,2430.0,3038.0,9856.0,0.0,-10711.0,-11932.0,-2068.0,2661.0,-15.0,-6.0,-14.0,-56.0,-20.0,-86.0,-27.0,-24.0,1.5540850162506104
369,2430.0,3038.0,9856.0,0.0,-10711.0,-11932.0,-2068.0,2661.0,-6.0,-5.0,-10.0,-47.0,57.0,109.0,127.0,55.0,1.5683419704437256
370,2695.0,2224.0,9667.0,0.0,-10524.0,-12452.0,-985.0,1295.0,-6.0,-5.0,-10.0,-47.0,57.0,109.0,127.0,55.0,1.5732624530792236
371,2695.0,2224.0,9667.0,0.0,-10524.0,-12452.0,-985.0,1295.0,-16.0,-10.0,-12.0,15.0,106.0,-81.0,-113.0,-56.0,1.577467918395996
372,2695.0,2224.0,9667.0,0.0,-10524.0,-12452.0,-985.0,1295.0,-1.0,-7.0,-18.0,-20.0,-15.0,-112.0,-75.0,-23.0,1.582411289215088
373,2478.0,1719.0,8713.0,0.0,-10241.0,-12790.0,36.0,88.0,-1.0,-7.0,-18.0,-20.0,-15.0,-112.0,-75.0,-23.0,1.5847723484039307
374,2478.0,1719.0,8713.0,0.0,-10241.0,-12790.0,36.0,88.0,-31.0,4.0,-11.0,5.0,111.0,74.0,36.0,-2.0,1.588691234588623
375,2478.0,1719.0,8713.0,0.0,-10241.0,-12790.0,36.0,88.0,-5.0,-27.0,-80.0,-82.0,-126.0,-86.0,-24.0,-15.0,1.5963160991668701
376,2506.0,1776.0,6298.0,0.0,-9869.0,-13031.0,716.0,-862.0,-5.0,-27.0,-80.0,-82.0,-126.0,-86.0,-24.0,-15.0,1.60434889793396
377,2506.0,1776.0,6298.0,0.0,-9869.0,-13031.0,716.0,-862.0,-5.0,-27.0,-80.0,-82.0,-126.0,-86.0,-24.0,-15.0,1.611149787902832
378,2506.0,1776.0,6298.0,0.0,-9869.0,-13031.0,716.0,-862.0,48.0,56.0,77.0,68.0,63.0,61.0,17.0,28.0,1.6284897327423096
379,2506.0,1776.0,6298.0,0.0,-9869.0,-13031.0,716.0,-862.0,70.0,80.0,-45.0,-51.0,68.0,15.0,-5.0,47.0,1.6328439712524414
380,2183.0,2573.0,4300.0,0.0,-9521.0,-13185.0,1028.0,-1705.0,70.0,80.0,-45.0,-51.0,68.0,15.0,-5.0,47.0,1.6375014781951904
381,2183.0,2573.0,4300.0,0.0,-9521.0,-13185.0,1028.0,-1705.0,-2.0,39.0,16.0,-84.0,12.0,71.0,-17.0,-14.0,1.6402158737182617
382,2183.0,2573.0,4300.0,0.0,-9521.0,-13185.0,1028.0,-1705.0,20.0,-47.0,-47.0,9.0,59.0,28.0,-10.0,62.0,1.650346279144287
383,978.0,1506.0,4320.0,0.0,-9305.0,-13193.0,1473.0,-2378.0,20.0,-47.0,-47.0,9.0,59.0,28.0,-10.0,62.0,1.6526336669921875
384,978.0,1506.0,4320.0,0.0,-9305.0,-13193.0,1473.0,-2378.0,-7.0,42.0,38.0,-22.0,20.0,-22.0,-75.0,-46.0,1.6549620628356934
385,978.0,1506.0,4320.0,0.0,-9305.0,-13193.0,1473.0,-2378.0,-43.0,-25.0,74.0,-37.0,-37.0,-17.0,-78.0,-24.0,1.6645801067352295
386,187.0,-35.0,590.0,0.0,-9262.0,-13203.0,1557.0,-2436.0,-43.0,-25.0,74.0,-37.0,-37.0,-17.0,-78.0,-24.0,1.6672792434692383
387,187.0,-35.0,590.0,0.0,-9262.0,-13203.0,1557.0,-2436.0,-49.0,-128.0,-78.0,-23.0,96.0,-2.0,35.0,-5.0,1.6719677448272705
388,187.0,-35.0,590.0,0.0,-9262.0,-13203.0,1557.0,-2436.0,-46.0,-54.0,-19.0,13.0,46.0,20.0,4.0,46.0,1.6869516372680664
389,-1028.0,38.0,-16.0,0.0,-9449.0,-13081.0,1543.0,-2387.0,-46.0,-54.0,-19.0,13.0,46.0,20.0,4.0,46.0,1.6892125606536865
390,-1028.0,38.0,-16.0,0.0,-9449.0,-13081.0,1543.0,-2387.0,-91.0,-67.0,-24.0,95.0,-128.0,-128.0,-40.0,-32.0,1.6935503482818604
391,-1028.0,38.0,-16.0,0.0,-9449.0,-13081.0,1543.0,-2387.0,38.0,114.0,13.0,127.0,105.0,18.0,47.0,-6.0,1.7101645469665527
392,-799.0,1081.0,2783.0,0.0,-9520.0,-12907.0,1837.0,-2805.0,38.0,114.0,13.0,127.0,105.0,18.0,47.0,-6.0,1.712573766708374
393,-799.0,1081.0,2783.0,0.0,-9520.0,-12907.0,1837.0,-2805.0,-2.0,-37.0,-57.0,-65.0,-28.0,34.0,103.0,34.0,1.714949369430542
394,-799.0,1081.0,2783.0,0.0,-9520.0,-12907.0,1837.0,-2805.0,-40.0,-53.0,33.0,10.0,5.0,103.0,12.0,-107.0,1.7237348556518555
395,-532.0,768.0,1648.0,0.0,-9570.0,-12775.0,2018.0,-3097.0,-40.0,-53.0,33.0,10.0,5.0,103.0,12.0,-107.0,1.7322723865509033
396,-532.0,768.0,1648.0,0.0,-9570.0,-12775.0,2018.0,-3097.0,25.0,-28.0,43.0,18.0,86.0,-50.0,33.0,-2.0,1.7346646785736084
397,-532.0,768.0,1648.0,0.0,-9570.0,-12775.0,2018.0,-3097.0,12.0,-18.0,-37.0,-20.0,-34.0,-53.0,23.0,54.0,1.7466800212860107
398,-558.0,341.0,1175.0,0.0,-9687.0,-12621.0,2150.0,-3274.0,12.0,-18.0,-37.0,-20.0,-34.0,-53.0,23.0,54.0,1.7491426467895508
399,-558.0,341.0,1175.0,0.0,-9687.0,-12621.0,2150.0,-3274.0,3.0,-4.0,47.0,42.0,-26.0,47.0,-33.0,2.0,1.7537524700164795
400,-558.0,341.0,1175.0,0.0,-9687.0,-12621.0,2150.0,-3274.0,-32.0,-28.0,60.0,-39.0,2.0,17.0,73.0,18.0,1.7704417705535889
401,-1045.0,152.0,1120.0,0.0,-9849.0,-12449.0,2282.0,-3359.0,-32.0,-28.0,60.0,-39.0,2.0,17.0,73.0,18.0,1.7727336883544922
402,-1045.0,152.0,1120.0,0.0,-9849.0,-12449.0,2282.0,-3359.0,30.0,64.0,-51.0,-13.0,-64.0,-23.0,-56.0,37.0,1.775071382522583
403,-1045.0,152.0,1120.0,0.0,-9849.0,-12449.0,2282.0,-3359.0,-31.0,2.0,39.0,1.0,21.0,-15.0,-50.0,-27.0,1.7838258743286133
404,-766.0,-32.0,991.0,0.0,-9894.0,-12364.0,2443.0,-3423.0,-31.0,2.0,39.0,1.0,21.0,-15.0,-50.0,-27.0,1.7920925617218018
405,-766.0,-32.0,991.0,0.0,-9894.0,-12364.0,2443.0,-3423.0,23.0,12.0,-46.0,-20.0,15.0,-17.0,22.0,6.0,1.7948534488677979
406,-766.0,-32.0,991.0,0.0,-9894.0,-12364.0,2443.0,-3423.0,6.0,-3.0,12.0,18.0,-1.0,17.0,34.0,-9.0,1.8067576885223389
407,-278.0,-34.0,675.0,0.0,-9859.0,-12356.0,2559.0,-3471.0,6.0,-3.0,12.0,18.0,-1.0,17.0,34.0,-9.0,1.8090317249298096
408,-278.0,-34.0,675.0,0.0,-9859.0,-12356.0,2559.0,-3471.0,15.0,18.0,-62.0,-40.0,-52.0,-31.0,-18.0,1.0,1.8141448497772217
409,-278.0,-34.0,675.0,0.0,-9859.0,-12356.0,2559.0,-3471.0,21.0,23.0,14.0,15.0,-38.0,-24.0,15.0,0.0,1.8309659957885742
410,110.0,-55.0,330.0,0.0,-9800.0,-12384.0,2613.0,-3495.0,21.0,23.0,14.0,15.0,-38.0,-24.0,15.0,0.0,1.8349170684814453
411,110.0,-55.0,330.0,0.0,-9800.0,-12384.0,2613.0,-3495.0,-16.0,-8.0,8.0,-11.0,-26.0,24.0,-14.0,-35.0,1.83896803855896
412,110.0,-55.0,330.0,0.0,-9800.0,-12384.0,2613.0,-3495.0,24.0,18.0,-14.0,26.0,2.0,-3.0,7.0,-1.0,1.8436615467071533
413,221.0,-79.0,167.0,0.0,-9751.0,-12410.0,2645.0,-3516.0,24.0,18.0,-14.0,26.0,2.0,-3.0,7.0,-1.0,1.8520541191101074
414,221.0,-79.0,167.0,0.0,-9751.0,-12410.0,2645.0,-3516.0,-6.0,-12.0,5.0,-3.0,-44.0,-1.0,-16.0,-10.0,1.854602336883545
415,221.0,-79.0,167.0,0.0,-9751.0,-12410.0,2645.0,-3516.0,-1.0,2.0,-13.0,-2.0,53.0,-44.0,-38.0,6.0,1.867964744567871
416,266.0,-17.0,83.0,0.0,-9723.0,-12418.0,2660.0,-3555.0,-1.0,2.0,-13.0,-2.0,53.0,-44.0,-38.0,6.0,1.8719062805175781
417,266.0,-17.0,83.0,0.0,-9723.0,-12418.0,2660.0,-3555.0,12.0,-2.0,17.0,22.0,38.0,-4.0,13.0,10.0,1.8764407634735107
418,266.0,-17.0,83.0,0.0,-9723.0,-12418.0,2660.0,-3555.0,-7.0,-7.0,28.0,36.0,8.0,13.0,60.0,6.0,1.8917810916900635
419,260.0,-22.0,-4.0,0.0,-9700.0,-12428.0,2661.0,-3582.0,-7.0,-7.0,28.0,36.0,8.0,13.0,60.0,6.0,1.8960111141204834
420,260.0,-22.0,-4.0,0.0,-9700.0,-12428.0,2661.0,-3582.0,15.0,25.0,50.0,13.0,3.0,15.0,-3.0,3.0,1.900672197341919
421,260.0,-22.0,-4.0,0.0,-9700.0,-12428.0,2661.0,-3582.0,-31.0,-30.0,-10.0,-21.0,16.0,5.0,-9.0,-26.0,1.9036312103271484
422,236.0,-30.0,-119.0,0.0,-9675.0,-12444.0,2655.0,-3598.0,-31.0,-30.0,-10.0,-21.0,16.0,5.0,-9.0,-26.0,1.9117698669433594
423,236.0,-30.0,-119.0,0.0,-9675.0,-12444.0,2655.0,-3598.0,25.0,13.0,28.0,41.0,-43.0,-8.0,-23.0,8.0,1.9141311645507812
424,236.0,-30.0,-119.0,0.0,-9675.0,-12444.0,2655.0,-3598.0,0.0,-4.0,-12.0,-22.0,-35.0,-17.0,-18.0,2.0,1.928229808807373
425,249.0,-5.0,-172.0,0.0,-9646.0,-12468.0,2637.0,-3606.0,0.0,-4.0,-12.0,-22.0,-35.0,-17.0,-18.0,2.0,1.932441234588623
426,249.0,-5.0,-172.0,0.0,-9646.0,-12468.0,2637.0,-3606.0,-13.0,-21.0,-1.0,7.0,51.0,39.0,20.0,-4.0,1.936844825744629
427,249.0,-5.0,-172.0,0.0,-9646.0,-12468.0,2637.0,-3606.0,2.0,14.0,-2.0,13.0,-16.0,-4.0,-26.0,3.0,1.9524049758911133
428,178.0,-17.0,-169.0,0.0,-9628.0,-12485.0,2621.0,-3609.0,2.0,14.0,-2.0,13.0,-16.0,-4.0,-26.0,3.0,1.9580719470977783
429,178.0,-17.0,-169.0,0.0,-9628.0,-12485.0,2621.0,-3609.0,-5.0,8.0,-18.0,-15.0,40.0,-7.0,-53.0,-8.0,1.9626998901367188
430,178.0,-17.0,-169.0,0.0,-9628.0,-12485.0,2621.0,-3609.0,-4.0,4.0,31.0,-7.0,-23.0,4.0,-3.0,-13.0,1.9650299549102783
431,124.0,-6.0,-129.0,0.0,-9610.0,-12500.0,2610.0,-3610.0,-4.0,4.0,31.0,-7.0,-23.0,4.0,-3.0,-13.0,1.9718034267425537
432,124.0,-6.0,-129.0,0.0,-9610.0,-12500.0,2610.0,-3610.0,-8.0,-14.0,-24.0,-2.0,11.0,19.0,37.0,6.0,1.9741485118865967
433,124.0,-6.0,-129.0,0.0,-9610.0,-12500.0,2610.0,-3610.0,5.0,-5.0,8.0,-17.0,-59.0,1.0,-9.0,-1.0,1.9884536266326904
434,70.0,27.0,-116.0,0.0,-9599.0,-12510.0,2600.0,-3616.0,5.0,-5.0,8.0,-17.0,-59.0,1.0,-9.0,-1.0,1.9926862716674805
435,70.0,27.0,-116.0,0.0,-9599.0,-12510.0,2600.0,-3616.0,3.0,8.0,-22.0,-9.0,-26.0,-8.0,-20.0,-3.0,1.9969110488891602
436,70.0,27.0,-116.0,0.0,-9599.0,-12510.0,2600.0,-3616.0,5.0,5.0,-2.0,-25.0,18.0,-4.0,-21.0,-3.0,2.0119221210479736
437,90.0,33.0,-76.0,0.0,-9580.0,-12521.0,2596.0,-3629.0,5.0,5.0,-2.0,-25.0,18.0,-4.0,-21.0,-3.0,2.017669200897217
438,90.0,33.0,-76.0,0.0,-9580.0,-12521.0,2596.0,-3629.0,-17.0,-16.0,-14.0,-11.0,-32.0,-5.0,10.0,-5.0,2.0221779346466064
439,90.0,33.0,-76.0,0.0,-9580.0,-12521.0,2596.0,-3629.0,16.0,25.0,4.0,-4.0,1.0,10.0,20.0,8.0,2.024427890777588
440,127.0,27.0,-65.0,0.0,-9560.0,-12535.0,2589.0,-3640.0,16.0,25.0,4.0,-4.0,1.0,10.0,20.0,8.0,2.031790256500244
441,127.0,27.0,-65.0,0.0,-9560.0,-12535.0,2589.0,-3640.0,7.0,-1.0,20.0,3.0,10.0,8.0,17.0,-2.0,2.0341622829437256
442,127.0,27.0,-65.0,0.0,-9560.0,-12535.0,2589.0,-3640.0,-3.0,-7.0,-18.0,-5.0,-19.0,-19.0,-31.0,-5.0,2.0487048625946045
443,184.0,11.0,-22.0,0.0,-9528.0,-12558.0,2582.0,-3646.0,-3.0,-7.0,-18.0,-5.0,-19.0,-19.0,-31.0,-5.0,2.0531485080718994
444,184.0,11.0,-22.0,0.0,-9528.0,-12558.0,2582.0,-3646.0,-11.0,-14.0,-12.0,-31.0,-16.0,5.0,17.0,5.0,2.057342767715454
445,184.0,11.0,-22.0,0.0,-9528.0,-12558.0,2582.0,-3646.0,-7.0,-15.0,-6.0,-11.0,-46.0,-12.0,-8.0,-12.0,2.0720813274383545
446,175.0,7.0,15.0,0.0,-9500.0,-12579.0,2576.0,-3652.0,-7.0,-15.0,-6.0,-11.0,-46.0,-12.0,-8.0,-12.0,2.077831268310547
447,175.0,7.0,15.0,0.0,-9500.0,-12579.0,2576.0,-3652.0,14.0,41.0,58.0,3.0,50.0,25.0,23.0,16.0,2.082641839981079
448,175.0,7.0,15.0,0.0,-9500.0,-12579.0,2576.0,-3652.0,5.0,25.0,-17.0,-16.0,-81.0,-41.0,-7.0,-2.0,2.085131883621216
449,117.0,-2.0,35.0,0.0,-9482.0,-12593.0,2574.0,-3654.0,5.0,25.0,-17.0,-16.0,-81.0,-41.0,-7.0,-2.0,2.0918545722961426
450,117.0,-2.0,35.0,0.0,-9482.0,-12593.0,2574.0,-3654.0,-9.0,-20.0,-39.0,6.0,-15.0,-10.0,-43.0,-12.0,2.094334125518799
451,117.0,-2.0,35.0,0.0,-9482.0,-12593.0,2574.0,-3654.0,-1.0,3.0,-12.0,7.0,30.0,14.0,2.0,-1.0,2.1084158420562744
452,38.0,-44.0,40.0,0.0,-9472.0,-12599.0,2582.0,-3652.0,-1.0,3.0,-12.0,7.0,30.0,14.0,2.0,-1.0,2.111241102218628
453,38.0,-44.0,40.0,0.0,-9472.0,-12599.0,2582.0,-3652.0,-1.0,3.0,-12.0,7.0,30.0,14.0,2.0,-1.0,2.113830327987671
454,38.0,-44.0,40.0,0.0,-9472.0,-12599.0,2582.0,-3652.0,6.0,13.0,-19.0,-4.0,-10.0,-9.0,1.0,3.0,2.130406618118286
455,38.0,-44.0,40.0,0.0,-9472.0,-12599.0,2582.0,-3652.0,-3.0,-11.0,-24.0,-7.0,23.0,12.0,-30.0,-5.0,2.1327192783355713
456,19.0,-59.0,18.0,0.0,-9468.0,-12603.0,2589.0,-3645.0,-3.0,-11.0,-24.0,-7.0,23.0,12.0,-30.0,-5.0,2.1350083351135254
457,19.0,-59.0,18.0,0.0,-9468.0,-12603.0,2589.0,-3645.0,-11.0,-13.0,6.0,3.0,-15.0,-10.0,-17.0,-13.0,2.137380838394165
458,19.0,-59.0,18.0,0.0,-9468.0,-12603.0,2589.0,-3645.0,-1.0,6.0,-4.0,-26.0,3.0,7.0,28.0,1.0,2.1442301273345947
459,31.0,-74.0,14.0,0.0,-9461.0,-12608.0,2598.0,-3638.0,-1.0,6.0,-4.0,-26.0,3.0,7.0,28.0,1.0,2.1518099308013916
460,31.0,-74.0,14.0,0.0,-9461.0,-12608.0,2598.0,-3638.0,5.0,3.0,15.0,-12.0,7.0,0.0,-3.0,-3.0,2.154454469680786
461,31.0,-74.0,14.0,0.0,-9461.0,-12608.0,2598.0,-3638.0,-7.0,-24.0,-19.0,-12.0,4.0,0.0,27.0,3.0,2.167224645614624
462,72.0,-80.0,-4.0,0.0,-9445.0,-12619.0,2607.0,-3633.0,-7.0,-24.0,-19.0,-12.0,4.0,0.0,27.0,3.0,2.1702966690063477
463,72.0,-80.0,-4.0,0.0,-9445.0,-12619.0,2607.0,-3633.0,16.0,12.0,-9.0,-13.0,-29.0,-14.0,-10.0,-1.0,2.1745638847351074
464,72.0,-80.0,-4.0,0.0,-9445.0,-12619.0,2607.0,-3633.0,10.0,9.0,1.0,5.0,13.0,11.0,-8.0,14.0,2.1917660236358643
465,88.0,-33.0,-7.0,0.0,-9427.0,-12631.0,2611.0,-3635.0,10.0,9.0,1.0,5.0,13.0,11.0,-8.0,14.0,2.1962764263153076
466,88.0,-33.0,-7.0,0.0,-9427.0,-12631.0,2611.0,-3635.0,-11.0,-19.0,3.0,1.0,-6.0,0.0,13.0,0.0,2.200871706008911
467,88.0,-33.0,-7.0,0.0,-9427.0,-12631.0,2611.0,-3635.0,-3.0,3.0,7.0,10.0,20.0,-2.0,-2.0,-6.0,2.212594509124756
468,59.0,-9.0,22.0,0.0,-9414.0,-12638.0,2617.0,-3643.0,-3.0,3.0,7.0,10.0,20.0,-2.0,-2.0,-6.0,2.2167885303497314
469,59.0,-9.0,22.0,0.0,-9414.0,-12638.0,2617.0,-3643.0,2.0,6.0,2.0,18.0,17.0,22.0,17.0,4.0,2.2210986614227295
470,59.0,-9.0,22.0,0.0,-9414.0,-12638.0,2617.0,-3643.0,1.0,-7.0,-38.0,-5.0,-82.0,-40.0,-42.0,-7.0,2.2273969650268555
471,46.0,-12.0,20.0,0.0,-9405.0,-12641.0,2624.0,-3650.0,1.0,-7.0,-38.0,-5.0,-82.0,-40.0,-42.0,-7.0,2.229674816131592
472,46.0,-12.0,20.0,0.0,-9405.0,-12641.0,2624.0,-3650.0,-5.0,-1.0,1.0,12.0,0.0,-5.0,-3.0,-6.0,2.233268976211548
473,46.0,-12.0,20.0,0.0,-9405.0,-12641.0,2624.0,-3650.0,-13.0,-29.0,-4.0,-14.0,25.0,16.0,26.0,0.0,2.2499029636383057
474,70.0,-17.0,4.0,0.0,-9395.0,-12646.0,2627.0,-3656.0,-13.0,-29.0,-4.0,-14.0,25.0,16.0,26.0,0.0,2.2521719932556152
475,70.0,-17.0,4.0,0.0,-9395.0,-12646.0,2627.0,-3656.0,4.0,8.0,-5.0,-13.0,-6.0,-3.0,-3.0,2.0,2.254671812057495
476,70.0,-17.0,4.0,0.0,-9395.0,-12646.0,2627.0,-3656.0,-3.0,-5.0,5.0,10.0,20.0,-13.0,-5.0,-1.0,2.27292799949646
477,90.0,-15.0,-14.0,0.0,-9381.0,-12656.0,2625.0,-3658.0,-3.0,-5.0,5.0,10.0,20.0,-13.0,-5.0,-1.0,2.2752158641815186
478,90.0,-15.0,-14.0,0.0,-9381.0,-12656.0,2625.0,-3658.0,-7.0,0.0,33.0,8.0,4.0,-8.0,-15.0,-6.0,2.2776219844818115
479,90.0,-15.0,-14.0,0.0,-9381.0,-12656.0,2625.0,-3658.0,3.0,8.0,-23.0,-2.0,22.0,11.0,7.0,-3.0,2.286660671234131
480,58.0,-30.0,-14.0,0.0,-9370.0,-12665.0,2625.0,-3655.0,3.0,8.0,-23.0,-2.0,22.0,11.0,7.0,-3.0,2.2889821529388428
481,58.0,-30.0,-14.0,0.0,-9370.0,-12665.0,2625.0,-3655.0,11.0,23.0,14.0,-18.0,-11.0,-11.0,13.0,5.0,2.294153928756714
482,58.0,-30.0,-14.0,0.0,-9370.0,-12665.0,2625.0,-3655.0,-1.0,-10.0,-5.0,4.0,-4.0,4.0,1.0,-6.0,2.3099989891052246
483,34.0,-30.0,-28.0,0.0,-9363.0,-12672.0,2625.0,-3649.0,-1.0,-10.0,-5.0,4.0,-4.0,4.0,1.0,-6.0,2.3122596740722656
484,34.0,-30.0,-28.0,0.0,-9363.0,-12672.0,2625.0,-3649.0,-5.0,-12.0,-24.0,-8.0,-3.0,-1.0,4.0,0.0,2.3146135807037354
485,34.0,-30.0,-28.0,0.0,-9363.0,-12672.0,2625.0,-3649.0,2.0,8.0,-2.0,8.0,4.0,4.0,6.0,2.0,2.333156108856201
486,61.0,-70.0,-36.0,0.0,-9352.0,-12685.0,2624.0,-3636.0,2.0,8.0,-2.0,8.0,4.0,4.0,6.0,2.0,2.3358569145202637
487,61.0,-70.0,-36.0,0.0,-9352.0,-12685.0,2624.0,-3636.0,-5.0,-12.0,-23.0,6.0,31.0,-5.0,-30.0,-2.0,2.3382256031036377
488,61.0,-70.0,-36.0,0.0,-9352.0,-12685.0,2624.0,-3636.0,0.0,7.0,11.0,-3.0,5.0,-1.0,-3.0,2.0,2.347036838531494
489,29.0,-84.0,-45.0,0.0,-9347.0,-12692.0,2626.0,-3621.0,0.0,7.0,11.0,-3.0,5.0,-1.0,-3.0,2.0,2.3492932319641113
490,29.0,-84.0,-45.0,0.0,-9347.0,-12692.0,2626.0,-3621.0,13.0,12.0,21.0,12.0,13.0,13.0,15.0,8.0,2.3538358211517334
491,29.0,-84.0,-45.0,0.0,-9347.0,-12692.0,2626.0,-3621.0,-5.0,-10.0,3.0,-4.0,-9.0,-2.0,-1.0,-4.0,2.371166944503784
492,-10.0,-61.0,-13.0,0.0,-9349.0,-12694.0,2627.0,-3607.0,-5.0,-10.0,3.0,-4.0,-9.0,-2.0,-1.0,-4.0,2.375333070755005
493,-10.0,-61.0,-13.0,0.0,-9349.0,-12694.0,2627.0,-3607.0,-7.0,-8.0,-12.0,-1.0,-1.0,1.0,4.0,1.0,2.3796498775482178
494,-10.0,-61.0,-13.0,0.0,-9349.0,-12694.0,2627.0,-3607.0,0.0,-6.0,-2.0,9.0,3.0,5.0,21.0,0.0,2.3929555416107178
495,-122.0,-78.0,27.0,0.0,-9363.0,-12683.0,2643.0,-3596.0,0.0,-6.0,-2.0,9.0,3.0,5.0,21.0,0.0,2.397740602493286
496,-122.0,-78.0,27.0,0.0,-9363.0,-12683.0,2643.0,-3596.0,-1.0,0.0,11.0,-1.0,-21.0,-6.0,8.0,0.0,2.402087688446045
497,-122.0,-78.0,27.0,0.0,-9363.0,-12683.0,2643.0,-3596.0,1.0,26.0,16.0,2.0,-14.0,-1.0,-3.0,0.0,2.4073774814605713
498,-222.0,-96.0,23.0,0.0,-9391.0,-12662.0,2667.0,-3582.0,1.0,26.0,16.0,2.0,-14.0,-1.0,-3.0,0.0,2.409674644470215
499,-222.0,-96.0,23.0,0.0,-9391.0,-12662.0,2667.0,-3582.0,-5.0,-13.0,-1.0,3.0,1.0,2.0,7.0,-5.0,2.4136159420013428
