,Gyro 0,Gyro 1,Gyro 2,Label,Orientation 0,Orientation 1,Orientation 2,Orientation 3,Sensor 0,Sensor 1,Sensor 2,Sensor 3,Sensor 4,Sensor 5,Sensor 6,Sensor 7,Timestamp
0,75.0,97.0,188.0,0.0,-9317.0,-13394.0,-136.0,-1493.0,-13.0,-9.0,-4.0,4.0,8.0,-2.0,-5.0,-5.0,1.9073486328125e-06
1,75.0,97.0,188.0,0.0,-9317.0,-13394.0,-136.0,-1493.0,2.0,-2.0,11.0,10.0,11.0,8.0,1.0,0.0,0.0029058456420898438
2,75.0,97.0,188.0,0.0,-9317.0,-13394.0,-136.0,-1493.0,4.0,-1.0,-11.0,19.0,1.0,-2.0,-15.0,1.0,0.0058901309967041016
3,65.0,102.0,211.0,0.0,-9300.0,-13402.0,-115.0,-1532.0,4.0,-1.0,-11.0,19.0,1.0,-2.0,-15.0,1.0,0.00838923454284668
4,65.0,102.0,211.0,0.0,-9300.0,-13402.0,-115.0,-1532.0,6.0,7.0,-5.0,-12.0,6.0,2.0,6.0,-4.0,0.010777950286865234
5,59.0,117.0,242.0,0.0,-9284.0,-13408.0,-91.0,-1575.0,6.0,7.0,-5.0,-12.0,6.0,2.0,6.0,-4.0,0.013619661331176758
6,59.0,117.0,242.0,0.0,-9284.0,-13408.0,-91.0,-1575.0,-1.0,-10.0,-2.0,11.0,4.0,-2.0,1.0,-3.0,0.01610255241394043
7,59.0,117.0,242.0,0.0,-9284.0,-13408.0,-91.0,-1575.0,2.0,5.0,16.0,1.0,-2.0,-2.0,5.0,-1.0,0.018433570861816406
8,63.0,131.0,274.0,0.0,-9266.0,-13415.0,-65.0,-1622.0,2.0,5.0,16.0,1.0,-2.0,-2.0,5.0,-1.0,0.021389484405517578
9,63.0,131.0,274.0,0.0,-9266.0,-13415.0,-65.0,-1622.0,-9.0,-1.0,19.0,5.0,7.0,-3.0,-9.0,-10.0,0.024089336395263672
10,63.0,131.0,274.0,0.0,-9266.0,-13415.0,-65.0,-1622.0,8.0,6.0,13.0,-2.0,0.0,-2.0,8.0,5.0,0.02677154541015625
11,74.0,138.0,302.0,0.0,-9246.0,-13423.0,-36.0,-1672.0,8.0,6.0,13.0,-2.0,0.0,-2.0,8.0,5.0,0.029119014739990234
12,74.0,138.0,302.0,0.0,-9246.0,-13423.0,-36.0,-1672.0,3.0,7.0,23.0,-10.0,2.0,1.0,-3.0,1.0,0.03145098686218262
13,74.0,138.0,302.0,0.0,-9246.0,-13423.0,-36.0,-1672.0,-9.0,-5.0,8.0,7.0,-2.0,-1.0,-2.0,-1.0,0.033820390701293945
14,82.0,136.0,338.0,0.0,-9224.0,-13431.0,-3.0,-1723.0,-9.0,-5.0,8.0,7.0,-2.0,-1.0,-2.0,-1.0,0.03629636764526367
15,82.0,136.0,338.0,0.0,-9224.0,-13431.0,-3.0,-1723.0,-2.0,-3.0,-2.0,9.0,-4.0,0.0,-2.0,0.0,0.038639068603515625
16,82.0,136.0,338.0,0.0,-9224.0,-13431.0,-3.0,-1723.0,-1.0,-2.0,-10.0,-18.0,-10.0,-2.0,4.0,-2.0,0.04094362258911133
17,85.0,143.0,372.0,0.0,-9201.0,-13440.0,35.0,-1781.0,-1.0,-2.0,-10.0,-18.0,-10.0,-2.0,4.0,-2.0,0.043190956115722656
18,85.0,143.0,372.0,0.0,-9201.0,-13440.0,35.0,-1781.0,-6.0,-3.0,-5.0,-7.0,-20.0,2.0,0.0,-1.0,0.04554343223571777
19,85.0,143.0,372.0,0.0,-9201.0,-13440.0,35.0,-1781.0,-1.0,-2.0,6.0,4.0,-6.0,1.0,1.0,1.0,0.047835588455200195
20,86.0,145.0,381.0,0.0,-9178.0,-13447.0,74.0,-1839.0,-1.0,-2.0,6.0,4.0,-6.0,1.0,1.0,1.0,0.05012822151184082
21,86.0,145.0,381.0,0.0,-9178.0,-13447.0,74.0,-1839.0,1.0,-3.0,6.0,7.0,8.0,4.0,6.0,-2.0,0.05251598358154297
22,86.0,145.0,381.0,0.0,-9178.0,-13447.0,74.0,-1839.0,0.0,-2.0,-12.0,-11.0,-8.0,-11.0,-3.0,-3.0,0.05533885955810547
23,87.0,165.0,408.0,0.0,-9155.0,-13454.0,116.0,-1905.0,0.0,-2.0,-12.0,-11.0,-8.0,-11.0,-3.0,-3.0,0.05827617645263672
24,87.0,165.0,408.0,0.0,-9155.0,-13454.0,116.0,-1905.0,2.0,1.0,-3.0,-1.0,-7.0,-4.0,5.0,7.0,0.06069517135620117
25,87.0,165.0,408.0,0.0,-9155.0,-13454.0,116.0,-1905.0,-3.0,-4.0,-2.0,6.0,-7.0,-1.0,-6.0,-2.0,0.06294488906860352
26,112.0,177.0,432.0,0.0,-9127.0,-13462.0,160.0,-1974.0,-3.0,-4.0,-2.0,6.0,-7.0,-1.0,-6.0,-2.0,0.06526565551757812
27,112.0,177.0,432.0,0.0,-9127.0,-13462.0,160.0,-1974.0,1.0,-2.0,-33.0,-10.0,-2.0,-4.0,0.0,0.0,0.06758928298950195
28,112.0,177.0,432.0,0.0,-9127.0,-13462.0,160.0,-1974.0,-2.0,-6.0,-11.0,-20.0,0.0,2.0,-2.0,-3.0,0.06983280181884766
29,139.0,193.0,450.0,0.0,-9097.0,-13472.0,203.0,-2046.0,-2.0,-6.0,-11.0,-20.0,0.0,2.0,-2.0,-3.0,0.07211661338806152
30,139.0,193.0,450.0,0.0,-9097.0,-13472.0,203.0,-2046.0,2.0,6.0,0.0,8.0,-5.0,1.0,5.0,1.0,0.07444095611572266
31,139.0,193.0,450.0,0.0,-9097.0,-13472.0,203.0,-2046.0,1.0,-4.0,4.0,-2.0,1.0,-2.0,-10.0,1.0,0.07669377326965332
32,128.0,209.0,457.0,0.0,-9067.0,-13479.0,245.0,-2121.0,1.0,-4.0,4.0,-2.0,1.0,-2.0,-10.0,1.0,0.07895779609680176
33,128.0,209.0,457.0,0.0,-9067.0,-13479.0,245.0,-2121.0,0.0,3.0,29.0,-2.0,5.0,-4.0,-4.0,-1.0,0.08133697509765625
34,128.0,209.0,457.0,0.0,-9067.0,-13479.0,245.0,-2121.0,3.0,4.0,16.0,15.0,-3.0,3.0,1.0,1.0,0.08358550071716309
35,98.0,214.0,491.0,0.0,-9040.0,-13483.0,295.0,-2202.0,3.0,4.0,16.0,15.0,-3.0,3.0,1.0,1.0,0.08667325973510742
36,98.0,214.0,491.0,0.0,-9040.0,-13483.0,295.0,-2202.0,0.0,-3.0,-7.0,14.0,9.0,-3.0,4.0,4.0,0.08945560455322266
37,98.0,214.0,491.0,0.0,-9040.0,-13483.0,295.0,-2202.0,-5.0,-2.0,-1.0,0.0,-15.0,-2.0,-1.0,-2.0,0.0919637680053711
38,103.0,203.0,504.0,0.0,-9008.0,-13489.0,351.0,-2287.0,-5.0,-2.0,-1.0,0.0,-15.0,-2.0,-1.0,-2.0,0.09436750411987305
39,103.0,203.0,504.0,0.0,-9008.0,-13489.0,351.0,-2287.0,-3.0,-1.0,-8.0,-12.0,-1.0,2.0,0.0,-2.0,0.0968174934387207
40,103.0,203.0,504.0,0.0,-9008.0,-13489.0,351.0,-2287.0,0.0,0.0,-13.0,-2.0,3.0,-1.0,0.0,0.0,0.09908866882324219
41,111.0,171.0,505.0,0.0,-8971.0,-13498.0,411.0,-2368.0,0.0,0.0,-13.0,-2.0,3.0,-1.0,0.0,0.0,0.10139036178588867
42,111.0,171.0,505.0,0.0,-8971.0,-13498.0,411.0,-2368.0,-6.0,-9.0,-17.0,-7.0,-5.0,-3.0,-5.0,-5.0,0.10386514663696289
43,111.0,171.0,505.0,0.0,-8971.0,-13498.0,411.0,-2368.0,1.0,4.0,7.0,-3.0,4.0,2.0,2.0,0.0,0.10612630844116211
44,25.0,156.0,531.0,0.0,-8946.0,-13497.0,482.0,-2454.0,1.0,4.0,7.0,-3.0,4.0,2.0,2.0,0.0,0.10841703414916992
45,25.0,156.0,531.0,0.0,-8946.0,-13497.0,482.0,-2454.0,1.0,-1.0,-19.0,-9.0,6.0,-2.0,-4.0,0.0,0.11081457138061523
46,25.0,156.0,531.0,0.0,-8946.0,-13497.0,482.0,-2454.0,-3.0,-3.0,4.0,1.0,4.0,2.0,2.0,-1.0,0.1131131649017334
47,-62.0,160.0,548.0,0.0,-8936.0,-13484.0,559.0,-2545.0,-3.0,-3.0,4.0,1.0,4.0,2.0,2.0,-1.0,0.11545133590698242
48,-62.0,160.0,548.0,0.0,-8936.0,-13484.0,559.0,-2545.0,6.0,17.0,18.0,-2.0,-3.0,0.0,-1.0,-2.0,0.11857104301452637
49,-62.0,160.0,548.0,0.0,-8936.0,-13484.0,559.0,-2545.0,9.0,17.0,10.0,-1.0,8.0,0.0,1.0,3.0,0.12117767333984375
50,-108.0,181.0,611.0,0.0,-8933.0,-13462.0,647.0,-2648.0,9.0,17.0,10.0,-1.0,8.0,0.0,1.0,3.0,0.12345576286315918
51,-108.0,181.0,611.0,0.0,-8933.0,-13462.0,647.0,-2648.0,-4.0,-8.0,0.0,-1.0,-5.0,-3.0,1.0,-2.0,0.12586522102355957
52,-108.0,181.0,611.0,0.0,-8933.0,-13462.0,647.0,-2648.0,-3.0,-1.0,-9.0,2.0,0.0,1.0,-2.0,-2.0,0.12818431854248047
53,-143.0,234.0,678.0,0.0,-8933.0,-13434.0,740.0,-2765.0,-3.0,-1.0,-9.0,2.0,0.0,1.0,-2.0,-2.0,0.13045549392700195
54,-143.0,234.0,678.0,0.0,-8933.0,-13434.0,740.0,-2765.0,7.0,12.0,-4.0,-5.0,-8.0,-3.0,0.0,1.0,0.13282322883605957
55,-143.0,234.0,678.0,0.0,-8933.0,-13434.0,740.0,-2765.0,-5.0,-5.0,-15.0,-4.0,-1.0,-2.0,0.0,-1.0,0.13509178161621094
56,-211.0,245.0,772.0,0.0,-8942.0,-13394.0,848.0,-2894.0,-5.0,-5.0,-15.0,-4.0,-1.0,-2.0,0.0,-1.0,0.13738465309143066
57,-211.0,245.0,772.0,0.0,-8942.0,-13394.0,848.0,-2894.0,-4.0,-12.0,-19.0,0.0,1.0,1.0,-3.0,-1.0,0.13973665237426758
58,-211.0,245.0,772.0,0.0,-8942.0,-13394.0,848.0,-2894.0,-3.0,-2.0,0.0,-7.0,-12.0,-3.0,-2.0,0.0,0.14226627349853516
59,-298.0,259.0,854.0,0.0,-8956.0,-13345.0,972.0,-3034.0,-3.0,-2.0,0.0,-7.0,-12.0,-3.0,-2.0,0.0,0.1445474624633789
60,-298.0,259.0,854.0,0.0,-8956.0,-13345.0,972.0,-3034.0,-6.0,-6.0,-2.0,2.0,-4.0,-2.0,-1.0,-4.0,0.14719557762145996
61,-298.0,259.0,854.0,0.0,-8956.0,-13345.0,972.0,-3034.0,2.0,1.0,0.0,-1.0,5.0,0.0,1.0,1.0,0.14994120597839355
62,-319.0,198.0,987.0,0.0,-8963.0,-13295.0,1124.0,-3179.0,2.0,1.0,0.0,-1.0,5.0,0.0,1.0,1.0,0.1525132656097412
63,-319.0,198.0,987.0,0.0,-8963.0,-13295.0,1124.0,-3179.0,-2.0,-1.0,-23.0,-5.0,3.0,1.0,0.0,1.0,0.15489673614501953
64,-319.0,198.0,987.0,0.0,-8963.0,-13295.0,1124.0,-3179.0,-2.0,-8.0,-7.0,0.0,4.0,-1.0,-1.0,-2.0,0.15717053413391113
65,-322.0,168.0,1067.0,0.0,-8962.0,-13243.0,1295.0,-3330.0,-2.0,-8.0,-7.0,0.0,4.0,-1.0,-1.0,-2.0,0.15943479537963867
66,-322.0,168.0,1067.0,0.0,-8962.0,-13243.0,1295.0,-3330.0,2.0,1.0,7.0,0.0,0.0,0.0,-2.0,1.0,0.16179847717285156
67,-322.0,168.0,1067.0,0.0,-8962.0,-13243.0,1295.0,-3330.0,0.0,2.0,8.0,12.0,0.0,-4.0,0.0,1.0,0.16424965858459473
68,-304.0,169.0,1131.0,0.0,-8951.0,-13191.0,1473.0,-3486.0,0.0,2.0,8.0,12.0,0.0,-4.0,0.0,1.0,0.1665210723876953
69,-304.0,169.0,1131.0,0.0,-8951.0,-13191.0,1473.0,-3486.0,-2.0,-5.0,0.0,4.0,2.0,1.0,-1.0,-2.0,0.16889691352844238
70,-304.0,169.0,1131.0,0.0,-8951.0,-13191.0,1473.0,-3486.0,-1.0,-3.0,-11.0,-22.0,-6.0,-2.0,-1.0,-1.0,0.17119073867797852
71,-205.0,240.0,1133.0,0.0,-8922.0,-13148.0,1641.0,-3648.0,-1.0,-3.0,-11.0,-22.0,-6.0,-2.0,-1.0,-1.0,0.17346906661987305
72,-205.0,240.0,1133.0,0.0,-8922.0,-13148.0,1641.0,-3648.0,-2.0,-2.0,4.0,3.0,-8.0,2.0,1.0,-1.0,0.17580938339233398
73,-205.0,240.0,1133.0,0.0,-8922.0,-13148.0,1641.0,-3648.0,-2.0,-2.0,4.0,-18.0,-4.0,5.0,2.0,-1.0,0.17817974090576172
74,-7.0,238.0,1138.0,0.0,-8860.0,-13123.0,1799.0,-3810.0,-2.0,-2.0,4.0,-18.0,-4.0,5.0,2.0,-1.0,0.18094444274902344
75,-7.0,238.0,1138.0,0.0,-8860.0,-13123.0,1799.0,-3810.0,0.0,-3.0,8.0,1.0,0.0,-5.0,-1.0,1.0,0.18359923362731934
76,-7.0,238.0,1138.0,0.0,-8860.0,-13123.0,1799.0,-3810.0,-1.0,-2.0,-6.0,-2.0,1.0,3.0,-2.0,-3.0,0.1859595775604248
77,189.0,199.0,1140.0,0.0,-8767.0,-13119.0,1950.0,-3961.0,-1.0,-2.0,-6.0,-2.0,1.0,3.0,-2.0,-3.0,0.18825483322143555
78,189.0,199.0,1140.0,0.0,-8767.0,-13119.0,1950.0,-3961.0,0.0,0.0,-1.0,1.0,-2.0,-6.0,-5.0,-2.0,0.1905841827392578
79,189.0,199.0,1140.0,0.0,-8767.0,-13119.0,1950.0,-3961.0,1.0,-10.0,-3.0,13.0,1.0,-6.0,-2.0,0.0,0.19289493560791016
80,196.0,157.0,1035.0,0.0,-8682.0,-13118.0,2078.0,-4083.0,1.0,-10.0,-3.0,13.0,1.0,-6.0,-2.0,0.0,0.19516777992248535
81,196.0,157.0,1035.0,0.0,-8682.0,-13118.0,2078.0,-4083.0,-1.0,-2.0,2.0,3.0,-1.0,-1.0,0.0,-4.0,0.19751238822937012
82,196.0,157.0,1035.0,0.0,-8682.0,-13118.0,2078.0,-4083.0,0.0,0.0,1.0,8.0,4.0,8.0,0.0,1.0,0.19983386993408203
83,68.0,128.0,851.0,0.0,-8631.0,-13111.0,2176.0,-4165.0,0.0,0.0,1.0,8.0,4.0,8.0,0.0,1.0,0.20218372344970703
84,68.0,128.0,851.0,0.0,-8631.0,-13111.0,2176.0,-4165.0,-2.0,-2.0,-5.0,-9.0,-3.0,0.0,-2.0,-2.0,0.20453405380249023
85,68.0,128.0,851.0,0.0,-8631.0,-13111.0,2176.0,-4165.0,0.0,-1.0,1.0,-6.0,-2.0,2.0,2.0,0.0,0.20681095123291016
86,64.0,49.0,777.0,0.0,-8585.0,-13108.0,2264.0,-4219.0,0.0,-1.0,1.0,-6.0,-2.0,2.0,2.0,0.0,0.2091064453125
87,64.0,49.0,777.0,0.0,-8585.0,-13108.0,2264.0,-4219.0,-3.0,0.0,-4.0,-12.0,-3.0,-2.0,1.0,-1.0,0.21204853057861328
88,64.0,49.0,777.0,0.0,-8585.0,-13108.0,2264.0,-4219.0,-3.0,0.0,-4.0,-12.0,-3.0,-2.0,1.0,-1.0,0.21465325355529785
89,64.0,49.0,777.0,0.0,-8585.0,-13108.0,2264.0,-4219.0,-5.0,7.0,2.0,9.0,1.0,-4.0,0.0,0.0,0.21677231788635254
90,270.0,-94.0,829.0,0.0,-8500.0,-13132.0,2366.0,-4263.0,-5.0,7.0,2.0,9.0,1.0,-4.0,0.0,0.0,0.21904730796813965
91,270.0,-94.0,829.0,0.0,-8500.0,-13132.0,2366.0,-4263.0,3.0,-1.0,-1.0,-1.0,1.0,2.0,1.0,12.0,0.22140741348266602
92,270.0,-94.0,829.0,0.0,-8500.0,-13132.0,2366.0,-4263.0,-2.0,-5.0,-1.0,-3.0,0.0,-4.0,-2.0,-1.0,0.22379565238952637
93,328.0,-109.0,737.0,0.0,-8410.0,-13164.0,2452.0,-4294.0,-2.0,-5.0,-1.0,-3.0,0.0,-4.0,-2.0,-1.0,0.22606444358825684
94,328.0,-109.0,737.0,0.0,-8410.0,-13164.0,2452.0,-4294.0,-2.0,0.0,4.0,-3.0,-4.0,-3.0,-2.0,-5.0,0.22841811180114746
95,328.0,-109.0,737.0,0.0,-8410.0,-13164.0,2452.0,-4294.0,0.0,1.0,-2.0,-3.0,0.0,0.0,-2.0,-2.0,0.2307264804840088
96,326.0,-86.0,643.0,0.0,-8325.0,-13196.0,2523.0,-4320.0,0.0,1.0,-2.0,-3.0,0.0,0.0,-2.0,-2.0,0.23299145698547363
97,326.0,-86.0,643.0,0.0,-8325.0,-13196.0,2523.0,-4320.0,-3.0,-6.0,-5.0,5.0,2.0,1.0,1.0,-3.0,0.23533844947814941
98,326.0,-86.0,643.0,0.0,-8325.0,-13196.0,2523.0,-4320.0,-2.0,-7.0,0.0,7.0,16.0,7.0,4.0,2.0,0.23765897750854492
99,264.0,-116.0,694.0,0.0,-8241.0,-13223.0,2610.0,-4345.0,-2.0,-7.0,0.0,7.0,16.0,7.0,4.0,2.0,0.24005460739135742
100,264.0,-116.0,694.0,0.0,-8241.0,-13223.0,2610.0,-4345.0,5.0,4.0,1.0,-2.0,-48.0,-11.0,-18.0,0.0,0.24304652214050293
101,264.0,-116.0,694.0,0.0,-8241.0,-13223.0,2610.0,-4345.0,-10.0,-7.0,0.0,-2.0,-15.0,6.0,-13.0,-6.0,0.24602437019348145
102,91.0,-148.0,917.0,0.0,-8171.0,-13229.0,2739.0,-4379.0,-10.0,-7.0,0.0,-2.0,-15.0,6.0,-13.0,-6.0,0.248460054397583
103,91.0,-148.0,917.0,0.0,-8171.0,-13229.0,2739.0,-4379.0,2.0,1.0,-9.0,6.0,37.0,-2.0,-2.0,1.0,0.25081467628479004
104,91.0,-148.0,917.0,0.0,-8171.0,-13229.0,2739.0,-4379.0,1.0,-8.0,-5.0,4.0,-21.0,-5.0,5.0,0.0,0.25314760208129883
105,-285.0,-70.0,936.0,0.0,-8160.0,-13191.0,2885.0,-4421.0,1.0,-8.0,-5.0,4.0,-21.0,-5.0,5.0,0.0,0.25542306900024414
106,-285.0,-70.0,936.0,0.0,-8160.0,-13191.0,2885.0,-4421.0,-3.0,4.0,11.0,2.0,21.0,10.0,-12.0,2.0,0.2577784061431885
107,-285.0,-70.0,936.0,0.0,-8160.0,-13191.0,2885.0,-4421.0,-7.0,3.0,21.0,2.0,7.0,-4.0,-9.0,-12.0,0.2600836753845215
108,-412.0,17.0,949.0,0.0,-8174.0,-13123.0,3039.0,-4495.0,-7.0,3.0,21.0,2.0,7.0,-4.0,-9.0,-12.0,0.2624068260192871
109,-412.0,17.0,949.0,0.0,-8174.0,-13123.0,3039.0,-4495.0,1.0,-1.0,2.0,-3.0,5.0,6.0,24.0,2.0,0.2647819519042969
110,-412.0,17.0,949.0,0.0,-8174.0,-13123.0,3039.0,-4495.0,2.0,5.0,13.0,7.0,19.0,4.0,-3.0,2.0,0.26706933975219727
111,-123.0,149.0,775.0,0.0,-8169.0,-13066.0,3145.0,-4596.0,2.0,5.0,13.0,7.0,19.0,4.0,-3.0,2.0,0.26936769485473633
112,-123.0,149.0,775.0,0.0,-8169.0,-13066.0,3145.0,-4596.0,-4.0,-11.0,-28.0,-26.0,-41.0,-9.0,0.0,-6.0,0.2718360424041748
113,-123.0,149.0,775.0,0.0,-8169.0,-13066.0,3145.0,-4596.0,4.0,1.0,-13.0,-5.0,33.0,-5.0,10.0,3.0,0.2748525142669678
114,221.0,211.0,697.0,0.0,-8124.0,-13037.0,3213.0,-4707.0,4.0,1.0,-13.0,-5.0,33.0,-5.0,10.0,3.0,0.27757954597473145
115,221.0,211.0,697.0,0.0,-8124.0,-13037.0,3213.0,-4707.0,-9.0,-11.0,-8.0,-1.0,-15.0,-6.0,-2.0,-8.0,0.2799549102783203
116,403.0,244.0,671.0,0.0,-8072.0,-13023.0,3248.0,-4811.0,-9.0,-11.0,-8.0,-1.0,-15.0,-6.0,-2.0,-8.0,0.2822561264038086
117,403.0,244.0,671.0,0.0,-8072.0,-13023.0,3248.0,-4811.0,5.0,6.0,17.0,-3.0,6.0,-2.0,-10.0,0.0,0.2846488952636719
118,403.0,244.0,671.0,0.0,-8072.0,-13023.0,3248.0,-4811.0,-5.0,-1.0,-1.0,-29.0,2.0,16.0,4.0,-2.0,0.2869081497192383
119,207.0,280.0,597.0,0.0,-8056.0,-12997.0,3271.0,-4893.0,-5.0,-1.0,-1.0,-29.0,2.0,16.0,4.0,-2.0,0.289186954498291
120,207.0,280.0,597.0,0.0,-8056.0,-12997.0,3271.0,-4893.0,5.0,10.0,-17.0,19.0,-4.0,-33.0,4.0,3.0,0.29162096977233887
121,207.0,280.0,597.0,0.0,-8056.0,-12997.0,3271.0,-4893.0,-1.0,-5.0,-20.0,-2.0,14.0,2.0,-3.0,-5.0,0.2939188480377197
122,-79.0,258.0,560.0,0.0,-8080.0,-12955.0,3300.0,-4946.0,-1.0,-5.0,-20.0,-2.0,14.0,2.0,-3.0,-5.0,0.2962343692779541
123,-79.0,258.0,560.0,0.0,-8080.0,-12955.0,3300.0,-4946.0,-1.0,-7.0,-65.0,-9.0,1.0,8.0,1.0,2.0,0.2986183166503906
124,-79.0,258.0,560.0,0.0,-8080.0,-12955.0,3300.0,-4946.0,-1.0,5.0,7.0,14.0,21.0,4.0,2.0,1.0,0.30089592933654785
125,-266.0,144.0,542.0,0.0,-8120.0,-12908.0,3348.0,-4971.0,-1.0,5.0,7.0,14.0,21.0,4.0,2.0,1.0,0.3031625747680664
126,-266.0,144.0,542.0,0.0,-8120.0,-12908.0,3348.0,-4971.0,-1.0,-2.0,24.0,17.0,-22.0,-16.0,-4.0,0.0,0.3062272071838379
127,-266.0,144.0,542.0,0.0,-8120.0,-12908.0,3348.0,-4971.0,-3.0,-7.0,13.0,-5.0,1.0,8.0,5.0,0.0,0.3089737892150879
128,-268.0,100.0,430.0,0.0,-8150.0,-12869.0,3396.0,-4990.0,-3.0,-7.0,13.0,-5.0,1.0,8.0,5.0,0.0,0.3112673759460449
129,-268.0,100.0,430.0,0.0,-8150.0,-12869.0,3396.0,-4990.0,0.0,-3.0,7.0,0.0,-7.0,0.0,-2.0,-1.0,0.31362438201904297
130,-268.0,100.0,430.0,0.0,-8150.0,-12869.0,3396.0,-4990.0,16.0,13.0,-13.0,8.0,-9.0,-2.0,2.0,5.0,0.31592679023742676
131,-152.0,94.0,317.0,0.0,-8163.0,-12845.0,3429.0,-5008.0,16.0,13.0,-13.0,8.0,-9.0,-2.0,2.0,5.0,0.3181905746459961
132,-152.0,94.0,317.0,0.0,-8163.0,-12845.0,3429.0,-5008.0,3.0,-3.0,-11.0,-18.0,-22.0,-2.0,0.0,0.0,0.32056117057800293
133,-152.0,94.0,317.0,0.0,-8163.0,-12845.0,3429.0,-5008.0,-4.0,3.0,0.0,5.0,-8.0,2.0,0.0,-1.0,0.3228566646575928
134,-55.0,33.0,194.0,0.0,-8167.0,-12836.0,3444.0,-5011.0,-4.0,3.0,0.0,5.0,-8.0,2.0,0.0,-1.0,0.3251311779022217
135,-55.0,33.0,194.0,0.0,-8167.0,-12836.0,3444.0,-5011.0,-2.0,8.0,44.0,1.0,-39.0,1.0,2.0,1.0,0.32748913764953613
136,-55.0,33.0,194.0,0.0,-8167.0,-12836.0,3444.0,-5011.0,-1.0,6.0,27.0,9.0,-24.0,-15.0,-4.0,-5.0,0.32988739013671875
137,-44.0,-35.0,110.0,0.0,-8168.0,-12835.0,3460.0,-5005.0,-1.0,6.0,27.0,9.0,-24.0,-15.0,-4.0,-5.0,0.33216118812561035
138,-44.0,-35.0,110.0,0.0,-8168.0,-12835.0,3460.0,-5005.0,-4.0,-15.0,1.0,8.0,26.0,14.0,2.0,-1.0,0.3346118927001953
139,-44.0,-35.0,110.0,0.0,-8168.0,-12835.0,3460.0,-5005.0,-2.0,-13.0,-15.0,-7.0,39.0,6.0,-1.0,0.0,0.33733701705932617
140,-96.0,-93.0,65.0,0.0,-8181.0,-12825.0,3480.0,-4996.0,-2.0,-13.0,-15.0,-7.0,39.0,6.0,-1.0,0.0,0.33991312980651855
141,-96.0,-93.0,65.0,0.0,-8181.0,-12825.0,3480.0,-4996.0,-5.0,1.0,10.0,-2.0,-5.0,-8.0,-4.0,-6.0,0.3422682285308838
142,-96.0,-93.0,65.0,0.0,-8181.0,-12825.0,3480.0,-4996.0,-3.0,-6.0,-4.0,3.0,11.0,-4.0,-3.0,-2.0,0.3445920944213867
143,-123.0,-91.0,-19.0,0.0,-8201.0,-12806.0,3498.0,-4996.0,-3.0,-6.0,-4.0,3.0,11.0,-4.0,-3.0,-2.0,0.34693241119384766
144,-123.0,-91.0,-19.0,0.0,-8201.0,-12806.0,3498.0,-4996.0,-2.0,-3.0,1.0,-5.0,-6.0,8.0,1.0,0.0,0.34973812103271484
145,-123.0,-91.0,-19.0,0.0,-8201.0,-12806.0,3498.0,-4996.0,-1.0,-7.0,15.0,8.0,20.0,10.0,1.0,-1.0,0.3520233631134033
146,-18.0,-117.0,-26.0,0.0,-8211.0,-12795.0,3512.0,-5000.0,-1.0,-7.0,15.0,8.0,20.0,10.0,1.0,-1.0,0.35430383682250977
147,-18.0,-117.0,-26.0,0.0,-8211.0,-12795.0,3512.0,-5000.0,-6.0,-15.0,-51.0,-9.0,-56.0,-8.0,-8.0,-7.0,0.35665011405944824
148,-18.0,-117.0,-26.0,0.0,-8211.0,-12795.0,3512.0,-5000.0,2.0,-5.0,-25.0,-1.0,7.0,-11.0,-2.0,0.0,0.3589489459991455
149,124.0,-182.0,-53.0,0.0,-8204.0,-12802.0,3514.0,-4990.0,2.0,-5.0,-25.0,-1.0,7.0,-11.0,-2.0,0.0,0.3612401485443115
150,124.0,-182.0,-53.0,0.0,-8204.0,-12802.0,3514.0,-4990.0,3.0,-4.0,-7.0,-3.0,15.0,7.0,3.0,1.0,0.36357879638671875
151,124.0,-182.0,-53.0,0.0,-8204.0,-12802.0,3514.0,-4990.0,1.0,-3.0,-13.0,5.0,8.0,7.0,1.0,2.0,0.36594128608703613
152,128.0,-180.0,-138.0,0.0,-8204.0,-12815.0,3500.0,-4968.0,1.0,-3.0,-13.0,5.0,8.0,7.0,1.0,2.0,0.36875486373901367
153,128.0,-180.0,-138.0,0.0,-8204.0,-12815.0,3500.0,-4968.0,10.0,36.0,24.0,8.0,2.0,-2.0,-1.0,2.0,0.3713867664337158
154,128.0,-180.0,-138.0,0.0,-8204.0,-12815.0,3500.0,-4968.0,-2.0,9.0,18.0,8.0,-2.0,-6.0,-2.0,-1.0,0.373668909072876
155,180.0,-117.0,-178.0,0.0,-8194.0,-12836.0,3474.0,-4949.0,-2.0,9.0,18.0,8.0,-2.0,-6.0,-2.0,-1.0,0.37596893310546875
156,180.0,-117.0,-178.0,0.0,-8194.0,-12836.0,3474.0,-4949.0,-5.0,-13.0,-19.0,-17.0,0.0,-1.0,-1.0,-2.0,0.3783140182495117
157,180.0,-117.0,-178.0,0.0,-8194.0,-12836.0,3474.0,-4949.0,12.0,22.0,-10.0,-12.0,-2.0,-2.0,2.0,4.0,0.38065552711486816
158,313.0,-45.0,-123.0,0.0,-8166.0,-12869.0,3435.0,-4937.0,12.0,22.0,-10.0,-12.0,-2.0,-2.0,2.0,4.0,0.3829827308654785
159,313.0,-45.0,-123.0,0.0,-8166.0,-12869.0,3435.0,-4937.0,5.0,8.0,1.0,-1.0,20.0,-5.0,0.0,3.0,0.3853640556335449
160,313.0,-45.0,-123.0,0.0,-8166.0,-12869.0,3435.0,-4937.0,-4.0,-20.0,-23.0,3.0,-3.0,3.0,-2.0,-1.0,0.3876674175262451
161,335.0,-13.0,-55.0,0.0,-8130.0,-12908.0,3395.0,-4922.0,-4.0,-20.0,-23.0,3.0,-3.0,3.0,-2.0,-1.0,0.38993287086486816
162,335.0,-13.0,-55.0,0.0,-8130.0,-12908.0,3395.0,-4922.0,-5.0,-2.0,11.0,-2.0,3.0,2.0,-1.0,-3.0,0.39231300354003906
163,335.0,-13.0,-55.0,0.0,-8130.0,-12908.0,3395.0,-4922.0,2.0,8.0,56.0,-3.0,-9.0,-15.0,-2.0,-2.0,0.3945791721343994
164,244.0,-4.0,-40.0,0.0,-8113.0,-12938.0,3354.0,-4898.0,2.0,8.0,56.0,-3.0,-9.0,-15.0,-2.0,-2.0,0.39685654640197754
165,244.0,-4.0,-40.0,0.0,-8113.0,-12938.0,3354.0,-4898.0,1.0,-1.0,5.0,1.0,13.0,8.0,1.0,1.0,0.3998451232910156
166,244.0,-4.0,-40.0,0.0,-8113.0,-12938.0,3354.0,-4898.0,-10.0,-3.0,25.0,1.0,-39.0,-11.0,-5.0,-5.0,0.4024200439453125
167,172.0,-4.0,-15.0,0.0,-8105.0,-12960.0,3323.0,-4876.0,-10.0,-3.0,25.0,1.0,-39.0,-11.0,-5.0,-5.0,0.40476250648498535
168,172.0,-4.0,-15.0,0.0,-8105.0,-12960.0,3323.0,-4876.0,-2.0,-3.0,14.0,5.0,16.0,0.0,1.0,0.0,0.4071195125579834
169,172.0,-4.0,-15.0,0.0,-8105.0,-12960.0,3323.0,-4876.0,-1.0,-2.0,-15.0,-13.0,4.0,4.0,0.0,1.0,0.4093935489654541
170,130.0,38.0,47.0,0.0,-8101.0,-12969.0,3302.0,-4872.0,-1.0,-2.0,-15.0,-13.0,4.0,4.0,0.0,1.0,0.4116964340209961
171,130.0,38.0,47.0,0.0,-8101.0,-12969.0,3302.0,-4872.0,-1.0,-2.0,-4.0,2.0,-5.0,-2.0,-3.0,-1.0,0.4140353202819824
172,130.0,38.0,47.0,0.0,-8101.0,-12969.0,3302.0,-4872.0,14.0,2.0,6.0,-2.0,-11.0,-2.0,1.0,3.0,0.4163379669189453
173,163.0,78.0,94.0,0.0,-8097.0,-12974.0,3280.0,-4880.0,14.0,2.0,6.0,-2.0,-11.0,-2.0,1.0,3.0,0.41864681243896484
174,163.0,78.0,94.0,0.0,-8097.0,-12974.0,3280.0,-4880.0,8.0,16.0,-28.0,-19.0,8.0,3.0,2.0,3.0,0.42100095748901367
175,163.0,78.0,94.0,0.0,-8097.0,-12974.0,3280.0,-4880.0,-5.0,4.0,11.0,5.0,4.0,9.0,1.0,-3.0,0.4232900142669678
176,101.0,54.0,100.0,0.0,-8094.0,-12978.0,3267.0,-4881.0,-5.0,4.0,11.0,5.0,4.0,9.0,1.0,-3.0,0.42558765411376953
177,101.0,54.0,100.0,0.0,-8094.0,-12978.0,3267.0,-4881.0,-5.0,-19.0,-10.0,-14.0,-49.0,-10.0,-3.0,-3.0,0.427933931350708
178,101.0,54.0,100.0,0.0,-8094.0,-12978.0,3267.0,-4881.0,-2.0,3.0,-2.0,6.0,39.0,8.0,0.0,1.0,0.43082332611083984
179,2.0,9.0,54.0,0.0,-8104.0,-12978.0,3259.0,-4871.0,-2.0,3.0,-2.0,6.0,39.0,8.0,0.0,1.0,0.4334678649902344
180,2.0,9.0,54.0,0.0,-8104.0,-12978.0,3259.0,-4871.0,-5.0,5.0,28.0,1.0,-2.0,-5.0,-2.0,-4.0,0.43584370613098145
181,2.0,9.0,54.0,0.0,-8104.0,-12978.0,3259.0,-4871.0,-5.0,2.0,-3.0,-2.0,-2.0,3.0,-1.0,-2.0,0.4382600784301758
182,-68.0,-17.0,35.0,0.0,-8123.0,-12973.0,3256.0,-4854.0,-5.0,2.0,-3.0,-2.0,-2.0,3.0,-1.0,-2.0,0.44057440757751465
183,-68.0,-17.0,35.0,0.0,-8123.0,-12973.0,3256.0,-4854.0,-4.0,-4.0,-2.0,6.0,4.0,-2.0,1.0,-2.0,0.44293761253356934
184,-68.0,-17.0,35.0,0.0,-8123.0,-12973.0,3256.0,-4854.0,-3.0,3.0,-2.0,6.0,-5.0,-7.0,-1.0,-1.0,0.4452381134033203
185,-105.0,-20.0,58.0,0.0,-8144.0,-12962.0,3263.0,-4845.0,-3.0,3.0,-2.0,6.0,-5.0,-7.0,-1.0,-1.0,0.44757676124572754
186,-105.0,-20.0,58.0,0.0,-8144.0,-12962.0,3263.0,-4845.0,-3.0,-8.0,2.0,5.0,7.0,7.0,1.0,-1.0,0.4499351978302002
187,-105.0,-20.0,58.0,0.0,-8144.0,-12962.0,3263.0,-4845.0,-6.0,-6.0,-2.0,1.0,-35.0,-12.0,-4.0,-5.0,0.4522130489349365
188,-89.0,-1.0,47.0,0.0,-8161.0,-12952.0,3267.0,-4839.0,-6.0,-6.0,-2.0,1.0,-35.0,-12.0,-4.0,-5.0,0.45450711250305176
189,-89.0,-1.0,47.0,0.0,-8161.0,-12952.0,3267.0,-4839.0,-3.0,-3.0,11.0,-1.0,9.0,4.0,0.0,-2.0,0.45692014694213867
190,-89.0,-1.0,47.0,0.0,-8161.0,-12952.0,3267.0,-4839.0,4.0,6.0,4.0,-18.0,-3.0,-3.0,1.0,2.0,0.45926403999328613
191,-96.0,6.0,48.0,0.0,-8175.0,-12944.0,3273.0,-4833.0,4.0,6.0,4.0,-18.0,-3.0,-3.0,1.0,2.0,0.4621307849884033
192,-96.0,6.0,48.0,0.0,-8175.0,-12944.0,3273.0,-4833.0,6.0,-2.0,-2.0,0.0,-19.0,-3.0,-2.0,1.0,0.46480631828308105
193,-96.0,6.0,48.0,0.0,-8175.0,-12944.0,3273.0,-4833.0,-2.0,-4.0,-33.0,-12.0,3.0,4.0,1.0,1.0,0.4670906066894531
194,-115.0,-23.0,53.0,0.0,-8185.0,-12938.0,3287.0,-4825.0,-2.0,-4.0,-33.0,-12.0,3.0,4.0,1.0,1.0,0.4694020748138428
195,-115.0,-23.0,53.0,0.0,-8185.0,-12938.0,3287.0,-4825.0,-7.0,-6.0,5.0,8.0,21.0,0.0,-3.0,-3.0,0.47179079055786133
196,-115.0,-23.0,53.0,0.0,-8185.0,-12938.0,3287.0,-4825.0,0.0,-2.0,-8.0,4.0,-3.0,4.0,0.0,1.0,0.4740610122680664
197,-118.0,-52.0,32.0,0.0,-8194.0,-12932.0,3303.0,-4814.0,0.0,-2.0,-8.0,4.0,-3.0,4.0,0.0,1.0,0.47634148597717285
198,-118.0,-52.0,32.0,0.0,-8194.0,-12932.0,3303.0,-4814.0,-9.0,-6.0,-19.0,-4.0,-4.0,-3.0,1.0,-3.0,0.47875142097473145
199,-118.0,-52.0,32.0,0.0,-8194.0,-12932.0,3303.0,-4814.0,-1.0,-6.0,-2.0,10.0,-1.0,-3.0,-2.0,-2.0,0.48102641105651855
200,-143.0,-99.0,11.0,0.0,-8207.0,-12926.0,3321.0,-4793.0,-1.0,-6.0,-2.0,10.0,-1.0,-3.0,-2.0,-2.0,0.48330163955688477
201,-143.0,-99.0,11.0,0.0,-8207.0,-12926.0,3321.0,-4793.0,-5.0,-9.0,-2.0,6.0,8.0,1.0,-2.0,-2.0,0.48590612411499023
202,-143.0,-99.0,11.0,0.0,-8207.0,-12926.0,3321.0,-4793.0,5.0,2.0,-10.0,15.0,32.0,-2.0,-1.0,1.0,0.4881746768951416
203,-137.0,-121.0,-4.0,0.0,-8220.0,-12924.0,3338.0,-4767.0,5.0,2.0,-10.0,15.0,32.0,-2.0,-1.0,1.0,0.4904911518096924
204,-137.0,-121.0,-4.0,0.0,-8220.0,-12924.0,3338.0,-4767.0,0.0,-4.0,-19.0,-5.0,15.0,6.0,1.0,0.0,0.49341702461242676
205,-137.0,-121.0,-4.0,0.0,-8220.0,-12924.0,3338.0,-4767.0,6.0,23.0,26.0,-6.0,5.0,-4.0,-1.0,2.0,0.495969295501709
206,-125.0,-127.0,-11.0,0.0,-8231.0,-12922.0,3354.0,-4741.0,6.0,23.0,26.0,-6.0,5.0,-4.0,-1.0,2.0,0.4982287883758545
207,-125.0,-127.0,-11.0,0.0,-8231.0,-12922.0,3354.0,-4741.0,4.0,17.0,12.0,3.0,15.0,6.0,1.0,4.0,0.5006330013275146
208,-125.0,-127.0,-11.0,0.0,-8231.0,-12922.0,3354.0,-4741.0,-1.0,11.0,12.0,3.0,-13.0,-1.0,3.0,-3.0,0.5029168128967285
209,-145.0,-113.0,-24.0,0.0,-8249.0,-12917.0,3366.0,-4714.0,-1.0,11.0,12.0,3.0,-13.0,-1.0,3.0,-3.0,0.505178689956665
210,-145.0,-113.0,-24.0,0.0,-8249.0,-12917.0,3366.0,-4714.0,-4.0,-14.0,-7.0,1.0,-4.0,-1.0,0.0,-1.0,0.5075626373291016
211,-145.0,-113.0,-24.0,0.0,-8249.0,-12917.0,3366.0,-4714.0,-1.0,-6.0,-18.0,-19.0,-33.0,-11.0,-3.0,-1.0,0.5098254680633545
212,-166.0,-100.0,-24.0,0.0,-8270.0,-12908.0,3380.0,-4692.0,-1.0,-6.0,-18.0,-19.0,-33.0,-11.0,-3.0,-1.0,0.5120933055877686
213,-166.0,-100.0,-24.0,0.0,-8270.0,-12908.0,3380.0,-4692.0,-2.0,-5.0,-15.0,-2.0,0.0,-1.0,0.0,-2.0,0.5144267082214355
214,-166.0,-100.0,-24.0,0.0,-8270.0,-12908.0,3380.0,-4692.0,-3.0,-12.0,-41.0,-1.0,25.0,12.0,2.0,0.0,0.5167219638824463
215,-172.0,-79.0,-30.0,0.0,-8293.0,-12896.0,3394.0,-4676.0,-3.0,-12.0,-41.0,-1.0,25.0,12.0,2.0,0.0,0.5189852714538574
216,-172.0,-79.0,-30.0,0.0,-8293.0,-12896.0,3394.0,-4676.0,8.0,-4.0,10.0,-15.0,-65.0,-24.0,-3.0,2.0,0.521327018737793
217,-172.0,-79.0,-30.0,0.0,-8293.0,-12896.0,3394.0,-4676.0,-4.0,-7.0,-2.0,3.0,4.0,5.0,0.0,-2.0,0.5259339809417725
218,-167.0,-70.0,-41.0,0.0,-8317.0,-12883.0,3404.0,-4660.0,-4.0,-7.0,-2.0,3.0,4.0,5.0,0.0,-2.0,0.5282683372497559
219,-167.0,-70.0,-41.0,0.0,-8317.0,-12883.0,3404.0,-4660.0,2.0,5.0,-2.0,16.0,30.0,8.0,0.0,0.0,0.5417680740356445
220,-167.0,-70.0,-41.0,0.0,-8317.0,-12883.0,3404.0,-4660.0,-6.0,-27.0,-15.0,0.0,-7.0,-6.0,-3.0,-4.0,0.5440640449523926
221,-152.0,-57.0,-51.0,0.0,-8340.0,-12873.0,3410.0,-4644.0,-6.0,-27.0,-15.0,0.0,-7.0,-6.0,-3.0,-4.0,0.5463888645172119
222,-152.0,-57.0,-51.0,0.0,-8340.0,-12873.0,3410.0,-4644.0,6.0,11.0,17.0,1.0,2.0,1.0,0.0,2.0,0.5487422943115234
223,-152.0,-57.0,-51.0,0.0,-8340.0,-12873.0,3410.0,-4644.0,-7.0,-6.0,19.0,9.0,23.0,-3.0,-3.0,-4.0,0.5716302394866943
224,-174.0,-28.0,-46.0,0.0,-8365.0,-12857.0,3418.0,-4635.0,-7.0,-6.0,19.0,9.0,23.0,-3.0,-3.0,-4.0,0.5760219097137451
225,-174.0,-28.0,-46.0,0.0,-8365.0,-12857.0,3418.0,-4635.0,2.0,-9.0,-2.0,-4.0,20.0,1.0,0.0,-1.0,0.58042311668396
226,-174.0,-28.0,-46.0,0.0,-8365.0,-12857.0,3418.0,-4635.0,-2.0,2.0,10.0,2.0,2.0,0.0,0.0,0.0,0.5865621566772461
227,-151.0,-13.0,-40.0,0.0,-8388.0,-12843.0,3424.0,-4629.0,-2.0,2.0,10.0,2.0,2.0,0.0,0.0,0.0,0.5892508029937744
228,-151.0,-13.0,-40.0,0.0,-8388.0,-12843.0,3424.0,-4629.0,6.0,18.0,11.0,-2.0,11.0,4.0,1.0,1.0,0.5921323299407959
229,-151.0,-13.0,-40.0,0.0,-8388.0,-12843.0,3424.0,-4629.0,4.0,3.0,36.0,3.0,-10.0,-4.0,-2.0,1.0,0.600567102432251
230,-145.0,13.0,-47.0,0.0,-8411.0,-12829.0,3426.0,-4625.0,4.0,3.0,36.0,3.0,-10.0,-4.0,-2.0,1.0,0.6084918975830078
231,-145.0,13.0,-47.0,0.0,-8411.0,-12829.0,3426.0,-4625.0,-5.0,2.0,-17.0,-13.0,-24.0,-5.0,-5.0,-2.0,0.6108546257019043
232,-145.0,13.0,-47.0,0.0,-8411.0,-12829.0,3426.0,-4625.0,1.0,6.0,14.0,-2.0,-1.0,4.0,0.0,-1.0,0.6236581802368164
233,-153.0,22.0,-46.0,0.0,-8436.0,-12814.0,3426.0,-4621.0,1.0,6.0,14.0,-2.0,-1.0,4.0,0.0,-1.0,0.6259784698486328
234,-153.0,22.0,-46.0,0.0,-8436.0,-12814.0,3426.0,-4621.0,1.0,-5.0,-31.0,-6.0,18.0,4.0,2.0,1.0,0.6307666301727295
235,-153.0,22.0,-46.0,0.0,-8436.0,-12814.0,3426.0,-4621.0,-1.0,-2.0,4.0,-5.0,-13.0,-13.0,-5.0,-2.0,0.6463170051574707
236,-177.0,20.0,-57.0,0.0,-8464.0,-12799.0,3426.0,-4613.0,-1.0,-2.0,4.0,-5.0,-13.0,-13.0,-5.0,-2.0,0.6490461826324463
237,-177.0,20.0,-57.0,0.0,-8464.0,-12799.0,3426.0,-4613.0,-10.0,-17.0,-1.0,6.0,-1.0,0.0,-1.0,-4.0,0.6528620719909668
238,-177.0,20.0,-57.0,0.0,-8464.0,-12799.0,3426.0,-4613.0,3.0,-2.0,-24.0,6.0,-4.0,2.0,0.0,0.0,0.6603879928588867
239,-180.0,26.0,-69.0,0.0,-8491.0,-12784.0,3425.0,-4604.0,3.0,-2.0,-24.0,6.0,-4.0,2.0,0.0,0.0,0.6689093112945557
240,-180.0,26.0,-69.0,0.0,-8491.0,-12784.0,3425.0,-4604.0,-4.0,-9.0,-10.0,-10.0,12.0,0.0,-1.0,-2.0,0.6713931560516357
241,-180.0,26.0,-69.0,0.0,-8491.0,-12784.0,3425.0,-4604.0,-2.0,4.0,5.0,-5.0,-3.0,1.0,1.0,0.0,0.6838293075561523
242,-183.0,26.0,-81.0,0.0,-8517.0,-12772.0,3422.0,-4593.0,-2.0,4.0,5.0,-5.0,-3.0,1.0,1.0,0.0,0.686194896697998
243,-183.0,26.0,-81.0,0.0,-8517.0,-12772.0,3422.0,-4593.0,5.0,15.0,28.0,8.0,8.0,2.0,0.0,2.0,0.6902647018432617
244,-183.0,26.0,-81.0,0.0,-8517.0,-12772.0,3422.0,-4593.0,-2.0,3.0,-10.0,-10.0,-27.0,-2.0,-1.0,0.0,0.7163658142089844
245,-154.0,31.0,-74.0,0.0,-8535.0,-12763.0,3421.0,-4585.0,-2.0,3.0,-10.0,-10.0,-27.0,-2.0,-1.0,0.0,0.7206840515136719
246,-154.0,31.0,-74.0,0.0,-8535.0,-12763.0,3421.0,-4585.0,-9.0,-22.0,-44.0,-2.0,5.0,-8.0,-2.0,-4.0,0.7247707843780518
247,-154.0,31.0,-74.0,0.0,-8535.0,-12763.0,3421.0,-4585.0,1.0,4.0,-3.0,1.0,-3.0,2.0,0.0,0.0,0.7272686958312988
248,-105.0,44.0,-71.0,0.0,-8547.0,-12759.0,3415.0,-4579.0,1.0,4.0,-3.0,1.0,-3.0,2.0,0.0,0.0,0.7295513153076172
249,-105.0,44.0,-71.0,0.0,-8547.0,-12759.0,3415.0,-4579.0,-2.0,-2.0,2.0,3.0,0.0,6.0,8.0,0.0,0.7319111824035645
250,-105.0,44.0,-71.0,0.0,-8547.0,-12759.0,3415.0,-4579.0,0.0,1.0,1.0,-5.0,-9.0,-2.0,-3.0,0.0,0.743826150894165
251,-90.0,33.0,-75.0,0.0,-8557.0,-12755.0,3410.0,-4574.0,0.0,1.0,1.0,-5.0,-9.0,-2.0,-3.0,0.0,0.7464861869812012
252,-90.0,33.0,-75.0,0.0,-8557.0,-12755.0,3410.0,-4574.0,-6.0,-5.0,0.0,-2.0,-9.0,-1.0,-4.0,-5.0,0.7495729923248291
253,-90.0,33.0,-75.0,0.0,-8557.0,-12755.0,3410.0,-4574.0,-11.0,-20.0,-22.0,1.0,6.0,2.0,1.0,-3.0,0.7658379077911377
254,-29.0,19.0,-74.0,0.0,-8556.0,-12758.0,3404.0,-4570.0,-11.0,-20.0,-22.0,1.0,6.0,2.0,1.0,-3.0,0.7685127258300781
255,-29.0,19.0,-74.0,0.0,-8556.0,-12758.0,3404.0,-4570.0,-3.0,12.0,34.0,-10.0,-19.0,-15.0,-10.0,-2.0,0.7724919319152832
256,-29.0,19.0,-74.0,0.0,-8556.0,-12758.0,3404.0,-4570.0,12.0,-5.0,-10.0,-3.0,14.0,0.0,-5.0,3.0,0.7807133197784424
257,5.0,-12.0,-73.0,0.0,-8551.0,-12766.0,3399.0,-4561.0,12.0,-5.0,-10.0,-3.0,14.0,0.0,-5.0,3.0,0.7882986068725586
258,5.0,-12.0,-73.0,0.0,-8551.0,-12766.0,3399.0,-4561.0,24.0,36.0,-29.0,0.0,10.0,3.0,-4.0,6.0,0.7908568382263184
259,5.0,-12.0,-73.0,0.0,-8551.0,-12766.0,3399.0,-4561.0,0.0,17.0,5.0,-4.0,5.0,-1.0,4.0,1.0,0.803403377532959
260,23.0,-27.0,-67.0,0.0,-8542.0,-12776.0,3396.0,-4554.0,0.0,17.0,5.0,-4.0,5.0,-1.0,4.0,1.0,0.8057057857513428
261,23.0,-27.0,-67.0,0.0,-8542.0,-12776.0,3396.0,-4554.0,-7.0,-8.0,16.0,-15.0,-21.0,-2.0,-8.0,-9.0,0.8181512355804443
262,23.0,-27.0,-67.0,0.0,-8542.0,-12776.0,3396.0,-4554.0,-14.0,-46.0,-13.0,0.0,-5.0,0.0,-3.0,-8.0,0.8261487483978271
263,93.0,-21.0,-81.0,0.0,-8522.0,-12792.0,3389.0,-4551.0,-14.0,-46.0,-13.0,0.0,-5.0,0.0,-3.0,-8.0,0.8286476135253906
264,93.0,-21.0,-81.0,0.0,-8522.0,-12792.0,3389.0,-4551.0,5.0,8.0,-6.0,17.0,42.0,4.0,7.0,6.0,0.8330743312835693
265,93.0,-21.0,-81.0,0.0,-8522.0,-12792.0,3389.0,-4551.0,-12.0,-25.0,-15.0,9.0,10.0,-6.0,-24.0,-9.0,0.8503243923187256
266,219.0,-9.0,-112.0,0.0,-8489.0,-12818.0,3371.0,-4554.0,-12.0,-25.0,-15.0,9.0,10.0,-6.0,-24.0,-9.0,0.8543112277984619
267,219.0,-9.0,-112.0,0.0,-8489.0,-12818.0,3371.0,-4554.0,0.0,-26.0,-16.0,1.0,12.0,-1.0,-10.0,2.0,0.8584628105163574
268,219.0,-9.0,-112.0,0.0,-8489.0,-12818.0,3371.0,-4554.0,0.0,-8.0,-37.0,5.0,2.0,-17.0,0.0,1.0,0.8634169101715088
269,255.0,25.0,-138.0,0.0,-8455.0,-12849.0,3339.0,-4554.0,0.0,-8.0,-37.0,5.0,2.0,-17.0,0.0,1.0,0.8657605648040771
270,255.0,25.0,-138.0,0.0,-8455.0,-12849.0,3339.0,-4554.0,10.0,1.0,-16.0,-10.0,13.0,-2.0,-7.0,3.0,0.871025562286377
271,255.0,25.0,-138.0,0.0,-8455.0,-12849.0,3339.0,-4554.0,5.0,35.0,61.0,3.0,48.0,6.0,-17.0,2.0,0.8871989250183105
272,317.0,37.0,-213.0,0.0,-8415.0,-12885.0,3296.0,-4556.0,5.0,35.0,61.0,3.0,48.0,6.0,-17.0,2.0,0.8916487693786621
273,317.0,37.0,-213.0,0.0,-8415.0,-12885.0,3296.0,-4556.0,-18.0,4.0,49.0,4.0,-53.0,-6.0,0.0,-5.0,0.8965198993682861
274,317.0,37.0,-213.0,0.0,-8415.0,-12885.0,3296.0,-4556.0,-11.0,-11.0,15.0,-20.0,30.0,14.0,21.0,-1.0,0.9101147651672363
275,401.0,68.0,-277.0,0.0,-8374.0,-12928.0,3231.0,-4555.0,-11.0,-11.0,15.0,-20.0,30.0,14.0,21.0,-1.0,0.9174976348876953
276,401.0,68.0,-277.0,0.0,-8374.0,-12928.0,3231.0,-4555.0,2.0,8.0,-8.0,5.0,33.0,3.0,-3.0,2.0,0.921560525894165
277,401.0,68.0,-277.0,0.0,-8374.0,-12928.0,3231.0,-4555.0,10.0,-1.0,-50.0,-27.0,-46.0,7.0,4.0,4.0,0.9238307476043701
278,363.0,91.0,-365.0,0.0,-8354.0,-12965.0,3149.0,-4548.0,10.0,-1.0,-50.0,-27.0,-46.0,7.0,4.0,4.0,0.926123857498169
279,363.0,91.0,-365.0,0.0,-8354.0,-12965.0,3149.0,-4548.0,-5.0,-31.0,-26.0,20.0,-44.0,-11.0,18.0,0.0,0.9304225444793701
280,363.0,91.0,-365.0,0.0,-8354.0,-12965.0,3149.0,-4548.0,49.0,64.0,-4.0,-8.0,25.0,18.0,15.0,18.0,0.9484741687774658
281,289.0,108.0,-469.0,0.0,-8355.0,-12995.0,3050.0,-4527.0,49.0,64.0,-4.0,-8.0,25.0,18.0,15.0,18.0,0.9538462162017822
282,289.0,108.0,-469.0,0.0,-8355.0,-12995.0,3050.0,-4527.0,-13.0,33.0,64.0,-15.0,-24.0,5.0,-16.0,-11.0,0.9579050540924072
283,289.0,108.0,-469.0,0.0,-8355.0,-12995.0,3050.0,-4527.0,-12.0,1.0,8.0,0.0,-61.0,-3.0,2.0,-4.0,0.9601864814758301
284,130.0,85.0,-536.0,0.0,-8391.0,-13009.0,2945.0,-4489.0,-12.0,1.0,8.0,0.0,-61.0,-3.0,2.0,-4.0,0.9690604209899902
285,130.0,85.0,-536.0,0.0,-8391.0,-13009.0,2945.0,-4489.0,-21.0,-23.0,-14.0,-41.0,-46.0,-5.0,1.0,-8.0,0.9715361595153809
286,130.0,85.0,-536.0,0.0,-8391.0,-13009.0,2945.0,-4489.0,8.0,20.0,19.0,5.0,34.0,12.0,4.0,3.0,0.9836723804473877
287,34.0,124.0,-627.0,0.0,-8449.0,-13012.0,2827.0,-4446.0,8.0,20.0,19.0,5.0,34.0,12.0,4.0,3.0,0.985945463180542
288,34.0,124.0,-627.0,0.0,-8449.0,-13012.0,2827.0,-4446.0,-15.0,-19.0,2.0,-4.0,-54.0,-12.0,-4.0,-6.0,0.990135908126831
289,34.0,124.0,-627.0,0.0,-8449.0,-13012.0,2827.0,-4446.0,-9.0,0.0,-27.0,15.0,-19.0,-18.0,-3.0,-2.0,1.005702018737793
290,-87.0,171.0,-811.0,0.0,-8543.0,-13004.0,2678.0,-4384.0,-9.0,0.0,-27.0,15.0,-19.0,-18.0,-3.0,-2.0,1.0080478191375732
291,-87.0,171.0,-811.0,0.0,-8543.0,-13004.0,2678.0,-4384.0,16.0,19.0,-25.0,22.0,50.0,13.0,7.0,6.0,1.0208206176757812
292,-87.0,171.0,-811.0,0.0,-8543.0,-13004.0,2678.0,-4384.0,-16.0,-20.0,22.0,0.0,-38.0,-10.0,-4.0,-8.0,1.0294551849365234
293,-248.0,261.0,-1004.0,0.0,-8684.0,-12978.0,2486.0,-4294.0,-16.0,-20.0,22.0,0.0,-38.0,-10.0,-4.0,-8.0,1.0321125984191895
294,-248.0,261.0,-1004.0,0.0,-8684.0,-12978.0,2486.0,-4294.0,17.0,40.0,36.0,0.0,21.0,3.0,3.0,5.0,1.0345711708068848
295,-248.0,261.0,-1004.0,0.0,-8684.0,-12978.0,2486.0,-4294.0,-4.0,-4.0,23.0,4.0,5.0,-5.0,-3.0,-1.0,1.0435960292816162
296,-564.0,306.0,-1182.0,0.0,-8902.0,-12914.0,2255.0,-4165.0,-4.0,-4.0,23.0,4.0,5.0,-5.0,-3.0,-1.0,1.0458576679229736
297,-564.0,306.0,-1182.0,0.0,-8902.0,-12914.0,2255.0,-4165.0,-4.0,-4.0,23.0,4.0,5.0,-5.0,-3.0,-1.0,1.0507779121398926
298,-564.0,306.0,-1182.0,0.0,-8902.0,-12914.0,2255.0,-4165.0,2.0,-12.0,-42.0,-5.0,4.0,6.0,1.0,4.0,1.0677647590637207
299,-564.0,306.0,-1182.0,0.0,-8902.0,-12914.0,2255.0,-4165.0,25.0,-2.0,10.0,4.0,-7.0,-3.0,3.0,0.0,1.0717651844024658
300,-925.0,282.0,-1446.0,0.0,-9188.0,-12813.0,1995.0,-3986.0,25.0,-2.0,10.0,4.0,-7.0,-3.0,3.0,0.0,1.0757980346679688
301,-925.0,282.0,-1446.0,0.0,-9188.0,-12813.0,1995.0,-3986.0,-21.0,-13.0,-8.0,6.0,-6.0,-5.0,-3.0,-18.0,1.0785346031188965
302,-925.0,282.0,-1446.0,0.0,-9188.0,-12813.0,1995.0,-3986.0,-4.0,41.0,-5.0,5.0,6.0,-1.0,-3.0,-5.0,1.0882387161254883
303,-587.0,283.0,-1875.0,0.0,-9379.0,-12768.0,1712.0,-3811.0,-4.0,41.0,-5.0,5.0,6.0,-1.0,-3.0,-5.0,1.0905351638793945
304,-587.0,283.0,-1875.0,0.0,-9379.0,-12768.0,1712.0,-3811.0,35.0,37.0,24.0,9.0,11.0,-1.0,3.0,21.0,1.09605073928833
305,-587.0,283.0,-1875.0,0.0,-9379.0,-12768.0,1712.0,-3811.0,-36.0,-54.0,-19.0,-1.0,-5.0,0.0,-2.0,-14.0,1.103318691253662
306,-99.0,157.0,-2278.0,0.0,-9511.0,-12782.0,1358.0,-3574.0,-36.0,-54.0,-19.0,-1.0,-5.0,0.0,-2.0,-14.0,1.1056249141693115
307,-99.0,157.0,-2278.0,0.0,-9511.0,-12782.0,1358.0,-3574.0,-15.0,-27.0,-13.0,-4.0,1.0,-4.0,-3.0,-5.0,1.1104493141174316
308,-99.0,157.0,-2278.0,0.0,-9511.0,-12782.0,1358.0,-3574.0,9.0,25.0,29.0,10.0,1.0,0.0,5.0,8.0,1.1266975402832031
309,-393.0,-122.0,-3021.0,0.0,-9692.0,-12780.0,940.0,-3211.0,9.0,25.0,29.0,10.0,1.0,0.0,5.0,8.0,1.1294441223144531
310,-393.0,-122.0,-3021.0,0.0,-9692.0,-12780.0,940.0,-3211.0,2.0,-24.0,-10.0,1.0,9.0,2.0,8.0,12.0,1.1319773197174072
311,-393.0,-122.0,-3021.0,0.0,-9692.0,-12780.0,940.0,-3211.0,-8.0,-31.0,-6.0,6.0,-10.0,-5.0,-3.0,-3.0,1.1492528915405273
312,-1275.0,-461.0,-3702.0,0.0,-9985.0,-12688.0,517.0,-2740.0,-8.0,-31.0,-6.0,6.0,-10.0,-5.0,-3.0,-3.0,1.1515307426452637
313,-1275.0,-461.0,-3702.0,0.0,-9985.0,-12688.0,517.0,-2740.0,-9.0,-20.0,-11.0,2.0,-11.0,-16.0,-7.0,-10.0,1.1544232368469238
314,-1275.0,-461.0,-3702.0,0.0,-9985.0,-12688.0,517.0,-2740.0,-6.0,9.0,-3.0,-38.0,-4.0,-2.0,-4.0,-6.0,1.16349458694458
315,-2027.0,-904.0,-4233.0,0.0,-10373.0,-12501.0,90.0,-2139.0,-6.0,9.0,-3.0,-38.0,-4.0,-2.0,-4.0,-6.0,1.1660058498382568
316,-2027.0,-904.0,-4233.0,0.0,-10373.0,-12501.0,90.0,-2139.0,10.0,19.0,4.0,-10.0,5.0,4.0,3.0,12.0,1.17071533203125
317,-2027.0,-904.0,-4233.0,0.0,-10373.0,-12501.0,90.0,-2139.0,0.0,-16.0,7.0,15.0,6.0,4.0,1.0,5.0,1.185941457748413
318,-2693.0,-1323.0,-4690.0,0.0,-10818.0,-12220.0,-349.0,-1408.0,0.0,-16.0,7.0,15.0,6.0,4.0,1.0,5.0,1.1884794235229492
319,-2693.0,-1323.0,-4690.0,0.0,-10818.0,-12220.0,-349.0,-1408.0,9.0,13.0,5.0,-7.0,5.0,7.0,0.0,14.0,1.1929564476013184
320,-2693.0,-1323.0,-4690.0,0.0,-10818.0,-12220.0,-349.0,-1408.0,-1.0,-6.0,16.0,33.0,7.0,9.0,0.0,-5.0,1.2093048095703125
321,-2959.0,-1662.0,-4941.0,0.0,-11252.0,-11870.0,-770.0,-608.0,-1.0,-6.0,16.0,33.0,7.0,9.0,0.0,-5.0,1.2115988731384277
322,-2959.0,-1662.0,-4941.0,0.0,-11252.0,-11870.0,-770.0,-608.0,1.0,1.0,9.0,-2.0,4.0,2.0,0.0,-3.0,1.213930368423462
323,-2959.0,-1662.0,-4941.0,0.0,-11252.0,-11870.0,-770.0,-608.0,-1.0,3.0,25.0,-49.0,-7.0,-10.0,-3.0,7.0,1.2232911586761475
324,-3370.0,-1908.0,-5090.0,0.0,-11683.0,-11426.0,-1167.0,229.0,-1.0,3.0,25.0,-49.0,-7.0,-10.0,-3.0,7.0,1.2256155014038086
325,-3370.0,-1908.0,-5090.0,0.0,-11683.0,-11426.0,-1167.0,229.0,-8.0,-18.0,-58.0,-28.0,-3.0,24.0,-2.0,-8.0,1.2299261093139648
326,-3370.0,-1908.0,-5090.0,0.0,-11683.0,-11426.0,-1167.0,229.0,2.0,4.0,-6.0,13.0,9.0,1.0,2.0,1.0,1.2474510669708252
327,-3753.0,-1999.0,-5223.0,0.0,-12101.0,-10883.0,-1556.0,1075.0,2.0,4.0,-6.0,13.0,9.0,1.0,2.0,1.0,1.2518947124481201
328,-3753.0,-1999.0,-5223.0,0.0,-12101.0,-10883.0,-1556.0,1075.0,-1.0,-4.0,20.0,19.0,10.0,-4.0,-3.0,-20.0,1.2565958499908447
329,-3753.0,-1999.0,-5223.0,0.0,-12101.0,-10883.0,-1556.0,1075.0,-3.0,-6.0,-7.0,30.0,-15.0,-16.0,-7.0,-5.0,1.2704026699066162
330,-4060.0,-2035.0,-5222.0,0.0,-12491.0,-10250.0,-1934.0,1907.0,-3.0,-6.0,-7.0,30.0,-15.0,-16.0,-7.0,-5.0,1.2746846675872803
331,-4060.0,-2035.0,-5222.0,0.0,-12491.0,-10250.0,-1934.0,1907.0,-2.0,5.0,15.0,24.0,0.0,-2.0,3.0,2.0,1.2795352935791016
332,-4060.0,-2035.0,-5222.0,0.0,-12491.0,-10250.0,-1934.0,1907.0,3.0,-3.0,-16.0,-14.0,2.0,0.0,-2.0,1.0,1.284160852432251
333,-4131.0,-1993.0,-5209.0,0.0,-12824.0,-9556.0,-2305.0,2716.0,3.0,-3.0,-16.0,-14.0,2.0,0.0,-2.0,1.0,1.2868492603302002
334,-4131.0,-1993.0,-5209.0,0.0,-12824.0,-9556.0,-2305.0,2716.0,-1.0,-3.0,10.0,8.0,2.0,-8.0,-5.0,-1.0,1.2894151210784912
335,-4131.0,-1993.0,-5209.0,0.0,-12824.0,-9556.0,-2305.0,2716.0,-2.0,-4.0,-65.0,-23.0,-2.0,-1.0,-2.0,-1.0,1.3058300018310547
336,-3926.0,-1941.0,-5153.0,0.0,-13072.0,-8846.0,-2659.0,3501.0,-2.0,-4.0,-65.0,-23.0,-2.0,-1.0,-2.0,-1.0,1.3081293106079102
337,-3926.0,-1941.0,-5153.0,0.0,-13072.0,-8846.0,-2659.0,3501.0,-1.0,0.0,2.0,-10.0,7.0,2.0,-2.0,-4.0,1.321784257888794
338,-3926.0,-1941.0,-5153.0,0.0,-13072.0,-8846.0,-2659.0,3501.0,-1.0,1.0,9.0,10.0,-2.0,1.0,1.0,1.0,1.3310167789459229
339,-3694.0,-1927.0,-5133.0,0.0,-13237.0,-8126.0,-2994.0,4272.0,-1.0,1.0,9.0,10.0,-2.0,1.0,1.0,1.0,1.3343732357025146
340,-3694.0,-1927.0,-5133.0,0.0,-13237.0,-8126.0,-2994.0,4272.0,-2.0,-2.0,-2.0,-4.0,5.0,-5.0,-2.0,-2.0,1.3367702960968018
341,-3694.0,-1927.0,-5133.0,0.0,-13237.0,-8126.0,-2994.0,4272.0,0.0,2.0,11.0,4.0,0.0,-4.0,0.0,-2.0,1.3435981273651123
342,-3540.0,-1952.0,-5085.0,0.0,-13333.0,-7385.0,-3301.0,5025.0,0.0,2.0,11.0,4.0,0.0,-4.0,0.0,-2.0,1.347242832183838
343,-3540.0,-1952.0,-5085.0,0.0,-13333.0,-7385.0,-3301.0,5025.0,2.0,1.0,7.0,-3.0,19.0,16.0,2.0,0.0,1.3500120639801025
344,-3540.0,-1952.0,-5085.0,0.0,-13333.0,-7385.0,-3301.0,5025.0,1.0,2.0,1.0,-30.0,-47.0,-27.0,-6.0,-2.0,1.3665201663970947
345,-3441.0,-1994.0,-5122.0,0.0,-13361.0,-6614.0,-3588.0,5772.0,1.0,2.0,1.0,-30.0,-47.0,-27.0,-6.0,-2.0,1.3739261627197266
346,-3441.0,-1994.0,-5122.0,0.0,-13361.0,-6614.0,-3588.0,5772.0,5.0,5.0,3.0,1.0,38.0,3.0,-1.0,2.0,1.3763630390167236
347,-3441.0,-1994.0,-5122.0,0.0,-13361.0,-6614.0,-3588.0,5772.0,-1.0,0.0,4.0,0.0,11.0,9.0,-17.0,-2.0,1.3891899585723877
348,-3283.0,-1960.0,-5072.0,0.0,-13322.0,-5830.0,-3851.0,6493.0,-1.0,0.0,4.0,0.0,11.0,9.0,-17.0,-2.0,1.3963825702667236
349,-3283.0,-1960.0,-5072.0,0.0,-13322.0,-5830.0,-3851.0,6493.0,-4.0,-3.0,-3.0,-6.0,-96.0,0.0,19.0,0.0,1.4048936367034912
350,-3283.0,-1960.0,-5072.0,0.0,-13322.0,-5830.0,-3851.0,6493.0,5.0,14.0,25.0,15.0,-11.0,-10.0,-1.0,-4.0,1.4072988033294678
351,-3124.0,-1878.0,-4898.0,0.0,-13226.0,-5044.0,-4089.0,7167.0,5.0,14.0,25.0,15.0,-11.0,-10.0,-1.0,-4.0,1.4102845191955566
352,-3124.0,-1878.0,-4898.0,0.0,-13226.0,-5044.0,-4089.0,7167.0,-12.0,-18.0,-51.0,-16.0,26.0,1.0,3.0,-3.0,1.4129924774169922
353,-3124.0,-1878.0,-4898.0,0.0,-13226.0,-5044.0,-4089.0,7167.0,2.0,-1.0,-9.0,4.0,1.0,5.0,7.0,2.0,1.4262585639953613
354,-2980.0,-1742.0,-4700.0,0.0,-13077.0,-4265.0,-4311.0,7789.0,2.0,-1.0,-9.0,4.0,1.0,5.0,7.0,2.0,1.4285547733306885
355,-2980.0,-1742.0,-4700.0,0.0,-13077.0,-4265.0,-4311.0,7789.0,2.0,-2.0,18.0,3.0,-23.0,-19.0,0.0,4.0,1.4330198764801025
356,-2980.0,-1742.0,-4700.0,0.0,-13077.0,-4265.0,-4311.0,7789.0,-5.0,-5.0,11.0,-7.0,19.0,6.0,-3.0,-2.0,1.449221134185791
357,-2788.0,-1518.0,-4475.0,0.0,-12878.0,-3512.0,-4523.0,8356.0,-5.0,-5.0,11.0,-7.0,19.0,6.0,-3.0,-2.0,1.4515104293823242
358,-2788.0,-1518.0,-4475.0,0.0,-12878.0,-3512.0,-4523.0,8356.0,-1.0,1.0,-1.0,-6.0,20.0,6.0,3.0,8.0,1.4538600444793701
359,-2788.0,-1518.0,-4475.0,0.0,-12878.0,-3512.0,-4523.0,8356.0,6.0,4.0,1.0,-3.0,10.0,-9.0,-1.0,-25.0,1.4638080596923828
360,-2364.0,-1379.0,-4055.0,0.0,-12652.0,-2821.0,-4681.0,8859.0,6.0,4.0,1.0,-3.0,10.0,-9.0,-1.0,-25.0,1.466081142425537
361,-2364.0,-1379.0,-4055.0,0.0,-12652.0,-2821.0,-4681.0,8859.0,2.0,4.0,7.0,7.0,-4.0,1.0,-4.0,-9.0,1.4697415828704834
362,-2364.0,-1379.0,-4055.0,0.0,-12652.0,-2821.0,-4681.0,8859.0,-4.0,-5.0,-3.0,-1.0,30.0,4.0,2.0,4.0,1.4862632751464844
363,-1936.0,-1245.0,-3491.0,0.0,-12427.0,-2206.0,-4785.0,9288.0,-4.0,-5.0,-3.0,-1.0,30.0,4.0,2.0,4.0,1.4885401725769043
364,-1936.0,-1245.0,-3491.0,0.0,-12427.0,-2206.0,-4785.0,9288.0,1.0,3.0,5.0,3.0,-45.0,-46.0,-36.0,-25.0,1.4925422668457031
365,-1936.0,-1245.0,-3491.0,0.0,-12427.0,-2206.0,-4785.0,9288.0,-3.0,-4.0,-5.0,10.0,6.0,24.0,2.0,-2.0,1.5091779232025146
366,-1474.0,-1143.0,-2845.0,0.0,-12221.0,-1674.0,-4836.0,9639.0,-3.0,-4.0,-5.0,10.0,6.0,24.0,2.0,-2.0,1.5114498138427734
367,-1474.0,-1143.0,-2845.0,0.0,-12221.0,-1674.0,-4836.0,9639.0,-4.0,-2.0,6.0,5.0,-13.0,2.0,-1.0,-1.0,1.5138189792633057
368,-1474.0,-1143.0,-2845.0,0.0,-12221.0,-1674.0,-4836.0,9639.0,-1.0,-3.0,-4.0,1.0,-27.0,14.0,2.0,13.0,1.523247480392456
369,-729.0,-893.0,-1791.0,0.0,-12090.0,-1388.0,-4825.0,9853.0,-1.0,-3.0,-4.0,1.0,-27.0,14.0,2.0,13.0,1.5255413055419922
370,-729.0,-893.0,-1791.0,0.0,-12090.0,-1388.0,-4825.0,9853.0,-3.0,-3.0,-2.0,1.0,-20.0,-12.0,16.0,7.0,1.5303690433502197
371,-729.0,-893.0,-1791.0,0.0,-12090.0,-1388.0,-4825.0,9853.0,-1.0,-4.0,-6.0,-16.0,-3.0,-7.0,-22.0,-5.0,1.5470681190490723
372,792.0,-290.0,-471.0,0.0,-12042.0,-1437.0,-4709.0,9960.0,-1.0,-4.0,-6.0,-16.0,-3.0,-7.0,-22.0,-5.0,1.5514271259307861
373,792.0,-290.0,-471.0,0.0,-12042.0,-1437.0,-4709.0,9960.0,-1.0,0.0,5.0,6.0,46.0,32.0,7.0,-7.0,1.5555179119110107
374,792.0,-290.0,-471.0,0.0,-12042.0,-1437.0,-4709.0,9960.0,0.0,-1.0,-2.0,5.0,-25.0,-9.0,18.0,11.0,1.5694639682769775
375,-52.0,843.0,151.0,0.0,-12015.0,-1529.0,-4822.0,9924.0,0.0,-1.0,-2.0,5.0,-25.0,-9.0,18.0,11.0,1.571850299835205
376,-52.0,843.0,151.0,0.0,-12015.0,-1529.0,-4822.0,9924.0,0.0,-1.0,-2.0,5.0,-25.0,-9.0,18.0,11.0,1.5741934776306152
377,-52.0,843.0,151.0,0.0,-12015.0,-1529.0,-4822.0,9924.0,-2.0,-1.0,-1.0,-14.0,34.0,1.0,-22.0,-9.0,1.5832607746124268
378,-52.0,843.0,151.0,0.0,-12015.0,-1529.0,-4822.0,9924.0,-4.0,-5.0,-12.0,-29.0,2.0,12.0,-1.0,4.0,1.5855669975280762
379,1418.0,1611.0,2684.0,0.0,-12189.0,-2029.0,-4832.0,9613.0,-4.0,-5.0,-12.0,-29.0,2.0,12.0,-1.0,4.0,1.5911550521850586
380,1418.0,1611.0,2684.0,0.0,-12189.0,-2029.0,-4832.0,9613.0,2.0,2.0,2.0,0.0,-35.0,-14.0,2.0,3.0,1.593526840209961
381,1418.0,1611.0,2684.0,0.0,-12189.0,-2029.0,-4832.0,9613.0,2.0,3.0,6.0,8.0,7.0,-2.0,-4.0,-7.0,1.6071059703826904
382,2506.0,2077.0,4524.0,0.0,-12485.0,-2767.0,-4703.0,9099.0,2.0,3.0,6.0,8.0,7.0,-2.0,-4.0,-7.0,1.6096324920654297
383,2506.0,2077.0,4524.0,0.0,-12485.0,-2767.0,-4703.0,9099.0,7.0,4.0,2.0,6.0,36.0,35.0,-12.0,19.0,1.6119790077209473
384,2506.0,2077.0,4524.0,0.0,-12485.0,-2767.0,-4703.0,9099.0,-3.0,-4.0,-3.0,12.0,34.0,-31.0,51.0,26.0,1.628359079360962
385,2715.0,3108.0,5208.0,0.0,-12728.0,-3703.0,-4687.0,8413.0,-3.0,-4.0,-3.0,12.0,34.0,-31.0,51.0,26.0,1.6308948993682861
386,2715.0,3108.0,5208.0,0.0,-12728.0,-3703.0,-4687.0,8413.0,-4.0,-7.0,-6.0,-9.0,-25.0,-73.0,-78.0,-29.0,1.6349637508392334
387,2715.0,3108.0,5208.0,0.0,-12728.0,-3703.0,-4687.0,8413.0,9.0,9.0,21.0,19.0,5.0,49.0,81.0,-14.0,1.6430840492248535
388,3015.0,4739.0,5472.0,0.0,-12819.0,-4819.0,-4830.0,7588.0,9.0,9.0,21.0,19.0,5.0,49.0,81.0,-14.0,1.6511223316192627
389,3015.0,4739.0,5472.0,0.0,-12819.0,-4819.0,-4830.0,7588.0,-2.0,2.0,-11.0,-28.0,-98.0,-64.0,83.0,-49.0,1.6534931659698486
390,3015.0,4739.0,5472.0,0.0,-12819.0,-4819.0,-4830.0,7588.0,3.0,8.0,30.0,54.0,49.0,-128.0,-29.0,1.0,1.6661558151245117
391,5015.0,6491.0,5394.0,0.0,-12588.0,-6306.0,-5010.0,6718.0,3.0,8.0,30.0,54.0,49.0,-128.0,-29.0,1.0,1.6684341430664062
392,5015.0,6491.0,5394.0,0.0,-12588.0,-6306.0,-5010.0,6718.0,33.0,13.0,-1.0,-60.0,127.0,81.0,96.0,70.0,1.6805939674377441
393,5015.0,6491.0,5394.0,0.0,-12588.0,-6306.0,-5010.0,6718.0,11.0,17.0,-5.0,-111.0,87.0,97.0,103.0,-21.0,1.6883366107940674
394,5017.0,7386.0,6264.0,0.0,-12212.0,-7823.0,-5189.0,5585.0,11.0,17.0,-5.0,-111.0,87.0,97.0,103.0,-21.0,1.6905901432037354
395,5017.0,7386.0,6264.0,0.0,-12212.0,-7823.0,-5189.0,5585.0,27.0,27.0,30.0,47.0,45.0,114.0,59.0,44.0,1.6957287788391113
396,5017.0,7386.0,6264.0,0.0,-12212.0,-7823.0,-5189.0,5585.0,-25.0,-16.0,-23.0,-36.0,-35.0,-4.0,2.0,-32.0,1.7030298709869385
397,2872.0,7963.0,8348.0,0.0,-11925.0,-9088.0,-5318.0,3923.0,-25.0,-16.0,-23.0,-36.0,-35.0,-4.0,2.0,-32.0,1.7112045288085938
398,2872.0,7963.0,8348.0,0.0,-11925.0,-9088.0,-5318.0,3923.0,-53.0,-32.0,-37.0,-35.0,-110.0,-113.0,1.0,-72.0,1.7135586738586426
399,2872.0,7963.0,8348.0,0.0,-11925.0,-9088.0,-5318.0,3923.0,7.0,19.0,34.0,127.0,-8.0,30.0,-103.0,2.0,1.7261359691619873
400,388.0,7049.0,9966.0,0.0,-11800.0,-9930.0,-5185.0,1933.0,7.0,19.0,34.0,127.0,-8.0,30.0,-103.0,2.0,1.728844404220581
401,388.0,7049.0,9966.0,0.0,-11800.0,-9930.0,-5185.0,1933.0,-2.0,-15.0,-1.0,-13.0,-73.0,-11.0,-17.0,24.0,1.7328057289123535
402,388.0,7049.0,9966.0,0.0,-11800.0,-9930.0,-5185.0,1933.0,15.0,16.0,49.0,38.0,-114.0,-86.0,-53.0,-26.0,1.7484188079833984
403,2830.0,5135.0,11121.0,0.0,-11331.0,-10929.0,-4539.0,104.0,15.0,16.0,49.0,38.0,-114.0,-86.0,-53.0,-26.0,1.7506661415100098
404,2830.0,5135.0,11121.0,0.0,-11331.0,-10929.0,-4539.0,104.0,56.0,84.0,88.0,59.0,60.0,73.0,8.0,9.0,1.755683422088623
405,2830.0,5135.0,11121.0,0.0,-11331.0,-10929.0,-4539.0,104.0,60.0,-58.0,12.0,-94.0,82.0,127.0,12.0,71.0,1.762526273727417
406,2998.0,3939.0,10532.0,0.0,-10705.0,-11732.0,-3737.0,-1507.0,60.0,-58.0,12.0,-94.0,82.0,127.0,12.0,71.0,1.7709038257598877
407,2998.0,3939.0,10532.0,0.0,-10705.0,-11732.0,-3737.0,-1507.0,62.0,2.0,15.0,-41.0,-70.0,44.0,-115.0,20.0,1.7732534408569336
408,2998.0,3939.0,10532.0,0.0,-10705.0,-11732.0,-3737.0,-1507.0,8.0,59.0,24.0,-11.0,-67.0,-128.0,-128.0,39.0,1.7875096797943115
409,1179.0,4061.0,7823.0,0.0,-10212.0,-12065.0,-3214.0,-2878.0,8.0,59.0,24.0,-11.0,-67.0,-128.0,-128.0,39.0,1.7921760082244873
410,1179.0,4061.0,7823.0,0.0,-10212.0,-12065.0,-3214.0,-2878.0,-25.0,52.0,104.0,77.0,127.0,16.0,95.0,-37.0,1.796170711517334
411,1179.0,4061.0,7823.0,0.0,-10212.0,-12065.0,-3214.0,-2878.0,69.0,-125.0,64.0,34.0,84.0,96.0,107.0,41.0,1.809089183807373
412,-1200.0,2842.0,6101.0,0.0,-10051.0,-12023.0,-2682.0,-3963.0,69.0,-125.0,64.0,34.0,84.0,96.0,107.0,41.0,1.8138861656188965
413,-1200.0,2842.0,6101.0,0.0,-10051.0,-12023.0,-2682.0,-3963.0,69.0,-125.0,64.0,34.0,84.0,96.0,107.0,41.0,1.8233623504638672
414,-1200.0,2842.0,6101.0,0.0,-10051.0,-12023.0,-2682.0,-3963.0,-49.0,48.0,-106.0,25.0,46.0,-76.0,-14.0,13.0,1.8323686122894287
415,-1200.0,2842.0,6101.0,0.0,-10051.0,-12023.0,-2682.0,-3963.0,-17.0,84.0,30.0,77.0,124.0,-65.0,13.0,74.0,1.8347022533416748
416,923.0,-973.0,1280.0,0.0,-9901.0,-12201.0,-2447.0,-3948.0,-17.0,84.0,30.0,77.0,124.0,-65.0,13.0,74.0,1.8369686603546143
417,923.0,-973.0,1280.0,0.0,-9901.0,-12201.0,-2447.0,-3948.0,-28.0,-128.0,-24.0,-70.0,127.0,121.0,-38.0,32.0,1.8393256664276123
418,923.0,-973.0,1280.0,0.0,-9901.0,-12201.0,-2447.0,-3948.0,-60.0,-111.0,-128.0,47.0,-72.0,60.0,1.0,64.0,1.846022129058838
419,2197.0,-125.0,584.0,0.0,-9592.0,-12447.0,-2445.0,-3942.0,-60.0,-111.0,-128.0,47.0,-72.0,60.0,1.0,64.0,1.8483121395111084
420,2197.0,-125.0,584.0,0.0,-9592.0,-12447.0,-2445.0,-3942.0,103.0,-15.0,-19.0,5.0,22.0,-126.0,-63.0,7.0,1.8530030250549316
421,2197.0,-125.0,584.0,0.0,-9592.0,-12447.0,-2445.0,-3942.0,17.0,-15.0,16.0,-98.0,-128.0,-92.0,-72.0,-128.0,1.86860990524292
422,2780.0,837.0,1998.0,0.0,-9122.0,-12730.0,-2387.0,-4183.0,17.0,-15.0,16.0,-98.0,-128.0,-92.0,-72.0,-128.0,1.870868444442749
423,2780.0,837.0,1998.0,0.0,-9122.0,-12730.0,-2387.0,-4183.0,0.0,63.0,78.0,-100.0,-115.0,-81.0,84.0,-40.0,1.8752508163452148
424,2780.0,837.0,1998.0,0.0,-9122.0,-12730.0,-2387.0,-4183.0,74.0,27.0,-19.0,-19.0,110.0,25.0,-31.0,70.0,1.883225679397583
425,2160.0,556.0,2364.0,0.0,-8711.0,-12952.0,-2186.0,-4478.0,74.0,27.0,-19.0,-19.0,110.0,25.0,-31.0,70.0,1.8910813331604004
426,2160.0,556.0,2364.0,0.0,-8711.0,-12952.0,-2186.0,-4478.0,-128.0,-128.0,-73.0,50.0,102.0,99.0,75.0,-83.0,1.8934605121612549
427,2160.0,556.0,2364.0,0.0,-8711.0,-12952.0,-2186.0,-4478.0,-121.0,35.0,-67.0,-49.0,3.0,-68.0,-35.0,-128.0,1.9072401523590088
428,1274.0,218.0,1828.0,0.0,-8456.0,-13081.0,-1999.0,-4674.0,-121.0,35.0,-67.0,-49.0,3.0,-68.0,-35.0,-128.0,1.9112393856048584
429,1274.0,218.0,1828.0,0.0,-8456.0,-13081.0,-1999.0,-4674.0,6.0,47.0,-20.0,27.0,-75.0,11.0,46.0,-9.0,1.9165709018707275
430,1274.0,218.0,1828.0,0.0,-8456.0,-13081.0,-1999.0,-4674.0,0.0,-14.0,6.0,-47.0,0.0,104.0,79.0,104.0,1.9295973777770996
431,80.0,-286.0,1661.0,0.0,-8390.0,-13120.0,-1747.0,-4784.0,0.0,-14.0,6.0,-47.0,0.0,104.0,79.0,104.0,1.934399127960205
432,80.0,-286.0,1661.0,0.0,-8390.0,-13120.0,-1747.0,-4784.0,-48.0,-53.0,-40.0,1.0,-4.0,-8.0,-64.0,-49.0,1.9393548965454102
433,80.0,-286.0,1661.0,0.0,-8390.0,-13120.0,-1747.0,-4784.0,32.0,105.0,4.0,18.0,42.0,5.0,-78.0,-31.0,1.95943021774292
434,-319.0,-193.0,1550.0,0.0,-8383.0,-13120.0,-1518.0,-4874.0,32.0,105.0,4.0,18.0,42.0,5.0,-78.0,-31.0,1.9642043113708496
435,-319.0,-193.0,1550.0,0.0,-8383.0,-13120.0,-1518.0,-4874.0,16.0,-8.0,-27.0,-31.0,62.0,-29.0,16.0,26.0,1.9691293239593506
436,-319.0,-193.0,1550.0,0.0,-8383.0,-13120.0,-1518.0,-4874.0,-35.0,-77.0,9.0,94.0,102.0,36.0,41.0,-20.0,1.9732835292816162
437,-76.0,17.0,1237.0,0.0,-8294.0,-13160.0,-1344.0,-4967.0,-35.0,-77.0,9.0,94.0,102.0,36.0,41.0,-20.0,1.9756855964660645
438,-76.0,17.0,1237.0,0.0,-8294.0,-13160.0,-1344.0,-4967.0,5.0,16.0,3.0,60.0,-92.0,20.0,-72.0,22.0,1.9783523082733154
439,-76.0,17.0,1237.0,0.0,-8294.0,-13160.0,-1344.0,-4967.0,-5.0,-8.0,51.0,34.0,16.0,9.0,17.0,-19.0,1.988323450088501
440,191.0,121.0,740.0,0.0,-8208.0,-13198.0,-1266.0,-5030.0,-5.0,-8.0,51.0,34.0,16.0,9.0,17.0,-19.0,1.9905667304992676
441,191.0,121.0,740.0,0.0,-8208.0,-13198.0,-1266.0,-5030.0,-11.0,-19.0,-12.0,-14.0,-45.0,25.0,-51.0,-15.0,1.9954450130462646
442,191.0,121.0,740.0,0.0,-8208.0,-13198.0,-1266.0,-5030.0,3.0,34.0,15.0,-55.0,-98.0,-15.0,57.0,-23.0,2.012148380279541
443,-206.0,2.0,255.0,0.0,-8231.0,-13185.0,-1234.0,-5034.0,3.0,34.0,15.0,-55.0,-98.0,-15.0,57.0,-23.0,2.014456033706665
444,-206.0,2.0,255.0,0.0,-8231.0,-13185.0,-1234.0,-5034.0,17.0,4.0,80.0,44.0,4.0,8.0,22.0,42.0,2.0167853832244873
445,-206.0,2.0,255.0,0.0,-8231.0,-13185.0,-1234.0,-5034.0,-13.0,-53.0,-109.0,-51.0,-30.0,-41.0,-52.0,-10.0,2.0259809494018555
446,-408.0,-72.0,39.0,0.0,-8286.0,-13149.0,-1189.0,-5049.0,-13.0,-53.0,-109.0,-51.0,-30.0,-41.0,-52.0,-10.0,2.0282649993896484
447,-408.0,-72.0,39.0,0.0,-8286.0,-13149.0,-1189.0,-5049.0,14.0,12.0,11.0,6.0,17.0,1.0,33.0,17.0,2.0331761837005615
448,-408.0,-72.0,39.0,0.0,-8286.0,-13149.0,-1189.0,-5049.0,-26.0,-28.0,-7.0,45.0,-42.0,-7.0,25.0,-7.0,2.0484704971313477
449,-180.0,45.0,-78.0,0.0,-8299.0,-13134.0,-1177.0,-5069.0,-26.0,-28.0,-7.0,45.0,-42.0,-7.0,25.0,-7.0,2.0507314205169678
450,-180.0,45.0,-78.0,0.0,-8299.0,-13134.0,-1177.0,-5069.0,3.0,7.0,-17.0,22.0,-1.0,3.0,-52.0,-9.0,2.055654525756836
451,-180.0,45.0,-78.0,0.0,-8299.0,-13134.0,-1177.0,-5069.0,-3.0,-19.0,-8.0,58.0,-4.0,34.0,104.0,17.0,2.071878671646118
452,-94.0,2.0,-170.0,0.0,-8307.0,-13128.0,-1181.0,-5071.0,-3.0,-19.0,-8.0,58.0,-4.0,34.0,104.0,17.0,2.0746755599975586
453,-94.0,2.0,-170.0,0.0,-8307.0,-13128.0,-1181.0,-5071.0,-2.0,20.0,-2.0,-64.0,-68.0,-64.0,-50.0,24.0,2.077133893966675
454,-94.0,2.0,-170.0,0.0,-8307.0,-13128.0,-1181.0,-5071.0,1.0,8.0,3.0,-38.0,-20.0,2.0,21.0,13.0,2.0859382152557373
455,-281.0,39.0,-155.0,0.0,-8351.0,-13098.0,-1184.0,-5076.0,1.0,8.0,3.0,-38.0,-20.0,2.0,21.0,13.0,2.088237762451172
456,-281.0,39.0,-155.0,0.0,-8351.0,-13098.0,-1184.0,-5076.0,-4.0,-16.0,-28.0,-11.0,51.0,34.0,-11.0,12.0,2.093092918395996
457,-281.0,39.0,-155.0,0.0,-8351.0,-13098.0,-1184.0,-5076.0,10.0,71.0,2.0,-16.0,65.0,-18.0,-69.0,-18.0,2.109400510787964
458,-380.0,75.0,-126.0,0.0,-8396.0,-13062.0,-1172.0,-5096.0,10.0,71.0,2.0,-16.0,65.0,-18.0,-69.0,-18.0,2.1136372089385986
459,-380.0,75.0,-126.0,0.0,-8396.0,-13062.0,-1172.0,-5096.0,-16.0,-5.0,23.0,-2.0,-77.0,-23.0,-23.0,-5.0,2.117982864379883
460,-380.0,75.0,-126.0,0.0,-8396.0,-13062.0,-1172.0,-5096.0,-5.0,-2.0,17.0,18.0,33.0,27.0,2.0,-5.0,2.131847381591797
461,-285.0,41.0,-52.0,0.0,-8409.0,-13047.0,-1144.0,-5120.0,-5.0,-2.0,17.0,18.0,33.0,27.0,2.0,-5.0,2.1359498500823975
462,-285.0,41.0,-52.0,0.0,-8409.0,-13047.0,-1144.0,-5120.0,-1.0,3.0,39.0,94.0,50.0,13.0,-45.0,-6.0,2.1403427124023438
463,-285.0,41.0,-52.0,0.0,-8409.0,-13047.0,-1144.0,-5120.0,-7.0,-9.0,-15.0,-86.0,-90.0,-12.0,-18.0,-15.0,2.1471309661865234
464,-160.0,-5.0,-56.0,0.0,-8410.0,-13041.0,-1119.0,-5139.0,-7.0,-9.0,-15.0,-86.0,-90.0,-12.0,-18.0,-15.0,2.15008282661438
465,-160.0,-5.0,-56.0,0.0,-8410.0,-13041.0,-1119.0,-5139.0,0.0,-12.0,-6.0,-82.0,23.0,11.0,60.0,8.0,2.1524295806884766
466,-160.0,-5.0,-56.0,0.0,-8410.0,-13041.0,-1119.0,-5139.0,-7.0,-12.0,-7.0,-38.0,23.0,-5.0,-11.0,1.0,2.168560743331909
467,-162.0,-36.0,-9.0,0.0,-8420.0,-13031.0,-1091.0,-5154.0,-7.0,-12.0,-7.0,-38.0,23.0,-5.0,-11.0,1.0,2.1710996627807617
468,-162.0,-36.0,-9.0,0.0,-8420.0,-13031.0,-1091.0,-5154.0,12.0,4.0,-8.0,17.0,50.0,20.0,2.0,16.0,2.1755387783050537
469,-162.0,-36.0,-9.0,0.0,-8420.0,-13031.0,-1091.0,-5154.0,3.0,-3.0,-61.0,34.0,-17.0,-26.0,6.0,0.0,2.191800117492676
470,-167.0,-62.0,10.0,0.0,-8432.0,-13018.0,-1052.0,-5175.0,3.0,-3.0,-61.0,34.0,-17.0,-26.0,6.0,0.0,2.1940829753875732
471,-167.0,-62.0,10.0,0.0,-8432.0,-13018.0,-1052.0,-5175.0,-4.0,-6.0,35.0,-14.0,-38.0,-6.0,25.0,-2.0,2.196460008621216
472,-167.0,-62.0,10.0,0.0,-8432.0,-13018.0,-1052.0,-5175.0,6.0,7.0,25.0,17.0,10.0,19.0,3.0,0.0,2.206021785736084
473,-172.0,-30.0,51.0,0.0,-8441.0,-13005.0,-1011.0,-5202.0,6.0,7.0,25.0,17.0,10.0,19.0,3.0,0.0,2.208361864089966
474,-172.0,-30.0,51.0,0.0,-8441.0,-13005.0,-1011.0,-5202.0,-3.0,-10.0,-38.0,20.0,42.0,-5.0,-5.0,0.0,2.21304988861084
475,-172.0,-30.0,51.0,0.0,-8441.0,-13005.0,-1011.0,-5202.0,-3.0,4.0,35.0,-39.0,0.0,7.0,-8.0,-6.0,2.2392737865448
476,-200.0,-41.0,65.0,0.0,-8457.0,-12989.0,-971.0,-5224.0,-3.0,4.0,35.0,-39.0,0.0,7.0,-8.0,-6.0,2.2433011531829834
477,-200.0,-41.0,65.0,0.0,-8457.0,-12989.0,-971.0,-5224.0,-4.0,-15.0,5.0,-9.0,37.0,8.0,-4.0,0.0,2.2474780082702637
478,-200.0,-41.0,65.0,0.0,-8457.0,-12989.0,-971.0,-5224.0,0.0,4.0,14.0,19.0,-21.0,-14.0,-12.0,-3.0,2.2511632442474365
479,-213.0,-56.0,63.0,0.0,-8476.0,-12972.0,-930.0,-5242.0,0.0,4.0,14.0,19.0,-21.0,-14.0,-12.0,-3.0,2.253437042236328
480,-213.0,-56.0,63.0,0.0,-8476.0,-12972.0,-930.0,-5242.0,1.0,-4.0,-16.0,19.0,-24.0,11.0,1.0,0.0,2.2557873725891113
481,-213.0,-56.0,63.0,0.0,-8476.0,-12972.0,-930.0,-5242.0,-4.0,-3.0,8.0,21.0,-26.0,-6.0,1.0,3.0,2.2659807205200195
482,-280.0,-48.0,80.0,0.0,-8504.0,-12952.0,-889.0,-5254.0,-4.0,-3.0,8.0,21.0,-26.0,-6.0,1.0,3.0,2.268280506134033
483,-280.0,-48.0,80.0,0.0,-8504.0,-12952.0,-889.0,-5254.0,-2.0,16.0,-4.0,21.0,-55.0,-9.0,-10.0,-8.0,2.273073196411133
484,-280.0,-48.0,80.0,0.0,-8504.0,-12952.0,-889.0,-5254.0,-4.0,-10.0,16.0,36.0,45.0,12.0,2.0,-2.0,2.288327693939209
485,-323.0,-45.0,69.0,0.0,-8537.0,-12928.0,-847.0,-5266.0,-4.0,-10.0,16.0,36.0,45.0,12.0,2.0,-2.0,2.290604829788208
486,-323.0,-45.0,69.0,0.0,-8537.0,-12928.0,-847.0,-5266.0,-2.0,-2.0,-24.0,34.0,25.0,7.0,1.0,1.0,2.2957253456115723
487,-323.0,-45.0,69.0,0.0,-8537.0,-12928.0,-847.0,-5266.0,1.0,-17.0,-3.0,-4.0,-14.0,-29.0,-7.0,-2.0,2.31192946434021
488,-230.0,-16.0,74.0,0.0,-8554.0,-12913.0,-813.0,-5280.0,1.0,-17.0,-3.0,-4.0,-14.0,-29.0,-7.0,-2.0,2.314307928085327
489,-230.0,-16.0,74.0,0.0,-8554.0,-12913.0,-813.0,-5280.0,2.0,1.0,-2.0,9.0,-9.0,-11.0,-5.0,-5.0,2.316697597503662
490,-230.0,-16.0,74.0,0.0,-8554.0,-12913.0,-813.0,-5280.0,-4.0,1.0,13.0,36.0,14.0,11.0,4.0,-4.0,2.3259503841400146
491,-114.0,44.0,105.0,0.0,-8554.0,-12907.0,-791.0,-5300.0,-4.0,1.0,13.0,36.0,14.0,11.0,4.0,-4.0,2.328618049621582
492,-114.0,44.0,105.0,0.0,-8554.0,-12907.0,-791.0,-5300.0,2.0,-2.0,5.0,-28.0,5.0,-3.0,-2.0,2.0,2.333712577819824
493,-114.0,44.0,105.0,0.0,-8554.0,-12907.0,-791.0,-5300.0,-2.0,-2.0,-24.0,-22.0,2.0,7.0,7.0,1.0,2.3483786582946777
494,-59.0,71.0,113.0,0.0,-8544.0,-12906.0,-776.0,-5318.0,-2.0,-2.0,-24.0,-22.0,2.0,7.0,7.0,1.0,2.3506453037261963
495,-59.0,71.0,113.0,0.0,-8544.0,-12906.0,-776.0,-5318.0,-1.0,-5.0,18.0,25.0,14.0,-2.0,0.0,-2.0,2.3577451705932617
496,-59.0,71.0,113.0,0.0,-8544.0,-12906.0,-776.0,-5318.0,2.0,18.0,9.0,-5.0,14.0,-2.0,-7.0,0.0,2.3724865913391113
497,-175.0,81.0,203.0,0.0,-8552.0,-12891.0,-745.0,-5347.0,2.0,18.0,9.0,-5.0,14.0,-2.0,-7.0,0.0,2.375070571899414
498,-175.0,81.0,203.0,0.0,-8552.0,-12891.0,-745.0,-5347.0,1.0,-1.0,-40.0,-10.0,29.0,1.0,2.0,-2.0,2.377446413040161
499,-175.0,81.0,203.0,0.0,-8552.0,-12891.0,-745.0,-5347.0,-1.0,-14.0,-18.0,4.0,-28.0,2.0,4.0,-4.0,2.38600492477417
