,Gyro 0,Gyro 1,Gyro 2,Label,Orientation 0,Orientation 1,Orientation 2,Orientation 3,Sensor 0,Sensor 1,Sensor 2,Sensor 3,Sensor 4,Sensor 5,Sensor 6,Sensor 7,Timestamp
0,3.0,12.0,11.0,0.0,5464.0,-1633.0,-11208.0,-10503.0,-1.0,0.0,-9.0,3.0,1.0,-6.0,-3.0,-3.0,2.1457672119140625e-06
1,3.0,12.0,11.0,0.0,5464.0,-1633.0,-11208.0,-10503.0,10.0,8.0,9.0,-16.0,0.0,1.0,-1.0,4.0,0.002161741256713867
2,3.0,12.0,11.0,0.0,5464.0,-1633.0,-11208.0,-10503.0,-4.0,1.0,-3.0,0.0,-1.0,1.0,1.0,-2.0,0.004419803619384766
3,3.0,12.0,11.0,0.0,5464.0,-1633.0,-11208.0,-10503.0,-4.0,-3.0,-4.0,3.0,1.0,-1.0,0.0,-3.0,0.007688045501708984
4,3.0,12.0,11.0,0.0,5464.0,-1633.0,-11208.0,-10503.0,-3.0,-3.0,5.0,4.0,-1.0,3.0,-1.0,-2.0,0.01100611686706543
5,3.0,12.0,11.0,0.0,5464.0,-1633.0,-11208.0,-10503.0,-2.0,-5.0,-5.0,2.0,-1.0,3.0,-1.0,-2.0,0.014205217361450195
6,10.0,1.0,3.0,0.0,5462.0,-1627.0,-11214.0,-10499.0,-2.0,-5.0,-5.0,2.0,-1.0,3.0,-1.0,-2.0,0.01703929901123047
7,10.0,1.0,3.0,0.0,5462.0,-1627.0,-11214.0,-10499.0,3.0,2.0,15.0,-52.0,2.0,2.0,1.0,0.0,0.02004265785217285
8,10.0,1.0,3.0,0.0,5462.0,-1627.0,-11214.0,-10499.0,-1.0,-5.0,3.0,1.0,2.0,0.0,-1.0,0.0,0.022821903228759766
9,10.0,-3.0,-5.0,0.0,5461.0,-1626.0,-11214.0,-10499.0,-1.0,-5.0,3.0,1.0,2.0,0.0,-1.0,0.0,0.025700092315673828
10,10.0,-3.0,-5.0,0.0,5461.0,-1626.0,-11214.0,-10499.0,7.0,3.0,1.0,22.0,-1.0,-2.0,-2.0,4.0,0.027609586715698242
11,10.0,-3.0,-5.0,0.0,5461.0,-1626.0,-11214.0,-10499.0,-2.0,2.0,-1.0,-10.0,-2.0,0.0,1.0,-2.0,0.02947092056274414
12,-15.0,-6.0,-10.0,0.0,5461.0,-1626.0,-11215.0,-10498.0,-2.0,2.0,-1.0,-10.0,-2.0,0.0,1.0,-2.0,0.03127169609069824
13,-15.0,-6.0,-10.0,0.0,5461.0,-1626.0,-11215.0,-10498.0,-2.0,-4.0,4.0,17.0,3.0,-1.0,0.0,-1.0,0.03363656997680664
14,-15.0,-6.0,-10.0,0.0,5461.0,-1626.0,-11215.0,-10498.0,-1.0,0.0,-1.0,20.0,-2.0,4.0,-2.0,-3.0,0.03572273254394531
15,-19.0,-3.0,-7.0,0.0,5457.0,-1625.0,-11216.0,-10500.0,-1.0,0.0,-1.0,20.0,-2.0,4.0,-2.0,-3.0,0.03767800331115723
16,-19.0,-3.0,-7.0,0.0,5457.0,-1625.0,-11216.0,-10500.0,1.0,-3.0,-9.0,-1.0,-3.0,-5.0,-2.0,-4.0,0.03955388069152832
17,-19.0,-3.0,-7.0,0.0,5457.0,-1625.0,-11216.0,-10500.0,-2.0,-6.0,9.0,7.0,-1.0,-2.0,-2.0,-2.0,0.04137992858886719
18,-10.0,1.0,-11.0,0.0,5457.0,-1625.0,-11216.0,-10499.0,-2.0,-6.0,9.0,7.0,-1.0,-2.0,-2.0,-2.0,0.04317975044250488
19,-10.0,1.0,-11.0,0.0,5457.0,-1625.0,-11216.0,-10499.0,-4.0,-6.0,-16.0,8.0,-3.0,2.0,-1.0,0.0,0.0450742244720459
20,-10.0,1.0,-11.0,0.0,5457.0,-1625.0,-11216.0,-10499.0,1.0,2.0,3.0,14.0,3.0,6.0,0.0,0.0,0.04694104194641113
21,5.0,3.0,-10.0,0.0,5456.0,-1625.0,-11217.0,-10499.0,1.0,2.0,3.0,14.0,3.0,6.0,0.0,0.0,0.04873180389404297
22,5.0,3.0,-10.0,0.0,5456.0,-1625.0,-11217.0,-10499.0,-2.0,-4.0,0.0,8.0,0.0,-2.0,-1.0,-1.0,0.05065488815307617
23,5.0,3.0,-10.0,0.0,5456.0,-1625.0,-11217.0,-10499.0,0.0,4.0,2.0,-3.0,-3.0,6.0,0.0,2.0,0.05333113670349121
24,11.0,10.0,-15.0,0.0,5456.0,-1624.0,-11217.0,-10499.0,0.0,4.0,2.0,-3.0,-3.0,6.0,0.0,2.0,0.05535602569580078
25,11.0,10.0,-15.0,0.0,5456.0,-1624.0,-11217.0,-10499.0,-1.0,-2.0,-8.0,-6.0,-1.0,1.0,-1.0,-2.0,0.057427406311035156
26,11.0,10.0,-15.0,0.0,5456.0,-1624.0,-11217.0,-10499.0,1.0,3.0,2.0,-13.0,0.0,-10.0,-1.0,1.0,0.059214115142822266
27,18.0,15.0,-20.0,0.0,5453.0,-1618.0,-11222.0,-10496.0,1.0,3.0,2.0,-13.0,0.0,-10.0,-1.0,1.0,0.06101632118225098
28,18.0,15.0,-20.0,0.0,5453.0,-1618.0,-11222.0,-10496.0,4.0,5.0,1.0,19.0,1.0,0.0,0.0,2.0,0.06291580200195312
29,18.0,15.0,-20.0,0.0,5453.0,-1618.0,-11222.0,-10496.0,1.0,2.0,5.0,3.0,0.0,-6.0,-1.0,1.0,0.06470322608947754
30,16.0,13.0,-34.0,0.0,5448.0,-1610.0,-11227.0,-10494.0,1.0,2.0,5.0,3.0,0.0,-6.0,-1.0,1.0,0.0665581226348877
31,16.0,13.0,-34.0,0.0,5448.0,-1610.0,-11227.0,-10494.0,-2.0,2.0,6.0,-2.0,-1.0,-1.0,-1.0,-1.0,0.0684211254119873
32,16.0,13.0,-34.0,0.0,5448.0,-1610.0,-11227.0,-10494.0,-6.0,-9.0,-1.0,-17.0,6.0,14.0,3.0,-1.0,0.07024741172790527
33,18.0,15.0,-42.0,0.0,5443.0,-1601.0,-11233.0,-10492.0,-6.0,-9.0,-1.0,-17.0,6.0,14.0,3.0,-1.0,0.07216596603393555
34,18.0,15.0,-42.0,0.0,5443.0,-1601.0,-11233.0,-10492.0,-3.0,-2.0,10.0,7.0,-6.0,-4.0,-4.0,-3.0,0.0743708610534668
35,18.0,15.0,-42.0,0.0,5443.0,-1601.0,-11233.0,-10492.0,-1.0,0.0,6.0,1.0,-3.0,-3.0,-1.0,-6.0,0.07642650604248047
36,34.0,11.0,-44.0,0.0,5437.0,-1591.0,-11239.0,-10490.0,-1.0,0.0,6.0,1.0,-3.0,-3.0,-1.0,-6.0,0.07845354080200195
37,34.0,11.0,-44.0,0.0,5437.0,-1591.0,-11239.0,-10490.0,8.0,7.0,-12.0,-15.0,1.0,-8.0,-3.0,-3.0,0.08049416542053223
38,34.0,11.0,-44.0,0.0,5437.0,-1591.0,-11239.0,-10490.0,0.0,-6.0,-13.0,11.0,-1.0,8.0,1.0,0.0,0.08249068260192871
39,33.0,-6.0,-45.0,0.0,5429.0,-1582.0,-11247.0,-10488.0,0.0,-6.0,-13.0,11.0,-1.0,8.0,1.0,0.0,0.08521676063537598
40,33.0,-6.0,-45.0,0.0,5429.0,-1582.0,-11247.0,-10488.0,-2.0,-4.0,10.0,5.0,-2.0,-4.0,1.0,-1.0,0.08783268928527832
41,33.0,-6.0,-45.0,0.0,5429.0,-1582.0,-11247.0,-10488.0,1.0,-1.0,-8.0,-4.0,-4.0,2.0,-1.0,0.0,0.08974575996398926
42,55.0,-18.0,-44.0,0.0,5421.0,-1575.0,-11257.0,-10482.0,1.0,-1.0,-8.0,-4.0,-4.0,2.0,-1.0,0.0,0.09153938293457031
43,55.0,-18.0,-44.0,0.0,5421.0,-1575.0,-11257.0,-10482.0,1.0,0.0,0.0,-4.0,-2.0,-1.0,0.0,-1.0,0.09342646598815918
44,55.0,-18.0,-44.0,0.0,5421.0,-1575.0,-11257.0,-10482.0,-4.0,0.0,1.0,-15.0,-3.0,-3.0,1.0,3.0,0.09557533264160156
45,75.0,-16.0,-55.0,0.0,5412.0,-1565.0,-11270.0,-10473.0,-4.0,0.0,1.0,-15.0,-3.0,-3.0,1.0,3.0,0.09771347045898438
46,75.0,-16.0,-55.0,0.0,5412.0,-1565.0,-11270.0,-10473.0,-2.0,2.0,-6.0,6.0,-2.0,-4.0,-3.0,-3.0,0.09983420372009277
47,75.0,-16.0,-55.0,0.0,5412.0,-1565.0,-11270.0,-10473.0,-2.0,-2.0,-2.0,-1.0,-1.0,-2.0,-1.0,-8.0,0.10166525840759277
48,41.0,2.0,-58.0,0.0,5406.0,-1555.0,-11277.0,-10471.0,-2.0,-2.0,-2.0,-1.0,-1.0,-2.0,-1.0,-8.0,0.10343527793884277
49,41.0,2.0,-58.0,0.0,5406.0,-1555.0,-11277.0,-10471.0,1.0,0.0,-9.0,-7.0,-1.0,2.0,1.0,-5.0,0.10527849197387695
50,41.0,2.0,-58.0,0.0,5406.0,-1555.0,-11277.0,-10471.0,5.0,8.0,15.0,0.0,-4.0,-4.0,1.0,9.0,0.10708379745483398
51,53.0,17.0,-55.0,0.0,5404.0,-1545.0,-11283.0,-10467.0,5.0,8.0,15.0,0.0,-4.0,-4.0,1.0,9.0,0.10885405540466309
52,53.0,17.0,-55.0,0.0,5404.0,-1545.0,-11283.0,-10467.0,-3.0,1.0,28.0,4.0,2.0,-6.0,-1.0,2.0,0.11074328422546387
53,53.0,17.0,-55.0,0.0,5404.0,-1545.0,-11283.0,-10467.0,-4.0,-2.0,5.0,4.0,1.0,-2.0,1.0,-3.0,0.11251378059387207
54,104.0,25.0,-54.0,0.0,5402.0,-1529.0,-11295.0,-10458.0,-4.0,-2.0,5.0,4.0,1.0,-2.0,1.0,-3.0,0.11493682861328125
55,104.0,25.0,-54.0,0.0,5402.0,-1529.0,-11295.0,-10458.0,3.0,1.0,4.0,9.0,-2.0,-4.0,-3.0,0.0,0.11749839782714844
56,104.0,25.0,-54.0,0.0,5402.0,-1529.0,-11295.0,-10458.0,-2.0,2.0,-3.0,1.0,0.0,1.0,-2.0,-1.0,0.12120699882507324
57,94.0,16.0,-58.0,0.0,5398.0,-1514.0,-11306.0,-10449.0,-2.0,2.0,-3.0,1.0,0.0,1.0,-2.0,-1.0,0.12448692321777344
58,94.0,16.0,-58.0,0.0,5398.0,-1514.0,-11306.0,-10449.0,-9.0,-11.0,-24.0,-68.0,-1.0,-2.0,-1.0,4.0,0.12654423713684082
59,94.0,16.0,-58.0,0.0,5398.0,-1514.0,-11306.0,-10449.0,-3.0,-1.0,-7.0,-4.0,-2.0,2.0,-2.0,-18.0,0.1283261775970459
60,77.0,34.0,-42.0,0.0,5400.0,-1501.0,-11313.0,-10443.0,-3.0,-1.0,-7.0,-4.0,-2.0,2.0,-2.0,-18.0,0.13013172149658203
61,77.0,34.0,-42.0,0.0,5400.0,-1501.0,-11313.0,-10443.0,-3.0,-1.0,1.0,23.0,4.0,8.0,-4.0,-17.0,0.13204503059387207
62,77.0,34.0,-42.0,0.0,5400.0,-1501.0,-11313.0,-10443.0,0.0,-6.0,-13.0,2.0,1.0,-3.0,0.0,2.0,0.13390374183654785
63,96.0,47.0,-45.0,0.0,5400.0,-1482.0,-11323.0,-10435.0,0.0,-6.0,-13.0,2.0,1.0,-3.0,0.0,2.0,0.13572072982788086
64,96.0,47.0,-45.0,0.0,5400.0,-1482.0,-11323.0,-10435.0,0.0,-4.0,2.0,8.0,-4.0,6.0,-1.0,-6.0,0.13762426376342773
65,96.0,47.0,-45.0,0.0,5400.0,-1482.0,-11323.0,-10435.0,-8.0,-5.0,-5.0,2.0,-4.0,4.0,0.0,2.0,0.13950157165527344
66,57.0,71.0,-38.0,0.0,5402.0,-1462.0,-11328.0,-10432.0,-8.0,-5.0,-5.0,2.0,-4.0,4.0,0.0,2.0,0.14129161834716797
67,57.0,71.0,-38.0,0.0,5402.0,-1462.0,-11328.0,-10432.0,0.0,1.0,-1.0,4.0,2.0,-6.0,0.0,7.0,0.1431896686553955
68,57.0,71.0,-38.0,0.0,5402.0,-1462.0,-11328.0,-10432.0,-3.0,3.0,2.0,-3.0,0.0,0.0,2.0,5.0,0.1457664966583252
69,28.0,61.0,-21.0,0.0,5406.0,-1449.0,-11327.0,-10432.0,-3.0,3.0,2.0,-3.0,0.0,0.0,2.0,5.0,0.14780330657958984
70,28.0,61.0,-21.0,0.0,5406.0,-1449.0,-11327.0,-10432.0,-1.0,-5.0,0.0,-29.0,1.0,-3.0,1.0,2.0,0.1497814655303955
71,28.0,61.0,-21.0,0.0,5406.0,-1449.0,-11327.0,-10432.0,1.0,2.0,8.0,4.0,0.0,-4.0,-3.0,2.0,0.15157270431518555
72,75.0,37.0,-8.0,0.0,5407.0,-1436.0,-11336.0,-10424.0,1.0,2.0,8.0,4.0,0.0,-4.0,-3.0,2.0,0.15336823463439941
73,75.0,37.0,-8.0,0.0,5407.0,-1436.0,-11336.0,-10424.0,5.0,6.0,9.0,27.0,3.0,3.0,2.0,11.0,0.15523958206176758
74,75.0,37.0,-8.0,0.0,5407.0,-1436.0,-11336.0,-10424.0,-6.0,4.0,-7.0,-11.0,-1.0,-4.0,-2.0,1.0,0.15703344345092773
75,44.0,30.0,-4.0,0.0,5405.0,-1424.0,-11342.0,-10419.0,-6.0,4.0,-7.0,-11.0,-1.0,-4.0,-2.0,1.0,0.15896868705749512
76,44.0,30.0,-4.0,0.0,5405.0,-1424.0,-11342.0,-10419.0,0.0,-5.0,-10.0,5.0,2.0,7.0,1.0,-2.0,0.1611945629119873
77,-3.0,29.0,18.0,0.0,5406.0,-1418.0,-11342.0,-10420.0,0.0,-5.0,-10.0,5.0,2.0,7.0,1.0,-2.0,0.16325688362121582
78,-3.0,29.0,18.0,0.0,5406.0,-1418.0,-11342.0,-10420.0,-3.0,-4.0,-6.0,7.0,0.0,7.0,3.0,0.0,0.16519427299499512
79,-3.0,29.0,18.0,0.0,5406.0,-1418.0,-11342.0,-10420.0,-1.0,-4.0,-14.0,-2.0,-1.0,-7.0,-9.0,-7.0,0.1670072078704834
80,-16.0,3.0,41.0,0.0,5407.0,-1422.0,-11342.0,-10418.0,-1.0,-4.0,-14.0,-2.0,-1.0,-7.0,-9.0,-7.0,0.1688849925994873
81,-16.0,3.0,41.0,0.0,5407.0,-1422.0,-11342.0,-10418.0,1.0,2.0,1.0,5.0,-1.0,0.0,0.0,1.0,0.17084312438964844
82,-16.0,3.0,41.0,0.0,5407.0,-1422.0,-11342.0,-10418.0,2.0,-3.0,-1.0,17.0,-1.0,-7.0,1.0,2.0,0.17262506484985352
83,-7.0,-14.0,47.0,0.0,5408.0,-1429.0,-11345.0,-10414.0,2.0,-3.0,-1.0,17.0,-1.0,-7.0,1.0,2.0,0.17455792427062988
84,-7.0,-14.0,47.0,0.0,5408.0,-1429.0,-11345.0,-10414.0,1.0,1.0,-22.0,-15.0,-4.0,-3.0,-3.0,0.0,0.17668414115905762
85,-7.0,-14.0,47.0,0.0,5408.0,-1429.0,-11345.0,-10414.0,5.0,3.0,12.0,11.0,3.0,1.0,-1.0,-6.0,0.17871570587158203
86,-6.0,-19.0,46.0,0.0,5409.0,-1436.0,-11347.0,-10410.0,5.0,3.0,12.0,11.0,3.0,1.0,-1.0,-6.0,0.1805264949798584
87,-6.0,-19.0,46.0,0.0,5409.0,-1436.0,-11347.0,-10410.0,0.0,-1.0,0.0,1.0,-3.0,3.0,0.0,1.0,0.1830458641052246
88,-6.0,-19.0,46.0,0.0,5409.0,-1436.0,-11347.0,-10410.0,-4.0,-7.0,-12.0,-15.0,-2.0,3.0,-3.0,0.0,0.18630480766296387
89,3.0,-29.0,36.0,0.0,5408.0,-1444.0,-11351.0,-10405.0,-4.0,-7.0,-12.0,-15.0,-2.0,3.0,-3.0,0.0,0.18817377090454102
90,3.0,-29.0,36.0,0.0,5408.0,-1444.0,-11351.0,-10405.0,3.0,-1.0,7.0,1.0,-1.0,1.0,1.0,3.0,0.19008207321166992
91,3.0,-29.0,36.0,0.0,5408.0,-1444.0,-11351.0,-10405.0,-1.0,2.0,10.0,-12.0,-6.0,-18.0,-3.0,0.0,0.19184637069702148
92,14.0,-24.0,25.0,0.0,5407.0,-1449.0,-11357.0,-10399.0,-1.0,2.0,10.0,-12.0,-6.0,-18.0,-3.0,0.0,0.19364619255065918
93,14.0,-24.0,25.0,0.0,5407.0,-1449.0,-11357.0,-10399.0,0.0,5.0,1.0,-4.0,-1.0,-13.0,0.0,0.0,0.19549202919006348
94,14.0,-24.0,25.0,0.0,5407.0,-1449.0,-11357.0,-10399.0,-8.0,-9.0,-17.0,-7.0,1.0,12.0,5.0,0.0,0.19727849960327148
95,2.0,-15.0,21.0,0.0,5407.0,-1453.0,-11359.0,-10396.0,-8.0,-9.0,-17.0,-7.0,1.0,12.0,5.0,0.0,0.19906234741210938
96,2.0,-15.0,21.0,0.0,5407.0,-1453.0,-11359.0,-10396.0,4.0,14.0,15.0,1.0,-3.0,-3.0,-1.0,1.0,0.20090532302856445
97,2.0,-15.0,21.0,0.0,5407.0,-1453.0,-11359.0,-10396.0,-3.0,-2.0,-1.0,-1.0,1.0,2.0,-2.0,-6.0,0.20272231101989746
98,12.0,-11.0,9.0,0.0,5407.0,-1453.0,-11359.0,-10396.0,-3.0,-2.0,-1.0,-1.0,1.0,2.0,-2.0,-6.0,0.2044963836669922
99,12.0,-11.0,9.0,0.0,5407.0,-1453.0,-11359.0,-10396.0,-9.0,-11.0,-15.0,12.0,-2.0,4.0,-1.0,-2.0,0.20702481269836426
100,12.0,-11.0,9.0,0.0,5407.0,-1453.0,-11359.0,-10396.0,12.0,5.0,6.0,-7.0,3.0,3.0,2.0,7.0,0.20932364463806152
101,4.0,-6.0,10.0,0.0,5406.0,-1453.0,-11360.0,-10396.0,12.0,5.0,6.0,-7.0,3.0,3.0,2.0,7.0,0.2111220359802246
102,4.0,-6.0,10.0,0.0,5406.0,-1453.0,-11360.0,-10396.0,-3.0,1.0,6.0,-4.0,-1.0,-2.0,-3.0,-4.0,0.21297860145568848
103,4.0,-6.0,10.0,0.0,5406.0,-1453.0,-11360.0,-10396.0,-5.0,-7.0,-15.0,-4.0,-3.0,1.0,-1.0,-1.0,0.214766263961792
104,-15.0,-16.0,20.0,0.0,5404.0,-1455.0,-11359.0,-10397.0,-5.0,-7.0,-15.0,-4.0,-3.0,1.0,-1.0,-1.0,0.2165374755859375
105,-15.0,-16.0,20.0,0.0,5404.0,-1455.0,-11359.0,-10397.0,-3.0,-3.0,-1.0,7.0,-1.0,1.0,1.0,0.0,0.21841955184936523
106,-15.0,-16.0,20.0,0.0,5404.0,-1455.0,-11359.0,-10397.0,3.0,0.0,5.0,40.0,4.0,5.0,-7.0,-3.0,0.22023773193359375
107,-9.0,-9.0,32.0,0.0,5404.0,-1458.0,-11359.0,-10397.0,3.0,0.0,5.0,40.0,4.0,5.0,-7.0,-3.0,0.22235703468322754
108,-9.0,-9.0,32.0,0.0,5404.0,-1458.0,-11359.0,-10397.0,-7.0,-7.0,-2.0,3.0,0.0,4.0,2.0,-1.0,0.22451472282409668
109,-9.0,-9.0,32.0,0.0,5404.0,-1458.0,-11359.0,-10397.0,-1.0,2.0,3.0,-5.0,-5.0,-9.0,-3.0,0.0,0.2265324592590332
110,7.0,-14.0,33.0,0.0,5402.0,-1460.0,-11362.0,-10394.0,-1.0,2.0,3.0,-5.0,-5.0,-9.0,-3.0,0.0,0.22836709022521973
111,7.0,-14.0,33.0,0.0,5402.0,-1460.0,-11362.0,-10394.0,-4.0,3.0,-15.0,-25.0,-2.0,1.0,-2.0,1.0,0.230255126953125
112,7.0,-14.0,33.0,0.0,5402.0,-1460.0,-11362.0,-10394.0,0.0,-2.0,11.0,3.0,0.0,0.0,1.0,3.0,0.23205304145812988
113,-25.0,-23.0,29.0,0.0,5399.0,-1465.0,-11362.0,-10395.0,0.0,-2.0,11.0,3.0,0.0,0.0,1.0,3.0,0.23384523391723633
114,-25.0,-23.0,29.0,0.0,5399.0,-1465.0,-11362.0,-10395.0,0.0,1.0,27.0,2.0,-3.0,3.0,4.0,2.0,0.23624968528747559
115,-25.0,-23.0,29.0,0.0,5399.0,-1465.0,-11362.0,-10395.0,2.0,2.0,-8.0,-15.0,-3.0,0.0,1.0,2.0,0.2383136749267578
116,-38.0,-35.0,21.0,0.0,5394.0,-1471.0,-11361.0,-10398.0,2.0,2.0,-8.0,-15.0,-3.0,0.0,1.0,2.0,0.24024701118469238
117,-38.0,-35.0,21.0,0.0,5394.0,-1471.0,-11361.0,-10398.0,3.0,0.0,-3.0,2.0,-1.0,1.0,-7.0,0.0,0.2421283721923828
118,-38.0,-35.0,21.0,0.0,5394.0,-1471.0,-11361.0,-10398.0,-3.0,-5.0,-4.0,1.0,-1.0,-4.0,1.0,-4.0,0.24397540092468262
119,-58.0,-39.0,6.0,0.0,5387.0,-1479.0,-11359.0,-10403.0,-3.0,-5.0,-4.0,1.0,-1.0,-4.0,1.0,-4.0,0.24622559547424316
120,-58.0,-39.0,6.0,0.0,5387.0,-1479.0,-11359.0,-10403.0,4.0,0.0,1.0,11.0,1.0,-3.0,-1.0,-1.0,0.24837446212768555
121,-58.0,-39.0,6.0,0.0,5387.0,-1479.0,-11359.0,-10403.0,-6.0,-4.0,0.0,-11.0,-4.0,-6.0,-2.0,-2.0,0.2502589225769043
122,-69.0,-30.0,-5.0,0.0,5381.0,-1485.0,-11355.0,-10410.0,-6.0,-4.0,0.0,-11.0,-4.0,-6.0,-2.0,-2.0,0.2520289421081543
123,-69.0,-30.0,-5.0,0.0,5381.0,-1485.0,-11355.0,-10410.0,-1.0,3.0,-7.0,1.0,-3.0,-7.0,-1.0,-3.0,0.25388503074645996
124,-69.0,-30.0,-5.0,0.0,5381.0,-1485.0,-11355.0,-10410.0,0.0,0.0,-5.0,4.0,4.0,9.0,-1.0,-1.0,0.2556610107421875
125,-51.0,-14.0,-8.0,0.0,5376.0,-1488.0,-11351.0,-10416.0,0.0,0.0,-5.0,4.0,4.0,9.0,-1.0,-1.0,0.25744032859802246
126,-51.0,-14.0,-8.0,0.0,5376.0,-1488.0,-11351.0,-10416.0,-3.0,-11.0,-4.0,6.0,0.0,1.0,-2.0,-8.0,0.2593080997467041
127,-51.0,-14.0,-8.0,0.0,5376.0,-1488.0,-11351.0,-10416.0,1.0,-1.0,-11.0,-13.0,-1.0,0.0,-1.0,1.0,0.26110005378723145
128,-53.0,-5.0,-6.0,0.0,5374.0,-1491.0,-11346.0,-10422.0,1.0,-1.0,-11.0,-13.0,-1.0,0.0,-1.0,1.0,0.2629683017730713
129,-53.0,-5.0,-6.0,0.0,5374.0,-1491.0,-11346.0,-10422.0,-1.0,-1.0,4.0,-2.0,-1.0,-2.0,1.0,1.0,0.26482319831848145
130,-53.0,-5.0,-6.0,0.0,5374.0,-1491.0,-11346.0,-10422.0,13.0,7.0,8.0,1.0,0.0,4.0,-2.0,0.0,0.26676249504089355
131,-40.0,-1.0,-6.0,0.0,5373.0,-1495.0,-11344.0,-10424.0,13.0,7.0,8.0,1.0,0.0,4.0,-2.0,0.0,0.269603967666626
132,-40.0,-1.0,-6.0,0.0,5373.0,-1495.0,-11344.0,-10424.0,-4.0,-9.0,-7.0,13.0,0.0,-2.0,0.0,0.0,0.27153539657592773
133,-40.0,-1.0,-6.0,0.0,5373.0,-1495.0,-11344.0,-10424.0,-8.0,-4.0,4.0,4.0,1.0,6.0,1.0,-4.0,0.2733187675476074
134,-9.0,-18.0,1.0,0.0,5371.0,-1499.0,-11346.0,-10422.0,-8.0,-4.0,4.0,4.0,1.0,6.0,1.0,-4.0,0.27509140968322754
135,-9.0,-18.0,1.0,0.0,5371.0,-1499.0,-11346.0,-10422.0,6.0,0.0,-3.0,-8.0,-4.0,-7.0,-2.0,0.0,0.27695393562316895
136,-9.0,-18.0,1.0,0.0,5371.0,-1499.0,-11346.0,-10422.0,-5.0,-2.0,-5.0,4.0,1.0,1.0,2.0,0.0,0.27876853942871094
137,7.0,-27.0,16.0,0.0,5365.0,-1503.0,-11354.0,-10416.0,-5.0,-2.0,-5.0,4.0,1.0,1.0,2.0,0.0,0.28055810928344727
138,7.0,-27.0,16.0,0.0,5365.0,-1503.0,-11354.0,-10416.0,-4.0,-6.0,-5.0,-2.0,-1.0,4.0,-1.0,1.0,0.2824254035949707
139,7.0,-27.0,16.0,0.0,5365.0,-1503.0,-11354.0,-10416.0,1.0,4.0,2.0,1.0,-5.0,-9.0,-3.0,1.0,0.2843489646911621
140,-76.0,-32.0,39.0,0.0,5365.0,-1516.0,-11348.0,-10421.0,1.0,4.0,2.0,1.0,-5.0,-9.0,-3.0,1.0,0.28655147552490234
141,-76.0,-32.0,39.0,0.0,5365.0,-1516.0,-11348.0,-10421.0,0.0,4.0,-6.0,-4.0,0.0,3.0,-4.0,-5.0,0.2886831760406494
142,-76.0,-32.0,39.0,0.0,5365.0,-1516.0,-11348.0,-10421.0,-1.0,3.0,5.0,-9.0,-4.0,0.0,0.0,-2.0,0.2905094623565674
143,-20.0,-31.0,58.0,0.0,5369.0,-1531.0,-11348.0,-10417.0,-1.0,3.0,5.0,-9.0,-4.0,0.0,0.0,-2.0,0.2923116683959961
144,-20.0,-31.0,58.0,0.0,5369.0,-1531.0,-11348.0,-10417.0,-2.0,-6.0,-9.0,-5.0,-5.0,1.0,-1.0,1.0,0.2941732406616211
145,-20.0,-31.0,58.0,0.0,5369.0,-1531.0,-11348.0,-10417.0,1.0,-2.0,-9.0,-15.0,-5.0,-2.0,-1.0,0.0,0.2959597110748291
146,3.0,6.0,59.0,0.0,5376.0,-1537.0,-11347.0,-10413.0,1.0,-2.0,-9.0,-15.0,-5.0,-2.0,-1.0,0.0,0.2978537082672119
147,3.0,6.0,59.0,0.0,5376.0,-1537.0,-11347.0,-10413.0,-2.0,1.0,10.0,1.0,1.0,-22.0,-1.0,-4.0,0.30078744888305664
148,3.0,6.0,59.0,0.0,5376.0,-1537.0,-11347.0,-10413.0,0.0,1.0,0.0,-3.0,-2.0,0.0,1.0,2.0,0.3026583194732666
149,-33.0,14.0,54.0,0.0,5384.0,-1545.0,-11342.0,-10414.0,0.0,1.0,0.0,-3.0,-2.0,0.0,1.0,2.0,0.3044569492340088
150,-33.0,14.0,54.0,0.0,5384.0,-1545.0,-11342.0,-10414.0,-2.0,6.0,11.0,-8.0,2.0,0.0,2.0,0.0,0.3063938617706299
151,-33.0,14.0,54.0,0.0,5384.0,-1545.0,-11342.0,-10414.0,-1.0,-1.0,0.0,3.0,2.0,-6.0,-1.0,-1.0,0.30857133865356445
152,0.0,17.0,57.0,0.0,5393.0,-1551.0,-11341.0,-10409.0,-1.0,-1.0,0.0,3.0,2.0,-6.0,-1.0,-1.0,0.3106350898742676
153,0.0,17.0,57.0,0.0,5393.0,-1551.0,-11341.0,-10409.0,-2.0,2.0,-10.0,-1.0,1.0,10.0,0.0,2.0,0.31273913383483887
154,0.0,17.0,57.0,0.0,5393.0,-1551.0,-11341.0,-10409.0,0.0,-3.0,5.0,-8.0,-3.0,-6.0,0.0,0.0,0.31456613540649414
155,10.0,11.0,50.0,0.0,5399.0,-1555.0,-11342.0,-10403.0,0.0,-3.0,5.0,-8.0,-3.0,-6.0,0.0,0.0,0.316342830657959
156,10.0,11.0,50.0,0.0,5399.0,-1555.0,-11342.0,-10403.0,1.0,4.0,9.0,0.0,-1.0,1.0,0.0,2.0,0.3182179927825928
157,10.0,11.0,50.0,0.0,5399.0,-1555.0,-11342.0,-10403.0,1.0,-4.0,3.0,-6.0,-2.0,-4.0,-3.0,-2.0,0.3200230598449707
158,23.0,20.0,33.0,0.0,5403.0,-1555.0,-11347.0,-10397.0,1.0,-4.0,3.0,-6.0,-2.0,-4.0,-3.0,-2.0,0.3218808174133301
159,23.0,20.0,33.0,0.0,5403.0,-1555.0,-11347.0,-10397.0,-1.0,1.0,6.0,2.0,0.0,7.0,1.0,-2.0,0.3238558769226074
160,23.0,20.0,33.0,0.0,5403.0,-1555.0,-11347.0,-10397.0,-5.0,6.0,15.0,5.0,2.0,-12.0,-3.0,-3.0,0.3257474899291992
161,18.0,30.0,19.0,0.0,5408.0,-1553.0,-11349.0,-10392.0,-5.0,6.0,15.0,5.0,2.0,-12.0,-3.0,-3.0,0.32757091522216797
162,18.0,30.0,19.0,0.0,5408.0,-1553.0,-11349.0,-10392.0,-5.0,-9.0,-16.0,-3.0,1.0,3.0,-1.0,-3.0,0.33019542694091797
163,18.0,30.0,19.0,0.0,5408.0,-1553.0,-11349.0,-10392.0,-2.0,4.0,-7.0,-6.0,-3.0,7.0,6.0,9.0,0.3325941562652588
164,44.0,25.0,6.0,0.0,5408.0,-1545.0,-11357.0,-10384.0,-2.0,4.0,-7.0,-6.0,-3.0,7.0,6.0,9.0,0.3343956470489502
165,44.0,25.0,6.0,0.0,5408.0,-1545.0,-11357.0,-10384.0,3.0,-3.0,4.0,4.0,0.0,-8.0,-3.0,0.0,0.33632445335388184
166,44.0,25.0,6.0,0.0,5408.0,-1545.0,-11357.0,-10384.0,-2.0,-7.0,-4.0,4.0,-3.0,-3.0,-5.0,-4.0,0.33811259269714355
167,46.0,16.0,-8.0,0.0,5403.0,-1536.0,-11368.0,-10377.0,-2.0,-7.0,-4.0,4.0,-3.0,-3.0,-5.0,-4.0,0.3399081230163574
168,46.0,16.0,-8.0,0.0,5403.0,-1536.0,-11368.0,-10377.0,4.0,5.0,-10.0,-16.0,-1.0,3.0,1.0,3.0,0.3418130874633789
169,46.0,16.0,-8.0,0.0,5403.0,-1536.0,-11368.0,-10377.0,0.0,-4.0,-11.0,3.0,1.0,7.0,2.0,1.0,0.343703031539917
170,16.0,14.0,-12.0,0.0,5400.0,-1529.0,-11371.0,-10375.0,0.0,-4.0,-11.0,3.0,1.0,7.0,2.0,1.0,0.34555530548095703
171,16.0,14.0,-12.0,0.0,5400.0,-1529.0,-11371.0,-10375.0,-1.0,-2.0,4.0,3.0,-1.0,-14.0,-3.0,-4.0,0.3477447032928467
172,16.0,14.0,-12.0,0.0,5400.0,-1529.0,-11371.0,-10375.0,2.0,-5.0,-3.0,8.0,0.0,6.0,1.0,-4.0,0.34984445571899414
173,28.0,1.0,-17.0,0.0,5395.0,-1522.0,-11377.0,-10372.0,2.0,-5.0,-3.0,8.0,0.0,6.0,1.0,-4.0,0.35190725326538086
174,28.0,1.0,-17.0,0.0,5395.0,-1522.0,-11377.0,-10372.0,5.0,3.0,-3.0,-1.0,0.0,-1.0,1.0,3.0,0.3538072109222412
175,28.0,1.0,-17.0,0.0,5395.0,-1522.0,-11377.0,-10372.0,0.0,0.0,-2.0,-11.0,-1.0,5.0,0.0,-2.0,0.35565662384033203
176,28.0,1.0,-17.0,0.0,5395.0,-1522.0,-11377.0,-10372.0,-1.0,0.0,-7.0,-8.0,-4.0,0.0,-1.0,0.0,0.35745835304260254
177,28.0,1.0,-17.0,0.0,5395.0,-1522.0,-11377.0,-10372.0,-2.0,2.0,1.0,12.0,0.0,-3.0,-2.0,0.0,0.35962748527526855
178,-68.0,64.0,52.0,0.0,5436.0,-1530.0,-11284.0,-10451.0,-2.0,2.0,1.0,12.0,0.0,-3.0,-2.0,0.0,0.36183953285217285
179,-68.0,64.0,52.0,0.0,5436.0,-1530.0,-11284.0,-10451.0,1.0,-2.0,-7.0,-47.0,-1.0,-1.0,0.0,2.0,0.36698341369628906
180,-68.0,64.0,52.0,0.0,5436.0,-1530.0,-11284.0,-10451.0,4.0,6.0,14.0,1.0,-1.0,1.0,-2.0,1.0,0.3688209056854248
181,-91.0,46.0,46.0,0.0,5441.0,-1532.0,-11273.0,-10460.0,4.0,6.0,14.0,1.0,-1.0,1.0,-2.0,1.0,0.3709135055541992
182,-91.0,46.0,46.0,0.0,5441.0,-1532.0,-11273.0,-10460.0,0.0,-2.0,4.0,16.0,-3.0,-11.0,-3.0,1.0,0.3732151985168457
183,-91.0,46.0,46.0,0.0,5441.0,-1532.0,-11273.0,-10460.0,-3.0,-1.0,7.0,19.0,-1.0,-5.0,-1.0,-2.0,0.40351414680480957
184,-105.0,34.0,50.0,0.0,5443.0,-1536.0,-11263.0,-10470.0,-3.0,-1.0,7.0,19.0,-1.0,-5.0,-1.0,-2.0,0.43743133544921875
185,-105.0,34.0,50.0,0.0,5443.0,-1536.0,-11263.0,-10470.0,0.0,1.0,6.0,11.0,0.0,3.0,0.0,1.0,0.4427933692932129
186,-105.0,34.0,50.0,0.0,5443.0,-1536.0,-11263.0,-10470.0,1.0,0.0,-5.0,13.0,2.0,2.0,1.0,0.0,0.4464244842529297
187,-129.0,27.0,49.0,0.0,5443.0,-1542.0,-11251.0,-10481.0,1.0,0.0,-5.0,13.0,2.0,2.0,1.0,0.0,0.44849514961242676
188,-129.0,27.0,49.0,0.0,5443.0,-1542.0,-11251.0,-10481.0,-1.0,-2.0,-4.0,30.0,1.0,-2.0,0.0,-1.0,0.4504392147064209
189,-129.0,27.0,49.0,0.0,5443.0,-1542.0,-11251.0,-10481.0,-1.0,-4.0,-10.0,5.0,-1.0,-3.0,-2.0,-1.0,0.452988862991333
190,-179.0,19.0,47.0,0.0,5443.0,-1564.0,-11214.0,-10518.0,-1.0,-4.0,-10.0,5.0,-1.0,-3.0,-2.0,-1.0,0.4550356864929199
191,-179.0,19.0,47.0,0.0,5443.0,-1564.0,-11214.0,-10518.0,3.0,16.0,6.0,12.0,2.0,-1.0,-1.0,0.0,0.4569830894470215
192,-179.0,19.0,47.0,0.0,5443.0,-1564.0,-11214.0,-10518.0,1.0,3.0,-9.0,-13.0,2.0,2.0,-1.0,1.0,0.459291934967041
193,-172.0,29.0,52.0,0.0,5447.0,-1576.0,-11194.0,-10535.0,1.0,3.0,-9.0,-13.0,2.0,2.0,-1.0,1.0,0.46215057373046875
194,-172.0,29.0,52.0,0.0,5447.0,-1576.0,-11194.0,-10535.0,-8.0,-14.0,-13.0,-12.0,-5.0,1.0,0.0,-4.0,0.4642183780670166
195,-172.0,29.0,52.0,0.0,5447.0,-1576.0,-11194.0,-10535.0,-3.0,4.0,16.0,16.0,0.0,2.0,-1.0,0.0,0.4869508743286133
196,-154.0,22.0,53.0,0.0,5451.0,-1589.0,-11177.0,-10550.0,-3.0,4.0,16.0,16.0,0.0,2.0,-1.0,0.0,0.49039316177368164
197,-154.0,22.0,53.0,0.0,5451.0,-1589.0,-11177.0,-10550.0,4.0,-1.0,0.0,19.0,1.0,-3.0,-1.0,2.0,0.49404478073120117
198,-154.0,22.0,53.0,0.0,5451.0,-1589.0,-11177.0,-10550.0,-5.0,-7.0,-6.0,4.0,-2.0,-2.0,-2.0,-1.0,0.5018081665039062
199,-187.0,17.0,37.0,0.0,5454.0,-1604.0,-11157.0,-10567.0,-5.0,-7.0,-6.0,4.0,-2.0,-2.0,-2.0,-1.0,0.5040879249572754
200,-187.0,17.0,37.0,0.0,5454.0,-1604.0,-11157.0,-10567.0,-1.0,-4.0,-2.0,1.0,1.0,1.0,-1.0,-3.0,0.5169389247894287
201,-187.0,17.0,37.0,0.0,5454.0,-1604.0,-11157.0,-10567.0,3.0,-2.0,2.0,-1.0,1.0,-2.0,-1.0,-3.0,0.5202574729919434
202,-161.0,16.0,26.0,0.0,5457.0,-1618.0,-11139.0,-10581.0,3.0,-2.0,2.0,-1.0,1.0,-2.0,-1.0,-3.0,0.5236656665802002
203,-161.0,16.0,26.0,0.0,5457.0,-1618.0,-11139.0,-10581.0,3.0,-1.0,-4.0,-19.0,-1.0,3.0,0.0,0.0,0.526810884475708
204,-161.0,16.0,26.0,0.0,5457.0,-1618.0,-11139.0,-10581.0,-1.0,3.0,3.0,-10.0,-1.0,-9.0,-3.0,-1.0,0.5553159713745117
205,-110.0,7.0,8.0,0.0,5459.0,-1629.0,-11129.0,-10590.0,-1.0,3.0,3.0,-10.0,-1.0,-9.0,-3.0,-1.0,0.5599226951599121
206,-110.0,7.0,8.0,0.0,5459.0,-1629.0,-11129.0,-10590.0,-5.0,-8.0,2.0,29.0,2.0,0.0,2.0,2.0,0.5634806156158447
207,-110.0,7.0,8.0,0.0,5459.0,-1629.0,-11129.0,-10590.0,6.0,7.0,11.0,-11.0,-1.0,8.0,4.0,2.0,0.5655758380889893
208,-91.0,23.0,-6.0,0.0,5460.0,-1634.0,-11120.0,-10598.0,6.0,7.0,11.0,-11.0,-1.0,8.0,4.0,2.0,0.5675075054168701
209,-91.0,23.0,-6.0,0.0,5460.0,-1634.0,-11120.0,-10598.0,-4.0,-3.0,0.0,-5.0,-3.0,2.0,-1.0,-1.0,0.5756049156188965
210,-91.0,23.0,-6.0,0.0,5460.0,-1634.0,-11120.0,-10598.0,-2.0,5.0,-4.0,-10.0,0.0,-2.0,-2.0,-3.0,0.5782256126403809
211,-57.0,20.0,-8.0,0.0,5461.0,-1636.0,-11114.0,-10603.0,-2.0,5.0,-4.0,-10.0,0.0,-2.0,-2.0,-3.0,0.5830938816070557
212,-57.0,20.0,-8.0,0.0,5461.0,-1636.0,-11114.0,-10603.0,2.0,5.0,-9.0,-9.0,-8.0,-10.0,-2.0,-2.0,0.6082615852355957
213,-57.0,20.0,-8.0,0.0,5461.0,-1636.0,-11114.0,-10603.0,4.0,-2.0,12.0,14.0,1.0,-3.0,-3.0,1.0,0.6123194694519043
214,-34.0,28.0,-17.0,0.0,5461.0,-1633.0,-11110.0,-10608.0,4.0,-2.0,12.0,14.0,1.0,-3.0,-3.0,1.0,0.6158082485198975
215,-34.0,28.0,-17.0,0.0,5461.0,-1633.0,-11110.0,-10608.0,-1.0,2.0,14.0,-9.0,-2.0,1.0,1.0,1.0,0.618971586227417
216,2.0,21.0,-23.0,0.0,5458.0,-1625.0,-11113.0,-10608.0,-1.0,2.0,14.0,-9.0,-2.0,1.0,1.0,1.0,0.6207611560821533
217,2.0,21.0,-23.0,0.0,5458.0,-1625.0,-11113.0,-10608.0,-11.0,-11.0,-17.0,-44.0,-2.0,-1.0,-3.0,-3.0,0.6371023654937744
218,2.0,21.0,-23.0,0.0,5458.0,-1625.0,-11113.0,-10608.0,4.0,7.0,5.0,-3.0,-2.0,3.0,-2.0,-1.0,0.6395506858825684
219,9.0,16.0,-29.0,0.0,5454.0,-1617.0,-11116.0,-10608.0,4.0,7.0,5.0,-3.0,-2.0,3.0,-2.0,-1.0,0.6416175365447998
220,9.0,16.0,-29.0,0.0,5454.0,-1617.0,-11116.0,-10608.0,2.0,-7.0,2.0,23.0,2.0,7.0,2.0,1.0,0.6434957981109619
221,9.0,16.0,-29.0,0.0,5454.0,-1617.0,-11116.0,-10608.0,2.0,-2.0,-2.0,-18.0,-3.0,-2.0,-2.0,-1.0,0.6453194618225098
222,3.0,-9.0,-35.0,0.0,5447.0,-1613.0,-11119.0,-10608.0,2.0,-2.0,-2.0,-18.0,-3.0,-2.0,-2.0,-1.0,0.6568667888641357
223,3.0,-9.0,-35.0,0.0,5447.0,-1613.0,-11119.0,-10608.0,1.0,0.0,9.0,3.0,-1.0,1.0,0.0,-2.0,0.692603588104248
224,3.0,-9.0,-35.0,0.0,5447.0,-1613.0,-11119.0,-10608.0,-4.0,-4.0,-5.0,2.0,1.0,-1.0,0.0,-3.0,0.695997953414917
225,10.0,-2.0,-36.0,0.0,5441.0,-1607.0,-11123.0,-10609.0,-4.0,-4.0,-5.0,2.0,1.0,-1.0,0.0,-3.0,0.6990065574645996
226,10.0,-2.0,-36.0,0.0,5441.0,-1607.0,-11123.0,-10609.0,1.0,-1.0,-27.0,-21.0,1.0,3.0,2.0,-2.0,0.7020611763000488
227,10.0,-2.0,-36.0,0.0,5441.0,-1607.0,-11123.0,-10609.0,6.0,4.0,-1.0,2.0,2.0,-6.0,-2.0,0.0,0.704176664352417
228,3.0,-11.0,-41.0,0.0,5434.0,-1602.0,-11127.0,-10609.0,6.0,4.0,-1.0,2.0,2.0,-6.0,-2.0,0.0,0.7059962749481201
229,3.0,-11.0,-41.0,0.0,5434.0,-1602.0,-11127.0,-10609.0,-4.0,-5.0,-19.0,-10.0,-7.0,-4.0,-1.0,-1.0,0.7103912830352783
230,3.0,-11.0,-41.0,0.0,5434.0,-1602.0,-11127.0,-10609.0,3.0,6.0,13.0,-5.0,1.0,-1.0,4.0,2.0,0.7125627994537354
231,8.0,-21.0,-47.0,0.0,5425.0,-1598.0,-11132.0,-10610.0,3.0,6.0,13.0,-5.0,1.0,-1.0,4.0,2.0,0.7170913219451904
232,8.0,-21.0,-47.0,0.0,5425.0,-1598.0,-11132.0,-10610.0,-3.0,-2.0,-10.0,-2.0,-2.0,0.0,1.0,0.0,0.7325015068054199
233,8.0,-21.0,-47.0,0.0,5425.0,-1598.0,-11132.0,-10610.0,1.0,3.0,-17.0,-11.0,2.0,8.0,1.0,4.0,0.7345845699310303
234,-8.0,-9.0,-31.0,0.0,5419.0,-1594.0,-11133.0,-10612.0,1.0,3.0,-17.0,-11.0,2.0,8.0,1.0,4.0,0.7402458190917969
235,-8.0,-9.0,-31.0,0.0,5419.0,-1594.0,-11133.0,-10612.0,-3.0,1.0,4.0,0.0,-3.0,-5.0,-2.0,-4.0,0.748448371887207
236,-8.0,-9.0,-31.0,0.0,5419.0,-1594.0,-11133.0,-10612.0,-7.0,-6.0,-9.0,1.0,-1.0,-7.0,-3.0,-3.0,0.7510063648223877
237,1.0,-3.0,-9.0,0.0,5419.0,-1594.0,-11133.0,-10612.0,-7.0,-6.0,-9.0,1.0,-1.0,-7.0,-3.0,-3.0,0.7644386291503906
238,1.0,-3.0,-9.0,0.0,5419.0,-1594.0,-11133.0,-10612.0,11.0,11.0,18.0,2.0,-1.0,-1.0,-1.0,5.0,0.7683529853820801
239,1.0,-3.0,-9.0,0.0,5419.0,-1594.0,-11133.0,-10612.0,-4.0,-7.0,3.0,3.0,-1.0,-6.0,-1.0,-2.0,0.7720425128936768
240,13.0,-35.0,14.0,0.0,5414.0,-1597.0,-11138.0,-10609.0,-4.0,-7.0,3.0,3.0,-1.0,-6.0,-1.0,-2.0,0.7778775691986084
241,13.0,-35.0,14.0,0.0,5414.0,-1597.0,-11138.0,-10609.0,-11.0,-8.0,-1.0,13.0,-1.0,0.0,1.0,-1.0,0.8024711608886719
242,13.0,-35.0,14.0,0.0,5414.0,-1597.0,-11138.0,-10609.0,-1.0,-3.0,5.0,17.0,0.0,9.0,2.0,-1.0,0.8063521385192871
243,-10.0,-31.0,33.0,0.0,5414.0,-1604.0,-11137.0,-10608.0,-1.0,-3.0,5.0,17.0,0.0,9.0,2.0,-1.0,0.809328556060791
244,-10.0,-31.0,33.0,0.0,5414.0,-1604.0,-11137.0,-10608.0,-2.0,-2.0,2.0,-9.0,-7.0,-15.0,-5.0,-3.0,0.8124523162841797
245,-10.0,-31.0,33.0,0.0,5414.0,-1604.0,-11137.0,-10608.0,-4.0,-4.0,-22.0,-12.0,-2.0,-2.0,-1.0,-2.0,0.8149607181549072
246,-28.0,-14.0,19.0,0.0,5413.0,-1609.0,-11136.0,-10610.0,-4.0,-4.0,-22.0,-12.0,-2.0,-2.0,-1.0,-2.0,0.8317265510559082
247,-28.0,-14.0,19.0,0.0,5413.0,-1609.0,-11136.0,-10610.0,-3.0,4.0,-8.0,-1.0,1.0,5.0,1.0,1.0,0.8350648880004883
248,-28.0,-14.0,19.0,0.0,5413.0,-1609.0,-11136.0,-10610.0,2.0,-1.0,2.0,-1.0,4.0,-1.0,1.0,3.0,0.838231086730957
249,-22.0,-20.0,28.0,0.0,5413.0,-1616.0,-11133.0,-10611.0,2.0,-1.0,2.0,-1.0,4.0,-1.0,1.0,3.0,0.8431375026702881
250,-22.0,-20.0,28.0,0.0,5413.0,-1616.0,-11133.0,-10611.0,1.0,1.0,7.0,-8.0,-2.0,-1.0,0.0,0.0,0.8458871841430664
251,-22.0,-20.0,28.0,0.0,5413.0,-1616.0,-11133.0,-10611.0,-1.0,-3.0,12.0,-10.0,-3.0,3.0,-1.0,-2.0,0.8476758003234863
252,24.0,-8.0,36.0,0.0,5416.0,-1620.0,-11137.0,-10604.0,-1.0,-3.0,12.0,-10.0,-3.0,3.0,-1.0,-2.0,0.8588886260986328
253,24.0,-8.0,36.0,0.0,5416.0,-1620.0,-11137.0,-10604.0,-2.0,-5.0,4.0,13.0,6.0,9.0,-1.0,0.0,0.8683915138244629
254,24.0,-8.0,36.0,0.0,5416.0,-1620.0,-11137.0,-10604.0,-1.0,2.0,-7.0,0.0,-1.0,-3.0,-2.0,-2.0,0.8702366352081299
255,-15.0,16.0,32.0,0.0,5421.0,-1622.0,-11134.0,-10605.0,-1.0,2.0,-7.0,0.0,-1.0,-3.0,-2.0,-2.0,0.8842113018035889
256,-15.0,16.0,32.0,0.0,5421.0,-1622.0,-11134.0,-10605.0,-1.0,4.0,7.0,4.0,-2.0,1.0,1.0,-1.0,0.887920618057251
257,-15.0,16.0,32.0,0.0,5421.0,-1622.0,-11134.0,-10605.0,-2.0,4.0,1.0,-2.0,2.0,1.0,1.0,-1.0,0.8913004398345947
258,20.0,21.0,12.0,0.0,5426.0,-1620.0,-11135.0,-10602.0,-2.0,4.0,1.0,-2.0,2.0,1.0,1.0,-1.0,0.9142332077026367
259,20.0,21.0,12.0,0.0,5426.0,-1620.0,-11135.0,-10602.0,5.0,8.0,15.0,6.0,-3.0,2.0,0.0,1.0,0.9181063175201416
260,20.0,21.0,12.0,0.0,5426.0,-1620.0,-11135.0,-10602.0,-2.0,-8.0,2.0,8.0,-4.0,1.0,-1.0,0.0,0.9317069053649902
261,69.0,23.0,-8.0,0.0,5424.0,-1608.0,-11144.0,-10595.0,-2.0,-8.0,2.0,8.0,-4.0,1.0,-1.0,0.0,0.9347972869873047
262,69.0,23.0,-8.0,0.0,5424.0,-1608.0,-11144.0,-10595.0,1.0,-6.0,-7.0,-2.0,3.0,1.0,-1.0,1.0,0.9379010200500488
263,69.0,23.0,-8.0,0.0,5424.0,-1608.0,-11144.0,-10595.0,-1.0,0.0,2.0,-5.0,0.0,0.0,1.0,-1.0,0.940885066986084
264,-4.0,12.0,-13.0,0.0,5423.0,-1607.0,-11144.0,-10596.0,-1.0,0.0,2.0,-5.0,0.0,0.0,1.0,-1.0,0.9432182312011719
265,-4.0,12.0,-13.0,0.0,5423.0,-1607.0,-11144.0,-10596.0,-1.0,-3.0,1.0,20.0,0.0,-19.0,-3.0,-2.0,0.9450864791870117
266,-4.0,12.0,-13.0,0.0,5423.0,-1607.0,-11144.0,-10596.0,-2.0,2.0,7.0,0.0,-2.0,1.0,-3.0,-3.0,0.9472284317016602
267,22.0,24.0,-21.0,0.0,5421.0,-1597.0,-11147.0,-10595.0,-2.0,2.0,7.0,0.0,-2.0,1.0,-3.0,-3.0,0.9663212299346924
268,22.0,24.0,-21.0,0.0,5421.0,-1597.0,-11147.0,-10595.0,-1.0,-4.0,-9.0,-7.0,-1.0,3.0,0.0,-1.0,0.9694344997406006
269,22.0,24.0,-21.0,0.0,5421.0,-1597.0,-11147.0,-10595.0,-1.0,-1.0,2.0,0.0,-2.0,-6.0,0.0,-2.0,0.9724419116973877
270,6.0,29.0,-33.0,0.0,5419.0,-1587.0,-11146.0,-10598.0,-1.0,-1.0,2.0,0.0,-2.0,-6.0,0.0,-2.0,1.0060369968414307
271,6.0,29.0,-33.0,0.0,5419.0,-1587.0,-11146.0,-10598.0,-3.0,-7.0,-4.0,-1.0,-4.0,-4.0,-3.0,-2.0,1.0092928409576416
272,6.0,29.0,-33.0,0.0,5419.0,-1587.0,-11146.0,-10598.0,0.0,2.0,-8.0,-4.0,4.0,3.0,2.0,2.0,1.0124824047088623
273,21.0,22.0,-44.0,0.0,5417.0,-1576.0,-11146.0,-10601.0,0.0,2.0,-8.0,-4.0,4.0,3.0,2.0,2.0,1.0167710781097412
274,21.0,22.0,-44.0,0.0,5417.0,-1576.0,-11146.0,-10601.0,-2.0,-3.0,-12.0,-8.0,1.0,11.0,-1.0,-2.0,1.01993727684021
275,21.0,22.0,-44.0,0.0,5417.0,-1576.0,-11146.0,-10601.0,-1.0,3.0,9.0,23.0,-1.0,-9.0,-2.0,0.0,1.0217535495758057
276,6.0,20.0,-52.0,0.0,5412.0,-1564.0,-11146.0,-10606.0,-1.0,3.0,9.0,23.0,-1.0,-9.0,-2.0,0.0,1.0256857872009277
277,6.0,20.0,-52.0,0.0,5412.0,-1564.0,-11146.0,-10606.0,-2.0,1.0,-1.0,-29.0,-1.0,10.0,3.0,4.0,1.0275957584381104
278,6.0,20.0,-52.0,0.0,5412.0,-1564.0,-11146.0,-10606.0,-2.0,3.0,10.0,1.0,-3.0,-14.0,-4.0,-2.0,1.0294432640075684
279,-24.0,17.0,-75.0,0.0,5403.0,-1552.0,-11142.0,-10616.0,-2.0,3.0,10.0,1.0,-3.0,-14.0,-4.0,-2.0,1.039534091949463
280,-24.0,17.0,-75.0,0.0,5403.0,-1552.0,-11142.0,-10616.0,-3.0,-5.0,-7.0,4.0,1.0,-3.0,-1.0,-1.0,1.04852294921875
281,-24.0,17.0,-75.0,0.0,5403.0,-1552.0,-11142.0,-10616.0,-4.0,-9.0,-17.0,-6.0,-3.0,-3.0,-1.0,-2.0,1.0515034198760986
282,-22.0,5.0,-72.0,0.0,5394.0,-1540.0,-11139.0,-10626.0,-4.0,-9.0,-17.0,-6.0,-3.0,-3.0,-1.0,-2.0,1.0542781352996826
283,-22.0,5.0,-72.0,0.0,5394.0,-1540.0,-11139.0,-10626.0,0.0,3.0,6.0,4.0,-1.0,0.0,-1.0,-4.0,1.0629196166992188
284,-22.0,5.0,-72.0,0.0,5394.0,-1540.0,-11139.0,-10626.0,-4.0,-10.0,-20.0,-10.0,-1.0,1.0,0.0,-2.0,1.0647039413452148
285,-58.0,3.0,-40.0,0.0,5389.0,-1538.0,-11132.0,-10636.0,-4.0,-10.0,-20.0,-10.0,-1.0,1.0,0.0,-2.0,1.0869791507720947
286,-58.0,3.0,-40.0,0.0,5389.0,-1538.0,-11132.0,-10636.0,7.0,7.0,13.0,8.0,2.0,-2.0,-2.0,2.0,1.090369701385498
287,-58.0,3.0,-40.0,0.0,5389.0,-1538.0,-11132.0,-10636.0,3.0,1.0,5.0,3.0,0.0,4.0,0.0,0.0,1.0924575328826904
288,-74.0,15.0,12.0,0.0,5395.0,-1545.0,-11119.0,-10646.0,3.0,1.0,5.0,3.0,0.0,4.0,0.0,0.0,1.1089088916778564
289,-74.0,15.0,12.0,0.0,5395.0,-1545.0,-11119.0,-10646.0,-7.0,0.0,-11.0,7.0,0.0,-10.0,-1.0,-2.0,1.1119365692138672
290,-74.0,15.0,12.0,0.0,5395.0,-1545.0,-11119.0,-10646.0,-11.0,-6.0,-19.0,-25.0,-5.0,2.0,-1.0,-1.0,1.1156411170959473
291,-38.0,4.0,33.0,0.0,5405.0,-1556.0,-11110.0,-10648.0,-11.0,-6.0,-19.0,-25.0,-5.0,2.0,-1.0,-1.0,1.119225263595581
292,-38.0,4.0,33.0,0.0,5405.0,-1556.0,-11110.0,-10648.0,-1.0,-4.0,-5.0,1.0,1.0,4.0,1.0,0.0,1.1240439414978027
293,-38.0,4.0,33.0,0.0,5405.0,-1556.0,-11110.0,-10648.0,0.0,1.0,-7.0,-20.0,2.0,2.0,1.0,0.0,1.1268272399902344
294,12.0,-7.0,23.0,0.0,5412.0,-1561.0,-11105.0,-10649.0,0.0,1.0,-7.0,-20.0,2.0,2.0,1.0,0.0,1.1369123458862305
295,12.0,-7.0,23.0,0.0,5412.0,-1561.0,-11105.0,-10649.0,2.0,4.0,1.0,-8.0,0.0,-1.0,1.0,2.0,1.1458556652069092
296,12.0,-7.0,23.0,0.0,5412.0,-1561.0,-11105.0,-10649.0,7.0,4.0,10.0,20.0,-1.0,-3.0,-5.0,-2.0,1.1612002849578857
297,10.0,-4.0,-9.0,0.0,5412.0,-1560.0,-11104.0,-10650.0,7.0,4.0,10.0,20.0,-1.0,-3.0,-5.0,-2.0,1.165222406387329
298,10.0,-4.0,-9.0,0.0,5412.0,-1560.0,-11104.0,-10650.0,-7.0,-8.0,-7.0,10.0,3.0,10.0,-1.0,-1.0,1.1689050197601318
299,10.0,-4.0,-9.0,0.0,5412.0,-1560.0,-11104.0,-10650.0,3.0,-3.0,-9.0,-8.0,-4.0,-9.0,-4.0,-1.0,1.171525478363037
300,-64.0,16.0,-60.0,0.0,5404.0,-1546.0,-11089.0,-10672.0,3.0,-3.0,-9.0,-8.0,-4.0,-9.0,-4.0,-1.0,1.1742477416992188
301,-64.0,16.0,-60.0,0.0,5404.0,-1546.0,-11089.0,-10672.0,9.0,10.0,15.0,-2.0,-2.0,-4.0,1.0,-2.0,1.18281888961792
302,-64.0,16.0,-60.0,0.0,5404.0,-1546.0,-11089.0,-10672.0,3.0,0.0,-9.0,-4.0,-1.0,-4.0,-2.0,0.0,1.1846923828125
303,-86.0,62.0,-131.0,0.0,5392.0,-1518.0,-11066.0,-10706.0,3.0,0.0,-9.0,-4.0,-1.0,-4.0,-2.0,0.0,1.2068941593170166
304,-86.0,62.0,-131.0,0.0,5392.0,-1518.0,-11066.0,-10706.0,-2.0,-3.0,1.0,-1.0,-2.0,-7.0,-2.0,-2.0,1.2105534076690674
305,-86.0,62.0,-131.0,0.0,5392.0,-1518.0,-11066.0,-10706.0,3.0,2.0,1.0,-5.0,3.0,11.0,2.0,2.0,1.2139332294464111
306,-104.0,120.0,-214.0,0.0,5376.0,-1467.0,-11035.0,-10753.0,3.0,2.0,1.0,-5.0,3.0,11.0,2.0,2.0,1.244800329208374
307,-104.0,120.0,-214.0,0.0,5376.0,-1467.0,-11035.0,-10753.0,-4.0,-1.0,-15.0,16.0,6.0,-10.0,-3.0,1.0,1.2476935386657715
308,-104.0,120.0,-214.0,0.0,5376.0,-1467.0,-11035.0,-10753.0,15.0,12.0,14.0,3.0,0.0,12.0,4.0,8.0,1.2507917881011963
309,-177.0,206.0,-311.0,0.0,5357.0,-1398.0,-10988.0,-10820.0,15.0,12.0,14.0,3.0,0.0,12.0,4.0,8.0,1.2542939186096191
310,-177.0,206.0,-311.0,0.0,5357.0,-1398.0,-10988.0,-10820.0,-3.0,-3.0,4.0,-17.0,-3.0,-6.0,1.0,2.0,1.274735689163208
311,-177.0,206.0,-311.0,0.0,5357.0,-1398.0,-10988.0,-10820.0,-6.0,-8.0,-2.0,6.0,-3.0,-6.0,-6.0,-8.0,1.2780234813690186
312,-284.0,273.0,-466.0,0.0,5327.0,-1302.0,-10916.0,-10919.0,-6.0,-8.0,-2.0,6.0,-3.0,-6.0,-6.0,-8.0,1.2812280654907227
313,-284.0,273.0,-466.0,0.0,5327.0,-1302.0,-10916.0,-10919.0,-5.0,1.0,9.0,-2.0,-3.0,11.0,2.0,-7.0,1.2847425937652588
314,-284.0,273.0,-466.0,0.0,5327.0,-1302.0,-10916.0,-10919.0,0.0,0.0,1.0,3.0,-5.0,-23.0,-6.0,1.0,1.2880775928497314
315,-437.0,352.0,-627.0,0.0,5282.0,-1184.0,-10821.0,-11048.0,0.0,0.0,1.0,3.0,-5.0,-23.0,-6.0,1.0,1.2900822162628174
316,-437.0,352.0,-627.0,0.0,5282.0,-1184.0,-10821.0,-11048.0,-17.0,-19.0,-11.0,6.0,1.0,-2.0,-3.0,-6.0,1.296081781387329
317,-437.0,352.0,-627.0,0.0,5282.0,-1184.0,-10821.0,-11048.0,-15.0,0.0,0.0,-10.0,-4.0,3.0,3.0,-2.0,1.2982673645019531
318,-542.0,475.0,-843.0,0.0,5232.0,-1043.0,-10705.0,-11198.0,-15.0,0.0,0.0,-10.0,-4.0,3.0,3.0,-2.0,1.3001739978790283
319,-542.0,475.0,-843.0,0.0,5232.0,-1043.0,-10705.0,-11198.0,-8.0,-16.0,-12.0,2.0,-3.0,1.0,-3.0,-3.0,1.3021001815795898
320,-542.0,475.0,-843.0,0.0,5232.0,-1043.0,-10705.0,-11198.0,-12.0,-4.0,22.0,22.0,1.0,5.0,1.0,1.0,1.3039345741271973
321,-651.0,658.0,-1174.0,0.0,5156.0,-842.0,-10568.0,-11379.0,-12.0,-4.0,22.0,22.0,1.0,5.0,1.0,1.0,1.358095645904541
322,-651.0,658.0,-1174.0,0.0,5156.0,-842.0,-10568.0,-11379.0,16.0,19.0,29.0,12.0,4.0,-11.0,0.0,4.0,1.3616855144500732
323,-651.0,658.0,-1174.0,0.0,5156.0,-842.0,-10568.0,-11379.0,0.0,-16.0,-16.0,3.0,1.0,-11.0,-4.0,-3.0,1.365105152130127
324,-833.0,786.0,-1520.0,0.0,5039.0,-588.0,-10403.0,-11597.0,0.0,-16.0,-16.0,3.0,1.0,-11.0,-4.0,-3.0,1.3687965869903564
325,-833.0,786.0,-1520.0,0.0,5039.0,-588.0,-10403.0,-11597.0,6.0,10.0,5.0,-3.0,-2.0,5.0,-1.0,9.0,1.372173547744751
326,-1049.0,891.0,-1798.0,0.0,4902.0,-323.0,-10225.0,-11823.0,6.0,10.0,5.0,-3.0,-2.0,5.0,-1.0,9.0,1.3743054866790771
327,-1049.0,891.0,-1798.0,0.0,4902.0,-323.0,-10225.0,-11823.0,-10.0,-18.0,-30.0,-21.0,-5.0,-2.0,-3.0,-5.0,1.376593828201294
328,-1049.0,891.0,-1798.0,0.0,4902.0,-323.0,-10225.0,-11823.0,10.0,0.0,-11.0,-13.0,2.0,3.0,-8.0,-10.0,1.3786969184875488
329,-1324.0,976.0,-2058.0,0.0,4735.0,-31.0,-10001.0,-12084.0,10.0,0.0,-11.0,-13.0,2.0,3.0,-8.0,-10.0,1.3924977779388428
330,-1324.0,976.0,-2058.0,0.0,4735.0,-31.0,-10001.0,-12084.0,-4.0,-11.0,-16.0,-3.0,-3.0,2.0,2.0,4.0,1.4102578163146973
331,-1324.0,976.0,-2058.0,0.0,4735.0,-31.0,-10001.0,-12084.0,-16.0,8.0,0.0,12.0,4.0,0.0,-1.0,-1.0,1.4132680892944336
332,-1692.0,1083.0,-2227.0,0.0,4550.0,278.0,-9714.0,-12381.0,-16.0,8.0,0.0,12.0,4.0,0.0,-1.0,-1.0,1.417231798171997
333,-1692.0,1083.0,-2227.0,0.0,4550.0,278.0,-9714.0,-12381.0,19.0,9.0,4.0,3.0,-5.0,-13.0,-8.0,-8.0,1.4208168983459473
334,-1692.0,1083.0,-2227.0,0.0,4550.0,278.0,-9714.0,-12381.0,-17.0,-21.0,-21.0,-14.0,-6.0,4.0,-3.0,-5.0,1.4237360954284668
335,-2177.0,1195.0,-2388.0,0.0,4355.0,588.0,-9345.0,-12720.0,-17.0,-21.0,-21.0,-14.0,-6.0,4.0,-3.0,-5.0,1.4398691654205322
336,-2177.0,1195.0,-2388.0,0.0,4355.0,588.0,-9345.0,-12720.0,-23.0,6.0,19.0,-3.0,0.0,-19.0,-2.0,-4.0,1.4433536529541016
337,-2177.0,1195.0,-2388.0,0.0,4355.0,588.0,-9345.0,-12720.0,-5.0,-13.0,10.0,11.0,2.0,2.0,4.0,-1.0,1.4481897354125977
338,-2272.0,1419.0,-2737.0,0.0,4131.0,956.0,-8939.0,-13060.0,-5.0,-13.0,10.0,11.0,2.0,2.0,4.0,-1.0,1.4513132572174072
339,-2272.0,1419.0,-2737.0,0.0,4131.0,956.0,-8939.0,-13060.0,7.0,-16.0,-13.0,-6.0,-1.0,7.0,4.0,-3.0,1.453232765197754
340,-2272.0,1419.0,-2737.0,0.0,4131.0,956.0,-8939.0,-13060.0,-8.0,6.0,-2.0,-4.0,-4.0,-7.0,-4.0,-7.0,1.4550514221191406
341,-2335.0,1602.0,-3119.0,0.0,3864.0,1379.0,-8500.0,-13393.0,-8.0,6.0,-2.0,-4.0,-4.0,-7.0,-4.0,-7.0,1.4686551094055176
342,-2335.0,1602.0,-3119.0,0.0,3864.0,1379.0,-8500.0,-13393.0,-23.0,-9.0,-5.0,-2.0,-3.0,0.0,1.0,0.0,1.4705586433410645
343,-2335.0,1602.0,-3119.0,0.0,3864.0,1379.0,-8500.0,-13393.0,0.0,-17.0,-3.0,-48.0,15.0,4.0,1.0,0.0,1.472395896911621
344,-2614.0,1711.0,-3519.0,0.0,3547.0,1835.0,-7994.0,-13733.0,0.0,-17.0,-3.0,-48.0,15.0,4.0,1.0,0.0,1.4836513996124268
345,-2614.0,1711.0,-3519.0,0.0,3547.0,1835.0,-7994.0,-13733.0,-9.0,23.0,12.0,-1.0,7.0,0.0,0.0,-1.0,1.486036777496338
346,-2614.0,1711.0,-3519.0,0.0,3547.0,1835.0,-7994.0,-13733.0,12.0,19.0,0.0,10.0,0.0,-2.0,0.0,0.0,1.4881126880645752
347,-2995.0,1757.0,-3853.0,0.0,3185.0,2303.0,-7402.0,-14079.0,12.0,19.0,0.0,10.0,0.0,-2.0,0.0,0.0,1.4970285892486572
348,-2995.0,1757.0,-3853.0,0.0,3185.0,2303.0,-7402.0,-14079.0,2.0,-1.0,-2.0,-4.0,0.0,6.0,0.0,0.0,1.5052380561828613
349,-2995.0,1757.0,-3853.0,0.0,3185.0,2303.0,-7402.0,-14079.0,-2.0,-7.0,-9.0,13.0,-7.0,-1.0,1.0,1.0,1.5070719718933105
350,-3241.0,1728.0,-4004.0,0.0,2794.0,2763.0,-6748.0,-14404.0,-2.0,-7.0,-9.0,13.0,-7.0,-1.0,1.0,1.0,1.5202324390411377
351,-3241.0,1728.0,-4004.0,0.0,2794.0,2763.0,-6748.0,-14404.0,20.0,2.0,7.0,12.0,-7.0,5.0,-2.0,2.0,1.5289556980133057
352,-3241.0,1728.0,-4004.0,0.0,2794.0,2763.0,-6748.0,-14404.0,3.0,7.0,1.0,1.0,-1.0,1.0,-1.0,1.0,1.53084135055542
353,-3538.0,1709.0,-4048.0,0.0,2395.0,3201.0,-6025.0,-14703.0,3.0,7.0,1.0,1.0,-1.0,1.0,-1.0,1.0,1.5439400672912598
354,-3538.0,1709.0,-4048.0,0.0,2395.0,3201.0,-6025.0,-14703.0,4.0,2.0,-4.0,-36.0,-17.0,1.0,-2.0,0.0,1.5473535060882568
355,-3538.0,1709.0,-4048.0,0.0,2395.0,3201.0,-6025.0,-14703.0,4.0,6.0,6.0,6.0,1.0,1.0,0.0,3.0,1.5528509616851807
356,-3868.0,1669.0,-3979.0,0.0,2007.0,3607.0,-5235.0,-14967.0,4.0,6.0,6.0,6.0,1.0,1.0,0.0,3.0,1.5568363666534424
357,-3868.0,1669.0,-3979.0,0.0,2007.0,3607.0,-5235.0,-14967.0,7.0,-3.0,-5.0,5.0,30.0,-1.0,0.0,-2.0,1.5652854442596436
358,-3868.0,1669.0,-3979.0,0.0,2007.0,3607.0,-5235.0,-14967.0,3.0,7.0,8.0,0.0,-8.0,-3.0,1.0,2.0,1.5671160221099854
359,-4291.0,1612.0,-3830.0,0.0,1651.0,3972.0,-4369.0,-15194.0,3.0,7.0,8.0,0.0,-8.0,-3.0,1.0,2.0,1.5894408226013184
360,-4291.0,1612.0,-3830.0,0.0,1651.0,3972.0,-4369.0,-15194.0,4.0,2.0,0.0,4.0,-5.0,1.0,0.0,-1.0,1.593144416809082
361,-4291.0,1612.0,-3830.0,0.0,1651.0,3972.0,-4369.0,-15194.0,-3.0,-3.0,-4.0,0.0,3.0,-4.0,-7.0,-3.0,1.5964133739471436
362,-4725.0,1548.0,-3652.0,0.0,1333.0,4293.0,-3424.0,-15379.0,-3.0,-3.0,-4.0,0.0,3.0,-4.0,-7.0,-3.0,1.6042439937591553
363,-4725.0,1548.0,-3652.0,0.0,1333.0,4293.0,-3424.0,-15379.0,19.0,28.0,25.0,11.0,-2.0,1.0,2.0,12.0,1.6067273616790771
364,-4725.0,1548.0,-3652.0,0.0,1333.0,4293.0,-3424.0,-15379.0,-8.0,-34.0,-17.0,-7.0,-9.0,-2.0,-1.0,0.0,1.6086854934692383
365,-4982.0,1494.0,-3466.0,0.0,1050.0,4576.0,-2430.0,-15508.0,-8.0,-34.0,-17.0,-7.0,-9.0,-2.0,-1.0,0.0,1.616631031036377
366,-4982.0,1494.0,-3466.0,0.0,1050.0,4576.0,-2430.0,-15508.0,-2.0,-1.0,15.0,2.0,-16.0,0.0,14.0,-2.0,1.6338763236999512
367,-4982.0,1494.0,-3466.0,0.0,1050.0,4576.0,-2430.0,-15508.0,-15.0,-7.0,-6.0,-5.0,-1.0,-7.0,-9.0,-2.0,1.638024091720581
368,-4819.0,1490.0,-3323.0,0.0,776.0,4837.0,-1458.0,-15567.0,-15.0,-7.0,-6.0,-5.0,-1.0,-7.0,-9.0,-2.0,1.6498215198516846
369,-4819.0,1490.0,-3323.0,0.0,776.0,4837.0,-1458.0,-15567.0,-6.0,-9.0,-13.0,29.0,5.0,5.0,-2.0,-1.0,1.6539084911346436
370,-4819.0,1490.0,-3323.0,0.0,776.0,4837.0,-1458.0,-15567.0,0.0,3.0,0.0,-4.0,-12.0,32.0,4.0,-2.0,1.6576306819915771
371,-4926.0,1575.0,-3365.0,0.0,498.0,5094.0,-454.0,-15558.0,0.0,3.0,0.0,-4.0,-12.0,32.0,4.0,-2.0,1.6807165145874023
372,-4926.0,1575.0,-3365.0,0.0,498.0,5094.0,-454.0,-15558.0,-1.0,-2.0,-7.0,-2.0,-1.0,-7.0,1.0,-2.0,1.6843044757843018
373,-4926.0,1575.0,-3365.0,0.0,498.0,5094.0,-454.0,-15558.0,6.0,7.0,3.0,1.0,0.0,-1.0,-3.0,1.0,1.6869378089904785
374,-5112.0,1510.0,-3381.0,0.0,221.0,5324.0,588.0,-15482.0,6.0,7.0,3.0,1.0,0.0,-1.0,-3.0,1.0,1.6887257099151611
375,-5112.0,1510.0,-3381.0,0.0,221.0,5324.0,588.0,-15482.0,-3.0,-7.0,-3.0,1.0,2.0,-4.0,-4.0,-2.0,1.7016048431396484
376,-5112.0,1510.0,-3381.0,0.0,221.0,5324.0,588.0,-15482.0,6.0,8.0,7.0,2.0,19.0,-30.0,0.0,1.0,1.7049169540405273
377,-4919.0,1364.0,-3203.0,0.0,-37.0,5513.0,1591.0,-15347.0,6.0,8.0,7.0,2.0,19.0,-30.0,0.0,1.0,1.7079627513885498
378,-4919.0,1364.0,-3203.0,0.0,-37.0,5513.0,1591.0,-15347.0,-3.0,-6.0,-9.0,-6.0,6.0,2.0,-6.0,-3.0,1.7573058605194092
379,-4919.0,1364.0,-3203.0,0.0,-37.0,5513.0,1591.0,-15347.0,-1.0,4.0,1.0,-1.0,-6.0,26.0,12.0,8.0,1.7624096870422363
380,-4686.0,1307.0,-2931.0,0.0,-264.0,5678.0,2538.0,-15156.0,-1.0,4.0,1.0,-1.0,-6.0,26.0,12.0,8.0,1.7663636207580566
381,-4686.0,1307.0,-2931.0,0.0,-264.0,5678.0,2538.0,-15156.0,6.0,3.0,-2.0,-3.0,-8.0,-31.0,-11.0,4.0,1.769141435623169
382,-4686.0,1307.0,-2931.0,0.0,-264.0,5678.0,2538.0,-15156.0,-2.0,4.0,8.0,6.0,-8.0,0.0,11.0,-1.0,1.7717955112457275
383,-4489.0,1286.0,-2715.0,0.0,-467.0,5825.0,3435.0,-14916.0,-2.0,4.0,8.0,6.0,-8.0,0.0,11.0,-1.0,1.7737598419189453
384,-4489.0,1286.0,-2715.0,0.0,-467.0,5825.0,3435.0,-14916.0,3.0,3.0,1.0,-2.0,-1.0,1.0,-6.0,0.0,1.7756352424621582
385,-4287.0,1346.0,-2549.0,0.0,-656.0,5970.0,4281.0,-14630.0,3.0,3.0,1.0,-2.0,-1.0,1.0,-6.0,0.0,1.7837178707122803
386,-4287.0,1346.0,-2549.0,0.0,-656.0,5970.0,4281.0,-14630.0,-1.0,-1.0,0.0,-6.0,-19.0,-6.0,1.0,-4.0,1.9005801677703857
387,-4287.0,1346.0,-2549.0,0.0,-656.0,5970.0,4281.0,-14630.0,8.0,0.0,0.0,-3.0,4.0,-7.0,2.0,0.0,1.9059629440307617
388,-4040.0,1337.0,-2431.0,0.0,-842.0,6098.0,5076.0,-14310.0,8.0,0.0,0.0,-3.0,4.0,-7.0,2.0,0.0,1.9104251861572266
389,-4040.0,1337.0,-2431.0,0.0,-842.0,6098.0,5076.0,-14310.0,-4.0,-3.0,3.0,3.0,4.0,-4.0,1.0,0.0,1.9128565788269043
390,-4040.0,1337.0,-2431.0,0.0,-842.0,6098.0,5076.0,-14310.0,-3.0,1.0,0.0,5.0,1.0,0.0,-7.0,-4.0,1.9275870323181152
391,-3654.0,1257.0,-2362.0,0.0,-1038.0,6198.0,5798.0,-13976.0,-3.0,1.0,0.0,5.0,1.0,0.0,-7.0,-4.0,1.9300487041473389
392,-3654.0,1257.0,-2362.0,0.0,-1038.0,6198.0,5798.0,-13976.0,-1.0,0.0,0.0,-2.0,-5.0,7.0,-14.0,-14.0,1.9323339462280273
393,-1957.0,749.0,-1892.0,0.0,-2064.0,6358.0,8380.0,-12390.0,-1.0,0.0,0.0,-2.0,-5.0,7.0,-14.0,-14.0,1.9342164993286133
394,-1957.0,749.0,-1892.0,0.0,-2064.0,6358.0,8380.0,-12390.0,-4.0,0.0,-2.0,-5.0,-4.0,-12.0,-57.0,3.0,1.9495532512664795
395,-1957.0,749.0,-1892.0,0.0,-2064.0,6358.0,8380.0,-12390.0,3.0,0.0,0.0,0.0,-55.0,4.0,-26.0,4.0,1.9525692462921143
396,-1957.0,749.0,-1892.0,0.0,-2064.0,6358.0,8380.0,-12390.0,-34.0,-7.0,-6.0,-3.0,10.0,-50.0,24.0,-34.0,1.9551122188568115
397,-1024.0,274.0,-1550.0,0.0,-2421.0,6267.0,9086.0,-11864.0,-34.0,-7.0,-6.0,-3.0,10.0,-50.0,24.0,-34.0,1.9569339752197266
398,-1024.0,274.0,-1550.0,0.0,-2421.0,6267.0,9086.0,-11864.0,-1.0,9.0,10.0,10.0,-38.0,-23.0,2.0,-19.0,1.964423418045044
399,-1024.0,274.0,-1550.0,0.0,-2421.0,6267.0,9086.0,-11864.0,31.0,3.0,1.0,7.0,18.0,24.0,5.0,17.0,1.9663164615631104
400,-534.0,-24.0,-1291.0,0.0,-2563.0,6179.0,9360.0,-11665.0,31.0,3.0,1.0,7.0,18.0,24.0,5.0,17.0,1.9687309265136719
401,-534.0,-24.0,-1291.0,0.0,-2563.0,6179.0,9360.0,-11665.0,-3.0,-6.0,-7.0,-8.0,7.0,53.0,19.0,8.0,1.9708726406097412
402,-534.0,-24.0,-1291.0,0.0,-2563.0,6179.0,9360.0,-11665.0,-8.0,0.0,2.0,2.0,1.0,-28.0,-20.0,-28.0,1.9777774810791016
403,-386.0,-77.0,-780.0,0.0,-2654.0,6116.0,9586.0,-11494.0,-8.0,0.0,2.0,2.0,1.0,-28.0,-20.0,-28.0,1.9797375202178955
404,-386.0,-77.0,-780.0,0.0,-2654.0,6116.0,9586.0,-11494.0,6.0,0.0,-2.0,2.0,-3.0,11.0,39.0,-3.0,1.992403507232666
405,-386.0,-77.0,-780.0,0.0,-2654.0,6116.0,9586.0,-11494.0,3.0,0.0,-3.0,-3.0,-1.0,28.0,10.0,-6.0,2.0001676082611084
406,24.0,182.0,-145.0,0.0,-2741.0,6111.0,9703.0,-11377.0,3.0,0.0,-3.0,-3.0,-1.0,28.0,10.0,-6.0,2.001978635787964
407,24.0,182.0,-145.0,0.0,-2741.0,6111.0,9703.0,-11377.0,-3.0,-3.0,-6.0,-7.0,-15.0,-18.0,29.0,53.0,2.0089845657348633
408,24.0,182.0,-145.0,0.0,-2741.0,6111.0,9703.0,-11377.0,19.0,-3.0,-6.0,-8.0,-2.0,22.0,-15.0,22.0,2.0117251873016357
409,530.0,262.0,447.0,0.0,-2805.0,6148.0,9704.0,-11340.0,19.0,-3.0,-6.0,-8.0,-2.0,22.0,-15.0,22.0,2.0383660793304443
410,530.0,262.0,447.0,0.0,-2805.0,6148.0,9704.0,-11340.0,8.0,-2.0,-2.0,-1.0,-12.0,36.0,13.0,9.0,2.046137809753418
411,530.0,262.0,447.0,0.0,-2805.0,6148.0,9704.0,-11340.0,0.0,0.0,-4.0,0.0,3.0,-11.0,15.0,23.0,2.0547454357147217
412,853.0,257.0,878.0,0.0,-2812.0,6240.0,9608.0,-11370.0,0.0,0.0,-4.0,0.0,3.0,-11.0,15.0,23.0,2.0579564571380615
413,853.0,257.0,878.0,0.0,-2812.0,6240.0,9608.0,-11370.0,-4.0,-3.0,-2.0,0.0,-2.0,9.0,-18.0,-18.0,2.1100661754608154
414,853.0,257.0,878.0,0.0,-2812.0,6240.0,9608.0,-11370.0,-9.0,2.0,3.0,5.0,13.0,-8.0,0.0,-11.0,2.115779161453247
415,1061.0,168.0,1305.0,0.0,-2765.0,6359.0,9443.0,-11454.0,-9.0,2.0,3.0,5.0,13.0,-8.0,0.0,-11.0,2.120415449142456
416,1061.0,168.0,1305.0,0.0,-2765.0,6359.0,9443.0,-11454.0,-4.0,-2.0,-4.0,0.0,19.0,-15.0,-7.0,-14.0,2.124446392059326
417,1061.0,168.0,1305.0,0.0,-2765.0,6359.0,9443.0,-11454.0,-4.0,3.0,5.0,3.0,-9.0,-10.0,-23.0,-3.0,2.127596139907837
418,1061.0,168.0,1305.0,0.0,-2765.0,6359.0,9443.0,-11454.0,-4.0,3.0,5.0,3.0,-9.0,-10.0,-23.0,-3.0,2.1294755935668945
419,1061.0,168.0,1305.0,0.0,-2765.0,6359.0,9443.0,-11454.0,21.0,13.0,11.0,3.0,0.0,-8.0,4.0,21.0,2.1310882568359375
420,2088.0,-908.0,2354.0,0.0,-2179.0,6635.0,8471.0,-12162.0,21.0,13.0,11.0,3.0,0.0,-8.0,4.0,21.0,2.1328701972961426
421,2088.0,-908.0,2354.0,0.0,-2179.0,6635.0,8471.0,-12162.0,-8.0,-1.0,1.0,-2.0,-13.0,-53.0,-16.0,-20.0,2.143578052520752
422,2088.0,-908.0,2354.0,0.0,-2179.0,6635.0,8471.0,-12162.0,-4.0,-4.0,-4.0,-1.0,2.0,6.0,0.0,-3.0,2.1463773250579834
423,2801.0,-1138.0,2787.0,0.0,-1912.0,6670.0,7936.0,-12542.0,-4.0,-4.0,-4.0,-1.0,2.0,6.0,0.0,-3.0,2.148634195327759
424,2801.0,-1138.0,2787.0,0.0,-1912.0,6670.0,7936.0,-12542.0,2.0,2.0,3.0,3.0,-4.0,25.0,7.0,8.0,2.164863348007202
425,2801.0,-1138.0,2787.0,0.0,-1912.0,6670.0,7936.0,-12542.0,-11.0,-13.0,-10.0,-6.0,-1.0,-12.0,-6.0,-7.0,2.1959118843078613
426,3415.0,-1318.0,3213.0,0.0,-1612.0,6689.0,7271.0,-12970.0,-11.0,-13.0,-10.0,-6.0,-1.0,-12.0,-6.0,-7.0,2.203611135482788
427,3415.0,-1318.0,3213.0,0.0,-1612.0,6689.0,7271.0,-12970.0,0.0,8.0,10.0,3.0,1.0,2.0,-7.0,-14.0,2.251530647277832
428,3415.0,-1318.0,3213.0,0.0,-1612.0,6689.0,7271.0,-12970.0,-6.0,-7.0,-5.0,-3.0,-2.0,-5.0,5.0,7.0,2.2556166648864746
429,3917.0,-1576.0,3580.0,0.0,-1269.0,6672.0,6485.0,-13426.0,-6.0,-7.0,-5.0,-3.0,-2.0,-5.0,5.0,7.0,2.2596206665039062
430,3917.0,-1576.0,3580.0,0.0,-1269.0,6672.0,6485.0,-13426.0,-4.0,-6.0,-3.0,-4.0,-5.0,6.0,3.0,-3.0,2.263235092163086
431,4372.0,-1739.0,4012.0,0.0,-877.0,6628.0,5572.0,-13881.0,-4.0,-6.0,-3.0,-4.0,-5.0,6.0,3.0,-3.0,2.2653355598449707
432,4372.0,-1739.0,4012.0,0.0,-877.0,6628.0,5572.0,-13881.0,-4.0,-6.0,-3.0,-4.0,-5.0,6.0,3.0,-3.0,2.2674360275268555
433,4372.0,-1739.0,4012.0,0.0,-877.0,6628.0,5572.0,-13881.0,1.0,2.0,3.0,2.0,5.0,0.0,0.0,-2.0,2.2690887451171875
434,4372.0,-1739.0,4012.0,0.0,-877.0,6628.0,5572.0,-13881.0,1.0,1.0,1.0,1.0,7.0,9.0,18.0,8.0,2.270933151245117
435,5435.0,-2351.0,5446.0,0.0,631.0,6237.0,2107.0,-14990.0,1.0,1.0,1.0,1.0,7.0,9.0,18.0,8.0,2.2727372646331787
436,5435.0,-2351.0,5446.0,0.0,631.0,6237.0,2107.0,-14990.0,0.0,-2.0,-1.0,1.0,-4.0,2.0,1.0,-3.0,2.274632692337036
437,5435.0,-2351.0,5446.0,0.0,631.0,6237.0,2107.0,-14990.0,-1.0,3.0,3.0,1.0,0.0,32.0,-12.0,-7.0,2.2764172554016113
438,5751.0,-2356.0,5830.0,0.0,1258.0,5989.0,710.0,-15182.0,-1.0,3.0,3.0,1.0,0.0,32.0,-12.0,-7.0,2.300337314605713
439,5751.0,-2356.0,5830.0,0.0,1258.0,5989.0,710.0,-15182.0,12.0,5.0,3.0,6.0,5.0,-36.0,29.0,23.0,2.3104562759399414
440,5751.0,-2356.0,5830.0,0.0,1258.0,5989.0,710.0,-15182.0,-2.0,-5.0,-8.0,-18.0,-39.0,-60.0,-13.0,-13.0,2.3138861656188965
441,5908.0,-2256.0,6115.0,0.0,1917.0,5700.0,-755.0,-15222.0,-2.0,-5.0,-8.0,-18.0,-39.0,-60.0,-13.0,-13.0,2.317152976989746
442,5908.0,-2256.0,6115.0,0.0,1917.0,5700.0,-755.0,-15222.0,6.0,-1.0,-4.0,1.0,28.0,67.0,-5.0,-26.0,2.3204987049102783
443,5908.0,-2256.0,6115.0,0.0,1917.0,5700.0,-755.0,-15222.0,2.0,8.0,2.0,7.0,14.0,-66.0,14.0,23.0,2.32315731048584
444,6287.0,-2043.0,6472.0,0.0,2571.0,5412.0,-2233.0,-15085.0,2.0,8.0,2.0,7.0,14.0,-66.0,14.0,23.0,2.3249480724334717
445,6287.0,-2043.0,6472.0,0.0,2571.0,5412.0,-2233.0,-15085.0,4.0,0.0,25.0,48.0,-35.0,-85.0,-24.0,-12.0,2.3382678031921387
446,6287.0,-2043.0,6472.0,0.0,2571.0,5412.0,-2233.0,-15085.0,36.0,-17.0,-24.0,-27.0,-10.0,-17.0,-10.0,28.0,2.3413479328155518
447,6545.0,-1897.0,6974.0,0.0,3267.0,5085.0,-3754.0,-14759.0,36.0,-17.0,-24.0,-27.0,-10.0,-17.0,-10.0,28.0,2.347041606903076
448,6545.0,-1897.0,6974.0,0.0,3267.0,5085.0,-3754.0,-14759.0,-27.0,-44.0,-38.0,55.0,-1.0,96.0,22.0,2.0,2.350243091583252
449,6545.0,-1897.0,6974.0,0.0,3267.0,5085.0,-3754.0,-14759.0,18.0,16.0,32.0,98.0,104.0,39.0,-6.0,-23.0,2.3524186611175537
450,5288.0,-2094.0,7144.0,0.0,4018.0,4621.0,-5051.0,-14333.0,18.0,16.0,32.0,98.0,104.0,39.0,-6.0,-23.0,2.359259843826294
451,5288.0,-2094.0,7144.0,0.0,4018.0,4621.0,-5051.0,-14333.0,-23.0,29.0,-102.0,-20.0,71.0,51.0,-1.0,-96.0,2.3678362369537354
452,5288.0,-2094.0,7144.0,0.0,4018.0,4621.0,-5051.0,-14333.0,95.0,78.0,105.0,113.0,21.0,127.0,57.0,64.0,2.369654893875122
453,5049.0,-2491.0,6368.0,0.0,4602.0,4084.0,-6244.0,-13842.0,95.0,78.0,105.0,113.0,21.0,127.0,57.0,64.0,2.3834550380706787
454,5049.0,-2491.0,6368.0,0.0,4602.0,4084.0,-6244.0,-13842.0,54.0,9.0,22.0,29.0,-3.0,-34.0,10.0,-56.0,2.3865549564361572
455,5049.0,-2491.0,6368.0,0.0,4602.0,4084.0,-6244.0,-13842.0,13.0,12.0,-98.0,-128.0,-70.0,43.0,3.0,-26.0,2.390162467956543
456,4678.0,-905.0,4226.0,0.0,4959.0,3886.0,-7167.0,-13319.0,13.0,12.0,-98.0,-128.0,-70.0,43.0,3.0,-26.0,2.406766653060913
457,4678.0,-905.0,4226.0,0.0,4959.0,3886.0,-7167.0,-13319.0,-47.0,-18.0,29.0,59.0,-32.0,-102.0,-40.0,-34.0,2.4101734161376953
458,4678.0,-905.0,4226.0,0.0,4959.0,3886.0,-7167.0,-13319.0,-43.0,-74.0,12.0,18.0,-18.0,-7.0,-28.0,-60.0,2.4136102199554443
459,2306.0,-720.0,1171.0,0.0,4973.0,3813.0,-7588.0,-13100.0,-43.0,-74.0,12.0,18.0,-18.0,-7.0,-28.0,-60.0,2.419466018676758
460,2306.0,-720.0,1171.0,0.0,4973.0,3813.0,-7588.0,-13100.0,-13.0,8.0,-39.0,-128.0,-65.0,0.0,-22.0,27.0,2.427839994430542
461,2306.0,-720.0,1171.0,0.0,4973.0,3813.0,-7588.0,-13100.0,-36.0,-20.0,-7.0,-13.0,-21.0,14.0,-10.0,3.0,2.4297046661376953
462,2865.0,-851.0,1743.0,0.0,5035.0,3687.0,-8085.0,-12811.0,-36.0,-20.0,-7.0,-13.0,-21.0,14.0,-10.0,3.0,2.4433956146240234
463,2865.0,-851.0,1743.0,0.0,5035.0,3687.0,-8085.0,-12811.0,63.0,-31.0,-27.0,-4.0,44.0,-27.0,19.0,37.0,2.446756601333618
464,2865.0,-851.0,1743.0,0.0,5035.0,3687.0,-8085.0,-12811.0,-11.0,27.0,34.0,-25.0,52.0,-72.0,26.0,40.0,2.4499592781066895
465,1636.0,-1015.0,3364.0,0.0,5361.0,3313.0,-8503.0,-12508.0,-11.0,27.0,34.0,-25.0,52.0,-72.0,26.0,40.0,2.4680850505828857
466,1636.0,-1015.0,3364.0,0.0,5361.0,3313.0,-8503.0,-12508.0,58.0,47.0,19.0,28.0,-20.0,-17.0,8.0,127.0,2.4714863300323486
467,1636.0,-1015.0,3364.0,0.0,5361.0,3313.0,-8503.0,-12508.0,-24.0,-5.0,2.0,72.0,-83.0,-94.0,-47.0,-10.0,2.4747934341430664
468,529.0,-786.0,2096.0,0.0,5570.0,3016.0,-8696.0,-12357.0,-24.0,-5.0,2.0,72.0,-83.0,-94.0,-47.0,-10.0,2.480663537979126
469,529.0,-786.0,2096.0,0.0,5570.0,3016.0,-8696.0,-12357.0,-58.0,-37.0,23.0,-12.0,-30.0,63.0,2.0,-76.0,2.5033650398254395
470,529.0,-786.0,2096.0,0.0,5570.0,3016.0,-8696.0,-12357.0,-27.0,-1.0,-26.0,11.0,1.0,-21.0,16.0,-21.0,2.5129995346069336
471,540.0,-204.0,1858.0,0.0,5794.0,2827.0,-8836.0,-12199.0,-27.0,-1.0,-26.0,11.0,1.0,-21.0,16.0,-21.0,2.515498161315918
472,540.0,-204.0,1858.0,0.0,5794.0,2827.0,-8836.0,-12199.0,11.0,14.0,15.0,39.0,30.0,0.0,0.0,-1.0,2.5173752307891846
473,540.0,-204.0,1858.0,0.0,5794.0,2827.0,-8836.0,-12199.0,-52.0,-24.0,-40.0,-32.0,31.0,19.0,8.0,-1.0,2.5192408561706543
474,1503.0,74.0,865.0,0.0,5874.0,2846.0,-9028.0,-12015.0,-52.0,-24.0,-40.0,-32.0,31.0,19.0,8.0,-1.0,2.533050775527954
475,1503.0,74.0,865.0,0.0,5874.0,2846.0,-9028.0,-12015.0,46.0,31.0,23.0,-60.0,7.0,21.0,35.0,118.0,2.541334629058838
476,1503.0,74.0,865.0,0.0,5874.0,2846.0,-9028.0,-12015.0,-12.0,-5.0,11.0,-24.0,-24.0,29.0,6.0,-12.0,2.5448031425476074
477,1602.0,93.0,322.0,0.0,5869.0,2936.0,-9242.0,-11831.0,-12.0,-5.0,11.0,-24.0,-24.0,29.0,6.0,-12.0,2.548072576522827
478,1602.0,93.0,322.0,0.0,5869.0,2936.0,-9242.0,-11831.0,-37.0,14.0,53.0,45.0,14.0,17.0,-43.0,-65.0,2.5514976978302
479,1602.0,93.0,322.0,0.0,5869.0,2936.0,-9242.0,-11831.0,-34.0,2.0,-8.0,-49.0,-17.0,72.0,8.0,-20.0,2.554460287094116
480,594.0,39.0,100.0,0.0,5848.0,2991.0,-9345.0,-11746.0,-34.0,2.0,-8.0,-49.0,-17.0,72.0,8.0,-20.0,2.562835216522217
481,594.0,39.0,100.0,0.0,5848.0,2991.0,-9345.0,-11746.0,-13.0,-28.0,2.0,-32.0,-88.0,-35.0,21.0,41.0,2.565237045288086
482,594.0,39.0,100.0,0.0,5848.0,2991.0,-9345.0,-11746.0,-13.0,-28.0,2.0,-32.0,-88.0,-35.0,21.0,41.0,2.569143056869507
483,594.0,39.0,100.0,0.0,5848.0,2991.0,-9345.0,-11746.0,-5.0,14.0,-18.0,-21.0,80.0,-23.0,18.0,-5.0,2.5946052074432373
484,-764.0,19.0,-21.0,0.0,5861.0,2959.0,-9264.0,-11812.0,-5.0,14.0,-18.0,-21.0,80.0,-23.0,18.0,-5.0,2.5981552600860596
485,-764.0,19.0,-21.0,0.0,5861.0,2959.0,-9264.0,-11812.0,-20.0,-2.0,-8.0,51.0,-5.0,2.0,-2.0,13.0,2.6023926734924316
486,-764.0,19.0,-21.0,0.0,5861.0,2959.0,-9264.0,-11812.0,1.0,-17.0,-15.0,-72.0,-51.0,-51.0,-8.0,-83.0,2.6064820289611816
487,-1020.0,101.0,-196.0,0.0,5899.0,2897.0,-9127.0,-11915.0,1.0,-17.0,-15.0,-72.0,-51.0,-51.0,-8.0,-83.0,2.6086761951446533
488,-1020.0,101.0,-196.0,0.0,5899.0,2897.0,-9127.0,-11915.0,-16.0,-14.0,-11.0,-48.0,-2.0,12.0,9.0,-9.0,2.615595817565918
489,-1020.0,101.0,-196.0,0.0,5899.0,2897.0,-9127.0,-11915.0,38.0,3.0,19.0,68.0,67.0,18.0,-19.0,19.0,2.617534875869751
490,-492.0,309.0,-230.0,0.0,5942.0,2889.0,-9038.0,-11962.0,38.0,3.0,19.0,68.0,67.0,18.0,-19.0,19.0,2.6222336292266846
491,-492.0,309.0,-230.0,0.0,5942.0,2889.0,-9038.0,-11962.0,-6.0,1.0,-25.0,-56.0,-13.0,-21.0,-44.0,-56.0,2.6241254806518555
492,-492.0,309.0,-230.0,0.0,5942.0,2889.0,-9038.0,-11962.0,6.0,-2.0,24.0,38.0,10.0,21.0,2.0,28.0,2.631199359893799
493,22.0,410.0,-310.0,0.0,5959.0,2948.0,-9015.0,-11957.0,6.0,-2.0,24.0,38.0,10.0,21.0,2.0,28.0,2.64636492729187
494,22.0,410.0,-310.0,0.0,5959.0,2948.0,-9015.0,-11957.0,-19.0,-18.0,-24.0,-49.0,26.0,1.0,5.0,-7.0,2.6500391960144043
495,22.0,410.0,-310.0,0.0,5959.0,2948.0,-9015.0,-11957.0,2.0,-14.0,-32.0,30.0,-37.0,51.0,3.0,21.0,2.654148578643799
496,24.0,511.0,-335.0,0.0,5971.0,3038.0,-8998.0,-11942.0,2.0,-14.0,-32.0,30.0,-37.0,51.0,3.0,21.0,2.6597139835357666
497,24.0,511.0,-335.0,0.0,5971.0,3038.0,-8998.0,-11942.0,4.0,23.0,32.0,1.0,3.0,16.0,-9.0,-26.0,2.6680636405944824
498,24.0,511.0,-335.0,0.0,5971.0,3038.0,-8998.0,-11942.0,-9.0,-24.0,-14.0,-36.0,-39.0,0.0,7.0,-2.0,2.670201539993286
499,-83.0,481.0,-369.0,0.0,5976.0,3122.0,-8976.0,-11934.0,-9.0,-24.0,-14.0,-36.0,-39.0,0.0,7.0,-2.0,2.6920928955078125
500,-83.0,481.0,-369.0,0.0,5976.0,3122.0,-8976.0,-11934.0,-12.0,13.0,9.0,12.0,-6.0,-27.0,-1.0,-2.0,2.6959388256073
501,-83.0,481.0,-369.0,0.0,5976.0,3122.0,-8976.0,-11934.0,-9.0,-7.0,20.0,14.0,54.0,17.0,5.0,10.0,2.699415683746338
502,-70.0,436.0,-415.0,0.0,5973.0,3203.0,-8959.0,-11927.0,-9.0,-7.0,20.0,14.0,54.0,17.0,5.0,10.0,2.705766201019287
503,-70.0,436.0,-415.0,0.0,5973.0,3203.0,-8959.0,-11927.0,-5.0,8.0,9.0,68.0,2.0,9.0,7.0,-1.0,2.707651138305664
504,-70.0,436.0,-415.0,0.0,5973.0,3203.0,-8959.0,-11927.0,18.0,21.0,28.0,48.0,11.0,5.0,27.0,34.0,2.709580183029175
505,-29.0,362.0,-415.0,0.0,5956.0,3284.0,-8945.0,-11924.0,18.0,21.0,28.0,48.0,11.0,5.0,27.0,34.0,2.7282657623291016
506,-29.0,362.0,-415.0,0.0,5956.0,3284.0,-8945.0,-11924.0,6.0,-18.0,-14.0,-24.0,-21.0,34.0,18.0,20.0,2.7307989597320557
507,-29.0,362.0,-415.0,0.0,5956.0,3284.0,-8945.0,-11924.0,6.0,12.0,-16.0,-21.0,-55.0,-19.0,-25.0,10.0,2.7339913845062256
508,-93.0,300.0,-407.0,0.0,5943.0,3344.0,-8926.0,-11928.0,6.0,12.0,-16.0,-21.0,-55.0,-19.0,-25.0,10.0,2.744422435760498
509,-93.0,300.0,-407.0,0.0,5943.0,3344.0,-8926.0,-11928.0,7.0,-8.0,12.0,27.0,6.0,24.0,4.0,5.0,2.7476236820220947
510,-93.0,300.0,-407.0,0.0,5943.0,3344.0,-8926.0,-11928.0,6.0,3.0,-9.0,-111.0,-48.0,-30.0,-20.0,-11.0,2.7507712841033936
511,-105.0,239.0,-373.0,0.0,5935.0,3383.0,-8911.0,-11932.0,6.0,3.0,-9.0,-111.0,-48.0,-30.0,-20.0,-11.0,2.7757511138916016
512,-105.0,239.0,-373.0,0.0,5935.0,3383.0,-8911.0,-11932.0,4.0,-14.0,-9.0,44.0,30.0,7.0,-2.0,-29.0,2.779311180114746
513,-105.0,239.0,-373.0,0.0,5935.0,3383.0,-8911.0,-11932.0,0.0,-10.0,-2.0,25.0,42.0,28.0,-13.0,-4.0,2.7814931869506836
514,-66.0,213.0,-358.0,0.0,5929.0,3414.0,-8899.0,-11935.0,0.0,-10.0,-2.0,25.0,42.0,28.0,-13.0,-4.0,2.7835853099823
515,-66.0,213.0,-358.0,0.0,5929.0,3414.0,-8899.0,-11935.0,-17.0,7.0,8.0,-24.0,13.0,-17.0,-2.0,-22.0,2.7875571250915527
516,-66.0,213.0,-358.0,0.0,5929.0,3414.0,-8899.0,-11935.0,3.0,10.0,-11.0,44.0,-14.0,-26.0,-9.0,1.0,2.789475917816162
517,-29.0,184.0,-328.0,0.0,5923.0,3443.0,-8884.0,-11941.0,3.0,10.0,-11.0,44.0,-14.0,-26.0,-9.0,1.0,2.8033463954925537
518,-29.0,184.0,-328.0,0.0,5923.0,3443.0,-8884.0,-11941.0,2.0,-6.0,-26.0,-25.0,17.0,-10.0,3.0,-1.0,2.8066654205322266
519,-29.0,184.0,-328.0,0.0,5923.0,3443.0,-8884.0,-11941.0,-15.0,1.0,13.0,26.0,-83.0,-35.0,-26.0,-26.0,2.809720516204834
520,-22.0,188.0,-245.0,0.0,5924.0,3468.0,-8870.0,-11944.0,-15.0,1.0,13.0,26.0,-83.0,-35.0,-26.0,-26.0,2.8273065090179443
521,-22.0,188.0,-245.0,0.0,5924.0,3468.0,-8870.0,-11944.0,4.0,4.0,3.0,-26.0,15.0,16.0,-20.0,5.0,2.8310720920562744
522,-22.0,188.0,-245.0,0.0,5924.0,3468.0,-8870.0,-11944.0,18.0,3.0,-7.0,11.0,33.0,-3.0,14.0,40.0,2.8346409797668457
523,-43.0,178.0,-199.0,0.0,5929.0,3490.0,-8857.0,-11944.0,18.0,3.0,-7.0,11.0,33.0,-3.0,14.0,40.0,2.8398051261901855
524,-43.0,178.0,-199.0,0.0,5929.0,3490.0,-8857.0,-11944.0,6.0,-8.0,-1.0,-73.0,-2.0,-4.0,-27.0,-13.0,2.8562827110290527
525,-43.0,178.0,-199.0,0.0,5929.0,3490.0,-8857.0,-11944.0,-9.0,-6.0,7.0,-45.0,49.0,-7.0,-18.0,-18.0,2.859330892562866
526,-46.0,194.0,-173.0,0.0,5938.0,3512.0,-8843.0,-11943.0,-9.0,-6.0,7.0,-45.0,49.0,-7.0,-18.0,-18.0,2.8627898693084717
527,-46.0,194.0,-173.0,0.0,5938.0,3512.0,-8843.0,-11943.0,11.0,19.0,3.0,-36.0,-21.0,-25.0,24.0,6.0,2.865049362182617
528,-46.0,194.0,-173.0,0.0,5938.0,3512.0,-8843.0,-11943.0,1.0,3.0,-14.0,-6.0,-5.0,-31.0,-9.0,4.0,2.8691418170928955
529,0.0,189.0,-131.0,0.0,5942.0,3546.0,-8835.0,-11938.0,1.0,3.0,-14.0,-6.0,-5.0,-31.0,-9.0,4.0,2.9017446041107178
530,0.0,189.0,-131.0,0.0,5942.0,3546.0,-8835.0,-11938.0,1.0,7.0,9.0,19.0,-7.0,8.0,6.0,-13.0,2.9141194820404053
531,0.0,189.0,-131.0,0.0,5942.0,3546.0,-8835.0,-11938.0,4.0,-3.0,8.0,40.0,23.0,20.0,12.0,4.0,2.9161674976348877
532,-7.0,156.0,-66.0,0.0,5949.0,3570.0,-8834.0,-11927.0,4.0,-3.0,8.0,40.0,23.0,20.0,12.0,4.0,2.918011426925659
533,-7.0,156.0,-66.0,0.0,5949.0,3570.0,-8834.0,-11927.0,-7.0,-9.0,-7.0,-42.0,-18.0,-27.0,2.0,27.0,2.9201526641845703
534,-7.0,156.0,-66.0,0.0,5949.0,3570.0,-8834.0,-11927.0,-10.0,-9.0,-1.0,-27.0,-18.0,-12.0,-2.0,-48.0,2.9220046997070312
535,-36.0,160.0,-65.0,0.0,5962.0,3588.0,-8831.0,-11918.0,-10.0,-9.0,-1.0,-27.0,-18.0,-12.0,-2.0,-48.0,2.923799514770508
536,-36.0,160.0,-65.0,0.0,5962.0,3588.0,-8831.0,-11918.0,-3.0,8.0,1.0,48.0,15.0,5.0,13.0,27.0,2.926086187362671
537,-36.0,160.0,-65.0,0.0,5962.0,3588.0,-8831.0,-11918.0,6.0,0.0,9.0,-55.0,-34.0,-22.0,20.0,9.0,2.9292075634002686
538,-21.0,150.0,-55.0,0.0,5974.0,3605.0,-8829.0,-11908.0,6.0,0.0,9.0,-55.0,-34.0,-22.0,20.0,9.0,2.9457836151123047
539,-21.0,150.0,-55.0,0.0,5974.0,3605.0,-8829.0,-11908.0,6.0,6.0,18.0,38.0,-2.0,-24.0,-16.0,-3.0,2.9476799964904785
540,-21.0,150.0,-55.0,0.0,5974.0,3605.0,-8829.0,-11908.0,-16.0,-4.0,-5.0,19.0,17.0,18.0,3.0,7.0,2.949509859085083
541,19.0,156.0,-48.0,0.0,5984.0,3627.0,-8832.0,-11895.0,-16.0,-4.0,-5.0,19.0,17.0,18.0,3.0,7.0,2.9596762657165527
542,19.0,156.0,-48.0,0.0,5984.0,3627.0,-8832.0,-11895.0,24.0,-3.0,-2.0,13.0,-1.0,1.0,-10.0,10.0,2.968829393386841
543,19.0,156.0,-48.0,0.0,5984.0,3627.0,-8832.0,-11895.0,9.0,7.0,10.0,26.0,17.0,-16.0,-27.0,-14.0,2.9723517894744873
544,44.0,143.0,-51.0,0.0,5993.0,3647.0,-8839.0,-11878.0,9.0,7.0,10.0,26.0,17.0,-16.0,-27.0,-14.0,2.9827404022216797
545,44.0,143.0,-51.0,0.0,5993.0,3647.0,-8839.0,-11878.0,-17.0,-17.0,-32.0,23.0,8.0,8.0,-6.0,-10.0,2.9848597049713135
546,44.0,143.0,-51.0,0.0,5993.0,3647.0,-8839.0,-11878.0,-7.0,22.0,23.0,-29.0,5.0,24.0,31.0,30.0,2.990264654159546
547,23.0,163.0,-66.0,0.0,6005.0,3668.0,-8849.0,-11859.0,-7.0,22.0,23.0,-29.0,5.0,24.0,31.0,30.0,3.0059947967529297
548,23.0,163.0,-66.0,0.0,6005.0,3668.0,-8849.0,-11859.0,-16.0,1.0,27.0,13.0,12.0,21.0,15.0,-2.0,3.0090794563293457
549,23.0,163.0,-66.0,0.0,6005.0,3668.0,-8849.0,-11859.0,-1.0,-8.0,-7.0,56.0,-17.0,-11.0,-20.0,-27.0,3.0121214389801025
550,20.0,218.0,-86.0,0.0,6018.0,3699.0,-8851.0,-11841.0,-1.0,-8.0,-7.0,56.0,-17.0,-11.0,-20.0,-27.0,3.0293071269989014
551,20.0,218.0,-86.0,0.0,6018.0,3699.0,-8851.0,-11841.0,15.0,8.0,2.0,43.0,14.0,21.0,14.0,30.0,3.032885789871216
552,20.0,218.0,-86.0,0.0,6018.0,3699.0,-8851.0,-11841.0,5.0,2.0,-14.0,3.0,33.0,24.0,0.0,18.0,3.0364580154418945
553,129.0,181.0,-92.0,0.0,6020.0,3737.0,-8864.0,-11818.0,5.0,2.0,-14.0,3.0,33.0,24.0,0.0,18.0,3.0530548095703125
554,129.0,181.0,-92.0,0.0,6020.0,3737.0,-8864.0,-11818.0,-6.0,-8.0,-2.0,20.0,-3.0,-19.0,-16.0,-22.0,3.056943655014038
555,129.0,181.0,-92.0,0.0,6020.0,3737.0,-8864.0,-11818.0,-8.0,-19.0,-15.0,-19.0,12.0,13.0,14.0,-29.0,3.0597522258758545
556,145.0,130.0,-102.0,0.0,6015.0,3770.0,-8879.0,-11799.0,-8.0,-19.0,-15.0,-19.0,12.0,13.0,14.0,-29.0,3.065481424331665
557,145.0,130.0,-102.0,0.0,6015.0,3770.0,-8879.0,-11799.0,-10.0,-5.0,-7.0,-15.0,1.0,-32.0,-9.0,4.0,3.067387104034424
558,145.0,130.0,-102.0,0.0,6015.0,3770.0,-8879.0,-11799.0,12.0,5.0,5.0,22.0,-13.0,15.0,2.0,-1.0,3.0717740058898926
559,97.0,114.0,-70.0,0.0,6014.0,3796.0,-8890.0,-11783.0,12.0,5.0,5.0,22.0,-13.0,15.0,2.0,-1.0,3.079751968383789
560,97.0,114.0,-70.0,0.0,6014.0,3796.0,-8890.0,-11783.0,-12.0,-4.0,-9.0,5.0,3.0,6.0,5.0,-11.0,3.087890625
561,97.0,114.0,-70.0,0.0,6014.0,3796.0,-8890.0,-11783.0,-14.0,-2.0,11.0,42.0,26.0,2.0,10.0,10.0,3.0898001194000244
562,51.0,82.0,-54.0,0.0,6016.0,3812.0,-8897.0,-11772.0,-14.0,-2.0,11.0,42.0,26.0,2.0,10.0,10.0,3.105520248413086
563,51.0,82.0,-54.0,0.0,6016.0,3812.0,-8897.0,-11772.0,-5.0,-7.0,0.0,0.0,-18.0,-26.0,0.0,3.0,3.108924627304077
564,51.0,82.0,-54.0,0.0,6016.0,3812.0,-8897.0,-11772.0,-13.0,-4.0,-3.0,-19.0,-4.0,-19.0,2.0,-7.0,3.112421989440918
565,32.0,62.0,-35.0,0.0,6021.0,3818.0,-8904.0,-11762.0,-13.0,-4.0,-3.0,-19.0,-4.0,-19.0,2.0,-7.0,3.1253631114959717
566,32.0,62.0,-35.0,0.0,6021.0,3818.0,-8904.0,-11762.0,16.0,-15.0,-15.0,-49.0,-3.0,0.0,-1.0,3.0,3.1292014122009277
567,32.0,62.0,-35.0,0.0,6021.0,3818.0,-8904.0,-11762.0,9.0,6.0,2.0,11.0,-15.0,-8.0,-3.0,2.0,3.132455348968506
568,35.0,62.0,-21.0,0.0,6028.0,3822.0,-8910.0,-11752.0,9.0,6.0,2.0,11.0,-15.0,-8.0,-3.0,2.0,3.1513235569000244
569,35.0,62.0,-21.0,0.0,6028.0,3822.0,-8910.0,-11752.0,0.0,-1.0,2.0,-31.0,-25.0,0.0,-3.0,7.0,3.154419183731079
570,35.0,62.0,-21.0,0.0,6028.0,3822.0,-8910.0,-11752.0,-4.0,1.0,5.0,53.0,13.0,-1.0,-19.0,-29.0,3.1562294960021973
571,20.0,55.0,2.0,0.0,6036.0,3826.0,-8916.0,-11742.0,-4.0,1.0,5.0,53.0,13.0,-1.0,-19.0,-29.0,3.162628173828125
572,20.0,55.0,2.0,0.0,6036.0,3826.0,-8916.0,-11742.0,-9.0,-2.0,2.0,47.0,9.0,34.0,5.0,-10.0,3.1647121906280518
573,20.0,55.0,2.0,0.0,6036.0,3826.0,-8916.0,-11742.0,1.0,3.0,7.0,13.0,-3.0,-6.0,-8.0,-5.0,3.1768417358398438
574,4.0,35.0,-3.0,0.0,6044.0,3824.0,-8921.0,-11735.0,1.0,3.0,7.0,13.0,-3.0,-6.0,-8.0,-5.0,3.185106039047241
575,4.0,35.0,-3.0,0.0,6044.0,3824.0,-8921.0,-11735.0,-4.0,-4.0,3.0,-31.0,12.0,-5.0,-9.0,-39.0,3.18829345703125
576,4.0,35.0,-3.0,0.0,6044.0,3824.0,-8921.0,-11735.0,3.0,-5.0,-4.0,-10.0,-5.0,0.0,17.0,5.0,3.1927852630615234
577,16.0,25.0,-19.0,0.0,6047.0,3824.0,-8930.0,-11726.0,3.0,-5.0,-4.0,-10.0,-5.0,0.0,17.0,5.0,3.1997430324554443
578,16.0,25.0,-19.0,0.0,6047.0,3824.0,-8930.0,-11726.0,7.0,-3.0,-9.0,1.0,-9.0,5.0,4.0,-5.0,3.2182257175445557
579,16.0,25.0,-19.0,0.0,6047.0,3824.0,-8930.0,-11726.0,7.0,4.0,-10.0,-6.0,-25.0,4.0,-12.0,32.0,3.221644163131714
580,12.0,34.0,-19.0,0.0,6049.0,3829.0,-8936.0,-11719.0,7.0,4.0,-10.0,-6.0,-25.0,4.0,-12.0,32.0,3.2310378551483154
581,12.0,34.0,-19.0,0.0,6049.0,3829.0,-8936.0,-11719.0,-7.0,10.0,13.0,16.0,2.0,14.0,9.0,6.0,3.23299241065979
582,12.0,34.0,-19.0,0.0,6049.0,3829.0,-8936.0,-11719.0,-16.0,-17.0,-30.0,1.0,3.0,-60.0,-30.0,-4.0,3.2352523803710938
583,-2.0,32.0,-24.0,0.0,6048.0,3836.0,-8938.0,-11716.0,-16.0,-17.0,-30.0,1.0,3.0,-60.0,-30.0,-4.0,3.245213031768799
584,-2.0,32.0,-24.0,0.0,6048.0,3836.0,-8938.0,-11716.0,1.0,3.0,3.0,35.0,5.0,-3.0,-2.0,4.0,3.2473304271698
585,-2.0,32.0,-24.0,0.0,6048.0,3836.0,-8938.0,-11716.0,-2.0,3.0,3.0,-39.0,-7.0,20.0,11.0,-5.0,3.2690114974975586
586,17.0,43.0,6.0,0.0,6050.0,3846.0,-8942.0,-11709.0,-2.0,3.0,3.0,-39.0,-7.0,20.0,11.0,-5.0,3.271209716796875
587,17.0,43.0,6.0,0.0,6050.0,3846.0,-8942.0,-11709.0,14.0,7.0,5.0,9.0,14.0,-3.0,-5.0,-6.0,3.273136854171753
588,17.0,43.0,6.0,0.0,6050.0,3846.0,-8942.0,-11709.0,6.0,15.0,28.0,27.0,-12.0,13.0,1.0,-8.0,3.275907039642334
589,-16.0,31.0,28.0,0.0,6057.0,3847.0,-8945.0,-11703.0,6.0,15.0,28.0,27.0,-12.0,13.0,1.0,-8.0,3.2831075191497803
590,-16.0,31.0,28.0,0.0,6057.0,3847.0,-8945.0,-11703.0,-4.0,-6.0,-4.0,-13.0,-32.0,-17.0,-4.0,-5.0,3.285128116607666
591,-16.0,31.0,28.0,0.0,6057.0,3847.0,-8945.0,-11703.0,9.0,6.0,6.0,15.0,13.0,-3.0,3.0,-7.0,3.289548873901367
592,-13.0,32.0,22.0,0.0,6066.0,3843.0,-8951.0,-11695.0,9.0,6.0,6.0,15.0,13.0,-3.0,3.0,-7.0,3.3050663471221924
593,-13.0,32.0,22.0,0.0,6066.0,3843.0,-8951.0,-11695.0,-7.0,-12.0,-10.0,-20.0,-9.0,20.0,2.0,-1.0,3.306990385055542
594,-13.0,32.0,22.0,0.0,6066.0,3843.0,-8951.0,-11695.0,1.0,-9.0,-6.0,-5.0,2.0,8.0,-8.0,22.0,3.3121042251586914
595,43.0,20.0,-5.0,0.0,6067.0,3846.0,-8962.0,-11684.0,1.0,-9.0,-6.0,-5.0,2.0,8.0,-8.0,22.0,3.336928129196167
596,43.0,20.0,-5.0,0.0,6067.0,3846.0,-8962.0,-11684.0,-10.0,-6.0,-3.0,12.0,-9.0,6.0,-4.0,-20.0,3.3412296772003174
597,43.0,20.0,-5.0,0.0,6067.0,3846.0,-8962.0,-11684.0,4.0,2.0,-13.0,-44.0,-14.0,12.0,-15.0,-5.0,3.3454954624176025
598,29.0,29.0,-15.0,0.0,6067.0,3853.0,-8969.0,-11677.0,4.0,2.0,-13.0,-44.0,-14.0,12.0,-15.0,-5.0,3.3492233753204346
599,29.0,29.0,-15.0,0.0,6067.0,3853.0,-8969.0,-11677.0,0.0,3.0,10.0,12.0,18.0,-5.0,7.0,1.0,3.3518567085266113
600,29.0,29.0,-15.0,0.0,6067.0,3853.0,-8969.0,-11677.0,-1.0,-11.0,-13.0,-4.0,1.0,1.0,-1.0,-10.0,3.3537282943725586
601,-2.0,21.0,-5.0,0.0,6069.0,3855.0,-8975.0,-11671.0,-1.0,-11.0,-13.0,-4.0,1.0,1.0,-1.0,-10.0,3.3652596473693848
602,-2.0,21.0,-5.0,0.0,6069.0,3855.0,-8975.0,-11671.0,-1.0,1.0,-17.0,-80.0,11.0,4.0,5.0,6.0,3.3673789501190186
603,-2.0,21.0,-5.0,0.0,6069.0,3855.0,-8975.0,-11671.0,5.0,1.0,-10.0,-39.0,-3.0,-47.0,-6.0,-4.0,3.372789144515991
604,-30.0,30.0,-1.0,0.0,6075.0,3854.0,-8977.0,-11666.0,5.0,1.0,-10.0,-39.0,-3.0,-47.0,-6.0,-4.0,3.3968801498413086
605,-30.0,30.0,-1.0,0.0,6075.0,3854.0,-8977.0,-11666.0,-6.0,-2.0,-11.0,12.0,-21.0,-2.0,4.0,44.0,3.4003825187683105
606,-30.0,30.0,-1.0,0.0,6075.0,3854.0,-8977.0,-11666.0,-8.0,4.0,6.0,-40.0,-2.0,18.0,14.0,-13.0,3.4039556980133057
607,15.0,27.0,-22.0,0.0,6077.0,3856.0,-8984.0,-11659.0,-8.0,4.0,6.0,-40.0,-2.0,18.0,14.0,-13.0,3.4071414470672607
608,15.0,27.0,-22.0,0.0,6077.0,3856.0,-8984.0,-11659.0,6.0,5.0,5.0,-44.0,-19.0,-20.0,-7.0,-6.0,3.4091241359710693
609,15.0,27.0,-22.0,0.0,6077.0,3856.0,-8984.0,-11659.0,-1.0,-9.0,-2.0,57.0,18.0,1.0,24.0,27.0,3.411029577255249
610,58.0,51.0,-14.0,0.0,6080.0,3865.0,-8993.0,-11648.0,-1.0,-9.0,-2.0,57.0,18.0,1.0,24.0,27.0,3.425081729888916
611,58.0,51.0,-14.0,0.0,6080.0,3865.0,-8993.0,-11648.0,-3.0,-1.0,-7.0,-45.0,1.0,-9.0,0.0,-7.0,3.427151918411255
612,58.0,51.0,-14.0,0.0,6080.0,3865.0,-8993.0,-11648.0,-37.0,-4.0,-9.0,-6.0,19.0,6.0,-13.0,-44.0,3.432187080383301
613,96.0,53.0,6.0,0.0,6080.0,3880.0,-9010.0,-11630.0,-37.0,-4.0,-9.0,-6.0,19.0,6.0,-13.0,-44.0,3.448354482650757
614,96.0,53.0,6.0,0.0,6080.0,3880.0,-9010.0,-11630.0,-5.0,0.0,-1.0,-31.0,-13.0,-4.0,0.0,-12.0,3.450472116470337
615,96.0,53.0,6.0,0.0,6080.0,3880.0,-9010.0,-11630.0,-2.0,-3.0,4.0,17.0,-9.0,-4.0,-5.0,4.0,3.452559232711792
616,94.0,53.0,7.0,0.0,6082.0,3891.0,-9026.0,-11612.0,-2.0,-3.0,4.0,17.0,-9.0,-4.0,-5.0,4.0,3.463270902633667
617,94.0,53.0,7.0,0.0,6082.0,3891.0,-9026.0,-11612.0,15.0,11.0,11.0,64.0,22.0,-9.0,-27.0,24.0,3.4789557456970215
618,94.0,53.0,7.0,0.0,6082.0,3891.0,-9026.0,-11612.0,-3.0,-1.0,9.0,5.0,-2.0,-13.0,-2.0,-12.0,3.482635259628296
619,139.0,33.0,0.0,0.0,6080.0,3903.0,-9046.0,-11593.0,-3.0,-1.0,9.0,5.0,-2.0,-13.0,-2.0,-12.0,3.4941799640655518
620,139.0,33.0,0.0,0.0,6080.0,3903.0,-9046.0,-11593.0,-2.0,-13.0,-9.0,22.0,-2.0,-9.0,2.0,0.0,3.4962010383605957
621,139.0,33.0,0.0,0.0,6080.0,3903.0,-9046.0,-11593.0,10.0,-6.0,-15.0,-67.0,-14.0,25.0,6.0,3.0,3.498034954071045
622,137.0,28.0,-3.0,0.0,6077.0,3916.0,-9065.0,-11576.0,10.0,-6.0,-15.0,-67.0,-14.0,25.0,6.0,3.0,3.5084245204925537
623,137.0,28.0,-3.0,0.0,6077.0,3916.0,-9065.0,-11576.0,-9.0,1.0,12.0,10.0,-19.0,24.0,4.0,-21.0,3.5105714797973633
624,137.0,28.0,-3.0,0.0,6077.0,3916.0,-9065.0,-11576.0,1.0,-1.0,7.0,29.0,9.0,-2.0,0.0,24.0,3.5124874114990234
625,88.0,36.0,-4.0,0.0,6078.0,3925.0,-9073.0,-11566.0,1.0,-1.0,7.0,29.0,9.0,-2.0,0.0,24.0,3.5318665504455566
626,88.0,36.0,-4.0,0.0,6078.0,3925.0,-9073.0,-11566.0,-3.0,-9.0,-18.0,22.0,2.0,1.0,4.0,2.0,3.534924268722534
627,88.0,36.0,-4.0,0.0,6078.0,3925.0,-9073.0,-11566.0,9.0,2.0,7.0,-15.0,8.0,7.0,-1.0,29.0,3.5368480682373047
628,53.0,33.0,33.0,0.0,6082.0,3931.0,-9077.0,-11559.0,9.0,2.0,7.0,-15.0,8.0,7.0,-1.0,29.0,3.545419454574585
629,53.0,33.0,33.0,0.0,6082.0,3931.0,-9077.0,-11559.0,-17.0,-1.0,14.0,61.0,6.0,0.0,-7.0,-16.0,3.547656774520874
630,53.0,33.0,33.0,0.0,6082.0,3931.0,-9077.0,-11559.0,-12.0,-1.0,-7.0,25.0,-20.0,-9.0,2.0,-20.0,3.552119016647339
631,14.0,27.0,45.0,0.0,6092.0,3927.0,-9081.0,-11552.0,-12.0,-1.0,-7.0,25.0,-20.0,-9.0,2.0,-20.0,3.5683765411376953
632,14.0,27.0,45.0,0.0,6092.0,3927.0,-9081.0,-11552.0,6.0,-1.0,3.0,-69.0,3.0,19.0,9.0,32.0,3.5703983306884766
633,14.0,27.0,45.0,0.0,6092.0,3927.0,-9081.0,-11552.0,-4.0,-10.0,-6.0,-15.0,-15.0,-11.0,5.0,-6.0,3.5722334384918213
634,1.0,48.0,33.0,0.0,6106.0,3924.0,-9085.0,-11543.0,-4.0,-10.0,-6.0,-15.0,-15.0,-11.0,5.0,-6.0,3.582670211791992
635,1.0,48.0,33.0,0.0,6106.0,3924.0,-9085.0,-11543.0,-4.0,1.0,18.0,32.0,4.0,-4.0,4.0,-28.0,3.5846261978149414
636,1.0,48.0,33.0,0.0,6106.0,3924.0,-9085.0,-11543.0,9.0,2.0,-2.0,9.0,-5.0,4.0,-7.0,-14.0,3.5894663333892822
637,19.0,53.0,37.0,0.0,6118.0,3924.0,-9088.0,-11534.0,9.0,2.0,-2.0,9.0,-5.0,4.0,-7.0,-14.0,3.6054396629333496
638,19.0,53.0,37.0,0.0,6118.0,3924.0,-9088.0,-11534.0,-1.0,-2.0,-4.0,2.0,13.0,-8.0,1.0,-6.0,3.609781503677368
639,19.0,53.0,37.0,0.0,6118.0,3924.0,-9088.0,-11534.0,8.0,2.0,-14.0,26.0,3.0,8.0,-2.0,-8.0,3.6130166053771973
640,27.0,48.0,29.0,0.0,6127.0,3926.0,-9093.0,-11524.0,8.0,2.0,-14.0,26.0,3.0,8.0,-2.0,-8.0,3.6293745040893555
641,27.0,48.0,29.0,0.0,6127.0,3926.0,-9093.0,-11524.0,7.0,0.0,-1.0,-75.0,13.0,-15.0,12.0,19.0,3.6329827308654785
642,27.0,48.0,29.0,0.0,6127.0,3926.0,-9093.0,-11524.0,4.0,-2.0,-4.0,8.0,-14.0,-14.0,-28.0,21.0,3.635432004928589
643,13.0,56.0,27.0,0.0,6137.0,3929.0,-9096.0,-11515.0,4.0,-2.0,-4.0,8.0,-14.0,-14.0,-28.0,21.0,3.6497628688812256
644,13.0,56.0,27.0,0.0,6137.0,3929.0,-9096.0,-11515.0,11.0,12.0,5.0,53.0,12.0,-2.0,-8.0,3.0,3.6584606170654297
645,13.0,56.0,27.0,0.0,6137.0,3929.0,-9096.0,-11515.0,-6.0,-9.0,3.0,20.0,4.0,9.0,9.0,-5.0,3.6660099029541016
646,-6.0,49.0,21.0,0.0,6146.0,3932.0,-9098.0,-11509.0,-6.0,-9.0,3.0,20.0,4.0,9.0,9.0,-5.0,3.6680474281311035
647,-6.0,49.0,21.0,0.0,6146.0,3932.0,-9098.0,-11509.0,-18.0,1.0,-10.0,17.0,-9.0,-8.0,-6.0,-29.0,3.670273780822754
648,-6.0,49.0,21.0,0.0,6146.0,3932.0,-9098.0,-11509.0,8.0,7.0,-4.0,-51.0,-11.0,-8.0,4.0,0.0,3.6730992794036865
649,-27.0,54.0,15.0,0.0,6155.0,3933.0,-9096.0,-11504.0,8.0,7.0,-4.0,-51.0,-11.0,-8.0,4.0,0.0,3.696031332015991
650,-27.0,54.0,15.0,0.0,6155.0,3933.0,-9096.0,-11504.0,-1.0,-1.0,0.0,8.0,-3.0,17.0,2.0,7.0,3.6984012126922607
651,-27.0,54.0,15.0,0.0,6155.0,3933.0,-9096.0,-11504.0,-2.0,-5.0,4.0,10.0,3.0,2.0,4.0,5.0,3.701808214187622
652,-25.0,47.0,4.0,0.0,6163.0,3935.0,-9094.0,-11501.0,-2.0,-5.0,4.0,10.0,3.0,2.0,4.0,5.0,3.705190658569336
653,-25.0,47.0,4.0,0.0,6163.0,3935.0,-9094.0,-11501.0,6.0,-9.0,-18.0,26.0,2.0,11.0,-4.0,-1.0,3.7085671424865723
654,-25.0,47.0,4.0,0.0,6163.0,3935.0,-9094.0,-11501.0,7.0,0.0,-1.0,-28.0,12.0,10.0,0.0,-7.0,3.725647449493408
655,-17.0,45.0,16.0,0.0,6171.0,3937.0,-9092.0,-11498.0,7.0,0.0,-1.0,-28.0,12.0,10.0,0.0,-7.0,3.7275497913360596
656,-17.0,45.0,16.0,0.0,6171.0,3937.0,-9092.0,-11498.0,0.0,2.0,1.0,27.0,5.0,5.0,2.0,13.0,3.7296645641326904
657,-17.0,45.0,16.0,0.0,6171.0,3937.0,-9092.0,-11498.0,-9.0,-1.0,11.0,15.0,11.0,10.0,9.0,-3.0,3.731783628463745
658,8.0,51.0,47.0,0.0,6180.0,3941.0,-9096.0,-11488.0,-9.0,-1.0,11.0,15.0,11.0,10.0,9.0,-3.0,3.7490317821502686
659,8.0,51.0,47.0,0.0,6180.0,3941.0,-9096.0,-11488.0,2.0,-3.0,-15.0,-5.0,-5.0,-3.0,-1.0,7.0,3.752012014389038
660,8.0,51.0,47.0,0.0,6180.0,3941.0,-9096.0,-11488.0,10.0,13.0,3.0,-22.0,-29.0,-22.0,0.0,12.0,3.7547287940979004
661,-52.0,34.0,61.0,0.0,6193.0,3935.0,-9095.0,-11484.0,10.0,13.0,3.0,-22.0,-29.0,-22.0,0.0,12.0,3.76312518119812
662,-52.0,34.0,61.0,0.0,6193.0,3935.0,-9095.0,-11484.0,-7.0,0.0,1.0,-14.0,-3.0,-24.0,0.0,7.0,3.7783803939819336
663,-52.0,34.0,61.0,0.0,6193.0,3935.0,-9095.0,-11484.0,-8.0,-8.0,-3.0,22.0,10.0,11.0,4.0,0.0,3.781409502029419
664,-45.0,21.0,70.0,0.0,6208.0,3926.0,-9096.0,-11478.0,-8.0,-8.0,-3.0,22.0,10.0,11.0,4.0,0.0,3.785905122756958
665,-45.0,21.0,70.0,0.0,6208.0,3926.0,-9096.0,-11478.0,13.0,0.0,4.0,2.0,9.0,-3.0,-2.0,-1.0,3.789095163345337
666,-45.0,21.0,70.0,0.0,6208.0,3926.0,-9096.0,-11478.0,-6.0,1.0,8.0,84.0,18.0,-2.0,-2.0,-22.0,3.799777030944824
667,-27.0,25.0,57.0,0.0,6222.0,3917.0,-9100.0,-11471.0,-6.0,1.0,8.0,84.0,18.0,-2.0,-2.0,-22.0,3.810126304626465
668,-27.0,25.0,57.0,0.0,6222.0,3917.0,-9100.0,-11471.0,-8.0,8.0,20.0,-59.0,-29.0,-7.0,-5.0,-14.0,3.8138062953948975
669,-27.0,25.0,57.0,0.0,6222.0,3917.0,-9100.0,-11471.0,2.0,-7.0,-2.0,19.0,-3.0,-7.0,-9.0,-2.0,3.8171346187591553
670,-19.0,31.0,54.0,0.0,6235.0,3910.0,-9103.0,-11464.0,2.0,-7.0,-2.0,19.0,-3.0,-7.0,-9.0,-2.0,3.831477165222168
671,-19.0,31.0,54.0,0.0,6235.0,3910.0,-9103.0,-11464.0,1.0,-1.0,-3.0,10.0,1.0,0.0,1.0,0.0,3.8338124752044678
672,-19.0,31.0,54.0,0.0,6235.0,3910.0,-9103.0,-11464.0,-8.0,-8.0,5.0,-2.0,6.0,9.0,5.0,0.0,3.835871934890747
673,-18.0,35.0,68.0,0.0,6250.0,3904.0,-9104.0,-11457.0,-8.0,-8.0,5.0,-2.0,6.0,9.0,5.0,0.0,3.8456456661224365
674,-18.0,35.0,68.0,0.0,6250.0,3904.0,-9104.0,-11457.0,8.0,1.0,-7.0,-41.0,-13.0,-9.0,-7.0,17.0,3.8529155254364014
675,-18.0,35.0,68.0,0.0,6250.0,3904.0,-9104.0,-11457.0,6.0,-10.0,-19.0,-96.0,1.0,-16.0,1.0,22.0,3.8555264472961426
676,-18.0,22.0,70.0,0.0,6264.0,3895.0,-9107.0,-11450.0,6.0,-10.0,-19.0,-96.0,1.0,-16.0,1.0,22.0,3.878051996231079
677,-18.0,22.0,70.0,0.0,6264.0,3895.0,-9107.0,-11450.0,4.0,-6.0,-11.0,-3.0,-8.0,7.0,1.0,-2.0,3.882172107696533
678,-18.0,22.0,70.0,0.0,6264.0,3895.0,-9107.0,-11450.0,-4.0,3.0,-2.0,-2.0,-3.0,7.0,-5.0,-5.0,3.886399745941162
679,-25.0,35.0,82.0,0.0,6281.0,3886.0,-9107.0,-11443.0,-4.0,3.0,-2.0,-2.0,-3.0,7.0,-5.0,-5.0,3.8890626430511475
680,-25.0,35.0,82.0,0.0,6281.0,3886.0,-9107.0,-11443.0,-1.0,10.0,18.0,55.0,6.0,1.0,2.0,-9.0,3.900261878967285
681,-25.0,35.0,82.0,0.0,6281.0,3886.0,-9107.0,-11443.0,3.0,2.0,-3.0,9.0,2.0,-6.0,2.0,4.0,3.903334140777588
682,-49.0,40.0,94.0,0.0,6300.0,3876.0,-9105.0,-11438.0,3.0,2.0,-3.0,9.0,2.0,-6.0,2.0,4.0,3.906381368637085
683,-49.0,40.0,94.0,0.0,6300.0,3876.0,-9105.0,-11438.0,-4.0,-4.0,-17.0,-51.0,11.0,-21.0,-7.0,5.0,3.9095537662506104
684,-49.0,40.0,94.0,0.0,6300.0,3876.0,-9105.0,-11438.0,4.0,-3.0,3.0,7.0,1.0,11.0,5.0,11.0,3.9118754863739014
685,-2.0,67.0,85.0,0.0,6320.0,3873.0,-9109.0,-11425.0,4.0,-3.0,3.0,7.0,1.0,11.0,5.0,11.0,3.937441349029541
686,-2.0,67.0,85.0,0.0,6320.0,3873.0,-9109.0,-11425.0,-5.0,-10.0,-7.0,22.0,8.0,11.0,1.0,-6.0,3.9416985511779785
687,-2.0,67.0,85.0,0.0,6320.0,3873.0,-9109.0,-11425.0,-3.0,1.0,-1.0,12.0,-6.0,-5.0,4.0,13.0,3.9466397762298584
688,-4.0,63.0,72.0,0.0,6336.0,3872.0,-9111.0,-11415.0,-3.0,1.0,-1.0,12.0,-6.0,-5.0,4.0,13.0,3.950484037399292
689,-4.0,63.0,72.0,0.0,6336.0,3872.0,-9111.0,-11415.0,-7.0,-3.0,2.0,14.0,-9.0,0.0,-9.0,-21.0,3.9526870250701904
690,-4.0,63.0,72.0,0.0,6336.0,3872.0,-9111.0,-11415.0,0.0,2.0,9.0,21.0,6.0,5.0,-7.0,-16.0,3.9545481204986572
691,7.0,59.0,53.0,0.0,6348.0,3874.0,-9113.0,-11405.0,0.0,2.0,9.0,21.0,6.0,5.0,-7.0,-16.0,3.964853048324585
692,7.0,59.0,53.0,0.0,6348.0,3874.0,-9113.0,-11405.0,-4.0,-4.0,-5.0,-1.0,0.0,2.0,4.0,6.0,3.967010021209717
693,7.0,59.0,53.0,0.0,6348.0,3874.0,-9113.0,-11405.0,-2.0,2.0,4.0,-13.0,-3.0,4.0,-3.0,-10.0,3.971620798110962
694,6.0,72.0,45.0,0.0,6361.0,3878.0,-9115.0,-11396.0,-2.0,2.0,4.0,-13.0,-3.0,4.0,-3.0,-10.0,3.990821361541748
695,6.0,72.0,45.0,0.0,6361.0,3878.0,-9115.0,-11396.0,5.0,-2.0,2.0,-18.0,4.0,-4.0,2.0,10.0,3.9944944381713867
696,6.0,72.0,45.0,0.0,6361.0,3878.0,-9115.0,-11396.0,-1.0,-2.0,-1.0,6.0,2.0,4.0,1.0,1.0,3.996462106704712
697,-12.0,71.0,27.0,0.0,6373.0,3882.0,-9112.0,-11390.0,-1.0,-2.0,-1.0,6.0,2.0,4.0,1.0,1.0,4.003028631210327
698,-12.0,71.0,27.0,0.0,6373.0,3882.0,-9112.0,-11390.0,-5.0,3.0,16.0,38.0,1.0,-4.0,1.0,-3.0,4.0103535652160645
699,-12.0,71.0,27.0,0.0,6373.0,3882.0,-9112.0,-11390.0,-5.0,3.0,16.0,38.0,1.0,-4.0,1.0,-3.0,4.012925386428833
