,Gyro 0,Gyro 1,Gyro 2,Label,Orientation 0,Orientation 1,Orientation 2,Orientation 3,Sensor 0,Sensor 1,Sensor 2,Sensor 3,Sensor 4,Sensor 5,Sensor 6,Sensor 7,Timestamp
0,846.0,-214.0,1232.0,1.0,-12320.0,-10112.0,3304.0,1872.0,0.0,-23.0,44.0,30.0,26.0,35.0,-15.0,11.0,2.384185791015625e-06
1,846.0,-214.0,1232.0,1.0,-12320.0,-10112.0,3304.0,1872.0,-70.0,-34.0,-1.0,-2.0,25.0,18.0,-4.0,-6.0,0.002168416976928711
2,846.0,-214.0,1232.0,1.0,-12320.0,-10112.0,3304.0,1872.0,-13.0,-19.0,5.0,11.0,71.0,-10.0,0.0,7.0,0.004437446594238281
3,846.0,-214.0,1232.0,1.0,-12320.0,-10112.0,3304.0,1872.0,-28.0,42.0,53.0,15.0,98.0,-35.0,-39.0,-14.0,0.006799221038818359
4,142.0,-184.0,439.0,1.0,-12357.0,-10050.0,3390.0,1810.0,-28.0,42.0,53.0,15.0,98.0,-35.0,-39.0,-14.0,0.008914947509765625
5,142.0,-184.0,439.0,1.0,-12357.0,-10050.0,3390.0,1810.0,-13.0,-15.0,59.0,17.0,-67.0,59.0,15.0,-18.0,0.011267423629760742
6,142.0,-184.0,439.0,1.0,-12357.0,-10050.0,3390.0,1810.0,-19.0,-16.0,13.0,35.0,39.0,13.0,1.0,-9.0,0.013298749923706055
7,405.0,156.0,-292.0,1.0,-12374.0,-10049.0,3317.0,1831.0,-19.0,-16.0,13.0,35.0,39.0,13.0,1.0,-9.0,0.015240669250488281
8,405.0,156.0,-292.0,1.0,-12374.0,-10049.0,3317.0,1831.0,1.0,-25.0,-28.0,61.0,1.0,68.0,9.0,27.0,0.017127275466918945
9,405.0,156.0,-292.0,1.0,-12374.0,-10049.0,3317.0,1831.0,26.0,1.0,12.0,15.0,-48.0,93.0,12.0,-9.0,0.018978118896484375
10,752.0,146.0,192.0,1.0,-12327.0,-10115.0,3331.0,1758.0,26.0,1.0,12.0,15.0,-48.0,93.0,12.0,-9.0,0.021127939224243164
11,752.0,146.0,192.0,1.0,-12327.0,-10115.0,3331.0,1758.0,-20.0,-9.0,3.0,-100.0,-102.0,4.0,-3.0,-46.0,0.02329874038696289
12,752.0,146.0,192.0,1.0,-12327.0,-10115.0,3331.0,1758.0,51.0,12.0,-74.0,-49.0,-42.0,79.0,28.0,-12.0,0.025287389755249023
13,475.0,78.0,-49.0,1.0,-12282.0,-10172.0,3342.0,1722.0,51.0,12.0,-74.0,-49.0,-42.0,79.0,28.0,-12.0,0.027124643325805664
14,475.0,78.0,-49.0,1.0,-12282.0,-10172.0,3342.0,1722.0,70.0,-27.0,-18.0,-4.0,26.0,1.0,-9.0,92.0,0.029019832611083984
15,475.0,78.0,-49.0,1.0,-12282.0,-10172.0,3342.0,1722.0,4.0,-1.0,0.0,-13.0,66.0,-15.0,5.0,37.0,0.030861854553222656
16,-117.0,81.0,77.0,1.0,-12276.0,-10183.0,3331.0,1717.0,4.0,-1.0,0.0,-13.0,66.0,-15.0,5.0,37.0,0.03347373008728027
17,-117.0,81.0,77.0,1.0,-12276.0,-10183.0,3331.0,1717.0,-35.0,-23.0,-34.0,19.0,-30.0,-115.0,-11.0,-39.0,0.03684639930725098
18,-117.0,81.0,77.0,1.0,-12276.0,-10183.0,3331.0,1717.0,22.0,6.0,19.0,39.0,18.0,74.0,57.0,61.0,0.03873467445373535
19,-491.0,-51.0,10.0,1.0,-12303.0,-10147.0,3334.0,1740.0,22.0,6.0,19.0,39.0,18.0,74.0,57.0,61.0,0.040566205978393555
20,-491.0,-51.0,10.0,1.0,-12303.0,-10147.0,3334.0,1740.0,11.0,58.0,48.0,35.0,43.0,27.0,-15.0,-42.0,0.042505502700805664
21,-491.0,-51.0,10.0,1.0,-12303.0,-10147.0,3334.0,1740.0,8.0,-7.0,-48.0,-27.0,-21.0,-70.0,8.0,47.0,0.044339895248413086
22,-322.0,-119.0,-79.0,1.0,-12316.0,-10120.0,3356.0,1760.0,8.0,-7.0,-48.0,-27.0,-21.0,-70.0,8.0,47.0,0.04613947868347168
23,-322.0,-119.0,-79.0,1.0,-12316.0,-10120.0,3356.0,1760.0,-21.0,-13.0,-42.0,-77.0,-16.0,15.0,-7.0,-38.0,0.04808950424194336
24,-322.0,-119.0,-79.0,1.0,-12316.0,-10120.0,3356.0,1760.0,3.0,-1.0,1.0,14.0,-10.0,11.0,8.0,-10.0,0.04990673065185547
25,2.0,-71.0,-185.0,1.0,-12308.0,-10124.0,3367.0,1773.0,3.0,-1.0,1.0,14.0,-10.0,11.0,8.0,-10.0,0.052251577377319336
26,2.0,-71.0,-185.0,1.0,-12308.0,-10124.0,3367.0,1773.0,6.0,9.0,-36.0,-21.0,-28.0,-30.0,-12.0,27.0,0.055069923400878906
27,2.0,-71.0,-185.0,1.0,-12308.0,-10124.0,3367.0,1773.0,-28.0,9.0,-4.0,-25.0,9.0,-5.0,-36.0,-28.0,0.05728340148925781
28,141.0,-5.0,-147.0,1.0,-12296.0,-10137.0,3371.0,1772.0,-28.0,9.0,-4.0,-25.0,9.0,-5.0,-36.0,-28.0,0.059388160705566406
29,141.0,-5.0,-147.0,1.0,-12296.0,-10137.0,3371.0,1772.0,-11.0,-2.0,14.0,9.0,35.0,26.0,-36.0,-73.0,0.06148934364318848
30,141.0,-5.0,-147.0,1.0,-12296.0,-10137.0,3371.0,1772.0,3.0,-8.0,-2.0,10.0,-39.0,-14.0,-3.0,9.0,0.06335020065307617
31,33.0,17.0,-122.0,1.0,-12304.0,-10128.0,3372.0,1769.0,3.0,-8.0,-2.0,10.0,-39.0,-14.0,-3.0,9.0,0.0651547908782959
32,33.0,17.0,-122.0,1.0,-12304.0,-10128.0,3372.0,1769.0,3.0,-8.0,-2.0,10.0,-39.0,-14.0,-3.0,9.0,0.06704139709472656
33,33.0,17.0,-122.0,1.0,-12304.0,-10128.0,3372.0,1769.0,-8.0,10.0,19.0,25.0,13.0,1.0,18.0,4.0,0.06864190101623535
34,33.0,17.0,-122.0,1.0,-12304.0,-10128.0,3372.0,1769.0,-6.0,4.0,-5.0,73.0,17.0,1.0,-29.0,-31.0,0.07042789459228516
35,-47.0,27.0,-96.0,1.0,-12321.0,-10107.0,3373.0,1764.0,-6.0,4.0,-5.0,73.0,17.0,1.0,-29.0,-31.0,0.07221817970275879
36,-47.0,27.0,-96.0,1.0,-12321.0,-10107.0,3373.0,1764.0,6.0,-1.0,-7.0,9.0,5.0,-16.0,19.0,22.0,0.07417130470275879
37,-47.0,27.0,-96.0,1.0,-12321.0,-10107.0,3373.0,1764.0,39.0,5.0,28.0,-40.0,8.0,35.0,20.0,-7.0,0.0759878158569336
38,-106.0,29.0,-96.0,1.0,-12338.0,-10087.0,3372.0,1763.0,39.0,5.0,28.0,-40.0,8.0,35.0,20.0,-7.0,0.07776927947998047
39,-106.0,29.0,-96.0,1.0,-12338.0,-10087.0,3372.0,1763.0,-12.0,-9.0,-18.0,5.0,48.0,7.0,10.0,17.0,0.07971429824829102
40,-106.0,29.0,-96.0,1.0,-12338.0,-10087.0,3372.0,1763.0,-36.0,9.0,16.0,-15.0,23.0,2.0,0.0,17.0,0.08196401596069336
41,-236.0,6.0,-19.0,1.0,-12370.0,-10046.0,3376.0,1763.0,-36.0,9.0,16.0,-15.0,23.0,2.0,0.0,17.0,0.08425474166870117
42,-236.0,6.0,-19.0,1.0,-12370.0,-10046.0,3376.0,1763.0,13.0,10.0,1.0,-7.0,-4.0,-4.0,10.0,21.0,0.08639812469482422
43,-236.0,6.0,-19.0,1.0,-12370.0,-10046.0,3376.0,1763.0,-1.0,-5.0,1.0,4.0,-17.0,-18.0,-10.0,-21.0,0.08829164505004883
44,-296.0,-31.0,-10.0,1.0,-12403.0,-10001.0,3390.0,1764.0,-1.0,-5.0,1.0,4.0,-17.0,-18.0,-10.0,-21.0,0.09019684791564941
45,-296.0,-31.0,-10.0,1.0,-12403.0,-10001.0,3390.0,1764.0,-11.0,1.0,5.0,-16.0,-7.0,20.0,26.0,18.0,0.09249162673950195
46,-296.0,-31.0,-10.0,1.0,-12403.0,-10001.0,3390.0,1764.0,0.0,-1.0,-15.0,-14.0,9.0,-2.0,-11.0,-39.0,0.09439277648925781
47,-299.0,-68.0,19.0,1.0,-12437.0,-9950.0,3414.0,1763.0,0.0,-1.0,-15.0,-14.0,9.0,-2.0,-11.0,-39.0,0.09637808799743652
48,-299.0,-68.0,19.0,1.0,-12437.0,-9950.0,3414.0,1763.0,17.0,5.0,17.0,-50.0,-6.0,-10.0,3.0,9.0,0.09864950180053711
49,-299.0,-68.0,19.0,1.0,-12437.0,-9950.0,3414.0,1763.0,-1.0,-6.0,-4.0,-2.0,-35.0,-19.0,-7.0,-1.0,0.1008000373840332
50,-260.0,-130.0,2.0,1.0,-12465.0,-9903.0,3447.0,1768.0,-1.0,-6.0,-4.0,-2.0,-35.0,-19.0,-7.0,-1.0,0.10277152061462402
51,-260.0,-130.0,2.0,1.0,-12465.0,-9903.0,3447.0,1768.0,-5.0,-2.0,-25.0,-22.0,-11.0,-36.0,-4.0,6.0,0.10470175743103027
52,-260.0,-130.0,2.0,1.0,-12465.0,-9903.0,3447.0,1768.0,-2.0,-4.0,-3.0,-12.0,-11.0,-5.0,12.0,0.0,0.10659909248352051
53,-192.0,-162.0,42.0,1.0,-12477.0,-9873.0,3489.0,1772.0,-2.0,-4.0,-3.0,-12.0,-11.0,-5.0,12.0,0.0,0.10845088958740234
54,-192.0,-162.0,42.0,1.0,-12477.0,-9873.0,3489.0,1772.0,11.0,-14.0,-6.0,15.0,20.0,12.0,-3.0,9.0,0.11038684844970703
55,-192.0,-162.0,42.0,1.0,-12477.0,-9873.0,3489.0,1772.0,-1.0,0.0,-2.0,16.0,-5.0,-43.0,-27.0,2.0,0.1127631664276123
56,-185.0,-175.0,80.0,1.0,-12486.0,-9844.0,3535.0,1773.0,-1.0,0.0,-2.0,16.0,-5.0,-43.0,-27.0,2.0,0.114898681640625
57,-185.0,-175.0,80.0,1.0,-12486.0,-9844.0,3535.0,1773.0,-26.0,-7.0,-11.0,18.0,-8.0,-44.0,-1.0,3.0,0.11695456504821777
58,-185.0,-175.0,80.0,1.0,-12486.0,-9844.0,3535.0,1773.0,8.0,-1.0,-3.0,7.0,-20.0,8.0,8.0,15.0,0.11910653114318848
59,-103.0,-194.0,163.0,1.0,-12487.0,-9826.0,3588.0,1767.0,8.0,-1.0,-3.0,7.0,-20.0,8.0,8.0,15.0,0.12276268005371094
60,-103.0,-194.0,163.0,1.0,-12487.0,-9826.0,3588.0,1767.0,-10.0,-3.0,2.0,-3.0,2.0,3.0,-3.0,-15.0,0.12486505508422852
61,-103.0,-194.0,163.0,1.0,-12487.0,-9826.0,3588.0,1767.0,0.0,16.0,20.0,21.0,-7.0,-5.0,0.0,-11.0,0.1267101764678955
62,-64.0,-212.0,222.0,1.0,-12488.0,-9805.0,3646.0,1756.0,0.0,16.0,20.0,21.0,-7.0,-5.0,0.0,-11.0,0.1285233497619629
63,-64.0,-212.0,222.0,1.0,-12488.0,-9805.0,3646.0,1756.0,5.0,5.0,-8.0,4.0,-5.0,3.0,-3.0,-6.0,0.13044452667236328
64,-64.0,-212.0,222.0,1.0,-12488.0,-9805.0,3646.0,1756.0,6.0,-6.0,-3.0,-11.0,-11.0,5.0,-16.0,-7.0,0.13233423233032227
65,-41.0,-255.0,339.0,1.0,-12481.0,-9789.0,3716.0,1741.0,6.0,-6.0,-3.0,-11.0,-11.0,5.0,-16.0,-7.0,0.13417553901672363
66,-41.0,-255.0,339.0,1.0,-12481.0,-9789.0,3716.0,1741.0,0.0,4.0,1.0,-3.0,-15.0,-8.0,-5.0,1.0,0.13605475425720215
67,-41.0,-255.0,339.0,1.0,-12481.0,-9789.0,3716.0,1741.0,-2.0,6.0,-8.0,-2.0,-16.0,-6.0,0.0,0.0,0.13790059089660645
68,-127.0,-251.0,361.0,1.0,-12491.0,-9751.0,3797.0,1715.0,-2.0,6.0,-8.0,-2.0,-16.0,-6.0,0.0,0.0,0.13970160484313965
69,-127.0,-251.0,361.0,1.0,-12491.0,-9751.0,3797.0,1715.0,6.0,16.0,9.0,33.0,-74.0,-14.0,-4.0,-5.0,0.14156770706176758
70,-127.0,-251.0,361.0,1.0,-12491.0,-9751.0,3797.0,1715.0,-4.0,-5.0,-2.0,1.0,6.0,3.0,2.0,0.0,0.14384174346923828
71,-24.0,-263.0,335.0,1.0,-12491.0,-9724.0,3876.0,1690.0,-4.0,-5.0,-2.0,1.0,6.0,3.0,2.0,0.0,0.14609122276306152
72,-24.0,-263.0,335.0,1.0,-12491.0,-9724.0,3876.0,1690.0,-4.0,-5.0,-2.0,1.0,6.0,3.0,2.0,0.0,0.14818263053894043
73,-24.0,-263.0,335.0,1.0,-12491.0,-9724.0,3876.0,1690.0,-8.0,-1.0,0.0,18.0,25.0,8.0,-10.0,-9.0,0.14985442161560059
74,-24.0,-263.0,335.0,1.0,-12491.0,-9724.0,3876.0,1690.0,-4.0,-5.0,-8.0,-29.0,-42.0,-8.0,-1.0,4.0,0.15166258811950684
75,183.0,-262.0,347.0,1.0,-12465.0,-9729.0,3963.0,1654.0,-4.0,-5.0,-8.0,-29.0,-42.0,-8.0,-1.0,4.0,0.1534581184387207
76,183.0,-262.0,347.0,1.0,-12465.0,-9729.0,3963.0,1654.0,-1.0,-1.0,2.0,6.0,24.0,5.0,0.0,0.0,0.15538644790649414
77,183.0,-262.0,347.0,1.0,-12465.0,-9729.0,3963.0,1654.0,2.0,-1.0,10.0,-21.0,16.0,-4.0,-6.0,-1.0,0.1571798324584961
78,194.0,-237.0,311.0,1.0,-12440.0,-9733.0,4043.0,1618.0,2.0,-1.0,10.0,-21.0,16.0,-4.0,-6.0,-1.0,0.15911269187927246
79,194.0,-237.0,311.0,1.0,-12440.0,-9733.0,4043.0,1618.0,-3.0,1.0,-3.0,21.0,23.0,3.0,-12.0,-2.0,0.1613461971282959
80,194.0,-237.0,311.0,1.0,-12440.0,-9733.0,4043.0,1618.0,5.0,-4.0,-9.0,-48.0,7.0,1.0,16.0,1.0,0.16345858573913574
81,244.0,-188.0,352.0,1.0,-12411.0,-9745.0,4121.0,1570.0,5.0,-4.0,-9.0,-48.0,7.0,1.0,16.0,1.0,0.1652975082397461
82,244.0,-188.0,352.0,1.0,-12411.0,-9745.0,4121.0,1570.0,2.0,0.0,0.0,5.0,-30.0,-3.0,13.0,0.0,0.1672358512878418
83,244.0,-188.0,352.0,1.0,-12411.0,-9745.0,4121.0,1570.0,3.0,3.0,2.0,56.0,12.0,2.0,-18.0,0.0,0.16904759407043457
84,322.0,-139.0,328.0,1.0,-12380.0,-9764.0,4190.0,1516.0,3.0,3.0,2.0,56.0,12.0,2.0,-18.0,0.0,0.1708667278289795
85,322.0,-139.0,328.0,1.0,-12380.0,-9764.0,4190.0,1516.0,-1.0,-7.0,1.0,-4.0,56.0,-2.0,-25.0,-1.0,0.1727614402770996
86,322.0,-139.0,328.0,1.0,-12380.0,-9764.0,4190.0,1516.0,8.0,1.0,-11.0,-82.0,-66.0,-18.0,4.0,0.0,0.17477822303771973
87,451.0,-180.0,261.0,1.0,-12332.0,-9803.0,4257.0,1471.0,8.0,1.0,-11.0,-82.0,-66.0,-18.0,4.0,0.0,0.17757034301757812
88,451.0,-180.0,261.0,1.0,-12332.0,-9803.0,4257.0,1471.0,6.0,-11.0,-23.0,-75.0,-125.0,-40.0,-8.0,0.0,0.17975378036499023
89,451.0,-180.0,261.0,1.0,-12332.0,-9803.0,4257.0,1471.0,-7.0,-3.0,6.0,46.0,23.0,5.0,18.0,-5.0,0.18155574798583984
90,504.0,-112.0,124.0,1.0,-12278.0,-9854.0,4308.0,1429.0,-7.0,-3.0,6.0,46.0,23.0,5.0,18.0,-5.0,0.18377065658569336
91,504.0,-112.0,124.0,1.0,-12278.0,-9854.0,4308.0,1429.0,-52.0,-9.0,-8.0,49.0,-4.0,-3.0,-26.0,-6.0,0.1859455108642578
92,504.0,-112.0,124.0,1.0,-12278.0,-9854.0,4308.0,1429.0,-3.0,-7.0,-12.0,-46.0,18.0,-11.0,-21.0,-14.0,0.18800687789916992
93,349.0,-73.0,-150.0,1.0,-12230.0,-9906.0,4330.0,1420.0,-3.0,-7.0,-12.0,-46.0,18.0,-11.0,-21.0,-14.0,0.1898336410522461
94,349.0,-73.0,-150.0,1.0,-12230.0,-9906.0,4330.0,1420.0,3.0,-1.0,5.0,-7.0,29.0,9.0,5.0,-17.0,0.19173884391784668
95,349.0,-73.0,-150.0,1.0,-12230.0,-9906.0,4330.0,1420.0,-8.0,2.0,0.0,-47.0,-21.0,13.0,11.0,-9.0,0.1936955451965332
96,-160.0,206.0,-358.0,1.0,-12266.0,-9875.0,4296.0,1417.0,-8.0,2.0,0.0,-47.0,-21.0,13.0,11.0,-9.0,0.19572114944458008
97,-160.0,206.0,-358.0,1.0,-12266.0,-9875.0,4296.0,1417.0,8.0,-2.0,1.0,-37.0,31.0,15.0,59.0,15.0,0.19759249687194824
98,-160.0,206.0,-358.0,1.0,-12266.0,-9875.0,4296.0,1417.0,14.0,9.0,10.0,44.0,21.0,4.0,-11.0,13.0,0.1994180679321289
99,113.0,262.0,-515.0,1.0,-12284.0,-9880.0,4233.0,1422.0,14.0,9.0,10.0,44.0,21.0,4.0,-11.0,13.0,0.20119857788085938
100,113.0,262.0,-515.0,1.0,-12284.0,-9880.0,4233.0,1422.0,1.0,-2.0,1.0,-14.0,-12.0,-6.0,-13.0,-3.0,0.20306873321533203
101,113.0,262.0,-515.0,1.0,-12284.0,-9880.0,4233.0,1422.0,1.0,-3.0,-20.0,-52.0,-47.0,-12.0,4.0,-5.0,0.2049846649169922
102,207.0,284.0,-491.0,1.0,-12321.0,-9870.0,4147.0,1430.0,1.0,-3.0,-20.0,-52.0,-47.0,-12.0,4.0,-5.0,0.20705556869506836
103,207.0,284.0,-491.0,1.0,-12321.0,-9870.0,4147.0,1430.0,3.0,4.0,6.0,53.0,7.0,5.0,-6.0,4.0,0.2090926170349121
104,207.0,284.0,-491.0,1.0,-12321.0,-9870.0,4147.0,1430.0,-2.0,-1.0,8.0,30.0,17.0,6.0,0.0,8.0,0.2109231948852539
105,1512.0,272.0,-455.0,1.0,-12164.0,-10094.0,4084.0,1392.0,-2.0,-1.0,8.0,30.0,17.0,6.0,0.0,8.0,0.21272492408752441
106,1512.0,272.0,-455.0,1.0,-12164.0,-10094.0,4084.0,1392.0,6.0,-4.0,-5.0,-19.0,3.0,-6.0,8.0,-4.0,0.21466326713562012
107,1512.0,272.0,-455.0,1.0,-12164.0,-10094.0,4084.0,1392.0,0.0,1.0,11.0,2.0,-5.0,-4.0,-1.0,6.0,0.21648716926574707
108,1240.0,203.0,-352.0,1.0,-12030.0,-10279.0,4022.0,1375.0,0.0,1.0,11.0,2.0,-5.0,-4.0,-1.0,6.0,0.21828722953796387
109,1240.0,203.0,-352.0,1.0,-12030.0,-10279.0,4022.0,1375.0,2.0,-1.0,7.0,18.0,14.0,-13.0,-8.0,-6.0,0.22018027305603027
110,1240.0,203.0,-352.0,1.0,-12030.0,-10279.0,4022.0,1375.0,-5.0,-9.0,-2.0,55.0,11.0,7.0,-4.0,-1.0,0.22214221954345703
111,1038.0,343.0,-198.0,1.0,-11904.0,-10451.0,3974.0,1318.0,-5.0,-9.0,-2.0,55.0,11.0,7.0,-4.0,-1.0,0.22429704666137695
112,1038.0,343.0,-198.0,1.0,-11904.0,-10451.0,3974.0,1318.0,6.0,4.0,5.0,-6.0,0.0,2.0,12.0,24.0,0.22644686698913574
113,1038.0,343.0,-198.0,1.0,-11904.0,-10451.0,3974.0,1318.0,-11.0,0.0,1.0,26.0,14.0,-27.0,-27.0,-15.0,0.22834205627441406
114,127.0,155.0,72.0,1.0,-11873.0,-10492.0,3966.0,1290.0,-11.0,0.0,1.0,26.0,14.0,-27.0,-27.0,-15.0,0.23020672798156738
115,127.0,155.0,72.0,1.0,-11873.0,-10492.0,3966.0,1290.0,4.0,1.0,-2.0,-10.0,-11.0,-54.0,-4.0,14.0,0.2320716381072998
116,127.0,155.0,72.0,1.0,-11873.0,-10492.0,3966.0,1290.0,0.0,1.0,1.0,21.0,-4.0,-8.0,11.0,26.0,0.23386502265930176
117,-72.0,146.0,236.0,1.0,-11868.0,-10498.0,3981.0,1244.0,0.0,1.0,1.0,21.0,-4.0,-8.0,11.0,26.0,0.23578786849975586
118,-72.0,146.0,236.0,1.0,-11868.0,-10498.0,3981.0,1244.0,8.0,2.0,-6.0,9.0,6.0,-11.0,2.0,39.0,0.23795199394226074
119,-72.0,146.0,236.0,1.0,-11868.0,-10498.0,3981.0,1244.0,3.0,1.0,3.0,10.0,14.0,22.0,14.0,-19.0,0.2399904727935791
120,-678.0,111.0,450.0,1.0,-11937.0,-10417.0,3996.0,1219.0,3.0,1.0,3.0,10.0,14.0,22.0,14.0,-19.0,0.24190187454223633
121,-678.0,111.0,450.0,1.0,-11937.0,-10417.0,3996.0,1219.0,-8.0,0.0,6.0,4.0,16.0,-40.0,-9.0,-27.0,0.2437732219696045
122,-678.0,111.0,450.0,1.0,-11937.0,-10417.0,3996.0,1219.0,-8.0,-13.0,-12.0,5.0,-2.0,-56.0,-2.0,-14.0,0.24577116966247559
123,-1129.0,71.0,500.0,1.0,-12061.0,-10263.0,4024.0,1203.0,-8.0,-13.0,-12.0,5.0,-2.0,-56.0,-2.0,-14.0,0.24935221672058105
124,-1129.0,71.0,500.0,1.0,-12061.0,-10263.0,4024.0,1203.0,-8.0,-3.0,-9.0,6.0,15.0,101.0,-2.0,-40.0,0.25157809257507324
125,-1129.0,71.0,500.0,1.0,-12061.0,-10263.0,4024.0,1203.0,15.0,23.0,4.0,13.0,9.0,42.0,28.0,27.0,0.2534477710723877
126,-538.0,-38.0,463.0,1.0,-12121.0,-10176.0,4075.0,1170.0,15.0,23.0,4.0,13.0,9.0,42.0,28.0,27.0,0.2552828788757324
127,-538.0,-38.0,463.0,1.0,-12121.0,-10176.0,4075.0,1170.0,-4.0,-7.0,-3.0,-3.0,1.0,-11.0,-12.0,18.0,0.25714993476867676
128,-538.0,-38.0,463.0,1.0,-12121.0,-10176.0,4075.0,1170.0,-22.0,-1.0,13.0,8.0,-1.0,46.0,2.0,-52.0,0.2590513229370117
129,-278.0,-11.0,427.0,1.0,-12145.0,-10131.0,4129.0,1122.0,-22.0,-1.0,13.0,8.0,-1.0,46.0,2.0,-52.0,0.26085400581359863
130,-278.0,-11.0,427.0,1.0,-12145.0,-10131.0,4129.0,1122.0,18.0,19.0,4.0,-11.0,7.0,105.0,41.0,67.0,0.26275014877319336
131,-278.0,-11.0,427.0,1.0,-12145.0,-10131.0,4129.0,1122.0,2.0,-9.0,-4.0,-5.0,-10.0,1.0,-39.0,-17.0,0.264528751373291
132,-303.0,-9.0,255.0,1.0,-12175.0,-10083.0,4169.0,1091.0,2.0,-9.0,-4.0,-5.0,-10.0,1.0,-39.0,-17.0,0.26642632484436035
133,-303.0,-9.0,255.0,1.0,-12175.0,-10083.0,4169.0,1091.0,-7.0,-21.0,-22.0,5.0,20.0,48.0,17.0,14.0,0.2694098949432373
134,-303.0,-9.0,255.0,1.0,-12175.0,-10083.0,4169.0,1091.0,-11.0,-8.0,-26.0,-22.0,-21.0,-8.0,-17.0,6.0,0.27126336097717285
135,-243.0,-88.0,-77.0,1.0,-12197.0,-10051.0,4175.0,1117.0,-11.0,-8.0,-26.0,-22.0,-21.0,-8.0,-17.0,6.0,0.27306532859802246
136,-243.0,-88.0,-77.0,1.0,-12197.0,-10051.0,4175.0,1117.0,-11.0,-8.0,-26.0,-22.0,-21.0,-8.0,-17.0,6.0,0.27498865127563477
137,-243.0,-88.0,-77.0,1.0,-12197.0,-10051.0,4175.0,1117.0,3.0,10.0,-19.0,-27.0,-25.0,-10.0,5.0,-13.0,0.27658724784851074
138,-243.0,-88.0,-77.0,1.0,-12197.0,-10051.0,4175.0,1117.0,20.0,18.0,24.0,20.0,3.0,28.0,8.0,-7.0,0.2783830165863037
139,-74.0,-246.0,-77.0,1.0,-12186.0,-10050.0,4195.0,1162.0,20.0,18.0,24.0,20.0,3.0,28.0,8.0,-7.0,0.2801535129547119
140,-74.0,-246.0,-77.0,1.0,-12186.0,-10050.0,4195.0,1162.0,-6.0,-11.0,5.0,3.0,1.0,-7.0,-4.0,-23.0,0.282015323638916
141,-74.0,-246.0,-77.0,1.0,-12186.0,-10050.0,4195.0,1162.0,-8.0,-13.0,-8.0,-1.0,9.0,-16.0,2.0,17.0,0.2837803363800049
142,118.0,-344.0,-111.0,1.0,-12160.0,-10061.0,4232.0,1206.0,-8.0,-13.0,-8.0,-1.0,9.0,-16.0,2.0,17.0,0.2857027053833008
143,118.0,-344.0,-111.0,1.0,-12160.0,-10061.0,4232.0,1206.0,-3.0,5.0,-5.0,-3.0,-9.0,-26.0,-11.0,-13.0,0.2894001007080078
144,118.0,-344.0,-111.0,1.0,-12160.0,-10061.0,4232.0,1206.0,6.0,2.0,2.0,11.0,6.0,16.0,13.0,13.0,0.2916579246520996
145,-182.0,-159.0,-207.0,1.0,-12177.0,-10036.0,4229.0,1256.0,6.0,2.0,2.0,11.0,6.0,16.0,13.0,13.0,0.29354166984558105
146,-182.0,-159.0,-207.0,1.0,-12177.0,-10036.0,4229.0,1256.0,15.0,7.0,14.0,9.0,-7.0,-38.0,-7.0,-13.0,0.2954528331756592
147,-182.0,-159.0,-207.0,1.0,-12177.0,-10036.0,4229.0,1256.0,19.0,7.0,12.0,9.0,3.0,1.0,3.0,2.0,0.2976808547973633
148,-492.0,-75.0,-195.0,1.0,-12251.0,-9948.0,4204.0,1310.0,19.0,7.0,12.0,9.0,3.0,1.0,3.0,2.0,0.30046749114990234
149,-492.0,-75.0,-195.0,1.0,-12251.0,-9948.0,4204.0,1310.0,-10.0,-1.0,10.0,7.0,-2.0,-5.0,-5.0,-6.0,0.3037288188934326
150,-492.0,-75.0,-195.0,1.0,-12251.0,-9948.0,4204.0,1310.0,-7.0,-13.0,-5.0,-6.0,0.0,11.0,4.0,4.0,0.306262731552124
151,-375.0,-28.0,-183.0,1.0,-12315.0,-9876.0,4173.0,1356.0,-7.0,-13.0,-5.0,-6.0,0.0,11.0,4.0,4.0,0.30823636054992676
152,-375.0,-28.0,-183.0,1.0,-12315.0,-9876.0,4173.0,1356.0,26.0,-2.0,7.0,3.0,-6.0,12.0,-13.0,-2.0,0.31043100357055664
153,-375.0,-28.0,-183.0,1.0,-12315.0,-9876.0,4173.0,1356.0,2.0,15.0,19.0,6.0,2.0,32.0,8.0,2.0,0.3125460147857666
154,-362.0,-10.0,-360.0,1.0,-12371.0,-9818.0,4121.0,1422.0,2.0,15.0,19.0,6.0,2.0,32.0,8.0,2.0,0.31462812423706055
155,-362.0,-10.0,-360.0,1.0,-12371.0,-9818.0,4121.0,1422.0,-24.0,-14.0,-10.0,-6.0,-6.0,-12.0,-12.0,-16.0,0.3165585994720459
156,-362.0,-10.0,-360.0,1.0,-12371.0,-9818.0,4121.0,1422.0,3.0,-3.0,-15.0,-3.0,2.0,-14.0,-1.0,10.0,0.3184666633605957
157,-481.0,-3.0,-657.0,1.0,-12425.0,-9766.0,4046.0,1527.0,3.0,-3.0,-15.0,-3.0,2.0,-14.0,-1.0,10.0,0.320326566696167
158,-481.0,-3.0,-657.0,1.0,-12425.0,-9766.0,4046.0,1527.0,-7.0,2.0,1.0,1.0,1.0,-9.0,-1.0,-11.0,0.322307825088501
159,-481.0,-3.0,-657.0,1.0,-12425.0,-9766.0,4046.0,1527.0,23.0,14.0,10.0,-3.0,1.0,-8.0,-3.0,4.0,0.3241841793060303
160,-642.0,44.0,-961.0,1.0,-12490.0,-9707.0,3928.0,1676.0,23.0,14.0,10.0,-3.0,1.0,-8.0,-3.0,4.0,0.32602453231811523
161,-642.0,44.0,-961.0,1.0,-12490.0,-9707.0,3928.0,1676.0,2.0,4.0,0.0,8.0,-3.0,3.0,3.0,-5.0,0.32805347442626953
162,-642.0,44.0,-961.0,1.0,-12490.0,-9707.0,3928.0,1676.0,-8.0,-2.0,-28.0,-10.0,-7.0,-22.0,-5.0,-3.0,0.33014512062072754
163,-814.0,76.0,-1287.0,1.0,-12559.0,-9645.0,3767.0,1876.0,-8.0,-2.0,-28.0,-10.0,-7.0,-22.0,-5.0,-3.0,0.33214473724365234
164,-814.0,76.0,-1287.0,1.0,-12559.0,-9645.0,3767.0,1876.0,4.0,6.0,14.0,8.0,1.0,-7.0,1.0,1.0,0.3350346088409424
165,-814.0,76.0,-1287.0,1.0,-12559.0,-9645.0,3767.0,1876.0,-22.0,-14.0,-9.0,-32.0,-2.0,-12.0,4.0,-2.0,0.3381633758544922
166,-1013.0,110.0,-1574.0,1.0,-12639.0,-9566.0,3562.0,2123.0,-22.0,-14.0,-9.0,-32.0,-2.0,-12.0,4.0,-2.0,0.34002685546875
167,-1013.0,110.0,-1574.0,1.0,-12639.0,-9566.0,3562.0,2123.0,-22.0,-14.0,-9.0,-32.0,-2.0,-12.0,4.0,-2.0,0.3419489860534668
168,-1013.0,110.0,-1574.0,1.0,-12639.0,-9566.0,3562.0,2123.0,-5.0,7.0,-21.0,-9.0,0.0,5.0,1.0,-2.0,0.34356117248535156
169,-1013.0,110.0,-1574.0,1.0,-12639.0,-9566.0,3562.0,2123.0,-12.0,-1.0,18.0,-3.0,-3.0,3.0,7.0,3.0,0.34534764289855957
170,-1166.0,138.0,-1872.0,1.0,-12720.0,-9478.0,3319.0,2412.0,-12.0,-1.0,18.0,-3.0,-3.0,3.0,7.0,3.0,0.34714794158935547
171,-1166.0,138.0,-1872.0,1.0,-12720.0,-9478.0,3319.0,2412.0,21.0,30.0,15.0,5.0,4.0,-6.0,-13.0,2.0,0.3490302562713623
172,-1166.0,138.0,-1872.0,1.0,-12720.0,-9478.0,3319.0,2412.0,-1.0,-5.0,-6.0,12.0,5.0,3.0,0.0,5.0,0.35086774826049805
173,-1325.0,98.0,-2099.0,1.0,-12799.0,-9371.0,3049.0,2743.0,-1.0,-5.0,-6.0,12.0,5.0,3.0,0.0,5.0,0.3526439666748047
174,-1325.0,98.0,-2099.0,1.0,-12799.0,-9371.0,3049.0,2743.0,-24.0,-14.0,-1.0,-1.0,-3.0,-3.0,3.0,0.0,0.3545064926147461
175,-1325.0,98.0,-2099.0,1.0,-12799.0,-9371.0,3049.0,2743.0,2.0,15.0,8.0,4.0,-2.0,1.0,0.0,3.0,0.35636019706726074
176,-1466.0,118.0,-2244.0,1.0,-12879.0,-9243.0,2754.0,3094.0,2.0,15.0,8.0,4.0,-2.0,1.0,0.0,3.0,0.35828256607055664
177,-1466.0,118.0,-2244.0,1.0,-12879.0,-9243.0,2754.0,3094.0,-3.0,16.0,-22.0,-10.0,-6.0,-2.0,-5.0,-3.0,0.3605210781097412
178,-1466.0,118.0,-2244.0,1.0,-12879.0,-9243.0,2754.0,3094.0,4.0,-14.0,-29.0,3.0,1.0,-1.0,-5.0,-3.0,0.36250972747802734
179,-1644.0,150.0,-2437.0,1.0,-12958.0,-9088.0,2428.0,3471.0,4.0,-14.0,-29.0,3.0,1.0,-1.0,-5.0,-3.0,0.36432814598083496
180,-1644.0,150.0,-2437.0,1.0,-12958.0,-9088.0,2428.0,3471.0,-1.0,-8.0,10.0,11.0,-3.0,2.0,4.0,-4.0,0.3662831783294678
181,-1644.0,150.0,-2437.0,1.0,-12958.0,-9088.0,2428.0,3471.0,14.0,-3.0,1.0,13.0,0.0,0.0,-1.0,8.0,0.3681526184082031
182,-1826.0,270.0,-2635.0,1.0,-13038.0,-8906.0,2059.0,3861.0,14.0,-3.0,1.0,13.0,0.0,0.0,-1.0,8.0,0.3699674606323242
183,-1826.0,270.0,-2635.0,1.0,-13038.0,-8906.0,2059.0,3861.0,-5.0,-3.0,9.0,20.0,-4.0,1.0,3.0,1.0,0.371875524520874
184,-1826.0,270.0,-2635.0,1.0,-13038.0,-8906.0,2059.0,3861.0,-2.0,5.0,-3.0,6.0,-1.0,-3.0,-7.0,-8.0,0.3738582134246826
185,-2004.0,289.0,-2818.0,1.0,-13111.0,-8691.0,1665.0,4272.0,-2.0,5.0,-3.0,6.0,-1.0,-3.0,-7.0,-8.0,0.3760247230529785
186,-2004.0,289.0,-2818.0,1.0,-13111.0,-8691.0,1665.0,4272.0,17.0,-10.0,14.0,17.0,2.0,1.0,-2.0,0.0,0.3782055377960205
187,-2004.0,289.0,-2818.0,1.0,-13111.0,-8691.0,1665.0,4272.0,-8.0,-11.0,-23.0,-8.0,2.0,-3.0,-1.0,-2.0,0.380054235458374
188,-2233.0,304.0,-3049.0,1.0,-13175.0,-8437.0,1238.0,4708.0,-8.0,-11.0,-23.0,-8.0,2.0,-3.0,-1.0,-2.0,0.39777064323425293
189,-2233.0,304.0,-3049.0,1.0,-13175.0,-8437.0,1238.0,4708.0,-1.0,-4.0,-7.0,-11.0,-4.0,-3.0,-4.0,-5.0,0.40131545066833496
190,-2233.0,304.0,-3049.0,1.0,-13175.0,-8437.0,1238.0,4708.0,4.0,11.0,-4.0,-17.0,-1.0,-3.0,1.0,3.0,0.4046924114227295
191,-2647.0,323.0,-3173.0,1.0,-13246.0,-8111.0,778.0,5156.0,4.0,11.0,-4.0,-17.0,-1.0,-3.0,1.0,3.0,0.4201531410217285
192,-2647.0,323.0,-3173.0,1.0,-13246.0,-8111.0,778.0,5156.0,-7.0,-16.0,-10.0,-14.0,-3.0,-2.0,2.0,-4.0,0.4246664047241211
193,-2647.0,323.0,-3173.0,1.0,-13246.0,-8111.0,778.0,5156.0,-8.0,-12.0,12.0,10.0,-3.0,-2.0,-3.0,-2.0,0.4286692142486572
194,-2898.0,388.0,-3254.0,1.0,-13309.0,-7737.0,287.0,5601.0,-8.0,-12.0,12.0,10.0,-3.0,-2.0,-3.0,-2.0,0.4315788745880127
195,-2898.0,388.0,-3254.0,1.0,-13309.0,-7737.0,287.0,5601.0,-2.0,-4.0,10.0,-3.0,1.0,1.0,1.0,-1.0,0.43343520164489746
196,-2898.0,388.0,-3254.0,1.0,-13309.0,-7737.0,287.0,5601.0,-7.0,-4.0,-3.0,-9.0,0.0,-2.0,-3.0,-3.0,0.4420959949493408
197,-3129.0,496.0,-3332.0,1.0,-13355.0,-7322.0,-240.0,6036.0,-7.0,-4.0,-3.0,-9.0,0.0,-2.0,-3.0,-3.0,0.4494011402130127
198,-3129.0,496.0,-3332.0,1.0,-13355.0,-7322.0,-240.0,6036.0,11.0,14.0,1.0,12.0,5.0,0.0,-1.0,0.0,0.45163607597351074
199,-3129.0,496.0,-3332.0,1.0,-13355.0,-7322.0,-240.0,6036.0,-3.0,-6.0,4.0,17.0,-4.0,-1.0,-2.0,-3.0,0.47318601608276367
200,-3318.0,547.0,-3321.0,1.0,-13383.0,-6865.0,-785.0,6450.0,-3.0,-6.0,4.0,17.0,-4.0,-1.0,-2.0,-3.0,0.4764213562011719
201,-3318.0,547.0,-3321.0,1.0,-13383.0,-6865.0,-785.0,6450.0,-9.0,-13.0,-11.0,-12.0,-1.0,-1.0,-3.0,-4.0,0.4793686866760254
202,-3318.0,547.0,-3321.0,1.0,-13383.0,-6865.0,-785.0,6450.0,1.0,1.0,15.0,6.0,1.0,-1.0,1.0,-1.0,0.49558043479919434
203,-3472.0,568.0,-3287.0,1.0,-13391.0,-6372.0,-1335.0,6838.0,1.0,1.0,15.0,6.0,1.0,-1.0,1.0,-1.0,0.49878668785095215
204,-3472.0,568.0,-3287.0,1.0,-13391.0,-6372.0,-1335.0,6838.0,-2.0,-5.0,-2.0,3.0,2.0,3.0,-1.0,-1.0,0.5025718212127686
205,-3472.0,568.0,-3287.0,1.0,-13391.0,-6372.0,-1335.0,6838.0,-2.0,-2.0,4.0,-3.0,-1.0,1.0,-3.0,-2.0,0.506303071975708
206,-3804.0,531.0,-3244.0,1.0,-13387.0,-5816.0,-1898.0,7198.0,-2.0,-2.0,4.0,-3.0,-1.0,1.0,-3.0,-2.0,0.5086932182312012
207,-3804.0,531.0,-3244.0,1.0,-13387.0,-5816.0,-1898.0,7198.0,-4.0,-2.0,-2.0,-7.0,2.0,-3.0,-1.0,-2.0,0.5111484527587891
208,-3804.0,531.0,-3244.0,1.0,-13387.0,-5816.0,-1898.0,7198.0,1.0,3.0,-4.0,-4.0,-6.0,-3.0,-2.0,0.0,0.5321230888366699
209,-4040.0,310.0,-3140.0,1.0,-13371.0,-5195.0,-2437.0,7532.0,1.0,3.0,-4.0,-4.0,-6.0,-3.0,-2.0,0.0,0.5342233180999756
210,-4040.0,310.0,-3140.0,1.0,-13371.0,-5195.0,-2437.0,7532.0,-3.0,-7.0,-8.0,-5.0,-2.0,-2.0,-1.0,-1.0,0.5375075340270996
211,-4040.0,310.0,-3140.0,1.0,-13371.0,-5195.0,-2437.0,7532.0,-2.0,-6.0,-14.0,-2.0,0.0,3.0,0.0,-1.0,0.5471553802490234
212,-4176.0,481.0,-3068.0,1.0,-13325.0,-4554.0,-2999.0,7820.0,-2.0,-6.0,-14.0,-2.0,0.0,3.0,0.0,-1.0,0.5495972633361816
213,-4176.0,481.0,-3068.0,1.0,-13325.0,-4554.0,-2999.0,7820.0,2.0,4.0,5.0,0.0,4.0,-3.0,-3.0,2.0,0.5540680885314941
214,-4176.0,481.0,-3068.0,1.0,-13325.0,-4554.0,-2999.0,7820.0,0.0,0.0,0.0,-4.0,-1.0,0.0,0.0,1.0,0.561180591583252
215,-4209.0,653.0,-3017.0,1.0,-13238.0,-3907.0,-3582.0,8069.0,0.0,0.0,0.0,-4.0,-1.0,0.0,0.0,1.0,0.569183349609375
216,-4209.0,653.0,-3017.0,1.0,-13238.0,-3907.0,-3582.0,8069.0,-3.0,-5.0,-1.0,-4.0,-9.0,-4.0,-1.0,-3.0,0.5710804462432861
217,-4209.0,653.0,-3017.0,1.0,-13238.0,-3907.0,-3582.0,8069.0,-1.0,1.0,3.0,-1.0,2.0,3.0,-1.0,0.0,0.5841991901397705
218,-4067.0,853.0,-2942.0,1.0,-13102.0,-3285.0,-4172.0,8282.0,-1.0,1.0,3.0,-1.0,2.0,3.0,-1.0,0.0,0.5992312431335449
219,-4067.0,853.0,-2942.0,1.0,-13102.0,-3285.0,-4172.0,8282.0,-1.0,1.0,4.0,-1.0,-1.0,6.0,3.0,-1.0,0.6011288166046143
220,-4067.0,853.0,-2942.0,1.0,-13102.0,-3285.0,-4172.0,8282.0,-1.0,1.0,5.0,0.0,3.0,-7.0,-2.0,-2.0,0.6069235801696777
221,-3857.0,1023.0,-2855.0,1.0,-12919.0,-2699.0,-4756.0,8464.0,-1.0,1.0,5.0,0.0,3.0,-7.0,-2.0,-2.0,0.6089887619018555
222,-3857.0,1023.0,-2855.0,1.0,-12919.0,-2699.0,-4756.0,8464.0,-2.0,2.0,-7.0,-6.0,-1.0,-5.0,-2.0,-1.0,0.6138889789581299
223,-3857.0,1023.0,-2855.0,1.0,-12919.0,-2699.0,-4756.0,8464.0,1.0,-1.0,0.0,1.0,0.0,-2.0,1.0,-1.0,0.6212682723999023
224,-3676.0,1172.0,-2746.0,1.0,-12698.0,-2145.0,-5330.0,8614.0,1.0,-1.0,0.0,1.0,0.0,-2.0,1.0,-1.0,0.6373662948608398
225,-3676.0,1172.0,-2746.0,1.0,-12698.0,-2145.0,-5330.0,8614.0,-3.0,-4.0,-3.0,-4.0,-1.0,2.0,0.0,0.0,0.6407327651977539
226,-3676.0,1172.0,-2746.0,1.0,-12698.0,-2145.0,-5330.0,8614.0,-1.0,0.0,4.0,11.0,9.0,4.0,-1.0,0.0,0.6432321071624756
227,-3391.0,1247.0,-2687.0,1.0,-12437.0,-1634.0,-5877.0,8750.0,-1.0,0.0,4.0,11.0,9.0,4.0,-1.0,0.0,0.6599593162536621
228,-3391.0,1247.0,-2687.0,1.0,-12437.0,-1634.0,-5877.0,8750.0,-3.0,-4.0,-4.0,5.0,-27.0,-3.0,-6.0,-3.0,0.663280725479126
229,-3391.0,1247.0,-2687.0,1.0,-12437.0,-1634.0,-5877.0,8750.0,0.0,2.0,5.0,45.0,-9.0,-8.0,-26.0,0.0,0.6674079895019531
230,-3032.0,1544.0,-2655.0,1.0,-12124.0,-1195.0,-6417.0,8879.0,0.0,2.0,5.0,45.0,-9.0,-8.0,-26.0,0.0,0.6709752082824707
231,-3032.0,1544.0,-2655.0,1.0,-12124.0,-1195.0,-6417.0,8879.0,1.0,5.0,18.0,101.0,66.0,25.0,13.0,4.0,0.6729395389556885
232,-3032.0,1544.0,-2655.0,1.0,-12124.0,-1195.0,-6417.0,8879.0,1.0,-7.0,-15.0,20.0,6.0,1.0,19.0,-2.0,0.6815793514251709
233,-2264.0,1787.0,-2665.0,1.0,-11758.0,-880.0,-6904.0,9041.0,1.0,-7.0,-15.0,20.0,6.0,1.0,19.0,-2.0,0.6987359523773193
234,-2264.0,1787.0,-2665.0,1.0,-11758.0,-880.0,-6904.0,9041.0,-14.0,-3.0,-15.0,-128.0,-25.0,1.0,3.0,-10.0,0.7059736251831055
235,-2264.0,1787.0,-2665.0,1.0,-11758.0,-880.0,-6904.0,9041.0,14.0,4.0,6.0,-32.0,17.0,12.0,41.0,8.0,0.7091460227966309
236,-1977.0,1622.0,-2718.0,1.0,-11371.0,-577.0,-7339.0,9217.0,14.0,4.0,6.0,-32.0,17.0,12.0,41.0,8.0,0.7116398811340332
237,-1977.0,1622.0,-2718.0,1.0,-11371.0,-577.0,-7339.0,9217.0,7.0,-1.0,-3.0,-36.0,-44.0,-9.0,4.0,1.0,0.7135581970214844
238,-1977.0,1622.0,-2718.0,1.0,-11371.0,-577.0,-7339.0,9217.0,-2.0,1.0,3.0,2.0,-14.0,-9.0,-11.0,-3.0,0.7267618179321289
239,-2705.0,1586.0,-2747.0,1.0,-10966.0,-169.0,-7827.0,9323.0,-2.0,1.0,3.0,2.0,-14.0,-9.0,-11.0,-3.0,0.7289321422576904
240,-2705.0,1586.0,-2747.0,1.0,-10966.0,-169.0,-7827.0,9323.0,-4.0,1.0,1.0,10.0,13.0,-3.0,-6.0,5.0,0.7329750061035156
241,-2705.0,1586.0,-2747.0,1.0,-10966.0,-169.0,-7827.0,9323.0,-8.0,-5.0,-7.0,-29.0,-23.0,19.0,-2.0,-5.0,0.7410149574279785
242,-2605.0,1659.0,-2765.0,1.0,-10531.0,220.0,-8289.0,9422.0,-8.0,-5.0,-7.0,-29.0,-23.0,19.0,-2.0,-5.0,0.7489769458770752
243,-2605.0,1659.0,-2765.0,1.0,-10531.0,220.0,-8289.0,9422.0,0.0,-4.0,-6.0,10.0,2.0,12.0,-3.0,1.0,0.7508673667907715
244,-2605.0,1659.0,-2765.0,1.0,-10531.0,220.0,-8289.0,9422.0,-1.0,1.0,-3.0,-2.0,-8.0,24.0,-1.0,-3.0,0.7642168998718262
245,-1549.0,1502.0,-2978.0,1.0,-10071.0,520.0,-8615.0,9619.0,-1.0,1.0,-3.0,-2.0,-8.0,24.0,-1.0,-3.0,0.7725780010223389
246,-1549.0,1502.0,-2978.0,1.0,-10071.0,520.0,-8615.0,9619.0,-9.0,0.0,-7.0,14.0,-15.0,7.0,-7.0,-17.0,0.7753641605377197
247,-1549.0,1502.0,-2978.0,1.0,-10071.0,520.0,-8615.0,9619.0,-18.0,-16.0,-7.0,-27.0,-19.0,38.0,-10.0,-13.0,0.7863955497741699
248,-1133.0,1158.0,-2996.0,1.0,-9628.0,807.0,-8850.0,9837.0,-18.0,-16.0,-7.0,-27.0,-19.0,38.0,-10.0,-13.0,0.789374828338623
249,-1133.0,1158.0,-2996.0,1.0,-9628.0,807.0,-8850.0,9837.0,8.0,11.0,3.0,22.0,28.0,-57.0,4.0,11.0,0.7942154407501221
250,-1133.0,1158.0,-2996.0,1.0,-9628.0,807.0,-8850.0,9837.0,-2.0,-5.0,-2.0,0.0,16.0,-28.0,-11.0,-11.0,0.8187317848205566
251,-1096.0,665.0,-2815.0,1.0,-9242.0,1124.0,-9016.0,10023.0,-2.0,-5.0,-2.0,0.0,16.0,-28.0,-11.0,-11.0,0.8226776123046875
252,-1096.0,665.0,-2815.0,1.0,-9242.0,1124.0,-9016.0,10023.0,9.0,6.0,19.0,22.0,8.0,-63.0,-6.0,4.0,0.8333194255828857
253,-1096.0,665.0,-2815.0,1.0,-9242.0,1124.0,-9016.0,10023.0,2.0,-7.0,1.0,9.0,10.0,-7.0,0.0,5.0,0.835214376449585
254,-1071.0,-7.0,-2656.0,1.0,-8927.0,1499.0,-9109.0,10175.0,2.0,-7.0,1.0,9.0,10.0,-7.0,0.0,5.0,0.8370041847229004
255,-1071.0,-7.0,-2656.0,1.0,-8927.0,1499.0,-9109.0,10175.0,-9.0,-13.0,-4.0,17.0,5.0,16.0,-6.0,-4.0,0.8475444316864014
256,-1071.0,-7.0,-2656.0,1.0,-8927.0,1499.0,-9109.0,10175.0,-4.0,-4.0,-5.0,-30.0,-15.0,10.0,2.0,2.0,0.8493437767028809
257,-1096.0,-763.0,-2365.0,1.0,-8712.0,1927.0,-9129.0,10271.0,-4.0,-4.0,-5.0,-30.0,-15.0,10.0,2.0,2.0,0.8516747951507568
258,-1096.0,-763.0,-2365.0,1.0,-8712.0,1927.0,-9129.0,10271.0,11.0,9.0,13.0,33.0,12.0,40.0,4.0,1.0,0.8538684844970703
259,-1096.0,-763.0,-2365.0,1.0,-8712.0,1927.0,-9129.0,10271.0,4.0,4.0,-6.0,3.0,-10.0,-78.0,-11.0,2.0,0.8692376613616943
260,-738.0,-1171.0,-1680.0,1.0,-8611.0,2304.0,-9078.0,10323.0,4.0,4.0,-6.0,3.0,-10.0,-78.0,-11.0,2.0,0.8773815631866455
261,-738.0,-1171.0,-1680.0,1.0,-8611.0,2304.0,-9078.0,10323.0,-3.0,-10.0,-29.0,-43.0,-15.0,4.0,-3.0,0.0,0.8805069923400879
262,-738.0,-1171.0,-1680.0,1.0,-8611.0,2304.0,-9078.0,10323.0,3.0,9.0,9.0,-1.0,3.0,12.0,3.0,9.0,0.8849074840545654
263,-382.0,-1380.0,-1053.0,1.0,-8568.0,2667.0,-8991.0,10348.0,3.0,9.0,9.0,-1.0,3.0,12.0,3.0,9.0,0.9246864318847656
264,-382.0,-1380.0,-1053.0,1.0,-8568.0,2667.0,-8991.0,10348.0,-10.0,-11.0,-3.0,7.0,-7.0,-15.0,-8.0,-23.0,0.9280896186828613
265,-382.0,-1380.0,-1053.0,1.0,-8568.0,2667.0,-8991.0,10348.0,0.0,3.0,-10.0,-44.0,-98.0,-16.0,-1.0,6.0,0.9309654235839844
266,-253.0,-520.0,-757.0,1.0,-8506.0,2879.0,-8882.0,10436.0,0.0,3.0,-10.0,-44.0,-98.0,-16.0,-1.0,6.0,0.9332749843597412
267,-253.0,-520.0,-757.0,1.0,-8506.0,2879.0,-8882.0,10436.0,0.0,-1.0,-15.0,-32.0,82.0,19.0,5.0,7.0,0.9381089210510254
268,-253.0,-520.0,-757.0,1.0,-8506.0,2879.0,-8882.0,10436.0,3.0,10.0,15.0,35.0,112.0,22.0,-5.0,7.0,0.9399285316467285
269,-726.0,-42.0,525.0,1.0,-8484.0,2986.0,-8999.0,10323.0,3.0,10.0,15.0,35.0,112.0,22.0,-5.0,7.0,0.9417879581451416
270,-726.0,-42.0,525.0,1.0,-8484.0,2986.0,-8999.0,10323.0,-3.0,-2.0,7.0,27.0,-45.0,-3.0,-3.0,-11.0,0.9440734386444092
271,118.0,-29.0,371.0,1.0,-8494.0,2985.0,-9034.0,10284.0,-3.0,-2.0,7.0,27.0,-45.0,-3.0,-3.0,-11.0,0.9465584754943848
272,118.0,-29.0,371.0,1.0,-8494.0,2985.0,-9034.0,10284.0,-4.0,-1.0,6.0,-11.0,-35.0,5.0,6.0,-10.0,0.9518001079559326
273,118.0,-29.0,371.0,1.0,-8494.0,2985.0,-9034.0,10284.0,2.0,4.0,18.0,36.0,-27.0,-16.0,-3.0,11.0,0.9535775184631348
274,-483.0,873.0,821.0,1.0,-8476.0,2866.0,-9185.0,10199.0,2.0,4.0,18.0,36.0,-27.0,-16.0,-3.0,11.0,0.9844400882720947
275,-483.0,873.0,821.0,1.0,-8476.0,2866.0,-9185.0,10199.0,1.0,4.0,1.0,19.0,-6.0,41.0,6.0,3.0,0.9877207279205322
276,-483.0,873.0,821.0,1.0,-8476.0,2866.0,-9185.0,10199.0,4.0,-5.0,-6.0,-6.0,-12.0,-60.0,3.0,20.0,0.9908766746520996
277,-388.0,879.0,698.0,1.0,-8442.0,2746.0,-9338.0,10121.0,4.0,-5.0,-6.0,-6.0,-12.0,-60.0,3.0,20.0,0.9939727783203125
278,-388.0,879.0,698.0,1.0,-8442.0,2746.0,-9338.0,10121.0,-8.0,-3.0,-3.0,-8.0,28.0,-5.0,-31.0,-22.0,0.997567892074585
279,-388.0,879.0,698.0,1.0,-8442.0,2746.0,-9338.0,10121.0,0.0,-1.0,-1.0,-11.0,-17.0,12.0,4.0,0.0,1.0003721714019775
280,402.0,648.0,856.0,1.0,-8490.0,2532.0,-9390.0,10088.0,0.0,-1.0,-1.0,-11.0,-17.0,12.0,4.0,0.0,1.0030653476715088
281,402.0,648.0,856.0,1.0,-8490.0,2532.0,-9390.0,10088.0,5.0,0.0,-3.0,34.0,24.0,-16.0,9.0,16.0,1.0111083984375
282,402.0,648.0,856.0,1.0,-8490.0,2532.0,-9390.0,10088.0,-5.0,2.0,-9.0,-16.0,13.0,24.0,-1.0,-15.0,1.0183565616607666
283,-282.0,551.0,832.0,1.0,-8517.0,2410.0,-9499.0,9993.0,-5.0,2.0,-9.0,-16.0,13.0,24.0,-1.0,-15.0,1.0259642601013184
284,-282.0,551.0,832.0,1.0,-8517.0,2410.0,-9499.0,9993.0,0.0,-8.0,-9.0,11.0,-4.0,17.0,-2.0,0.0,1.0442087650299072
285,-282.0,551.0,832.0,1.0,-8517.0,2410.0,-9499.0,9993.0,-4.0,-1.0,-5.0,-35.0,5.0,23.0,9.0,-8.0,1.04917573928833
286,-447.0,485.0,677.0,1.0,-8532.0,2323.0,-9612.0,9893.0,-4.0,-1.0,-5.0,-35.0,5.0,23.0,9.0,-8.0,1.0511252880096436
287,-447.0,485.0,677.0,1.0,-8532.0,2323.0,-9612.0,9893.0,-1.0,-2.0,-5.0,-14.0,-11.0,-10.0,-1.0,0.0,1.0529725551605225
288,-447.0,485.0,677.0,1.0,-8532.0,2323.0,-9612.0,9893.0,-3.0,-1.0,4.0,41.0,53.0,17.0,-4.0,0.0,1.0547935962677002
289,-99.0,92.0,524.0,1.0,-8585.0,2252.0,-9647.0,9829.0,-3.0,-1.0,4.0,41.0,53.0,17.0,-4.0,0.0,1.0635364055633545
290,-99.0,92.0,524.0,1.0,-8585.0,2252.0,-9647.0,9829.0,2.0,3.0,14.0,58.0,1.0,2.0,5.0,0.0,1.071455955505371
291,-99.0,92.0,524.0,1.0,-8585.0,2252.0,-9647.0,9829.0,1.0,2.0,7.0,-4.0,-14.0,16.0,-1.0,0.0,1.0732948780059814
292,66.0,-403.0,214.0,1.0,-8657.0,2248.0,-9626.0,9787.0,1.0,2.0,7.0,-4.0,-14.0,16.0,-1.0,0.0,1.0888254642486572
293,66.0,-403.0,214.0,1.0,-8657.0,2248.0,-9626.0,9787.0,-6.0,-6.0,-3.0,19.0,-42.0,23.0,4.0,-4.0,1.0947680473327637
294,66.0,-403.0,214.0,1.0,-8657.0,2248.0,-9626.0,9787.0,1.0,0.0,2.0,13.0,-31.0,2.0,-2.0,0.0,1.0966236591339111
295,-90.0,-585.0,-37.0,1.0,-8718.0,2308.0,-9591.0,9753.0,1.0,0.0,2.0,13.0,-31.0,2.0,-2.0,0.0,1.101008653640747
296,-90.0,-585.0,-37.0,1.0,-8718.0,2308.0,-9591.0,9753.0,-2.0,-10.0,13.0,-1.0,-14.0,8.0,5.0,-2.0,1.1100244522094727
297,-90.0,-585.0,-37.0,1.0,-8718.0,2308.0,-9591.0,9753.0,1.0,-4.0,3.0,-17.0,-17.0,-2.0,-4.0,-2.0,1.1160094738006592
298,44.0,-597.0,-82.0,1.0,-8777.0,2366.0,-9534.0,9743.0,1.0,-4.0,3.0,-17.0,-17.0,-2.0,-4.0,-2.0,1.158017635345459
299,44.0,-597.0,-82.0,1.0,-8777.0,2366.0,-9534.0,9743.0,-1.0,-1.0,-7.0,-70.0,26.0,-7.0,1.0,1.0,1.162611484527588
300,44.0,-597.0,-82.0,1.0,-8777.0,2366.0,-9534.0,9743.0,0.0,0.0,-2.0,5.0,-32.0,-14.0,-4.0,4.0,1.1652953624725342
301,134.0,-618.0,-146.0,1.0,-8831.0,2427.0,-9462.0,9749.0,0.0,0.0,-2.0,5.0,-32.0,-14.0,-4.0,4.0,1.167227029800415
302,134.0,-618.0,-146.0,1.0,-8831.0,2427.0,-9462.0,9749.0,-1.0,2.0,0.0,21.0,12.0,-19.0,-4.0,-2.0,1.1690893173217773
303,134.0,-618.0,-146.0,1.0,-8831.0,2427.0,-9462.0,9749.0,2.0,8.0,8.0,12.0,-14.0,3.0,-2.0,1.0,1.1708753108978271
304,12.0,-493.0,-242.0,1.0,-8855.0,2507.0,-9403.0,9763.0,2.0,8.0,8.0,12.0,-14.0,3.0,-2.0,1.0,1.1732287406921387
305,12.0,-493.0,-242.0,1.0,-8855.0,2507.0,-9403.0,9763.0,-3.0,-9.0,-6.0,-31.0,-15.0,-20.0,-1.0,-2.0,1.1754436492919922
306,12.0,-493.0,-242.0,1.0,-8855.0,2507.0,-9403.0,9763.0,1.0,3.0,2.0,-22.0,-31.0,-1.0,-3.0,-7.0,1.1774005889892578
307,150.0,-399.0,-343.0,1.0,-8865.0,2568.0,-9338.0,9801.0,1.0,3.0,2.0,-22.0,-31.0,-1.0,-3.0,-7.0,1.2019340991973877
308,150.0,-399.0,-343.0,1.0,-8865.0,2568.0,-9338.0,9801.0,-4.0,-12.0,-22.0,-18.0,-19.0,-16.0,-6.0,-3.0,1.2050611972808838
309,150.0,-399.0,-343.0,1.0,-8865.0,2568.0,-9338.0,9801.0,0.0,-3.0,-4.0,7.0,18.0,5.0,2.0,5.0,1.2080683708190918
310,225.0,-336.0,-288.0,1.0,-8875.0,2609.0,-9279.0,9838.0,0.0,-3.0,-4.0,7.0,18.0,5.0,2.0,5.0,1.2148945331573486
311,225.0,-336.0,-288.0,1.0,-8875.0,2609.0,-9279.0,9838.0,-2.0,1.0,-13.0,-52.0,11.0,-3.0,-3.0,-7.0,1.2170121669769287
312,225.0,-336.0,-288.0,1.0,-8875.0,2609.0,-9279.0,9838.0,-1.0,-1.0,-7.0,-28.0,-8.0,-1.0,4.0,1.0,1.2188746929168701
313,210.0,-243.0,-242.0,1.0,-8876.0,2642.0,-9229.0,9875.0,-1.0,-1.0,-7.0,-28.0,-8.0,-1.0,4.0,1.0,1.2206697463989258
314,210.0,-243.0,-242.0,1.0,-8876.0,2642.0,-9229.0,9875.0,1.0,0.0,-13.0,-36.0,10.0,6.0,4.0,-1.0,1.2295269966125488
315,210.0,-243.0,-242.0,1.0,-8876.0,2642.0,-9229.0,9875.0,-3.0,-1.0,-3.0,-24.0,29.0,8.0,2.0,1.0,1.2314040660858154
316,136.0,-68.0,-186.0,1.0,-8868.0,2654.0,-9199.0,9906.0,-3.0,-1.0,-3.0,-24.0,29.0,8.0,2.0,1.0,1.2537143230438232
317,136.0,-68.0,-186.0,1.0,-8868.0,2654.0,-9199.0,9906.0,3.0,5.0,19.0,56.0,21.0,-1.0,-5.0,-2.0,1.2591817378997803
318,136.0,-68.0,-186.0,1.0,-8868.0,2654.0,-9199.0,9906.0,-2.0,-3.0,1.0,-29.0,-22.0,-46.0,-10.0,-5.0,1.262718677520752
319,-23.0,66.0,-73.0,1.0,-8853.0,2660.0,-9197.0,9920.0,-2.0,-3.0,1.0,-29.0,-22.0,-46.0,-10.0,-5.0,1.2669496536254883
320,-23.0,66.0,-73.0,1.0,-8853.0,2660.0,-9197.0,9920.0,4.0,8.0,12.0,26.0,32.0,-12.0,3.0,7.0,1.2816152572631836
321,-23.0,66.0,-73.0,1.0,-8853.0,2660.0,-9197.0,9920.0,-2.0,-4.0,-3.0,31.0,26.0,22.0,3.0,5.0,1.2853546142578125
322,-96.0,416.0,-2.0,1.0,-8804.0,2634.0,-9240.0,9930.0,-2.0,-4.0,-3.0,31.0,26.0,22.0,3.0,5.0,1.3066966533660889
323,-96.0,416.0,-2.0,1.0,-8804.0,2634.0,-9240.0,9930.0,-2.0,5.0,5.0,50.0,41.0,15.0,-1.0,-13.0,1.3103694915771484
324,-96.0,416.0,-2.0,1.0,-8804.0,2634.0,-9240.0,9930.0,1.0,-6.0,1.0,27.0,-7.0,-2.0,2.0,12.0,1.3138160705566406
325,-91.0,401.0,-20.0,1.0,-8759.0,2605.0,-9279.0,9941.0,1.0,-6.0,1.0,27.0,-7.0,-2.0,2.0,12.0,1.3180875778198242
326,-91.0,401.0,-20.0,1.0,-8759.0,2605.0,-9279.0,9941.0,-2.0,-6.0,0.0,13.0,-6.0,16.0,-3.0,2.0,1.3205702304840088
327,-91.0,401.0,-20.0,1.0,-8759.0,2605.0,-9279.0,9941.0,-1.0,1.0,5.0,7.0,6.0,-28.0,2.0,1.0,1.3225336074829102
328,-5.0,274.0,27.0,1.0,-8733.0,2576.0,-9307.0,9946.0,-1.0,1.0,5.0,7.0,6.0,-28.0,2.0,1.0,1.3266940116882324
329,-5.0,274.0,27.0,1.0,-8733.0,2576.0,-9307.0,9946.0,0.0,2.0,5.0,-1.0,2.0,13.0,9.0,8.0,1.3426628112792969
330,-5.0,274.0,27.0,1.0,-8733.0,2576.0,-9307.0,9946.0,1.0,1.0,5.0,0.0,9.0,5.0,4.0,17.0,1.3456392288208008
331,-8.0,252.0,2.0,1.0,-8704.0,2552.0,-9334.0,9952.0,1.0,1.0,5.0,0.0,9.0,5.0,4.0,17.0,1.3497653007507324
332,-8.0,252.0,2.0,1.0,-8704.0,2552.0,-9334.0,9952.0,-1.0,2.0,0.0,6.0,-25.0,-45.0,-22.0,-14.0,1.353055715560913
333,-8.0,252.0,2.0,1.0,-8704.0,2552.0,-9334.0,9952.0,-1.0,-3.0,-1.0,3.0,16.0,47.0,3.0,-7.0,1.375009298324585
334,-19.0,261.0,19.0,1.0,-8676.0,2526.0,-9366.0,9953.0,-1.0,-3.0,-1.0,3.0,16.0,47.0,3.0,-7.0,1.378345012664795
335,-19.0,261.0,19.0,1.0,-8676.0,2526.0,-9366.0,9953.0,3.0,4.0,4.0,-11.0,-4.0,5.0,7.0,4.0,1.380706787109375
336,-19.0,261.0,19.0,1.0,-8676.0,2526.0,-9366.0,9953.0,-2.0,-2.0,-3.0,1.0,-11.0,-7.0,-6.0,-17.0,1.3825724124908447
337,-61.0,286.0,54.0,1.0,-8646.0,2500.0,-9407.0,9948.0,-2.0,-2.0,-3.0,1.0,-11.0,-7.0,-6.0,-17.0,1.3863322734832764
338,-61.0,286.0,54.0,1.0,-8646.0,2500.0,-9407.0,9948.0,0.0,2.0,0.0,-8.0,-15.0,-11.0,-5.0,-3.0,1.40185546875
339,-61.0,286.0,54.0,1.0,-8646.0,2500.0,-9407.0,9948.0,0.0,-1.0,-6.0,-2.0,8.0,-3.0,3.0,-2.0,1.4105846881866455
340,-90.0,265.0,70.0,1.0,-8613.0,2485.0,-9451.0,9938.0,0.0,-1.0,-6.0,-2.0,8.0,-3.0,3.0,-2.0,1.4125416278839111
341,-90.0,265.0,70.0,1.0,-8613.0,2485.0,-9451.0,9938.0,-3.0,-2.0,-1.0,7.0,-1.0,-28.0,-2.0,-6.0,1.4144399166107178
342,-90.0,265.0,70.0,1.0,-8613.0,2485.0,-9451.0,9938.0,0.0,-2.0,5.0,-16.0,-6.0,0.0,-3.0,-1.0,1.4162592887878418
343,-18.0,201.0,67.0,1.0,-8590.0,2466.0,-9482.0,9932.0,0.0,-2.0,5.0,-16.0,-6.0,0.0,-3.0,-1.0,1.423421859741211
344,-18.0,201.0,67.0,1.0,-8590.0,2466.0,-9482.0,9932.0,-3.0,-1.0,1.0,-5.0,-7.0,1.0,9.0,5.0,1.4313960075378418
345,-18.0,201.0,67.0,1.0,-8590.0,2466.0,-9482.0,9932.0,4.0,2.0,-1.0,12.0,34.0,-24.0,-5.0,1.0,1.433236837387085
346,52.0,169.0,138.0,1.0,-8576.0,2440.0,-9512.0,9923.0,4.0,2.0,-1.0,12.0,34.0,-24.0,-5.0,1.0,1.446049451828003
347,52.0,169.0,138.0,1.0,-8576.0,2440.0,-9512.0,9923.0,0.0,1.0,-7.0,-7.0,4.0,22.0,2.0,2.0,1.455442190170288
348,52.0,169.0,138.0,1.0,-8576.0,2440.0,-9512.0,9923.0,-2.0,2.0,-5.0,-4.0,-30.0,5.0,-2.0,-7.0,1.458611011505127
349,151.0,184.0,232.0,1.0,-8567.0,2401.0,-9537.0,9916.0,-2.0,2.0,-5.0,-4.0,-30.0,5.0,-2.0,-7.0,1.487205982208252
350,151.0,184.0,232.0,1.0,-8567.0,2401.0,-9537.0,9916.0,0.0,1.0,2.0,4.0,-9.0,14.0,6.0,8.0,1.4920451641082764
351,151.0,184.0,232.0,1.0,-8567.0,2401.0,-9537.0,9916.0,-1.0,-2.0,-1.0,-2.0,-3.0,-11.0,4.0,8.0,1.4962434768676758
352,217.0,252.0,339.0,1.0,-8560.0,2339.0,-9572.0,9903.0,-1.0,-2.0,-1.0,-2.0,-3.0,-11.0,4.0,8.0,1.5001001358032227
353,217.0,252.0,339.0,1.0,-8560.0,2339.0,-9572.0,9903.0,1.0,1.0,2.0,-6.0,-7.0,-18.0,-3.0,-3.0,1.5026130676269531
354,217.0,252.0,339.0,1.0,-8560.0,2339.0,-9572.0,9903.0,0.0,-1.0,-2.0,0.0,2.0,4.0,0.0,-1.0,1.504626750946045
355,370.0,386.0,526.0,1.0,-8557.0,2234.0,-9613.0,9890.0,0.0,-1.0,-2.0,0.0,2.0,4.0,0.0,-1.0,1.5064849853515625
356,370.0,386.0,526.0,1.0,-8557.0,2234.0,-9613.0,9890.0,3.0,0.0,-1.0,-5.0,-28.0,13.0,-3.0,1.0,1.5221548080444336
357,370.0,386.0,526.0,1.0,-8557.0,2234.0,-9613.0,9890.0,0.0,1.0,-1.0,7.0,10.0,13.0,1.0,-1.0,1.5251390933990479
358,600.0,584.0,773.0,1.0,-8560.0,2063.0,-9660.0,9880.0,0.0,1.0,-1.0,7.0,10.0,13.0,1.0,-1.0,1.5296480655670166
359,600.0,584.0,773.0,1.0,-8560.0,2063.0,-9660.0,9880.0,1.0,-3.0,-3.0,-4.0,-1.0,-14.0,1.0,0.0,1.538055181503296
360,600.0,584.0,773.0,1.0,-8560.0,2063.0,-9660.0,9880.0,-3.0,-2.0,-1.0,-6.0,-26.0,25.0,-2.0,-7.0,1.5404996871948242
361,860.0,780.0,1052.0,1.0,-8571.0,1820.0,-9706.0,9872.0,-3.0,-2.0,-1.0,-6.0,-26.0,25.0,-2.0,-7.0,1.553034782409668
362,860.0,780.0,1052.0,1.0,-8571.0,1820.0,-9706.0,9872.0,-1.0,-1.0,-1.0,1.0,12.0,3.0,-4.0,-5.0,1.555922508239746
363,860.0,780.0,1052.0,1.0,-8571.0,1820.0,-9706.0,9872.0,3.0,4.0,4.0,7.0,24.0,-43.0,-9.0,-2.0,1.5593740940093994
364,1204.0,883.0,1284.0,1.0,-8593.0,1514.0,-9734.0,9877.0,3.0,4.0,4.0,7.0,24.0,-43.0,-9.0,-2.0,1.5662169456481934
365,1204.0,883.0,1284.0,1.0,-8593.0,1514.0,-9734.0,9877.0,-1.0,-2.0,-4.0,-2.0,-3.0,5.0,0.0,1.0,1.5743019580841064
366,1204.0,883.0,1284.0,1.0,-8593.0,1514.0,-9734.0,9877.0,-2.0,-1.0,-4.0,-4.0,-7.0,4.0,0.0,-2.0,1.576096534729004
367,1530.0,895.0,1522.0,1.0,-8635.0,1152.0,-9734.0,9890.0,-2.0,-1.0,-4.0,-4.0,-7.0,4.0,0.0,-2.0,1.5889503955841064
368,1530.0,895.0,1522.0,1.0,-8635.0,1152.0,-9734.0,9890.0,-1.0,0.0,-1.0,1.0,5.0,-5.0,3.0,5.0,1.6079857349395752
369,1530.0,895.0,1522.0,1.0,-8635.0,1152.0,-9734.0,9890.0,0.0,-1.0,2.0,2.0,0.0,-11.0,-8.0,-1.0,1.612055778503418
370,1917.0,831.0,1768.0,1.0,-8745.0,705.0,-9639.0,9928.0,0.0,-1.0,2.0,2.0,0.0,-11.0,-8.0,-1.0,1.6161532402038574
371,1917.0,831.0,1768.0,1.0,-8745.0,705.0,-9639.0,9928.0,-4.0,-3.0,-3.0,-6.0,-15.0,9.0,0.0,-3.0,1.619429588317871
372,1917.0,831.0,1768.0,1.0,-8745.0,705.0,-9639.0,9928.0,-3.0,-2.0,-4.0,-2.0,-3.0,20.0,5.0,2.0,1.6212210655212402
373,2261.0,683.0,2014.0,1.0,-8889.0,214.0,-9488.0,9968.0,-3.0,-2.0,-4.0,-2.0,-3.0,20.0,5.0,2.0,1.6257169246673584
374,2261.0,683.0,2014.0,1.0,-8889.0,214.0,-9488.0,9968.0,1.0,1.0,1.0,0.0,3.0,-12.0,-3.0,1.0,1.6343731880187988
375,2261.0,683.0,2014.0,1.0,-8889.0,214.0,-9488.0,9968.0,-2.0,-3.0,-3.0,-1.0,3.0,4.0,0.0,2.0,1.6361584663391113
376,2528.0,465.0,2330.0,1.0,-9078.0,-310.0,-9277.0,9994.0,-2.0,-3.0,-3.0,-1.0,3.0,4.0,0.0,2.0,1.6489708423614502
377,2528.0,465.0,2330.0,1.0,-9078.0,-310.0,-9277.0,9994.0,-2.0,-2.0,-3.0,-2.0,4.0,9.0,1.0,-2.0,1.6508522033691406
378,2528.0,465.0,2330.0,1.0,-9078.0,-310.0,-9277.0,9994.0,-2.0,0.0,1.0,-1.0,14.0,-22.0,-11.0,-10.0,1.6718394756317139
379,2830.0,182.0,2765.0,1.0,-9326.0,-877.0,-8990.0,9994.0,-2.0,0.0,1.0,-1.0,14.0,-22.0,-11.0,-10.0,1.6899082660675049
380,2830.0,182.0,2765.0,1.0,-9326.0,-877.0,-8990.0,9994.0,0.0,1.0,2.0,3.0,-3.0,6.0,2.0,-4.0,1.6941578388214111
381,2830.0,182.0,2765.0,1.0,-9326.0,-877.0,-8990.0,9994.0,2.0,1.0,-3.0,-3.0,-3.0,-22.0,-1.0,18.0,1.6972317695617676
382,3275.0,-104.0,3358.0,1.0,-9642.0,-1512.0,-8602.0,9960.0,2.0,1.0,-3.0,-3.0,-3.0,-22.0,-1.0,18.0,1.700211763381958
383,3275.0,-104.0,3358.0,1.0,-9642.0,-1512.0,-8602.0,9960.0,-4.0,0.0,2.0,1.0,-1.0,-27.0,-25.0,-24.0,1.710543155670166
384,3275.0,-104.0,3358.0,1.0,-9642.0,-1512.0,-8602.0,9960.0,2.0,-2.0,-4.0,-2.0,18.0,25.0,15.0,13.0,1.7123394012451172
385,3847.0,-332.0,4211.0,1.0,-10032.0,-2258.0,-8087.0,9864.0,2.0,-2.0,-4.0,-2.0,18.0,25.0,15.0,13.0,1.7141609191894531
386,3847.0,-332.0,4211.0,1.0,-10032.0,-2258.0,-8087.0,9864.0,-7.0,-4.0,-1.0,0.0,-5.0,-56.0,-15.0,-6.0,1.7161986827850342
387,3847.0,-332.0,4211.0,1.0,-10032.0,-2258.0,-8087.0,9864.0,1.0,2.0,-1.0,-4.0,-39.0,16.0,-1.0,0.0,1.7241692543029785
388,4531.0,-476.0,5225.0,1.0,-10482.0,-3151.0,-7421.0,9674.0,1.0,2.0,-1.0,-4.0,-39.0,16.0,-1.0,0.0,1.7260065078735352
389,4531.0,-476.0,5225.0,1.0,-10482.0,-3151.0,-7421.0,9674.0,33.0,4.0,-4.0,-6.0,-42.0,109.0,11.0,116.0,1.7332751750946045
390,4531.0,-476.0,5225.0,1.0,-10482.0,-3151.0,-7421.0,9674.0,-8.0,-20.0,-8.0,12.0,49.0,103.0,22.0,-72.0,1.7355425357818604
391,5197.0,-631.0,6381.0,1.0,-10976.0,-4191.0,-6570.0,9341.0,-8.0,-20.0,-8.0,12.0,49.0,103.0,22.0,-72.0,1.7458951473236084
392,5197.0,-631.0,6381.0,1.0,-10976.0,-4191.0,-6570.0,9341.0,26.0,4.0,4.0,-5.0,71.0,117.0,-26.0,87.0,1.755833387374878
393,5197.0,-631.0,6381.0,1.0,-10976.0,-4191.0,-6570.0,9341.0,-43.0,-22.0,-23.0,-32.0,18.0,-44.0,-102.0,-47.0,1.759084701538086
394,5172.0,-766.0,7464.0,1.0,-11500.0,-5276.0,-5576.0,8791.0,-43.0,-22.0,-23.0,-32.0,18.0,-44.0,-102.0,-47.0,1.7786719799041748
395,5172.0,-766.0,7464.0,1.0,-11500.0,-5276.0,-5576.0,8791.0,-27.0,-6.0,5.0,38.0,127.0,40.0,52.0,10.0,1.7836642265319824
396,5172.0,-766.0,7464.0,1.0,-11500.0,-5276.0,-5576.0,8791.0,27.0,15.0,23.0,51.0,83.0,82.0,118.0,-46.0,1.787670612335205
397,3173.0,-380.0,8809.0,1.0,-12136.0,-6154.0,-4659.0,7847.0,27.0,15.0,23.0,51.0,83.0,82.0,118.0,-46.0,1.798532247543335
398,3173.0,-380.0,8809.0,1.0,-12136.0,-6154.0,-4659.0,7847.0,-29.0,-12.0,-19.0,-27.0,-31.0,7.0,-36.0,-32.0,1.8177967071533203
399,3173.0,-380.0,8809.0,1.0,-12136.0,-6154.0,-4659.0,7847.0,5.0,-5.0,1.0,94.0,88.0,89.0,83.0,-10.0,1.8217308521270752
400,1597.0,-588.0,10225.0,1.0,-12852.0,-6792.0,-3735.0,6572.0,5.0,-5.0,1.0,94.0,88.0,89.0,83.0,-10.0,1.8254437446594238
401,1597.0,-588.0,10225.0,1.0,-12852.0,-6792.0,-3735.0,6572.0,40.0,60.0,35.0,-41.0,5.0,-128.0,-15.0,-70.0,1.8281803131103516
402,1597.0,-588.0,10225.0,1.0,-12852.0,-6792.0,-3735.0,6572.0,-30.0,20.0,-37.0,8.0,-65.0,-128.0,-63.0,21.0,1.8300156593322754
403,4205.0,-2853.0,10870.0,1.0,-13322.0,-7555.0,-2209.0,5385.0,-30.0,20.0,-37.0,8.0,-65.0,-128.0,-63.0,21.0,1.8318092823028564
404,4205.0,-2853.0,10870.0,1.0,-13322.0,-7555.0,-2209.0,5385.0,47.0,40.0,57.0,99.0,80.0,-4.0,40.0,-41.0,1.8369395732879639
405,4205.0,-2853.0,10870.0,1.0,-13322.0,-7555.0,-2209.0,5385.0,43.0,14.0,-64.0,-98.0,-118.0,-70.0,-84.0,-8.0,1.8395133018493652
406,2034.0,-3963.0,10306.0,1.0,-13734.0,-7845.0,-662.0,4225.0,43.0,14.0,-64.0,-98.0,-118.0,-70.0,-84.0,-8.0,1.8521928787231445
407,2034.0,-3963.0,10306.0,1.0,-13734.0,-7845.0,-662.0,4225.0,-9.0,91.0,-77.0,-75.0,27.0,-46.0,-10.0,45.0,1.8540682792663574
408,2034.0,-3963.0,10306.0,1.0,-13734.0,-7845.0,-662.0,4225.0,1.0,97.0,45.0,-36.0,61.0,-45.0,47.0,65.0,1.8558733463287354
409,6590.0,-2305.0,5330.0,1.0,-13371.0,-8724.0,441.0,3654.0,1.0,97.0,45.0,-36.0,61.0,-45.0,47.0,65.0,1.8661470413208008
410,6590.0,-2305.0,5330.0,1.0,-13371.0,-8724.0,441.0,3654.0,-117.0,-128.0,-97.0,-97.0,14.0,-36.0,-8.0,4.0,1.8740005493164062
411,6590.0,-2305.0,5330.0,1.0,-13371.0,-8724.0,441.0,3654.0,46.0,61.0,95.0,-26.0,-96.0,40.0,15.0,106.0,1.8766613006591797
412,2794.0,-1371.0,-48.0,1.0,-13089.0,-9072.0,748.0,3776.0,46.0,61.0,95.0,-26.0,-96.0,40.0,15.0,106.0,1.899052381515503
413,2794.0,-1371.0,-48.0,1.0,-13089.0,-9072.0,748.0,3776.0,-67.0,-109.0,69.0,110.0,39.0,-36.0,37.0,-117.0,1.9032468795776367
414,2794.0,-1371.0,-48.0,1.0,-13089.0,-9072.0,748.0,3776.0,52.0,-128.0,7.0,52.0,-118.0,20.0,-73.0,-35.0,1.9065968990325928
415,3489.0,-659.0,6479.0,1.0,-12983.0,-9433.0,1620.0,2881.0,52.0,-128.0,7.0,52.0,-118.0,20.0,-73.0,-35.0,1.9084155559539795
416,3489.0,-659.0,6479.0,1.0,-12983.0,-9433.0,1620.0,2881.0,-26.0,-101.0,-24.0,-68.0,-39.0,-36.0,0.0,88.0,1.9120121002197266
417,3489.0,-659.0,6479.0,1.0,-12983.0,-9433.0,1620.0,2881.0,-26.0,-101.0,-24.0,-68.0,-39.0,-36.0,0.0,88.0,1.9281015396118164
418,3489.0,-659.0,6479.0,1.0,-12983.0,-9433.0,1620.0,2881.0,3.0,46.0,28.0,10.0,-4.0,-23.0,-42.0,81.0,1.9316608905792236
419,-1168.0,-605.0,5418.0,1.0,-13273.0,-9088.0,2191.0,2212.0,3.0,46.0,28.0,10.0,-4.0,-23.0,-42.0,81.0,1.9347233772277832
420,-1168.0,-605.0,5418.0,1.0,-13273.0,-9088.0,2191.0,2212.0,-72.0,34.0,-46.0,6.0,23.0,114.0,20.0,-83.0,1.9507625102996826
421,-1168.0,-605.0,5418.0,1.0,-13273.0,-9088.0,2191.0,2212.0,57.0,57.0,-1.0,38.0,103.0,8.0,81.0,-99.0,1.9542083740234375
422,-1442.0,-940.0,1593.0,1.0,-13514.0,-8688.0,2422.0,2116.0,57.0,57.0,-1.0,38.0,103.0,8.0,81.0,-99.0,1.9576177597045898
423,-1442.0,-940.0,1593.0,1.0,-13514.0,-8688.0,2422.0,2116.0,111.0,127.0,25.0,31.0,-62.0,2.0,-6.0,-13.0,1.96047043800354
424,-1442.0,-940.0,1593.0,1.0,-13514.0,-8688.0,2422.0,2116.0,-31.0,53.0,12.0,44.0,-4.0,-41.0,21.0,99.0,1.962627649307251
425,917.0,-817.0,474.0,1.0,-13415.0,-8791.0,2609.0,2099.0,-31.0,53.0,12.0,44.0,-4.0,-41.0,21.0,99.0,1.9644505977630615
426,917.0,-817.0,474.0,1.0,-13415.0,-8791.0,2609.0,2099.0,32.0,-84.0,-18.0,-83.0,-25.0,-3.0,-12.0,13.0,1.9726521968841553
427,917.0,-817.0,474.0,1.0,-13415.0,-8791.0,2609.0,2099.0,-22.0,-97.0,23.0,-128.0,18.0,-44.0,-14.0,-94.0,1.974644422531128
428,949.0,-577.0,-305.0,1.0,-13299.0,-8925.0,2685.0,2171.0,-22.0,-97.0,23.0,-128.0,18.0,-44.0,-14.0,-94.0,1.9861600399017334
429,949.0,-577.0,-305.0,1.0,-13299.0,-8925.0,2685.0,2171.0,24.0,-3.0,28.0,94.0,-55.0,-48.0,-38.0,15.0,1.9944980144500732
430,949.0,-577.0,-305.0,1.0,-13299.0,-8925.0,2685.0,2171.0,1.0,-63.0,-81.0,-16.0,20.0,57.0,-5.0,-1.0,1.9963178634643555
431,571.0,-348.0,965.0,1.0,-13197.0,-9048.0,2883.0,2029.0,1.0,-63.0,-81.0,-16.0,20.0,57.0,-5.0,-1.0,2.0095808506011963
432,571.0,-348.0,965.0,1.0,-13197.0,-9048.0,2883.0,2029.0,12.0,5.0,4.0,2.0,-28.0,42.0,-8.0,74.0,2.0271310806274414
433,571.0,-348.0,965.0,1.0,-13197.0,-9048.0,2883.0,2029.0,-44.0,-11.0,-5.0,4.0,38.0,14.0,9.0,44.0,2.03098464012146
434,585.0,-222.0,-3.0,1.0,-13162.0,-9081.0,2951.0,2011.0,-44.0,-11.0,-5.0,4.0,38.0,14.0,9.0,44.0,2.0335512161254883
435,585.0,-222.0,-3.0,1.0,-13162.0,-9081.0,2951.0,2011.0,31.0,8.0,-38.0,-78.0,41.0,36.0,28.0,3.0,2.035797595977783
436,585.0,-222.0,-3.0,1.0,-13162.0,-9081.0,2951.0,2011.0,-4.0,9.0,21.0,32.0,-39.0,49.0,-2.0,36.0,2.037649631500244
437,1151.0,-63.0,-203.0,1.0,-13105.0,-9160.0,2970.0,1994.0,-4.0,9.0,21.0,32.0,-39.0,49.0,-2.0,36.0,2.046161651611328
438,1151.0,-63.0,-203.0,1.0,-13105.0,-9160.0,2970.0,1994.0,-9.0,23.0,74.0,21.0,-54.0,-57.0,0.0,-35.0,2.054718255996704
439,1151.0,-63.0,-203.0,1.0,-13105.0,-9160.0,2970.0,1994.0,-13.0,-13.0,-9.0,50.0,3.0,19.0,-2.0,-62.0,2.056899070739746
440,1098.0,105.0,4.0,1.0,-13027.0,-9276.0,3000.0,1927.0,-13.0,-13.0,-9.0,50.0,3.0,19.0,-2.0,-62.0,2.068636178970337
441,1098.0,105.0,4.0,1.0,-13027.0,-9276.0,3000.0,1927.0,-37.0,11.0,30.0,43.0,3.0,-1.0,-4.0,-45.0,2.0793185234069824
442,1098.0,105.0,4.0,1.0,-13027.0,-9276.0,3000.0,1927.0,-16.0,-14.0,4.0,23.0,12.0,-29.0,6.0,2.0,2.082646131515503
443,116.0,264.0,113.0,1.0,-13019.0,-9301.0,2992.0,1870.0,-16.0,-14.0,4.0,23.0,12.0,-29.0,6.0,2.0,2.0923616886138916
444,116.0,264.0,113.0,1.0,-13019.0,-9301.0,2992.0,1870.0,6.0,-6.0,-28.0,-31.0,-40.0,-19.0,-14.0,-2.0,2.094485282897949
445,116.0,264.0,113.0,1.0,-13019.0,-9301.0,2992.0,1870.0,-10.0,6.0,-14.0,-71.0,-15.0,-41.0,-5.0,-16.0,2.096709966659546
446,-710.0,264.0,140.0,1.0,-13082.0,-9227.0,2966.0,1841.0,-10.0,6.0,-14.0,-71.0,-15.0,-41.0,-5.0,-16.0,2.1059179306030273
447,-710.0,264.0,140.0,1.0,-13082.0,-9227.0,2966.0,1841.0,14.0,-12.0,6.0,42.0,17.0,17.0,3.0,-7.0,2.114565849304199
448,-710.0,264.0,140.0,1.0,-13082.0,-9227.0,2966.0,1841.0,-25.0,3.0,-7.0,32.0,-82.0,-20.0,-24.0,-11.0,2.117506742477417
449,-758.0,179.0,79.0,1.0,-13141.0,-9151.0,2943.0,1833.0,-25.0,3.0,-7.0,32.0,-82.0,-20.0,-24.0,-11.0,2.12857985496521
450,-758.0,179.0,79.0,1.0,-13141.0,-9151.0,2943.0,1833.0,64.0,23.0,12.0,20.0,-63.0,-38.0,-10.0,23.0,2.1370747089385986
451,-758.0,179.0,79.0,1.0,-13141.0,-9151.0,2943.0,1833.0,-23.0,2.0,-4.0,19.0,39.0,3.0,-3.0,-18.0,2.138911008834839
452,-375.0,84.0,-17.0,1.0,-13153.0,-9137.0,2933.0,1835.0,-23.0,2.0,-4.0,19.0,39.0,3.0,-3.0,-18.0,2.1434967517852783
453,-375.0,84.0,-17.0,1.0,-13153.0,-9137.0,2933.0,1835.0,-7.0,3.0,-20.0,17.0,16.0,12.0,10.0,9.0,2.1600208282470703
454,-375.0,84.0,-17.0,1.0,-13153.0,-9137.0,2933.0,1835.0,-17.0,-7.0,-14.0,-23.0,-56.0,-11.0,-13.0,-36.0,2.1659533977508545
455,-42.0,18.0,-168.0,1.0,-13133.0,-9164.0,2928.0,1851.0,-17.0,-7.0,-14.0,-23.0,-56.0,-11.0,-13.0,-36.0,2.1693527698516846
456,-42.0,18.0,-168.0,1.0,-13133.0,-9164.0,2928.0,1851.0,-38.0,-13.0,2.0,-7.0,26.0,4.0,7.0,26.0,2.174297571182251
457,-42.0,18.0,-168.0,1.0,-13133.0,-9164.0,2928.0,1851.0,-11.0,2.0,6.0,-21.0,43.0,1.0,3.0,14.0,2.176889419555664
458,95.0,-34.0,-240.0,1.0,-13107.0,-9195.0,2929.0,1874.0,-11.0,2.0,6.0,-21.0,43.0,1.0,3.0,14.0,2.1900181770324707
459,95.0,-34.0,-240.0,1.0,-13107.0,-9195.0,2929.0,1874.0,-21.0,-9.0,2.0,19.0,-2.0,6.0,-6.0,-29.0,2.19673490524292
460,95.0,-34.0,-240.0,1.0,-13107.0,-9195.0,2929.0,1874.0,9.0,-6.0,-26.0,-21.0,-14.0,-33.0,-5.0,26.0,2.1985323429107666
461,61.0,-50.0,-278.0,1.0,-13098.0,-9204.0,2929.0,1902.0,9.0,-6.0,-26.0,-21.0,-14.0,-33.0,-5.0,26.0,2.203583002090454
462,61.0,-50.0,-278.0,1.0,-13098.0,-9204.0,2929.0,1902.0,12.0,5.0,6.0,-41.0,51.0,32.0,2.0,-39.0,2.2111775875091553
463,61.0,-50.0,-278.0,1.0,-13098.0,-9204.0,2929.0,1902.0,7.0,1.0,0.0,18.0,0.0,30.0,9.0,1.0,2.2186198234558105
464,20.0,-45.0,-258.0,1.0,-13096.0,-9201.0,2927.0,1928.0,7.0,1.0,0.0,18.0,0.0,30.0,9.0,1.0,2.235333204269409
465,20.0,-45.0,-258.0,1.0,-13096.0,-9201.0,2927.0,1928.0,-2.0,-4.0,-4.0,-11.0,-16.0,-7.0,7.0,10.0,2.242703676223755
466,20.0,-45.0,-258.0,1.0,-13096.0,-9201.0,2927.0,1928.0,-9.0,-6.0,-9.0,4.0,62.0,-6.0,1.0,-5.0,2.2464051246643066
467,-15.0,-43.0,-278.0,1.0,-13102.0,-9187.0,2924.0,1957.0,-9.0,-6.0,-9.0,4.0,62.0,-6.0,1.0,-5.0,2.251612424850464
468,-15.0,-43.0,-278.0,1.0,-13102.0,-9187.0,2924.0,1957.0,2.0,0.0,11.0,0.0,-23.0,9.0,14.0,15.0,2.255850076675415
469,-15.0,-43.0,-278.0,1.0,-13102.0,-9187.0,2924.0,1957.0,-4.0,-5.0,-6.0,2.0,-19.0,2.0,-6.0,-10.0,2.26357102394104
470,-48.0,-23.0,-237.0,1.0,-13105.0,-9180.0,2915.0,1984.0,-4.0,-5.0,-6.0,2.0,-19.0,2.0,-6.0,-10.0,2.27189302444458
471,-48.0,-23.0,-237.0,1.0,-13105.0,-9180.0,2915.0,1984.0,-14.0,-6.0,-7.0,0.0,9.0,1.0,-8.0,-10.0,2.274848222732544
472,-48.0,-23.0,-237.0,1.0,-13105.0,-9180.0,2915.0,1984.0,8.0,2.0,-4.0,-12.0,-9.0,3.0,10.0,1.0,2.2780449390411377
473,-215.0,-30.0,-185.0,1.0,-13126.0,-9146.0,2914.0,2007.0,8.0,2.0,-4.0,-12.0,-9.0,3.0,10.0,1.0,2.2862515449523926
474,-215.0,-30.0,-185.0,1.0,-13126.0,-9146.0,2914.0,2007.0,-6.0,3.0,17.0,28.0,-42.0,-15.0,-5.0,-3.0,2.3116655349731445
475,-215.0,-30.0,-185.0,1.0,-13126.0,-9146.0,2914.0,2007.0,7.0,5.0,14.0,6.0,2.0,-2.0,2.0,1.0,2.314133405685425
476,-341.0,-66.0,-240.0,1.0,-13157.0,-9092.0,2920.0,2037.0,7.0,5.0,14.0,6.0,2.0,-2.0,2.0,1.0,2.316274881362915
477,-341.0,-66.0,-240.0,1.0,-13157.0,-9092.0,2920.0,2037.0,5.0,-3.0,-5.0,-5.0,-2.0,-8.0,-11.0,-7.0,2.3187568187713623
478,-341.0,-66.0,-240.0,1.0,-13157.0,-9092.0,2920.0,2037.0,11.0,4.0,-1.0,-3.0,0.0,-1.0,-2.0,-1.0,2.3208515644073486
479,-451.0,-121.0,-316.0,1.0,-13202.0,-9012.0,2935.0,2079.0,11.0,4.0,-1.0,-3.0,0.0,-1.0,-2.0,-1.0,2.333221912384033
480,-451.0,-121.0,-316.0,1.0,-13202.0,-9012.0,2935.0,2079.0,-4.0,-5.0,-19.0,-14.0,-4.0,-6.0,0.0,-3.0,2.3375983238220215
481,-451.0,-121.0,-316.0,1.0,-13202.0,-9012.0,2935.0,2079.0,0.0,0.0,0.0,-42.0,13.0,0.0,1.0,4.0,2.341977834701538
482,-473.0,-191.0,-456.0,1.0,-13245.0,-8928.0,2951.0,2145.0,0.0,0.0,0.0,-42.0,13.0,0.0,1.0,4.0,2.3563475608825684
483,-473.0,-191.0,-456.0,1.0,-13245.0,-8928.0,2951.0,2145.0,1.0,1.0,-3.0,12.0,0.0,-2.0,0.0,-2.0,2.3600380420684814
484,-473.0,-191.0,-456.0,1.0,-13245.0,-8928.0,2951.0,2145.0,1.0,1.0,-3.0,12.0,0.0,-2.0,0.0,-2.0,2.3636960983276367
485,-473.0,-191.0,-456.0,1.0,-13245.0,-8928.0,2951.0,2145.0,-5.0,-3.0,-4.0,7.0,-19.0,-4.0,1.0,1.0,2.3697991371154785
486,-567.0,-293.0,-493.0,1.0,-13288.0,-8835.0,2976.0,2230.0,-5.0,-3.0,-4.0,7.0,-19.0,-4.0,1.0,1.0,2.37194561958313
487,-567.0,-293.0,-493.0,1.0,-13288.0,-8835.0,2976.0,2230.0,0.0,-1.0,-2.0,14.0,5.0,-1.0,-4.0,0.0,2.3742079734802246
488,-567.0,-293.0,-493.0,1.0,-13288.0,-8835.0,2976.0,2230.0,1.0,0.0,7.0,11.0,-7.0,-5.0,-1.0,-2.0,2.377476453781128
489,-649.0,-371.0,-502.0,1.0,-13331.0,-8732.0,3009.0,2329.0,1.0,0.0,7.0,11.0,-7.0,-5.0,-1.0,-2.0,2.392442464828491
490,-649.0,-371.0,-502.0,1.0,-13331.0,-8732.0,3009.0,2329.0,-2.0,-3.0,-3.0,10.0,5.0,-2.0,-1.0,0.0,2.3958184719085693
491,-649.0,-371.0,-502.0,1.0,-13331.0,-8732.0,3009.0,2329.0,4.0,10.0,15.0,40.0,-9.0,3.0,0.0,0.0,2.399043560028076
492,-692.0,-465.0,-447.0,1.0,-13370.0,-8628.0,3053.0,2435.0,4.0,10.0,15.0,40.0,-9.0,3.0,0.0,0.0,2.408473491668701
493,-692.0,-465.0,-447.0,1.0,-13370.0,-8628.0,3053.0,2435.0,-3.0,-1.0,-2.0,25.0,-9.0,-6.0,0.0,2.0,2.4150397777557373
494,-692.0,-465.0,-447.0,1.0,-13370.0,-8628.0,3053.0,2435.0,-3.0,-2.0,-5.0,-21.0,-4.0,0.0,-1.0,-1.0,2.418555974960327
495,-753.0,-579.0,-307.0,1.0,-13413.0,-8507.0,3121.0,2538.0,-3.0,-2.0,-5.0,-21.0,-4.0,0.0,-1.0,-1.0,2.430654764175415
496,-753.0,-579.0,-307.0,1.0,-13413.0,-8507.0,3121.0,2538.0,1.0,4.0,18.0,36.0,2.0,3.0,-10.0,0.0,2.4329674243927
497,-753.0,-579.0,-307.0,1.0,-13413.0,-8507.0,3121.0,2538.0,0.0,0.0,-3.0,-16.0,-9.0,-4.0,2.0,3.0,2.4353907108306885
498,-792.0,-696.0,-253.0,1.0,-13456.0,-8371.0,3213.0,2641.0,0.0,0.0,-3.0,-16.0,-9.0,-4.0,2.0,3.0,2.452641010284424
499,-792.0,-696.0,-253.0,1.0,-13456.0,-8371.0,3213.0,2641.0,2.0,-2.0,-6.0,-89.0,-23.0,0.0,2.0,1.0,2.4554665088653564
500,-792.0,-696.0,-253.0,1.0,-13456.0,-8371.0,3213.0,2641.0,-1.0,-1.0,12.0,117.0,40.0,4.0,-4.0,0.0,2.4576592445373535
501,-694.0,-791.0,-245.0,1.0,-13488.0,-8241.0,3327.0,2747.0,-1.0,-1.0,12.0,117.0,40.0,4.0,-4.0,0.0,2.466066837310791
502,-694.0,-791.0,-245.0,1.0,-13488.0,-8241.0,3327.0,2747.0,1.0,4.0,6.0,41.0,6.0,1.0,-4.0,1.0,2.4823343753814697
503,-694.0,-791.0,-245.0,1.0,-13488.0,-8241.0,3327.0,2747.0,-2.0,-3.0,-2.0,-2.0,-6.0,0.0,4.0,-4.0,2.4849398136138916
504,-421.0,-904.0,-200.0,1.0,-13487.0,-8149.0,3472.0,2844.0,-2.0,-3.0,-2.0,-2.0,-6.0,0.0,4.0,-4.0,2.489262104034424
505,-421.0,-904.0,-200.0,1.0,-13487.0,-8149.0,3472.0,2844.0,3.0,-1.0,-5.0,5.0,7.0,-2.0,2.0,0.0,2.492297649383545
506,-421.0,-904.0,-200.0,1.0,-13487.0,-8149.0,3472.0,2844.0,-4.0,1.0,-3.0,-56.0,-4.0,-1.0,-2.0,-1.0,2.4959592819213867
507,36.0,-1132.0,-33.0,1.0,-13428.0,-8129.0,3672.0,2926.0,-4.0,1.0,-3.0,-56.0,-4.0,-1.0,-2.0,-1.0,2.513300895690918
508,36.0,-1132.0,-33.0,1.0,-13428.0,-8129.0,3672.0,2926.0,0.0,2.0,-17.0,-41.0,-10.0,-2.0,6.0,0.0,2.516035318374634
509,36.0,-1132.0,-33.0,1.0,-13428.0,-8129.0,3672.0,2926.0,8.0,12.0,-4.0,-17.0,1.0,-1.0,0.0,3.0,2.5179481506347656
510,245.0,-1331.0,296.0,1.0,-13343.0,-8131.0,3932.0,2974.0,8.0,12.0,-4.0,-17.0,1.0,-1.0,0.0,3.0,2.5259857177734375
511,245.0,-1331.0,296.0,1.0,-13343.0,-8131.0,3932.0,2974.0,-7.0,-16.0,0.0,-13.0,-1.0,-2.0,1.0,1.0,2.541781187057495
512,245.0,-1331.0,296.0,1.0,-13343.0,-8131.0,3932.0,2974.0,-4.0,-10.0,-13.0,-25.0,-14.0,-5.0,-2.0,-2.0,2.5463075637817383
513,230.0,-1508.0,565.0,1.0,-13263.0,-8100.0,4236.0,2999.0,-4.0,-10.0,-13.0,-25.0,-14.0,-5.0,-2.0,-2.0,2.549823760986328
514,230.0,-1508.0,565.0,1.0,-13263.0,-8100.0,4236.0,2999.0,0.0,1.0,22.0,106.0,9.0,0.0,-2.0,-5.0,2.5531511306762695
515,230.0,-1508.0,565.0,1.0,-13263.0,-8100.0,4236.0,2999.0,-1.0,-5.0,10.0,54.0,4.0,0.0,0.0,0.0,2.555757761001587
516,738.0,-1814.0,878.0,1.0,-13131.0,-8114.0,4606.0,2994.0,-1.0,-5.0,10.0,54.0,4.0,0.0,0.0,0.0,2.5731706619262695
517,738.0,-1814.0,878.0,1.0,-13131.0,-8114.0,4606.0,2994.0,-1.0,5.0,-1.0,21.0,4.0,1.0,-1.0,-2.0,2.575432300567627
518,738.0,-1814.0,878.0,1.0,-13131.0,-8114.0,4606.0,2994.0,-4.0,-1.0,-6.0,-47.0,-9.0,-2.0,-2.0,-3.0,2.5774807929992676
519,839.0,-1751.0,1344.0,1.0,-13001.0,-8117.0,5008.0,2911.0,-4.0,-1.0,-6.0,-47.0,-9.0,-2.0,-2.0,-3.0,2.586186647415161
520,839.0,-1751.0,1344.0,1.0,-13001.0,-8117.0,5008.0,2911.0,3.0,3.0,2.0,-34.0,2.0,-1.0,1.0,1.0,2.5952341556549072
521,839.0,-1751.0,1344.0,1.0,-13001.0,-8117.0,5008.0,2911.0,0.0,0.0,7.0,6.0,-1.0,0.0,4.0,18.0,2.6006247997283936
522,947.0,-1615.0,1452.0,1.0,-12861.0,-8129.0,5399.0,2795.0,0.0,0.0,7.0,6.0,-1.0,0.0,4.0,18.0,2.6093926429748535
523,947.0,-1615.0,1452.0,1.0,-12861.0,-8129.0,5399.0,2795.0,-2.0,7.0,1.0,-30.0,-3.0,-1.0,-4.0,-18.0,2.6133668422698975
524,947.0,-1615.0,1452.0,1.0,-12861.0,-8129.0,5399.0,2795.0,1.0,-3.0,6.0,18.0,-1.0,-3.0,9.0,21.0,2.6173524856567383
525,1145.0,-1292.0,1459.0,1.0,-12697.0,-8200.0,5741.0,2649.0,1.0,-3.0,6.0,18.0,-1.0,-3.0,9.0,21.0,2.6330554485321045
526,1145.0,-1292.0,1459.0,1.0,-12697.0,-8200.0,5741.0,2649.0,-14.0,-14.0,-12.0,-23.0,-5.0,1.0,-20.0,-55.0,2.6361515522003174
527,1145.0,-1292.0,1459.0,1.0,-12697.0,-8200.0,5741.0,2649.0,-1.0,-2.0,-1.0,-8.0,-10.0,-15.0,1.0,1.0,2.642184019088745
528,1578.0,-1140.0,1524.0,1.0,-12504.0,-8323.0,6064.0,2463.0,-1.0,-2.0,-1.0,-8.0,-10.0,-15.0,1.0,1.0,2.646031618118286
529,1578.0,-1140.0,1524.0,1.0,-12504.0,-8323.0,6064.0,2463.0,10.0,1.0,-6.0,-1.0,0.0,21.0,11.0,16.0,2.6557834148406982
530,1578.0,-1140.0,1524.0,1.0,-12504.0,-8323.0,6064.0,2463.0,-3.0,0.0,1.0,3.0,4.0,-3.0,-6.0,-9.0,2.6623928546905518
531,1603.0,-941.0,1601.0,1.0,-12333.0,-8413.0,6370.0,2232.0,-3.0,0.0,1.0,3.0,4.0,-3.0,-6.0,-9.0,2.6692445278167725
532,1603.0,-941.0,1601.0,1.0,-12333.0,-8413.0,6370.0,2232.0,2.0,-3.0,12.0,15.0,7.0,-16.0,4.0,15.0,2.6725685596466064
533,1603.0,-941.0,1601.0,1.0,-12333.0,-8413.0,6370.0,2232.0,5.0,5.0,8.0,8.0,-9.0,-32.0,5.0,2.0,2.6759979724884033
534,1486.0,-965.0,1701.0,1.0,-12168.0,-8473.0,6678.0,1998.0,5.0,5.0,8.0,8.0,-9.0,-32.0,5.0,2.0,2.692082405090332
535,1486.0,-965.0,1701.0,1.0,-12168.0,-8473.0,6678.0,1998.0,-4.0,3.0,-2.0,-34.0,1.0,-27.0,-9.0,-9.0,2.6942405700683594
536,1486.0,-965.0,1701.0,1.0,-12168.0,-8473.0,6678.0,1998.0,1.0,3.0,2.0,9.0,0.0,-10.0,-8.0,-11.0,2.6962618827819824
537,1469.0,-832.0,1793.0,1.0,-12008.0,-8520.0,6976.0,1737.0,1.0,3.0,2.0,9.0,0.0,-10.0,-8.0,-11.0,2.7145111560821533
538,1469.0,-832.0,1793.0,1.0,-12008.0,-8520.0,6976.0,1737.0,2.0,-5.0,-12.0,8.0,-1.0,6.0,15.0,18.0,2.7179441452026367
539,1469.0,-832.0,1793.0,1.0,-12008.0,-8520.0,6976.0,1737.0,-4.0,-2.0,4.0,14.0,0.0,24.0,-8.0,-13.0,2.7201485633850098
540,1291.0,-658.0,1714.0,1.0,-11868.0,-8547.0,7236.0,1483.0,-4.0,-2.0,4.0,14.0,0.0,24.0,-8.0,-13.0,2.7314040660858154
541,1291.0,-658.0,1714.0,1.0,-11868.0,-8547.0,7236.0,1483.0,3.0,17.0,28.0,-4.0,4.0,18.0,2.0,14.0,2.738591432571411
542,1291.0,-658.0,1714.0,1.0,-11868.0,-8547.0,7236.0,1483.0,-1.0,0.0,-17.0,15.0,3.0,14.0,5.0,-5.0,2.742760181427002
543,700.0,-496.0,1658.0,1.0,-11788.0,-8502.0,7457.0,1267.0,-1.0,0.0,-17.0,15.0,3.0,14.0,5.0,-5.0,2.7542123794555664
544,700.0,-496.0,1658.0,1.0,-11788.0,-8502.0,7457.0,1267.0,0.0,-2.0,0.0,11.0,6.0,-20.0,-8.0,0.0,2.758654832839966
545,700.0,-496.0,1658.0,1.0,-11788.0,-8502.0,7457.0,1267.0,-2.0,-4.0,-5.0,-24.0,-2.0,1.0,-4.0,0.0,2.7632570266723633
546,148.0,-480.0,1528.0,1.0,-11766.0,-8387.0,7643.0,1116.0,-2.0,-4.0,-5.0,-24.0,-2.0,1.0,-4.0,0.0,2.7750778198242188
547,148.0,-480.0,1528.0,1.0,-11766.0,-8387.0,7643.0,1116.0,2.0,2.0,17.0,-12.0,-15.0,0.0,-7.0,4.0,2.777559518814087
548,148.0,-480.0,1528.0,1.0,-11766.0,-8387.0,7643.0,1116.0,3.0,-5.0,-4.0,-9.0,-2.0,10.0,3.0,-3.0,2.7798078060150146
549,-28.0,-354.0,1322.0,1.0,-11779.0,-8241.0,7800.0,971.0,3.0,-5.0,-4.0,-9.0,-2.0,10.0,3.0,-3.0,2.7974512577056885
550,-28.0,-354.0,1322.0,1.0,-11779.0,-8241.0,7800.0,971.0,-2.0,-12.0,-15.0,11.0,2.0,1.0,4.0,3.0,2.7997894287109375
551,-28.0,-354.0,1322.0,1.0,-11779.0,-8241.0,7800.0,971.0,-4.0,-3.0,-13.0,-5.0,2.0,5.0,-5.0,-6.0,2.801927328109741
552,181.0,-209.0,1051.0,1.0,-11782.0,-8144.0,7914.0,827.0,-4.0,-3.0,-13.0,-5.0,2.0,5.0,-5.0,-6.0,2.8197553157806396
553,181.0,-209.0,1051.0,1.0,-11782.0,-8144.0,7914.0,827.0,4.0,7.0,1.0,11.0,1.0,-11.0,-4.0,3.0,2.82214093208313
554,181.0,-209.0,1051.0,1.0,-11782.0,-8144.0,7914.0,827.0,-1.0,-3.0,-4.0,9.0,-4.0,1.0,-4.0,-4.0,2.8254737854003906
555,441.0,-78.0,781.0,1.0,-11761.0,-8117.0,7986.0,694.0,-1.0,-3.0,-4.0,9.0,-4.0,1.0,-4.0,-4.0,2.8287622928619385
556,441.0,-78.0,781.0,1.0,-11761.0,-8117.0,7986.0,694.0,-4.0,-5.0,-16.0,-12.0,-2.0,6.0,0.0,-1.0,2.8362796306610107
557,441.0,-78.0,781.0,1.0,-11761.0,-8117.0,7986.0,694.0,-1.0,1.0,2.0,-5.0,-1.0,-2.0,0.0,-2.0,2.839876651763916
558,542.0,-88.0,621.0,1.0,-11725.0,-8124.0,8040.0,582.0,-1.0,1.0,2.0,-5.0,-1.0,-2.0,0.0,-2.0,2.848141670227051
559,542.0,-88.0,621.0,1.0,-11725.0,-8124.0,8040.0,582.0,-1.0,-4.0,-6.0,-4.0,-2.0,0.0,1.0,0.0,2.8564095497131348
560,542.0,-88.0,621.0,1.0,-11725.0,-8124.0,8040.0,582.0,-2.0,-3.0,-6.0,-13.0,0.0,-2.0,-1.0,1.0,2.863323211669922
561,488.0,7.0,492.0,1.0,-11700.0,-8141.0,8064.0,490.0,-2.0,-3.0,-6.0,-13.0,0.0,-2.0,-1.0,1.0,2.8967859745025635
562,488.0,7.0,492.0,1.0,-11700.0,-8141.0,8064.0,490.0,-2.0,3.0,2.0,9.0,2.0,5.0,0.0,0.0,2.901076555252075
563,488.0,7.0,492.0,1.0,-11700.0,-8141.0,8064.0,490.0,-1.0,4.0,-15.0,-64.0,-7.0,-10.0,-3.0,-2.0,2.903353214263916
564,205.0,90.0,431.0,1.0,-11707.0,-8131.0,8068.0,426.0,-1.0,4.0,-15.0,-64.0,-7.0,-10.0,-3.0,-2.0,2.9055187702178955
565,205.0,90.0,431.0,1.0,-11707.0,-8131.0,8068.0,426.0,0.0,0.0,-5.0,-7.0,0.0,0.0,3.0,-1.0,2.907810926437378
566,205.0,90.0,431.0,1.0,-11707.0,-8131.0,8068.0,426.0,1.0,1.0,3.0,5.0,1.0,3.0,-1.0,-1.0,2.9099442958831787
567,-15.0,204.0,371.0,1.0,-11746.0,-8096.0,8049.0,379.0,1.0,1.0,3.0,5.0,1.0,3.0,-1.0,-1.0,2.925658702850342
568,-15.0,204.0,371.0,1.0,-11746.0,-8096.0,8049.0,379.0,-4.0,-6.0,-9.0,-14.0,-1.0,2.0,0.0,-3.0,2.929133892059326
569,-15.0,204.0,371.0,1.0,-11746.0,-8096.0,8049.0,379.0,1.0,-2.0,9.0,13.0,-2.0,3.0,2.0,-1.0,2.932098388671875
570,-174.0,237.0,288.0,1.0,-11795.0,-8052.0,8022.0,353.0,1.0,-2.0,9.0,13.0,-2.0,3.0,2.0,-1.0,2.9361634254455566
571,-174.0,237.0,288.0,1.0,-11795.0,-8052.0,8022.0,353.0,-3.0,-6.0,-6.0,-1.0,-3.0,-1.0,0.0,-1.0,2.940464973449707
572,-174.0,237.0,288.0,1.0,-11795.0,-8052.0,8022.0,353.0,1.0,-3.0,-11.0,6.0,0.0,-2.0,0.0,-2.0,2.943211555480957
573,-341.0,289.0,124.0,1.0,-11857.0,-8005.0,7979.0,356.0,1.0,-3.0,-11.0,6.0,0.0,-2.0,0.0,-2.0,2.9470131397247314
574,-341.0,289.0,124.0,1.0,-11857.0,-8005.0,7979.0,356.0,1.0,-1.0,-1.0,0.0,1.0,1.0,0.0,0.0,2.963815689086914
575,-341.0,289.0,124.0,1.0,-11857.0,-8005.0,7979.0,356.0,-3.0,0.0,15.0,4.0,0.0,-12.0,-14.0,0.0,2.967855930328369
576,-415.0,320.0,-27.0,1.0,-11922.0,-7960.0,7924.0,378.0,-3.0,0.0,15.0,4.0,0.0,-12.0,-14.0,0.0,2.971033811569214
577,-415.0,320.0,-27.0,1.0,-11922.0,-7960.0,7924.0,378.0,-1.0,0.0,-3.0,0.0,-1.0,0.0,4.0,3.0,2.977388381958008
578,-415.0,320.0,-27.0,1.0,-11922.0,-7960.0,7924.0,378.0,0.0,-4.0,-2.0,9.0,2.0,4.0,3.0,2.0,2.9796972274780273
579,-397.0,363.0,-158.0,1.0,-11983.0,-7932.0,7860.0,407.0,0.0,-4.0,-2.0,9.0,2.0,4.0,3.0,2.0,2.992481231689453
580,-397.0,363.0,-158.0,1.0,-11983.0,-7932.0,7860.0,407.0,-1.0,0.0,1.0,-2.0,-2.0,-4.0,-1.0,0.0,2.994887590408325
581,-397.0,363.0,-158.0,1.0,-11983.0,-7932.0,7860.0,407.0,-1.0,1.0,3.0,-5.0,0.0,3.0,1.0,-1.0,2.997598171234131
582,-387.0,364.0,-291.0,1.0,-12038.0,-7916.0,7790.0,449.0,-1.0,1.0,3.0,-5.0,0.0,3.0,1.0,-1.0,3.0060105323791504
583,-387.0,364.0,-291.0,1.0,-12038.0,-7916.0,7790.0,449.0,-1.0,-2.0,-3.0,1.0,-1.0,1.0,-3.0,-4.0,3.0148966312408447
584,-387.0,364.0,-291.0,1.0,-12038.0,-7916.0,7790.0,449.0,2.0,1.0,-2.0,2.0,0.0,0.0,0.0,0.0,3.047515392303467
585,-358.0,354.0,-417.0,1.0,-12085.0,-7912.0,7716.0,500.0,2.0,1.0,-2.0,2.0,0.0,0.0,0.0,0.0,3.0500810146331787
586,-358.0,354.0,-417.0,1.0,-12085.0,-7912.0,7716.0,500.0,0.0,-1.0,-3.0,0.0,-1.0,0.0,2.0,-1.0,3.0526273250579834
587,-358.0,354.0,-417.0,1.0,-12085.0,-7912.0,7716.0,500.0,0.0,3.0,8.0,-5.0,-2.0,0.0,2.0,0.0,3.0547995567321777
588,-290.0,287.0,-486.0,1.0,-12122.0,-7918.0,7649.0,554.0,0.0,3.0,8.0,-5.0,-2.0,0.0,2.0,0.0,3.056950807571411
589,-290.0,287.0,-486.0,1.0,-12122.0,-7918.0,7649.0,554.0,-3.0,-4.0,-7.0,-2.0,-3.0,-1.0,-4.0,-4.0,3.0591931343078613
590,-290.0,287.0,-486.0,1.0,-12122.0,-7918.0,7649.0,554.0,0.0,-1.0,-1.0,-2.0,-1.0,1.0,0.0,-1.0,3.0623159408569336
591,-108.0,272.0,-517.0,1.0,-12137.0,-7949.0,7589.0,594.0,0.0,-1.0,-1.0,-2.0,-1.0,1.0,0.0,-1.0,3.074740171432495
592,-108.0,272.0,-517.0,1.0,-12137.0,-7949.0,7589.0,594.0,1.0,8.0,14.0,5.0,-2.0,2.0,1.0,2.0,3.0770418643951416
593,-108.0,272.0,-517.0,1.0,-12137.0,-7949.0,7589.0,594.0,-3.0,-2.0,1.0,4.0,-3.0,-1.0,-1.0,0.0,3.0792148113250732
594,-56.0,343.0,-509.0,1.0,-12148.0,-7991.0,7525.0,622.0,-3.0,-2.0,1.0,4.0,-3.0,-1.0,-1.0,0.0,3.0908429622650146
595,-56.0,343.0,-509.0,1.0,-12148.0,-7991.0,7525.0,622.0,-3.0,-4.0,0.0,-2.0,-2.0,-1.0,-2.0,-2.0,3.0972790718078613
596,-56.0,343.0,-509.0,1.0,-12148.0,-7991.0,7525.0,622.0,-2.0,2.0,2.0,2.0,1.0,1.0,1.0,0.0,3.1002907752990723
597,-66.0,371.0,-486.0,1.0,-12162.0,-8033.0,7456.0,647.0,-2.0,2.0,2.0,2.0,1.0,1.0,1.0,0.0,3.1135659217834473
598,-66.0,371.0,-486.0,1.0,-12162.0,-8033.0,7456.0,647.0,-2.0,-3.0,-4.0,-3.0,-1.0,1.0,-1.0,0.0,3.117884635925293
599,-66.0,371.0,-486.0,1.0,-12162.0,-8033.0,7456.0,647.0,3.0,6.0,9.0,1.0,1.0,3.0,3.0,1.0,3.1216020584106445
600,-104.0,380.0,-468.0,1.0,-12182.0,-8065.0,7386.0,672.0,3.0,6.0,9.0,1.0,1.0,3.0,3.0,1.0,3.134746551513672
601,-104.0,380.0,-468.0,1.0,-12182.0,-8065.0,7386.0,672.0,0.0,-3.0,-4.0,-1.0,1.0,-2.0,-2.0,-3.0,3.1414010524749756
602,-104.0,380.0,-468.0,1.0,-12182.0,-8065.0,7386.0,672.0,-3.0,-4.0,-6.0,0.0,0.0,-1.0,-2.0,-2.0,3.1436893939971924
603,-65.0,393.0,-422.0,1.0,-12203.0,-8093.0,7318.0,684.0,-3.0,-4.0,-6.0,0.0,0.0,-1.0,-2.0,-2.0,3.148270845413208
604,-65.0,393.0,-422.0,1.0,-12203.0,-8093.0,7318.0,684.0,1.0,-1.0,-3.0,-1.0,-1.0,-1.0,0.0,2.0,3.1578118801116943
605,-65.0,393.0,-422.0,1.0,-12203.0,-8093.0,7318.0,684.0,0.0,-2.0,-8.0,-2.0,-2.0,-1.0,0.0,-3.0,3.1615829467773438
606,63.0,352.0,-375.0,1.0,-12212.0,-8134.0,7258.0,683.0,0.0,-2.0,-8.0,-2.0,-2.0,-1.0,0.0,-3.0,3.179993152618408
607,63.0,352.0,-375.0,1.0,-12212.0,-8134.0,7258.0,683.0,0.0,-3.0,-5.0,-2.0,1.0,-1.0,1.0,1.0,3.1819372177124023
608,63.0,352.0,-375.0,1.0,-12212.0,-8134.0,7258.0,683.0,-3.0,-2.0,-1.0,-1.0,2.0,0.0,-1.0,-1.0,3.1840710639953613
609,169.0,305.0,-316.0,1.0,-12208.0,-8185.0,7209.0,673.0,-3.0,-2.0,-1.0,-1.0,2.0,0.0,-1.0,-1.0,3.1870739459991455
610,169.0,305.0,-316.0,1.0,-12208.0,-8185.0,7209.0,673.0,0.0,3.0,4.0,3.0,0.0,-2.0,-2.0,1.0,3.2017405033111572
611,169.0,305.0,-316.0,1.0,-12208.0,-8185.0,7209.0,673.0,-1.0,-3.0,-3.0,-3.0,-4.0,-1.0,-1.0,0.0,3.203601598739624
612,158.0,266.0,-229.0,1.0,-12201.0,-8231.0,7169.0,659.0,-1.0,-3.0,-3.0,-3.0,-4.0,-1.0,-1.0,0.0,3.218684434890747
613,158.0,266.0,-229.0,1.0,-12201.0,-8231.0,7169.0,659.0,0.0,0.0,2.0,-14.0,-6.0,0.0,-1.0,-2.0,3.2220497131347656
614,158.0,266.0,-229.0,1.0,-12201.0,-8231.0,7169.0,659.0,2.0,1.0,-2.0,-7.0,1.0,0.0,-1.0,-1.0,3.225970506668091
615,112.0,243.0,-142.0,1.0,-12200.0,-8262.0,7137.0,640.0,2.0,1.0,-2.0,-7.0,1.0,0.0,-1.0,-1.0,3.2322402000427246
616,112.0,243.0,-142.0,1.0,-12200.0,-8262.0,7137.0,640.0,-3.0,-2.0,-3.0,24.0,2.0,0.0,1.0,0.0,3.246711492538452
617,112.0,243.0,-142.0,1.0,-12200.0,-8262.0,7137.0,640.0,2.0,1.0,3.0,11.0,4.0,-1.0,0.0,-3.0,3.248495101928711
618,126.0,213.0,-78.0,1.0,-12195.0,-8292.0,7113.0,617.0,2.0,1.0,3.0,11.0,4.0,-1.0,0.0,-3.0,3.254926919937134
619,126.0,213.0,-78.0,1.0,-12195.0,-8292.0,7113.0,617.0,-1.0,-2.0,-6.0,-67.0,0.0,-1.0,-1.0,0.0,3.2571067810058594
620,126.0,213.0,-78.0,1.0,-12195.0,-8292.0,7113.0,617.0,-2.0,-2.0,-4.0,-50.0,3.0,0.0,0.0,-1.0,3.2592990398406982
621,113.0,191.0,-24.0,1.0,-12191.0,-8313.0,7097.0,589.0,-2.0,-2.0,-4.0,-50.0,3.0,0.0,0.0,-1.0,3.2688024044036865
622,113.0,191.0,-24.0,1.0,-12191.0,-8313.0,7097.0,589.0,0.0,-5.0,-5.0,-11.0,-10.0,-4.0,-2.0,-4.0,3.2932331562042236
623,113.0,191.0,-24.0,1.0,-12191.0,-8313.0,7097.0,589.0,0.0,0.0,-3.0,0.0,-4.0,0.0,-2.0,0.0,3.296004056930542
624,173.0,160.0,1.0,1.0,-12179.0,-8343.0,7086.0,556.0,0.0,0.0,-3.0,0.0,-4.0,0.0,-2.0,0.0,3.29896879196167
625,173.0,160.0,1.0,1.0,-12179.0,-8343.0,7086.0,556.0,-1.0,2.0,-1.0,-39.0,-5.0,1.0,-1.0,0.0,3.302847385406494
626,173.0,160.0,1.0,1.0,-12179.0,-8343.0,7086.0,556.0,-1.0,0.0,3.0,16.0,-9.0,-3.0,0.0,-2.0,3.30708909034729
627,163.0,89.0,12.0,1.0,-12164.0,-8367.0,7085.0,530.0,-1.0,0.0,3.0,16.0,-9.0,-3.0,0.0,-2.0,3.3157427310943604
628,163.0,89.0,12.0,1.0,-12164.0,-8367.0,7085.0,530.0,-1.0,1.0,7.0,56.0,12.0,4.0,2.0,-2.0,3.3233516216278076
629,163.0,89.0,12.0,1.0,-12164.0,-8367.0,7085.0,530.0,1.0,2.0,7.0,43.0,3.0,-1.0,-2.0,1.0,3.3269219398498535
630,238.0,72.0,6.0,1.0,-12142.0,-8402.0,7082.0,502.0,1.0,2.0,7.0,43.0,3.0,-1.0,-2.0,1.0,3.3291194438934326
631,238.0,72.0,6.0,1.0,-12142.0,-8402.0,7082.0,502.0,-1.0,0.0,-10.0,-42.0,10.0,2.0,1.0,1.0,3.331184148788452
632,238.0,72.0,6.0,1.0,-12142.0,-8402.0,7082.0,502.0,-2.0,-2.0,-2.0,26.0,17.0,4.0,-1.0,2.0,3.336176872253418
633,297.0,91.0,-28.0,1.0,-12112.0,-8452.0,7078.0,472.0,-2.0,-2.0,-2.0,26.0,17.0,4.0,-1.0,2.0,3.35134220123291
634,297.0,91.0,-28.0,1.0,-12112.0,-8452.0,7078.0,472.0,1.0,0.0,4.0,-37.0,-5.0,-4.0,-3.0,-3.0,3.3532402515411377
635,297.0,91.0,-28.0,1.0,-12112.0,-8452.0,7078.0,472.0,-2.0,-5.0,-7.0,-8.0,-8.0,-7.0,-1.0,-1.0,3.3592498302459717
636,190.0,51.0,-27.0,1.0,-12092.0,-8486.0,7072.0,458.0,-2.0,-5.0,-7.0,-8.0,-8.0,-7.0,-1.0,-1.0,3.3758351802825928
637,190.0,51.0,-27.0,1.0,-12092.0,-8486.0,7072.0,458.0,1.0,4.0,-1.0,-35.0,-3.0,-1.0,1.0,2.0,3.379215955734253
638,190.0,51.0,-27.0,1.0,-12092.0,-8486.0,7072.0,458.0,0.0,2.0,10.0,9.0,-2.0,0.0,1.0,0.0,3.3826351165771484
639,182.0,-4.0,-46.0,1.0,-12068.0,-8519.0,7073.0,451.0,0.0,2.0,10.0,9.0,-2.0,0.0,1.0,0.0,3.397319793701172
640,182.0,-4.0,-46.0,1.0,-12068.0,-8519.0,7073.0,451.0,-1.0,-3.0,5.0,40.0,-11.0,-3.0,0.0,-1.0,3.399225950241089
641,182.0,-4.0,-46.0,1.0,-12068.0,-8519.0,7073.0,451.0,-1.0,4.0,2.0,-55.0,-6.0,-5.0,-1.0,-1.0,3.40099835395813
642,161.0,-65.0,-13.0,1.0,-12044.0,-8544.0,7086.0,444.0,-1.0,4.0,2.0,-55.0,-6.0,-5.0,-1.0,-1.0,3.420409679412842
643,161.0,-65.0,-13.0,1.0,-12044.0,-8544.0,7086.0,444.0,-2.0,-1.0,-2.0,44.0,6.0,1.0,0.0,0.0,3.4229278564453125
644,161.0,-65.0,-13.0,1.0,-12044.0,-8544.0,7086.0,444.0,-2.0,-5.0,-9.0,17.0,-1.0,2.0,0.0,-2.0,3.427031993865967
645,87.0,-101.0,-40.0,1.0,-12025.0,-8558.0,7100.0,449.0,-2.0,-5.0,-9.0,17.0,-1.0,2.0,0.0,-2.0,3.4358432292938232
646,87.0,-101.0,-40.0,1.0,-12025.0,-8558.0,7100.0,449.0,-3.0,-3.0,-12.0,-4.0,-5.0,-7.0,-1.0,0.0,3.4390039443969727
647,87.0,-101.0,-40.0,1.0,-12025.0,-8558.0,7100.0,449.0,-2.0,-7.0,-11.0,-14.0,1.0,0.0,0.0,-1.0,3.442225456237793
648,74.0,-136.0,-75.0,1.0,-12006.0,-8575.0,7110.0,468.0,-2.0,-7.0,-11.0,-14.0,1.0,0.0,0.0,-1.0,3.4502930641174316
649,74.0,-136.0,-75.0,1.0,-12006.0,-8575.0,7110.0,468.0,-3.0,-7.0,-5.0,22.0,-3.0,-28.0,-5.0,2.0,3.45729398727417
650,74.0,-136.0,-75.0,1.0,-12006.0,-8575.0,7110.0,468.0,3.0,4.0,-5.0,-5.0,-5.0,15.0,4.0,3.0,3.459179639816284
651,6.0,-98.0,-66.0,1.0,-11996.0,-8584.0,7114.0,489.0,3.0,4.0,-5.0,-5.0,-5.0,15.0,4.0,3.0,3.471956253051758
652,6.0,-98.0,-66.0,1.0,-11996.0,-8584.0,7114.0,489.0,-2.0,-8.0,2.0,23.0,0.0,0.0,3.0,-7.0,3.474198341369629
653,6.0,-98.0,-66.0,1.0,-11996.0,-8584.0,7114.0,489.0,3.0,5.0,8.0,-5.0,-4.0,-38.0,-7.0,-3.0,3.478543996810913
654,-97.0,-71.0,-55.0,1.0,-11996.0,-8582.0,7116.0,515.0,3.0,5.0,8.0,-5.0,-4.0,-38.0,-7.0,-3.0,3.495816469192505
655,-97.0,-71.0,-55.0,1.0,-11996.0,-8582.0,7116.0,515.0,2.0,1.0,5.0,1.0,0.0,11.0,7.0,4.0,3.4993550777435303
656,-97.0,-71.0,-55.0,1.0,-11996.0,-8582.0,7116.0,515.0,-2.0,-1.0,-12.0,-24.0,-4.0,-20.0,3.0,-1.0,3.5027992725372314
657,-299.0,-90.0,-7.0,1.0,-12016.0,-8545.0,7123.0,551.0,-2.0,-1.0,-12.0,-24.0,-4.0,-20.0,3.0,-1.0,3.510296583175659
658,-299.0,-90.0,-7.0,1.0,-12016.0,-8545.0,7123.0,551.0,-1.0,0.0,-1.0,1.0,-3.0,-22.0,-5.0,-10.0,3.512666940689087
659,-299.0,-90.0,-7.0,1.0,-12016.0,-8545.0,7123.0,551.0,0.0,2.0,15.0,22.0,7.0,24.0,-3.0,-5.0,3.5236213207244873
660,-417.0,-225.0,47.0,1.0,-12038.0,-8485.0,7155.0,597.0,0.0,2.0,15.0,22.0,7.0,24.0,-3.0,-5.0,3.5325756072998047
661,-417.0,-225.0,47.0,1.0,-12038.0,-8485.0,7155.0,597.0,-3.0,-4.0,-12.0,15.0,2.0,10.0,-8.0,-5.0,3.5359842777252197
662,-417.0,-225.0,47.0,1.0,-12038.0,-8485.0,7155.0,597.0,2.0,1.0,-13.0,-9.0,-4.0,15.0,3.0,2.0,3.53971004486084
663,-347.0,-178.0,38.0,1.0,-12056.0,-8431.0,7186.0,629.0,2.0,1.0,-13.0,-9.0,-4.0,15.0,3.0,2.0,3.5560786724090576
664,-347.0,-178.0,38.0,1.0,-12056.0,-8431.0,7186.0,629.0,7.0,5.0,4.0,17.0,-3.0,18.0,-1.0,3.0,3.5592381954193115
665,-347.0,-178.0,38.0,1.0,-12056.0,-8431.0,7186.0,629.0,0.0,-4.0,-5.0,2.0,0.0,-7.0,2.0,3.0,3.562285900115967
666,-234.0,-219.0,30.0,1.0,-12061.0,-8392.0,7219.0,658.0,0.0,-4.0,-5.0,2.0,0.0,-7.0,2.0,3.0,3.5680902004241943
667,-234.0,-219.0,30.0,1.0,-12061.0,-8392.0,7219.0,658.0,-2.0,1.0,-1.0,-5.0,3.0,-7.0,2.0,11.0,3.577861785888672
668,-234.0,-219.0,30.0,1.0,-12061.0,-8392.0,7219.0,658.0,-5.0,-3.0,3.0,9.0,-2.0,-3.0,-3.0,-4.0,3.583521842956543
669,-136.0,-231.0,7.0,1.0,-12052.0,-8372.0,7256.0,684.0,-5.0,-3.0,3.0,9.0,-2.0,-3.0,-3.0,-4.0,3.5926666259765625
670,-136.0,-231.0,7.0,1.0,-12052.0,-8372.0,7256.0,684.0,-2.0,-2.0,4.0,11.0,3.0,4.0,0.0,0.0,3.595616340637207
671,-136.0,-231.0,7.0,1.0,-12052.0,-8372.0,7256.0,684.0,-3.0,-6.0,-13.0,-8.0,-3.0,15.0,0.0,-7.0,3.5978546142578125
672,-123.0,-139.0,23.0,1.0,-12051.0,-8351.0,7279.0,700.0,-3.0,-6.0,-13.0,-8.0,-3.0,15.0,0.0,-7.0,3.614954710006714
673,-123.0,-139.0,23.0,1.0,-12051.0,-8351.0,7279.0,700.0,0.0,2.0,2.0,-15.0,-3.0,3.0,1.0,1.0,3.616856098175049
674,-123.0,-139.0,23.0,1.0,-12051.0,-8351.0,7279.0,700.0,0.0,-4.0,-3.0,9.0,2.0,-8.0,-4.0,-2.0,3.6188392639160156
675,-96.0,-113.0,11.0,1.0,-12051.0,-8334.0,7297.0,712.0,0.0,-4.0,-3.0,9.0,2.0,-8.0,-4.0,-2.0,3.6299962997436523
676,-96.0,-113.0,11.0,1.0,-12051.0,-8334.0,7297.0,712.0,-3.0,-1.0,1.0,11.0,2.0,4.0,2.0,0.0,3.636686086654663
677,-96.0,-113.0,11.0,1.0,-12051.0,-8334.0,7297.0,712.0,1.0,0.0,1.0,-6.0,-5.0,-3.0,-2.0,0.0,3.6524438858032227
678,7.0,-107.0,17.0,1.0,-12041.0,-8332.0,7317.0,715.0,1.0,0.0,1.0,-6.0,-5.0,-3.0,-2.0,0.0,3.6547389030456543
679,7.0,-107.0,17.0,1.0,-12041.0,-8332.0,7317.0,715.0,-2.0,3.0,1.0,3.0,2.0,8.0,-1.0,-5.0,3.6580138206481934
680,7.0,-107.0,17.0,1.0,-12041.0,-8332.0,7317.0,715.0,-2.0,-2.0,3.0,1.0,-5.0,-12.0,-2.0,5.0,3.661224365234375
681,-74.0,-136.0,5.0,1.0,-12032.0,-8323.0,7340.0,730.0,-2.0,-2.0,3.0,1.0,-5.0,-12.0,-2.0,5.0,3.6751291751861572
682,-74.0,-136.0,5.0,1.0,-12032.0,-8323.0,7340.0,730.0,-2.0,0.0,-3.0,-8.0,-1.0,2.0,1.0,-3.0,3.677090883255005
683,-74.0,-136.0,5.0,1.0,-12032.0,-8323.0,7340.0,730.0,-3.0,5.0,5.0,4.0,0.0,7.0,2.0,-1.0,3.678943395614624
684,-209.0,-130.0,47.0,1.0,-12039.0,-8288.0,7366.0,746.0,-3.0,5.0,5.0,4.0,0.0,7.0,2.0,-1.0,3.691354990005493
685,-209.0,-130.0,47.0,1.0,-12039.0,-8288.0,7366.0,746.0,6.0,3.0,5.0,-1.0,-1.0,-2.0,-2.0,0.0,3.6974434852600098
686,-209.0,-130.0,47.0,1.0,-12039.0,-8288.0,7366.0,746.0,-3.0,-5.0,-8.0,3.0,3.0,8.0,0.0,-1.0,3.7007031440734863
687,-146.0,-174.0,64.0,1.0,-12034.0,-8264.0,7400.0,761.0,-3.0,-5.0,-8.0,3.0,3.0,8.0,0.0,-1.0,3.7119383811950684
688,-146.0,-174.0,64.0,1.0,-12034.0,-8264.0,7400.0,761.0,1.0,8.0,15.0,2.0,0.0,4.0,4.0,2.0,3.713998556137085
689,-146.0,-174.0,64.0,1.0,-12034.0,-8264.0,7400.0,761.0,0.0,-4.0,2.0,-5.0,-1.0,0.0,-2.0,-4.0,3.718499183654785
690,-144.0,-178.0,20.0,1.0,-12026.0,-8247.0,7430.0,785.0,0.0,-4.0,2.0,-5.0,-1.0,0.0,-2.0,-4.0,3.736093759536743
691,-144.0,-178.0,20.0,1.0,-12026.0,-8247.0,7430.0,785.0,-5.0,-6.0,-6.0,-3.0,-6.0,-1.0,-3.0,-3.0,3.7397868633270264
692,-144.0,-178.0,20.0,1.0,-12026.0,-8247.0,7430.0,785.0,-3.0,-4.0,-4.0,1.0,0.0,-6.0,-3.0,1.0,3.742171287536621
693,-194.0,-161.0,3.0,1.0,-12023.0,-8225.0,7456.0,813.0,-3.0,-4.0,-4.0,1.0,0.0,-6.0,-3.0,1.0,3.7587809562683105
694,-194.0,-161.0,3.0,1.0,-12023.0,-8225.0,7456.0,813.0,-1.0,2.0,-9.0,-7.0,-2.0,4.0,0.0,2.0,3.7625198364257812
695,-194.0,-161.0,3.0,1.0,-12023.0,-8225.0,7456.0,813.0,-4.0,-1.0,5.0,6.0,2.0,7.0,0.0,-1.0,3.765782594680786
696,-123.0,-140.0,-34.0,1.0,-12014.0,-8217.0,7475.0,841.0,-4.0,-1.0,5.0,6.0,2.0,7.0,0.0,-1.0,3.7720820903778076
697,-123.0,-140.0,-34.0,1.0,-12014.0,-8217.0,7475.0,841.0,-2.0,-4.0,-3.0,0.0,-6.0,-8.0,-5.0,-4.0,3.7743794918060303
698,-123.0,-140.0,-34.0,1.0,-12014.0,-8217.0,7475.0,841.0,-2.0,-1.0,3.0,-1.0,-1.0,5.0,-4.0,-5.0,3.7781546115875244
699,-123.0,-144.0,-63.0,1.0,-12006.0,-8212.0,7490.0,874.0,-2.0,-1.0,3.0,-1.0,-1.0,5.0,-4.0,-5.0,3.8023393154144287
700,-123.0,-144.0,-63.0,1.0,-12006.0,-8212.0,7490.0,874.0,-2.0,-4.0,-4.0,2.0,3.0,0.0,-1.0,-2.0,3.8052806854248047
701,-123.0,-144.0,-63.0,1.0,-12006.0,-8212.0,7490.0,874.0,4.0,9.0,6.0,2.0,-3.0,-8.0,1.0,3.0,3.807692766189575
702,-135.0,-113.0,-89.0,1.0,-12002.0,-8208.0,7497.0,909.0,4.0,9.0,6.0,2.0,-3.0,-8.0,1.0,3.0,3.8095593452453613
703,-135.0,-113.0,-89.0,1.0,-12002.0,-8208.0,7497.0,909.0,4.0,-4.0,-5.0,-1.0,0.0,-2.0,0.0,3.0,3.8168764114379883
704,-135.0,-113.0,-89.0,1.0,-12002.0,-8208.0,7497.0,909.0,-8.0,0.0,5.0,-2.0,0.0,4.0,2.0,-7.0,3.8187482357025146
705,-142.0,-91.0,-97.0,1.0,-12004.0,-8201.0,7497.0,945.0,-8.0,0.0,5.0,-2.0,0.0,4.0,2.0,-7.0,3.8325090408325195
706,-142.0,-91.0,-97.0,1.0,-12004.0,-8201.0,7497.0,945.0,-3.0,7.0,24.0,10.0,2.0,4.0,3.0,0.0,3.835728168487549
707,-142.0,-91.0,-97.0,1.0,-12004.0,-8201.0,7497.0,945.0,-1.0,1.0,-4.0,0.0,-3.0,-1.0,2.0,3.0,3.838524103164673
708,-109.0,-101.0,-98.0,1.0,-12000.0,-8199.0,7502.0,978.0,-1.0,1.0,-4.0,0.0,-3.0,-1.0,2.0,3.0,3.8561716079711914
709,-109.0,-101.0,-98.0,1.0,-12000.0,-8199.0,7502.0,978.0,-2.0,-3.0,5.0,2.0,1.0,-6.0,-4.0,0.0,3.8598501682281494
710,-109.0,-101.0,-98.0,1.0,-12000.0,-8199.0,7502.0,978.0,1.0,-2.0,-1.0,2.0,-3.0,-5.0,-1.0,2.0,3.8629188537597656
711,-151.0,-131.0,-110.0,1.0,-11996.0,-8193.0,7509.0,1018.0,1.0,-2.0,-1.0,2.0,-3.0,-5.0,-1.0,2.0,3.8684351444244385
712,-151.0,-131.0,-110.0,1.0,-11996.0,-8193.0,7509.0,1018.0,2.0,-5.0,-9.0,-8.0,-3.0,-4.0,2.0,2.0,3.876925468444824
713,-151.0,-131.0,-110.0,1.0,-11996.0,-8193.0,7509.0,1018.0,-2.0,-3.0,0.0,-4.0,-1.0,1.0,-1.0,-3.0,3.878807544708252
714,-221.0,-135.0,-95.0,1.0,-11999.0,-8175.0,7519.0,1061.0,-2.0,-3.0,0.0,-4.0,-1.0,1.0,-1.0,-3.0,3.8920257091522217
715,-221.0,-135.0,-95.0,1.0,-11999.0,-8175.0,7519.0,1061.0,1.0,-1.0,-15.0,-9.0,-2.0,1.0,-1.0,0.0,3.8947973251342773
716,-221.0,-135.0,-95.0,1.0,-11999.0,-8175.0,7519.0,1061.0,2.0,-3.0,-4.0,3.0,-3.0,-14.0,-2.0,-2.0,3.908337116241455
717,-201.0,-74.0,-111.0,1.0,-12010.0,-8154.0,7518.0,1096.0,2.0,-3.0,-4.0,3.0,-3.0,-14.0,-2.0,-2.0,3.91662335395813
718,-201.0,-74.0,-111.0,1.0,-12010.0,-8154.0,7518.0,1096.0,-3.0,-7.0,-8.0,1.0,-1.0,-1.0,-1.0,-2.0,3.919755697250366
719,-201.0,-74.0,-111.0,1.0,-12010.0,-8154.0,7518.0,1096.0,7.0,1.0,3.0,5.0,1.0,3.0,1.0,7.0,3.9216792583465576
720,-75.0,-8.0,-103.0,1.0,-12015.0,-8152.0,7510.0,1114.0,7.0,1.0,3.0,5.0,1.0,3.0,1.0,7.0,3.9284849166870117
721,-75.0,-8.0,-103.0,1.0,-12015.0,-8152.0,7510.0,1114.0,1.0,1.0,-6.0,-9.0,-2.0,5.0,-1.0,-4.0,3.9438867568969727
722,-75.0,-8.0,-103.0,1.0,-12015.0,-8152.0,7510.0,1114.0,-1.0,1.0,-2.0,3.0,-1.0,3.0,-3.0,0.0,3.9457285404205322
723,-27.0,4.0,-104.0,1.0,-12014.0,-8158.0,7503.0,1128.0,-1.0,1.0,-2.0,3.0,-1.0,3.0,-3.0,0.0,3.9518065452575684
724,-27.0,4.0,-104.0,1.0,-12014.0,-8158.0,7503.0,1128.0,0.0,1.0,5.0,3.0,1.0,-1.0,1.0,1.0,3.953777313232422
725,-27.0,4.0,-104.0,1.0,-12014.0,-8158.0,7503.0,1128.0,0.0,0.0,1.0,-2.0,-1.0,-5.0,0.0,0.0,3.9586849212646484
726,-95.0,-26.0,-71.0,1.0,-12015.0,-8154.0,7502.0,1147.0,0.0,0.0,1.0,-2.0,-1.0,-5.0,0.0,0.0,3.9747815132141113
727,-95.0,-26.0,-71.0,1.0,-12015.0,-8154.0,7502.0,1147.0,-4.0,-4.0,-1.0,-5.0,-3.0,-1.0,-2.0,-6.0,3.9779515266418457
728,-95.0,-26.0,-71.0,1.0,-12015.0,-8154.0,7502.0,1147.0,2.0,1.0,-2.0,-3.0,0.0,-2.0,-2.0,1.0,3.9818763732910156
729,-109.0,-40.0,-53.0,1.0,-12015.0,-8147.0,7507.0,1163.0,2.0,1.0,-2.0,-3.0,0.0,-2.0,-2.0,1.0,3.9898462295532227
730,-109.0,-40.0,-53.0,1.0,-12015.0,-8147.0,7507.0,1163.0,-1.0,-1.0,0.0,-7.0,-2.0,-1.0,-2.0,-3.0,3.997299909591675
731,-109.0,-40.0,-53.0,1.0,-12015.0,-8147.0,7507.0,1163.0,0.0,1.0,0.0,-5.0,-1.0,2.0,0.0,1.0,4.000051498413086
732,-108.0,-54.0,-67.0,1.0,-12011.0,-8142.0,7516.0,1182.0,0.0,1.0,0.0,-5.0,-1.0,2.0,0.0,1.0,4.011566400527954
733,-108.0,-54.0,-67.0,1.0,-12011.0,-8142.0,7516.0,1182.0,0.0,-1.0,2.0,3.0,-4.0,-4.0,-1.0,-1.0,4.01343846321106
734,-108.0,-54.0,-67.0,1.0,-12011.0,-8142.0,7516.0,1182.0,-1.0,0.0,-1.0,-3.0,-7.0,-1.0,0.0,-2.0,4.018461227416992
735,-65.0,-57.0,-105.0,1.0,-12003.0,-8146.0,7521.0,1203.0,-1.0,0.0,-1.0,-3.0,-7.0,-1.0,0.0,-2.0,4.034405708312988
736,-65.0,-57.0,-105.0,1.0,-12003.0,-8146.0,7521.0,1203.0,-1.0,0.0,-3.0,6.0,13.0,-4.0,1.0,-1.0,4.03773045539856
737,-65.0,-57.0,-105.0,1.0,-12003.0,-8146.0,7521.0,1203.0,0.0,-2.0,2.0,3.0,2.0,-4.0,-2.0,-2.0,4.05959153175354
738,8.0,-34.0,-107.0,1.0,-11995.0,-8155.0,7522.0,1214.0,0.0,-2.0,2.0,3.0,2.0,-4.0,-2.0,-2.0,4.064173460006714
739,8.0,-34.0,-107.0,1.0,-11995.0,-8155.0,7522.0,1214.0,-1.0,0.0,2.0,6.0,-2.0,-3.0,-1.0,0.0,4.06929349899292
740,8.0,-34.0,-107.0,1.0,-11995.0,-8155.0,7522.0,1214.0,-2.0,-3.0,-5.0,-40.0,2.0,2.0,0.0,-1.0,4.071761608123779
741,175.0,-36.0,-105.0,1.0,-11971.0,-8189.0,7524.0,1215.0,-2.0,-3.0,-5.0,-40.0,2.0,2.0,0.0,-1.0,4.0737457275390625
742,175.0,-36.0,-105.0,1.0,-11971.0,-8189.0,7524.0,1215.0,3.0,3.0,1.0,-31.0,-9.0,0.0,2.0,1.0,4.075676202774048
743,175.0,-36.0,-105.0,1.0,-11971.0,-8189.0,7524.0,1215.0,0.0,-2.0,-8.0,-60.0,-18.0,-1.0,-2.0,-2.0,4.07764458656311
744,195.0,14.0,-98.0,1.0,-11949.0,-8227.0,7518.0,1211.0,0.0,-2.0,-8.0,-60.0,-18.0,-1.0,-2.0,-2.0,4.093678951263428
745,195.0,14.0,-98.0,1.0,-11949.0,-8227.0,7518.0,1211.0,-2.0,-2.0,1.0,45.0,-3.0,-2.0,2.0,-1.0,4.095585823059082
746,195.0,14.0,-98.0,1.0,-11949.0,-8227.0,7518.0,1211.0,0.0,1.0,-3.0,15.0,-16.0,-2.0,1.0,2.0,4.100938558578491
747,219.0,134.0,-75.0,1.0,-11936.0,-8265.0,7499.0,1190.0,0.0,1.0,-3.0,15.0,-16.0,-2.0,1.0,2.0,4.109736919403076
748,219.0,134.0,-75.0,1.0,-11936.0,-8265.0,7499.0,1190.0,-2.0,-4.0,-8.0,-17.0,-17.0,-6.0,-8.0,-5.0,4.116953611373901
749,219.0,134.0,-75.0,1.0,-11936.0,-8265.0,7499.0,1190.0,1.0,1.0,-4.0,-64.0,-13.0,1.0,3.0,1.0,4.118790864944458
750,158.0,143.0,-67.0,1.0,-11934.0,-8292.0,7477.0,1172.0,1.0,1.0,-4.0,-64.0,-13.0,1.0,3.0,1.0,4.13390326499939
751,158.0,143.0,-67.0,1.0,-11934.0,-8292.0,7477.0,1172.0,-2.0,1.0,6.0,52.0,3.0,1.0,0.0,0.0,4.138189792633057
752,158.0,143.0,-67.0,1.0,-11934.0,-8292.0,7477.0,1172.0,-2.0,1.0,7.0,42.0,21.0,6.0,0.0,0.0,4.141159296035767
753,153.0,206.0,-77.0,1.0,-11938.0,-8320.0,7442.0,1152.0,-2.0,1.0,7.0,42.0,21.0,6.0,0.0,0.0,4.154119253158569
754,153.0,206.0,-77.0,1.0,-11938.0,-8320.0,7442.0,1152.0,-1.0,-4.0,-2.0,7.0,10.0,-3.0,1.0,-1.0,4.1601855754852295
755,153.0,206.0,-77.0,1.0,-11938.0,-8320.0,7442.0,1152.0,0.0,0.0,-5.0,30.0,9.0,2.0,-1.0,-2.0,4.1636576652526855
756,158.0,277.0,-85.0,1.0,-11944.0,-8355.0,7397.0,1129.0,0.0,0.0,-5.0,30.0,9.0,2.0,-1.0,-2.0,4.186704635620117
757,158.0,277.0,-85.0,1.0,-11944.0,-8355.0,7397.0,1129.0,-1.0,-1.0,-1.0,-1.0,-1.0,-2.0,-2.0,0.0,4.190956115722656
758,158.0,277.0,-85.0,1.0,-11944.0,-8355.0,7397.0,1129.0,-3.0,-5.0,-3.0,26.0,5.0,-3.0,-3.0,-3.0,4.194582223892212
759,77.0,214.0,-118.0,1.0,-11953.0,-8382.0,7351.0,1128.0,-3.0,-5.0,-3.0,26.0,5.0,-3.0,-3.0,-3.0,4.197160959243774
760,77.0,214.0,-118.0,1.0,-11953.0,-8382.0,7351.0,1128.0,0.0,0.0,0.0,-3.0,6.0,6.0,0.0,0.0,4.1993489265441895
761,77.0,214.0,-118.0,1.0,-11953.0,-8382.0,7351.0,1128.0,1.0,0.0,-1.0,-3.0,3.0,0.0,3.0,-1.0,4.201372385025024
762,74.0,111.0,-107.0,1.0,-11953.0,-8406.0,7324.0,1132.0,1.0,0.0,-1.0,-3.0,3.0,0.0,3.0,-1.0,4.214169502258301
763,74.0,111.0,-107.0,1.0,-11953.0,-8406.0,7324.0,1132.0,0.0,2.0,0.0,-8.0,1.0,2.0,-1.0,-1.0,4.216245412826538
764,74.0,111.0,-107.0,1.0,-11953.0,-8406.0,7324.0,1132.0,-2.0,-1.0,0.0,33.0,-2.0,-4.0,-5.0,0.0,4.221465826034546
765,153.0,115.0,-136.0,1.0,-11943.0,-8444.0,7297.0,1130.0,-2.0,-1.0,0.0,33.0,-2.0,-4.0,-5.0,0.0,4.244566440582275
766,153.0,115.0,-136.0,1.0,-11943.0,-8444.0,7297.0,1130.0,-1.0,1.0,1.0,-18.0,-10.0,1.0,-2.0,0.0,4.2535669803619385
767,153.0,115.0,-136.0,1.0,-11943.0,-8444.0,7297.0,1130.0,0.0,-4.0,-5.0,2.0,2.0,-1.0,2.0,-1.0,4.256780385971069
768,249.0,198.0,-157.0,1.0,-11932.0,-8495.0,7257.0,1116.0,0.0,-4.0,-5.0,2.0,2.0,-1.0,2.0,-1.0,4.259545803070068
769,249.0,198.0,-157.0,1.0,-11932.0,-8495.0,7257.0,1116.0,1.0,0.0,0.0,-9.0,9.0,-4.0,-3.0,-1.0,4.267049074172974
770,249.0,198.0,-157.0,1.0,-11932.0,-8495.0,7257.0,1116.0,0.0,1.0,2.0,0.0,-5.0,-4.0,-2.0,-1.0,4.269568920135498
771,223.0,257.0,-159.0,1.0,-11928.0,-8545.0,7207.0,1102.0,0.0,1.0,2.0,0.0,-5.0,-4.0,-2.0,-1.0,4.274905443191528
772,223.0,257.0,-159.0,1.0,-11928.0,-8545.0,7207.0,1102.0,0.0,-5.0,-4.0,1.0,-8.0,-5.0,1.0,-1.0,4.277226448059082
773,223.0,257.0,-159.0,1.0,-11928.0,-8545.0,7207.0,1102.0,2.0,0.0,1.0,-4.0,5.0,9.0,21.0,1.0,4.2808074951171875
774,155.0,253.0,-137.0,1.0,-11930.0,-8584.0,7159.0,1089.0,2.0,0.0,1.0,-4.0,5.0,9.0,21.0,1.0,4.305037975311279
775,155.0,253.0,-137.0,1.0,-11930.0,-8584.0,7159.0,1089.0,-2.0,-2.0,-2.0,-5.0,-8.0,-7.0,0.0,-1.0,4.308219909667969
776,155.0,253.0,-137.0,1.0,-11930.0,-8584.0,7159.0,1089.0,-2.0,-1.0,0.0,3.0,-2.0,-2.0,-4.0,-3.0,4.311298370361328
777,1.0,242.0,-119.0,1.0,-11947.0,-8597.0,7115.0,1084.0,-2.0,-1.0,0.0,3.0,-2.0,-2.0,-4.0,-3.0,4.3145387172698975
778,1.0,242.0,-119.0,1.0,-11947.0,-8597.0,7115.0,1084.0,0.0,-3.0,-2.0,-11.0,-6.0,7.0,-2.0,-1.0,4.3202900886535645
779,1.0,242.0,-119.0,1.0,-11947.0,-8597.0,7115.0,1084.0,-2.0,0.0,0.0,4.0,-3.0,-4.0,-5.0,-2.0,4.322402715682983
780,6.0,213.0,-116.0,1.0,-11962.0,-8609.0,7078.0,1076.0,-2.0,0.0,0.0,4.0,-3.0,-4.0,-5.0,-2.0,4.334640026092529
781,6.0,213.0,-116.0,1.0,-11962.0,-8609.0,7078.0,1076.0,-1.0,-2.0,-5.0,-8.0,14.0,-8.0,-44.0,-5.0,4.337159872055054
782,6.0,213.0,-116.0,1.0,-11962.0,-8609.0,7078.0,1076.0,-1.0,-4.0,1.0,0.0,20.0,-4.0,-5.0,-2.0,4.340676307678223
783,85.0,210.0,-89.0,1.0,-11969.0,-8629.0,7043.0,1062.0,-1.0,-4.0,1.0,0.0,20.0,-4.0,-5.0,-2.0,4.358384132385254
784,85.0,210.0,-89.0,1.0,-11969.0,-8629.0,7043.0,1062.0,0.0,0.0,0.0,-4.0,3.0,-3.0,5.0,-2.0,4.362107515335083
785,85.0,210.0,-89.0,1.0,-11969.0,-8629.0,7043.0,1062.0,-2.0,-1.0,0.0,-1.0,-8.0,-3.0,-7.0,0.0,4.365896701812744
786,39.0,286.0,-83.0,1.0,-11984.0,-8647.0,6998.0,1044.0,-2.0,-1.0,0.0,-1.0,-8.0,-3.0,-7.0,0.0,4.370895624160767
787,39.0,286.0,-83.0,1.0,-11984.0,-8647.0,6998.0,1044.0,-2.0,-1.0,-2.0,1.0,-4.0,4.0,9.0,0.0,4.379571437835693
788,39.0,286.0,-83.0,1.0,-11984.0,-8647.0,6998.0,1044.0,0.0,0.0,0.0,-5.0,-6.0,0.0,3.0,3.0,4.381961107254028
789,96.0,366.0,-66.0,1.0,-12001.0,-8672.0,6942.0,1015.0,0.0,0.0,0.0,-5.0,-6.0,0.0,3.0,3.0,4.394460201263428
790,96.0,366.0,-66.0,1.0,-12001.0,-8672.0,6942.0,1015.0,0.0,-2.0,0.0,0.0,1.0,3.0,8.0,1.0,4.397167682647705
791,96.0,366.0,-66.0,1.0,-12001.0,-8672.0,6942.0,1015.0,-1.0,0.0,0.0,3.0,7.0,3.0,-6.0,-3.0,4.40034294128418
792,178.0,367.0,-36.0,1.0,-12008.0,-8708.0,6891.0,975.0,-1.0,0.0,0.0,3.0,7.0,3.0,-6.0,-3.0,4.4174840450286865
793,178.0,367.0,-36.0,1.0,-12008.0,-8708.0,6891.0,975.0,0.0,-1.0,0.0,-1.0,-1.0,2.0,4.0,3.0,4.420675992965698
794,178.0,367.0,-36.0,1.0,-12008.0,-8708.0,6891.0,975.0,1.0,-1.0,-1.0,2.0,-3.0,-1.0,0.0,1.0,4.424007177352905
795,214.0,332.0,-48.0,1.0,-12006.0,-8751.0,6843.0,939.0,1.0,-1.0,-1.0,2.0,-3.0,-1.0,0.0,1.0,4.431985139846802
796,214.0,332.0,-48.0,1.0,-12006.0,-8751.0,6843.0,939.0,-4.0,-1.0,-1.0,0.0,-1.0,2.0,7.0,-3.0,4.439376354217529
797,214.0,332.0,-48.0,1.0,-12006.0,-8751.0,6843.0,939.0,2.0,6.0,7.0,4.0,-4.0,-1.0,2.0,5.0,4.441162586212158
798,142.0,294.0,-36.0,1.0,-12006.0,-8789.0,6799.0,915.0,2.0,6.0,7.0,4.0,-4.0,-1.0,2.0,5.0,4.455814838409424
799,142.0,294.0,-36.0,1.0,-12006.0,-8789.0,6799.0,915.0,-1.0,0.0,-6.0,-2.0,-2.0,0.0,-1.0,3.0,4.46004843711853
