,Gyro 0,Gyro 1,Gyro 2,Label,Orientation 0,Orientation 1,Orientation 2,Orientation 3,Sensor 0,Sensor 1,Sensor 2,Sensor 3,Sensor 4,Sensor 5,Sensor 6,Sensor 7,Timestamp
0,198.0,-94.0,97.0,1.0,-2462.0,-8403.0,-9829.0,-9757.0,3.0,5.0,1.0,-1.0,6.0,-8.0,4.0,-3.0,2.6226043701171875e-06
1,198.0,-94.0,97.0,1.0,-2462.0,-8403.0,-9829.0,-9757.0,-10.0,3.0,1.0,-5.0,-7.0,-3.0,-3.0,-3.0,0.0023674964904785156
2,198.0,-94.0,97.0,1.0,-2462.0,-8403.0,-9829.0,-9757.0,-4.0,-8.0,-12.0,-41.0,-4.0,-1.0,4.0,6.0,0.004449129104614258
3,-267.0,-167.0,82.0,1.0,-2489.0,-8425.0,-9785.0,-9774.0,-4.0,-8.0,-12.0,-41.0,-4.0,-1.0,4.0,6.0,0.007092952728271484
4,-267.0,-167.0,82.0,1.0,-2489.0,-8425.0,-9785.0,-9774.0,1.0,-5.0,-4.0,16.0,-4.0,-7.0,-8.0,1.0,0.010249853134155273
5,-267.0,-167.0,82.0,1.0,-2489.0,-8425.0,-9785.0,-9774.0,-3.0,2.0,8.0,13.0,-8.0,0.0,-3.0,-5.0,0.012133598327636719
6,-240.0,-151.0,93.0,1.0,-2515.0,-8445.0,-9742.0,-9794.0,-3.0,2.0,8.0,13.0,-8.0,0.0,-3.0,-5.0,0.013882637023925781
7,-240.0,-151.0,93.0,1.0,-2515.0,-8445.0,-9742.0,-9794.0,0.0,12.0,15.0,1.0,10.0,3.0,2.0,-4.0,0.0158078670501709
8,-240.0,-151.0,93.0,1.0,-2515.0,-8445.0,-9742.0,-9794.0,16.0,18.0,-15.0,10.0,7.0,3.0,-4.0,4.0,0.017554521560668945
9,64.0,-196.0,99.0,1.0,-2520.0,-8476.0,-9731.0,-9777.0,16.0,18.0,-15.0,10.0,7.0,3.0,-4.0,4.0,0.019609451293945312
10,64.0,-196.0,99.0,1.0,-2520.0,-8476.0,-9731.0,-9777.0,3.0,-17.0,-29.0,-15.0,6.0,-16.0,-3.0,-3.0,0.022355318069458008
11,64.0,-196.0,99.0,1.0,-2520.0,-8476.0,-9731.0,-9777.0,-6.0,-5.0,-17.0,-20.0,-33.0,-19.0,-5.0,-5.0,0.024877309799194336
12,151.0,-292.0,116.0,1.0,-2527.0,-8523.0,-9732.0,-9733.0,-6.0,-5.0,-17.0,-20.0,-33.0,-19.0,-5.0,-5.0,0.027498483657836914
13,151.0,-292.0,116.0,1.0,-2527.0,-8523.0,-9732.0,-9733.0,-2.0,-4.0,-2.0,-12.0,-62.0,-29.0,-1.0,-1.0,0.029379844665527344
14,151.0,-292.0,116.0,1.0,-2527.0,-8523.0,-9732.0,-9733.0,-8.0,-12.0,7.0,1.0,18.0,5.0,-13.0,-2.0,0.031120777130126953
15,4.0,-417.0,96.0,1.0,-2565.0,-8576.0,-9718.0,-9690.0,-8.0,-12.0,7.0,1.0,18.0,5.0,-13.0,-2.0,0.03286886215209961
16,4.0,-417.0,96.0,1.0,-2565.0,-8576.0,-9718.0,-9690.0,4.0,6.0,3.0,11.0,-10.0,-5.0,37.0,8.0,0.03467965126037598
17,4.0,-417.0,96.0,1.0,-2565.0,-8576.0,-9718.0,-9690.0,-3.0,-2.0,10.0,45.0,1.0,17.0,27.0,-1.0,0.03642392158508301
18,-181.0,-437.0,162.0,1.0,-2611.0,-8636.0,-9673.0,-9670.0,-3.0,-2.0,10.0,45.0,1.0,17.0,27.0,-1.0,0.03836774826049805
19,-181.0,-437.0,162.0,1.0,-2611.0,-8636.0,-9673.0,-9670.0,-5.0,0.0,5.0,-5.0,8.0,28.0,-14.0,-8.0,0.0402989387512207
20,-181.0,-437.0,162.0,1.0,-2611.0,-8636.0,-9673.0,-9670.0,-6.0,3.0,15.0,14.0,-4.0,14.0,-24.0,-2.0,0.04204130172729492
21,-202.0,-244.0,197.0,1.0,-2637.0,-8676.0,-9630.0,-9670.0,-6.0,3.0,15.0,14.0,-4.0,14.0,-24.0,-2.0,0.0437932014465332
22,-202.0,-244.0,197.0,1.0,-2637.0,-8676.0,-9630.0,-9670.0,-3.0,2.0,24.0,-1.0,25.0,-6.0,0.0,1.0,0.04561114311218262
23,-202.0,-244.0,197.0,1.0,-2637.0,-8676.0,-9630.0,-9670.0,-10.0,-21.0,-49.0,-32.0,6.0,2.0,-6.0,-2.0,0.047362327575683594
24,-170.0,-161.0,236.0,1.0,-2649.0,-8710.0,-9587.0,-9679.0,-10.0,-21.0,-49.0,-32.0,6.0,2.0,-6.0,-2.0,0.04910898208618164
25,-170.0,-161.0,236.0,1.0,-2649.0,-8710.0,-9587.0,-9679.0,-1.0,-1.0,2.0,5.0,-14.0,1.0,4.0,2.0,0.051590681076049805
26,-170.0,-161.0,236.0,1.0,-2649.0,-8710.0,-9587.0,-9679.0,5.0,3.0,27.0,-13.0,-62.0,-22.0,3.0,0.0,0.05399823188781738
27,-99.0,-267.0,208.0,1.0,-2665.0,-8759.0,-9554.0,-9663.0,5.0,3.0,27.0,-13.0,-62.0,-22.0,3.0,0.0,0.05589890480041504
28,-99.0,-267.0,208.0,1.0,-2665.0,-8759.0,-9554.0,-9663.0,-4.0,-10.0,-21.0,-13.0,-6.0,-1.0,-12.0,-3.0,0.057749271392822266
29,-99.0,-267.0,208.0,1.0,-2665.0,-8759.0,-9554.0,-9663.0,5.0,2.0,14.0,22.0,26.0,5.0,21.0,3.0,0.06036782264709473
30,-123.0,-305.0,236.0,1.0,-2681.0,-8817.0,-9515.0,-9643.0,5.0,2.0,14.0,22.0,26.0,5.0,21.0,3.0,0.06224226951599121
31,-123.0,-305.0,236.0,1.0,-2681.0,-8817.0,-9515.0,-9643.0,3.0,-4.0,-18.0,13.0,15.0,17.0,-4.0,0.0,0.0641026496887207
32,-123.0,-305.0,236.0,1.0,-2681.0,-8817.0,-9515.0,-9643.0,-39.0,-2.0,-27.0,-16.0,-3.0,-11.0,-13.0,-4.0,0.0658729076385498
33,-197.0,-254.0,240.0,1.0,-2704.0,-8864.0,-9470.0,-9639.0,-39.0,-2.0,-27.0,-16.0,-3.0,-11.0,-13.0,-4.0,0.06768226623535156
34,-197.0,-254.0,240.0,1.0,-2704.0,-8864.0,-9470.0,-9639.0,-14.0,4.0,1.0,11.0,82.0,-10.0,-62.0,-12.0,0.06957650184631348
35,-197.0,-254.0,240.0,1.0,-2704.0,-8864.0,-9470.0,-9639.0,31.0,24.0,80.0,21.0,16.0,6.0,6.0,20.0,0.07208538055419922
36,-335.0,-201.0,210.0,1.0,-2739.0,-8897.0,-9415.0,-9652.0,31.0,24.0,80.0,21.0,16.0,6.0,6.0,20.0,0.07391166687011719
37,-335.0,-201.0,210.0,1.0,-2739.0,-8897.0,-9415.0,-9652.0,15.0,-7.0,5.0,0.0,4.0,6.0,12.0,-5.0,0.07578802108764648
38,-335.0,-201.0,210.0,1.0,-2739.0,-8897.0,-9415.0,-9652.0,1.0,-4.0,4.0,-14.0,13.0,1.0,1.0,-5.0,0.07753229141235352
39,-447.0,-170.0,120.0,1.0,-2788.0,-8914.0,-9353.0,-9683.0,1.0,-4.0,4.0,-14.0,13.0,1.0,1.0,-5.0,0.07929039001464844
40,-447.0,-170.0,120.0,1.0,-2788.0,-8914.0,-9353.0,-9683.0,7.0,-5.0,9.0,10.0,-4.0,4.0,-7.0,-1.0,0.08139419555664062
41,-447.0,-170.0,120.0,1.0,-2788.0,-8914.0,-9353.0,-9683.0,3.0,4.0,7.0,-3.0,-9.0,-12.0,-44.0,-5.0,0.08414196968078613
42,-272.0,-105.0,61.0,1.0,-2815.0,-8925.0,-9314.0,-9702.0,3.0,4.0,7.0,-3.0,-9.0,-12.0,-44.0,-5.0,0.08625531196594238
43,-272.0,-105.0,61.0,1.0,-2815.0,-8925.0,-9314.0,-9702.0,-1.0,3.0,12.0,-17.0,-23.0,-24.0,57.0,-5.0,0.0881357192993164
44,-272.0,-105.0,61.0,1.0,-2815.0,-8925.0,-9314.0,-9702.0,0.0,-12.0,-4.0,11.0,-82.0,-12.0,-27.0,-5.0,0.0898897647857666
45,31.0,-92.0,26.0,1.0,-2812.0,-8943.0,-9311.0,-9690.0,0.0,-12.0,-4.0,11.0,-82.0,-12.0,-27.0,-5.0,0.0917365550994873
46,31.0,-92.0,26.0,1.0,-2812.0,-8943.0,-9311.0,-9690.0,-3.0,18.0,50.0,7.0,18.0,15.0,60.0,13.0,0.09438562393188477
47,31.0,-92.0,26.0,1.0,-2812.0,-8943.0,-9311.0,-9690.0,7.0,2.0,19.0,-11.0,17.0,-3.0,16.0,-4.0,0.09616971015930176
48,142.0,-89.0,-12.0,1.0,-2807.0,-8957.0,-9326.0,-9664.0,7.0,2.0,19.0,-11.0,17.0,-3.0,16.0,-4.0,0.0979149341583252
49,142.0,-89.0,-12.0,1.0,-2807.0,-8957.0,-9326.0,-9664.0,5.0,3.0,-9.0,-9.0,-29.0,2.0,-11.0,2.0,0.09975194931030273
50,142.0,-89.0,-12.0,1.0,-2807.0,-8957.0,-9326.0,-9664.0,-1.0,-9.0,-56.0,0.0,49.0,13.0,-14.0,1.0,0.10150814056396484
51,0.0,-52.0,-37.0,1.0,-2819.0,-8958.0,-9331.0,-9654.0,-1.0,-9.0,-56.0,0.0,49.0,13.0,-14.0,1.0,0.1032564640045166
52,0.0,-52.0,-37.0,1.0,-2819.0,-8958.0,-9331.0,-9654.0,-2.0,2.0,7.0,-17.0,36.0,2.0,-4.0,1.0,0.10534238815307617
53,0.0,-52.0,-37.0,1.0,-2819.0,-8958.0,-9331.0,-9654.0,5.0,13.0,-16.0,-46.0,-13.0,-17.0,22.0,1.0,0.10718441009521484
54,-83.0,-38.0,-22.0,1.0,-2838.0,-8954.0,-9325.0,-9659.0,5.0,13.0,-16.0,-46.0,-13.0,-17.0,22.0,1.0,0.10898590087890625
55,-83.0,-38.0,-22.0,1.0,-2838.0,-8954.0,-9325.0,-9659.0,-6.0,-5.0,-34.0,5.0,-38.0,8.0,-1.0,0.0,0.11082744598388672
56,-83.0,-38.0,-22.0,1.0,-2838.0,-8954.0,-9325.0,-9659.0,-11.0,-13.0,-64.0,-16.0,23.0,18.0,15.0,-2.0,0.11321043968200684
57,103.0,-34.0,6.0,1.0,-2840.0,-8957.0,-9341.0,-9639.0,-11.0,-13.0,-64.0,-16.0,23.0,18.0,15.0,-2.0,0.11550235748291016
58,103.0,-34.0,6.0,1.0,-2840.0,-8957.0,-9341.0,-9639.0,-1.0,-2.0,20.0,11.0,12.0,5.0,-22.0,0.0,0.11736893653869629
59,103.0,-34.0,6.0,1.0,-2840.0,-8957.0,-9341.0,-9639.0,-4.0,7.0,5.0,21.0,-37.0,-15.0,-8.0,-3.0,0.11911320686340332
60,103.0,-105.0,38.0,1.0,-2848.0,-8969.0,-9353.0,-9614.0,-4.0,7.0,5.0,21.0,-37.0,-15.0,-8.0,-3.0,0.12090015411376953
61,103.0,-105.0,38.0,1.0,-2848.0,-8969.0,-9353.0,-9614.0,1.0,-1.0,7.0,-20.0,-27.0,11.0,-12.0,0.0,0.12276053428649902
62,103.0,-105.0,38.0,1.0,-2848.0,-8969.0,-9353.0,-9614.0,-3.0,-22.0,-62.0,-10.0,-32.0,-14.0,-31.0,-8.0,0.12451338768005371
63,-31.0,-175.0,100.0,1.0,-2867.0,-8991.0,-9339.0,-9601.0,-3.0,-22.0,-62.0,-10.0,-32.0,-14.0,-31.0,-8.0,0.12719345092773438
64,-31.0,-175.0,100.0,1.0,-2867.0,-8991.0,-9339.0,-9601.0,3.0,5.0,4.0,-9.0,-31.0,-15.0,2.0,1.0,0.12912726402282715
65,-31.0,-175.0,100.0,1.0,-2867.0,-8991.0,-9339.0,-9601.0,-2.0,-7.0,15.0,27.0,33.0,23.0,7.0,-4.0,0.13088440895080566
66,-32.0,-200.0,128.0,1.0,-2884.0,-9019.0,-9318.0,-9591.0,-2.0,-7.0,15.0,27.0,33.0,23.0,7.0,-4.0,0.13264083862304688
67,-32.0,-200.0,128.0,1.0,-2884.0,-9019.0,-9318.0,-9591.0,-9.0,-25.0,-55.0,-14.0,-90.0,-58.0,46.0,-11.0,0.13446259498596191
68,-32.0,-200.0,128.0,1.0,-2884.0,-9019.0,-9318.0,-9591.0,-2.0,3.0,-12.0,-1.0,51.0,16.0,61.0,7.0,0.13621854782104492
69,-93.0,-199.0,121.0,1.0,-2898.0,-9048.0,-9286.0,-9590.0,-2.0,3.0,-12.0,-1.0,51.0,16.0,61.0,7.0,0.13803601264953613
70,-93.0,-199.0,121.0,1.0,-2898.0,-9048.0,-9286.0,-9590.0,-5.0,3.0,13.0,26.0,51.0,16.0,-39.0,-5.0,0.1400279998779297
71,-93.0,-199.0,121.0,1.0,-2898.0,-9048.0,-9286.0,-9590.0,-4.0,8.0,28.0,-13.0,-30.0,-9.0,1.0,2.0,0.14180898666381836
72,-83.0,-115.0,84.0,1.0,-2905.0,-9068.0,-9261.0,-9593.0,-4.0,8.0,28.0,-13.0,-30.0,-9.0,1.0,2.0,0.14458727836608887
73,-83.0,-115.0,84.0,1.0,-2905.0,-9068.0,-9261.0,-9593.0,4.0,-8.0,-6.0,14.0,7.0,6.0,-9.0,2.0,0.14704370498657227
74,-83.0,-115.0,84.0,1.0,-2905.0,-9068.0,-9261.0,-9593.0,-5.0,-10.0,2.0,7.0,28.0,-3.0,-17.0,0.0,0.1488509178161621
75,86.0,-82.0,91.0,1.0,-2892.0,-9092.0,-9260.0,-9576.0,-5.0,-10.0,2.0,7.0,28.0,-3.0,-17.0,0.0,0.15059971809387207
76,86.0,-82.0,91.0,1.0,-2892.0,-9092.0,-9260.0,-9576.0,1.0,15.0,22.0,2.0,-5.0,-15.0,11.0,4.0,0.15243268013000488
77,86.0,-82.0,91.0,1.0,-2892.0,-9092.0,-9260.0,-9576.0,8.0,1.0,-9.0,5.0,3.0,6.0,-3.0,-4.0,0.15418386459350586
78,91.0,-118.0,110.0,1.0,-2876.0,-9126.0,-9258.0,-9550.0,8.0,1.0,-9.0,5.0,3.0,6.0,-3.0,-4.0,0.15594840049743652
79,91.0,-118.0,110.0,1.0,-2876.0,-9126.0,-9258.0,-9550.0,-1.0,-2.0,-3.0,2.0,26.0,1.0,-21.0,0.0,0.15777182579040527
80,91.0,-118.0,110.0,1.0,-2876.0,-9126.0,-9258.0,-9550.0,-2.0,-5.0,16.0,6.0,16.0,23.0,5.0,0.0,0.16040611267089844
81,-9.0,-115.0,64.0,1.0,-2876.0,-9149.0,-9246.0,-9540.0,-2.0,-5.0,16.0,6.0,16.0,23.0,5.0,0.0,0.16218852996826172
82,-9.0,-115.0,64.0,1.0,-2876.0,-9149.0,-9246.0,-9540.0,3.0,2.0,-20.0,-18.0,-27.0,-2.0,-8.0,5.0,0.16409635543823242
83,-9.0,-115.0,64.0,1.0,-2876.0,-9149.0,-9246.0,-9540.0,0.0,5.0,27.0,16.0,25.0,-4.0,-7.0,-1.0,0.1658461093902588
84,-69.0,-43.0,3.0,1.0,-2880.0,-9154.0,-9232.0,-9547.0,0.0,5.0,27.0,16.0,25.0,-4.0,-7.0,-1.0,0.16770100593566895
85,-69.0,-43.0,3.0,1.0,-2880.0,-9154.0,-9232.0,-9547.0,-8.0,-9.0,10.0,7.0,26.0,-2.0,-14.0,-4.0,0.16952872276306152
86,-69.0,-43.0,3.0,1.0,-2880.0,-9154.0,-9232.0,-9547.0,5.0,6.0,12.0,-8.0,-22.0,-1.0,12.0,5.0,0.17132925987243652
87,77.0,40.0,-29.0,1.0,-2868.0,-9147.0,-9234.0,-9555.0,5.0,6.0,12.0,-8.0,-22.0,-1.0,12.0,5.0,0.17334794998168945
88,77.0,40.0,-29.0,1.0,-2868.0,-9147.0,-9234.0,-9555.0,1.0,6.0,3.0,2.0,-5.0,4.0,-1.0,-6.0,0.17658233642578125
89,77.0,40.0,-29.0,1.0,-2868.0,-9147.0,-9234.0,-9555.0,-4.0,-9.0,-13.0,11.0,21.0,-1.0,-9.0,0.0,0.17899775505065918
90,244.0,72.0,-26.0,1.0,-2841.0,-9143.0,-9264.0,-9539.0,-4.0,-9.0,-13.0,11.0,21.0,-1.0,-9.0,0.0,0.1808168888092041
91,244.0,72.0,-26.0,1.0,-2841.0,-9143.0,-9264.0,-9539.0,11.0,1.0,-11.0,-7.0,-35.0,-6.0,-2.0,5.0,0.18268275260925293
92,244.0,72.0,-26.0,1.0,-2841.0,-9143.0,-9264.0,-9539.0,0.0,2.0,15.0,-9.0,-39.0,-25.0,-10.0,-4.0,0.18445587158203125
93,164.0,10.0,-5.0,1.0,-2829.0,-9144.0,-9284.0,-9522.0,0.0,2.0,15.0,-9.0,-39.0,-25.0,-10.0,-4.0,0.18621397018432617
94,164.0,10.0,-5.0,1.0,-2829.0,-9144.0,-9284.0,-9522.0,-9.0,-17.0,-30.0,18.0,34.0,13.0,-14.0,-5.0,0.18827009201049805
95,164.0,10.0,-5.0,1.0,-2829.0,-9144.0,-9284.0,-9522.0,4.0,16.0,12.0,-4.0,-17.0,6.0,13.0,2.0,0.19006013870239258
96,-57.0,5.0,-17.0,1.0,-2834.0,-9140.0,-9279.0,-9529.0,4.0,16.0,12.0,-4.0,-17.0,6.0,13.0,2.0,0.1918184757232666
97,-57.0,5.0,-17.0,1.0,-2834.0,-9140.0,-9279.0,-9529.0,0.0,7.0,-14.0,2.0,28.0,20.0,-1.0,1.0,0.19363880157470703
98,-57.0,5.0,-17.0,1.0,-2834.0,-9140.0,-9279.0,-9529.0,-3.0,-8.0,-3.0,2.0,41.0,5.0,18.0,-1.0,0.1953723430633545
99,-78.0,4.0,-13.0,1.0,-2834.0,-9140.0,-9266.0,-9541.0,-3.0,-8.0,-3.0,2.0,41.0,5.0,18.0,-1.0,0.19713759422302246
100,-78.0,4.0,-13.0,1.0,-2834.0,-9140.0,-9266.0,-9541.0,-3.0,-2.0,2.0,-6.0,2.0,12.0,4.0,0.0,0.19895195960998535
101,-78.0,4.0,-13.0,1.0,-2834.0,-9140.0,-9266.0,-9541.0,-5.0,-1.0,-1.0,10.0,2.0,-4.0,-1.0,1.0,0.2007005214691162
102,46.0,43.0,4.0,1.0,-2819.0,-9140.0,-9268.0,-9544.0,-5.0,-1.0,-1.0,10.0,2.0,-4.0,-1.0,1.0,0.2024388313293457
103,46.0,43.0,4.0,1.0,-2819.0,-9140.0,-9268.0,-9544.0,-1.0,-12.0,20.0,21.0,3.0,-31.0,-25.0,-4.0,0.20438194274902344
104,46.0,43.0,4.0,1.0,-2819.0,-9140.0,-9268.0,-9544.0,6.0,7.0,-9.0,-10.0,32.0,-17.0,-4.0,2.0,0.20723748207092285
105,91.0,35.0,8.0,1.0,-2801.0,-9145.0,-9280.0,-9533.0,6.0,7.0,-9.0,-10.0,32.0,-17.0,-4.0,2.0,0.21000456809997559
106,91.0,35.0,8.0,1.0,-2801.0,-9145.0,-9280.0,-9533.0,-3.0,6.0,-1.0,10.0,-33.0,-8.0,4.0,0.0,0.21196770668029785
107,91.0,35.0,8.0,1.0,-2801.0,-9145.0,-9280.0,-9533.0,-5.0,-4.0,1.0,2.0,-74.0,-1.0,-15.0,-7.0,0.21373748779296875
108,28.0,27.0,13.0,1.0,-2792.0,-9147.0,-9285.0,-9528.0,-5.0,-4.0,1.0,2.0,-74.0,-1.0,-15.0,-7.0,0.21555614471435547
109,28.0,27.0,13.0,1.0,-2792.0,-9147.0,-9285.0,-9528.0,-2.0,0.0,15.0,-20.0,16.0,6.0,-6.0,-5.0,0.21739602088928223
110,28.0,27.0,13.0,1.0,-2792.0,-9147.0,-9285.0,-9528.0,1.0,3.0,10.0,-4.0,-6.0,3.0,-1.0,1.0,0.21915626525878906
111,-44.0,54.0,-16.0,1.0,-2790.0,-9142.0,-9284.0,-9535.0,1.0,3.0,10.0,-4.0,-6.0,3.0,-1.0,1.0,0.22092986106872559
112,-44.0,54.0,-16.0,1.0,-2790.0,-9142.0,-9284.0,-9535.0,-5.0,3.0,-8.0,-19.0,10.0,20.0,8.0,6.0,0.22304439544677734
113,-44.0,54.0,-16.0,1.0,-2790.0,-9142.0,-9284.0,-9535.0,-1.0,-11.0,-11.0,0.0,23.0,-17.0,-11.0,-3.0,0.22481012344360352
114,-5.0,38.0,11.0,1.0,-2781.0,-9143.0,-9285.0,-9536.0,-1.0,-11.0,-11.0,0.0,23.0,-17.0,-11.0,-3.0,0.2265777587890625
115,-5.0,38.0,11.0,1.0,-2781.0,-9143.0,-9285.0,-9536.0,7.0,9.0,5.0,-11.0,21.0,4.0,9.0,5.0,0.22845983505249023
116,-5.0,38.0,11.0,1.0,-2781.0,-9143.0,-9285.0,-9536.0,2.0,0.0,2.0,-12.0,-35.0,10.0,-6.0,1.0,0.23022222518920898
117,46.0,21.0,59.0,1.0,-2766.0,-9150.0,-9286.0,-9532.0,2.0,0.0,2.0,-12.0,-35.0,10.0,-6.0,1.0,0.23197269439697266
118,46.0,21.0,59.0,1.0,-2766.0,-9150.0,-9286.0,-9532.0,-8.0,3.0,-12.0,-1.0,-10.0,-20.0,-56.0,-9.0,0.23383474349975586
119,46.0,21.0,59.0,1.0,-2766.0,-9150.0,-9286.0,-9532.0,7.0,-3.0,5.0,11.0,-22.0,4.0,3.0,6.0,0.23644471168518066
120,26.0,27.0,69.0,1.0,-2757.0,-9155.0,-9288.0,-9528.0,7.0,-3.0,5.0,11.0,-22.0,4.0,3.0,6.0,0.23895621299743652
121,26.0,27.0,69.0,1.0,-2757.0,-9155.0,-9288.0,-9528.0,6.0,-1.0,-6.0,-2.0,4.0,9.0,1.0,-3.0,0.24091601371765137
122,26.0,27.0,69.0,1.0,-2757.0,-9155.0,-9288.0,-9528.0,-7.0,-12.0,-7.0,-1.0,48.0,12.0,-13.0,-6.0,0.24356937408447266
123,-92.0,22.0,63.0,1.0,-2759.0,-9156.0,-9276.0,-9538.0,-7.0,-12.0,-7.0,-1.0,48.0,12.0,-13.0,-6.0,0.245530366897583
124,-92.0,22.0,63.0,1.0,-2759.0,-9156.0,-9276.0,-9538.0,-2.0,4.0,3.0,18.0,1.0,-10.0,11.0,2.0,0.24742579460144043
125,-92.0,22.0,63.0,1.0,-2759.0,-9156.0,-9276.0,-9538.0,-3.0,-4.0,-7.0,-1.0,-30.0,22.0,18.0,-2.0,0.2492821216583252
126,-71.0,49.0,85.0,1.0,-2752.0,-9159.0,-9263.0,-9549.0,-3.0,-4.0,-7.0,-1.0,-30.0,22.0,18.0,-2.0,0.25106239318847656
127,-71.0,49.0,85.0,1.0,-2752.0,-9159.0,-9263.0,-9549.0,-1.0,2.0,-8.0,4.0,-14.0,-1.0,14.0,-1.0,0.2529282569885254
128,-71.0,49.0,85.0,1.0,-2752.0,-9159.0,-9263.0,-9549.0,-3.0,3.0,11.0,2.0,-1.0,-2.0,-15.0,-6.0,0.2548682689666748
129,25.0,44.0,111.0,1.0,-2732.0,-9169.0,-9259.0,-9550.0,-3.0,3.0,11.0,2.0,-1.0,-2.0,-15.0,-6.0,0.25672245025634766
130,25.0,44.0,111.0,1.0,-2732.0,-9169.0,-9259.0,-9550.0,-3.0,-9.0,11.0,1.0,33.0,31.0,40.0,1.0,0.2585923671722412
131,25.0,44.0,111.0,1.0,-2732.0,-9169.0,-9259.0,-9550.0,4.0,15.0,27.0,5.0,34.0,3.0,-9.0,-3.0,0.2603878974914551
132,38.0,0.0,109.0,1.0,-2717.0,-9183.0,-9255.0,-9545.0,4.0,15.0,27.0,5.0,34.0,3.0,-9.0,-3.0,0.2628002166748047
133,38.0,0.0,109.0,1.0,-2717.0,-9183.0,-9255.0,-9545.0,-1.0,1.0,-2.0,-8.0,24.0,9.0,14.0,1.0,0.26474905014038086
134,38.0,0.0,109.0,1.0,-2717.0,-9183.0,-9255.0,-9545.0,-5.0,0.0,-6.0,-16.0,5.0,-7.0,-7.0,-4.0,0.26776766777038574
135,-43.0,-2.0,85.0,1.0,-2713.0,-9191.0,-9245.0,-9547.0,-5.0,0.0,-6.0,-16.0,5.0,-7.0,-7.0,-4.0,0.2702343463897705
136,-43.0,-2.0,85.0,1.0,-2713.0,-9191.0,-9245.0,-9547.0,1.0,-1.0,9.0,-3.0,41.0,4.0,2.0,-1.0,0.2721865177154541
137,-43.0,-2.0,85.0,1.0,-2713.0,-9191.0,-9245.0,-9547.0,2.0,-5.0,-5.0,4.0,9.0,-18.0,-3.0,5.0,0.27400708198547363
138,-102.0,-1.0,54.0,1.0,-2717.0,-9196.0,-9230.0,-9557.0,2.0,-5.0,-5.0,4.0,9.0,-18.0,-3.0,5.0,0.27657365798950195
139,-102.0,-1.0,54.0,1.0,-2717.0,-9196.0,-9230.0,-9557.0,-5.0,-7.0,51.0,20.0,-4.0,-3.0,0.0,-4.0,0.2786390781402588
140,-102.0,-1.0,54.0,1.0,-2717.0,-9196.0,-9230.0,-9557.0,-2.0,-10.0,-36.0,-24.0,-16.0,-2.0,-10.0,-1.0,0.280505895614624
141,-62.0,32.0,40.0,1.0,-2712.0,-9197.0,-9220.0,-9566.0,-2.0,-10.0,-36.0,-24.0,-16.0,-2.0,-10.0,-1.0,0.28231310844421387
142,-62.0,32.0,40.0,1.0,-2712.0,-9197.0,-9220.0,-9566.0,6.0,9.0,13.0,10.0,-17.0,4.0,-5.0,3.0,0.2841951847076416
143,-62.0,32.0,40.0,1.0,-2712.0,-9197.0,-9220.0,-9566.0,-15.0,-8.0,-47.0,-8.0,3.0,-3.0,-5.0,0.0,0.28600263595581055
144,-6.0,17.0,34.0,1.0,-2707.0,-9199.0,-9218.0,-9568.0,-15.0,-8.0,-47.0,-8.0,3.0,-3.0,-5.0,0.0,0.2878098487854004
145,-6.0,17.0,34.0,1.0,-2707.0,-9199.0,-9218.0,-9568.0,3.0,-11.0,-11.0,-6.0,-23.0,-19.0,-5.0,-2.0,0.289813756942749
146,-6.0,17.0,34.0,1.0,-2707.0,-9199.0,-9218.0,-9568.0,2.0,3.0,36.0,21.0,35.0,-9.0,-1.0,-4.0,0.2916679382324219
147,-31.0,-33.0,39.0,1.0,-2711.0,-9206.0,-9213.0,-9565.0,2.0,3.0,36.0,21.0,35.0,-9.0,-1.0,-4.0,0.2934706211090088
148,-31.0,-33.0,39.0,1.0,-2711.0,-9206.0,-9213.0,-9565.0,6.0,0.0,-6.0,5.0,29.0,18.0,26.0,8.0,0.2953941822052002
149,-31.0,-33.0,39.0,1.0,-2711.0,-9206.0,-9213.0,-9565.0,-4.0,4.0,22.0,-8.0,-11.0,-22.0,-10.0,-1.0,0.2982921600341797
150,-104.0,-65.0,14.0,1.0,-2729.0,-9210.0,-9200.0,-9569.0,-4.0,4.0,22.0,-8.0,-11.0,-22.0,-10.0,-1.0,0.3008003234863281
151,-104.0,-65.0,14.0,1.0,-2729.0,-9210.0,-9200.0,-9569.0,-1.0,2.0,-13.0,-16.0,8.0,5.0,-30.0,-3.0,0.30272531509399414
152,-104.0,-65.0,14.0,1.0,-2729.0,-9210.0,-9200.0,-9569.0,0.0,-2.0,4.0,-5.0,-61.0,8.0,1.0,1.0,0.3045499324798584
153,-82.0,-14.0,-13.0,1.0,-2742.0,-9206.0,-9192.0,-9576.0,0.0,-2.0,4.0,-5.0,-61.0,8.0,1.0,1.0,0.3063473701477051
154,-82.0,-14.0,-13.0,1.0,-2742.0,-9206.0,-9192.0,-9576.0,7.0,19.0,29.0,-3.0,-17.0,-13.0,0.0,1.0,0.30825090408325195
155,-82.0,-14.0,-13.0,1.0,-2742.0,-9206.0,-9192.0,-9576.0,4.0,-6.0,-18.0,32.0,1.0,-1.0,9.0,2.0,0.31088805198669434
156,4.0,-32.0,-30.0,1.0,-2753.0,-9203.0,-9197.0,-9572.0,4.0,-6.0,-18.0,32.0,1.0,-1.0,9.0,2.0,0.31279659271240234
157,4.0,-32.0,-30.0,1.0,-2753.0,-9203.0,-9197.0,-9572.0,-5.0,12.0,-7.0,21.0,16.0,-13.0,-11.0,-2.0,0.31466031074523926
158,4.0,-32.0,-30.0,1.0,-2753.0,-9203.0,-9197.0,-9572.0,1.0,9.0,9.0,-14.0,18.0,13.0,5.0,5.0,0.31644272804260254
159,-2.0,-78.0,-15.0,1.0,-2766.0,-9208.0,-9200.0,-9560.0,1.0,9.0,9.0,-14.0,18.0,13.0,5.0,5.0,0.3182108402252197
160,-2.0,-78.0,-15.0,1.0,-2766.0,-9208.0,-9200.0,-9560.0,-8.0,-12.0,5.0,-8.0,13.0,-4.0,-10.0,-7.0,0.3200504779815674
161,-2.0,-78.0,-15.0,1.0,-2766.0,-9208.0,-9200.0,-9560.0,-2.0,-6.0,-34.0,9.0,15.0,-3.0,1.0,0.0,0.32206177711486816
162,-47.0,-67.0,-11.0,1.0,-2781.0,-9212.0,-9197.0,-9554.0,-2.0,-6.0,-34.0,9.0,15.0,-3.0,1.0,0.0,0.32393574714660645
163,-47.0,-67.0,-11.0,1.0,-2781.0,-9212.0,-9197.0,-9554.0,-1.0,-12.0,-3.0,-10.0,-42.0,5.0,4.0,-2.0,0.32578372955322266
164,-47.0,-67.0,-11.0,1.0,-2781.0,-9212.0,-9197.0,-9554.0,4.0,7.0,12.0,-6.0,-14.0,12.0,12.0,5.0,0.32833409309387207
165,-112.0,-92.0,-29.0,1.0,-2805.0,-9215.0,-9187.0,-9554.0,4.0,7.0,12.0,-6.0,-14.0,12.0,12.0,5.0,0.330822229385376
166,-112.0,-92.0,-29.0,1.0,-2805.0,-9215.0,-9187.0,-9554.0,-7.0,-20.0,-36.0,-14.0,-18.0,-9.0,-21.0,-11.0,0.33273863792419434
167,-112.0,-92.0,-29.0,1.0,-2805.0,-9215.0,-9187.0,-9554.0,8.0,18.0,29.0,8.0,-36.0,3.0,-34.0,-5.0,0.33452701568603516
168,-93.0,-74.0,-21.0,1.0,-2824.0,-9219.0,-9177.0,-9555.0,8.0,18.0,29.0,8.0,-36.0,3.0,-34.0,-5.0,0.33631062507629395
169,-93.0,-74.0,-21.0,1.0,-2824.0,-9219.0,-9177.0,-9555.0,2.0,7.0,-17.0,-6.0,-30.0,-10.0,10.0,9.0,0.3381659984588623
170,-93.0,-74.0,-21.0,1.0,-2824.0,-9219.0,-9177.0,-9555.0,-5.0,-5.0,10.0,0.0,31.0,-10.0,31.0,-3.0,0.3399507999420166
171,-46.0,-47.0,5.0,1.0,-2830.0,-9224.0,-9170.0,-9555.0,-5.0,-5.0,10.0,0.0,31.0,-10.0,31.0,-3.0,0.3418238162994385
172,-46.0,-47.0,5.0,1.0,-2830.0,-9224.0,-9170.0,-9555.0,-6.0,-16.0,-22.0,-16.0,-10.0,-3.0,-8.0,-9.0,0.34444093704223633
173,-46.0,-47.0,5.0,1.0,-2830.0,-9224.0,-9170.0,-9555.0,5.0,13.0,9.0,2.0,1.0,3.0,5.0,-1.0,0.34633970260620117
174,35.0,-4.0,17.0,1.0,-2824.0,-9227.0,-9170.0,-9553.0,5.0,13.0,9.0,2.0,1.0,3.0,5.0,-1.0,0.3481333255767822
175,35.0,-4.0,17.0,1.0,-2824.0,-9227.0,-9170.0,-9553.0,2.0,-6.0,-15.0,15.0,20.0,1.0,19.0,5.0,0.34998345375061035
176,114.0,-24.0,13.0,1.0,-2813.0,-9236.0,-9182.0,-9536.0,2.0,-6.0,-15.0,15.0,20.0,1.0,19.0,5.0,0.3517599105834961
177,114.0,-24.0,13.0,1.0,-2813.0,-9236.0,-9182.0,-9536.0,-7.0,-13.0,11.0,-8.0,4.0,0.0,-9.0,-4.0,0.3536255359649658
178,114.0,-24.0,13.0,1.0,-2813.0,-9236.0,-9182.0,-9536.0,-3.0,6.0,11.0,-21.0,-58.0,-34.0,-5.0,-2.0,0.3556363582611084
179,102.0,-19.0,8.0,1.0,-2802.0,-9244.0,-9192.0,-9522.0,-3.0,6.0,11.0,-21.0,-58.0,-34.0,-5.0,-2.0,0.35753440856933594
180,102.0,-19.0,8.0,1.0,-2802.0,-9244.0,-9192.0,-9522.0,0.0,-8.0,-18.0,-2.0,22.0,7.0,-13.0,-7.0,0.3607504367828369
181,102.0,-19.0,8.0,1.0,-2802.0,-9244.0,-9192.0,-9522.0,3.0,-2.0,-9.0,-9.0,-25.0,-2.0,6.0,6.0,0.3627281188964844
182,36.0,15.0,0.0,1.0,-2795.0,-9246.0,-9197.0,-9518.0,3.0,-2.0,-9.0,-9.0,-25.0,-2.0,6.0,6.0,0.36455559730529785
183,36.0,15.0,0.0,1.0,-2795.0,-9246.0,-9197.0,-9518.0,-5.0,0.0,3.0,-9.0,-15.0,-2.0,8.0,2.0,0.36641573905944824
184,36.0,15.0,0.0,1.0,-2795.0,-9246.0,-9197.0,-9518.0,-1.0,5.0,-7.0,2.0,-2.0,32.0,2.0,-1.0,0.3682386875152588
185,44.0,27.0,-3.0,1.0,-2787.0,-9243.0,-9201.0,-9519.0,-1.0,5.0,-7.0,2.0,-2.0,32.0,2.0,-1.0,0.3700408935546875
186,44.0,27.0,-3.0,1.0,-2787.0,-9243.0,-9201.0,-9519.0,-3.0,3.0,35.0,-27.0,-4.0,-4.0,-1.0,0.0,0.37189602851867676
187,44.0,27.0,-3.0,1.0,-2787.0,-9243.0,-9201.0,-9519.0,-5.0,4.0,-10.0,-13.0,-4.0,-7.0,-2.0,-2.0,0.37366294860839844
188,113.0,10.0,-14.0,1.0,-2775.0,-9247.0,-9217.0,-9503.0,-5.0,4.0,-10.0,-13.0,-4.0,-7.0,-2.0,-2.0,0.3762240409851074
189,113.0,10.0,-14.0,1.0,-2775.0,-9247.0,-9217.0,-9503.0,-3.0,-15.0,-18.0,18.0,8.0,-1.0,2.0,-1.0,0.378284215927124
190,113.0,10.0,-14.0,1.0,-2775.0,-9247.0,-9217.0,-9503.0,-3.0,-3.0,6.0,-7.0,15.0,4.0,3.0,-3.0,0.3800959587097168
191,81.0,11.0,-13.0,1.0,-2766.0,-9248.0,-9228.0,-9494.0,-3.0,-3.0,6.0,-7.0,15.0,4.0,3.0,-3.0,0.38189077377319336
192,81.0,11.0,-13.0,1.0,-2766.0,-9248.0,-9228.0,-9494.0,-2.0,3.0,-13.0,-7.0,-19.0,-10.0,25.0,-3.0,0.38377857208251953
193,81.0,11.0,-13.0,1.0,-2766.0,-9248.0,-9228.0,-9494.0,3.0,-5.0,-1.0,13.0,-4.0,-14.0,1.0,4.0,0.3855562210083008
194,35.0,33.0,0.0,1.0,-2759.0,-9247.0,-9235.0,-9490.0,3.0,-5.0,-1.0,13.0,-4.0,-14.0,1.0,4.0,0.3873169422149658
195,35.0,33.0,0.0,1.0,-2759.0,-9247.0,-9235.0,-9490.0,2.0,9.0,-16.0,9.0,40.0,15.0,-14.0,3.0,0.39011049270629883
196,35.0,33.0,0.0,1.0,-2759.0,-9247.0,-9235.0,-9490.0,-3.0,5.0,7.0,14.0,14.0,31.0,18.0,-3.0,0.39372849464416504
197,44.0,42.0,36.0,1.0,-2747.0,-9250.0,-9242.0,-9484.0,-3.0,5.0,7.0,14.0,14.0,31.0,18.0,-3.0,0.39579319953918457
198,44.0,42.0,36.0,1.0,-2747.0,-9250.0,-9242.0,-9484.0,2.0,-4.0,2.0,2.0,-19.0,-3.0,15.0,3.0,0.39767885208129883
199,44.0,42.0,36.0,1.0,-2747.0,-9250.0,-9242.0,-9484.0,2.0,2.0,-6.0,5.0,3.0,-8.0,-15.0,-1.0,0.4079737663269043
200,-13.0,64.0,54.0,1.0,-2738.0,-9248.0,-9239.0,-9491.0,2.0,2.0,-6.0,5.0,3.0,-8.0,-15.0,-1.0,0.40976738929748535
201,-13.0,64.0,54.0,1.0,-2738.0,-9248.0,-9239.0,-9491.0,2.0,20.0,26.0,33.0,28.0,-7.0,-32.0,-4.0,0.4154660701751709
202,-13.0,64.0,54.0,1.0,-2738.0,-9248.0,-9239.0,-9491.0,1.0,-1.0,-4.0,7.0,25.0,-9.0,-5.0,1.0,0.42424774169921875
203,-9.0,55.0,84.0,1.0,-2726.0,-9251.0,-9235.0,-9495.0,1.0,-1.0,-4.0,7.0,25.0,-9.0,-5.0,1.0,0.4313991069793701
204,-9.0,55.0,84.0,1.0,-2726.0,-9251.0,-9235.0,-9495.0,7.0,-3.0,-13.0,10.0,13.0,3.0,-4.0,1.0,0.43441176414489746
205,-9.0,55.0,84.0,1.0,-2726.0,-9251.0,-9235.0,-9495.0,0.0,-2.0,2.0,3.0,33.0,12.0,9.0,-1.0,0.4458158016204834
206,32.0,24.0,88.0,1.0,-2710.0,-9261.0,-9232.0,-9494.0,0.0,-2.0,2.0,3.0,33.0,12.0,9.0,-1.0,0.44765663146972656
207,32.0,24.0,88.0,1.0,-2710.0,-9261.0,-9232.0,-9494.0,2.0,-15.0,-13.0,-22.0,-7.0,-7.0,1.0,-2.0,0.4542057514190674
208,32.0,24.0,88.0,1.0,-2710.0,-9261.0,-9232.0,-9494.0,-4.0,-6.0,-1.0,-11.0,7.0,-8.0,-40.0,-9.0,0.46921443939208984
209,0.0,19.0,74.0,1.0,-2698.0,-9268.0,-9224.0,-9498.0,-4.0,-6.0,-1.0,-11.0,7.0,-8.0,-40.0,-9.0,0.4730041027069092
210,0.0,19.0,74.0,1.0,-2698.0,-9268.0,-9224.0,-9498.0,-1.0,5.0,13.0,-15.0,-67.0,-10.0,3.0,6.0,0.4767916202545166
211,0.0,19.0,74.0,1.0,-2698.0,-9268.0,-9224.0,-9498.0,-1.0,-5.0,0.0,-6.0,4.0,-3.0,1.0,3.0,0.4842500686645508
212,33.0,54.0,83.0,1.0,-2678.0,-9272.0,-9218.0,-9506.0,-1.0,-5.0,0.0,-6.0,4.0,-3.0,1.0,3.0,0.4907815456390381
213,33.0,54.0,83.0,1.0,-2678.0,-9272.0,-9218.0,-9506.0,5.0,6.0,25.0,-7.0,1.0,-9.0,13.0,-3.0,0.49339962005615234
214,33.0,54.0,83.0,1.0,-2678.0,-9272.0,-9218.0,-9506.0,1.0,-6.0,-6.0,-8.0,-8.0,12.0,1.0,-2.0,0.5065896511077881
215,136.0,67.0,98.0,1.0,-2647.0,-9278.0,-9223.0,-9503.0,1.0,-6.0,-6.0,-8.0,-8.0,12.0,1.0,-2.0,0.5095396041870117
216,136.0,67.0,98.0,1.0,-2647.0,-9278.0,-9223.0,-9503.0,-9.0,-25.0,-49.0,11.0,14.0,10.0,5.0,-4.0,0.5138452053070068
217,136.0,67.0,98.0,1.0,-2647.0,-9278.0,-9223.0,-9503.0,-4.0,-6.0,-1.0,4.0,-9.0,2.0,6.0,0.0,0.5284018516540527
218,123.0,51.0,120.0,1.0,-2618.0,-9288.0,-9225.0,-9500.0,-4.0,-6.0,-1.0,4.0,-9.0,2.0,6.0,0.0,0.5301852226257324
219,123.0,51.0,120.0,1.0,-2618.0,-9288.0,-9225.0,-9500.0,1.0,-1.0,2.0,-14.0,-90.0,-26.0,10.0,0.0,0.534996509552002
220,123.0,51.0,120.0,1.0,-2618.0,-9288.0,-9225.0,-9500.0,-4.0,-3.0,-20.0,-18.0,-5.0,-15.0,10.0,2.0,0.542609691619873
221,68.0,50.0,119.0,1.0,-2593.0,-9297.0,-9222.0,-9501.0,-4.0,-3.0,-20.0,-18.0,-5.0,-15.0,10.0,2.0,0.5586814880371094
222,68.0,50.0,119.0,1.0,-2593.0,-9297.0,-9222.0,-9501.0,-2.0,1.0,1.0,-26.0,24.0,13.0,-12.0,-1.0,0.5618956089019775
223,68.0,50.0,119.0,1.0,-2593.0,-9297.0,-9222.0,-9501.0,3.0,4.0,11.0,-6.0,-11.0,-18.0,13.0,2.0,0.5663762092590332
224,54.0,35.0,115.0,1.0,-2574.0,-9308.0,-9222.0,-9496.0,3.0,4.0,11.0,-6.0,-11.0,-18.0,13.0,2.0,0.5692944526672363
225,54.0,35.0,115.0,1.0,-2574.0,-9308.0,-9222.0,-9496.0,3.0,-6.0,-17.0,-2.0,4.0,1.0,-8.0,-5.0,0.5732107162475586
226,54.0,35.0,115.0,1.0,-2574.0,-9308.0,-9222.0,-9496.0,0.0,-4.0,-9.0,27.0,67.0,8.0,-1.0,1.0,0.5886852741241455
227,2.0,-20.0,96.0,1.0,-2569.0,-9319.0,-9216.0,-9491.0,0.0,-4.0,-9.0,27.0,67.0,8.0,-1.0,1.0,0.5916092395782471
228,2.0,-20.0,96.0,1.0,-2569.0,-9319.0,-9216.0,-9491.0,-2.0,51.0,48.0,1.0,16.0,-1.0,-5.0,1.0,0.5959162712097168
229,2.0,-20.0,96.0,1.0,-2569.0,-9319.0,-9216.0,-9491.0,-4.0,-2.0,20.0,9.0,-10.0,-10.0,-5.0,-3.0,0.6031701564788818
230,1.0,-61.0,110.0,1.0,-2562.0,-9340.0,-9206.0,-9482.0,-4.0,-2.0,20.0,9.0,-10.0,-10.0,-5.0,-3.0,0.611546516418457
231,1.0,-61.0,110.0,1.0,-2562.0,-9340.0,-9206.0,-9482.0,2.0,-11.0,10.0,-4.0,-4.0,11.0,8.0,-4.0,0.613410234451294
232,1.0,-61.0,110.0,1.0,-2562.0,-9340.0,-9206.0,-9482.0,-3.0,6.0,7.0,-1.0,0.0,-2.0,-19.0,-3.0,0.6255912780761719
233,69.0,-79.0,103.0,1.0,-2552.0,-9362.0,-9204.0,-9465.0,-3.0,6.0,7.0,-1.0,0.0,-2.0,-19.0,-3.0,0.6273493766784668
234,69.0,-79.0,103.0,1.0,-2552.0,-9362.0,-9204.0,-9465.0,-3.0,-14.0,-6.0,21.0,40.0,12.0,39.0,7.0,0.6333661079406738
235,69.0,-79.0,103.0,1.0,-2552.0,-9362.0,-9204.0,-9465.0,14.0,27.0,30.0,16.0,16.0,14.0,22.0,6.0,0.6494510173797607
236,-16.0,-17.0,62.0,1.0,-2550.0,-9369.0,-9195.0,-9468.0,14.0,27.0,30.0,16.0,16.0,14.0,22.0,6.0,0.6531059741973877
237,-16.0,-17.0,62.0,1.0,-2550.0,-9369.0,-9195.0,-9468.0,-9.0,-28.0,-59.0,-27.0,-6.0,-14.0,-14.0,-3.0,0.6573784351348877
238,-16.0,-17.0,62.0,1.0,-2550.0,-9369.0,-9195.0,-9468.0,-3.0,-1.0,-4.0,10.0,-34.0,-8.0,-17.0,-2.0,0.6642465591430664
239,-1.0,82.0,36.0,1.0,-2540.0,-9366.0,-9200.0,-9468.0,-3.0,-1.0,-4.0,10.0,-34.0,-8.0,-17.0,-2.0,0.6710116863250732
240,-1.0,82.0,36.0,1.0,-2540.0,-9366.0,-9200.0,-9468.0,-5.0,-3.0,-14.0,1.0,-3.0,2.0,6.0,-2.0,0.6729559898376465
241,-1.0,82.0,36.0,1.0,-2540.0,-9366.0,-9200.0,-9468.0,-4.0,-6.0,-13.0,-17.0,-13.0,13.0,12.0,4.0,0.687105655670166
242,-59.0,54.0,62.0,1.0,-2536.0,-9366.0,-9193.0,-9476.0,-4.0,-6.0,-13.0,-17.0,-13.0,13.0,12.0,4.0,0.689910888671875
243,-59.0,54.0,62.0,1.0,-2536.0,-9366.0,-9193.0,-9476.0,0.0,6.0,26.0,5.0,14.0,3.0,-20.0,-2.0,0.69181227684021
244,-59.0,54.0,62.0,1.0,-2536.0,-9366.0,-9193.0,-9476.0,-9.0,-10.0,6.0,-20.0,-40.0,-9.0,1.0,-5.0,0.7097220420837402
245,-100.0,106.0,144.0,1.0,-2520.0,-9367.0,-9171.0,-9501.0,-9.0,-10.0,6.0,-20.0,-40.0,-9.0,1.0,-5.0,0.7130146026611328
246,-100.0,106.0,144.0,1.0,-2520.0,-9367.0,-9171.0,-9501.0,-2.0,-15.0,-84.0,-68.0,-31.0,2.0,-24.0,-8.0,0.7163140773773193
247,-100.0,106.0,144.0,1.0,-2520.0,-9367.0,-9171.0,-9501.0,-6.0,7.0,-24.0,-10.0,-8.0,-7.0,-13.0,-6.0,0.7339394092559814
248,-29.0,90.0,139.0,1.0,-2506.0,-9368.0,-9162.0,-9512.0,-6.0,7.0,-24.0,-10.0,-8.0,-7.0,-13.0,-6.0,0.7379717826843262
249,-29.0,90.0,139.0,1.0,-2506.0,-9368.0,-9162.0,-9512.0,-4.0,1.0,0.0,-54.0,-2.0,-15.0,-11.0,3.0,0.7410764694213867
250,-29.0,90.0,139.0,1.0,-2506.0,-9368.0,-9162.0,-9512.0,-3.0,-10.0,24.0,44.0,39.0,19.0,11.0,10.0,0.7457466125488281
251,-103.0,55.0,102.0,1.0,-2504.0,-9368.0,-9144.0,-9530.0,-3.0,-10.0,24.0,44.0,39.0,19.0,11.0,10.0,0.7475130558013916
252,-103.0,55.0,102.0,1.0,-2504.0,-9368.0,-9144.0,-9530.0,-9.0,-3.0,-20.0,14.0,25.0,5.0,3.0,-2.0,0.7527658939361572
253,-103.0,55.0,102.0,1.0,-2504.0,-9368.0,-9144.0,-9530.0,6.0,-3.0,4.0,55.0,18.0,-2.0,-1.0,-2.0,0.7687242031097412
254,-153.0,57.0,63.0,1.0,-2508.0,-9361.0,-9120.0,-9559.0,6.0,-3.0,4.0,55.0,18.0,-2.0,-1.0,-2.0,0.7716822624206543
255,-153.0,57.0,63.0,1.0,-2508.0,-9361.0,-9120.0,-9559.0,-2.0,0.0,-1.0,36.0,10.0,-1.0,-2.0,-1.0,0.7763509750366211
256,-153.0,57.0,63.0,1.0,-2508.0,-9361.0,-9120.0,-9559.0,5.0,4.0,-6.0,-19.0,-28.0,-7.0,-35.0,-8.0,0.7932133674621582
257,-26.0,5.0,59.0,1.0,-2509.0,-9364.0,-9115.0,-9561.0,5.0,4.0,-6.0,-19.0,-28.0,-7.0,-35.0,-8.0,0.7970423698425293
258,-26.0,5.0,59.0,1.0,-2509.0,-9364.0,-9115.0,-9561.0,12.0,3.0,22.0,1.0,13.0,-3.0,-20.0,12.0,0.8005383014678955
259,-26.0,5.0,59.0,1.0,-2509.0,-9364.0,-9115.0,-9561.0,7.0,0.0,-2.0,-5.0,-21.0,-8.0,19.0,9.0,0.8058116436004639
260,-55.0,-11.0,33.0,1.0,-2518.0,-9360.0,-9104.0,-9572.0,7.0,0.0,-2.0,-5.0,-21.0,-8.0,19.0,9.0,0.8075830936431885
261,-55.0,-11.0,33.0,1.0,-2518.0,-9360.0,-9104.0,-9572.0,0.0,1.0,15.0,51.0,-7.0,-7.0,-1.0,-8.0,0.8127889633178711
262,-55.0,-11.0,33.0,1.0,-2518.0,-9360.0,-9104.0,-9572.0,2.0,24.0,12.0,-9.0,7.0,7.0,7.0,1.0,0.8286604881286621
263,-90.0,-25.0,22.0,1.0,-2538.0,-9355.0,-9095.0,-9581.0,2.0,24.0,12.0,-9.0,7.0,7.0,7.0,1.0,0.8304386138916016
264,-90.0,-25.0,22.0,1.0,-2538.0,-9355.0,-9095.0,-9581.0,5.0,0.0,20.0,49.0,13.0,2.0,1.0,5.0,0.8352298736572266
265,-90.0,-25.0,22.0,1.0,-2538.0,-9355.0,-9095.0,-9581.0,1.0,0.0,1.0,-26.0,1.0,-9.0,6.0,-4.0,0.8516385555267334
266,-13.0,-79.0,20.0,1.0,-2543.0,-9364.0,-9085.0,-9579.0,1.0,0.0,1.0,-26.0,1.0,-9.0,6.0,-4.0,0.8552894592285156
267,-13.0,-79.0,20.0,1.0,-2543.0,-9364.0,-9085.0,-9579.0,-5.0,-3.0,2.0,13.0,3.0,14.0,4.0,0.0,0.8586890697479248
268,-13.0,-79.0,20.0,1.0,-2543.0,-9364.0,-9085.0,-9579.0,0.0,-11.0,5.0,-2.0,47.0,21.0,16.0,-4.0,0.8664007186889648
269,142.0,-60.0,11.0,1.0,-2535.0,-9373.0,-9096.0,-9563.0,0.0,-11.0,5.0,-2.0,47.0,21.0,16.0,-4.0,0.8689610958099365
270,142.0,-60.0,11.0,1.0,-2535.0,-9373.0,-9096.0,-9563.0,1.0,-1.0,6.0,-40.0,-22.0,-14.0,25.0,-6.0,0.8729410171508789
271,142.0,-60.0,11.0,1.0,-2535.0,-9373.0,-9096.0,-9563.0,3.0,0.0,-11.0,11.0,2.0,15.0,-6.0,0.0,0.8890905380249023
272,108.0,-87.0,-25.0,1.0,-2542.0,-9377.0,-9109.0,-9545.0,3.0,0.0,-11.0,11.0,2.0,15.0,-6.0,0.0,0.8928802013397217
273,108.0,-87.0,-25.0,1.0,-2542.0,-9377.0,-9109.0,-9545.0,1.0,11.0,19.0,11.0,-8.0,-3.0,-11.0,-4.0,0.8962826728820801
274,108.0,-87.0,-25.0,1.0,-2542.0,-9377.0,-9109.0,-9545.0,-2.0,3.0,-24.0,-47.0,-22.0,-9.0,-10.0,-2.0,0.9122562408447266
275,102.0,-116.0,-49.0,1.0,-2551.0,-9387.0,-9125.0,-9518.0,-2.0,3.0,-24.0,-47.0,-22.0,-9.0,-10.0,-2.0,0.9162089824676514
276,102.0,-116.0,-49.0,1.0,-2551.0,-9387.0,-9125.0,-9518.0,9.0,11.0,0.0,-2.0,-20.0,-23.0,-4.0,0.0,0.9202871322631836
277,102.0,-116.0,-49.0,1.0,-2551.0,-9387.0,-9125.0,-9518.0,-7.0,-17.0,-21.0,-2.0,-24.0,-36.0,-27.0,-7.0,0.9279732704162598
278,38.0,-70.0,-43.0,1.0,-2556.0,-9395.0,-9136.0,-9497.0,-7.0,-17.0,-21.0,-2.0,-24.0,-36.0,-27.0,-7.0,0.9303269386291504
279,38.0,-70.0,-43.0,1.0,-2556.0,-9395.0,-9136.0,-9497.0,-2.0,-3.0,-4.0,1.0,11.0,12.0,11.0,2.0,0.932178258895874
280,38.0,-70.0,-43.0,1.0,-2556.0,-9395.0,-9136.0,-9497.0,14.0,38.0,21.0,23.0,28.0,7.0,2.0,2.0,0.9491393566131592
281,5.0,-24.0,-32.0,1.0,-2557.0,-9398.0,-9137.0,-9494.0,14.0,38.0,21.0,23.0,28.0,7.0,2.0,2.0,0.952141523361206
282,5.0,-24.0,-32.0,1.0,-2557.0,-9398.0,-9137.0,-9494.0,-7.0,-8.0,10.0,-16.0,-25.0,-10.0,5.0,-2.0,0.9558043479919434
283,5.0,-24.0,-32.0,1.0,-2557.0,-9398.0,-9137.0,-9494.0,-9.0,-23.0,-18.0,-29.0,-4.0,13.0,10.0,4.0,0.9723160266876221
284,116.0,-12.0,-47.0,1.0,-2552.0,-9397.0,-9154.0,-9480.0,-9.0,-23.0,-18.0,-29.0,-4.0,13.0,10.0,4.0,0.9755070209503174
285,116.0,-12.0,-47.0,1.0,-2552.0,-9397.0,-9154.0,-9480.0,-1.0,-7.0,7.0,-3.0,13.0,33.0,13.0,2.0,0.9794468879699707
286,116.0,-12.0,-47.0,1.0,-2552.0,-9397.0,-9154.0,-9480.0,2.0,12.0,32.0,-5.0,17.0,17.0,-4.0,-3.0,0.9859416484832764
287,55.0,3.0,-103.0,1.0,-2559.0,-9386.0,-9171.0,-9471.0,2.0,12.0,32.0,-5.0,17.0,17.0,-4.0,-3.0,0.9877495765686035
288,55.0,3.0,-103.0,1.0,-2559.0,-9386.0,-9171.0,-9471.0,-11.0,-19.0,-6.0,-8.0,-6.0,-28.0,-11.0,-5.0,0.9934203624725342
289,55.0,3.0,-103.0,1.0,-2559.0,-9386.0,-9171.0,-9471.0,-7.0,-11.0,-43.0,41.0,26.0,-29.0,-24.0,-9.0,1.0092229843139648
290,-9.0,38.0,-153.0,1.0,-2573.0,-9366.0,-9187.0,-9472.0,-7.0,-11.0,-43.0,41.0,26.0,-29.0,-24.0,-9.0,1.011692762374878
291,-9.0,38.0,-153.0,1.0,-2573.0,-9366.0,-9187.0,-9472.0,10.0,40.0,50.0,-5.0,-17.0,11.0,-28.0,3.0,1.0151057243347168
292,-9.0,38.0,-153.0,1.0,-2573.0,-9366.0,-9187.0,-9472.0,6.0,-20.0,-37.0,-10.0,-29.0,18.0,39.0,14.0,1.031217098236084
293,123.0,78.0,-225.0,1.0,-2573.0,-9340.0,-9224.0,-9462.0,6.0,-20.0,-37.0,-10.0,-29.0,18.0,39.0,14.0,1.0329992771148682
294,123.0,78.0,-225.0,1.0,-2573.0,-9340.0,-9224.0,-9462.0,3.0,-2.0,-29.0,9.0,30.0,-1.0,-13.0,-2.0,1.034827709197998
295,123.0,78.0,-225.0,1.0,-2573.0,-9340.0,-9224.0,-9462.0,15.0,46.0,64.0,8.0,18.0,11.0,-1.0,7.0,1.045724868774414
296,161.0,146.0,-280.0,1.0,-2575.0,-9297.0,-9271.0,-9459.0,15.0,46.0,64.0,8.0,18.0,11.0,-1.0,7.0,1.0475006103515625
297,161.0,146.0,-280.0,1.0,-2575.0,-9297.0,-9271.0,-9459.0,-6.0,-8.0,-8.0,-24.0,6.0,-2.0,0.0,1.0,1.0528006553649902
298,161.0,146.0,-280.0,1.0,-2575.0,-9297.0,-9271.0,-9459.0,12.0,40.0,100.0,46.0,-9.0,-9.0,-8.0,1.0,1.0684330463409424
299,128.0,114.0,-291.0,1.0,-2585.0,-9255.0,-9316.0,-9452.0,12.0,40.0,100.0,46.0,-9.0,-9.0,-8.0,1.0,1.0725860595703125
300,128.0,114.0,-291.0,1.0,-2585.0,-9255.0,-9316.0,-9452.0,-10.0,5.0,-22.0,-10.0,-40.0,-23.0,-27.0,-8.0,1.0771141052246094
301,128.0,114.0,-291.0,1.0,-2585.0,-9255.0,-9316.0,-9452.0,-14.0,-51.0,-44.0,11.0,6.0,-5.0,-2.0,-5.0,1.0909276008605957
302,44.0,228.0,-366.0,1.0,-2593.0,-9192.0,-9356.0,-9471.0,-14.0,-51.0,-44.0,11.0,6.0,-5.0,-2.0,-5.0,1.0936696529388428
303,44.0,228.0,-366.0,1.0,-2593.0,-9192.0,-9356.0,-9471.0,-2.0,-6.0,62.0,38.0,-69.0,-16.0,18.0,4.0,1.098620891571045
304,44.0,228.0,-366.0,1.0,-2593.0,-9192.0,-9356.0,-9471.0,6.0,68.0,74.0,19.0,5.0,11.0,-15.0,-4.0,1.115600347518921
305,150.0,393.0,-640.0,1.0,-2594.0,-9093.0,-9436.0,-9488.0,6.0,68.0,74.0,19.0,5.0,11.0,-15.0,-4.0,1.1194944381713867
306,150.0,393.0,-640.0,1.0,-2594.0,-9093.0,-9436.0,-9488.0,-37.0,-114.0,-33.0,-27.0,19.0,15.0,7.0,-11.0,1.1237268447875977
307,150.0,393.0,-640.0,1.0,-2594.0,-9093.0,-9436.0,-9488.0,9.0,50.0,65.0,-17.0,-73.0,-76.0,101.0,-16.0,1.128084659576416
308,110.0,336.0,-1021.0,1.0,-2677.0,-8933.0,-9552.0,-9500.0,9.0,50.0,65.0,-17.0,-73.0,-76.0,101.0,-16.0,1.1299962997436523
309,110.0,336.0,-1021.0,1.0,-2677.0,-8933.0,-9552.0,-9500.0,9.0,50.0,65.0,-17.0,-73.0,-76.0,101.0,-16.0,1.1350469589233398
310,110.0,336.0,-1021.0,1.0,-2677.0,-8933.0,-9552.0,-9500.0,12.0,-40.0,-104.0,30.0,-23.0,4.0,-10.0,-4.0,1.151221513748169
311,110.0,336.0,-1021.0,1.0,-2677.0,-8933.0,-9552.0,-9500.0,-44.0,-128.0,-62.0,-65.0,16.0,14.0,-31.0,-10.0,1.154233455657959
312,-245.0,392.0,-1127.0,1.0,-2823.0,-8725.0,-9641.0,-9562.0,-44.0,-128.0,-62.0,-65.0,16.0,14.0,-31.0,-10.0,1.1576688289642334
313,-245.0,392.0,-1127.0,1.0,-2823.0,-8725.0,-9641.0,-9562.0,22.0,102.0,100.0,-29.0,20.0,10.0,-5.0,-7.0,1.160963535308838
314,-245.0,392.0,-1127.0,1.0,-2823.0,-8725.0,-9641.0,-9562.0,-33.0,-80.0,-122.0,-11.0,-37.0,-24.0,21.0,-2.0,1.1665146350860596
315,-501.0,345.0,-1369.0,1.0,-3005.0,-8496.0,-9710.0,-9642.0,-33.0,-80.0,-122.0,-11.0,-37.0,-24.0,21.0,-2.0,1.1689152717590332
316,-501.0,345.0,-1369.0,1.0,-3005.0,-8496.0,-9710.0,-9642.0,-3.0,7.0,-38.0,42.0,32.0,-10.0,-27.0,-6.0,1.1726946830749512
317,-501.0,345.0,-1369.0,1.0,-3005.0,-8496.0,-9710.0,-9642.0,-10.0,-56.0,-128.0,-12.0,6.0,18.0,3.0,-7.0,1.1889431476593018
318,-204.0,226.0,-1907.0,1.0,-3216.0,-8247.0,-9871.0,-9627.0,-10.0,-56.0,-128.0,-12.0,6.0,18.0,3.0,-7.0,1.1921453475952148
319,-204.0,226.0,-1907.0,1.0,-3216.0,-8247.0,-9871.0,-9627.0,6.0,14.0,-2.0,-20.0,-51.0,-7.0,-5.0,0.0,1.1964449882507324
320,-204.0,226.0,-1907.0,1.0,-3216.0,-8247.0,-9871.0,-9627.0,-22.0,-70.0,-116.0,-24.0,-3.0,-5.0,-25.0,-12.0,1.2124879360198975
321,-173.0,1.0,-2460.0,1.0,-3518.0,-7949.0,-10069.0,-9567.0,-22.0,-70.0,-116.0,-24.0,-3.0,-5.0,-25.0,-12.0,1.2156329154968262
322,-173.0,1.0,-2460.0,1.0,-3518.0,-7949.0,-10069.0,-9567.0,15.0,-3.0,65.0,103.0,69.0,21.0,32.0,19.0,1.2186801433563232
323,-173.0,1.0,-2460.0,1.0,-3518.0,-7949.0,-10069.0,-9567.0,6.0,26.0,8.0,-4.0,59.0,22.0,-24.0,3.0,1.2280523777008057
324,-473.0,58.0,-2607.0,1.0,-3861.0,-7602.0,-10239.0,-9536.0,6.0,26.0,8.0,-4.0,59.0,22.0,-24.0,3.0,1.2300348281860352
325,-473.0,58.0,-2607.0,1.0,-3861.0,-7602.0,-10239.0,-9536.0,-33.0,-36.0,-44.0,-21.0,2.0,11.0,28.0,-10.0,1.2318811416625977
326,-473.0,58.0,-2607.0,1.0,-3861.0,-7602.0,-10239.0,-9536.0,4.0,28.0,22.0,-2.0,-8.0,4.0,-24.0,7.0,1.248511552810669
327,-1357.0,-50.0,-2871.0,1.0,-4275.0,-7225.0,-10328.0,-9556.0,4.0,28.0,22.0,-2.0,-8.0,4.0,-24.0,7.0,1.2514290809631348
328,-1357.0,-50.0,-2871.0,1.0,-4275.0,-7225.0,-10328.0,-9556.0,26.0,29.0,17.0,-13.0,5.0,-12.0,-28.0,17.0,1.2567455768585205
329,-1357.0,-50.0,-2871.0,1.0,-4275.0,-7225.0,-10328.0,-9556.0,25.0,35.0,10.0,-17.0,-6.0,33.0,52.0,12.0,1.2707328796386719
330,-2179.0,-51.0,-3193.0,1.0,-4816.0,-6731.0,-10335.0,-9652.0,25.0,35.0,10.0,-17.0,-6.0,33.0,52.0,12.0,1.2738795280456543
331,-2179.0,-51.0,-3193.0,1.0,-4816.0,-6731.0,-10335.0,-9652.0,9.0,-5.0,-8.0,-14.0,23.0,11.0,11.0,4.0,1.2788670063018799
332,-2179.0,-51.0,-3193.0,1.0,-4816.0,-6731.0,-10335.0,-9652.0,-13.0,-1.0,21.0,-48.0,17.0,-3.0,-16.0,-7.0,1.286362886428833
333,-2547.0,-50.0,-3478.0,1.0,-5391.0,-6183.0,-10305.0,-9746.0,-13.0,-1.0,21.0,-48.0,17.0,-3.0,-16.0,-7.0,1.2885985374450684
334,-2547.0,-50.0,-3478.0,1.0,-5391.0,-6183.0,-10305.0,-9746.0,0.0,5.0,-67.0,-16.0,21.0,3.0,-2.0,-3.0,1.2935898303985596
335,-2547.0,-50.0,-3478.0,1.0,-5391.0,-6183.0,-10305.0,-9746.0,12.0,33.0,56.0,0.0,-5.0,-3.0,-7.0,11.0,1.308896780014038
336,-3038.0,-44.0,-3879.0,1.0,-6014.0,-5556.0,-10230.0,-9837.0,12.0,33.0,56.0,0.0,-5.0,-3.0,-7.0,11.0,1.3125319480895996
337,-3038.0,-44.0,-3879.0,1.0,-6014.0,-5556.0,-10230.0,-9837.0,6.0,13.0,2.0,-13.0,19.0,1.0,15.0,4.0,1.3167133331298828
338,-3038.0,-44.0,-3879.0,1.0,-6014.0,-5556.0,-10230.0,-9837.0,3.0,-15.0,-14.0,15.0,-10.0,8.0,22.0,3.0,1.3319916725158691
339,-3615.0,-109.0,-4069.0,1.0,-6666.0,-4870.0,-10074.0,-9941.0,3.0,-15.0,-14.0,15.0,-10.0,8.0,22.0,3.0,1.334197998046875
340,-3615.0,-109.0,-4069.0,1.0,-6666.0,-4870.0,-10074.0,-9941.0,-18.0,-5.0,14.0,44.0,20.0,2.0,-19.0,-10.0,1.3376808166503906
341,-3615.0,-109.0,-4069.0,1.0,-6666.0,-4870.0,-10074.0,-9941.0,3.0,18.0,52.0,37.0,8.0,1.0,-2.0,-4.0,1.3451976776123047
342,-3895.0,-55.0,-4092.0,1.0,-7293.0,-4151.0,-9861.0,-10041.0,3.0,18.0,52.0,37.0,8.0,1.0,-2.0,-4.0,1.3533995151519775
343,-3895.0,-55.0,-4092.0,1.0,-7293.0,-4151.0,-9861.0,-10041.0,9.0,17.0,25.0,-9.0,-8.0,5.0,22.0,3.0,1.3553078174591064
344,-3895.0,-55.0,-4092.0,1.0,-7293.0,-4151.0,-9861.0,-10041.0,19.0,22.0,-5.0,4.0,-5.0,-21.0,-48.0,0.0,1.369067668914795
345,-3930.0,4.0,-4179.0,1.0,-7889.0,-3407.0,-9619.0,-10104.0,19.0,22.0,-5.0,4.0,-5.0,-21.0,-48.0,0.0,1.372772455215454
346,-3930.0,4.0,-4179.0,1.0,-7889.0,-3407.0,-9619.0,-10104.0,-1.0,8.0,-6.0,-83.0,26.0,2.0,-5.0,0.0,1.3760979175567627
347,-3930.0,4.0,-4179.0,1.0,-7889.0,-3407.0,-9619.0,-10104.0,-13.0,-4.0,10.0,-14.0,-9.0,-63.0,-23.0,-8.0,1.3919641971588135
348,-3852.0,152.0,-4177.0,1.0,-8435.0,-2642.0,-9370.0,-10126.0,-13.0,-4.0,10.0,-14.0,-9.0,-63.0,-23.0,-8.0,1.3953464031219482
349,-3852.0,152.0,-4177.0,1.0,-8435.0,-2642.0,-9370.0,-10126.0,-7.0,-18.0,-44.0,-6.0,-96.0,-37.0,-18.0,-2.0,1.3984224796295166
350,-3852.0,152.0,-4177.0,1.0,-8435.0,-2642.0,-9370.0,-10126.0,-4.0,-20.0,-5.0,5.0,49.0,53.0,-11.0,-3.0,1.4054844379425049
351,-3696.0,263.0,-3921.0,1.0,-8898.0,-1906.0,-9118.0,-10125.0,-4.0,-20.0,-5.0,5.0,49.0,53.0,-11.0,-3.0,1.413362979888916
352,-3696.0,263.0,-3921.0,1.0,-8898.0,-1906.0,-9118.0,-10125.0,-3.0,2.0,21.0,10.0,-12.0,-27.0,8.0,-14.0,1.4153878688812256
353,-3696.0,263.0,-3921.0,1.0,-8898.0,-1906.0,-9118.0,-10125.0,-1.0,-1.0,48.0,47.0,7.0,2.0,1.0,-2.0,1.4288954734802246
354,-4019.0,521.0,-3727.0,1.0,-9291.0,-1127.0,-8819.0,-10154.0,-1.0,-1.0,48.0,47.0,7.0,2.0,1.0,-2.0,1.4322538375854492
355,-4019.0,521.0,-3727.0,1.0,-9291.0,-1127.0,-8819.0,-10154.0,-5.0,-8.0,2.0,5.0,-28.0,-8.0,-2.0,-2.0,1.435943603515625
356,-4019.0,521.0,-3727.0,1.0,-9291.0,-1127.0,-8819.0,-10154.0,-1.0,9.0,7.0,-8.0,14.0,14.0,18.0,3.0,1.4518001079559326
357,-4006.0,880.0,-3419.0,1.0,-9591.0,-331.0,-8518.0,-10189.0,-1.0,9.0,7.0,-8.0,14.0,14.0,18.0,3.0,1.454902172088623
358,-4006.0,880.0,-3419.0,1.0,-9591.0,-331.0,-8518.0,-10189.0,0.0,1.0,1.0,17.0,-5.0,-13.0,-5.0,0.0,1.4580211639404297
359,-4006.0,880.0,-3419.0,1.0,-9591.0,-331.0,-8518.0,-10189.0,15.0,11.0,13.0,10.0,-77.0,15.0,15.0,11.0,1.4653043746948242
360,-3891.0,1060.0,-3233.0,1.0,-9828.0,461.0,-8217.0,-10205.0,15.0,11.0,13.0,10.0,-77.0,15.0,15.0,11.0,1.4734508991241455
361,-3891.0,1060.0,-3233.0,1.0,-9828.0,461.0,-8217.0,-10205.0,8.0,0.0,-11.0,-8.0,11.0,-8.0,-21.0,11.0,1.4765331745147705
362,-3891.0,1060.0,-3233.0,1.0,-9828.0,461.0,-8217.0,-10205.0,-5.0,3.0,-6.0,-3.0,-16.0,-4.0,-4.0,-2.0,1.4889066219329834
363,-3440.0,1196.0,-3111.0,1.0,-10019.0,1212.0,-7952.0,-10167.0,-5.0,3.0,-6.0,-3.0,-16.0,-4.0,-4.0,-2.0,1.4918851852416992
364,-3440.0,1196.0,-3111.0,1.0,-10019.0,1212.0,-7952.0,-10167.0,-1.0,-12.0,-17.0,0.0,20.0,0.0,13.0,1.0,1.4959077835083008
365,-3440.0,1196.0,-3111.0,1.0,-10019.0,1212.0,-7952.0,-10167.0,0.0,-1.0,-10.0,-20.0,-19.0,5.0,-7.0,-4.0,1.512105941772461
366,-2794.0,1196.0,-2972.0,1.0,-10184.0,1887.0,-7741.0,-10063.0,0.0,-1.0,-10.0,-20.0,-19.0,5.0,-7.0,-4.0,1.5153121948242188
367,-2794.0,1196.0,-2972.0,1.0,-10184.0,1887.0,-7741.0,-10063.0,-23.0,-17.0,-6.0,0.0,-12.0,-18.0,-41.0,-30.0,1.5185749530792236
368,-2794.0,1196.0,-2972.0,1.0,-10184.0,1887.0,-7741.0,-10063.0,-6.0,1.0,-13.0,12.0,59.0,-3.0,-30.0,-13.0,1.5254080295562744
369,-2236.0,1130.0,-2981.0,1.0,-10354.0,2503.0,-7563.0,-9889.0,-6.0,1.0,-13.0,12.0,59.0,-3.0,-30.0,-13.0,1.5333969593048096
370,-2236.0,1130.0,-2981.0,1.0,-10354.0,2503.0,-7563.0,-9889.0,-6.0,1.0,-13.0,12.0,59.0,-3.0,-30.0,-13.0,1.5352466106414795
371,-2236.0,1130.0,-2981.0,1.0,-10354.0,2503.0,-7563.0,-9889.0,4.0,-1.0,8.0,-49.0,60.0,12.0,-44.0,0.0,1.5496711730957031
372,-2236.0,1130.0,-2981.0,1.0,-10354.0,2503.0,-7563.0,-9889.0,6.0,-6.0,-16.0,-14.0,-24.0,-12.0,-46.0,-4.0,1.5536136627197266
373,-1606.0,1127.0,-2869.0,1.0,-10518.0,3035.0,-7434.0,-9662.0,6.0,-6.0,-16.0,-14.0,-24.0,-12.0,-46.0,-4.0,1.5577127933502197
374,-1606.0,1127.0,-2869.0,1.0,-10518.0,3035.0,-7434.0,-9662.0,-1.0,0.0,9.0,45.0,54.0,24.0,63.0,23.0,1.5618896484375
375,-1606.0,1127.0,-2869.0,1.0,-10518.0,3035.0,-7434.0,-9662.0,-7.0,1.0,-4.0,29.0,7.0,65.0,70.0,-4.0,1.5708849430084229
376,-1219.0,1106.0,-2769.0,1.0,-10675.0,3514.0,-7333.0,-9402.0,-7.0,1.0,-4.0,29.0,7.0,65.0,70.0,-4.0,1.5726659297943115
377,-1219.0,1106.0,-2769.0,1.0,-10675.0,3514.0,-7333.0,-9402.0,-7.0,-1.0,1.0,6.0,-65.0,-46.0,-85.0,-69.0,1.5777466297149658
378,-1219.0,1106.0,-2769.0,1.0,-10675.0,3514.0,-7333.0,-9402.0,16.0,-12.0,-25.0,-24.0,-90.0,51.0,98.0,102.0,1.5853888988494873
379,-1032.0,1024.0,-2637.0,1.0,-10824.0,3960.0,-7234.0,-9127.0,16.0,-12.0,-25.0,-24.0,-90.0,51.0,98.0,102.0,1.593834638595581
380,-1032.0,1024.0,-2637.0,1.0,-10824.0,3960.0,-7234.0,-9127.0,16.0,-12.0,-25.0,-24.0,-90.0,51.0,98.0,102.0,1.5959875583648682
381,-1032.0,1024.0,-2637.0,1.0,-10824.0,3960.0,-7234.0,-9127.0,-11.0,-6.0,-4.0,6.0,-34.0,-20.0,-46.0,-38.0,1.6094467639923096
382,-1032.0,1024.0,-2637.0,1.0,-10824.0,3960.0,-7234.0,-9127.0,-22.0,-21.0,-30.0,24.0,-81.0,-115.0,-102.0,-38.0,1.612931728363037
383,-520.0,1095.0,-2354.0,1.0,-10955.0,4340.0,-7193.0,-8825.0,-22.0,-21.0,-30.0,24.0,-81.0,-115.0,-102.0,-38.0,1.616225242614746
384,-520.0,1095.0,-2354.0,1.0,-10955.0,4340.0,-7193.0,-8825.0,17.0,16.0,11.0,-27.0,-41.0,127.0,0.0,36.0,1.6194751262664795
385,-520.0,1095.0,-2354.0,1.0,-10955.0,4340.0,-7193.0,-8825.0,-19.0,-41.0,-73.0,-82.0,68.0,86.0,100.0,37.0,1.6308562755584717
386,-55.0,1123.0,-1770.0,1.0,-11045.0,4627.0,-7218.0,-8542.0,-19.0,-41.0,-73.0,-82.0,68.0,86.0,100.0,37.0,1.6336872577667236
387,-55.0,1123.0,-1770.0,1.0,-11045.0,4627.0,-7218.0,-8542.0,-14.0,8.0,42.0,-4.0,70.0,80.0,-6.0,-23.0,1.6389431953430176
388,-55.0,1123.0,-1770.0,1.0,-11045.0,4627.0,-7218.0,-8542.0,14.0,18.0,40.0,-25.0,127.0,71.0,-67.0,12.0,1.6455862522125244
389,397.0,935.0,-889.0,1.0,-11133.0,4893.0,-7235.0,-8260.0,14.0,18.0,40.0,-25.0,127.0,71.0,-67.0,12.0,1.6536054611206055
390,397.0,935.0,-889.0,1.0,-11133.0,4893.0,-7235.0,-8260.0,5.0,-3.0,-16.0,8.0,18.0,-6.0,42.0,23.0,1.6562819480895996
391,397.0,935.0,-889.0,1.0,-11133.0,4893.0,-7235.0,-8260.0,4.0,10.0,44.0,43.0,107.0,2.0,6.0,-7.0,1.6684989929199219
392,689.0,724.0,436.0,1.0,-11138.0,5000.0,-7314.0,-8119.0,4.0,10.0,44.0,43.0,107.0,2.0,6.0,-7.0,1.6717519760131836
393,689.0,724.0,436.0,1.0,-11138.0,5000.0,-7314.0,-8119.0,-21.0,-20.0,-30.0,-33.0,-118.0,5.0,-92.0,-39.0,1.67608642578125
394,689.0,724.0,436.0,1.0,-11138.0,5000.0,-7314.0,-8119.0,10.0,21.0,40.0,47.0,-18.0,-5.0,34.0,-3.0,1.6902508735656738
395,984.0,476.0,1575.0,1.0,-11093.0,4943.0,-7425.0,-8113.0,10.0,21.0,40.0,47.0,-18.0,-5.0,34.0,-3.0,1.698230504989624
396,984.0,476.0,1575.0,1.0,-11093.0,4943.0,-7425.0,-8113.0,-2.0,-6.0,-5.0,6.0,-15.0,-80.0,30.0,13.0,1.7001070976257324
397,984.0,476.0,1575.0,1.0,-11093.0,4943.0,-7425.0,-8113.0,0.0,2.0,-5.0,-14.0,-30.0,-3.0,-8.0,-22.0,1.7051472663879395
398,1227.0,154.0,2381.0,1.0,-10950.0,4644.0,-7653.0,-8272.0,0.0,2.0,-5.0,-14.0,-30.0,-3.0,-8.0,-22.0,1.7134599685668945
399,1227.0,154.0,2381.0,1.0,-10950.0,4644.0,-7653.0,-8272.0,6.0,1.0,-12.0,-5.0,-2.0,-65.0,-50.0,14.0,1.7162420749664307
400,1227.0,154.0,2381.0,1.0,-10950.0,4644.0,-7653.0,-8272.0,3.0,6.0,10.0,-37.0,1.0,-14.0,-68.0,-13.0,1.7286732196807861
401,1266.0,-7.0,3110.0,1.0,-10738.0,4252.0,-7905.0,-8519.0,3.0,6.0,10.0,-37.0,1.0,-14.0,-68.0,-13.0,1.7306220531463623
402,1266.0,-7.0,3110.0,1.0,-10738.0,4252.0,-7905.0,-8519.0,18.0,20.0,33.0,24.0,20.0,-42.0,12.0,23.0,1.7348549365997314
403,1266.0,-7.0,3110.0,1.0,-10738.0,4252.0,-7905.0,-8519.0,2.0,10.0,5.0,-13.0,-120.0,-13.0,-48.0,-16.0,1.7505321502685547
404,1707.0,-7.0,3606.0,1.0,-10480.0,3753.0,-8216.0,-8777.0,2.0,10.0,5.0,-13.0,-120.0,-13.0,-48.0,-16.0,1.7523167133331299
405,1707.0,-7.0,3606.0,1.0,-10480.0,3753.0,-8216.0,-8777.0,-30.0,-28.0,-26.0,-51.0,127.0,5.0,-26.0,-20.0,1.75785231590271
406,1707.0,-7.0,3606.0,1.0,-10480.0,3753.0,-8216.0,-8777.0,-9.0,1.0,22.0,25.0,-57.0,8.0,38.0,-14.0,1.7738564014434814
407,2350.0,104.0,4039.0,1.0,-10163.0,3130.0,-8613.0,-9010.0,-9.0,1.0,22.0,25.0,-57.0,8.0,38.0,-14.0,1.776658058166504
408,2350.0,104.0,4039.0,1.0,-10163.0,3130.0,-8613.0,-9010.0,10.0,10.0,14.0,11.0,11.0,-18.0,13.0,-2.0,1.7804720401763916
409,2350.0,104.0,4039.0,1.0,-10163.0,3130.0,-8613.0,-9010.0,-2.0,-8.0,2.0,25.0,120.0,78.0,4.0,-17.0,1.7886462211608887
410,2560.0,259.0,4413.0,1.0,-9764.0,2439.0,-9044.0,-9240.0,-2.0,-8.0,2.0,25.0,120.0,78.0,4.0,-17.0,1.79050874710083
411,2560.0,259.0,4413.0,1.0,-9764.0,2439.0,-9044.0,-9240.0,16.0,16.0,6.0,13.0,-86.0,-4.0,122.0,48.0,1.7950239181518555
412,2560.0,259.0,4413.0,1.0,-9764.0,2439.0,-9044.0,-9240.0,4.0,11.0,24.0,85.0,120.0,6.0,-112.0,6.0,1.8115394115447998
413,2757.0,507.0,4912.0,1.0,-9246.0,1680.0,-9516.0,-9465.0,4.0,11.0,24.0,85.0,120.0,6.0,-112.0,6.0,1.8133478164672852
414,2757.0,507.0,4912.0,1.0,-9246.0,1680.0,-9516.0,-9465.0,18.0,27.0,12.0,101.0,106.0,-14.0,40.0,-1.0,1.8177552223205566
415,2757.0,507.0,4912.0,1.0,-9246.0,1680.0,-9516.0,-9465.0,-8.0,-19.0,-47.0,-10.0,-109.0,-78.0,64.0,47.0,1.834010362625122
416,2984.0,705.0,5531.0,1.0,-8600.0,839.0,-10005.0,-9681.0,-8.0,-19.0,-47.0,-10.0,-109.0,-78.0,64.0,47.0,1.8359367847442627
417,2984.0,705.0,5531.0,1.0,-8600.0,839.0,-10005.0,-9681.0,-49.0,-64.0,-59.0,-19.0,4.0,-44.0,-128.0,-83.0,1.8385803699493408
418,2984.0,705.0,5531.0,1.0,-8600.0,839.0,-10005.0,-9681.0,28.0,27.0,32.0,-77.0,41.0,5.0,29.0,-53.0,1.8483054637908936
419,2480.0,865.0,6207.0,1.0,-7851.0,21.0,-10377.0,-9957.0,28.0,27.0,32.0,-77.0,41.0,5.0,29.0,-53.0,1.850191354751587
420,2480.0,865.0,6207.0,1.0,-7851.0,21.0,-10377.0,-9957.0,-29.0,8.0,40.0,123.0,-23.0,57.0,59.0,-81.0,1.855393648147583
421,2480.0,865.0,6207.0,1.0,-7851.0,21.0,-10377.0,-9957.0,-50.0,-31.0,-54.0,-64.0,-27.0,-38.0,44.0,45.0,1.8711466789245605
422,1694.0,862.0,7234.0,1.0,-6945.0,-847.0,-10601.0,-10350.0,-50.0,-31.0,-54.0,-64.0,-27.0,-38.0,44.0,45.0,1.8729734420776367
423,1694.0,862.0,7234.0,1.0,-6945.0,-847.0,-10601.0,-10350.0,-29.0,-47.0,-32.0,-57.0,-77.0,-59.0,-15.0,43.0,1.8781328201293945
424,1694.0,862.0,7234.0,1.0,-6945.0,-847.0,-10601.0,-10350.0,-2.0,2.0,-7.0,-24.0,33.0,-13.0,-45.0,10.0,1.8948514461517334
425,430.0,692.0,7176.0,1.0,-6032.0,-1626.0,-10603.0,-10817.0,-2.0,2.0,-7.0,-24.0,33.0,-13.0,-45.0,10.0,1.8982677459716797
426,430.0,692.0,7176.0,1.0,-6032.0,-1626.0,-10603.0,-10817.0,32.0,23.0,2.0,-28.0,-19.0,38.0,127.0,127.0,1.9019930362701416
427,430.0,692.0,7176.0,1.0,-6032.0,-1626.0,-10603.0,-10817.0,-8.0,-6.0,6.0,25.0,68.0,-91.0,-63.0,-53.0,1.9085090160369873
428,511.0,816.0,5552.0,1.0,-5264.0,-2202.0,-10599.0,-11117.0,-8.0,-6.0,6.0,25.0,68.0,-91.0,-63.0,-53.0,1.9110515117645264
429,511.0,816.0,5552.0,1.0,-5264.0,-2202.0,-10599.0,-11117.0,1.0,-9.0,-16.0,6.0,23.0,19.0,-28.0,-56.0,1.915370225906372
430,511.0,816.0,5552.0,1.0,-5264.0,-2202.0,-10599.0,-11117.0,19.0,-7.0,-26.0,-34.0,-41.0,-23.0,-6.0,5.0,1.9312949180603027
431,649.0,1118.0,3733.0,1.0,-4662.0,-2532.0,-10642.0,-11272.0,19.0,-7.0,-26.0,-34.0,-41.0,-23.0,-6.0,5.0,1.9344220161437988
432,649.0,1118.0,3733.0,1.0,-4662.0,-2532.0,-10642.0,-11272.0,-32.0,-67.0,-98.0,-120.0,-42.0,-44.0,40.0,10.0,1.9386520385742188
433,649.0,1118.0,3733.0,1.0,-4662.0,-2532.0,-10642.0,-11272.0,44.0,37.0,8.0,85.0,-98.0,-2.0,47.0,17.0,1.9541809558868408
434,2719.0,677.0,2575.0,1.0,-4187.0,-2884.0,-10930.0,-11097.0,44.0,37.0,8.0,85.0,-98.0,-2.0,47.0,17.0,1.9580883979797363
435,2719.0,677.0,2575.0,1.0,-4187.0,-2884.0,-10930.0,-11097.0,20.0,-25.0,-38.0,-8.0,-35.0,-37.0,-32.0,8.0,1.9626014232635498
436,2719.0,677.0,2575.0,1.0,-4187.0,-2884.0,-10930.0,-11097.0,10.0,-1.0,-21.0,86.0,56.0,69.0,7.0,-10.0,1.9684441089630127
437,2632.0,484.0,190.0,1.0,-3997.0,-2991.0,-11269.0,-10796.0,10.0,-1.0,-21.0,86.0,56.0,69.0,7.0,-10.0,1.9702677726745605
438,2632.0,484.0,190.0,1.0,-3997.0,-2991.0,-11269.0,-10796.0,7.0,-24.0,13.0,-121.0,48.0,127.0,15.0,-8.0,1.9761450290679932
439,2632.0,484.0,190.0,1.0,-3997.0,-2991.0,-11269.0,-10796.0,-34.0,-84.0,-64.0,57.0,45.0,34.0,-8.0,-21.0,1.9918365478515625
440,1867.0,795.0,-292.0,1.0,-3849.0,-2963.0,-11534.0,-10576.0,-34.0,-84.0,-64.0,57.0,45.0,34.0,-8.0,-21.0,1.9952502250671387
441,1867.0,795.0,-292.0,1.0,-3849.0,-2963.0,-11534.0,-10576.0,40.0,34.0,18.0,12.0,127.0,86.0,-36.0,38.0,1.9983832836151123
442,1867.0,795.0,-292.0,1.0,-3849.0,-2963.0,-11534.0,-10576.0,5.0,85.0,127.0,43.0,-38.0,15.0,-58.0,-37.0,2.0139873027801514
443,557.0,305.0,256.0,1.0,-3693.0,-3047.0,-11626.0,-10506.0,5.0,85.0,127.0,43.0,-38.0,15.0,-58.0,-37.0,2.016014575958252
444,557.0,305.0,256.0,1.0,-3693.0,-3047.0,-11626.0,-10506.0,-55.0,-94.0,-62.0,-39.0,-53.0,-22.0,-67.0,-47.0,2.0192160606384277
445,557.0,305.0,256.0,1.0,-3693.0,-3047.0,-11626.0,-10506.0,11.0,20.0,45.0,5.0,95.0,-38.0,64.0,19.0,2.029374837875366
446,1820.0,371.0,25.0,1.0,-3576.0,-3086.0,-11840.0,-10294.0,11.0,20.0,45.0,5.0,95.0,-38.0,64.0,19.0,2.036691427230835
447,1820.0,371.0,25.0,1.0,-3576.0,-3086.0,-11840.0,-10294.0,-6.0,16.0,7.0,69.0,-41.0,-72.0,-25.0,-50.0,2.040137767791748
448,1820.0,371.0,25.0,1.0,-3576.0,-3086.0,-11840.0,-10294.0,9.0,-84.0,3.0,32.0,-35.0,89.0,110.0,68.0,2.0508952140808105
449,655.0,218.0,-41.0,1.0,-3642.0,-2989.0,-11849.0,-10290.0,9.0,-84.0,3.0,32.0,-35.0,89.0,110.0,68.0,2.0541582107543945
450,655.0,218.0,-41.0,1.0,-3642.0,-2989.0,-11849.0,-10290.0,20.0,78.0,96.0,127.0,127.0,121.0,127.0,127.0,2.058712959289551
451,655.0,218.0,-41.0,1.0,-3642.0,-2989.0,-11849.0,-10290.0,13.0,42.0,-2.0,-37.0,-12.0,-105.0,-110.0,-51.0,2.074913501739502
452,-1101.0,-72.0,769.0,1.0,-3710.0,-2953.0,-11664.0,-10484.0,13.0,42.0,-2.0,-37.0,-12.0,-105.0,-110.0,-51.0,2.0780601501464844
453,-1101.0,-72.0,769.0,1.0,-3710.0,-2953.0,-11664.0,-10484.0,27.0,41.0,99.0,71.0,57.0,107.0,51.0,42.0,2.081493616104126
454,-1101.0,-72.0,769.0,1.0,-3710.0,-2953.0,-11664.0,-10484.0,-5.0,4.0,-7.0,14.0,-117.0,62.0,49.0,-24.0,2.0888311862945557
455,-1189.0,-184.0,785.0,1.0,-3661.0,-3044.0,-11517.0,-10638.0,-5.0,4.0,-7.0,14.0,-117.0,62.0,49.0,-24.0,2.0907881259918213
456,-1189.0,-184.0,785.0,1.0,-3661.0,-3044.0,-11517.0,-10638.0,3.0,47.0,39.0,-3.0,62.0,-90.0,-70.0,-71.0,2.095479965209961
457,-1189.0,-184.0,785.0,1.0,-3661.0,-3044.0,-11517.0,-10638.0,-7.0,0.0,-30.0,-71.0,-50.0,-36.0,-65.0,-34.0,2.1109371185302734
458,-692.0,-66.0,845.0,1.0,-3595.0,-3128.0,-11413.0,-10747.0,-7.0,0.0,-30.0,-71.0,-50.0,-36.0,-65.0,-34.0,2.1136858463287354
459,-692.0,-66.0,845.0,1.0,-3595.0,-3128.0,-11413.0,-10747.0,0.0,-44.0,-82.0,-128.0,-9.0,-24.0,29.0,-59.0,2.1183276176452637
460,-692.0,-66.0,845.0,1.0,-3595.0,-3128.0,-11413.0,-10747.0,-8.0,-39.0,-34.0,19.0,-41.0,-101.0,-121.0,-80.0,2.1345949172973633
461,-386.0,-40.0,888.0,1.0,-3503.0,-3235.0,-11291.0,-10873.0,-8.0,-39.0,-34.0,19.0,-41.0,-101.0,-121.0,-80.0,2.137972831726074
462,-386.0,-40.0,888.0,1.0,-3503.0,-3235.0,-11291.0,-10873.0,59.0,103.0,112.0,127.0,63.0,103.0,-27.0,36.0,2.141530752182007
463,-386.0,-40.0,888.0,1.0,-3503.0,-3235.0,-11291.0,-10873.0,-13.0,4.0,-54.0,-8.0,42.0,-51.0,-23.0,87.0,2.1491925716400146
464,211.0,71.0,466.0,1.0,-3402.0,-3322.0,-11260.0,-10912.0,-13.0,4.0,-54.0,-8.0,42.0,-51.0,-23.0,87.0,2.1510138511657715
465,211.0,71.0,466.0,1.0,-3402.0,-3322.0,-11260.0,-10912.0,-9.0,7.0,-103.0,65.0,-66.0,-7.0,-12.0,-16.0,2.155059814453125
466,211.0,71.0,466.0,1.0,-3402.0,-3322.0,-11260.0,-10912.0,-61.0,-28.0,-18.0,-7.0,-38.0,-29.0,10.0,-6.0,2.1715831756591797
467,-113.0,-34.0,215.0,1.0,-3339.0,-3392.0,-11232.0,-10938.0,-61.0,-28.0,-18.0,-7.0,-38.0,-29.0,10.0,-6.0,2.174588441848755
468,-113.0,-34.0,215.0,1.0,-3339.0,-3392.0,-11232.0,-10938.0,15.0,16.0,23.0,-20.0,3.0,66.0,70.0,83.0,2.178792953491211
469,-113.0,-34.0,215.0,1.0,-3339.0,-3392.0,-11232.0,-10938.0,-12.0,11.0,83.0,-96.0,-88.0,-25.0,78.0,-16.0,2.196019411087036
470,-403.0,4.0,95.0,1.0,-3305.0,-3425.0,-11184.0,-10988.0,-12.0,11.0,83.0,-96.0,-88.0,-25.0,78.0,-16.0,2.199955463409424
471,-403.0,4.0,95.0,1.0,-3305.0,-3425.0,-11184.0,-10988.0,-30.0,-28.0,19.0,-57.0,-97.0,-48.0,-57.0,-45.0,2.2038912773132324
472,-403.0,4.0,95.0,1.0,-3305.0,-3425.0,-11184.0,-10988.0,23.0,13.0,25.0,-74.0,127.0,75.0,36.0,2.0,2.2095773220062256
473,-382.0,16.0,-88.0,1.0,-3305.0,-3422.0,-11140.0,-11033.0,23.0,13.0,25.0,-74.0,127.0,75.0,36.0,2.0,2.211717367172241
474,-382.0,16.0,-88.0,1.0,-3305.0,-3422.0,-11140.0,-11033.0,15.0,52.0,62.0,-31.0,-23.0,-42.0,-27.0,-14.0,2.215102434158325
475,-382.0,16.0,-88.0,1.0,-3305.0,-3422.0,-11140.0,-11033.0,-51.0,-80.0,-88.0,91.0,19.0,-12.0,-112.0,-85.0,2.2307865619659424
476,-22.0,111.0,-235.0,1.0,-3293.0,-3406.0,-11154.0,-11028.0,-51.0,-80.0,-88.0,91.0,19.0,-12.0,-112.0,-85.0,2.2336513996124268
477,-22.0,111.0,-235.0,1.0,-3293.0,-3406.0,-11154.0,-11028.0,33.0,14.0,32.0,8.0,-5.0,5.0,-124.0,-57.0,2.2390148639678955
478,-22.0,111.0,-235.0,1.0,-3293.0,-3406.0,-11154.0,-11028.0,45.0,19.0,14.0,51.0,-54.0,-19.0,104.0,88.0,2.2550108432769775
479,87.0,66.0,-304.0,1.0,-3293.0,-3389.0,-11172.0,-11015.0,45.0,19.0,14.0,51.0,-54.0,-19.0,104.0,88.0,2.258406162261963
480,87.0,66.0,-304.0,1.0,-3293.0,-3389.0,-11172.0,-11015.0,-22.0,-42.0,-76.0,-13.0,-24.0,30.0,60.0,-14.0,2.2618818283081055
481,87.0,66.0,-304.0,1.0,-3293.0,-3389.0,-11172.0,-11015.0,-10.0,-1.0,-25.0,-43.0,79.0,29.0,28.0,1.0,2.2693536281585693
482,-236.0,-62.0,-198.0,1.0,-3337.0,-3360.0,-11144.0,-11039.0,-10.0,-1.0,-25.0,-43.0,79.0,29.0,28.0,1.0,2.2719290256500244
483,-236.0,-62.0,-198.0,1.0,-3337.0,-3360.0,-11144.0,-11039.0,14.0,-2.0,-35.0,-61.0,-82.0,-14.0,-10.0,43.0,2.275137424468994
484,-236.0,-62.0,-198.0,1.0,-3337.0,-3360.0,-11144.0,-11039.0,34.0,64.0,109.0,-57.0,6.0,29.0,11.0,-2.0,2.2906782627105713
485,-111.0,36.0,-216.0,1.0,-3348.0,-3339.0,-11155.0,-11030.0,34.0,64.0,109.0,-57.0,6.0,29.0,11.0,-2.0,2.293273448944092
486,-111.0,36.0,-216.0,1.0,-3348.0,-3339.0,-11155.0,-11030.0,-2.0,6.0,-1.0,-34.0,-3.0,-25.0,19.0,-16.0,2.298664093017578
487,-111.0,36.0,-216.0,1.0,-3348.0,-3339.0,-11155.0,-11030.0,10.0,-5.0,-76.0,66.0,-54.0,72.0,-54.0,48.0,2.3153505325317383
488,-111.0,130.0,-162.0,1.0,-3353.0,-3302.0,-11187.0,-11008.0,10.0,-5.0,-76.0,66.0,-54.0,72.0,-54.0,48.0,2.318970203399658
489,-111.0,130.0,-162.0,1.0,-3353.0,-3302.0,-11187.0,-11008.0,-21.0,-4.0,17.0,-27.0,0.0,-53.0,31.0,17.0,2.3219001293182373
490,-111.0,130.0,-162.0,1.0,-3353.0,-3302.0,-11187.0,-11008.0,28.0,55.0,85.0,69.0,99.0,88.0,68.0,46.0,2.327678918838501
491,-66.0,-13.0,-104.0,1.0,-3369.0,-3289.0,-11185.0,-11009.0,28.0,55.0,85.0,69.0,99.0,88.0,68.0,46.0,2.335969924926758
492,-66.0,-13.0,-104.0,1.0,-3369.0,-3289.0,-11185.0,-11009.0,21.0,-11.0,-53.0,-5.0,101.0,54.0,88.0,20.0,2.3378355503082275
493,-66.0,-13.0,-104.0,1.0,-3369.0,-3289.0,-11185.0,-11009.0,-5.0,-28.0,-33.0,58.0,68.0,104.0,8.0,-12.0,2.3505632877349854
494,79.0,-109.0,-103.0,1.0,-3391.0,-3293.0,-11191.0,-10995.0,-5.0,-28.0,-33.0,58.0,68.0,104.0,8.0,-12.0,2.3523600101470947
495,79.0,-109.0,-103.0,1.0,-3391.0,-3293.0,-11191.0,-10995.0,-26.0,-57.0,-70.0,66.0,63.0,-12.0,-93.0,-25.0,2.357590913772583
496,79.0,-109.0,-103.0,1.0,-3391.0,-3293.0,-11191.0,-10995.0,6.0,1.0,-44.0,-11.0,-5.0,-96.0,-17.0,-3.0,2.374056816101074
497,-77.0,-73.0,-17.0,1.0,-3399.0,-3302.0,-11179.0,-11002.0,6.0,1.0,-44.0,-11.0,-5.0,-96.0,-17.0,-3.0,2.3772459030151367
498,-77.0,-73.0,-17.0,1.0,-3399.0,-3302.0,-11179.0,-11002.0,-9.0,-3.0,33.0,64.0,32.0,-35.0,-58.0,-42.0,2.380363702774048
499,-77.0,-73.0,-17.0,1.0,-3399.0,-3302.0,-11179.0,-11002.0,-1.0,8.0,27.0,80.0,-18.0,53.0,88.0,65.0,2.38826847076416
