,Gyro 0,Gyro 1,Gyro 2,Label,Orientation 0,Orientation 1,Orientation 2,Orientation 3,Sensor 0,Sensor 1,Sensor 2,Sensor 3,Sensor 4,Sensor 5,Sensor 6,Sensor 7,Timestamp
0,44.0,-161.0,49.0,0.0,10003.0,12803.0,-1426.0,1550.0,-5.0,-4.0,-3.0,-7.0,-5.0,0.0,-3.0,2.0,2.1457672119140625e-06
1,44.0,-161.0,49.0,0.0,10003.0,12803.0,-1426.0,1550.0,2.0,7.0,5.0,-5.0,-4.0,-4.0,-3.0,0.0,0.0020873546600341797
2,44.0,-161.0,49.0,0.0,10003.0,12803.0,-1426.0,1550.0,-2.0,2.0,-4.0,-1.0,-1.0,-10.0,-9.0,-21.0,0.004075288772583008
3,-68.0,-157.0,83.0,0.0,10007.0,12799.0,-1453.0,1531.0,-2.0,2.0,-4.0,-1.0,-1.0,-10.0,-9.0,-21.0,0.006725788116455078
4,-68.0,-157.0,83.0,0.0,10007.0,12799.0,-1453.0,1531.0,-2.0,-7.0,-1.0,5.0,-6.0,-5.0,-3.0,-5.0,0.010272502899169922
5,-136.0,-130.0,100.0,0.0,10019.0,12787.0,-1485.0,1523.0,-2.0,-7.0,-1.0,5.0,-6.0,-5.0,-3.0,-5.0,0.01255035400390625
6,-136.0,-130.0,100.0,0.0,10019.0,12787.0,-1485.0,1523.0,-2.0,-5.0,-2.0,8.0,27.0,18.0,0.0,6.0,0.014425992965698242
7,-136.0,-130.0,100.0,0.0,10019.0,12787.0,-1485.0,1523.0,6.0,1.0,2.0,6.0,6.0,3.0,3.0,0.0,0.016223430633544922
8,-30.0,-83.0,85.0,0.0,10012.0,12790.0,-1510.0,1523.0,6.0,1.0,2.0,6.0,6.0,3.0,3.0,0.0,0.01804375648498535
9,-30.0,-83.0,85.0,0.0,10012.0,12790.0,-1510.0,1523.0,9.0,21.0,20.0,13.0,12.0,10.0,3.0,12.0,0.020336389541625977
10,-30.0,-83.0,85.0,0.0,10012.0,12790.0,-1510.0,1523.0,-4.0,-3.0,-8.0,-7.0,-4.0,4.0,0.0,1.0,0.023344993591308594
11,75.0,-58.0,87.0,0.0,9993.0,12803.0,-1525.0,1522.0,-4.0,-3.0,-8.0,-7.0,-4.0,4.0,0.0,1.0,0.025775432586669922
12,75.0,-58.0,87.0,0.0,9993.0,12803.0,-1525.0,1522.0,-2.0,8.0,8.0,-6.0,-11.0,-4.0,-2.0,-6.0,0.028221607208251953
13,75.0,-58.0,87.0,0.0,9993.0,12803.0,-1525.0,1522.0,0.0,-10.0,-8.0,-3.0,0.0,-9.0,-4.0,22.0,0.03009772300720215
14,49.0,-49.0,78.0,0.0,9981.0,12811.0,-1537.0,1518.0,0.0,-10.0,-8.0,-3.0,0.0,-9.0,-4.0,22.0,0.03336358070373535
15,49.0,-49.0,78.0,0.0,9981.0,12811.0,-1537.0,1518.0,-10.0,-19.0,-13.0,-9.0,-13.0,-5.0,-5.0,-17.0,0.035390377044677734
16,49.0,-49.0,78.0,0.0,9981.0,12811.0,-1537.0,1518.0,-1.0,6.0,-2.0,-6.0,2.0,8.0,-2.0,6.0,0.03715848922729492
17,-49.0,-29.0,89.0,0.0,9986.0,12805.0,-1552.0,1522.0,-1.0,6.0,-2.0,-6.0,2.0,8.0,-2.0,6.0,0.038944244384765625
18,-49.0,-29.0,89.0,0.0,9986.0,12805.0,-1552.0,1522.0,-7.0,-17.0,-13.0,-6.0,-7.0,0.0,1.0,-6.0,0.04077887535095215
19,-49.0,-29.0,89.0,0.0,9986.0,12805.0,-1552.0,1522.0,3.0,1.0,1.0,-6.0,-13.0,1.0,8.0,27.0,0.04254341125488281
20,-70.0,-16.0,85.0,0.0,9992.0,12798.0,-1569.0,1530.0,3.0,1.0,1.0,-6.0,-13.0,1.0,8.0,27.0,0.044701337814331055
21,-70.0,-16.0,85.0,0.0,9992.0,12798.0,-1569.0,1530.0,0.0,4.0,-1.0,-1.0,-6.0,1.0,-2.0,3.0,0.04658031463623047
22,-70.0,-16.0,85.0,0.0,9992.0,12798.0,-1569.0,1530.0,-3.0,-1.0,0.0,5.0,4.0,3.0,-5.0,-10.0,0.048378944396972656
23,27.0,12.0,57.0,0.0,9983.0,12802.0,-1576.0,1539.0,-3.0,-1.0,0.0,5.0,4.0,3.0,-5.0,-10.0,0.050130605697631836
24,27.0,12.0,57.0,0.0,9983.0,12802.0,-1576.0,1539.0,6.0,2.0,10.0,-4.0,-5.0,1.0,4.0,4.0,0.052101850509643555
25,27.0,12.0,57.0,0.0,9983.0,12802.0,-1576.0,1539.0,9.0,5.0,13.0,8.0,11.0,5.0,-4.0,-1.0,0.05447196960449219
26,58.0,43.0,70.0,0.0,9973.0,12809.0,-1578.0,1549.0,9.0,5.0,13.0,8.0,11.0,5.0,-4.0,-1.0,0.0569915771484375
27,58.0,43.0,70.0,0.0,9973.0,12809.0,-1578.0,1549.0,-7.0,-1.0,-4.0,1.0,4.0,-2.0,-6.0,-18.0,0.058922529220581055
28,58.0,43.0,70.0,0.0,9973.0,12809.0,-1578.0,1549.0,-13.0,-5.0,-9.0,-3.0,-1.0,-2.0,4.0,-6.0,0.06070852279663086
29,88.0,51.0,89.0,0.0,9961.0,12816.0,-1581.0,1565.0,-13.0,-5.0,-9.0,-3.0,-1.0,-2.0,4.0,-6.0,0.06248211860656738
30,88.0,51.0,89.0,0.0,9961.0,12816.0,-1581.0,1565.0,2.0,-5.0,-14.0,-6.0,-3.0,-1.0,-3.0,3.0,0.06494498252868652
31,88.0,51.0,89.0,0.0,9961.0,12816.0,-1581.0,1565.0,9.0,7.0,13.0,3.0,-8.0,-14.0,-8.0,-6.0,0.0675954818725586
32,57.0,81.0,110.0,0.0,9953.0,12819.0,-1584.0,1586.0,9.0,7.0,13.0,3.0,-8.0,-14.0,-8.0,-6.0,0.06939387321472168
33,57.0,81.0,110.0,0.0,9953.0,12819.0,-1584.0,1586.0,-7.0,-13.0,-13.0,-4.0,-14.0,1.0,1.0,-6.0,0.07137894630432129
34,57.0,81.0,110.0,0.0,9953.0,12819.0,-1584.0,1586.0,-12.0,-22.0,-17.0,-5.0,2.0,0.0,-4.0,-7.0,0.07315373420715332
35,16.0,89.0,134.0,0.0,9949.0,12819.0,-1588.0,1607.0,-12.0,-22.0,-17.0,-5.0,2.0,0.0,-4.0,-7.0,0.07494044303894043
36,16.0,89.0,134.0,0.0,9949.0,12819.0,-1588.0,1607.0,9.0,14.0,0.0,2.0,2.0,-5.0,-3.0,0.0,0.07678031921386719
37,16.0,89.0,134.0,0.0,9949.0,12819.0,-1588.0,1607.0,-14.0,-8.0,-3.0,-4.0,-3.0,0.0,1.0,-9.0,0.07888388633728027
38,-33.0,31.0,129.0,0.0,9948.0,12817.0,-1598.0,1618.0,-14.0,-8.0,-3.0,-4.0,-3.0,0.0,1.0,-9.0,0.08065485954284668
39,-33.0,31.0,129.0,0.0,9948.0,12817.0,-1598.0,1618.0,3.0,-2.0,0.0,3.0,6.0,2.0,-2.0,4.0,0.08250713348388672
40,-33.0,31.0,129.0,0.0,9948.0,12817.0,-1598.0,1618.0,5.0,21.0,19.0,-2.0,1.0,7.0,-3.0,9.0,0.08483648300170898
41,-24.0,34.0,125.0,0.0,9946.0,12814.0,-1613.0,1636.0,5.0,21.0,19.0,-2.0,1.0,7.0,-3.0,9.0,0.08739161491394043
42,-24.0,34.0,125.0,0.0,9946.0,12814.0,-1613.0,1636.0,-7.0,0.0,6.0,0.0,-1.0,-2.0,-2.0,-11.0,0.08928704261779785
43,-24.0,34.0,125.0,0.0,9946.0,12814.0,-1613.0,1636.0,-5.0,-12.0,-23.0,-6.0,0.0,3.0,-4.0,-12.0,0.09105491638183594
44,-35.0,59.0,149.0,0.0,9947.0,12809.0,-1629.0,1660.0,-5.0,-12.0,-23.0,-6.0,0.0,3.0,-4.0,-12.0,0.09281444549560547
45,-35.0,59.0,149.0,0.0,9947.0,12809.0,-1629.0,1660.0,6.0,21.0,8.0,5.0,0.0,-1.0,6.0,8.0,0.09475922584533691
46,-35.0,59.0,149.0,0.0,9947.0,12809.0,-1629.0,1660.0,10.0,12.0,5.0,-2.0,-3.0,-8.0,-3.0,-8.0,0.09652566909790039
47,-87.0,81.0,148.0,0.0,9955.0,12797.0,-1644.0,1687.0,10.0,12.0,5.0,-2.0,-3.0,-8.0,-3.0,-8.0,0.09940099716186523
48,-87.0,81.0,148.0,0.0,9955.0,12797.0,-1644.0,1687.0,-3.0,-10.0,-1.0,1.0,3.0,-3.0,-3.0,2.0,0.10165715217590332
49,-87.0,81.0,148.0,0.0,9955.0,12797.0,-1644.0,1687.0,4.0,4.0,0.0,-1.0,-1.0,0.0,0.0,2.0,0.10343813896179199
50,-95.0,59.0,198.0,0.0,9964.0,12783.0,-1668.0,1717.0,4.0,4.0,0.0,-1.0,-1.0,0.0,0.0,2.0,0.10520815849304199
51,-95.0,59.0,198.0,0.0,9964.0,12783.0,-1668.0,1717.0,-13.0,-16.0,-8.0,-2.0,2.0,0.0,1.0,-8.0,0.10705065727233887
52,-95.0,59.0,198.0,0.0,9964.0,12783.0,-1668.0,1717.0,2.0,1.0,3.0,3.0,3.0,3.0,2.0,7.0,0.10887479782104492
53,-39.0,24.0,175.0,0.0,9963.0,12777.0,-1694.0,1742.0,2.0,1.0,3.0,3.0,3.0,3.0,2.0,7.0,0.11089110374450684
54,-39.0,24.0,175.0,0.0,9963.0,12777.0,-1694.0,1742.0,6.0,2.0,10.0,7.0,7.0,6.0,3.0,8.0,0.11278724670410156
55,-39.0,24.0,175.0,0.0,9963.0,12777.0,-1694.0,1742.0,-2.0,-7.0,-6.0,0.0,-5.0,-4.0,-5.0,-8.0,0.11468291282653809
56,-97.0,31.0,152.0,0.0,9968.0,12766.0,-1718.0,1764.0,-2.0,-7.0,-6.0,0.0,-5.0,-4.0,-5.0,-8.0,0.11711764335632324
57,-97.0,31.0,152.0,0.0,9968.0,12766.0,-1718.0,1764.0,4.0,1.0,-3.0,-4.0,-1.0,-2.0,0.0,10.0,0.11925292015075684
58,-97.0,31.0,152.0,0.0,9968.0,12766.0,-1718.0,1764.0,7.0,5.0,5.0,9.0,7.0,2.0,1.0,2.0,0.12102007865905762
59,-144.0,44.0,132.0,0.0,9981.0,12752.0,-1736.0,1782.0,7.0,5.0,5.0,9.0,7.0,2.0,1.0,2.0,0.12279820442199707
60,-144.0,44.0,132.0,0.0,9981.0,12752.0,-1736.0,1782.0,4.0,4.0,-3.0,1.0,2.0,3.0,3.0,1.0,0.12463831901550293
61,-144.0,44.0,132.0,0.0,9981.0,12752.0,-1736.0,1782.0,9.0,12.0,16.0,5.0,3.0,2.0,-1.0,8.0,0.12639212608337402
62,-118.0,42.0,123.0,0.0,9992.0,12738.0,-1751.0,1800.0,9.0,12.0,16.0,5.0,3.0,2.0,-1.0,8.0,0.12819933891296387
63,-118.0,42.0,123.0,0.0,9992.0,12738.0,-1751.0,1800.0,1.0,4.0,-1.0,-1.0,2.0,7.0,-2.0,-7.0,0.13003182411193848
64,-55.0,46.0,128.0,0.0,9995.0,12732.0,-1763.0,1816.0,1.0,4.0,-1.0,-1.0,2.0,7.0,-2.0,-7.0,0.1331954002380371
65,-55.0,46.0,128.0,0.0,9995.0,12732.0,-1763.0,1816.0,1.0,20.0,13.0,-9.0,-24.0,-19.0,3.0,-11.0,0.13529300689697266
66,-55.0,46.0,128.0,0.0,9995.0,12732.0,-1763.0,1816.0,0.0,-7.0,0.0,0.0,0.0,-2.0,-5.0,-7.0,0.1370563507080078
67,-39.0,84.0,137.0,0.0,9999.0,12726.0,-1769.0,1834.0,0.0,-7.0,0.0,0.0,0.0,-2.0,-5.0,-7.0,0.13886356353759766
68,-39.0,84.0,137.0,0.0,9999.0,12726.0,-1769.0,1834.0,-11.0,-12.0,-9.0,1.0,6.0,8.0,1.0,8.0,0.14069867134094238
69,-39.0,84.0,137.0,0.0,9999.0,12726.0,-1769.0,1834.0,0.0,1.0,2.0,-1.0,-1.0,-2.0,-1.0,-1.0,0.14246392250061035
70,-51.0,98.0,117.0,0.0,10002.0,12720.0,-1771.0,1854.0,0.0,1.0,2.0,-1.0,-1.0,-2.0,-1.0,-1.0,0.1444566249847412
71,-51.0,98.0,117.0,0.0,10002.0,12720.0,-1771.0,1854.0,3.0,-4.0,-16.0,-7.0,-5.0,2.0,-2.0,14.0,0.14697647094726562
72,-51.0,98.0,117.0,0.0,10002.0,12720.0,-1771.0,1854.0,-4.0,2.0,-9.0,-12.0,-12.0,-3.0,2.0,7.0,0.15080714225769043
73,-48.0,96.0,125.0,0.0,10004.0,12714.0,-1777.0,1875.0,-4.0,2.0,-9.0,-12.0,-12.0,-3.0,2.0,7.0,0.1527092456817627
74,-48.0,96.0,125.0,0.0,10004.0,12714.0,-1777.0,1875.0,-9.0,-16.0,-8.0,-6.0,-5.0,-4.0,-4.0,-5.0,0.15463519096374512
75,-48.0,96.0,125.0,0.0,10004.0,12714.0,-1777.0,1875.0,-4.0,-2.0,-5.0,-2.0,1.0,-2.0,0.0,-3.0,0.15639829635620117
76,-26.0,64.0,130.0,0.0,10000.0,12714.0,-1786.0,1892.0,-4.0,-2.0,-5.0,-2.0,1.0,-2.0,0.0,-3.0,0.15816307067871094
77,-26.0,64.0,130.0,0.0,10000.0,12714.0,-1786.0,1892.0,2.0,-3.0,2.0,4.0,6.0,2.0,-1.0,1.0,0.1600039005279541
78,-26.0,64.0,130.0,0.0,10000.0,12714.0,-1786.0,1892.0,-4.0,-6.0,2.0,2.0,-9.0,-22.0,-1.0,-2.0,0.16207575798034668
79,57.0,73.0,136.0,0.0,9988.0,12719.0,-1793.0,1914.0,-4.0,-6.0,2.0,2.0,-9.0,-22.0,-1.0,-2.0,0.16385769844055176
80,57.0,73.0,136.0,0.0,9988.0,12719.0,-1793.0,1914.0,-1.0,-8.0,-3.0,1.0,3.0,1.0,-4.0,5.0,0.16570019721984863
81,57.0,73.0,136.0,0.0,9988.0,12719.0,-1793.0,1914.0,1.0,11.0,19.0,2.0,1.0,6.0,3.0,3.0,0.1674642562866211
82,69.0,79.0,157.0,0.0,9976.0,12723.0,-1802.0,1940.0,1.0,11.0,19.0,2.0,1.0,6.0,3.0,3.0,0.16924667358398438
83,69.0,79.0,157.0,0.0,9976.0,12723.0,-1802.0,1940.0,5.0,11.0,-4.0,4.0,5.0,1.0,4.0,-2.0,0.17109394073486328
84,69.0,79.0,157.0,0.0,9976.0,12723.0,-1802.0,1940.0,18.0,12.0,0.0,3.0,2.0,3.0,-1.0,4.0,0.17285513877868652
85,23.0,48.0,206.0,0.0,9972.0,12720.0,-1821.0,1965.0,18.0,12.0,0.0,3.0,2.0,3.0,-1.0,4.0,0.17462682723999023
86,23.0,48.0,206.0,0.0,9972.0,12720.0,-1821.0,1965.0,-7.0,-1.0,5.0,0.0,2.0,1.0,-7.0,-14.0,0.1766223907470703
87,23.0,48.0,206.0,0.0,9972.0,12720.0,-1821.0,1965.0,-8.0,-7.0,-3.0,-1.0,-3.0,1.0,3.0,1.0,0.17927145957946777
88,-80.0,-6.0,296.0,0.0,9980.0,12705.0,-1858.0,1988.0,-8.0,-7.0,-3.0,-1.0,-3.0,1.0,3.0,1.0,0.18230915069580078
89,-80.0,-6.0,296.0,0.0,9980.0,12705.0,-1858.0,1988.0,3.0,-7.0,-10.0,-3.0,-5.0,-2.0,-2.0,-3.0,0.184675931930542
90,-80.0,-6.0,296.0,0.0,9980.0,12705.0,-1858.0,1988.0,-8.0,-21.0,1.0,-1.0,-3.0,-5.0,-4.0,-3.0,0.18645358085632324
91,-197.0,-46.0,323.0,0.0,10002.0,12677.0,-1907.0,2007.0,-8.0,-21.0,1.0,-1.0,-3.0,-5.0,-4.0,-3.0,0.18821310997009277
92,-197.0,-46.0,323.0,0.0,10002.0,12677.0,-1907.0,2007.0,-13.0,-6.0,-10.0,-4.0,4.0,2.0,1.0,-7.0,0.19005250930786133
93,-197.0,-46.0,323.0,0.0,10002.0,12677.0,-1907.0,2007.0,3.0,-1.0,-2.0,-2.0,-1.0,1.0,0.0,7.0,0.1918201446533203
94,-219.0,-72.0,381.0,0.0,10022.0,12648.0,-1969.0,2030.0,3.0,-1.0,-2.0,-2.0,-1.0,1.0,0.0,7.0,0.1936032772064209
95,-219.0,-72.0,381.0,0.0,10022.0,12648.0,-1969.0,2030.0,4.0,5.0,4.0,3.0,4.0,2.0,-3.0,0.0,0.19565629959106445
96,-219.0,-72.0,381.0,0.0,10022.0,12648.0,-1969.0,2030.0,5.0,8.0,-9.0,-5.0,-2.0,3.0,1.0,-2.0,0.19743037223815918
97,-234.0,-93.0,398.0,0.0,10045.0,12616.0,-2035.0,2051.0,5.0,8.0,-9.0,-5.0,-2.0,3.0,1.0,-2.0,0.1992659568786621
98,-234.0,-93.0,398.0,0.0,10045.0,12616.0,-2035.0,2051.0,2.0,3.0,8.0,0.0,-2.0,0.0,-2.0,4.0,0.2011256217956543
99,-234.0,-93.0,398.0,0.0,10045.0,12616.0,-2035.0,2051.0,-5.0,2.0,-1.0,-2.0,-1.0,-3.0,-3.0,-4.0,0.202927827835083
100,-225.0,-87.0,374.0,0.0,10066.0,12587.0,-2095.0,2068.0,-5.0,2.0,-1.0,-2.0,-1.0,-3.0,-3.0,-4.0,0.20468544960021973
101,-225.0,-87.0,374.0,0.0,10066.0,12587.0,-2095.0,2068.0,-1.0,-7.0,-2.0,0.0,-4.0,-2.0,2.0,-6.0,0.20656895637512207
102,-225.0,-87.0,374.0,0.0,10066.0,12587.0,-2095.0,2068.0,-6.0,-9.0,-3.0,-2.0,0.0,0.0,0.0,3.0,0.20887970924377441
103,-231.0,-56.0,365.0,0.0,10090.0,12554.0,-2152.0,2090.0,-6.0,-9.0,-3.0,-2.0,0.0,0.0,0.0,3.0,0.21131300926208496
104,-231.0,-56.0,365.0,0.0,10090.0,12554.0,-2152.0,2090.0,-12.0,-13.0,-5.0,-3.0,-2.0,-5.0,-3.0,-2.0,0.21322250366210938
105,-231.0,-56.0,365.0,0.0,10090.0,12554.0,-2152.0,2090.0,5.0,4.0,-4.0,-2.0,3.0,1.0,0.0,-1.0,0.21585583686828613
106,-194.0,-38.0,360.0,0.0,10108.0,12526.0,-2207.0,2116.0,5.0,4.0,-4.0,-2.0,3.0,1.0,0.0,-1.0,0.21808743476867676
107,-194.0,-38.0,360.0,0.0,10108.0,12526.0,-2207.0,2116.0,5.0,10.0,3.0,1.0,1.0,0.0,-3.0,4.0,0.21994924545288086
108,-194.0,-38.0,360.0,0.0,10108.0,12526.0,-2207.0,2116.0,-3.0,-4.0,-2.0,1.0,1.0,0.0,-2.0,-6.0,0.2217106819152832
109,-203.0,-48.0,385.0,0.0,10125.0,12498.0,-2265.0,2141.0,-3.0,-4.0,-2.0,1.0,1.0,0.0,-2.0,-6.0,0.22348570823669434
110,-203.0,-48.0,385.0,0.0,10125.0,12498.0,-2265.0,2141.0,-3.0,-3.0,2.0,4.0,1.0,-2.0,-1.0,0.0,0.2253248691558838
111,-203.0,-48.0,385.0,0.0,10125.0,12498.0,-2265.0,2141.0,-1.0,0.0,-3.0,-2.0,-2.0,-1.0,-1.0,1.0,0.22729778289794922
112,-242.0,-53.0,344.0,0.0,10145.0,12467.0,-2322.0,2162.0,-1.0,0.0,-3.0,-2.0,-2.0,-1.0,-1.0,1.0,0.22927165031433105
113,-242.0,-53.0,344.0,0.0,10145.0,12467.0,-2322.0,2162.0,3.0,2.0,-1.0,-2.0,-1.0,-1.0,-2.0,-4.0,0.23113346099853516
114,-242.0,-53.0,344.0,0.0,10145.0,12467.0,-2322.0,2162.0,-6.0,-6.0,-2.0,-2.0,1.0,-1.0,7.0,-5.0,0.23290252685546875
115,-274.0,-29.0,344.0,0.0,10173.0,12429.0,-2379.0,2190.0,-6.0,-6.0,-2.0,-2.0,1.0,-1.0,7.0,-5.0,0.23468589782714844
116,-274.0,-29.0,344.0,0.0,10173.0,12429.0,-2379.0,2190.0,7.0,6.0,11.0,6.0,1.0,1.0,4.0,2.0,0.23658061027526855
117,-274.0,-29.0,344.0,0.0,10173.0,12429.0,-2379.0,2190.0,-2.0,-1.0,-1.0,-2.0,-1.0,1.0,-1.0,4.0,0.23847055435180664
118,-200.0,-55.0,332.0,0.0,10188.0,12401.0,-2435.0,2214.0,-2.0,-1.0,-1.0,-2.0,-1.0,1.0,-1.0,4.0,0.24083638191223145
119,-200.0,-55.0,332.0,0.0,10188.0,12401.0,-2435.0,2214.0,-5.0,-4.0,0.0,-1.0,1.0,0.0,-3.0,-3.0,0.24300265312194824
120,-200.0,-55.0,332.0,0.0,10188.0,12401.0,-2435.0,2214.0,0.0,-1.0,4.0,7.0,1.0,0.0,-6.0,-1.0,0.24493956565856934
121,-243.0,-53.0,320.0,0.0,10212.0,12365.0,-2492.0,2239.0,0.0,-1.0,4.0,7.0,1.0,0.0,-6.0,-1.0,0.2467198371887207
122,-243.0,-53.0,320.0,0.0,10212.0,12365.0,-2492.0,2239.0,-1.0,0.0,-2.0,-4.0,-4.0,0.0,-3.0,-2.0,0.24983572959899902
123,-243.0,-53.0,320.0,0.0,10212.0,12365.0,-2492.0,2239.0,0.0,0.0,0.0,-1.0,-1.0,0.0,-3.0,-4.0,0.25185728073120117
124,-335.0,27.0,308.0,0.0,10261.0,12305.0,-2548.0,2285.0,0.0,0.0,0.0,-1.0,-1.0,0.0,-3.0,-4.0,0.2536320686340332
125,-335.0,27.0,308.0,0.0,10261.0,12305.0,-2548.0,2285.0,1.0,-2.0,-3.0,-2.0,-5.0,-2.0,-8.0,-2.0,0.25548839569091797
126,-335.0,27.0,308.0,0.0,10261.0,12305.0,-2548.0,2285.0,-1.0,-2.0,0.0,0.0,0.0,-1.0,-3.0,-2.0,0.2572493553161621
127,-231.0,245.0,373.0,0.0,10297.0,12253.0,-2581.0,2363.0,-1.0,-2.0,0.0,0.0,0.0,-1.0,-3.0,-2.0,0.2590506076812744
128,-231.0,245.0,373.0,0.0,10297.0,12253.0,-2581.0,2363.0,-9.0,-6.0,-1.0,-4.0,-2.0,-1.0,2.0,0.0,0.261136531829834
129,-231.0,245.0,373.0,0.0,10297.0,12253.0,-2581.0,2363.0,0.0,-3.0,-2.0,-3.0,-2.0,-5.0,1.0,2.0,0.26296067237854004
130,-166.0,341.0,413.0,0.0,10324.0,12212.0,-2596.0,2444.0,0.0,-3.0,-2.0,-3.0,-2.0,-5.0,1.0,2.0,0.2647254467010498
131,-166.0,341.0,413.0,0.0,10324.0,12212.0,-2596.0,2444.0,0.0,-4.0,-7.0,0.0,-4.0,-7.0,0.0,-1.0,0.26659560203552246
132,-166.0,341.0,413.0,0.0,10324.0,12212.0,-2596.0,2444.0,-1.0,1.0,2.0,0.0,-3.0,-1.0,-3.0,0.0,0.26839256286621094
133,-320.0,202.0,333.0,0.0,10366.0,12164.0,-2611.0,2483.0,-1.0,1.0,2.0,0.0,-3.0,-1.0,-3.0,0.0,0.27072954177856445
134,-320.0,202.0,333.0,0.0,10366.0,12164.0,-2611.0,2483.0,-2.0,0.0,-1.0,6.0,16.0,4.0,-1.0,-1.0,0.2731144428253174
135,-320.0,202.0,333.0,0.0,10366.0,12164.0,-2611.0,2483.0,1.0,3.0,5.0,8.0,8.0,1.0,2.0,3.0,0.27492189407348633
136,-502.0,-98.0,149.0,0.0,10412.0,12119.0,-2656.0,2466.0,1.0,3.0,5.0,8.0,8.0,1.0,2.0,3.0,0.2766835689544678
137,-502.0,-98.0,149.0,0.0,10412.0,12119.0,-2656.0,2466.0,2.0,0.0,1.0,1.0,-1.0,0.0,-3.0,0.0,0.27857065200805664
138,-502.0,-98.0,149.0,0.0,10412.0,12119.0,-2656.0,2466.0,0.0,1.0,2.0,10.0,9.0,2.0,1.0,0.0,0.28033971786499023
139,-722.0,-36.0,193.0,0.0,10496.0,12032.0,-2716.0,2473.0,0.0,1.0,2.0,10.0,9.0,2.0,1.0,0.0,0.28334522247314453
140,-722.0,-36.0,193.0,0.0,10496.0,12032.0,-2716.0,2473.0,0.0,0.0,4.0,10.0,15.0,1.0,4.0,2.0,0.28548383712768555
141,-722.0,-36.0,193.0,0.0,10496.0,12032.0,-2716.0,2473.0,-3.0,-5.0,-2.0,-8.0,-37.0,-34.0,-15.0,-6.0,0.2872650623321533
142,-358.0,51.0,167.0,0.0,10536.0,11981.0,-2755.0,2504.0,-3.0,-5.0,-2.0,-8.0,-37.0,-34.0,-15.0,-6.0,0.289043664932251
143,-358.0,51.0,167.0,0.0,10536.0,11981.0,-2755.0,2504.0,6.0,5.0,2.0,0.0,6.0,2.0,-1.0,3.0,0.29090189933776855
144,-358.0,51.0,167.0,0.0,10536.0,11981.0,-2755.0,2504.0,2.0,2.0,3.0,5.0,17.0,15.0,7.0,4.0,0.2927424907684326
145,97.0,177.0,78.0,0.0,10519.0,11992.0,-2743.0,2537.0,2.0,2.0,3.0,5.0,17.0,15.0,7.0,4.0,0.29480457305908203
146,97.0,177.0,78.0,0.0,10519.0,11992.0,-2743.0,2537.0,1.0,5.0,10.0,17.0,7.0,0.0,1.0,0.0,0.2966766357421875
147,97.0,177.0,78.0,0.0,10519.0,11992.0,-2743.0,2537.0,-1.0,-5.0,-14.0,-22.0,-1.0,0.0,1.0,1.0,0.29845285415649414
148,-231.0,154.0,-15.0,0.0,10554.0,11967.0,-2720.0,2535.0,-1.0,-5.0,-14.0,-22.0,-1.0,0.0,1.0,1.0,0.30033302307128906
149,-231.0,154.0,-15.0,0.0,10554.0,11967.0,-2720.0,2535.0,-2.0,-2.0,-2.0,-5.0,-9.0,-4.0,-1.0,0.0,0.3028738498687744
150,-231.0,154.0,-15.0,0.0,10554.0,11967.0,-2720.0,2535.0,-1.0,-5.0,-9.0,-44.0,-45.0,-11.0,-19.0,-8.0,0.3049473762512207
151,-277.0,109.0,12.0,0.0,10600.0,11928.0,-2709.0,2537.0,-1.0,-5.0,-9.0,-44.0,-45.0,-11.0,-19.0,-8.0,0.30673694610595703
152,-277.0,109.0,12.0,0.0,10600.0,11928.0,-2709.0,2537.0,0.0,0.0,-5.0,-12.0,-12.0,-12.0,-26.0,-13.0,0.30858802795410156
153,-277.0,109.0,12.0,0.0,10600.0,11928.0,-2709.0,2537.0,-4.0,4.0,7.0,18.0,27.0,7.0,-6.0,-4.0,0.3103752136230469
154,-211.0,21.0,100.0,0.0,10631.0,11896.0,-2722.0,2544.0,-4.0,4.0,7.0,18.0,27.0,7.0,-6.0,-4.0,0.31215858459472656
155,-211.0,21.0,100.0,0.0,10631.0,11896.0,-2722.0,2544.0,-3.0,-6.0,-9.0,-16.0,-14.0,-3.0,-9.0,-5.0,0.31400179862976074
156,-211.0,21.0,100.0,0.0,10631.0,11896.0,-2722.0,2544.0,-1.0,-1.0,-1.0,-1.0,-5.0,3.0,-2.0,-3.0,0.3207263946533203
157,-169.0,49.0,57.0,0.0,10657.0,11868.0,-2730.0,2556.0,-1.0,-1.0,-1.0,-1.0,-5.0,3.0,-2.0,-3.0,0.3225224018096924
158,-169.0,49.0,57.0,0.0,10657.0,11868.0,-2730.0,2556.0,-1.0,1.0,-1.0,10.0,10.0,2.0,9.0,1.0,0.3279128074645996
159,-169.0,49.0,57.0,0.0,10657.0,11868.0,-2730.0,2556.0,-3.0,-2.0,0.0,9.0,11.0,2.0,0.0,0.0,0.3451399803161621
160,124.0,62.0,6.0,0.0,10647.0,11876.0,-2721.0,2572.0,-3.0,-2.0,0.0,9.0,11.0,2.0,0.0,0.0,0.34990525245666504
161,124.0,62.0,6.0,0.0,10647.0,11876.0,-2721.0,2572.0,-1.0,0.0,1.0,-10.0,-3.0,0.0,0.0,7.0,0.3525204658508301
162,124.0,62.0,6.0,0.0,10647.0,11876.0,-2721.0,2572.0,3.0,3.0,1.0,4.0,3.0,-1.0,-4.0,-2.0,0.35850071907043457
163,433.0,129.0,87.0,0.0,10595.0,11919.0,-2701.0,2608.0,3.0,3.0,1.0,4.0,3.0,-1.0,-4.0,-2.0,0.36034440994262695
164,433.0,129.0,87.0,0.0,10595.0,11919.0,-2701.0,2608.0,0.0,3.0,2.0,3.0,2.0,4.0,6.0,3.0,0.36704564094543457
165,433.0,129.0,87.0,0.0,10595.0,11919.0,-2701.0,2608.0,-2.0,-3.0,-9.0,-19.0,-16.0,-1.0,1.0,-3.0,0.381166934967041
166,332.0,119.0,196.0,0.0,10548.0,11953.0,-2698.0,2649.0,-2.0,-3.0,-9.0,-19.0,-16.0,-1.0,1.0,-3.0,0.38300418853759766
167,332.0,119.0,196.0,0.0,10548.0,11953.0,-2698.0,2649.0,1.0,-1.0,-1.0,6.0,3.0,3.0,1.0,0.0,0.38881611824035645
168,332.0,119.0,196.0,0.0,10548.0,11953.0,-2698.0,2649.0,-1.0,-1.0,6.0,12.0,8.0,2.0,2.0,2.0,0.40345096588134766
169,-71.0,-20.0,185.0,0.0,10550.0,11942.0,-2724.0,2661.0,-1.0,-1.0,6.0,12.0,8.0,2.0,2.0,2.0,0.40523838996887207
170,-71.0,-20.0,185.0,0.0,10550.0,11942.0,-2724.0,2661.0,2.0,0.0,3.0,-7.0,-3.0,1.0,-6.0,0.0,0.410905122756958
171,-71.0,-20.0,185.0,0.0,10550.0,11942.0,-2724.0,2661.0,1.0,0.0,1.0,7.0,2.0,0.0,3.0,0.0,0.4190073013305664
172,-138.0,-60.0,174.0,0.0,10565.0,11920.0,-2754.0,2667.0,1.0,0.0,1.0,7.0,2.0,0.0,3.0,0.0,0.4210019111633301
173,-138.0,-60.0,174.0,0.0,10565.0,11920.0,-2754.0,2667.0,-4.0,-4.0,-1.0,-5.0,-4.0,-3.0,-2.0,-4.0,0.4259912967681885
174,-138.0,-60.0,174.0,0.0,10565.0,11920.0,-2754.0,2667.0,1.0,-4.0,-1.0,7.0,-1.0,-3.0,-2.0,0.0,0.44115543365478516
175,-60.0,-39.0,163.0,0.0,10572.0,11904.0,-2782.0,2683.0,1.0,-4.0,-1.0,7.0,-1.0,-3.0,-2.0,0.0,0.4429442882537842
176,-60.0,-39.0,163.0,0.0,10572.0,11904.0,-2782.0,2683.0,-1.0,-2.0,-2.0,-9.0,-15.0,-2.0,3.0,-1.0,0.447721004486084
177,-60.0,-39.0,163.0,0.0,10572.0,11904.0,-2782.0,2683.0,5.0,11.0,0.0,2.0,4.0,3.0,2.0,3.0,0.4642214775085449
178,50.0,-36.0,157.0,0.0,10563.0,11901.0,-2807.0,2702.0,5.0,11.0,0.0,2.0,4.0,3.0,2.0,3.0,0.46814703941345215
179,50.0,-36.0,157.0,0.0,10563.0,11901.0,-2807.0,2702.0,-5.0,-8.0,-3.0,0.0,3.0,-1.0,3.0,1.0,0.4702110290527344
180,50.0,-36.0,157.0,0.0,10563.0,11901.0,-2807.0,2702.0,-7.0,-10.0,-1.0,6.0,1.0,-1.0,1.0,-5.0,0.47870492935180664
181,220.0,-94.0,171.0,0.0,10527.0,11923.0,-2834.0,2718.0,-7.0,-10.0,-1.0,6.0,1.0,-1.0,1.0,-5.0,0.48052358627319336
182,220.0,-94.0,171.0,0.0,10527.0,11923.0,-2834.0,2718.0,-2.0,-11.0,-3.0,-5.0,-20.0,-42.0,-13.0,-2.0,0.4856863021850586
183,220.0,-94.0,171.0,0.0,10527.0,11923.0,-2834.0,2718.0,-1.0,-2.0,-3.0,-2.0,-3.0,0.0,-2.0,-2.0,0.5013906955718994
184,409.0,-115.0,142.0,0.0,10456.0,11978.0,-2857.0,2730.0,-1.0,-2.0,-3.0,-2.0,-3.0,0.0,-2.0,-2.0,0.5032069683074951
185,409.0,-115.0,142.0,0.0,10456.0,11978.0,-2857.0,2730.0,4.0,15.0,-7.0,1.0,5.0,7.0,8.0,3.0,0.507784366607666
186,409.0,-115.0,142.0,0.0,10456.0,11978.0,-2857.0,2730.0,-3.0,-8.0,0.0,1.0,-3.0,-11.0,-4.0,0.0,0.5238308906555176
187,349.0,-65.0,55.0,0.0,10401.0,12022.0,-2864.0,2740.0,-3.0,-8.0,0.0,1.0,-3.0,-11.0,-4.0,0.0,0.5269782543182373
188,349.0,-65.0,55.0,0.0,10401.0,12022.0,-2864.0,2740.0,-4.0,-4.0,-1.0,1.0,2.0,9.0,1.0,-2.0,0.5317051410675049
189,349.0,-65.0,55.0,0.0,10401.0,12022.0,-2864.0,2740.0,1.0,4.0,0.0,-3.0,2.0,8.0,5.0,1.0,0.5385441780090332
190,163.0,-66.0,112.0,0.0,10363.0,12049.0,-2884.0,2746.0,1.0,4.0,0.0,-3.0,2.0,8.0,5.0,1.0,0.5403420925140381
191,163.0,-66.0,112.0,0.0,10363.0,12049.0,-2884.0,2746.0,3.0,6.0,0.0,-2.0,-3.0,1.0,-3.0,-1.0,0.5457785129547119
192,163.0,-66.0,112.0,0.0,10363.0,12049.0,-2884.0,2746.0,1.0,2.0,3.0,2.0,0.0,0.0,0.0,1.0,0.5607814788818359
193,-130.0,-112.0,164.0,0.0,10367.0,12033.0,-2928.0,2752.0,1.0,2.0,3.0,2.0,0.0,0.0,0.0,1.0,0.5625746250152588
194,-130.0,-112.0,164.0,0.0,10367.0,12033.0,-2928.0,2752.0,-1.0,-3.0,-3.0,-8.0,-2.0,7.0,4.0,0.0,0.5678319931030273
195,-130.0,-112.0,164.0,0.0,10367.0,12033.0,-2928.0,2752.0,0.0,1.0,1.0,0.0,-3.0,-2.0,-3.0,0.0,0.5847301483154297
196,-17.0,-87.0,145.0,0.0,10356.0,12031.0,-2965.0,2763.0,0.0,1.0,1.0,0.0,-3.0,-2.0,-3.0,0.0,0.5867981910705566
197,-17.0,-87.0,145.0,0.0,10356.0,12031.0,-2965.0,2763.0,-2.0,-3.0,-1.0,2.0,7.0,8.0,0.0,-4.0,0.5903818607330322
198,-17.0,-87.0,145.0,0.0,10356.0,12031.0,-2965.0,2763.0,-1.0,-2.0,6.0,3.0,-3.0,-5.0,-1.0,3.0,0.6075005531311035
199,73.0,-78.0,92.0,0.0,10340.0,12037.0,-2987.0,2770.0,-1.0,-2.0,6.0,3.0,-3.0,-5.0,-1.0,3.0,0.6109426021575928
200,73.0,-78.0,92.0,0.0,10340.0,12037.0,-2987.0,2770.0,0.0,0.0,7.0,-1.0,-1.0,-6.0,-7.0,1.0,0.6147012710571289
201,73.0,-78.0,92.0,0.0,10340.0,12037.0,-2987.0,2770.0,0.0,-1.0,-1.0,-1.0,3.0,1.0,-2.0,-2.0,0.6208207607269287
202,101.0,-44.0,69.0,0.0,10320.0,12051.0,-2999.0,2774.0,0.0,-1.0,-1.0,-1.0,3.0,1.0,-2.0,-2.0,0.6226074695587158
203,101.0,-44.0,69.0,0.0,10320.0,12051.0,-2999.0,2774.0,-2.0,-1.0,-1.0,7.0,2.0,-1.0,1.0,-1.0,0.6283855438232422
204,101.0,-44.0,69.0,0.0,10320.0,12051.0,-2999.0,2774.0,0.0,-1.0,-1.0,7.0,2.0,2.0,0.0,-2.0,0.6452229022979736
205,34.0,1.0,98.0,0.0,10307.0,12056.0,-3011.0,2786.0,0.0,-1.0,-1.0,7.0,2.0,2.0,0.0,-2.0,0.6486420631408691
206,34.0,1.0,98.0,0.0,10307.0,12056.0,-3011.0,2786.0,-4.0,-6.0,-7.0,-14.0,-6.0,-2.0,-3.0,-2.0,0.6521415710449219
207,34.0,1.0,98.0,0.0,10307.0,12056.0,-3011.0,2786.0,3.0,1.0,-3.0,2.0,-1.0,-1.0,3.0,-1.0,0.6583075523376465
208,46.0,-31.0,176.0,0.0,10294.0,12058.0,-3036.0,2801.0,3.0,1.0,-3.0,2.0,-1.0,-1.0,3.0,-1.0,0.66011643409729
209,46.0,-31.0,176.0,0.0,10294.0,12058.0,-3036.0,2801.0,-1.0,-1.0,-2.0,-6.0,1.0,5.0,-5.0,1.0,0.6654551029205322
210,46.0,-31.0,176.0,0.0,10294.0,12058.0,-3036.0,2801.0,-6.0,-2.0,-5.0,-8.0,-3.0,-2.0,-2.0,-4.0,0.6809065341949463
211,55.0,-76.0,143.0,0.0,10279.0,12066.0,-3056.0,2801.0,-6.0,-2.0,-5.0,-8.0,-3.0,-2.0,-2.0,-4.0,0.6839933395385742
212,55.0,-76.0,143.0,0.0,10279.0,12066.0,-3056.0,2801.0,4.0,3.0,2.0,4.0,3.0,5.0,5.0,6.0,0.6880488395690918
213,55.0,-76.0,143.0,0.0,10279.0,12066.0,-3056.0,2801.0,0.0,-1.0,2.0,11.0,2.0,2.0,-3.0,1.0,0.7054076194763184
214,67.0,-29.0,74.0,0.0,10264.0,12075.0,-3065.0,2804.0,0.0,-1.0,2.0,11.0,2.0,2.0,-3.0,1.0,0.7086329460144043
215,67.0,-29.0,74.0,0.0,10264.0,12075.0,-3065.0,2804.0,-4.0,-4.0,0.0,2.0,-4.0,-6.0,1.0,-5.0,0.7119381427764893
216,67.0,-29.0,74.0,0.0,10264.0,12075.0,-3065.0,2804.0,-1.0,-7.0,-13.0,-32.0,-16.0,-11.0,-3.0,-4.0,0.7185370922088623
217,-52.0,-35.0,111.0,0.0,10255.0,12077.0,-3087.0,2806.0,-1.0,-7.0,-13.0,-32.0,-16.0,-11.0,-3.0,-4.0,0.7203285694122314
218,-52.0,-35.0,111.0,0.0,10255.0,12077.0,-3087.0,2806.0,-3.0,0.0,6.0,18.0,7.0,0.0,-2.0,-2.0,0.7255921363830566
219,-52.0,-35.0,111.0,0.0,10255.0,12077.0,-3087.0,2806.0,-4.0,-1.0,2.0,3.0,5.0,8.0,5.0,0.0,0.7408356666564941
220,-238.0,-142.0,181.0,0.0,10273.0,12055.0,-3127.0,2789.0,-4.0,-1.0,2.0,3.0,5.0,8.0,5.0,0.0,0.7427957057952881
221,-238.0,-142.0,181.0,0.0,10273.0,12055.0,-3127.0,2789.0,0.0,1.0,-2.0,3.0,-3.0,-2.0,1.0,2.0,0.7493419647216797
222,-238.0,-142.0,181.0,0.0,10273.0,12055.0,-3127.0,2789.0,-1.0,-2.0,0.0,-4.0,8.0,13.0,2.0,0.0,0.7635533809661865
223,-404.0,-171.0,302.0,0.0,10313.0,12011.0,-3183.0,2768.0,-1.0,-2.0,0.0,-4.0,8.0,13.0,2.0,0.0,0.7673351764678955
224,-404.0,-171.0,302.0,0.0,10313.0,12011.0,-3183.0,2768.0,-3.0,-7.0,4.0,5.0,-8.0,1.0,4.0,-2.0,0.7712621688842773
225,-404.0,-171.0,302.0,0.0,10313.0,12011.0,-3183.0,2768.0,-1.0,1.0,-1.0,-1.0,-2.0,-2.0,-4.0,-1.0,0.7794666290283203
226,-503.0,-230.0,273.0,0.0,10378.0,11942.0,-3249.0,2745.0,-1.0,1.0,-1.0,-1.0,-2.0,-2.0,-4.0,-1.0,0.782341718673706
227,-503.0,-230.0,273.0,0.0,10378.0,11942.0,-3249.0,2745.0,2.0,2.0,-5.0,-11.0,-2.0,1.0,10.0,2.0,0.7847793102264404
228,-503.0,-230.0,273.0,0.0,10378.0,11942.0,-3249.0,2745.0,4.0,-1.0,1.0,12.0,-5.0,-14.0,-11.0,-2.0,0.8015358448028564
229,-203.0,-178.0,276.0,0.0,10409.0,11900.0,-3304.0,2747.0,4.0,-1.0,1.0,12.0,-5.0,-14.0,-11.0,-2.0,0.8033678531646729
230,-203.0,-178.0,276.0,0.0,10409.0,11900.0,-3304.0,2747.0,2.0,3.0,2.0,5.0,6.0,13.0,10.0,13.0,0.8078908920288086
231,-203.0,-178.0,276.0,0.0,10409.0,11900.0,-3304.0,2747.0,-3.0,-6.0,0.0,-5.0,-12.0,-8.0,-58.0,-12.0,0.8243346214294434
232,70.0,-147.0,214.0,0.0,10395.0,11901.0,-3339.0,2751.0,-3.0,-6.0,0.0,-5.0,-12.0,-8.0,-58.0,-12.0,0.8285422325134277
233,70.0,-147.0,214.0,0.0,10395.0,11901.0,-3339.0,2751.0,-6.0,-2.0,-8.0,-21.0,-21.0,-16.0,-11.0,-15.0,0.8333182334899902
234,70.0,-147.0,214.0,0.0,10395.0,11901.0,-3339.0,2751.0,-3.0,-4.0,3.0,-5.0,-5.0,2.0,26.0,14.0,0.8378715515136719
235,52.0,-165.0,135.0,0.0,10380.0,11913.0,-3362.0,2731.0,-3.0,-4.0,3.0,-5.0,-5.0,2.0,26.0,14.0,0.8461079597473145
236,52.0,-165.0,135.0,0.0,10380.0,11913.0,-3362.0,2731.0,10.0,36.0,25.0,31.0,62.0,29.0,-4.0,4.0,0.8480081558227539
237,52.0,-165.0,135.0,0.0,10380.0,11913.0,-3362.0,2731.0,1.0,3.0,-2.0,8.0,24.0,4.0,12.0,-4.0,0.8624856472015381
238,-22.0,-288.0,159.0,0.0,10354.0,11931.0,-3409.0,2694.0,1.0,3.0,-2.0,8.0,24.0,4.0,12.0,-4.0,0.8668837547302246
239,-22.0,-288.0,159.0,0.0,10354.0,11931.0,-3409.0,2694.0,0.0,-7.0,0.0,9.0,-13.0,1.0,5.0,-7.0,0.8690507411956787
240,-22.0,-288.0,159.0,0.0,10354.0,11931.0,-3409.0,2694.0,-4.0,1.0,2.0,-1.0,-40.0,-30.0,1.0,-5.0,0.8843495845794678
241,-342.0,-321.0,266.0,0.0,10362.0,11911.0,-3484.0,2652.0,-4.0,1.0,2.0,-1.0,-40.0,-30.0,1.0,-5.0,0.8877804279327393
242,-342.0,-321.0,266.0,0.0,10362.0,11911.0,-3484.0,2652.0,0.0,-5.0,-9.0,14.0,50.0,7.0,2.0,-1.0,0.891840934753418
243,-342.0,-321.0,266.0,0.0,10362.0,11911.0,-3484.0,2652.0,6.0,18.0,13.0,-23.0,-9.0,-16.0,-10.0,4.0,0.8978486061096191
244,-414.0,-285.0,194.0,0.0,10388.0,11875.0,-3555.0,2617.0,6.0,18.0,13.0,-23.0,-9.0,-16.0,-10.0,4.0,0.906092643737793
245,-414.0,-285.0,194.0,0.0,10388.0,11875.0,-3555.0,2617.0,-7.0,-7.0,6.0,15.0,46.0,6.0,-1.0,8.0,0.9090762138366699
246,-414.0,-285.0,194.0,0.0,10388.0,11875.0,-3555.0,2617.0,-6.0,-19.0,-40.0,-78.0,-64.0,0.0,9.0,1.0,0.9235243797302246
247,-396.0,-170.0,228.0,0.0,10420.0,11830.0,-3618.0,2607.0,-6.0,-19.0,-40.0,-78.0,-64.0,0.0,9.0,1.0,0.9278180599212646
248,-396.0,-170.0,228.0,0.0,10420.0,11830.0,-3618.0,2607.0,-14.0,-13.0,-4.0,14.0,15.0,-67.0,-14.0,-30.0,0.9323713779449463
249,-396.0,-170.0,228.0,0.0,10420.0,11830.0,-3618.0,2607.0,3.0,-4.0,2.0,15.0,-3.0,-13.0,17.0,8.0,0.9446432590484619
250,-387.0,-158.0,377.0,0.0,10466.0,11771.0,-3682.0,2604.0,3.0,-4.0,2.0,15.0,-3.0,-13.0,17.0,8.0,0.9483945369720459
251,-387.0,-158.0,377.0,0.0,10466.0,11771.0,-3682.0,2604.0,-11.0,-20.0,-15.0,-29.0,-77.0,17.0,-15.0,-2.0,0.9531595706939697
252,-387.0,-158.0,377.0,0.0,10466.0,11771.0,-3682.0,2604.0,-2.0,-12.0,5.0,36.0,36.0,-21.0,4.0,-2.0,0.9579460620880127
253,-675.0,-57.0,537.0,0.0,10563.0,11655.0,-3758.0,2624.0,-2.0,-12.0,5.0,36.0,36.0,-21.0,4.0,-2.0,0.9670836925506592
254,-675.0,-57.0,537.0,0.0,10563.0,11655.0,-3758.0,2624.0,11.0,15.0,8.0,-10.0,-53.0,-33.0,7.0,6.0,0.9690768718719482
255,-675.0,-57.0,537.0,0.0,10563.0,11655.0,-3758.0,2624.0,-2.0,2.0,0.0,34.0,70.0,42.0,3.0,-10.0,0.9813342094421387
256,-588.0,-74.0,688.0,0.0,10644.0,11540.0,-3853.0,2665.0,-2.0,2.0,0.0,34.0,70.0,42.0,3.0,-10.0,0.9839317798614502
257,-588.0,-74.0,688.0,0.0,10644.0,11540.0,-3853.0,2665.0,-13.0,-20.0,-39.0,-21.0,4.0,29.0,13.0,-4.0,0.9879806041717529
258,-588.0,-74.0,688.0,0.0,10644.0,11540.0,-3853.0,2665.0,14.0,30.0,13.0,24.0,34.0,13.0,3.0,18.0,1.0041935443878174
259,-229.0,-77.0,790.0,0.0,10669.0,11475.0,-3941.0,2717.0,14.0,30.0,13.0,24.0,34.0,13.0,3.0,18.0,1.008070468902588
260,-229.0,-77.0,790.0,0.0,10669.0,11475.0,-3941.0,2717.0,3.0,-2.0,-21.0,-69.0,-67.0,-49.0,-11.0,7.0,1.0126512050628662
261,-229.0,-77.0,790.0,0.0,10669.0,11475.0,-3941.0,2717.0,-10.0,-3.0,18.0,-10.0,-87.0,-4.0,-14.0,-28.0,1.018381118774414
262,-356.0,184.0,882.0,0.0,10731.0,11373.0,-4006.0,2806.0,-10.0,-3.0,18.0,-10.0,-87.0,-4.0,-14.0,-28.0,1.027327060699463
263,-356.0,184.0,882.0,0.0,10731.0,11373.0,-4006.0,2806.0,12.0,27.0,41.0,9.0,-4.0,8.0,-16.0,9.0,1.0336616039276123
264,-356.0,184.0,882.0,0.0,10731.0,11373.0,-4006.0,2806.0,-5.0,-17.0,10.0,32.0,72.0,15.0,-23.0,-5.0,1.0416874885559082
265,49.0,501.0,875.0,0.0,10777.0,11295.0,-4003.0,2946.0,-5.0,-17.0,10.0,32.0,72.0,15.0,-23.0,-5.0,1.0472898483276367
266,49.0,501.0,875.0,0.0,10777.0,11295.0,-4003.0,2946.0,-3.0,-20.0,-20.0,-20.0,-62.0,-7.0,19.0,8.0,1.051952838897705
267,49.0,501.0,875.0,0.0,10777.0,11295.0,-4003.0,2946.0,-15.0,-51.0,-37.0,1.0,14.0,17.0,-6.0,-15.0,1.0642204284667969
268,435.0,846.0,488.0,0.0,10821.0,11271.0,-3859.0,3064.0,-15.0,-51.0,-37.0,1.0,14.0,17.0,-6.0,-15.0,1.0660269260406494
269,435.0,846.0,488.0,0.0,10821.0,11271.0,-3859.0,3064.0,5.0,16.0,16.0,20.0,9.0,-18.0,-24.0,-7.0,1.070366621017456
270,435.0,846.0,488.0,0.0,10821.0,11271.0,-3859.0,3064.0,7.0,15.0,11.0,42.0,85.0,42.0,27.0,19.0,1.0781173706054688
271,349.0,1070.0,-293.0,0.0,10832.0,11288.0,-3685.0,3176.0,7.0,15.0,11.0,42.0,85.0,42.0,27.0,19.0,1.0861904621124268
272,349.0,1070.0,-293.0,0.0,10832.0,11288.0,-3685.0,3176.0,-8.0,-12.0,2.0,-8.0,-1.0,5.0,-2.0,-16.0,1.088109016418457
273,349.0,1070.0,-293.0,0.0,10832.0,11288.0,-3685.0,3176.0,19.0,36.0,3.0,-9.0,1.0,0.0,-1.0,8.0,1.102513313293457
274,-428.0,1059.0,-1287.0,0.0,10970.0,11250.0,-3416.0,3136.0,19.0,36.0,3.0,-9.0,1.0,0.0,-1.0,8.0,1.106055498123169
275,-428.0,1059.0,-1287.0,0.0,10970.0,11250.0,-3416.0,3136.0,19.0,36.0,3.0,-9.0,1.0,0.0,-1.0,8.0,1.108971118927002
276,-428.0,1059.0,-1287.0,0.0,10970.0,11250.0,-3416.0,3136.0,3.0,-31.0,1.0,33.0,27.0,-5.0,16.0,21.0,1.124603509902954
277,-428.0,1059.0,-1287.0,0.0,10970.0,11250.0,-3416.0,3136.0,7.0,12.0,0.0,-15.0,-30.0,-7.0,-2.0,5.0,1.1287603378295898
278,-1286.0,1127.0,-2167.0,0.0,11239.0,11133.0,-3057.0,2966.0,7.0,12.0,0.0,-15.0,-30.0,-7.0,-2.0,5.0,1.132286787033081
279,-1286.0,1127.0,-2167.0,0.0,11239.0,11133.0,-3057.0,2966.0,-6.0,-21.0,-10.0,0.0,26.0,-4.0,14.0,1.0,1.13569974899292
280,-1286.0,1127.0,-2167.0,0.0,11239.0,11133.0,-3057.0,2966.0,-8.0,4.0,-16.0,-36.0,-61.0,-28.0,-20.0,-22.0,1.148430347442627
281,-1573.0,1492.0,-3183.0,0.0,11572.0,10989.0,-2536.0,2703.0,-8.0,4.0,-16.0,-36.0,-61.0,-28.0,-20.0,-22.0,1.1528644561767578
282,-1573.0,1492.0,-3183.0,0.0,11572.0,10989.0,-2536.0,2703.0,14.0,38.0,3.0,9.0,34.0,16.0,-4.0,1.0,1.1564693450927734
283,-1573.0,1492.0,-3183.0,0.0,11572.0,10989.0,-2536.0,2703.0,-4.0,-5.0,21.0,9.0,18.0,4.0,14.0,11.0,1.1611411571502686
284,-2018.0,1804.0,-4172.0,0.0,11970.0,10780.0,-1865.0,2333.0,-4.0,-5.0,21.0,9.0,18.0,4.0,14.0,11.0,1.16300630569458
285,-2018.0,1804.0,-4172.0,0.0,11970.0,10780.0,-1865.0,2333.0,-5.0,-10.0,-12.0,-5.0,0.0,6.0,-1.0,-3.0,1.1683738231658936
286,-2018.0,1804.0,-4172.0,0.0,11970.0,10780.0,-1865.0,2333.0,-11.0,-10.0,-4.0,-6.0,18.0,2.0,-11.0,-14.0,1.1842398643493652
287,-2026.0,1947.0,-5028.0,0.0,12351.0,10548.0,-1069.0,1861.0,-11.0,-10.0,-4.0,-6.0,18.0,2.0,-11.0,-14.0,1.1863701343536377
288,-2026.0,1947.0,-5028.0,0.0,12351.0,10548.0,-1069.0,1861.0,2.0,-3.0,4.0,-20.0,-24.0,-6.0,-2.0,-4.0,1.1915786266326904
289,-2026.0,1947.0,-5028.0,0.0,12351.0,10548.0,-1069.0,1861.0,-1.0,4.0,0.0,-5.0,-7.0,3.0,1.0,-4.0,1.2080965042114258
290,-2243.0,1826.0,-5844.0,0.0,12717.0,10251.0,-196.0,1254.0,-1.0,4.0,0.0,-5.0,-7.0,3.0,1.0,-4.0,1.2118158340454102
291,-2243.0,1826.0,-5844.0,0.0,12717.0,10251.0,-196.0,1254.0,3.0,14.0,6.0,-2.0,-17.0,0.0,1.0,-1.0,1.2158458232879639
292,-2243.0,1826.0,-5844.0,0.0,12717.0,10251.0,-196.0,1254.0,-5.0,-8.0,-10.0,-7.0,-26.0,-3.0,6.0,8.0,1.220855712890625
293,-2899.0,1412.0,-6577.0,0.0,13080.0,9830.0,643.0,531.0,-5.0,-8.0,-10.0,-7.0,-26.0,-3.0,6.0,8.0,1.2228262424468994
294,-2899.0,1412.0,-6577.0,0.0,13080.0,9830.0,643.0,531.0,0.0,-3.0,2.0,6.0,17.0,18.0,4.0,4.0,1.246668815612793
295,-2899.0,1412.0,-6577.0,0.0,13080.0,9830.0,643.0,531.0,0.0,0.0,-2.0,-10.0,-11.0,-7.0,3.0,3.0,1.2504425048828125
296,-3603.0,1197.0,-6937.0,0.0,13437.0,9253.0,1473.0,-261.0,0.0,0.0,-2.0,-10.0,-11.0,-7.0,3.0,3.0,1.2527883052825928
297,-3603.0,1197.0,-6937.0,0.0,13437.0,9253.0,1473.0,-261.0,2.0,5.0,-1.0,-3.0,5.0,3.0,4.0,0.0,1.2547791004180908
298,-3603.0,1197.0,-6937.0,0.0,13437.0,9253.0,1473.0,-261.0,-6.0,-8.0,-1.0,-6.0,-12.0,-13.0,-6.0,-3.0,1.2679502964019775
299,-4129.0,1300.0,-6900.0,0.0,13759.0,8508.0,2363.0,-1071.0,-6.0,-8.0,-1.0,-6.0,-12.0,-13.0,-6.0,-3.0,1.26985764503479
300,-4129.0,1300.0,-6900.0,0.0,13759.0,8508.0,2363.0,-1071.0,-4.0,2.0,3.0,-16.0,-14.0,8.0,-10.0,-3.0,1.2719261646270752
301,-4129.0,1300.0,-6900.0,0.0,13759.0,8508.0,2363.0,-1071.0,1.0,-4.0,-4.0,-5.0,4.0,-3.0,2.0,3.0,1.280928134918213
302,-4541.0,1345.0,-6988.0,0.0,14005.0,7629.0,3252.0,-1869.0,1.0,-4.0,-4.0,-5.0,4.0,-3.0,2.0,3.0,1.2837064266204834
303,-4541.0,1345.0,-6988.0,0.0,14005.0,7629.0,3252.0,-1869.0,-2.0,-2.0,0.0,7.0,13.0,6.0,3.0,1.0,1.287977933883667
304,-4541.0,1345.0,-6988.0,0.0,14005.0,7629.0,3252.0,-1869.0,3.0,4.0,2.0,-4.0,-2.0,1.0,-4.0,-1.0,1.3037381172180176
305,-4634.0,1350.0,-6897.0,0.0,14142.0,6676.0,4110.0,-2635.0,3.0,4.0,2.0,-4.0,-2.0,1.0,-4.0,-1.0,1.3055598735809326
306,-4634.0,1350.0,-6897.0,0.0,14142.0,6676.0,4110.0,-2635.0,2.0,5.0,1.0,2.0,7.0,-2.0,-1.0,-2.0,1.3108558654785156
307,-4634.0,1350.0,-6897.0,0.0,14142.0,6676.0,4110.0,-2635.0,0.0,1.0,1.0,8.0,10.0,2.0,2.0,-1.0,1.326636552810669
308,-4665.0,1447.0,-6578.0,0.0,14172.0,5681.0,4927.0,-3322.0,0.0,1.0,1.0,8.0,10.0,2.0,2.0,-1.0,1.3299882411956787
309,-4665.0,1447.0,-6578.0,0.0,14172.0,5681.0,4927.0,-3322.0,0.0,-3.0,-3.0,-1.0,0.0,-2.0,-1.0,0.0,1.3347442150115967
310,-4665.0,1447.0,-6578.0,0.0,14172.0,5681.0,4927.0,-3322.0,2.0,2.0,-1.0,-12.0,-5.0,3.0,4.0,4.0,1.3498709201812744
311,-5067.0,1442.0,-6394.0,0.0,14119.0,4587.0,5706.0,-3933.0,2.0,2.0,-1.0,-12.0,-5.0,3.0,4.0,4.0,1.3537623882293701
312,-5067.0,1442.0,-6394.0,0.0,14119.0,4587.0,5706.0,-3933.0,-1.0,-4.0,-5.0,-2.0,-19.0,-2.0,-4.0,-6.0,1.3566632270812988
313,-5067.0,1442.0,-6394.0,0.0,14119.0,4587.0,5706.0,-3933.0,-1.0,2.0,-1.0,-14.0,-5.0,1.0,3.0,1.0,1.3635902404785156
314,-5577.0,1478.0,-6036.0,0.0,13989.0,3402.0,6448.0,-4423.0,-1.0,2.0,-1.0,-14.0,-5.0,1.0,3.0,1.0,1.3666269779205322
315,-5577.0,1478.0,-6036.0,0.0,13989.0,3402.0,6448.0,-4423.0,-3.0,1.0,0.0,-3.0,3.0,12.0,-2.0,4.0,1.3703570365905762
316,-5577.0,1478.0,-6036.0,0.0,13989.0,3402.0,6448.0,-4423.0,-4.0,-2.0,3.0,8.0,-12.0,-11.0,-15.0,-22.0,1.3880319595336914
317,-6346.0,1584.0,-5557.0,0.0,13785.0,2110.0,7171.0,-4745.0,-4.0,-2.0,3.0,8.0,-12.0,-11.0,-15.0,-22.0,1.3911962509155273
318,-6346.0,1584.0,-5557.0,0.0,13785.0,2110.0,7171.0,-4745.0,-3.0,-1.0,-6.0,-4.0,29.0,14.0,6.0,-2.0,1.3932173252105713
319,-6346.0,1584.0,-5557.0,0.0,13785.0,2110.0,7171.0,-4745.0,2.0,-3.0,-4.0,2.0,-7.0,-8.0,-4.0,2.0,1.4017713069915771
320,-6785.0,1791.0,-5193.0,0.0,13465.0,757.0,7884.0,-4939.0,2.0,-3.0,-4.0,2.0,-7.0,-8.0,-4.0,2.0,1.403630256652832
321,-6785.0,1791.0,-5193.0,0.0,13465.0,757.0,7884.0,-4939.0,-1.0,1.0,2.0,1.0,17.0,7.0,7.0,6.0,1.4080924987792969
322,-6785.0,1791.0,-5193.0,0.0,13465.0,757.0,7884.0,-4939.0,7.0,0.0,-5.0,-21.0,-31.0,-1.0,3.0,31.0,1.4236865043640137
323,-4992.0,2116.0,-4561.0,0.0,13020.0,-286.0,8496.0,-5160.0,7.0,0.0,-5.0,-21.0,-31.0,-1.0,3.0,31.0,1.425492763519287
324,-4992.0,2116.0,-4561.0,0.0,13020.0,-286.0,8496.0,-5160.0,7.0,0.0,-5.0,-21.0,-31.0,-1.0,3.0,31.0,1.4306254386901855
325,-4992.0,2116.0,-4561.0,0.0,13020.0,-286.0,8496.0,-5160.0,-4.0,-4.0,-5.0,-7.0,-22.0,-15.0,-39.0,-5.0,1.4492511749267578
326,-4992.0,2116.0,-4561.0,0.0,13020.0,-286.0,8496.0,-5160.0,7.0,6.0,5.0,44.0,63.0,31.0,47.0,53.0,1.451784610748291
327,-3083.0,2326.0,-4173.0,0.0,12500.0,-1014.0,9012.0,-5470.0,7.0,6.0,5.0,44.0,63.0,31.0,47.0,53.0,1.4535844326019287
328,-3083.0,2326.0,-4173.0,0.0,12500.0,-1014.0,9012.0,-5470.0,2.0,5.0,-1.0,-11.0,-38.0,-31.0,-51.0,-34.0,1.455461025238037
329,-3083.0,2326.0,-4173.0,0.0,12500.0,-1014.0,9012.0,-5470.0,0.0,6.0,0.0,-3.0,16.0,-18.0,9.0,-19.0,1.4609098434448242
330,-2201.0,2246.0,-4139.0,0.0,11988.0,-1585.0,9389.0,-5834.0,0.0,6.0,0.0,-3.0,16.0,-18.0,9.0,-19.0,1.4627385139465332
331,-2201.0,2246.0,-4139.0,0.0,11988.0,-1585.0,9389.0,-5834.0,-6.0,-10.0,2.0,32.0,91.0,52.0,12.0,3.0,1.4681086540222168
332,-2201.0,2246.0,-4139.0,0.0,11988.0,-1585.0,9389.0,-5834.0,-3.0,-3.0,0.0,17.0,-2.0,-1.0,5.0,-21.0,1.4846117496490479
333,-1219.0,2010.0,-3998.0,0.0,11492.0,-2023.0,9648.0,-6259.0,-3.0,-3.0,0.0,17.0,-2.0,-1.0,5.0,-21.0,1.4864249229431152
334,-1219.0,2010.0,-3998.0,0.0,11492.0,-2023.0,9648.0,-6259.0,-1.0,-2.0,6.0,37.0,87.0,60.0,72.0,39.0,1.490753412246704
335,-1219.0,2010.0,-3998.0,0.0,11492.0,-2023.0,9648.0,-6259.0,-6.0,-4.0,-7.0,-12.0,2.0,-46.0,-28.0,-4.0,1.5078518390655518
336,-1467.0,1501.0,-3477.0,0.0,11054.0,-2468.0,9850.0,-6567.0,-6.0,-4.0,-7.0,-12.0,2.0,-46.0,-28.0,-4.0,1.5112175941467285
337,-1467.0,1501.0,-3477.0,0.0,11054.0,-2468.0,9850.0,-6567.0,3.0,7.0,10.0,11.0,33.0,25.0,22.0,6.0,1.5148186683654785
338,-1467.0,1501.0,-3477.0,0.0,11054.0,-2468.0,9850.0,-6567.0,0.0,5.0,14.0,21.0,25.0,-2.0,-2.0,-5.0,1.521003007888794
339,-1893.0,1571.0,-2659.0,0.0,10635.0,-2867.0,10096.0,-6721.0,0.0,5.0,14.0,21.0,25.0,-2.0,-2.0,-5.0,1.5227830410003662
340,-1893.0,1571.0,-2659.0,0.0,10635.0,-2867.0,10096.0,-6721.0,0.0,0.0,-12.0,-16.0,-65.0,-55.0,-19.0,-24.0,1.52825927734375
341,-1893.0,1571.0,-2659.0,0.0,10635.0,-2867.0,10096.0,-6721.0,4.0,8.0,13.0,5.0,55.0,57.0,62.0,18.0,1.545095682144165
342,-1353.0,1873.0,-976.0,0.0,10311.0,-2993.0,10378.0,-6741.0,4.0,8.0,13.0,5.0,55.0,57.0,62.0,18.0,1.5490221977233887
343,-1353.0,1873.0,-976.0,0.0,10311.0,-2993.0,10378.0,-6741.0,-3.0,2.0,2.0,-18.0,-11.0,-22.0,23.0,-7.0,1.567568063735962
344,-1353.0,1873.0,-976.0,0.0,10311.0,-2993.0,10378.0,-6741.0,3.0,2.0,6.0,11.0,37.0,3.0,29.0,27.0,1.5725440979003906
345,-517.0,1136.0,244.0,0.0,10183.0,-2939.0,10551.0,-6692.0,3.0,2.0,6.0,11.0,37.0,3.0,29.0,27.0,1.5766808986663818
346,-517.0,1136.0,244.0,0.0,10183.0,-2939.0,10551.0,-6692.0,0.0,-3.0,-9.0,-26.0,-30.0,-11.0,-10.0,1.0,1.5800120830535889
347,-517.0,1136.0,244.0,0.0,10183.0,-2939.0,10551.0,-6692.0,0.0,2.0,2.0,-1.0,-62.0,-44.0,6.0,16.0,1.5833301544189453
348,1418.0,-225.0,706.0,0.0,10304.0,-2716.0,10443.0,-6768.0,0.0,2.0,2.0,-1.0,-62.0,-44.0,6.0,16.0,1.5853021144866943
349,1418.0,-225.0,706.0,0.0,10304.0,-2716.0,10443.0,-6768.0,-11.0,-4.0,0.0,-3.0,-15.0,-33.0,-65.0,-36.0,1.58740234375
350,1418.0,-225.0,706.0,0.0,10304.0,-2716.0,10443.0,-6768.0,2.0,-2.0,-7.0,-7.0,-17.0,17.0,8.0,-5.0,1.6040329933166504
351,2332.0,-687.0,1539.0,0.0,10560.0,-2328.0,10234.0,-6837.0,2.0,-2.0,-7.0,-7.0,-17.0,17.0,8.0,-5.0,1.605828046798706
352,2332.0,-687.0,1539.0,0.0,10560.0,-2328.0,10234.0,-6837.0,-7.0,-7.0,1.0,7.0,17.0,-13.0,-46.0,-15.0,1.6100273132324219
353,2332.0,-687.0,1539.0,0.0,10560.0,-2328.0,10234.0,-6837.0,-8.0,-8.0,-10.0,-15.0,-22.0,-3.0,-50.0,-20.0,1.6255264282226562
354,2536.0,-470.0,3008.0,0.0,10864.0,-1763.0,10077.0,-6763.0,-8.0,-8.0,-10.0,-15.0,-22.0,-3.0,-50.0,-20.0,1.634523868560791
355,2536.0,-470.0,3008.0,0.0,10864.0,-1763.0,10077.0,-6763.0,10.0,7.0,10.0,9.0,3.0,37.0,44.0,34.0,1.6416738033294678
356,2536.0,-470.0,3008.0,0.0,10864.0,-1763.0,10077.0,-6763.0,0.0,-17.0,-25.0,-53.0,-70.0,-52.0,-62.0,-42.0,1.643489122390747
357,2335.0,-553.0,4546.0,0.0,11264.0,-1047.0,9934.0,-6463.0,0.0,-17.0,-25.0,-53.0,-70.0,-52.0,-62.0,-42.0,1.6453309059143066
358,2335.0,-553.0,4546.0,0.0,11264.0,-1047.0,9934.0,-6463.0,-1.0,-4.0,-1.0,5.0,1.0,-2.0,14.0,3.0,1.6479096412658691
359,2335.0,-553.0,4546.0,0.0,11264.0,-1047.0,9934.0,-6463.0,3.0,4.0,-1.0,3.0,18.0,23.0,15.0,4.0,1.6647980213165283
360,2020.0,-1228.0,5618.0,0.0,11769.0,-301.0,9702.0,-5974.0,3.0,4.0,-1.0,3.0,18.0,23.0,15.0,4.0,1.6677343845367432
361,2020.0,-1228.0,5618.0,0.0,11769.0,-301.0,9702.0,-5974.0,2.0,1.0,-5.0,-11.0,-30.0,-9.0,-12.0,-5.0,1.6784231662750244
362,2020.0,-1228.0,5618.0,0.0,11769.0,-301.0,9702.0,-5974.0,-9.0,-18.0,6.0,15.0,25.0,10.0,-5.0,-1.0,1.68745756149292
363,2168.0,-1811.0,6392.0,0.0,12334.0,511.0,9336.0,-5373.0,-9.0,-18.0,6.0,15.0,25.0,10.0,-5.0,-1.0,1.6892786026000977
364,2168.0,-1811.0,6392.0,0.0,12334.0,511.0,9336.0,-5373.0,-1.0,-1.0,-6.0,12.0,-9.0,4.0,8.0,5.0,1.7028112411499023
365,2168.0,-1811.0,6392.0,0.0,12334.0,511.0,9336.0,-5373.0,-11.0,-10.0,-10.0,-5.0,-13.0,-1.0,-13.0,-23.0,1.7046990394592285
366,2678.0,-2011.0,6907.0,0.0,12875.0,1432.0,8848.0,-4724.0,-11.0,-10.0,-10.0,-5.0,-13.0,-1.0,-13.0,-23.0,1.7085254192352295
367,2678.0,-2011.0,6907.0,0.0,12875.0,1432.0,8848.0,-4724.0,-1.0,-5.0,-7.0,-6.0,32.0,7.0,13.0,10.0,1.7108972072601318
368,2678.0,-2011.0,6907.0,0.0,12875.0,1432.0,8848.0,-4724.0,6.0,13.0,16.0,40.0,21.0,-6.0,1.0,8.0,1.7319276332855225
369,2719.0,-1994.0,6968.0,0.0,13334.0,2357.0,8294.0,-4036.0,6.0,13.0,16.0,40.0,21.0,-6.0,1.0,8.0,1.7349281311035156
370,2719.0,-1994.0,6968.0,0.0,13334.0,2357.0,8294.0,-4036.0,6.0,13.0,16.0,40.0,21.0,-6.0,1.0,8.0,1.736853837966919
371,2719.0,-1994.0,6968.0,0.0,13334.0,2357.0,8294.0,-4036.0,11.0,29.0,-3.0,-49.0,-88.0,-18.0,-10.0,-14.0,1.7474327087402344
372,2719.0,-1994.0,6968.0,0.0,13334.0,2357.0,8294.0,-4036.0,-7.0,-12.0,-6.0,7.0,17.0,18.0,-1.0,0.0,1.7496123313903809
373,3053.0,-1839.0,6748.0,0.0,13683.0,3311.0,7674.0,-3369.0,-7.0,-12.0,-6.0,7.0,17.0,18.0,-1.0,0.0,1.7516570091247559
374,3053.0,-1839.0,6748.0,0.0,13683.0,3311.0,7674.0,-3369.0,-10.0,-19.0,-6.0,-32.0,-57.0,-21.0,-39.0,-12.0,1.753688097000122
375,3053.0,-1839.0,6748.0,0.0,13683.0,3311.0,7674.0,-3369.0,0.0,5.0,-7.0,-17.0,-21.0,16.0,-4.0,-3.0,1.7603890895843506
376,3751.0,-1442.0,6861.0,0.0,13868.0,4376.0,7047.0,-2701.0,0.0,5.0,-7.0,-17.0,-21.0,16.0,-4.0,-3.0,1.7688944339752197
377,3751.0,-1442.0,6861.0,0.0,13868.0,4376.0,7047.0,-2701.0,19.0,52.0,5.0,-13.0,42.0,36.0,3.0,16.0,1.7707798480987549
378,3751.0,-1442.0,6861.0,0.0,13868.0,4376.0,7047.0,-2701.0,-1.0,6.0,6.0,-10.0,-30.0,-19.0,-24.0,-19.0,1.7927165031433105
379,3828.0,-884.0,7432.0,0.0,13913.0,5477.0,6419.0,-1905.0,-1.0,6.0,6.0,-10.0,-30.0,-19.0,-24.0,-19.0,1.796374797821045
380,3828.0,-884.0,7432.0,0.0,13913.0,5477.0,6419.0,-1905.0,3.0,-23.0,-11.0,48.0,83.0,24.0,42.0,35.0,1.80130934715271
381,3828.0,-884.0,7432.0,0.0,13913.0,5477.0,6419.0,-1905.0,14.0,24.0,6.0,-9.0,-2.0,-12.0,-54.0,-71.0,1.8068444728851318
382,3720.0,-1045.0,7374.0,0.0,13860.0,6510.0,5719.0,-1104.0,14.0,24.0,6.0,-9.0,-2.0,-12.0,-54.0,-71.0,1.8086328506469727
383,3720.0,-1045.0,7374.0,0.0,13860.0,6510.0,5719.0,-1104.0,6.0,-57.0,-1.0,2.0,-8.0,-15.0,35.0,18.0,1.8128275871276855
384,3720.0,-1045.0,7374.0,0.0,13860.0,6510.0,5719.0,-1104.0,4.0,18.0,25.0,10.0,41.0,48.0,29.0,20.0,1.820577621459961
385,4107.0,-1511.0,6895.0,0.0,13692.0,7513.0,4932.0,-423.0,4.0,18.0,25.0,10.0,41.0,48.0,29.0,20.0,1.8289191722869873
386,4107.0,-1511.0,6895.0,0.0,13692.0,7513.0,4932.0,-423.0,27.0,72.0,41.0,-2.0,0.0,67.0,62.0,54.0,1.8325512409210205
387,4107.0,-1511.0,6895.0,0.0,13692.0,7513.0,4932.0,-423.0,-26.0,-43.0,-17.0,-57.0,-81.0,-30.0,-58.0,-65.0,1.8438019752502441
388,3921.0,-1771.0,6506.0,0.0,13449.0,8431.0,4049.0,231.0,-26.0,-43.0,-17.0,-57.0,-81.0,-30.0,-58.0,-65.0,1.8461594581604004
389,3921.0,-1771.0,6506.0,0.0,13449.0,8431.0,4049.0,231.0,-4.0,26.0,38.0,34.0,68.0,19.0,15.0,3.0,1.850318431854248
390,3921.0,-1771.0,6506.0,0.0,13449.0,8431.0,4049.0,231.0,36.0,48.0,6.0,18.0,-10.0,1.0,-2.0,-11.0,1.8682069778442383
391,3681.0,-1487.0,6086.0,0.0,13120.0,9214.0,3270.0,822.0,36.0,48.0,6.0,18.0,-10.0,1.0,-2.0,-11.0,1.8713982105255127
392,3681.0,-1487.0,6086.0,0.0,13120.0,9214.0,3270.0,822.0,42.0,66.0,-36.0,-23.0,-69.0,12.0,-18.0,6.0,1.8745529651641846
393,3681.0,-1487.0,6086.0,0.0,13120.0,9214.0,3270.0,822.0,-46.0,-103.0,-63.0,13.0,56.0,-13.0,-5.0,17.0,1.8814876079559326
394,3806.0,-1094.0,6314.0,0.0,12678.0,9961.0,2505.0,1475.0,-46.0,-103.0,-63.0,13.0,56.0,-13.0,-5.0,17.0,1.888334035873413
395,3806.0,-1094.0,6314.0,0.0,12678.0,9961.0,2505.0,1475.0,-6.0,-73.0,-30.0,29.0,-34.0,-68.0,-62.0,-24.0,1.8902151584625244
396,3806.0,-1094.0,6314.0,0.0,12678.0,9961.0,2505.0,1475.0,16.0,-57.0,-76.0,-11.0,0.0,66.0,63.0,59.0,1.9042778015136719
397,3665.0,-1041.0,5968.0,0.0,12176.0,10617.0,1766.0,2081.0,16.0,-57.0,-76.0,-11.0,0.0,66.0,63.0,59.0,1.9074790477752686
398,3665.0,-1041.0,5968.0,0.0,12176.0,10617.0,1766.0,2081.0,1.0,24.0,66.0,9.0,94.0,58.0,18.0,8.0,1.9120478630065918
399,3665.0,-1041.0,5968.0,0.0,12176.0,10617.0,1766.0,2081.0,-64.0,-71.0,13.0,3.0,-26.0,-83.0,-55.0,-76.0,1.926988124847412
400,2366.0,-1902.0,4957.0,0.0,11802.0,11047.0,991.0,2468.0,-64.0,-71.0,13.0,3.0,-26.0,-83.0,-55.0,-76.0,1.93043851852417
401,2366.0,-1902.0,4957.0,0.0,11802.0,11047.0,991.0,2468.0,-24.0,-33.0,-14.0,20.0,-33.0,-110.0,-36.0,-40.0,1.9339511394500732
402,2366.0,-1902.0,4957.0,0.0,11802.0,11047.0,991.0,2468.0,44.0,66.0,-26.0,-4.0,56.0,-5.0,42.0,59.0,1.942244529724121
403,431.0,-1276.0,4797.0,0.0,11618.0,11173.0,260.0,2923.0,44.0,66.0,-26.0,-4.0,56.0,-5.0,42.0,59.0,1.949573278427124
404,431.0,-1276.0,4797.0,0.0,11618.0,11173.0,260.0,2923.0,-28.0,22.0,-22.0,-24.0,-14.0,8.0,-33.0,-35.0,1.95151686668396
405,431.0,-1276.0,4797.0,0.0,11618.0,11173.0,260.0,2923.0,21.0,43.0,41.0,29.0,32.0,17.0,37.0,47.0,1.9645280838012695
406,1920.0,392.0,6221.0,0.0,11201.0,11348.0,-369.0,3744.0,21.0,43.0,41.0,29.0,32.0,17.0,37.0,47.0,1.9666471481323242
407,1920.0,392.0,6221.0,0.0,11201.0,11348.0,-369.0,3744.0,-35.0,-39.0,-16.0,7.0,-8.0,-60.0,-94.0,-96.0,1.9712491035461426
408,1920.0,392.0,6221.0,0.0,11201.0,11348.0,-369.0,3744.0,-21.0,-55.0,10.0,2.0,32.0,24.0,23.0,1.0,1.986541509628296
409,3066.0,147.0,4368.0,0.0,10668.0,11643.0,-746.0,4300.0,-21.0,-55.0,10.0,2.0,32.0,24.0,23.0,1.0,1.9883577823638916
410,3066.0,147.0,4368.0,0.0,10668.0,11643.0,-746.0,4300.0,-16.0,-39.0,17.0,44.0,87.0,10.0,32.0,27.0,1.9902305603027344
411,3066.0,147.0,4368.0,0.0,10668.0,11643.0,-746.0,4300.0,-7.0,-29.0,6.0,-22.0,-52.0,-4.0,-14.0,-7.0,2.0010595321655273
412,856.0,-570.0,803.0,0.0,10516.0,11761.0,-875.0,4328.0,-7.0,-29.0,6.0,-22.0,-52.0,-4.0,-14.0,-7.0,2.008410930633545
413,856.0,-570.0,803.0,0.0,10516.0,11761.0,-875.0,4328.0,-23.0,-97.0,-9.0,-22.0,-10.0,-4.0,11.0,8.0,2.0102763175964355
414,856.0,-570.0,803.0,0.0,10516.0,11761.0,-875.0,4328.0,35.0,72.0,-24.0,-4.0,-5.0,15.0,7.0,34.0,2.0234920978546143
415,-2105.0,-347.0,2534.0,0.0,10662.0,11511.0,-1316.0,4529.0,35.0,72.0,-24.0,-4.0,-5.0,15.0,7.0,34.0,2.025264024734497
416,-2105.0,-347.0,2534.0,0.0,10662.0,11511.0,-1316.0,4529.0,-3.0,-26.0,-60.0,-36.0,-46.0,8.0,2.0,7.0,2.032137870788574
417,-2105.0,-347.0,2534.0,0.0,10662.0,11511.0,-1316.0,4529.0,1.0,12.0,28.0,28.0,55.0,12.0,30.0,37.0,2.04815673828125
418,-2014.0,-364.0,2046.0,0.0,10804.0,11254.0,-1719.0,4697.0,1.0,12.0,28.0,28.0,55.0,12.0,30.0,37.0,2.0512208938598633
419,-2014.0,-364.0,2046.0,0.0,10804.0,11254.0,-1719.0,4697.0,-12.0,-11.0,-2.0,16.0,57.0,15.0,-1.0,-30.0,2.05314564704895
420,-2014.0,-364.0,2046.0,0.0,10804.0,11254.0,-1719.0,4697.0,1.0,-8.0,46.0,43.0,-8.0,-29.0,-24.0,-34.0,2.060638666152954
421,613.0,292.0,964.0,0.0,10695.0,11261.0,-1800.0,4898.0,1.0,-8.0,46.0,43.0,-8.0,-29.0,-24.0,-34.0,2.069103479385376
422,613.0,292.0,964.0,0.0,10695.0,11261.0,-1800.0,4898.0,35.0,49.0,-16.0,-45.0,-49.0,21.0,-1.0,17.0,2.075476884841919
423,613.0,292.0,964.0,0.0,10695.0,11261.0,-1800.0,4898.0,-19.0,-36.0,32.0,13.0,42.0,34.0,31.0,22.0,2.0842318534851074
424,1808.0,570.0,71.0,0.0,10479.0,11441.0,-1638.0,5002.0,-19.0,-36.0,32.0,13.0,42.0,34.0,31.0,22.0,2.0876452922821045
425,1808.0,570.0,71.0,0.0,10479.0,11441.0,-1638.0,5002.0,-6.0,-11.0,14.0,-25.0,-77.0,-42.0,-8.0,-5.0,2.091156482696533
426,1808.0,570.0,71.0,0.0,10479.0,11441.0,-1638.0,5002.0,22.0,72.0,-29.0,-39.0,25.0,44.0,19.0,2.0,2.1067252159118652
427,-23.0,296.0,177.0,0.0,10483.0,11452.0,-1567.0,4992.0,22.0,72.0,-29.0,-39.0,25.0,44.0,19.0,2.0,2.1084980964660645
428,-23.0,296.0,177.0,0.0,10483.0,11452.0,-1567.0,4992.0,-10.0,-1.0,-3.0,-24.0,-15.0,-9.0,0.0,-7.0,2.110604763031006
429,-23.0,296.0,177.0,0.0,10483.0,11452.0,-1567.0,4992.0,-24.0,-17.0,-20.0,-40.0,-23.0,-34.0,-55.0,-30.0,2.130156993865967
430,-1370.0,-46.0,296.0,0.0,10619.0,11308.0,-1689.0,4991.0,-24.0,-17.0,-20.0,-40.0,-23.0,-34.0,-55.0,-30.0,2.13386869430542
431,-1370.0,-46.0,296.0,0.0,10619.0,11308.0,-1689.0,4991.0,11.0,13.0,0.0,20.0,0.0,-9.0,1.0,2.0,2.135918140411377
432,-1370.0,-46.0,296.0,0.0,10619.0,11308.0,-1689.0,4991.0,34.0,70.0,23.0,-10.0,-1.0,9.0,12.0,33.0,2.1438353061676025
433,-799.0,-52.0,-244.0,0.0,10712.0,11220.0,-1746.0,4973.0,34.0,70.0,23.0,-10.0,-1.0,9.0,12.0,33.0,2.1456692218780518
434,-799.0,-52.0,-244.0,0.0,10712.0,11220.0,-1746.0,4973.0,-14.0,-48.0,5.0,18.0,-17.0,-9.0,0.0,3.0,2.1505978107452393
435,-799.0,-52.0,-244.0,0.0,10712.0,11220.0,-1746.0,4973.0,-8.0,-26.0,4.0,34.0,21.0,-6.0,-11.0,-30.0,2.1744613647460938
436,20.0,34.0,-482.0,0.0,10702.0,11256.0,-1706.0,4927.0,-8.0,-26.0,4.0,34.0,21.0,-6.0,-11.0,-30.0,2.177790880203247
437,20.0,34.0,-482.0,0.0,10702.0,11256.0,-1706.0,4927.0,-4.0,3.0,-7.0,-14.0,-6.0,-17.0,-6.0,-3.0,2.1811254024505615
438,20.0,34.0,-482.0,0.0,10702.0,11256.0,-1706.0,4927.0,24.0,19.0,12.0,37.0,69.0,65.0,66.0,46.0,2.19024658203125
439,-76.0,-33.0,-203.0,0.0,10701.0,11269.0,-1703.0,4900.0,24.0,19.0,12.0,37.0,69.0,65.0,66.0,46.0,2.192640781402588
440,-76.0,-33.0,-203.0,0.0,10701.0,11269.0,-1703.0,4900.0,-15.0,-27.0,-7.0,-14.0,13.0,19.0,20.0,-19.0,2.1945137977600098
441,-76.0,-33.0,-203.0,0.0,10701.0,11269.0,-1703.0,4900.0,10.0,41.0,-9.0,8.0,-50.0,-45.0,-60.0,-19.0,2.2127251625061035
442,-363.0,-148.0,-79.0,0.0,10746.0,11223.0,-1750.0,4889.0,10.0,41.0,-9.0,8.0,-50.0,-45.0,-60.0,-19.0,2.216439962387085
443,-363.0,-148.0,-79.0,0.0,10746.0,11223.0,-1750.0,4889.0,26.0,50.0,-23.0,21.0,65.0,55.0,36.0,35.0,2.220229148864746
444,-363.0,-148.0,-79.0,0.0,10746.0,11223.0,-1750.0,4889.0,-27.0,-57.0,21.0,3.0,14.0,35.0,41.0,6.0,2.227426528930664
445,-83.0,-174.0,-244.0,0.0,10742.0,11226.0,-1792.0,4877.0,-27.0,-57.0,21.0,3.0,14.0,35.0,41.0,6.0,2.2294020652770996
446,-83.0,-174.0,-244.0,0.0,10742.0,11226.0,-1792.0,4877.0,8.0,-36.0,37.0,35.0,1.0,-35.0,-41.0,-24.0,2.2321507930755615
447,-83.0,-174.0,-244.0,0.0,10742.0,11226.0,-1792.0,4877.0,-11.0,-42.0,-3.0,-15.0,-36.0,-41.0,-7.0,-7.0,2.2497754096984863
448,173.0,-78.0,-154.0,0.0,10705.0,11267.0,-1796.0,4864.0,-11.0,-42.0,-3.0,-15.0,-36.0,-41.0,-7.0,-7.0,2.2516980171203613
449,173.0,-78.0,-154.0,0.0,10705.0,11267.0,-1796.0,4864.0,0.0,-2.0,-4.0,-18.0,-27.0,12.0,-19.0,16.0,2.2535579204559326
450,173.0,-78.0,-154.0,0.0,10705.0,11267.0,-1796.0,4864.0,-20.0,-24.0,0.0,-27.0,-30.0,-11.0,-5.0,-7.0,2.2635574340820312
451,231.0,-27.0,141.0,0.0,10663.0,11292.0,-1814.0,4890.0,-20.0,-24.0,0.0,-27.0,-30.0,-11.0,-5.0,-7.0,2.266845703125
452,231.0,-27.0,141.0,0.0,10663.0,11292.0,-1814.0,4890.0,9.0,37.0,38.0,54.0,62.0,-36.0,-34.0,-28.0,2.270199775695801
453,231.0,-27.0,141.0,0.0,10663.0,11292.0,-1814.0,4890.0,-1.0,-6.0,-45.0,-36.0,-119.0,-81.0,-18.0,-2.0,2.2868049144744873
454,301.0,3.0,27.0,0.0,10632.0,11316.0,-1802.0,4907.0,-1.0,-6.0,-45.0,-36.0,-119.0,-81.0,-18.0,-2.0,2.28863525390625
455,301.0,3.0,27.0,0.0,10632.0,11316.0,-1802.0,4907.0,-3.0,17.0,36.0,-1.0,-9.0,8.0,1.0,-7.0,2.290506601333618
456,301.0,3.0,27.0,0.0,10632.0,11316.0,-1802.0,4907.0,-17.0,-38.0,-19.0,-11.0,10.0,9.0,-15.0,-19.0,2.309865951538086
457,151.0,-100.0,-201.0,0.0,10611.0,11342.0,-1801.0,4890.0,-17.0,-38.0,-19.0,-11.0,10.0,9.0,-15.0,-19.0,2.312002420425415
458,151.0,-100.0,-201.0,0.0,10611.0,11342.0,-1801.0,4890.0,-11.0,2.0,-37.0,-16.0,-57.0,-12.0,-6.0,-12.0,2.3139209747314453
459,151.0,-100.0,-201.0,0.0,10611.0,11342.0,-1801.0,4890.0,3.0,1.0,12.0,27.0,56.0,54.0,61.0,40.0,2.3233845233917236
460,50.0,-34.0,-49.0,0.0,10592.0,11358.0,-1814.0,4892.0,3.0,1.0,12.0,27.0,56.0,54.0,61.0,40.0,2.325169086456299
461,50.0,-34.0,-49.0,0.0,10592.0,11358.0,-1814.0,4892.0,6.0,16.0,-6.0,-14.0,21.0,24.0,20.0,21.0,2.3304293155670166
462,50.0,-34.0,-49.0,0.0,10592.0,11358.0,-1814.0,4892.0,4.0,-8.0,-17.0,15.0,34.0,-25.0,-17.0,4.0,2.3470468521118164
463,211.0,18.0,75.0,0.0,10559.0,11378.0,-1817.0,4915.0,4.0,-8.0,-17.0,15.0,34.0,-25.0,-17.0,4.0,2.3510937690734863
464,211.0,18.0,75.0,0.0,10559.0,11378.0,-1817.0,4915.0,70.0,83.0,4.0,-32.0,-15.0,-11.0,-37.0,56.0,2.3541862964630127
465,211.0,18.0,75.0,0.0,10559.0,11378.0,-1817.0,4915.0,-1.0,4.0,13.0,-14.0,-15.0,9.0,-4.0,-3.0,2.3709349632263184
466,272.0,-12.0,-71.0,0.0,10531.0,11407.0,-1798.0,4915.0,-1.0,4.0,13.0,-14.0,-15.0,9.0,-4.0,-3.0,2.3742988109588623
467,272.0,-12.0,-71.0,0.0,10531.0,11407.0,-1798.0,4915.0,3.0,-14.0,-28.0,-27.0,-34.0,-38.0,-52.0,-34.0,2.3774445056915283
468,272.0,-12.0,-71.0,0.0,10531.0,11407.0,-1798.0,4915.0,1.0,21.0,-11.0,-21.0,-5.0,9.0,-17.0,-14.0,2.384279727935791
469,171.0,-60.0,-188.0,0.0,10507.0,11443.0,-1778.0,4889.0,1.0,21.0,-11.0,-21.0,-5.0,9.0,-17.0,-14.0,2.386085033416748
470,171.0,-60.0,-188.0,0.0,10507.0,11443.0,-1778.0,4889.0,-13.0,-36.0,7.0,20.0,79.0,93.0,115.0,63.0,2.390686273574829
471,171.0,-60.0,-188.0,0.0,10507.0,11443.0,-1778.0,4889.0,-17.0,-38.0,-15.0,-14.0,-4.0,-10.0,-25.0,-35.0,2.4069020748138428
472,-35.0,-28.0,-64.0,0.0,10502.0,11454.0,-1780.0,4875.0,-17.0,-38.0,-15.0,-14.0,-4.0,-10.0,-25.0,-35.0,2.4086976051330566
473,-35.0,-28.0,-64.0,0.0,10502.0,11454.0,-1780.0,4875.0,-9.0,-27.0,2.0,0.0,-69.0,-33.0,13.0,-11.0,2.410590648651123
474,-35.0,-28.0,-64.0,0.0,10502.0,11454.0,-1780.0,4875.0,15.0,48.0,13.0,4.0,17.0,-1.0,-4.0,12.0,2.430826187133789
475,57.0,1.0,1.0,0.0,10486.0,11460.0,-1792.0,4889.0,15.0,48.0,13.0,4.0,17.0,-1.0,-4.0,12.0,2.4361419677734375
476,57.0,1.0,1.0,0.0,10486.0,11460.0,-1792.0,4889.0,-13.0,-24.0,23.0,32.0,29.0,14.0,-11.0,-14.0,2.439659595489502
477,57.0,1.0,1.0,0.0,10486.0,11460.0,-1792.0,4889.0,-27.0,-15.0,-13.0,-27.0,-81.0,-95.0,-76.0,-99.0,2.443655252456665
478,298.0,13.0,-85.0,0.0,10450.0,11496.0,-1770.0,4892.0,-27.0,-15.0,-13.0,-27.0,-81.0,-95.0,-76.0,-99.0,2.4456188678741455
479,298.0,13.0,-85.0,0.0,10450.0,11496.0,-1770.0,4892.0,-1.0,-9.0,-8.0,-15.0,-10.0,-6.0,4.0,1.0,2.450819492340088
480,298.0,13.0,-85.0,0.0,10450.0,11496.0,-1770.0,4892.0,8.0,-10.0,23.0,27.0,79.0,45.0,73.0,46.0,2.4674482345581055
481,150.0,0.0,-130.0,0.0,10433.0,11522.0,-1745.0,4875.0,8.0,-10.0,23.0,27.0,79.0,45.0,73.0,46.0,2.470879554748535
482,150.0,0.0,-130.0,0.0,10433.0,11522.0,-1745.0,4875.0,-20.0,-12.0,8.0,14.0,12.0,-11.0,-4.0,-21.0,2.4743871688842773
483,150.0,0.0,-130.0,0.0,10433.0,11522.0,-1745.0,4875.0,8.0,27.0,5.0,1.0,-61.0,-76.0,-32.0,-14.0,2.490312337875366
484,-209.0,-9.0,-74.0,0.0,10458.0,11501.0,-1754.0,4866.0,8.0,27.0,5.0,1.0,-61.0,-76.0,-32.0,-14.0,2.4935128688812256
485,-209.0,-9.0,-74.0,0.0,10458.0,11501.0,-1754.0,4866.0,-40.0,-64.0,10.0,-3.0,30.0,-1.0,-2.0,-15.0,2.4979248046875
486,-209.0,-9.0,-74.0,0.0,10458.0,11501.0,-1754.0,4866.0,-7.0,-24.0,0.0,33.0,82.0,56.0,6.0,4.0,2.5041441917419434
487,-119.0,20.0,-30.0,0.0,10463.0,11489.0,-1773.0,4878.0,-7.0,-24.0,0.0,33.0,82.0,56.0,6.0,4.0,2.5110416412353516
488,-119.0,20.0,-30.0,0.0,10463.0,11489.0,-1773.0,4878.0,-15.0,-26.0,-6.0,17.0,16.0,5.0,-2.0,-8.0,2.512944221496582
489,-119.0,20.0,-30.0,0.0,10463.0,11489.0,-1773.0,4878.0,2.0,9.0,0.0,-11.0,-36.0,-10.0,-20.0,2.0,2.5277841091156006
490,176.0,-1.0,-110.0,0.0,10443.0,11509.0,-1759.0,4879.0,2.0,9.0,0.0,-11.0,-36.0,-10.0,-20.0,2.0,2.5318408012390137
491,176.0,-1.0,-110.0,0.0,10443.0,11509.0,-1759.0,4879.0,5.0,10.0,7.0,-35.0,-4.0,29.0,29.0,11.0,2.5355937480926514
492,176.0,-1.0,-110.0,0.0,10443.0,11509.0,-1759.0,4879.0,12.0,42.0,20.0,-7.0,-18.0,-6.0,-29.0,-1.0,2.5500824451446533
493,96.0,65.0,-100.0,0.0,10443.0,11514.0,-1732.0,4878.0,12.0,42.0,20.0,-7.0,-18.0,-6.0,-29.0,-1.0,2.5525012016296387
494,96.0,65.0,-100.0,0.0,10443.0,11514.0,-1732.0,4878.0,-2.0,-13.0,-19.0,3.0,12.0,-2.0,9.0,6.0,2.554537296295166
495,96.0,65.0,-100.0,0.0,10443.0,11514.0,-1732.0,4878.0,4.0,-38.0,-8.0,7.0,12.0,20.0,15.0,15.0,2.5636041164398193
496,-212.0,87.0,-53.0,0.0,10473.0,11485.0,-1729.0,4882.0,4.0,-38.0,-8.0,7.0,12.0,20.0,15.0,15.0,2.566612958908081
497,-212.0,87.0,-53.0,0.0,10473.0,11485.0,-1729.0,4882.0,8.0,28.0,-7.0,-4.0,14.0,14.0,12.0,12.0,2.5706963539123535
498,-212.0,87.0,-53.0,0.0,10473.0,11485.0,-1729.0,4882.0,-3.0,-20.0,-10.0,1.0,-4.0,2.0,-5.0,-7.0,2.5879430770874023
499,-195.0,54.0,-55.0,0.0,10492.0,11461.0,-1743.0,4893.0,-3.0,-20.0,-10.0,1.0,-4.0,2.0,-5.0,-7.0,2.590287208557129
