,Gyro 0,Gyro 1,Gyro 2,Label,Orientation 0,Orientation 1,Orientation 2,Orientation 3,Sensor 0,Sensor 1,Sensor 2,Sensor 3,Sensor 4,Sensor 5,Sensor 6,Sensor 7,Timestamp
0,489.0,278.0,-84.0,0.0,9001.0,11853.0,-4741.0,4943.0,5.0,4.0,-7.0,2.0,-1.0,1.0,-16.0,-1.0,2.384185791015625e-06
1,489.0,278.0,-84.0,0.0,9001.0,11853.0,-4741.0,4943.0,-4.0,-17.0,-17.0,1.0,-3.0,-1.0,6.0,-3.0,0.002231121063232422
2,489.0,278.0,-84.0,0.0,9001.0,11853.0,-4741.0,4943.0,5.0,22.0,15.0,-1.0,5.0,4.0,-9.0,5.0,0.004563570022583008
3,489.0,278.0,-84.0,0.0,9001.0,11853.0,-4741.0,4943.0,1.0,2.0,9.0,2.0,0.0,0.0,-15.0,1.0,0.009841680526733398
4,530.0,263.0,-107.0,0.0,8971.0,11892.0,-4657.0,4985.0,1.0,2.0,9.0,2.0,0.0,0.0,-15.0,1.0,0.011842012405395508
5,530.0,263.0,-107.0,0.0,8971.0,11892.0,-4657.0,4985.0,-6.0,-10.0,-9.0,-8.0,-4.0,-4.0,-11.0,1.0,0.013850212097167969
6,530.0,263.0,-107.0,0.0,8971.0,11892.0,-4657.0,4985.0,-4.0,5.0,-4.0,-4.0,0.0,-2.0,6.0,-1.0,0.015676498413085938
7,522.0,238.0,-136.0,0.0,8944.0,11932.0,-4568.0,5018.0,-4.0,5.0,-4.0,-4.0,0.0,-2.0,6.0,-1.0,0.017486095428466797
8,522.0,238.0,-136.0,0.0,8944.0,11932.0,-4568.0,5018.0,0.0,-1.0,14.0,2.0,-3.0,-4.0,-10.0,-2.0,0.020738840103149414
9,522.0,238.0,-136.0,0.0,8944.0,11932.0,-4568.0,5018.0,19.0,37.0,29.0,13.0,0.0,1.0,12.0,7.0,0.025037050247192383
10,474.0,202.0,-165.0,0.0,8925.0,11971.0,-4479.0,5039.0,19.0,37.0,29.0,13.0,0.0,1.0,12.0,7.0,0.028649568557739258
11,474.0,202.0,-165.0,0.0,8925.0,11971.0,-4479.0,5039.0,-5.0,-12.0,-5.0,-1.0,-1.0,-1.0,-12.0,-10.0,0.030699491500854492
12,474.0,202.0,-165.0,0.0,8925.0,11971.0,-4479.0,5039.0,-6.0,-14.0,-14.0,-6.0,-4.0,-9.0,10.0,-3.0,0.03253531455993652
13,405.0,174.0,-145.0,0.0,8911.0,12005.0,-4400.0,5053.0,-6.0,-14.0,-14.0,-6.0,-4.0,-9.0,10.0,-3.0,0.03438401222229004
14,405.0,174.0,-145.0,0.0,8911.0,12005.0,-4400.0,5053.0,4.0,9.0,-6.0,-1.0,-2.0,-7.0,-24.0,5.0,0.03625178337097168
15,405.0,174.0,-145.0,0.0,8911.0,12005.0,-4400.0,5053.0,-6.0,-17.0,-24.0,-6.0,0.0,3.0,18.0,1.0,0.03825855255126953
16,343.0,184.0,-126.0,0.0,8903.0,12030.0,-4327.0,5069.0,-6.0,-17.0,-24.0,-6.0,0.0,3.0,18.0,1.0,0.04012799263000488
17,343.0,184.0,-126.0,0.0,8903.0,12030.0,-4327.0,5069.0,-9.0,-21.0,-7.0,2.0,1.0,-4.0,-40.0,-4.0,0.04203987121582031
18,343.0,184.0,-126.0,0.0,8903.0,12030.0,-4327.0,5069.0,-4.0,-8.0,-14.0,-1.0,-1.0,5.0,26.0,1.0,0.04386186599731445
19,310.0,220.0,-110.0,0.0,8899.0,12052.0,-4254.0,5087.0,-4.0,-8.0,-14.0,-1.0,-1.0,5.0,26.0,1.0,0.045693397521972656
20,310.0,220.0,-110.0,0.0,8899.0,12052.0,-4254.0,5087.0,6.0,24.0,14.0,4.0,2.0,5.0,-23.0,2.0,0.04761362075805664
21,310.0,220.0,-110.0,0.0,8899.0,12052.0,-4254.0,5087.0,-7.0,-14.0,-6.0,-4.0,-3.0,-1.0,7.0,-4.0,0.04940152168273926
22,291.0,251.0,-46.0,0.0,8897.0,12065.0,-4187.0,5116.0,-7.0,-14.0,-6.0,-4.0,-3.0,-1.0,7.0,-4.0,0.05250072479248047
23,291.0,251.0,-46.0,0.0,8897.0,12065.0,-4187.0,5116.0,-2.0,-4.0,0.0,-1.0,-3.0,3.0,-1.0,-5.0,0.05571699142456055
24,291.0,251.0,-46.0,0.0,8897.0,12065.0,-4187.0,5116.0,-7.0,-9.0,8.0,3.0,0.0,-2.0,3.0,-3.0,0.05758357048034668
25,206.0,235.0,-33.0,0.0,8901.0,12066.0,-4135.0,5148.0,-7.0,-9.0,8.0,3.0,0.0,-2.0,3.0,-3.0,0.06081652641296387
26,206.0,235.0,-33.0,0.0,8901.0,12066.0,-4135.0,5148.0,-1.0,2.0,6.0,-1.0,2.0,5.0,-12.0,-1.0,0.06283020973205566
27,206.0,235.0,-33.0,0.0,8901.0,12066.0,-4135.0,5148.0,-5.0,-7.0,-8.0,-4.0,-1.0,-2.0,1.0,-5.0,0.0646824836730957
28,144.0,191.0,-89.0,0.0,8911.0,12065.0,-4087.0,5171.0,-5.0,-7.0,-8.0,-4.0,-1.0,-2.0,1.0,-5.0,0.06650733947753906
29,144.0,191.0,-89.0,0.0,8911.0,12065.0,-4087.0,5171.0,-1.0,-9.0,-1.0,-3.0,-2.0,-2.0,-13.0,3.0,0.06837821006774902
30,144.0,191.0,-89.0,0.0,8911.0,12065.0,-4087.0,5171.0,1.0,5.0,4.0,-2.0,2.0,-12.0,-3.0,-2.0,0.07018017768859863
31,148.0,165.0,-171.0,0.0,8924.0,12068.0,-4032.0,5185.0,1.0,5.0,4.0,-2.0,2.0,-12.0,-3.0,-2.0,0.0721888542175293
32,148.0,165.0,-171.0,0.0,8924.0,12068.0,-4032.0,5185.0,3.0,14.0,17.0,1.0,-3.0,-3.0,6.0,0.0,0.07409048080444336
33,148.0,165.0,-171.0,0.0,8924.0,12068.0,-4032.0,5185.0,7.0,20.0,23.0,0.0,0.0,5.0,3.0,4.0,0.07593512535095215
34,165.0,156.0,-235.0,0.0,8941.0,12077.0,-3964.0,5188.0,7.0,20.0,23.0,0.0,0.0,5.0,3.0,4.0,0.07794404029846191
35,165.0,156.0,-235.0,0.0,8941.0,12077.0,-3964.0,5188.0,11.0,29.0,26.0,7.0,2.0,0.0,-13.0,6.0,0.0798640251159668
36,165.0,156.0,-235.0,0.0,8941.0,12077.0,-3964.0,5188.0,-2.0,-7.0,-15.0,-2.0,-1.0,3.0,4.0,-5.0,0.08234810829162598
37,133.0,137.0,-244.0,0.0,8961.0,12085.0,-3898.0,5184.0,-2.0,-7.0,-15.0,-2.0,-1.0,3.0,4.0,-5.0,0.0856316089630127
38,133.0,137.0,-244.0,0.0,8961.0,12085.0,-3898.0,5184.0,1.0,13.0,8.0,-1.0,0.0,2.0,-7.0,-1.0,0.08784079551696777
39,133.0,137.0,-244.0,0.0,8961.0,12085.0,-3898.0,5184.0,1.0,4.0,-1.0,-1.0,0.0,-1.0,-4.0,1.0,0.08962345123291016
40,102.0,130.0,-194.0,0.0,8982.0,12089.0,-3840.0,5182.0,1.0,4.0,-1.0,-1.0,0.0,-1.0,-4.0,1.0,0.09141063690185547
41,102.0,130.0,-194.0,0.0,8982.0,12089.0,-3840.0,5182.0,-2.0,-7.0,-10.0,-5.0,-3.0,-1.0,6.0,1.0,0.09470391273498535
42,102.0,130.0,-194.0,0.0,8982.0,12089.0,-3840.0,5182.0,1.0,9.0,7.0,0.0,0.0,2.0,-1.0,-3.0,0.09663653373718262
43,-3.0,135.0,-162.0,0.0,9011.0,12083.0,-3794.0,5179.0,1.0,9.0,7.0,0.0,0.0,2.0,-1.0,-3.0,0.09842276573181152
44,-3.0,135.0,-162.0,0.0,9011.0,12083.0,-3794.0,5179.0,-5.0,-9.0,-4.0,0.0,-5.0,-5.0,-11.0,-3.0,0.10027074813842773
45,-3.0,135.0,-162.0,0.0,9011.0,12083.0,-3794.0,5179.0,-6.0,-9.0,-7.0,-2.0,0.0,0.0,0.0,0.0,0.1020503044128418
46,-81.0,153.0,-175.0,0.0,9050.0,12067.0,-3754.0,5178.0,-6.0,-9.0,-7.0,-2.0,0.0,0.0,0.0,0.0,0.10381627082824707
47,-81.0,153.0,-175.0,0.0,9050.0,12067.0,-3754.0,5178.0,-2.0,-13.0,-15.0,1.0,1.0,-1.0,-8.0,0.0,0.1059122085571289
48,-81.0,153.0,-175.0,0.0,9050.0,12067.0,-3754.0,5178.0,4.0,12.0,-11.0,1.0,-2.0,-1.0,0.0,-2.0,0.1076967716217041
49,-66.0,148.0,-202.0,0.0,9077.0,12056.0,-3718.0,5181.0,4.0,12.0,-11.0,1.0,-2.0,-1.0,0.0,-2.0,0.10945296287536621
50,-66.0,148.0,-202.0,0.0,9077.0,12056.0,-3718.0,5181.0,-8.0,-19.0,-30.0,-3.0,2.0,-1.0,21.0,-3.0,0.11133503913879395
51,-66.0,148.0,-202.0,0.0,9077.0,12056.0,-3718.0,5181.0,-3.0,-7.0,-9.0,-1.0,-1.0,-2.0,-5.0,0.0,0.11326146125793457
52,34.0,166.0,-203.0,0.0,9091.0,12054.0,-3677.0,5191.0,-3.0,-7.0,-9.0,-1.0,-1.0,-2.0,-5.0,0.0,0.1166379451751709
53,34.0,166.0,-203.0,0.0,9091.0,12054.0,-3677.0,5191.0,-2.0,2.0,-3.0,-3.0,-5.0,-14.0,-9.0,-5.0,0.11869263648986816
54,34.0,166.0,-203.0,0.0,9091.0,12054.0,-3677.0,5191.0,-4.0,-11.0,0.0,5.0,0.0,-2.0,5.0,-2.0,0.12052154541015625
55,58.0,176.0,-227.0,0.0,9102.0,12057.0,-3630.0,5199.0,-4.0,-11.0,0.0,5.0,0.0,-2.0,5.0,-2.0,0.12233734130859375
56,58.0,176.0,-227.0,0.0,9102.0,12057.0,-3630.0,5199.0,-10.0,-27.0,-22.0,-2.0,2.0,-1.0,-8.0,-3.0,0.12419319152832031
57,58.0,176.0,-227.0,0.0,9102.0,12057.0,-3630.0,5199.0,-2.0,-6.0,1.0,-4.0,-2.0,-1.0,0.0,1.0,0.1265552043914795
58,101.0,188.0,-276.0,0.0,9114.0,12060.0,-3573.0,5209.0,-2.0,-6.0,1.0,-4.0,-2.0,-1.0,0.0,1.0,0.12953639030456543
59,101.0,188.0,-276.0,0.0,9114.0,12060.0,-3573.0,5209.0,-2.0,-4.0,-11.0,-3.0,0.0,2.0,8.0,-3.0,0.13148212432861328
60,101.0,188.0,-276.0,0.0,9114.0,12060.0,-3573.0,5209.0,-3.0,-5.0,-14.0,-5.0,2.0,5.0,-4.0,0.0,0.13328981399536133
61,165.0,190.0,-291.0,0.0,9118.0,12072.0,-3509.0,5218.0,-3.0,-5.0,-14.0,-5.0,2.0,5.0,-4.0,0.0,0.13514399528503418
62,165.0,190.0,-291.0,0.0,9118.0,12072.0,-3509.0,5218.0,9.0,14.0,12.0,3.0,0.0,2.0,-3.0,5.0,0.13701438903808594
63,165.0,190.0,-291.0,0.0,9118.0,12072.0,-3509.0,5218.0,4.0,8.0,-8.0,-7.0,-3.0,-3.0,-5.0,1.0,0.13904714584350586
64,196.0,187.0,-259.0,0.0,9120.0,12085.0,-3443.0,5227.0,4.0,8.0,-8.0,-7.0,-3.0,-3.0,-5.0,1.0,0.14089536666870117
65,196.0,187.0,-259.0,0.0,9120.0,12085.0,-3443.0,5227.0,-3.0,-12.0,-6.0,-2.0,1.0,3.0,-7.0,2.0,0.14280962944030762
66,196.0,187.0,-259.0,0.0,9120.0,12085.0,-3443.0,5227.0,-1.0,-9.0,-10.0,-2.0,-2.0,-3.0,-4.0,3.0,0.14599227905273438
67,127.0,152.0,-201.0,0.0,9127.0,12093.0,-3391.0,5233.0,-1.0,-9.0,-10.0,-2.0,-2.0,-3.0,-4.0,3.0,0.1486818790435791
68,127.0,152.0,-201.0,0.0,9127.0,12093.0,-3391.0,5233.0,3.0,21.0,4.0,-2.0,-1.0,-4.0,9.0,-1.0,0.15064454078674316
69,127.0,152.0,-201.0,0.0,9127.0,12093.0,-3391.0,5233.0,-3.0,-5.0,9.0,1.0,-1.0,-1.0,-6.0,-1.0,0.1524660587310791
70,114.0,140.0,-129.0,0.0,9128.0,12097.0,-3353.0,5245.0,-3.0,-5.0,9.0,1.0,-1.0,-1.0,-6.0,-1.0,0.1542813777923584
71,114.0,140.0,-129.0,0.0,9128.0,12097.0,-3353.0,5245.0,0.0,6.0,13.0,0.0,0.0,-1.0,-6.0,-2.0,0.15616846084594727
72,114.0,140.0,-129.0,0.0,9128.0,12097.0,-3353.0,5245.0,0.0,1.0,-3.0,-1.0,-2.0,-5.0,0.0,0.0,0.1580643653869629
73,35.0,127.0,-61.0,0.0,9133.0,12093.0,-3331.0,5261.0,0.0,1.0,-3.0,-1.0,-2.0,-5.0,0.0,0.0,0.16135692596435547
74,35.0,127.0,-61.0,0.0,9133.0,12093.0,-3331.0,5261.0,-3.0,-7.0,-6.0,-2.0,0.0,4.0,-10.0,-2.0,0.16335296630859375
75,35.0,127.0,-61.0,0.0,9133.0,12093.0,-3331.0,5261.0,-2.0,-6.0,2.0,0.0,-2.0,2.0,-1.0,-2.0,0.16520357131958008
76,20.0,128.0,-57.0,0.0,9137.0,12089.0,-3311.0,5275.0,-2.0,-6.0,2.0,0.0,-2.0,2.0,-1.0,-2.0,0.1669926643371582
77,20.0,128.0,-57.0,0.0,9137.0,12089.0,-3311.0,5275.0,4.0,14.0,16.0,6.0,1.0,-2.0,9.0,0.0,0.16884994506835938
78,20.0,128.0,-57.0,0.0,9137.0,12089.0,-3311.0,5275.0,0.0,-4.0,1.0,5.0,2.0,-1.0,-4.0,-3.0,0.17063331604003906
79,20.0,124.0,-44.0,0.0,9140.0,12085.0,-3294.0,5289.0,0.0,-4.0,1.0,5.0,2.0,-1.0,-4.0,-3.0,0.17267394065856934
80,20.0,124.0,-44.0,0.0,9140.0,12085.0,-3294.0,5289.0,-3.0,-8.0,-10.0,-3.0,1.0,1.0,-2.0,-1.0,0.17511987686157227
81,20.0,124.0,-44.0,0.0,9140.0,12085.0,-3294.0,5289.0,1.0,18.0,30.0,1.0,-1.0,4.0,3.0,0.0,0.17841410636901855
82,20.0,116.0,-51.0,0.0,9141.0,12085.0,-3275.0,5299.0,1.0,18.0,30.0,1.0,-1.0,4.0,3.0,0.0,0.18042445182800293
83,20.0,116.0,-51.0,0.0,9141.0,12085.0,-3275.0,5299.0,-10.0,-22.0,-8.0,-2.0,-3.0,0.0,-9.0,-3.0,0.18235301971435547
84,20.0,116.0,-51.0,0.0,9141.0,12085.0,-3275.0,5299.0,-1.0,-7.0,-12.0,-2.0,-1.0,-3.0,-1.0,-1.0,0.18416190147399902
85,9.0,117.0,-36.0,0.0,9140.0,12086.0,-3260.0,5308.0,-1.0,-7.0,-12.0,-2.0,-1.0,-3.0,-1.0,-1.0,0.18600130081176758
86,9.0,117.0,-36.0,0.0,9140.0,12086.0,-3260.0,5308.0,6.0,19.0,8.0,-1.0,-1.0,1.0,10.0,0.0,0.187896728515625
87,9.0,117.0,-36.0,0.0,9140.0,12086.0,-3260.0,5308.0,2.0,6.0,5.0,0.0,-1.0,-3.0,-2.0,2.0,0.18969249725341797
88,-19.0,133.0,-24.0,0.0,9141.0,12085.0,-3246.0,5317.0,2.0,6.0,5.0,0.0,-1.0,-3.0,-2.0,2.0,0.19149541854858398
89,-19.0,133.0,-24.0,0.0,9141.0,12085.0,-3246.0,5317.0,-7.0,-22.0,-15.0,-2.0,-1.0,0.0,-4.0,-2.0,0.19492673873901367
90,-19.0,133.0,-24.0,0.0,9141.0,12085.0,-3246.0,5317.0,-3.0,-7.0,1.0,3.0,1.0,-1.0,-7.0,-1.0,0.19692182540893555
91,12.0,148.0,0.0,0.0,9139.0,12086.0,-3229.0,5329.0,-3.0,-7.0,1.0,3.0,1.0,-1.0,-7.0,-1.0,0.198805570602417
92,12.0,148.0,0.0,0.0,9139.0,12086.0,-3229.0,5329.0,-6.0,-20.0,-11.0,-4.0,-4.0,-6.0,-9.0,-1.0,0.2007150650024414
93,12.0,148.0,0.0,0.0,9139.0,12086.0,-3229.0,5329.0,0.0,7.0,12.0,-5.0,-5.0,-7.0,-4.0,0.0,0.20255398750305176
94,32.0,125.0,31.0,0.0,9134.0,12090.0,-3214.0,5338.0,0.0,7.0,12.0,-5.0,-5.0,-7.0,-4.0,0.0,0.2043471336364746
95,32.0,125.0,31.0,0.0,9134.0,12090.0,-3214.0,5338.0,-3.0,-3.0,-7.0,-3.0,-2.0,-1.0,6.0,-3.0,0.20814251899719238
96,32.0,125.0,31.0,0.0,9134.0,12090.0,-3214.0,5338.0,5.0,9.0,6.0,-1.0,2.0,4.0,-3.0,1.0,0.21219801902770996
97,48.0,99.0,69.0,0.0,9122.0,12099.0,-3203.0,5343.0,5.0,9.0,6.0,-1.0,2.0,4.0,-3.0,1.0,0.21420860290527344
98,48.0,99.0,69.0,0.0,9122.0,12099.0,-3203.0,5343.0,-7.0,-8.0,1.0,-4.0,-3.0,-4.0,-3.0,-4.0,0.21611833572387695
99,48.0,99.0,69.0,0.0,9122.0,12099.0,-3203.0,5343.0,-5.0,-17.0,-19.0,-3.0,1.0,0.0,-4.0,-5.0,0.21793770790100098
100,22.0,75.0,101.0,0.0,9108.0,12107.0,-3204.0,5350.0,-5.0,-17.0,-19.0,-3.0,1.0,0.0,-4.0,-5.0,0.21973490715026855
101,22.0,75.0,101.0,0.0,9108.0,12107.0,-3204.0,5350.0,8.0,18.0,13.0,3.0,3.0,5.0,-6.0,5.0,0.2218339443206787
102,22.0,75.0,101.0,0.0,9108.0,12107.0,-3204.0,5350.0,-2.0,-9.0,-11.0,0.0,0.0,-1.0,2.0,-2.0,0.2236933708190918
103,-5.0,40.0,84.0,0.0,9095.0,12116.0,-3208.0,5348.0,-2.0,-9.0,-11.0,0.0,0.0,-1.0,2.0,-2.0,0.22547268867492676
104,-5.0,40.0,84.0,0.0,9095.0,12116.0,-3208.0,5348.0,-4.0,-5.0,2.0,-3.0,-2.0,-2.0,3.0,-2.0,0.22733640670776367
105,-5.0,40.0,84.0,0.0,9095.0,12116.0,-3208.0,5348.0,3.0,9.0,2.0,1.0,0.0,0.0,-1.0,3.0,0.22910594940185547
106,68.0,6.0,57.0,0.0,9076.0,12133.0,-3207.0,5343.0,3.0,9.0,2.0,1.0,0.0,0.0,-1.0,3.0,0.23091959953308105
107,68.0,6.0,57.0,0.0,9076.0,12133.0,-3207.0,5343.0,9.0,19.0,15.0,5.0,-1.0,-9.0,-1.0,2.0,0.23282718658447266
108,68.0,6.0,57.0,0.0,9076.0,12133.0,-3207.0,5343.0,14.0,38.0,49.0,5.0,0.0,3.0,1.0,11.0,0.23460173606872559
109,106.0,-26.0,60.0,0.0,9053.0,12156.0,-3203.0,5331.0,14.0,38.0,49.0,5.0,0.0,3.0,1.0,11.0,0.23647403717041016
110,106.0,-26.0,60.0,0.0,9053.0,12156.0,-3203.0,5331.0,-6.0,-7.0,-8.0,-6.0,-4.0,-5.0,-11.0,-4.0,0.24009943008422852
111,106.0,-26.0,60.0,0.0,9053.0,12156.0,-3203.0,5331.0,-4.0,-10.0,-24.0,-6.0,-3.0,-3.0,0.0,0.0,0.24247193336486816
112,117.0,-61.0,83.0,0.0,9030.0,12180.0,-3202.0,5316.0,-4.0,-10.0,-24.0,-6.0,-3.0,-3.0,0.0,0.0,0.24537944793701172
113,117.0,-61.0,83.0,0.0,9030.0,12180.0,-3202.0,5316.0,2.0,6.0,19.0,9.0,1.0,-1.0,4.0,0.0,0.2473752498626709
114,117.0,-61.0,83.0,0.0,9030.0,12180.0,-3202.0,5316.0,-3.0,-5.0,-13.0,1.0,2.0,1.0,-4.0,-6.0,0.24919939041137695
115,79.0,-103.0,100.0,0.0,9007.0,12203.0,-3212.0,5296.0,-3.0,-5.0,-13.0,1.0,2.0,1.0,-4.0,-6.0,0.2509932518005371
116,79.0,-103.0,100.0,0.0,9007.0,12203.0,-3212.0,5296.0,-6.0,-30.0,-40.0,-6.0,1.0,0.0,-1.0,-3.0,0.25284767150878906
117,79.0,-103.0,100.0,0.0,9007.0,12203.0,-3212.0,5296.0,0.0,15.0,13.0,-3.0,-5.0,-4.0,-7.0,-3.0,0.25469470024108887
118,41.0,-144.0,132.0,0.0,8989.0,12223.0,-3229.0,5270.0,0.0,15.0,13.0,-3.0,-5.0,-4.0,-7.0,-3.0,0.2566099166870117
119,41.0,-144.0,132.0,0.0,8989.0,12223.0,-3229.0,5270.0,2.0,12.0,14.0,1.0,-1.0,3.0,-10.0,-1.0,0.25847506523132324
120,41.0,-144.0,132.0,0.0,8989.0,12223.0,-3229.0,5270.0,-2.0,-6.0,-9.0,2.0,2.0,0.0,1.0,-2.0,0.26023435592651367
121,-10.0,-172.0,141.0,0.0,8975.0,12240.0,-3254.0,5240.0,-2.0,-6.0,-9.0,2.0,2.0,0.0,1.0,-2.0,0.26201725006103516
122,-10.0,-172.0,141.0,0.0,8975.0,12240.0,-3254.0,5240.0,-5.0,-9.0,-5.0,-2.0,1.0,3.0,4.0,-6.0,0.26386046409606934
123,-10.0,-172.0,141.0,0.0,8975.0,12240.0,-3254.0,5240.0,4.0,3.0,1.0,-6.0,-5.0,-1.0,-6.0,4.0,0.26561951637268066
124,-39.0,-204.0,121.0,0.0,8966.0,12254.0,-3282.0,5206.0,4.0,3.0,1.0,-6.0,-5.0,-1.0,-6.0,4.0,0.2675135135650635
125,-39.0,-204.0,121.0,0.0,8966.0,12254.0,-3282.0,5206.0,-12.0,-22.0,-22.0,-4.0,0.0,1.0,4.0,1.0,0.271059513092041
126,-39.0,-204.0,121.0,0.0,8966.0,12254.0,-3282.0,5206.0,-14.0,-31.0,-19.0,-3.0,1.0,-4.0,-5.0,-5.0,0.273090124130249
127,16.0,-243.0,106.0,0.0,8948.0,12277.0,-3308.0,5164.0,-14.0,-31.0,-19.0,-3.0,1.0,-4.0,-5.0,-5.0,0.2750217914581299
128,16.0,-243.0,106.0,0.0,8948.0,12277.0,-3308.0,5164.0,6.0,0.0,-16.0,-5.0,-1.0,2.0,-5.0,1.0,0.27834057807922363
129,16.0,-243.0,106.0,0.0,8948.0,12277.0,-3308.0,5164.0,-8.0,-10.0,0.0,0.0,2.0,1.0,3.0,-4.0,0.28032398223876953
130,-23.0,-292.0,85.0,0.0,8935.0,12302.0,-3337.0,5110.0,-8.0,-10.0,0.0,0.0,2.0,1.0,3.0,-4.0,0.2821810245513916
131,-23.0,-292.0,85.0,0.0,8935.0,12302.0,-3337.0,5110.0,1.0,7.0,12.0,3.0,-3.0,-2.0,-6.0,0.0,0.28404855728149414
132,-23.0,-292.0,85.0,0.0,8935.0,12302.0,-3337.0,5110.0,0.0,9.0,1.0,-2.0,0.0,1.0,-10.0,-8.0,0.2858316898345947
133,-123.0,-346.0,53.0,0.0,8935.0,12319.0,-3373.0,5044.0,0.0,9.0,1.0,-2.0,0.0,1.0,-10.0,-8.0,0.28760623931884766
134,-123.0,-346.0,53.0,0.0,8935.0,12319.0,-3373.0,5044.0,2.0,11.0,13.0,0.0,1.0,2.0,2.0,-1.0,0.2897329330444336
135,-123.0,-346.0,53.0,0.0,8935.0,12319.0,-3373.0,5044.0,0.0,-5.0,13.0,6.0,-2.0,-1.0,-4.0,3.0,0.29160189628601074
136,-149.0,-384.0,21.0,0.0,8939.0,12336.0,-3411.0,4970.0,0.0,-5.0,13.0,6.0,-2.0,-1.0,-4.0,3.0,0.29337334632873535
137,-149.0,-384.0,21.0,0.0,8939.0,12336.0,-3411.0,4970.0,10.0,0.0,0.0,-2.0,-5.0,-1.0,-14.0,16.0,0.2952296733856201
138,-149.0,-384.0,21.0,0.0,8939.0,12336.0,-3411.0,4970.0,2.0,0.0,-2.0,3.0,0.0,1.0,1.0,-4.0,0.29700684547424316
139,-163.0,-406.0,-27.0,0.0,8948.0,12353.0,-3445.0,4888.0,2.0,0.0,-2.0,3.0,0.0,1.0,1.0,-4.0,0.2998685836791992
140,-163.0,-406.0,-27.0,0.0,8948.0,12353.0,-3445.0,4888.0,-3.0,-10.0,2.0,14.0,4.0,-1.0,-3.0,-3.0,0.30252695083618164
141,-163.0,-406.0,-27.0,0.0,8948.0,12353.0,-3445.0,4888.0,5.0,1.0,-3.0,1.0,0.0,1.0,-5.0,7.0,0.3043668270111084
142,-164.0,-428.0,-50.0,0.0,8954.0,12374.0,-3478.0,4798.0,5.0,1.0,-3.0,1.0,0.0,1.0,-5.0,7.0,0.30622386932373047
143,-164.0,-428.0,-50.0,0.0,8954.0,12374.0,-3478.0,4798.0,-2.0,-5.0,-9.0,-6.0,-1.0,0.0,6.0,-4.0,0.308135986328125
144,-164.0,-428.0,-50.0,0.0,8954.0,12374.0,-3478.0,4798.0,7.0,30.0,28.0,1.0,-3.0,-1.0,-7.0,0.0,0.3112301826477051
145,-224.0,-454.0,-61.0,0.0,8967.0,12391.0,-3516.0,4702.0,7.0,30.0,28.0,1.0,-3.0,-1.0,-7.0,0.0,0.3132140636444092
146,-224.0,-454.0,-61.0,0.0,8967.0,12391.0,-3516.0,4702.0,2.0,8.0,5.0,1.0,-1.0,-5.0,-13.0,-4.0,0.3151285648345947
147,-257.0,-469.0,-78.0,0.0,8983.0,12405.0,-3556.0,4604.0,2.0,8.0,5.0,1.0,-1.0,-5.0,-13.0,-4.0,0.3169209957122803
148,-257.0,-469.0,-78.0,0.0,8983.0,12405.0,-3556.0,4604.0,7.0,6.0,-15.0,0.0,0.0,-1.0,-5.0,6.0,0.31879758834838867
149,-257.0,-469.0,-78.0,0.0,8983.0,12405.0,-3556.0,4604.0,2.0,24.0,15.0,0.0,-5.0,0.0,-30.0,-1.0,0.3207695484161377
150,-217.0,-465.0,-104.0,0.0,8993.0,12424.0,-3591.0,4504.0,2.0,24.0,15.0,0.0,-5.0,0.0,-30.0,-1.0,0.32285451889038086
151,-217.0,-465.0,-104.0,0.0,8993.0,12424.0,-3591.0,4504.0,-15.0,-22.0,-22.0,-8.0,-2.0,2.0,-27.0,-9.0,0.32472944259643555
152,-217.0,-465.0,-104.0,0.0,8993.0,12424.0,-3591.0,4504.0,0.0,-14.0,-14.0,-2.0,3.0,8.0,6.0,3.0,0.32651233673095703
153,-170.0,-473.0,-100.0,0.0,9000.0,12445.0,-3623.0,4404.0,0.0,-14.0,-14.0,-2.0,3.0,8.0,6.0,3.0,0.3283960819244385
154,-170.0,-473.0,-100.0,0.0,9000.0,12445.0,-3623.0,4404.0,-5.0,-4.0,10.0,-8.0,-12.0,-7.0,-23.0,-5.0,0.3325381278991699
155,-170.0,-473.0,-100.0,0.0,9000.0,12445.0,-3623.0,4404.0,5.0,7.0,4.0,6.0,4.0,-1.0,-14.0,-1.0,0.3346238136291504
156,-187.0,-504.0,-120.0,0.0,9012.0,12468.0,-3651.0,4293.0,5.0,7.0,4.0,6.0,4.0,-1.0,-14.0,-1.0,0.33646321296691895
157,-187.0,-504.0,-120.0,0.0,9012.0,12468.0,-3651.0,4293.0,0.0,-5.0,-4.0,0.0,4.0,-1.0,-8.0,0.0,0.33837294578552246
158,-187.0,-504.0,-120.0,0.0,9012.0,12468.0,-3651.0,4293.0,-6.0,-9.0,-12.0,-8.0,-3.0,-4.0,-15.0,-4.0,0.34016895294189453
159,-273.0,-553.0,-101.0,0.0,9035.0,12480.0,-3689.0,4174.0,-6.0,-9.0,-12.0,-8.0,-3.0,-4.0,-15.0,-4.0,0.34220218658447266
160,-273.0,-553.0,-101.0,0.0,9035.0,12480.0,-3689.0,4174.0,-1.0,7.0,-3.0,-5.0,0.0,0.0,-7.0,-2.0,0.3453958034515381
161,-273.0,-553.0,-101.0,0.0,9035.0,12480.0,-3689.0,4174.0,8.0,17.0,7.0,-2.0,0.0,2.0,10.0,3.0,0.3472895622253418
162,-407.0,-617.0,-68.0,0.0,9068.0,12482.0,-3746.0,4044.0,8.0,17.0,7.0,-2.0,0.0,2.0,10.0,3.0,0.3490908145904541
163,-407.0,-617.0,-68.0,0.0,9068.0,12482.0,-3746.0,4044.0,-8.0,-17.0,-20.0,-6.0,-4.0,-5.0,-7.0,-5.0,0.35101890563964844
164,-407.0,-617.0,-68.0,0.0,9068.0,12482.0,-3746.0,4044.0,2.0,10.0,1.0,0.0,-2.0,-5.0,-12.0,5.0,0.35278916358947754
165,-496.0,-667.0,-73.0,0.0,9107.0,12477.0,-3814.0,3906.0,2.0,10.0,1.0,0.0,-2.0,-5.0,-12.0,5.0,0.3546578884124756
166,-496.0,-667.0,-73.0,0.0,9107.0,12477.0,-3814.0,3906.0,-9.0,-9.0,3.0,5.0,0.0,0.0,-4.0,-5.0,0.3567030429840088
167,-496.0,-667.0,-73.0,0.0,9107.0,12477.0,-3814.0,3906.0,-1.0,8.0,27.0,2.0,-1.0,-1.0,-9.0,-5.0,0.35858678817749023
168,-544.0,-670.0,-112.0,0.0,9148.0,12468.0,-3885.0,3766.0,-1.0,8.0,27.0,2.0,-1.0,-1.0,-9.0,-5.0,0.36860084533691406
169,-544.0,-670.0,-112.0,0.0,9148.0,12468.0,-3885.0,3766.0,-3.0,-13.0,-9.0,2.0,0.0,-10.0,-8.0,0.0,0.37059688568115234
170,-544.0,-670.0,-112.0,0.0,9148.0,12468.0,-3885.0,3766.0,-6.0,-17.0,-14.0,-2.0,-2.0,-3.0,12.0,-4.0,0.37244439125061035
171,-542.0,-692.0,-161.0,0.0,9188.0,12460.0,-3953.0,3622.0,-6.0,-17.0,-14.0,-2.0,-2.0,-3.0,12.0,-4.0,0.39222264289855957
172,-542.0,-692.0,-161.0,0.0,9188.0,12460.0,-3953.0,3622.0,-11.0,-20.0,-18.0,-7.0,3.0,3.0,0.0,-4.0,0.3958926200866699
173,-542.0,-692.0,-161.0,0.0,9188.0,12460.0,-3953.0,3622.0,3.0,16.0,6.0,-3.0,-6.0,-5.0,-8.0,-2.0,0.39905834197998047
174,-494.0,-734.0,-218.0,0.0,9221.0,12458.0,-4016.0,3471.0,3.0,16.0,6.0,-3.0,-6.0,-5.0,-8.0,-2.0,0.40551137924194336
175,-494.0,-734.0,-218.0,0.0,9221.0,12458.0,-4016.0,3471.0,2.0,-7.0,-6.0,0.0,-1.0,-2.0,0.0,2.0,0.41329264640808105
176,-494.0,-734.0,-218.0,0.0,9221.0,12458.0,-4016.0,3471.0,0.0,-11.0,-11.0,-2.0,2.0,2.0,-10.0,-1.0,0.4151122570037842
177,-443.0,-761.0,-264.0,0.0,9248.0,12462.0,-4073.0,3314.0,0.0,-11.0,-11.0,-2.0,2.0,2.0,-10.0,-1.0,0.4293842315673828
178,-443.0,-761.0,-264.0,0.0,9248.0,12462.0,-4073.0,3314.0,9.0,12.0,8.0,2.0,3.0,6.0,0.0,13.0,0.4312770366668701
179,-443.0,-761.0,-264.0,0.0,9248.0,12462.0,-4073.0,3314.0,5.0,-3.0,4.0,-4.0,0.0,0.0,14.0,2.0,0.43303394317626953
180,-425.0,-750.0,-315.0,0.0,9274.0,12469.0,-4122.0,3155.0,5.0,-3.0,4.0,-4.0,0.0,0.0,14.0,2.0,0.45116639137268066
181,-425.0,-750.0,-315.0,0.0,9274.0,12469.0,-4122.0,3155.0,1.0,6.0,-5.0,-3.0,-3.0,-7.0,-4.0,-4.0,0.4536747932434082
182,-425.0,-750.0,-315.0,0.0,9274.0,12469.0,-4122.0,3155.0,-14.0,-26.0,-17.0,1.0,-2.0,-7.0,-11.0,-6.0,0.4559967517852783
183,-464.0,-780.0,-306.0,0.0,9299.0,12473.0,-4175.0,2988.0,-14.0,-26.0,-17.0,1.0,-2.0,-7.0,-11.0,-6.0,0.46491050720214844
184,-464.0,-780.0,-306.0,0.0,9299.0,12473.0,-4175.0,2988.0,4.0,11.0,9.0,0.0,-3.0,3.0,0.0,1.0,0.47321271896362305
185,-464.0,-780.0,-306.0,0.0,9299.0,12473.0,-4175.0,2988.0,-4.0,-3.0,-2.0,3.0,0.0,2.0,-7.0,-3.0,0.4750063419342041
186,-456.0,-816.0,-285.0,0.0,9323.0,12475.0,-4233.0,2820.0,-4.0,-3.0,-2.0,3.0,0.0,2.0,-7.0,-3.0,0.4890286922454834
187,-456.0,-816.0,-285.0,0.0,9323.0,12475.0,-4233.0,2820.0,-4.0,2.0,11.0,1.0,-3.0,-2.0,-6.0,-2.0,0.49190688133239746
188,-456.0,-816.0,-285.0,0.0,9323.0,12475.0,-4233.0,2820.0,2.0,6.0,-5.0,-5.0,-2.0,4.0,16.0,3.0,0.49616050720214844
189,-470.0,-877.0,-225.0,0.0,9340.0,12476.0,-4305.0,2645.0,2.0,6.0,-5.0,-5.0,-2.0,4.0,16.0,3.0,0.5123708248138428
190,-470.0,-877.0,-225.0,0.0,9340.0,12476.0,-4305.0,2645.0,2.0,-5.0,-3.0,0.0,-3.0,1.0,-3.0,4.0,0.5176146030426025
191,-470.0,-877.0,-225.0,0.0,9340.0,12476.0,-4305.0,2645.0,0.0,3.0,-3.0,-6.0,-5.0,-3.0,-8.0,-1.0,0.520305871963501
192,-509.0,-906.0,-143.0,0.0,9360.0,12468.0,-4388.0,2470.0,0.0,3.0,-3.0,-6.0,-5.0,-3.0,-8.0,-1.0,0.5246961116790771
193,-509.0,-906.0,-143.0,0.0,9360.0,12468.0,-4388.0,2470.0,2.0,1.0,-3.0,-5.0,1.0,0.0,-2.0,1.0,0.532944917678833
194,-509.0,-906.0,-143.0,0.0,9360.0,12468.0,-4388.0,2470.0,0.0,-4.0,-1.0,3.0,3.0,-2.0,-11.0,2.0,0.5347194671630859
195,-588.0,-952.0,-77.0,0.0,9383.0,12449.0,-4489.0,2293.0,0.0,-4.0,-1.0,3.0,3.0,-2.0,-11.0,2.0,0.5491058826446533
196,-588.0,-952.0,-77.0,0.0,9383.0,12449.0,-4489.0,2293.0,-8.0,-13.0,-3.0,-10.0,-5.0,-5.0,-7.0,-3.0,0.5517559051513672
197,-588.0,-952.0,-77.0,0.0,9383.0,12449.0,-4489.0,2293.0,-2.0,-4.0,-4.0,-1.0,2.0,0.0,15.0,-1.0,0.5546860694885254
198,-657.0,-1011.0,-5.0,0.0,9403.0,12422.0,-4608.0,2112.0,-2.0,-4.0,-4.0,-1.0,2.0,0.0,15.0,-1.0,0.5722126960754395
199,-657.0,-1011.0,-5.0,0.0,9403.0,12422.0,-4608.0,2112.0,-1.0,2.0,2.0,2.0,0.0,2.0,-3.0,-3.0,0.5757484436035156
200,-657.0,-1011.0,-5.0,0.0,9403.0,12422.0,-4608.0,2112.0,-3.0,-1.0,0.0,0.0,0.0,-3.0,-6.0,-4.0,0.5801117420196533
201,-852.0,-1037.0,0.0,0.0,9464.0,12354.0,-4740.0,1938.0,-3.0,-1.0,0.0,0.0,0.0,-3.0,-6.0,-4.0,0.5848627090454102
202,-852.0,-1037.0,0.0,0.0,9464.0,12354.0,-4740.0,1938.0,0.0,1.0,1.0,2.0,-5.0,-7.0,-6.0,-6.0,0.594036340713501
203,-852.0,-1037.0,0.0,0.0,9464.0,12354.0,-4740.0,1938.0,1.0,5.0,4.0,5.0,4.0,7.0,-11.0,3.0,0.5961682796478271
204,-593.0,-618.0,-211.0,0.0,9514.0,12317.0,-4790.0,1805.0,1.0,5.0,4.0,5.0,4.0,7.0,-11.0,3.0,0.6113071441650391
205,-593.0,-618.0,-211.0,0.0,9514.0,12317.0,-4790.0,1805.0,3.0,2.0,0.0,3.0,0.0,0.0,-1.0,-1.0,0.6147122383117676
206,-593.0,-618.0,-211.0,0.0,9514.0,12317.0,-4790.0,1805.0,-4.0,-2.0,2.0,-3.0,-3.0,1.0,17.0,0.0,0.6176319122314453
207,-687.0,-810.0,-43.0,0.0,9544.0,12278.0,-4885.0,1648.0,-4.0,-2.0,2.0,-3.0,-3.0,1.0,17.0,0.0,0.6332330703735352
208,-687.0,-810.0,-43.0,0.0,9544.0,12278.0,-4885.0,1648.0,-1.0,-2.0,-5.0,-3.0,-1.0,0.0,-1.0,0.0,0.6373498439788818
209,-687.0,-810.0,-43.0,0.0,9544.0,12278.0,-4885.0,1648.0,8.0,10.0,0.0,-3.0,-2.0,-2.0,-4.0,2.0,0.6423065662384033
210,-518.0,-972.0,131.0,0.0,9552.0,12243.0,-5008.0,1492.0,8.0,10.0,0.0,-3.0,-2.0,-2.0,-4.0,2.0,0.6456553936004639
211,-518.0,-972.0,131.0,0.0,9552.0,12243.0,-5008.0,1492.0,-1.0,0.0,-3.0,-1.0,1.0,3.0,-6.0,-2.0,0.65293288230896
212,-518.0,-972.0,131.0,0.0,9552.0,12243.0,-5008.0,1492.0,-4.0,-3.0,1.0,-1.0,-3.0,1.0,-17.0,-3.0,0.6549427509307861
213,-938.0,-1009.0,197.0,0.0,9603.0,12163.0,-5152.0,1316.0,-4.0,-3.0,1.0,-1.0,-3.0,1.0,-17.0,-3.0,0.6700148582458496
214,-938.0,-1009.0,197.0,0.0,9603.0,12163.0,-5152.0,1316.0,2.0,3.0,6.0,2.0,-2.0,1.0,-3.0,-1.0,0.6736066341400146
215,-938.0,-1009.0,197.0,0.0,9603.0,12163.0,-5152.0,1316.0,-2.0,-6.0,-7.0,-5.0,-4.0,-5.0,11.0,1.0,0.6779515743255615
216,-1219.0,-787.0,180.0,0.0,9726.0,12022.0,-5282.0,1178.0,-2.0,-6.0,-7.0,-5.0,-4.0,-5.0,11.0,1.0,0.6918454170227051
217,-1219.0,-787.0,180.0,0.0,9726.0,12022.0,-5282.0,1178.0,0.0,-1.0,3.0,5.0,5.0,5.0,-1.0,2.0,0.6949043273925781
218,-1219.0,-787.0,180.0,0.0,9726.0,12022.0,-5282.0,1178.0,1.0,0.0,-1.0,0.0,-3.0,-4.0,-1.0,-2.0,0.6978240013122559
219,-993.0,-339.0,15.0,0.0,9843.0,11901.0,-5354.0,1115.0,1.0,0.0,-1.0,0.0,-3.0,-4.0,-1.0,-2.0,0.7046024799346924
220,-993.0,-339.0,15.0,0.0,9843.0,11901.0,-5354.0,1115.0,1.0,2.0,0.0,-2.0,-3.0,-4.0,-1.0,0.0,0.7130327224731445
221,-993.0,-339.0,15.0,0.0,9843.0,11901.0,-5354.0,1115.0,-4.0,-3.0,-1.0,0.0,1.0,0.0,-9.0,-2.0,0.7148339748382568
222,-675.0,-93.0,12.0,0.0,9918.0,11824.0,-5392.0,1089.0,-4.0,-3.0,-1.0,0.0,1.0,0.0,-9.0,-2.0,0.7284491062164307
223,-675.0,-93.0,12.0,0.0,9918.0,11824.0,-5392.0,1089.0,0.0,3.0,4.0,7.0,4.0,3.0,3.0,1.0,0.7315070629119873
224,-675.0,-93.0,12.0,0.0,9918.0,11824.0,-5392.0,1089.0,0.0,-4.0,-3.0,3.0,0.0,-6.0,12.0,-3.0,0.7347159385681152
225,-437.0,-86.0,124.0,0.0,9959.0,11775.0,-5426.0,1066.0,0.0,-4.0,-3.0,3.0,0.0,-6.0,12.0,-3.0,0.7520492076873779
226,-437.0,-86.0,124.0,0.0,9959.0,11775.0,-5426.0,1066.0,2.0,-3.0,-3.0,0.0,4.0,2.0,0.0,1.0,0.7555103302001953
227,-437.0,-86.0,124.0,0.0,9959.0,11775.0,-5426.0,1066.0,-1.0,-5.0,-7.0,-22.0,-8.0,-2.0,-7.0,-1.0,0.7586936950683594
228,-405.0,-207.0,234.0,0.0,9972.0,11738.0,-5490.0,1036.0,-1.0,-5.0,-7.0,-22.0,-8.0,-2.0,-7.0,-1.0,0.7647731304168701
229,-405.0,-207.0,234.0,0.0,9972.0,11738.0,-5490.0,1036.0,-1.0,1.0,2.0,0.0,-2.0,-8.0,-7.0,0.0,0.7730228900909424
230,-405.0,-207.0,234.0,0.0,9972.0,11738.0,-5490.0,1036.0,-2.0,2.0,9.0,17.0,7.0,1.0,-21.0,-1.0,0.7748348712921143
231,-851.0,-317.0,256.0,0.0,10032.0,11649.0,-5579.0,976.0,-2.0,2.0,9.0,17.0,7.0,1.0,-21.0,-1.0,0.7881817817687988
232,-851.0,-317.0,256.0,0.0,10032.0,11649.0,-5579.0,976.0,10.0,4.0,6.0,3.0,4.0,4.0,-7.0,14.0,0.7902653217315674
233,-851.0,-317.0,256.0,0.0,10032.0,11649.0,-5579.0,976.0,-2.0,2.0,6.0,19.0,4.0,-3.0,2.0,-2.0,0.7960116863250732
234,-1035.0,-250.0,134.0,0.0,10127.0,11539.0,-5648.0,906.0,-2.0,2.0,6.0,19.0,4.0,-3.0,2.0,-2.0,0.811241626739502
235,-1035.0,-250.0,134.0,0.0,10127.0,11539.0,-5648.0,906.0,0.0,0.0,-2.0,-7.0,-5.0,-5.0,-7.0,-4.0,0.8131637573242188
236,-1035.0,-250.0,134.0,0.0,10127.0,11539.0,-5648.0,906.0,-3.0,-4.0,-1.0,4.0,-7.0,-14.0,-8.0,-2.0,0.8149392604827881
237,-883.0,-49.0,7.0,0.0,10210.0,11446.0,-5693.0,875.0,-3.0,-4.0,-1.0,4.0,-7.0,-14.0,-8.0,-2.0,0.8253018856048584
238,-883.0,-49.0,7.0,0.0,10210.0,11446.0,-5693.0,875.0,0.0,2.0,9.0,6.0,2.0,2.0,3.0,4.0,0.8330228328704834
239,-883.0,-49.0,7.0,0.0,10210.0,11446.0,-5693.0,875.0,-4.0,-3.0,-2.0,0.0,-9.0,0.0,-6.0,-4.0,0.8347985744476318
240,-373.0,38.0,61.0,0.0,10238.0,11398.0,-5733.0,899.0,-4.0,-3.0,-2.0,0.0,-9.0,0.0,-6.0,-4.0,0.8480525016784668
241,-373.0,38.0,61.0,0.0,10238.0,11398.0,-5733.0,899.0,-7.0,-5.0,-12.0,-30.0,-3.0,5.0,0.0,-5.0,0.849890947341919
242,-373.0,38.0,61.0,0.0,10238.0,11398.0,-5733.0,899.0,-2.0,-3.0,-5.0,0.0,7.0,13.0,8.0,-2.0,0.8629531860351562
243,-15.0,25.0,81.0,0.0,10222.0,11394.0,-5765.0,934.0,-2.0,-3.0,-5.0,0.0,7.0,13.0,8.0,-2.0,0.8723394870758057
244,-15.0,25.0,81.0,0.0,10222.0,11394.0,-5765.0,934.0,-3.0,-2.0,-7.0,-3.0,-3.0,10.0,-8.0,-2.0,0.8752956390380859
245,-15.0,25.0,81.0,0.0,10222.0,11394.0,-5765.0,934.0,1.0,-2.0,4.0,6.0,-2.0,2.0,6.0,4.0,0.8771352767944336
246,-145.0,69.0,75.0,0.0,10229.0,11378.0,-5782.0,953.0,1.0,-2.0,4.0,6.0,-2.0,2.0,6.0,4.0,0.8851866722106934
247,-145.0,69.0,75.0,0.0,10229.0,11378.0,-5782.0,953.0,-3.0,-1.0,0.0,16.0,21.0,19.0,10.0,3.0,0.8943829536437988
248,-145.0,69.0,75.0,0.0,10229.0,11378.0,-5782.0,953.0,0.0,1.0,12.0,12.0,-8.0,-5.0,-12.0,-5.0,0.8962178230285645
249,132.0,120.0,119.0,0.0,10213.0,11387.0,-5785.0,991.0,0.0,1.0,12.0,12.0,-8.0,-5.0,-12.0,-5.0,0.9081170558929443
250,132.0,120.0,119.0,0.0,10213.0,11387.0,-5785.0,991.0,-10.0,-16.0,-7.0,5.0,9.0,4.0,3.0,-3.0,0.910088300704956
251,132.0,120.0,119.0,0.0,10213.0,11387.0,-5785.0,991.0,3.0,13.0,-23.0,-26.0,-7.0,-24.0,-6.0,1.0,0.9152681827545166
252,297.0,100.0,0.0,0.0,10196.0,11408.0,-5768.0,1027.0,3.0,13.0,-23.0,-26.0,-7.0,-24.0,-6.0,1.0,0.9325518608093262
253,297.0,100.0,0.0,0.0,10196.0,11408.0,-5768.0,1027.0,-2.0,-27.0,6.0,65.0,82.0,65.0,26.0,15.0,0.9363269805908203
254,297.0,100.0,0.0,0.0,10196.0,11408.0,-5768.0,1027.0,-11.0,-8.0,7.0,-24.0,-33.0,14.0,-2.0,-21.0,0.9395344257354736
255,1154.0,-27.0,-110.0,0.0,10069.0,11533.0,-5732.0,1077.0,-11.0,-8.0,7.0,-24.0,-33.0,14.0,-2.0,-21.0,0.944990873336792
256,1154.0,-27.0,-110.0,0.0,10069.0,11533.0,-5732.0,1077.0,-13.0,12.0,15.0,1.0,12.0,16.0,1.0,0.0,0.9530584812164307
257,1154.0,-27.0,-110.0,0.0,10069.0,11533.0,-5732.0,1077.0,7.0,17.0,-8.0,1.0,-8.0,-27.0,-4.0,10.0,0.9548499584197998
258,996.0,95.0,-270.0,0.0,9982.0,11650.0,-5645.0,1094.0,7.0,17.0,-8.0,1.0,-8.0,-27.0,-4.0,10.0,0.9682016372680664
259,996.0,95.0,-270.0,0.0,9982.0,11650.0,-5645.0,1094.0,39.0,78.0,48.0,18.0,-14.0,-35.0,-6.0,4.0,0.9702310562133789
260,996.0,95.0,-270.0,0.0,9982.0,11650.0,-5645.0,1094.0,-34.0,-83.0,-52.0,-24.0,6.0,-24.0,-31.0,-38.0,0.9754810333251953
261,841.0,223.0,-108.0,0.0,9923.0,11744.0,-5550.0,1113.0,-34.0,-83.0,-52.0,-24.0,6.0,-24.0,-31.0,-38.0,0.9925332069396973
262,841.0,223.0,-108.0,0.0,9923.0,11744.0,-5550.0,1113.0,-10.0,-54.0,-61.0,-12.0,-7.0,-7.0,-17.0,-6.0,0.9968934059143066
263,841.0,223.0,-108.0,0.0,9923.0,11744.0,-5550.0,1113.0,-14.0,-46.0,-35.0,-47.0,-79.0,-68.0,-14.0,-8.0,1.0007684230804443
264,666.0,409.0,108.0,0.0,9919.0,11797.0,-5437.0,1139.0,-14.0,-46.0,-35.0,-47.0,-79.0,-68.0,-14.0,-8.0,1.0135560035705566
265,666.0,409.0,108.0,0.0,9919.0,11797.0,-5437.0,1139.0,-4.0,-24.0,-41.0,-41.0,-21.0,-15.0,-16.0,-10.0,1.0169899463653564
266,666.0,409.0,108.0,0.0,9919.0,11797.0,-5437.0,1139.0,-10.0,-1.0,-15.0,-3.0,24.0,33.0,2.0,2.0,1.0204088687896729
267,-371.0,408.0,-109.0,0.0,10053.0,11739.0,-5323.0,1104.0,-10.0,-1.0,-15.0,-3.0,24.0,33.0,2.0,2.0,1.02925443649292
268,-371.0,408.0,-109.0,0.0,10053.0,11739.0,-5323.0,1104.0,-15.0,-34.0,-29.0,-5.0,-16.0,-20.0,-7.0,-16.0,1.031153917312622
269,-371.0,408.0,-109.0,0.0,10053.0,11739.0,-5323.0,1104.0,9.0,5.0,25.0,10.0,-2.0,4.0,4.0,8.0,1.0349135398864746
270,-727.0,342.0,-559.0,0.0,10216.0,11663.0,-5193.0,1027.0,9.0,5.0,25.0,10.0,-2.0,4.0,4.0,8.0,1.0521719455718994
271,-727.0,342.0,-559.0,0.0,10216.0,11663.0,-5193.0,1027.0,7.0,23.0,21.0,-5.0,-8.0,-2.0,6.0,12.0,1.0562043190002441
272,-727.0,342.0,-559.0,0.0,10216.0,11663.0,-5193.0,1027.0,14.0,42.0,31.0,3.0,32.0,31.0,24.0,12.0,1.0598514080047607
273,-1183.0,214.0,-1123.0,0.0,10490.0,11498.0,-5034.0,911.0,14.0,42.0,31.0,3.0,32.0,31.0,24.0,12.0,1.0739409923553467
274,-1183.0,214.0,-1123.0,0.0,10490.0,11498.0,-5034.0,911.0,0.0,8.0,21.0,2.0,-18.0,-4.0,-6.0,-3.0,1.0788791179656982
275,-1183.0,214.0,-1123.0,0.0,10490.0,11498.0,-5034.0,911.0,11.0,18.0,23.0,13.0,19.0,21.0,5.0,8.0,1.0821385383605957
276,-299.0,528.0,-1616.0,0.0,10606.0,11519.0,-4757.0,773.0,11.0,18.0,23.0,13.0,19.0,21.0,5.0,8.0,1.0883886814117432
277,-299.0,528.0,-1616.0,0.0,10606.0,11519.0,-4757.0,773.0,2.0,7.0,1.0,-13.0,-23.0,-19.0,-6.0,-7.0,1.0902974605560303
278,-299.0,528.0,-1616.0,0.0,10606.0,11519.0,-4757.0,773.0,3.0,-9.0,-19.0,10.0,16.0,6.0,1.0,6.0,1.0947356224060059
279,172.0,823.0,-1707.0,0.0,10675.0,11599.0,-4415.0,664.0,3.0,-9.0,-19.0,10.0,16.0,6.0,1.0,6.0,1.1125462055206299
280,172.0,823.0,-1707.0,0.0,10675.0,11599.0,-4415.0,664.0,-1.0,-6.0,-1.0,-5.0,-9.0,-8.0,-8.0,-5.0,1.1156377792358398
281,172.0,823.0,-1707.0,0.0,10675.0,11599.0,-4415.0,664.0,3.0,6.0,25.0,19.0,16.0,14.0,20.0,3.0,1.1185760498046875
282,-669.0,792.0,-2388.0,0.0,10810.0,11626.0,-4024.0,454.0,3.0,6.0,25.0,19.0,16.0,14.0,20.0,3.0,1.134253740310669
283,-669.0,792.0,-2388.0,0.0,10810.0,11626.0,-4024.0,454.0,1.0,9.0,14.0,0.0,2.0,-1.0,-6.0,11.0,1.1361582279205322
284,-669.0,792.0,-2388.0,0.0,10810.0,11626.0,-4024.0,454.0,-4.0,-5.0,-5.0,1.0,-7.0,0.0,17.0,-5.0,1.137941598892212
285,-2129.0,826.0,-3371.0,0.0,11122.0,11507.0,-3506.0,68.0,-4.0,-5.0,-5.0,1.0,-7.0,0.0,17.0,-5.0,1.1473815441131592
286,-2129.0,826.0,-3371.0,0.0,11122.0,11507.0,-3506.0,68.0,-11.0,-23.0,-32.0,-12.0,-3.0,-7.0,-3.0,-4.0,1.1557128429412842
287,-2129.0,826.0,-3371.0,0.0,11122.0,11507.0,-3506.0,68.0,13.0,16.0,13.0,11.0,8.0,4.0,-5.0,6.0,1.1575217247009277
288,-3045.0,755.0,-4189.0,0.0,11518.0,11279.0,-2886.0,-461.0,13.0,16.0,13.0,11.0,8.0,4.0,-5.0,6.0,1.1723017692565918
289,-3045.0,755.0,-4189.0,0.0,11518.0,11279.0,-2886.0,-461.0,5.0,15.0,6.0,-29.0,-1.0,3.0,2.0,-1.0,1.176598072052002
290,-3045.0,755.0,-4189.0,0.0,11518.0,11279.0,-2886.0,-461.0,-8.0,-12.0,-2.0,-1.0,1.0,2.0,7.0,-6.0,1.1805634498596191
291,-3442.0,489.0,-4717.0,0.0,11909.0,10975.0,-2222.0,-1099.0,-8.0,-12.0,-2.0,-1.0,1.0,2.0,7.0,-6.0,1.1946930885314941
292,-3442.0,489.0,-4717.0,0.0,11909.0,10975.0,-2222.0,-1099.0,-5.0,-5.0,3.0,3.0,-11.0,-7.0,-11.0,-6.0,1.1987786293029785
293,-3442.0,489.0,-4717.0,0.0,11909.0,10975.0,-2222.0,-1099.0,-2.0,-1.0,-9.0,-12.0,-1.0,1.0,-11.0,3.0,1.2024106979370117
294,-3611.0,434.0,-5284.0,0.0,12258.0,10613.0,-1486.0,-1817.0,-2.0,-1.0,-9.0,-12.0,-1.0,1.0,-11.0,3.0,1.2077052593231201
295,-3611.0,434.0,-5284.0,0.0,12258.0,10613.0,-1486.0,-1817.0,-1.0,4.0,4.0,3.0,-8.0,-5.0,-4.0,-6.0,1.2154719829559326
296,-3611.0,434.0,-5284.0,0.0,12258.0,10613.0,-1486.0,-1817.0,4.0,17.0,14.0,17.0,3.0,4.0,-4.0,5.0,1.2172322273254395
297,-3930.0,625.0,-5455.0,0.0,12581.0,10161.0,-691.0,-2530.0,4.0,17.0,14.0,17.0,3.0,4.0,-4.0,5.0,1.2323460578918457
298,-3930.0,625.0,-5455.0,0.0,12581.0,10161.0,-691.0,-2530.0,3.0,5.0,14.0,21.0,1.0,-3.0,-4.0,0.0,1.236182689666748
299,-3930.0,625.0,-5455.0,0.0,12581.0,10161.0,-691.0,-2530.0,-1.0,-1.0,-3.0,4.0,1.0,-2.0,8.0,-4.0,1.2398369312286377
300,-4224.0,888.0,-5260.0,0.0,12876.0,9619.0,130.0,-3177.0,-1.0,-1.0,-3.0,4.0,1.0,-2.0,8.0,-4.0,1.2536966800689697
301,-4224.0,888.0,-5260.0,0.0,12876.0,9619.0,130.0,-3177.0,0.0,1.0,2.0,1.0,0.0,-1.0,-3.0,-1.0,1.2582902908325195
302,-4224.0,888.0,-5260.0,0.0,12876.0,9619.0,130.0,-3177.0,0.0,1.0,0.0,-5.0,-7.0,-7.0,-7.0,0.0,1.2627885341644287
303,-4550.0,1098.0,-5162.0,0.0,13135.0,8985.0,981.0,-3769.0,0.0,1.0,0.0,-5.0,-7.0,-7.0,-7.0,0.0,1.2676527500152588
304,-4550.0,1098.0,-5162.0,0.0,13135.0,8985.0,981.0,-3769.0,1.0,0.0,-10.0,-25.0,-8.0,-5.0,-5.0,-1.0,1.2766644954681396
305,-4550.0,1098.0,-5162.0,0.0,13135.0,8985.0,981.0,-3769.0,-1.0,-1.0,-4.0,-8.0,1.0,-1.0,-10.0,0.0,1.2800250053405762
306,-4677.0,1314.0,-4916.0,0.0,13339.0,8293.0,1838.0,-4283.0,-1.0,-1.0,-4.0,-8.0,1.0,-1.0,-10.0,0.0,1.2918941974639893
307,-4677.0,1314.0,-4916.0,0.0,13339.0,8293.0,1838.0,-4283.0,0.0,2.0,4.0,15.0,0.0,0.0,-7.0,-1.0,1.2947487831115723
308,-4677.0,1314.0,-4916.0,0.0,13339.0,8293.0,1838.0,-4283.0,-1.0,-4.0,-9.0,-22.0,-4.0,14.0,14.0,1.0,1.296926736831665
309,-4717.0,1371.0,-4538.0,0.0,13492.0,7589.0,2618.0,-4683.0,-1.0,-4.0,-9.0,-22.0,-4.0,14.0,14.0,1.0,1.3132500648498535
310,-4717.0,1371.0,-4538.0,0.0,13492.0,7589.0,2618.0,-4683.0,-2.0,2.0,-2.0,-4.0,-8.0,-5.0,-7.0,1.0,1.315518856048584
311,-4717.0,1371.0,-4538.0,0.0,13492.0,7589.0,2618.0,-4683.0,3.0,7.0,5.0,5.0,11.0,-2.0,-13.0,-2.0,1.3184826374053955
312,-4475.0,1488.0,-4311.0,0.0,13571.0,6887.0,3384.0,-5035.0,3.0,7.0,5.0,5.0,11.0,-2.0,-13.0,-2.0,1.3273062705993652
313,-4475.0,1488.0,-4311.0,0.0,13571.0,6887.0,3384.0,-5035.0,-2.0,0.0,6.0,10.0,0.0,6.0,3.0,0.0,1.3354246616363525
314,-4475.0,1488.0,-4311.0,0.0,13571.0,6887.0,3384.0,-5035.0,-1.0,-1.0,-4.0,5.0,-3.0,-7.0,-23.0,-5.0,1.3372080326080322
315,-4326.0,1528.0,-4189.0,0.0,13585.0,6174.0,4130.0,-5356.0,-1.0,-1.0,-4.0,5.0,-3.0,-7.0,-23.0,-5.0,1.3515522480010986
316,-4326.0,1528.0,-4189.0,0.0,13585.0,6174.0,4130.0,-5356.0,1.0,-1.0,2.0,5.0,-2.0,-1.0,11.0,11.0,1.3534278869628906
317,-4326.0,1528.0,-4189.0,0.0,13585.0,6174.0,4130.0,-5356.0,-5.0,-9.0,-21.0,-30.0,-3.0,-15.0,16.0,3.0,1.35640549659729
318,-3929.0,1566.0,-3998.0,0.0,13524.0,5507.0,4831.0,-5644.0,-5.0,-9.0,-21.0,-30.0,-3.0,-15.0,16.0,3.0,1.3753011226654053
319,-3929.0,1566.0,-3998.0,0.0,13524.0,5507.0,4831.0,-5644.0,1.0,1.0,2.0,8.0,8.0,1.0,-1.0,-5.0,1.3789544105529785
320,-3929.0,1566.0,-3998.0,0.0,13524.0,5507.0,4831.0,-5644.0,-1.0,-2.0,-4.0,-22.0,-2.0,4.0,-7.0,2.0,1.3826181888580322
321,-3982.0,1524.0,-3833.0,0.0,13426.0,4815.0,5506.0,-5888.0,-1.0,-2.0,-4.0,-22.0,-2.0,4.0,-7.0,2.0,1.3877015113830566
322,-3982.0,1524.0,-3833.0,0.0,13426.0,4815.0,5506.0,-5888.0,-3.0,0.0,-2.0,-13.0,12.0,11.0,0.0,-3.0,1.396536111831665
323,-3982.0,1524.0,-3833.0,0.0,13426.0,4815.0,5506.0,-5888.0,-2.0,0.0,6.0,9.0,-22.0,-17.0,-12.0,-6.0,1.3984909057617188
324,-4072.0,1537.0,-3713.0,0.0,13286.0,4097.0,6167.0,-6089.0,-2.0,0.0,6.0,9.0,-22.0,-17.0,-12.0,-6.0,1.4185867309570312
325,-4072.0,1537.0,-3713.0,0.0,13286.0,4097.0,6167.0,-6089.0,2.0,0.0,1.0,5.0,3.0,7.0,-4.0,-1.0,1.426898717880249
326,-4072.0,1537.0,-3713.0,0.0,13286.0,4097.0,6167.0,-6089.0,0.0,3.0,5.0,13.0,10.0,7.0,8.0,12.0,1.4345884323120117
327,-3857.0,1573.0,-3473.0,0.0,13100.0,3405.0,6794.0,-6250.0,0.0,3.0,5.0,13.0,10.0,7.0,8.0,12.0,1.436429738998413
328,-3857.0,1573.0,-3473.0,0.0,13100.0,3405.0,6794.0,-6250.0,0.0,1.0,4.0,18.0,21.0,3.0,-8.0,-6.0,1.4389169216156006
329,-3857.0,1573.0,-3473.0,0.0,13100.0,3405.0,6794.0,-6250.0,0.0,-2.0,2.0,5.0,-5.0,-9.0,-13.0,-6.0,1.441451072692871
330,-3524.0,1519.0,-3277.0,0.0,12874.0,2754.0,7363.0,-6393.0,0.0,-2.0,2.0,5.0,-5.0,-9.0,-13.0,-6.0,1.4471724033355713
331,-3524.0,1519.0,-3277.0,0.0,12874.0,2754.0,7363.0,-6393.0,1.0,3.0,1.0,4.0,1.0,-8.0,-2.0,-3.0,1.4559028148651123
332,-3524.0,1519.0,-3277.0,0.0,12874.0,2754.0,7363.0,-6393.0,1.0,3.0,1.0,4.0,1.0,-8.0,-2.0,-3.0,1.4579813480377197
333,-3524.0,1519.0,-3277.0,0.0,12874.0,2754.0,7363.0,-6393.0,-5.0,-4.0,0.0,6.0,16.0,-3.0,-45.0,-16.0,1.4709980487823486
334,-3150.0,1367.0,-3324.0,0.0,12606.0,2129.0,7870.0,-6561.0,-5.0,-4.0,0.0,6.0,16.0,-3.0,-45.0,-16.0,1.4749305248260498
335,-3150.0,1367.0,-3324.0,0.0,12606.0,2129.0,7870.0,-6561.0,-4.0,1.0,-2.0,-6.0,-18.0,-14.0,-3.0,-16.0,1.47971510887146
336,-3150.0,1367.0,-3324.0,0.0,12606.0,2129.0,7870.0,-6561.0,6.0,5.0,6.0,13.0,16.0,32.0,90.0,23.0,1.4816875457763672
337,-2413.0,1334.0,-3333.0,0.0,12286.0,1592.0,8305.0,-6779.0,6.0,5.0,6.0,13.0,16.0,32.0,90.0,23.0,1.48419189453125
338,-2413.0,1334.0,-3333.0,0.0,12286.0,1592.0,8305.0,-6779.0,-4.0,-4.0,-5.0,-9.0,-8.0,7.0,-46.0,-6.0,1.4929041862487793
339,-2413.0,1334.0,-3333.0,0.0,12286.0,1592.0,8305.0,-6779.0,0.0,3.0,1.0,9.0,4.0,5.0,36.0,1.0,1.4947140216827393
340,-1951.0,1301.0,-3131.0,0.0,11947.0,1131.0,8688.0,-6995.0,0.0,3.0,1.0,9.0,4.0,5.0,36.0,1.0,1.508664846420288
341,-1951.0,1301.0,-3131.0,0.0,11947.0,1131.0,8688.0,-6995.0,3.0,1.0,0.0,-9.0,-14.0,-22.0,-12.0,4.0,1.5115931034088135
342,-1951.0,1301.0,-3131.0,0.0,11947.0,1131.0,8688.0,-6995.0,-3.0,-3.0,-2.0,4.0,-4.0,0.0,5.0,-7.0,1.513392448425293
343,-2089.0,1051.0,-2946.0,0.0,11622.0,649.0,9035.0,-7162.0,-3.0,-3.0,-2.0,4.0,-4.0,0.0,5.0,-7.0,1.5223631858825684
344,-2089.0,1051.0,-2946.0,0.0,11622.0,649.0,9035.0,-7162.0,4.0,-1.0,-1.0,-6.0,-1.0,1.0,-9.0,20.0,1.5307862758636475
345,-2089.0,1051.0,-2946.0,0.0,11622.0,649.0,9035.0,-7162.0,-2.0,-2.0,5.0,2.0,11.0,1.0,40.0,3.0,1.5333259105682373
346,-2178.0,614.0,-2738.0,0.0,11335.0,134.0,9318.0,-7286.0,-2.0,-2.0,5.0,2.0,11.0,1.0,40.0,3.0,1.5451767444610596
347,-2178.0,614.0,-2738.0,0.0,11335.0,134.0,9318.0,-7286.0,5.0,1.0,1.0,0.0,6.0,-7.0,-11.0,5.0,1.5532021522521973
348,-2178.0,614.0,-2738.0,0.0,11335.0,134.0,9318.0,-7286.0,-6.0,-4.0,-3.0,-2.0,-17.0,-3.0,-41.0,-17.0,1.555469274520874
349,-1876.0,305.0,-2429.0,0.0,11084.0,-342.0,9529.0,-7393.0,-6.0,-4.0,-3.0,-2.0,-17.0,-3.0,-41.0,-17.0,1.5684242248535156
350,-1876.0,305.0,-2429.0,0.0,11084.0,-342.0,9529.0,-7393.0,2.0,-1.0,-4.0,-4.0,-7.0,16.0,-6.0,12.0,1.570958137512207
351,-1876.0,305.0,-2429.0,0.0,11084.0,-342.0,9529.0,-7393.0,3.0,-1.0,-2.0,0.0,-10.0,-17.0,30.0,8.0,1.573944091796875
352,-1595.0,248.0,-2041.0,0.0,10855.0,-752.0,9704.0,-7473.0,3.0,-1.0,-2.0,0.0,-10.0,-17.0,30.0,8.0,1.5934607982635498
353,-1595.0,248.0,-2041.0,0.0,10855.0,-752.0,9704.0,-7473.0,0.0,1.0,0.0,1.0,6.0,-3.0,-1.0,3.0,1.5984110832214355
354,-1595.0,248.0,-2041.0,0.0,10855.0,-752.0,9704.0,-7473.0,-1.0,-1.0,-2.0,-7.0,-1.0,-4.0,14.0,-6.0,1.600562334060669
355,-1225.0,388.0,-1557.0,0.0,10557.0,-1132.0,9950.0,-7529.0,-1.0,-1.0,-2.0,-7.0,-1.0,-4.0,14.0,-6.0,1.6049041748046875
356,-1225.0,388.0,-1557.0,0.0,10557.0,-1132.0,9950.0,-7529.0,-3.0,-1.0,-1.0,1.0,-5.0,0.0,-2.0,1.0,1.6130883693695068
357,-1225.0,388.0,-1557.0,0.0,10557.0,-1132.0,9950.0,-7529.0,0.0,1.0,1.0,1.0,5.0,19.0,12.0,-11.0,1.6150219440460205
358,-917.0,499.0,-925.0,0.0,10285.0,-1414.0,10182.0,-7548.0,0.0,1.0,1.0,1.0,5.0,19.0,12.0,-11.0,1.6201167106628418
359,-917.0,499.0,-925.0,0.0,10285.0,-1414.0,10182.0,-7548.0,-6.0,-7.0,-6.0,-10.0,-20.0,-41.0,-55.0,-21.0,1.6283960342407227
360,-917.0,499.0,-925.0,0.0,10285.0,-1414.0,10182.0,-7548.0,3.0,1.0,-3.0,-2.0,4.0,2.0,-19.0,7.0,1.6306378841400146
361,-336.0,494.0,-282.0,0.0,10066.0,-1569.0,10367.0,-7561.0,3.0,1.0,-3.0,-2.0,4.0,2.0,-19.0,7.0,1.643566608428955
362,-336.0,494.0,-282.0,0.0,10066.0,-1569.0,10367.0,-7561.0,-4.0,-1.0,-2.0,1.0,0.0,4.0,-4.0,-7.0,1.6507861614227295
363,-336.0,494.0,-282.0,0.0,10066.0,-1569.0,10367.0,-7561.0,-1.0,0.0,1.0,1.0,-1.0,1.0,18.0,5.0,1.6525964736938477
364,40.0,375.0,217.0,0.0,9914.0,-1628.0,10504.0,-7560.0,-1.0,0.0,1.0,1.0,-1.0,1.0,18.0,5.0,1.6647489070892334
365,40.0,375.0,217.0,0.0,9914.0,-1628.0,10504.0,-7560.0,-2.0,-3.0,-1.0,-3.0,3.0,7.0,-8.0,0.0,1.674234390258789
366,40.0,375.0,217.0,0.0,9914.0,-1628.0,10504.0,-7560.0,0.0,-4.0,-4.0,-6.0,-4.0,4.0,-1.0,1.0,1.677414894104004
367,199.0,230.0,755.0,0.0,9854.0,-1590.0,10598.0,-7515.0,0.0,-4.0,-4.0,-6.0,-4.0,4.0,-1.0,1.0,1.679839849472046
368,199.0,230.0,755.0,0.0,9854.0,-1590.0,10598.0,-7515.0,1.0,1.0,1.0,-2.0,-1.0,5.0,-1.0,0.0,1.6888384819030762
369,199.0,230.0,755.0,0.0,9854.0,-1590.0,10598.0,-7515.0,0.0,2.0,1.0,-1.0,-6.0,-3.0,-20.0,-1.0,1.691021203994751
370,149.0,1.0,1262.0,0.0,9883.0,-1496.0,10662.0,-7404.0,0.0,2.0,1.0,-1.0,-6.0,-3.0,-20.0,-1.0,1.7118492126464844
371,149.0,1.0,1262.0,0.0,9883.0,-1496.0,10662.0,-7404.0,1.0,-3.0,-2.0,0.0,2.0,4.0,4.0,0.0,1.7151551246643066
372,149.0,1.0,1262.0,0.0,9883.0,-1496.0,10662.0,-7404.0,0.0,0.0,1.0,-2.0,-2.0,-7.0,-2.0,-1.0,1.7185642719268799
373,25.0,-242.0,1663.0,0.0,10029.0,-1336.0,10668.0,-7228.0,0.0,0.0,1.0,-2.0,-2.0,-7.0,-2.0,-1.0,1.7263376712799072
374,25.0,-242.0,1663.0,0.0,10029.0,-1336.0,10668.0,-7228.0,0.0,-2.0,0.0,0.0,2.0,6.0,-3.0,0.0,1.7421526908874512
375,25.0,-242.0,1663.0,0.0,10029.0,-1336.0,10668.0,-7228.0,-2.0,-2.0,0.0,4.0,4.0,6.0,-6.0,-4.0,1.7439420223236084
376,172.0,-500.0,1839.0,0.0,10222.0,-1157.0,10628.0,-7046.0,-2.0,-2.0,0.0,4.0,4.0,6.0,-6.0,-4.0,1.745729923248291
377,172.0,-500.0,1839.0,0.0,10222.0,-1157.0,10628.0,-7046.0,-4.0,-2.0,-4.0,-5.0,-7.0,-14.0,13.0,-4.0,1.749906063079834
378,172.0,-500.0,1839.0,0.0,10222.0,-1157.0,10628.0,-7046.0,0.0,-1.0,-2.0,-1.0,-4.0,-8.0,-13.0,0.0,1.7539284229278564
379,654.0,-783.0,1871.0,0.0,10450.0,-940.0,10518.0,-6907.0,0.0,-1.0,-2.0,-1.0,-4.0,-8.0,-13.0,0.0,1.762620449066162
380,654.0,-783.0,1871.0,0.0,10450.0,-940.0,10518.0,-6907.0,-3.0,1.0,0.0,-2.0,2.0,8.0,-2.0,-1.0,1.7715156078338623
381,654.0,-783.0,1871.0,0.0,10450.0,-940.0,10518.0,-6907.0,2.0,2.0,0.0,0.0,-1.0,-1.0,4.0,2.0,1.774967908859253
382,1048.0,-948.0,2006.0,0.0,10707.0,-675.0,10353.0,-6793.0,2.0,2.0,0.0,0.0,-1.0,-1.0,4.0,2.0,1.786191463470459
383,1048.0,-948.0,2006.0,0.0,10707.0,-675.0,10353.0,-6793.0,1.0,2.0,3.0,2.0,-1.0,0.0,-6.0,0.0,1.7946021556854248
384,1048.0,-948.0,2006.0,0.0,10707.0,-675.0,10353.0,-6793.0,-2.0,-1.0,0.0,-2.0,1.0,-1.0,-3.0,1.0,1.7965054512023926
385,1504.0,-1051.0,2258.0,0.0,10990.0,-330.0,10137.0,-6690.0,-2.0,-1.0,0.0,-2.0,1.0,-1.0,-3.0,1.0,1.7996857166290283
386,1504.0,-1051.0,2258.0,0.0,10990.0,-330.0,10137.0,-6690.0,-3.0,-1.0,-2.0,-2.0,-5.0,-1.0,-10.0,-2.0,1.8168542385101318
387,1504.0,-1051.0,2258.0,0.0,10990.0,-330.0,10137.0,-6690.0,-1.0,-1.0,2.0,2.0,4.0,-1.0,-6.0,0.0,1.8203027248382568
388,1769.0,-1075.0,2632.0,0.0,11293.0,88.0,9889.0,-6564.0,-1.0,-1.0,2.0,2.0,4.0,-1.0,-6.0,0.0,1.8235383033752441
389,1769.0,-1075.0,2632.0,0.0,11293.0,88.0,9889.0,-6564.0,0.0,-2.0,-2.0,-4.0,-1.0,1.0,-3.0,-2.0,1.8305799961090088
390,1769.0,-1075.0,2632.0,0.0,11293.0,88.0,9889.0,-6564.0,-2.0,-2.0,-1.0,-3.0,-2.0,-3.0,-5.0,-3.0,1.8323659896850586
391,1960.0,-1002.0,2996.0,0.0,11600.0,574.0,9618.0,-6405.0,-2.0,-2.0,-1.0,-3.0,-2.0,-3.0,-5.0,-3.0,1.8545660972595215
392,1960.0,-1002.0,2996.0,0.0,11600.0,574.0,9618.0,-6405.0,-2.0,0.0,-1.0,-1.0,2.0,2.0,-9.0,0.0,1.8580718040466309
393,1960.0,-1002.0,2996.0,0.0,11600.0,574.0,9618.0,-6405.0,-2.0,0.0,-1.0,-1.0,2.0,2.0,-9.0,0.0,1.8622393608093262
394,1960.0,-1002.0,2996.0,0.0,11600.0,574.0,9618.0,-6405.0,1.0,0.0,1.0,-1.0,-2.0,-2.0,-2.0,-3.0,1.86397123336792
395,2224.0,-927.0,3306.0,0.0,11899.0,1129.0,9317.0,-6225.0,1.0,0.0,1.0,-1.0,-2.0,-2.0,-2.0,-3.0,1.865865707397461
396,2224.0,-927.0,3306.0,0.0,11899.0,1129.0,9317.0,-6225.0,1.0,0.0,0.0,5.0,6.0,-1.0,-15.0,-3.0,1.8677740097045898
397,2224.0,-927.0,3306.0,0.0,11899.0,1129.0,9317.0,-6225.0,-3.0,-5.0,-4.0,-4.0,-11.0,-9.0,-11.0,-1.0,1.8695416450500488
398,2728.0,-873.0,3554.0,0.0,12181.0,1776.0,8962.0,-6048.0,-3.0,-5.0,-4.0,-4.0,-11.0,-9.0,-11.0,-1.0,1.8824727535247803
399,2728.0,-873.0,3554.0,0.0,12181.0,1776.0,8962.0,-6048.0,1.0,2.0,-2.0,1.0,2.0,6.0,10.0,3.0,1.8910205364227295
400,2728.0,-873.0,3554.0,0.0,12181.0,1776.0,8962.0,-6048.0,1.0,0.0,0.0,1.0,3.0,1.0,3.0,1.0,1.8928358554840088
401,3012.0,-850.0,3721.0,0.0,12435.0,2477.0,8563.0,-5859.0,1.0,0.0,0.0,1.0,3.0,1.0,3.0,1.0,1.915478229522705
402,3012.0,-850.0,3721.0,0.0,12435.0,2477.0,8563.0,-5859.0,0.0,-2.0,0.0,3.0,1.0,-1.0,-5.0,3.0,1.9193742275238037
403,3012.0,-850.0,3721.0,0.0,12435.0,2477.0,8563.0,-5859.0,0.0,1.0,-1.0,2.0,0.0,-1.0,9.0,0.0,1.9230420589447021
404,3221.0,-805.0,3911.0,0.0,12658.0,3225.0,8121.0,-5642.0,0.0,1.0,-1.0,2.0,0.0,-1.0,9.0,0.0,1.9251515865325928
405,3221.0,-805.0,3911.0,0.0,12658.0,3225.0,8121.0,-5642.0,0.0,0.0,0.0,2.0,0.0,-1.0,5.0,3.0,1.9271416664123535
406,3221.0,-805.0,3911.0,0.0,12658.0,3225.0,8121.0,-5642.0,-4.0,-1.0,-1.0,0.0,0.0,-1.0,-13.0,-13.0,1.9289155006408691
407,3233.0,-741.0,4242.0,0.0,12856.0,4002.0,7646.0,-5354.0,-4.0,-1.0,-1.0,0.0,0.0,-1.0,-13.0,-13.0,1.9509315490722656
408,3233.0,-741.0,4242.0,0.0,12856.0,4002.0,7646.0,-5354.0,-2.0,-2.0,0.0,-1.0,-3.0,-2.0,6.0,-8.0,1.952784776687622
409,3233.0,-741.0,4242.0,0.0,12856.0,4002.0,7646.0,-5354.0,3.0,4.0,4.0,2.0,3.0,4.0,17.0,3.0,1.957261085510254
410,3109.0,-746.0,4599.0,0.0,13037.0,4778.0,7126.0,-4983.0,3.0,4.0,4.0,2.0,3.0,4.0,17.0,3.0,1.9648675918579102
411,3109.0,-746.0,4599.0,0.0,13037.0,4778.0,7126.0,-4983.0,-1.0,-1.0,-4.0,-3.0,-2.0,-7.0,-16.0,-3.0,1.9730944633483887
412,3109.0,-746.0,4599.0,0.0,13037.0,4778.0,7126.0,-4983.0,-1.0,-2.0,-2.0,-1.0,1.0,1.0,4.0,1.0,1.9749011993408203
413,3031.0,-835.0,4732.0,0.0,13189.0,5530.0,6557.0,-4570.0,-1.0,-2.0,-2.0,-1.0,1.0,1.0,4.0,1.0,1.97967529296875
414,3031.0,-835.0,4732.0,0.0,13189.0,5530.0,6557.0,-4570.0,1.0,0.0,2.0,0.0,2.0,6.0,9.0,6.0,1.9890961647033691
415,3031.0,-835.0,4732.0,0.0,13189.0,5530.0,6557.0,-4570.0,-1.0,-2.0,-2.0,0.0,0.0,-2.0,-10.0,3.0,1.9922969341278076
416,3111.0,-991.0,4618.0,0.0,13295.0,6254.0,5933.0,-4165.0,-1.0,-2.0,-2.0,0.0,0.0,-2.0,-10.0,3.0,2.0022172927856445
417,3111.0,-991.0,4618.0,0.0,13295.0,6254.0,5933.0,-4165.0,-1.0,-2.0,1.0,-1.0,5.0,5.0,16.0,2.0,2.0122008323669434
418,3111.0,-991.0,4618.0,0.0,13295.0,6254.0,5933.0,-4165.0,-4.0,-3.0,-4.0,-5.0,-9.0,-6.0,-6.0,1.0,2.015465497970581
419,3199.0,-1045.0,4121.0,0.0,13324.0,6938.0,5308.0,-3819.0,-4.0,-3.0,-4.0,-5.0,-9.0,-6.0,-6.0,1.0,2.0254383087158203
420,3199.0,-1045.0,4121.0,0.0,13324.0,6938.0,5308.0,-3819.0,-4.0,-1.0,5.0,2.0,0.0,2.0,0.0,2.0,2.0328528881073
421,3199.0,-1045.0,4121.0,0.0,13324.0,6938.0,5308.0,-3819.0,-2.0,0.0,1.0,-3.0,-3.0,-16.0,-3.0,-6.0,2.0346503257751465
422,2757.0,-1107.0,3735.0,0.0,13328.0,7517.0,4702.0,-3488.0,-2.0,0.0,1.0,-3.0,-3.0,-16.0,-3.0,-6.0,2.039717197418213
423,2757.0,-1107.0,3735.0,0.0,13328.0,7517.0,4702.0,-3488.0,-7.0,-5.0,2.0,0.0,-5.0,-6.0,2.0,-5.0,2.048185110092163
424,2757.0,-1107.0,3735.0,0.0,13328.0,7517.0,4702.0,-3488.0,-3.0,7.0,1.0,-3.0,7.0,8.0,-12.0,-11.0,2.0499963760375977
425,2109.0,-1373.0,3833.0,0.0,13361.0,7977.0,4065.0,-3120.0,-3.0,7.0,1.0,-3.0,7.0,8.0,-12.0,-11.0,2.063314914703369
426,2109.0,-1373.0,3833.0,0.0,13361.0,7977.0,4065.0,-3120.0,1.0,2.0,-3.0,1.0,0.0,0.0,0.0,-9.0,2.071786642074585
427,2109.0,-1373.0,3833.0,0.0,13361.0,7977.0,4065.0,-3120.0,3.0,0.0,-14.0,-3.0,3.0,11.0,-7.0,10.0,2.0750958919525146
428,1766.0,-1669.0,4152.0,0.0,13407.0,8370.0,3359.0,-2707.0,3.0,0.0,-14.0,-3.0,3.0,11.0,-7.0,10.0,2.084555149078369
429,1766.0,-1669.0,4152.0,0.0,13407.0,8370.0,3359.0,-2707.0,-4.0,-7.0,-5.0,-2.0,-3.0,0.0,-7.0,0.0,2.09560227394104
430,1766.0,-1669.0,4152.0,0.0,13407.0,8370.0,3359.0,-2707.0,8.0,17.0,5.0,5.0,5.0,-25.0,6.0,9.0,2.098673105239868
431,1336.0,-1834.0,4346.0,0.0,13460.0,8679.0,2614.0,-2257.0,8.0,17.0,5.0,5.0,5.0,-25.0,6.0,9.0,2.100598096847534
432,1336.0,-1834.0,4346.0,0.0,13460.0,8679.0,2614.0,-2257.0,-6.0,-6.0,-21.0,-6.0,-3.0,-3.0,-11.0,-7.0,2.108344078063965
433,1336.0,-1834.0,4346.0,0.0,13460.0,8679.0,2614.0,-2257.0,8.0,2.0,18.0,15.0,30.0,36.0,18.0,42.0,2.110156536102295
434,875.0,-2078.0,4106.0,0.0,13515.0,8881.0,1863.0,-1848.0,8.0,2.0,18.0,15.0,30.0,36.0,18.0,42.0,2.1238796710968018
435,875.0,-2078.0,4106.0,0.0,13515.0,8881.0,1863.0,-1848.0,-3.0,2.0,4.0,0.0,-6.0,-12.0,-12.0,-18.0,2.131772756576538
436,875.0,-2078.0,4106.0,0.0,13515.0,8881.0,1863.0,-1848.0,-16.0,-26.0,12.0,17.0,4.0,21.0,22.0,-1.0,2.134920835494995
437,916.0,-2545.0,3914.0,0.0,13529.0,9054.0,1058.0,-1511.0,-16.0,-26.0,12.0,17.0,4.0,21.0,22.0,-1.0,2.1454014778137207
438,916.0,-2545.0,3914.0,0.0,13529.0,9054.0,1058.0,-1511.0,-11.0,-29.0,-12.0,-30.0,-64.0,-38.0,-17.0,-12.0,2.148578405380249
439,916.0,-2545.0,3914.0,0.0,13529.0,9054.0,1058.0,-1511.0,-10.0,-20.0,5.0,-2.0,-15.0,-6.0,-8.0,-15.0,2.1533420085906982
440,1131.0,-2592.0,3961.0,0.0,13479.0,9236.0,235.0,-1171.0,-10.0,-20.0,5.0,-2.0,-15.0,-6.0,-8.0,-15.0,2.1689252853393555
441,1131.0,-2592.0,3961.0,0.0,13479.0,9236.0,235.0,-1171.0,-1.0,-35.0,-10.0,10.0,27.0,32.0,19.0,25.0,2.171858072280884
442,1131.0,-2592.0,3961.0,0.0,13479.0,9236.0,235.0,-1171.0,-8.0,1.0,3.0,-8.0,-20.0,-36.0,-37.0,-43.0,2.1748733520507812
443,1179.0,-2789.0,3879.0,0.0,13383.0,9391.0,-603.0,-867.0,-8.0,1.0,3.0,-8.0,-20.0,-36.0,-37.0,-43.0,2.193180799484253
444,1179.0,-2789.0,3879.0,0.0,13383.0,9391.0,-603.0,-867.0,7.0,11.0,-26.0,5.0,20.0,13.0,22.0,4.0,2.19748854637146
445,1179.0,-2789.0,3879.0,0.0,13383.0,9391.0,-603.0,-867.0,30.0,67.0,1.0,-26.0,-55.0,-17.0,-11.0,26.0,2.20115327835083
446,1298.0,-2970.0,3303.0,0.0,13238.0,9528.0,-1392.0,-676.0,30.0,67.0,1.0,-26.0,-55.0,-17.0,-11.0,26.0,2.2056944370269775
447,1298.0,-2970.0,3303.0,0.0,13238.0,9528.0,-1392.0,-676.0,-10.0,-27.0,25.0,6.0,-1.0,-7.0,-9.0,-7.0,2.2075986862182617
448,1298.0,-2970.0,3303.0,0.0,13238.0,9528.0,-1392.0,-676.0,31.0,1.0,19.0,1.0,-15.0,15.0,28.0,48.0,2.212161064147949
449,1210.0,-2595.0,3551.0,0.0,13074.0,9627.0,-2156.0,-405.0,31.0,1.0,19.0,1.0,-15.0,15.0,28.0,48.0,2.2288899421691895
450,1210.0,-2595.0,3551.0,0.0,13074.0,9627.0,-2156.0,-405.0,18.0,31.0,41.0,6.0,7.0,12.0,10.0,28.0,2.231787919998169
451,1210.0,-2595.0,3551.0,0.0,13074.0,9627.0,-2156.0,-405.0,-20.0,-16.0,1.0,-7.0,-7.0,-37.0,-6.0,-12.0,2.2347705364227295
452,1117.0,-2187.0,3672.0,0.0,12893.0,9694.0,-2866.0,-79.0,-20.0,-16.0,1.0,-7.0,-7.0,-37.0,-6.0,-12.0,2.24275803565979
453,1117.0,-2187.0,3672.0,0.0,12893.0,9694.0,-2866.0,-79.0,2.0,-17.0,-18.0,-6.0,10.0,4.0,-3.0,-11.0,2.250767707824707
454,1117.0,-2187.0,3672.0,0.0,12893.0,9694.0,-2866.0,-79.0,2.0,7.0,16.0,0.0,20.0,19.0,-4.0,-12.0,2.2525737285614014
455,796.0,-2479.0,3298.0,0.0,12715.0,9693.0,-3571.0,155.0,2.0,7.0,16.0,0.0,20.0,19.0,-4.0,-12.0,2.2648630142211914
456,796.0,-2479.0,3298.0,0.0,12715.0,9693.0,-3571.0,155.0,-7.0,9.0,-20.0,8.0,38.0,39.0,-5.0,-12.0,2.275115728378296
457,796.0,-2479.0,3298.0,0.0,12715.0,9693.0,-3571.0,155.0,-8.0,-2.0,-17.0,4.0,2.0,3.0,3.0,-24.0,2.278949499130249
458,731.0,-2458.0,2863.0,0.0,12530.0,9667.0,-4226.0,336.0,-8.0,-2.0,-17.0,4.0,2.0,3.0,3.0,-24.0,2.2887306213378906
459,731.0,-2458.0,2863.0,0.0,12530.0,9667.0,-4226.0,336.0,28.0,-34.0,5.0,30.0,18.0,14.0,43.0,98.0,2.291192054748535
460,731.0,-2458.0,2863.0,0.0,12530.0,9667.0,-4226.0,336.0,-3.0,-40.0,-18.0,17.0,60.0,23.0,-2.0,5.0,2.294981002807617
461,1303.0,-2045.0,2423.0,0.0,12278.0,9725.0,-4777.0,534.0,-3.0,-40.0,-18.0,17.0,60.0,23.0,-2.0,5.0,2.302978038787842
462,1303.0,-2045.0,2423.0,0.0,12278.0,9725.0,-4777.0,534.0,-19.0,-27.0,-17.0,-18.0,-24.0,-17.0,-8.0,-19.0,2.311683416366577
463,1303.0,-2045.0,2423.0,0.0,12278.0,9725.0,-4777.0,534.0,-6.0,12.0,-17.0,-11.0,-12.0,-8.0,-9.0,-7.0,2.313502788543701
464,2012.0,-1681.0,2060.0,0.0,11953.0,9886.0,-5221.0,751.0,-6.0,12.0,-17.0,-11.0,-12.0,-8.0,-9.0,-7.0,2.3255064487457275
465,2012.0,-1681.0,2060.0,0.0,11953.0,9886.0,-5221.0,751.0,-2.0,10.0,-6.0,-12.0,-12.0,-15.0,-19.0,-19.0,2.3273661136627197
466,2012.0,-1681.0,2060.0,0.0,11953.0,9886.0,-5221.0,751.0,-14.0,-38.0,-38.0,-6.0,-5.0,-7.0,-7.0,-20.0,2.332758903503418
467,2398.0,-1443.0,1994.0,0.0,11589.0,10087.0,-5601.0,994.0,-14.0,-38.0,-38.0,-6.0,-5.0,-7.0,-7.0,-20.0,2.3484368324279785
468,2398.0,-1443.0,1994.0,0.0,11589.0,10087.0,-5601.0,994.0,-4.0,-13.0,18.0,15.0,-12.0,-30.0,-22.0,-15.0,2.3503339290618896
469,2398.0,-1443.0,1994.0,0.0,11589.0,10087.0,-5601.0,994.0,-12.0,-17.0,-1.0,-9.0,-5.0,4.0,-1.0,3.0,2.3521244525909424
470,2112.0,-1246.0,1817.0,0.0,11259.0,10250.0,-5926.0,1210.0,-12.0,-17.0,-1.0,-9.0,-5.0,4.0,-1.0,3.0,2.371542453765869
471,2112.0,-1246.0,1817.0,0.0,11259.0,10250.0,-5926.0,1210.0,30.0,76.0,59.0,12.0,-4.0,-3.0,18.0,6.0,2.3792638778686523
472,2112.0,-1246.0,1817.0,0.0,11259.0,10250.0,-5926.0,1210.0,3.0,-15.0,-11.0,0.0,5.0,-1.0,-35.0,-5.0,2.3811721801757812
473,1804.0,-1028.0,1447.0,0.0,10978.0,10384.0,-6178.0,1382.0,3.0,-15.0,-11.0,0.0,5.0,-1.0,-35.0,-5.0,2.3939435482025146
474,1804.0,-1028.0,1447.0,0.0,10978.0,10384.0,-6178.0,1382.0,-8.0,3.0,-21.0,-14.0,-6.0,3.0,-20.0,-19.0,2.397092342376709
475,1804.0,-1028.0,1447.0,0.0,10978.0,10384.0,-6178.0,1382.0,27.0,43.0,74.0,17.0,7.0,16.0,1.0,17.0,2.4011638164520264
476,1551.0,-759.0,1094.0,0.0,10790.0,10482.0,-6314.0,1502.0,27.0,43.0,74.0,17.0,7.0,16.0,1.0,17.0,2.4344637393951416
477,1551.0,-759.0,1094.0,0.0,10790.0,10482.0,-6314.0,1502.0,-22.0,4.0,23.0,13.0,46.0,40.0,4.0,-21.0,2.438692569732666
478,1551.0,-759.0,1094.0,0.0,10790.0,10482.0,-6314.0,1502.0,-22.0,-18.0,-9.0,-17.0,-5.0,0.0,-18.0,-4.0,2.4434494972229004
479,918.0,-502.0,888.0,0.0,10700.0,10521.0,-6388.0,1561.0,-22.0,-18.0,-9.0,-17.0,-5.0,0.0,-18.0,-4.0,2.446441888809204
480,918.0,-502.0,888.0,0.0,10700.0,10521.0,-6388.0,1561.0,3.0,33.0,46.0,13.0,8.0,-13.0,12.0,12.0,2.4482967853546143
481,918.0,-502.0,888.0,0.0,10700.0,10521.0,-6388.0,1561.0,-4.0,5.0,-22.0,-2.0,-10.0,3.0,3.0,7.0,2.4501309394836426
482,165.0,-83.0,526.0,0.0,10717.0,10500.0,-6391.0,1571.0,-4.0,5.0,-22.0,-2.0,-10.0,3.0,3.0,7.0,2.4533920288085938
483,165.0,-83.0,526.0,0.0,10717.0,10500.0,-6391.0,1571.0,-26.0,-48.0,-65.0,-20.0,-43.0,-28.0,-32.0,-23.0,2.4556941986083984
484,165.0,-83.0,526.0,0.0,10717.0,10500.0,-6391.0,1571.0,13.0,33.0,14.0,2.0,-10.0,-7.0,-1.0,1.0,2.4575700759887695
485,-119.0,185.0,209.0,0.0,10762.0,10474.0,-6358.0,1573.0,13.0,33.0,14.0,2.0,-10.0,-7.0,-1.0,1.0,2.4778425693511963
486,-119.0,185.0,209.0,0.0,10762.0,10474.0,-6358.0,1573.0,-5.0,-10.0,-22.0,-4.0,-5.0,-2.0,-13.0,-8.0,2.479790687561035
487,-119.0,185.0,209.0,0.0,10762.0,10474.0,-6358.0,1573.0,-27.0,-81.0,-45.0,3.0,23.0,-1.0,9.0,32.0,2.481611728668213
488,-263.0,365.0,-281.0,0.0,10832.0,10464.0,-6264.0,1538.0,-27.0,-81.0,-45.0,3.0,23.0,-1.0,9.0,32.0,2.4904308319091797
489,-263.0,365.0,-281.0,0.0,10832.0,10464.0,-6264.0,1538.0,-36.0,-37.0,-37.0,-27.0,-23.0,-68.0,-61.0,-31.0,2.498325824737549
490,-263.0,365.0,-281.0,0.0,10832.0,10464.0,-6264.0,1538.0,38.0,56.0,-20.0,-1.0,12.0,18.0,-3.0,45.0,2.5002713203430176
491,-333.0,521.0,-451.0,0.0,10907.0,10456.0,-6153.0,1511.0,38.0,56.0,-20.0,-1.0,12.0,18.0,-3.0,45.0,2.513559579849243
492,-333.0,521.0,-451.0,0.0,10907.0,10456.0,-6153.0,1511.0,-4.0,-6.0,0.0,-13.0,-1.0,19.0,12.0,5.0,2.5167386531829834
493,-333.0,521.0,-451.0,0.0,10907.0,10456.0,-6153.0,1511.0,2.0,-17.0,-3.0,4.0,-3.0,-15.0,2.0,-10.0,2.5198922157287598
494,-625.0,557.0,-494.0,0.0,10994.0,10425.0,-6058.0,1476.0,2.0,-17.0,-3.0,4.0,-3.0,-15.0,2.0,-10.0,2.537121295928955
495,-625.0,557.0,-494.0,0.0,10994.0,10425.0,-6058.0,1476.0,14.0,29.0,10.0,3.0,4.0,20.0,8.0,2.0,2.5408942699432373
496,-625.0,557.0,-494.0,0.0,10994.0,10425.0,-6058.0,1476.0,-11.0,-45.0,-17.0,-6.0,-9.0,-4.0,-25.0,-14.0,2.544283151626587
497,-621.0,614.0,-554.0,0.0,11085.0,10388.0,-5960.0,1456.0,-11.0,-45.0,-17.0,-6.0,-9.0,-4.0,-25.0,-14.0,2.5507404804229736
498,-621.0,614.0,-554.0,0.0,11085.0,10388.0,-5960.0,1456.0,6.0,18.0,32.0,7.0,-33.0,-33.0,-14.0,-35.0,2.558248281478882
499,-621.0,614.0,-554.0,0.0,11085.0,10388.0,-5960.0,1456.0,-4.0,41.0,0.0,1.0,24.0,2.0,-41.0,-42.0,2.561255693435669
