,Gyro 0,Gyro 1,Gyro 2,Label,Orientation 0,Orientation 1,Orientation 2,Orientation 3,Sensor 0,Sensor 1,Sensor 2,Sensor 3,Sensor 4,Sensor 5,Sensor 6,Sensor 7,Timestamp
0,-46.0,-57.0,-28.0,0.0,10577.0,11443.0,-3725.0,3424.0,0.0,2.0,2.0,-5.0,-1.0,-1.0,-2.0,-1.0,1.9073486328125e-06
1,-46.0,-57.0,-28.0,0.0,10577.0,11443.0,-3725.0,3424.0,0.0,0.0,6.0,-3.0,0.0,0.0,-3.0,0.0,0.002299070358276367
2,-46.0,-57.0,-28.0,0.0,10577.0,11443.0,-3725.0,3424.0,-4.0,0.0,-1.0,-1.0,-7.0,-1.0,-5.0,-2.0,0.005380392074584961
3,-62.0,-84.0,-34.0,0.0,10580.0,11443.0,-3734.0,3407.0,-4.0,0.0,-1.0,-1.0,-7.0,-1.0,-5.0,-2.0,0.00799107551574707
4,-62.0,-84.0,-34.0,0.0,10580.0,11443.0,-3734.0,3407.0,-1.0,-4.0,-3.0,-4.0,-4.0,-1.0,4.0,-1.0,0.01123356819152832
5,-58.0,-114.0,-32.0,0.0,10579.0,11445.0,-3748.0,3387.0,-1.0,-4.0,-3.0,-4.0,-4.0,-1.0,4.0,-1.0,0.01341104507446289
6,-58.0,-114.0,-32.0,0.0,10579.0,11445.0,-3748.0,3387.0,2.0,3.0,2.0,1.0,0.0,0.0,-1.0,2.0,0.015265226364135742
7,-58.0,-114.0,-32.0,0.0,10579.0,11445.0,-3748.0,3387.0,-2.0,-3.0,-5.0,4.0,2.0,-1.0,-3.0,-2.0,0.017052650451660156
8,-8.0,-100.0,-9.0,0.0,10573.0,11452.0,-3758.0,3370.0,-2.0,-3.0,-5.0,4.0,2.0,-1.0,-3.0,-2.0,0.020246028900146484
9,-8.0,-100.0,-9.0,0.0,10573.0,11452.0,-3758.0,3370.0,-1.0,0.0,0.0,2.0,-1.0,-3.0,0.0,-1.0,0.022930622100830078
10,-8.0,-100.0,-9.0,0.0,10573.0,11452.0,-3758.0,3370.0,2.0,-2.0,2.0,1.0,4.0,7.0,-1.0,0.0,0.025135040283203125
11,5.0,-75.0,24.0,0.0,10568.0,11457.0,-3766.0,3359.0,2.0,-2.0,2.0,1.0,4.0,7.0,-1.0,0.0,0.0269775390625
12,5.0,-75.0,24.0,0.0,10568.0,11457.0,-3766.0,3359.0,-1.0,-2.0,-1.0,-4.0,-8.0,-3.0,0.0,-2.0,0.028844356536865234
13,5.0,-75.0,24.0,0.0,10568.0,11457.0,-3766.0,3359.0,-3.0,-6.0,-6.0,0.0,5.0,3.0,-7.0,-1.0,0.030616283416748047
14,-50.0,-69.0,26.0,0.0,10568.0,11456.0,-3778.0,3349.0,-3.0,-6.0,-6.0,0.0,5.0,3.0,-7.0,-1.0,0.03238940238952637
15,-50.0,-69.0,26.0,0.0,10568.0,11456.0,-3778.0,3349.0,1.0,1.0,2.0,-2.0,-2.0,0.0,-1.0,-1.0,0.03430604934692383
16,-50.0,-69.0,26.0,0.0,10568.0,11456.0,-3778.0,3349.0,-2.0,-2.0,1.0,10.0,2.0,-1.0,-4.0,-1.0,0.036112070083618164
17,-49.0,-79.0,-7.0,0.0,10570.0,11453.0,-3792.0,3341.0,-2.0,-2.0,1.0,10.0,2.0,-1.0,-4.0,-1.0,0.03789472579956055
18,-49.0,-79.0,-7.0,0.0,10570.0,11453.0,-3792.0,3341.0,-1.0,8.0,4.0,0.0,-2.0,0.0,-1.0,-2.0,0.04091691970825195
19,-49.0,-79.0,-7.0,0.0,10570.0,11453.0,-3792.0,3341.0,0.0,5.0,3.0,0.0,0.0,-3.0,-6.0,1.0,0.04277944564819336
20,35.0,-89.0,7.0,0.0,10559.0,11460.0,-3805.0,3334.0,0.0,5.0,3.0,0.0,0.0,-3.0,-6.0,1.0,0.04456472396850586
21,35.0,-89.0,7.0,0.0,10559.0,11460.0,-3805.0,3334.0,-4.0,-9.0,-6.0,-2.0,-5.0,-7.0,0.0,-3.0,0.046398162841796875
22,35.0,-89.0,7.0,0.0,10559.0,11460.0,-3805.0,3334.0,1.0,2.0,1.0,-3.0,-3.0,-4.0,-3.0,-2.0,0.04815506935119629
23,20.0,-86.0,31.0,0.0,10549.0,11466.0,-3819.0,3328.0,1.0,2.0,1.0,-3.0,-3.0,-4.0,-3.0,-2.0,0.05002307891845703
24,20.0,-86.0,31.0,0.0,10549.0,11466.0,-3819.0,3328.0,-1.0,-4.0,4.0,3.0,3.0,-5.0,-1.0,-1.0,0.05270862579345703
25,20.0,-86.0,31.0,0.0,10549.0,11466.0,-3819.0,3328.0,-1.0,-1.0,0.0,-4.0,-2.0,-3.0,2.0,-1.0,0.05637049674987793
26,12.0,-46.0,29.0,0.0,10544.0,11468.0,-3829.0,3327.0,-1.0,-1.0,0.0,-4.0,-2.0,-3.0,2.0,-1.0,0.058736562728881836
27,12.0,-46.0,29.0,0.0,10544.0,11468.0,-3829.0,3327.0,0.0,-1.0,-4.0,2.0,3.0,4.0,-1.0,-1.0,0.06063389778137207
28,12.0,-46.0,29.0,0.0,10544.0,11468.0,-3829.0,3327.0,-1.0,-1.0,-1.0,-2.0,-2.0,-1.0,-3.0,0.0,0.06239628791809082
29,-11.0,-25.0,46.0,0.0,10544.0,11463.0,-3838.0,3331.0,-1.0,-1.0,-1.0,-2.0,-2.0,-1.0,-3.0,0.0,0.06416964530944824
30,-11.0,-25.0,46.0,0.0,10544.0,11463.0,-3838.0,3331.0,7.0,9.0,-1.0,6.0,9.0,16.0,6.0,3.0,0.06602263450622559
31,-11.0,-25.0,46.0,0.0,10544.0,11463.0,-3838.0,3331.0,2.0,18.0,16.0,-5.0,-7.0,-2.0,-6.0,-1.0,0.06784296035766602
32,2.0,-21.0,46.0,0.0,10545.0,11458.0,-3847.0,3338.0,2.0,18.0,16.0,-5.0,-7.0,-2.0,-6.0,-1.0,0.06986451148986816
33,2.0,-21.0,46.0,0.0,10545.0,11458.0,-3847.0,3338.0,-4.0,-4.0,-5.0,0.0,1.0,1.0,0.0,-3.0,0.07173776626586914
34,2.0,-21.0,46.0,0.0,10545.0,11458.0,-3847.0,3338.0,0.0,-7.0,-6.0,-2.0,-1.0,-1.0,2.0,-1.0,0.07350373268127441
35,-34.0,-35.0,47.0,0.0,10547.0,11450.0,-3861.0,3342.0,0.0,-7.0,-6.0,-2.0,-1.0,-1.0,2.0,-1.0,0.07531237602233887
36,-34.0,-35.0,47.0,0.0,10547.0,11450.0,-3861.0,3342.0,0.0,-2.0,1.0,0.0,0.0,-5.0,-3.0,-2.0,0.0771780014038086
37,-34.0,-35.0,47.0,0.0,10547.0,11450.0,-3861.0,3342.0,-2.0,-3.0,-3.0,3.0,2.0,-3.0,-3.0,1.0,0.07892870903015137
38,-25.0,-24.0,19.0,0.0,10551.0,11442.0,-3870.0,3345.0,-2.0,-3.0,-3.0,3.0,2.0,-3.0,-3.0,1.0,0.08083653450012207
39,-25.0,-24.0,19.0,0.0,10551.0,11442.0,-3870.0,3345.0,-2.0,-3.0,-2.0,-6.0,-8.0,-15.0,-3.0,-4.0,0.08359813690185547
40,-25.0,-24.0,19.0,0.0,10551.0,11442.0,-3870.0,3345.0,-3.0,-4.0,-3.0,4.0,-1.0,1.0,-3.0,-1.0,0.08566832542419434
41,-99.0,-14.0,28.0,0.0,10565.0,11424.0,-3881.0,3349.0,-3.0,-4.0,-3.0,4.0,-1.0,1.0,-3.0,-1.0,0.08744382858276367
42,-99.0,-14.0,28.0,0.0,10565.0,11424.0,-3881.0,3349.0,2.0,2.0,3.0,-2.0,-3.0,-2.0,-1.0,1.0,0.09048247337341309
43,-99.0,-14.0,28.0,0.0,10565.0,11424.0,-3881.0,3349.0,1.0,-2.0,-1.0,-2.0,2.0,-1.0,2.0,-2.0,0.09250307083129883
44,-88.0,-7.0,6.0,0.0,10573.0,11414.0,-3890.0,3350.0,1.0,-2.0,-1.0,-2.0,2.0,-1.0,2.0,-2.0,0.09429144859313965
45,-88.0,-7.0,6.0,0.0,10573.0,11414.0,-3890.0,3350.0,2.0,11.0,0.0,-7.0,-3.0,0.0,-2.0,1.0,0.09611773490905762
46,-88.0,-7.0,6.0,0.0,10573.0,11414.0,-3890.0,3350.0,-2.0,-2.0,0.0,-6.0,-5.0,-2.0,-3.0,-3.0,0.09789848327636719
47,-89.0,36.0,42.0,0.0,10582.0,11401.0,-3897.0,3357.0,-2.0,-2.0,0.0,-6.0,-5.0,-2.0,-3.0,-3.0,0.09964656829833984
48,-89.0,36.0,42.0,0.0,10582.0,11401.0,-3897.0,3357.0,-4.0,-7.0,-7.0,0.0,-2.0,-5.0,-2.0,-2.0,0.1017310619354248
49,-89.0,36.0,42.0,0.0,10582.0,11401.0,-3897.0,3357.0,2.0,2.0,-1.0,2.0,4.0,0.0,-3.0,2.0,0.10355162620544434
50,-67.0,50.0,46.0,0.0,10589.0,11390.0,-3901.0,3367.0,2.0,2.0,-1.0,2.0,4.0,0.0,-3.0,2.0,0.10532546043395996
51,-67.0,50.0,46.0,0.0,10589.0,11390.0,-3901.0,3367.0,-1.0,2.0,3.0,5.0,1.0,-2.0,0.0,1.0,0.10714483261108398
52,-67.0,50.0,46.0,0.0,10589.0,11390.0,-3901.0,3367.0,-4.0,-3.0,-3.0,-1.0,-2.0,-3.0,3.0,-1.0,0.10893988609313965
53,2.0,66.0,45.0,0.0,10588.0,11389.0,-3897.0,3377.0,-4.0,-3.0,-3.0,-1.0,-2.0,-3.0,3.0,-1.0,0.11071491241455078
54,2.0,66.0,45.0,0.0,10588.0,11389.0,-3897.0,3377.0,-2.0,-6.0,-1.0,4.0,2.0,1.0,0.0,-1.0,0.11329412460327148
55,2.0,66.0,45.0,0.0,10588.0,11389.0,-3897.0,3377.0,-2.0,-2.0,-3.0,0.0,0.0,-2.0,-3.0,-2.0,0.11557173728942871
56,-1.0,74.0,43.0,0.0,10588.0,11389.0,-3891.0,3385.0,-2.0,-2.0,-3.0,0.0,0.0,-2.0,-3.0,-2.0,0.11738109588623047
57,-1.0,74.0,43.0,0.0,10588.0,11389.0,-3891.0,3385.0,-1.0,-5.0,-5.0,-6.0,-3.0,-9.0,0.0,0.0,0.11927056312561035
58,-1.0,74.0,43.0,0.0,10588.0,11389.0,-3891.0,3385.0,1.0,-2.0,-4.0,-3.0,-6.0,1.0,-3.0,0.0,0.12103748321533203
59,-55.0,93.0,67.0,0.0,10595.0,11382.0,-3885.0,3395.0,1.0,-2.0,-4.0,-3.0,-6.0,1.0,-3.0,0.0,0.12398815155029297
60,-55.0,93.0,67.0,0.0,10595.0,11382.0,-3885.0,3395.0,-1.0,-8.0,-7.0,-4.0,2.0,1.0,-1.0,-1.0,0.12590456008911133
61,-55.0,93.0,67.0,0.0,10595.0,11382.0,-3885.0,3395.0,1.0,6.0,0.0,-3.0,1.0,-1.0,2.0,1.0,0.12768173217773438
62,-68.0,103.0,37.0,0.0,10607.0,11370.0,-3878.0,3406.0,1.0,6.0,0.0,-3.0,1.0,-1.0,2.0,1.0,0.12946391105651855
63,-68.0,103.0,37.0,0.0,10607.0,11370.0,-3878.0,3406.0,2.0,2.0,2.0,0.0,0.0,4.0,-1.0,1.0,0.1313188076019287
64,-68.0,103.0,37.0,0.0,10607.0,11370.0,-3878.0,3406.0,-4.0,-3.0,0.0,-2.0,-2.0,2.0,-1.0,-3.0,0.1331028938293457
65,-3.0,91.0,30.0,0.0,10607.0,11369.0,-3870.0,3417.0,-4.0,-3.0,0.0,-2.0,-2.0,2.0,-1.0,-3.0,0.13509249687194824
66,-3.0,91.0,30.0,0.0,10607.0,11369.0,-3870.0,3417.0,-3.0,-3.0,-1.0,-6.0,-2.0,2.0,1.0,0.0,0.1369948387145996
67,-3.0,91.0,30.0,0.0,10607.0,11369.0,-3870.0,3417.0,0.0,0.0,0.0,1.0,-1.0,-1.0,-3.0,1.0,0.13877296447753906
68,-24.0,66.0,30.0,0.0,10609.0,11368.0,-3864.0,3421.0,0.0,0.0,0.0,1.0,-1.0,-1.0,-3.0,1.0,0.14059114456176758
69,-24.0,66.0,30.0,0.0,10609.0,11368.0,-3864.0,3421.0,0.0,0.0,0.0,1.0,-1.0,-2.0,-1.0,-2.0,0.14258027076721191
70,-24.0,66.0,30.0,0.0,10609.0,11368.0,-3864.0,3421.0,1.0,1.0,4.0,0.0,0.0,0.0,2.0,1.0,0.14530539512634277
71,-82.0,43.0,33.0,0.0,10615.0,11363.0,-3864.0,3421.0,1.0,1.0,4.0,0.0,0.0,0.0,2.0,1.0,0.147369384765625
72,-82.0,43.0,33.0,0.0,10615.0,11363.0,-3864.0,3421.0,-3.0,3.0,3.0,-3.0,-2.0,-6.0,-5.0,-1.0,0.14923381805419922
73,-82.0,43.0,33.0,0.0,10615.0,11363.0,-3864.0,3421.0,-4.0,-8.0,-9.0,-3.0,-1.0,-2.0,-3.0,-2.0,0.1510171890258789
74,-104.0,38.0,41.0,0.0,10624.0,11355.0,-3865.0,3419.0,-4.0,-8.0,-9.0,-3.0,-1.0,-2.0,-3.0,-2.0,0.15281987190246582
75,-104.0,38.0,41.0,0.0,10624.0,11355.0,-3865.0,3419.0,-2.0,-3.0,3.0,3.0,3.0,3.0,2.0,0.0,0.1548004150390625
76,-104.0,38.0,41.0,0.0,10624.0,11355.0,-3865.0,3419.0,0.0,-4.0,-2.0,1.0,-1.0,-1.0,-2.0,-2.0,0.15761089324951172
77,-76.0,21.0,-4.0,0.0,10629.0,11352.0,-3864.0,3413.0,0.0,-4.0,-2.0,1.0,-1.0,-1.0,-2.0,-2.0,0.15940093994140625
78,-76.0,21.0,-4.0,0.0,10629.0,11352.0,-3864.0,3413.0,-1.0,0.0,-1.0,-1.0,-2.0,2.0,-1.0,-1.0,0.1612553596496582
79,-76.0,21.0,-4.0,0.0,10629.0,11352.0,-3864.0,3413.0,0.0,0.0,4.0,2.0,5.0,-7.0,2.0,0.0,0.163069486618042
80,-13.0,15.0,-29.0,0.0,10627.0,11356.0,-3861.0,3409.0,0.0,0.0,4.0,2.0,5.0,-7.0,2.0,0.0,0.1648387908935547
81,-13.0,15.0,-29.0,0.0,10627.0,11356.0,-3861.0,3409.0,1.0,5.0,8.0,0.0,-5.0,0.0,-1.0,1.0,0.16666746139526367
82,-13.0,15.0,-29.0,0.0,10627.0,11356.0,-3861.0,3409.0,-1.0,-4.0,1.0,1.0,0.0,2.0,0.0,-1.0,0.16866087913513184
83,19.0,39.0,-22.0,0.0,10622.0,11364.0,-3853.0,3408.0,-1.0,-4.0,1.0,1.0,0.0,2.0,0.0,-1.0,0.17045092582702637
84,19.0,39.0,-22.0,0.0,10622.0,11364.0,-3853.0,3408.0,-1.0,-11.0,-12.0,1.0,1.0,-1.0,0.0,-2.0,0.1722855567932129
85,19.0,39.0,-22.0,0.0,10622.0,11364.0,-3853.0,3408.0,-2.0,2.0,5.0,3.0,4.0,-1.0,-1.0,-2.0,0.17473697662353516
86,41.0,22.0,-27.0,0.0,10612.0,11375.0,-3846.0,3406.0,-2.0,2.0,5.0,3.0,4.0,-1.0,-1.0,-2.0,0.177046537399292
87,41.0,22.0,-27.0,0.0,10612.0,11375.0,-3846.0,3406.0,-2.0,-4.0,-5.0,-4.0,-4.0,-2.0,-1.0,0.0,0.17899394035339355
88,41.0,22.0,-27.0,0.0,10612.0,11375.0,-3846.0,3406.0,1.0,0.0,-3.0,-2.0,-5.0,-6.0,-2.0,-1.0,0.18076372146606445
89,58.0,6.0,-38.0,0.0,10602.0,11388.0,-3840.0,3403.0,1.0,0.0,-3.0,-2.0,-5.0,-6.0,-2.0,-1.0,0.1825273036956787
90,58.0,6.0,-38.0,0.0,10602.0,11388.0,-3840.0,3403.0,-3.0,-4.0,-1.0,5.0,2.0,3.0,-1.0,-4.0,0.18435955047607422
91,58.0,6.0,-38.0,0.0,10602.0,11388.0,-3840.0,3403.0,0.0,2.0,1.0,0.0,-2.0,-1.0,0.0,-1.0,0.18613219261169434
92,40.0,23.0,-53.0,0.0,10596.0,11398.0,-3830.0,3400.0,0.0,2.0,1.0,0.0,-2.0,-1.0,0.0,-1.0,0.18789458274841309
93,40.0,23.0,-53.0,0.0,10596.0,11398.0,-3830.0,3400.0,0.0,0.0,3.0,-3.0,-1.0,-4.0,-1.0,-1.0,0.19101166725158691
94,40.0,23.0,-53.0,0.0,10596.0,11398.0,-3830.0,3400.0,-3.0,-4.0,-4.0,-3.0,-3.0,4.0,-4.0,-1.0,0.19288134574890137
95,97.0,41.0,-51.0,0.0,10587.0,11411.0,-3815.0,3402.0,-3.0,-4.0,-4.0,-3.0,-3.0,4.0,-4.0,-1.0,0.19463825225830078
96,97.0,41.0,-51.0,0.0,10587.0,11411.0,-3815.0,3402.0,1.0,3.0,-2.0,-1.0,-3.0,1.0,0.0,2.0,0.19647836685180664
97,97.0,41.0,-51.0,0.0,10587.0,11411.0,-3815.0,3402.0,3.0,9.0,1.0,-3.0,-7.0,1.0,1.0,-1.0,0.19823360443115234
98,80.0,26.0,-47.0,0.0,10583.0,11420.0,-3799.0,3401.0,3.0,9.0,1.0,-3.0,-7.0,1.0,1.0,-1.0,0.2000284194946289
99,80.0,26.0,-47.0,0.0,10583.0,11420.0,-3799.0,3401.0,3.0,7.0,-2.0,-2.0,1.0,-1.0,-2.0,0.0,0.20214581489562988
100,80.0,26.0,-47.0,0.0,10583.0,11420.0,-3799.0,3401.0,-4.0,-8.0,-10.0,-4.0,-5.0,-9.0,-2.0,-3.0,0.2040555477142334
101,81.0,13.0,-36.0,0.0,10575.0,11431.0,-3788.0,3399.0,-4.0,-8.0,-10.0,-4.0,-5.0,-9.0,-2.0,-3.0,0.20682907104492188
102,81.0,13.0,-36.0,0.0,10575.0,11431.0,-3788.0,3399.0,-2.0,0.0,-2.0,-2.0,0.0,1.0,-1.0,0.0,0.2088932991027832
103,81.0,13.0,-36.0,0.0,10575.0,11431.0,-3788.0,3399.0,1.0,5.0,7.0,-2.0,-4.0,0.0,-2.0,2.0,0.2106766700744629
104,17.0,-5.0,-32.0,0.0,10573.0,11437.0,-3782.0,3392.0,1.0,5.0,7.0,-2.0,-4.0,0.0,-2.0,2.0,0.21243643760681152
105,17.0,-5.0,-32.0,0.0,10573.0,11437.0,-3782.0,3392.0,1.0,5.0,8.0,2.0,5.0,4.0,1.0,-1.0,0.21431660652160645
106,17.0,-5.0,-32.0,0.0,10573.0,11437.0,-3782.0,3392.0,-3.0,-8.0,-8.0,-6.0,-5.0,-15.0,-4.0,-2.0,0.21607613563537598
107,7.0,3.0,-27.0,0.0,10572.0,11442.0,-3777.0,3387.0,-3.0,-8.0,-8.0,-6.0,-5.0,-15.0,-4.0,-2.0,0.21785187721252441
108,7.0,3.0,-27.0,0.0,10572.0,11442.0,-3777.0,3387.0,-3.0,-7.0,-4.0,-2.0,-2.0,-2.0,-2.0,-4.0,0.2196807861328125
109,7.0,3.0,-27.0,0.0,10572.0,11442.0,-3777.0,3387.0,1.0,0.0,1.0,3.0,8.0,8.0,4.0,0.0,0.22162246704101562
110,-21.0,8.0,-22.0,0.0,10573.0,11444.0,-3772.0,3381.0,1.0,0.0,1.0,3.0,8.0,8.0,4.0,0.0,0.22445201873779297
111,-21.0,8.0,-22.0,0.0,10573.0,11444.0,-3772.0,3381.0,-3.0,-9.0,-6.0,-1.0,-1.0,-2.0,-1.0,0.0,0.22635889053344727
112,-21.0,8.0,-22.0,0.0,10573.0,11444.0,-3772.0,3381.0,-1.0,-1.0,-3.0,3.0,3.0,3.0,-2.0,2.0,0.2281177043914795
113,6.0,7.0,-33.0,0.0,10575.0,11446.0,-3764.0,3376.0,-1.0,-1.0,-3.0,3.0,3.0,3.0,-2.0,2.0,0.2298886775970459
114,6.0,7.0,-33.0,0.0,10575.0,11446.0,-3764.0,3376.0,2.0,3.0,3.0,0.0,2.0,1.0,0.0,-2.0,0.2317190170288086
115,6.0,7.0,-33.0,0.0,10575.0,11446.0,-3764.0,3376.0,-3.0,-5.0,-3.0,0.0,-3.0,1.0,-2.0,-2.0,0.23348736763000488
116,19.0,-3.0,-17.0,0.0,10573.0,11451.0,-3760.0,3372.0,-3.0,-5.0,-3.0,0.0,-3.0,1.0,-2.0,-2.0,0.23613262176513672
117,19.0,-3.0,-17.0,0.0,10573.0,11451.0,-3760.0,3372.0,-2.0,3.0,4.0,-1.0,-1.0,-3.0,-2.0,0.0,0.23918938636779785
118,19.0,-3.0,-17.0,0.0,10573.0,11451.0,-3760.0,3372.0,5.0,-2.0,1.0,0.0,-1.0,2.0,2.0,2.0,0.24190568923950195
119,-18.0,-3.0,-3.0,0.0,10576.0,11450.0,-3758.0,3368.0,5.0,-2.0,1.0,0.0,-1.0,2.0,2.0,2.0,0.24369311332702637
120,-18.0,-3.0,-3.0,0.0,10576.0,11450.0,-3758.0,3368.0,0.0,1.0,0.0,-1.0,0.0,-1.0,-3.0,-2.0,0.24553823471069336
121,-18.0,-3.0,-3.0,0.0,10576.0,11450.0,-3758.0,3368.0,-4.0,-4.0,-5.0,0.0,2.0,-9.0,-2.0,0.0,0.2472972869873047
122,-16.0,-27.0,14.0,0.0,10574.0,11452.0,-3762.0,3362.0,-4.0,-4.0,-5.0,0.0,2.0,-9.0,-2.0,0.0,0.26281285285949707
123,-16.0,-27.0,14.0,0.0,10574.0,11452.0,-3762.0,3362.0,1.0,-6.0,-6.0,-1.0,-8.0,-3.0,0.0,0.0,0.2664029598236084
124,-16.0,-27.0,14.0,0.0,10574.0,11452.0,-3762.0,3362.0,-1.0,3.0,2.0,2.0,0.0,2.0,-3.0,-1.0,0.2703249454498291
125,-23.0,-30.0,6.0,0.0,10573.0,11453.0,-3767.0,3356.0,-1.0,3.0,2.0,2.0,0.0,2.0,-3.0,-1.0,0.27731776237487793
126,-23.0,-30.0,6.0,0.0,10573.0,11453.0,-3767.0,3356.0,-2.0,1.0,-1.0,-3.0,-3.0,0.0,-1.0,1.0,0.2843756675720215
127,-23.0,-30.0,6.0,0.0,10573.0,11453.0,-3767.0,3356.0,4.0,14.0,7.0,2.0,4.0,5.0,5.0,2.0,0.2863950729370117
128,8.0,-12.0,8.0,0.0,10573.0,11453.0,-3766.0,3356.0,4.0,14.0,7.0,2.0,4.0,5.0,5.0,2.0,0.30039167404174805
129,8.0,-12.0,8.0,0.0,10573.0,11453.0,-3766.0,3356.0,0.0,2.0,-3.0,-3.0,0.0,0.0,-1.0,-1.0,0.30350327491760254
130,8.0,-12.0,8.0,0.0,10573.0,11453.0,-3766.0,3356.0,-3.0,-8.0,-5.0,-3.0,0.0,-1.0,-2.0,-3.0,0.3074805736541748
131,6.0,-4.0,8.0,0.0,10573.0,11454.0,-3766.0,3356.0,-3.0,-8.0,-5.0,-3.0,0.0,-1.0,-2.0,-3.0,0.3236510753631592
132,6.0,-4.0,8.0,0.0,10573.0,11454.0,-3766.0,3356.0,-1.0,5.0,1.0,2.0,0.0,-2.0,-1.0,-2.0,0.32718825340270996
133,6.0,-4.0,8.0,0.0,10573.0,11454.0,-3766.0,3356.0,1.0,8.0,12.0,-1.0,1.0,2.0,1.0,1.0,0.33151888847351074
134,-27.0,-18.0,11.0,0.0,10577.0,11450.0,-3769.0,3352.0,1.0,8.0,12.0,-1.0,1.0,2.0,1.0,1.0,0.33612799644470215
135,-27.0,-18.0,11.0,0.0,10577.0,11450.0,-3769.0,3352.0,-3.0,-6.0,-4.0,-3.0,1.0,-2.0,-1.0,-4.0,0.34435319900512695
136,-27.0,-18.0,11.0,0.0,10577.0,11450.0,-3769.0,3352.0,-2.0,-5.0,-2.0,0.0,-2.0,4.0,2.0,-3.0,0.34611988067626953
137,-44.0,-40.0,16.0,0.0,10579.0,11447.0,-3777.0,3347.0,-2.0,-5.0,-2.0,0.0,-2.0,4.0,2.0,-3.0,0.36109113693237305
138,-44.0,-40.0,16.0,0.0,10579.0,11447.0,-3777.0,3347.0,1.0,0.0,4.0,3.0,-4.0,2.0,-2.0,3.0,0.3644869327545166
139,-44.0,-40.0,16.0,0.0,10579.0,11447.0,-3777.0,3347.0,-2.0,-4.0,2.0,2.0,-3.0,-3.0,-3.0,-1.0,0.36759161949157715
140,-19.0,-38.0,3.0,0.0,10581.0,11446.0,-3780.0,3339.0,-2.0,-4.0,2.0,2.0,-3.0,-3.0,-3.0,-1.0,0.38265347480773926
141,-19.0,-38.0,3.0,0.0,10581.0,11446.0,-3780.0,3339.0,-2.0,-3.0,-4.0,-4.0,-2.0,0.0,0.0,-3.0,0.38466668128967285
142,-19.0,-38.0,3.0,0.0,10581.0,11446.0,-3780.0,3339.0,-2.0,0.0,-9.0,-2.0,-4.0,0.0,-2.0,-1.0,0.38654446601867676
143,-21.0,-11.0,9.0,0.0,10586.0,11443.0,-3779.0,3335.0,-2.0,0.0,-9.0,-2.0,-4.0,0.0,-2.0,-1.0,0.39633655548095703
144,-21.0,-11.0,9.0,0.0,10586.0,11443.0,-3779.0,3335.0,0.0,3.0,0.0,-3.0,1.0,-1.0,-1.0,1.0,0.4044764041900635
145,-21.0,-11.0,9.0,0.0,10586.0,11443.0,-3779.0,3335.0,-3.0,-1.0,-1.0,-4.0,-2.0,-2.0,0.0,-3.0,0.40740036964416504
146,-19.0,-6.0,0.0,0.0,10589.0,11444.0,-3776.0,3329.0,-3.0,-1.0,-1.0,-4.0,-2.0,-2.0,0.0,-3.0,0.42749691009521484
147,-19.0,-6.0,0.0,0.0,10589.0,11444.0,-3776.0,3329.0,-4.0,-7.0,-8.0,0.0,1.0,-1.0,0.0,-2.0,0.4293644428253174
148,-19.0,-6.0,0.0,0.0,10589.0,11444.0,-3776.0,3329.0,1.0,-3.0,0.0,3.0,2.0,1.0,-7.0,1.0,0.4311213493347168
149,-42.0,-39.0,-3.0,0.0,10591.0,11442.0,-3781.0,3321.0,1.0,-3.0,0.0,3.0,2.0,1.0,-7.0,1.0,0.44191622734069824
150,-42.0,-39.0,-3.0,0.0,10591.0,11442.0,-3781.0,3321.0,2.0,10.0,6.0,-3.0,-4.0,-1.0,-1.0,-1.0,0.44376635551452637
151,-42.0,-39.0,-3.0,0.0,10591.0,11442.0,-3781.0,3321.0,-2.0,-1.0,2.0,-1.0,1.0,-2.0,-8.0,-2.0,0.4489572048187256
152,-2.0,-44.0,13.0,0.0,10588.0,11444.0,-3788.0,3316.0,-2.0,-1.0,2.0,-1.0,1.0,-2.0,-8.0,-2.0,0.4651451110839844
153,-2.0,-44.0,13.0,0.0,10588.0,11444.0,-3788.0,3316.0,-4.0,-6.0,-2.0,2.0,0.0,-3.0,-5.0,-2.0,0.46697306632995605
154,-2.0,-44.0,13.0,0.0,10588.0,11444.0,-3788.0,3316.0,0.0,-1.0,-5.0,-7.0,0.0,1.0,3.0,0.0,0.4699552059173584
155,-19.0,-34.0,8.0,0.0,10590.0,11443.0,-3791.0,3309.0,0.0,-1.0,-5.0,-7.0,0.0,1.0,3.0,0.0,0.48843979835510254
156,-19.0,-34.0,8.0,0.0,10590.0,11443.0,-3791.0,3309.0,0.0,0.0,2.0,2.0,-2.0,3.0,-3.0,2.0,0.4924929141998291
157,-19.0,-34.0,8.0,0.0,10590.0,11443.0,-3791.0,3309.0,-3.0,-8.0,-2.0,-3.0,-3.0,0.0,-4.0,-1.0,0.49433279037475586
158,-55.0,-38.0,18.0,0.0,10595.0,11438.0,-3798.0,3303.0,-3.0,-8.0,-2.0,-3.0,-3.0,0.0,-4.0,-1.0,0.5021848678588867
159,-55.0,-38.0,18.0,0.0,10595.0,11438.0,-3798.0,3303.0,-1.0,-2.0,-1.0,-3.0,-1.0,5.0,4.0,1.0,0.504061222076416
160,-55.0,-38.0,18.0,0.0,10595.0,11438.0,-3798.0,3303.0,-2.0,-3.0,-5.0,-4.0,-7.0,-4.0,-5.0,0.0,0.5089070796966553
161,-3.0,-49.0,28.0,0.0,10592.0,11438.0,-3808.0,3300.0,-2.0,-3.0,-5.0,-4.0,-7.0,-4.0,-5.0,0.0,0.5257201194763184
162,-3.0,-49.0,28.0,0.0,10592.0,11438.0,-3808.0,3300.0,0.0,-1.0,4.0,5.0,7.0,-1.0,1.0,-1.0,0.5276293754577637
163,-3.0,-49.0,28.0,0.0,10592.0,11438.0,-3808.0,3300.0,-2.0,-1.0,-2.0,-1.0,3.0,-1.0,2.0,-1.0,0.5294015407562256
164,5.0,-44.0,44.0,0.0,10587.0,11439.0,-3818.0,3300.0,-2.0,-1.0,-2.0,-1.0,3.0,-1.0,2.0,-1.0,0.5487959384918213
165,5.0,-44.0,44.0,0.0,10587.0,11439.0,-3818.0,3300.0,0.0,7.0,9.0,2.0,1.0,0.0,-1.0,-1.0,0.5518791675567627
166,5.0,-44.0,44.0,0.0,10587.0,11439.0,-3818.0,3300.0,2.0,4.0,4.0,7.0,-4.0,-1.0,-3.0,0.0,0.554919958114624
167,-21.0,-36.0,48.0,0.0,10584.0,11439.0,-3829.0,3299.0,2.0,4.0,4.0,7.0,-4.0,-1.0,-3.0,0.0,0.5714013576507568
168,-21.0,-36.0,48.0,0.0,10584.0,11439.0,-3829.0,3299.0,-2.0,-2.0,-3.0,-2.0,-3.0,-5.0,-4.0,-2.0,0.5754590034484863
169,-21.0,-36.0,48.0,0.0,10584.0,11439.0,-3829.0,3299.0,1.0,1.0,1.0,3.0,0.0,2.0,-1.0,1.0,0.5792653560638428
170,-49.0,-27.0,32.0,0.0,10584.0,11435.0,-3840.0,3298.0,1.0,1.0,1.0,3.0,0.0,2.0,-1.0,1.0,0.5852553844451904
171,-49.0,-27.0,32.0,0.0,10584.0,11435.0,-3840.0,3298.0,0.0,-3.0,-3.0,5.0,1.0,-1.0,-1.0,0.0,0.5871050357818604
172,-49.0,-27.0,32.0,0.0,10584.0,11435.0,-3840.0,3298.0,0.0,-1.0,-3.0,-2.0,0.0,-1.0,-2.0,-2.0,0.5895731449127197
173,-41.0,23.0,61.0,0.0,10585.0,11431.0,-3847.0,3304.0,0.0,-1.0,-3.0,-2.0,0.0,-1.0,-2.0,-2.0,0.6083171367645264
174,-41.0,23.0,61.0,0.0,10585.0,11431.0,-3847.0,3304.0,-2.0,-2.0,-3.0,2.0,-1.0,-4.0,0.0,0.0,0.6116161346435547
175,-41.0,23.0,61.0,0.0,10585.0,11431.0,-3847.0,3304.0,4.0,10.0,11.0,7.0,4.0,0.0,2.0,1.0,0.6150033473968506
176,-26.0,26.0,105.0,0.0,10582.0,11428.0,-3855.0,3313.0,4.0,10.0,11.0,7.0,4.0,0.0,2.0,1.0,0.6222760677337646
177,-26.0,26.0,105.0,0.0,10582.0,11428.0,-3855.0,3313.0,0.0,-4.0,-6.0,-1.0,-21.0,-5.0,-2.0,-1.0,0.6294469833374023
178,-26.0,26.0,105.0,0.0,10582.0,11428.0,-3855.0,3313.0,4.0,11.0,6.0,-10.0,-9.0,4.0,1.0,-1.0,0.6311972141265869
179,53.0,112.0,135.0,0.0,10573.0,11430.0,-3854.0,3338.0,4.0,11.0,6.0,-10.0,-9.0,4.0,1.0,-1.0,0.6448891162872314
180,53.0,112.0,135.0,0.0,10573.0,11430.0,-3854.0,3338.0,2.0,2.0,6.0,28.0,34.0,-6.0,3.0,1.0,0.6467304229736328
181,53.0,112.0,135.0,0.0,10573.0,11430.0,-3854.0,3338.0,-5.0,-10.0,-6.0,11.0,12.0,-2.0,0.0,-1.0,0.6484866142272949
182,108.0,146.0,96.0,0.0,10555.0,11442.0,-3843.0,3364.0,-5.0,-10.0,-6.0,11.0,12.0,-2.0,0.0,-1.0,0.6693785190582275
183,108.0,146.0,96.0,0.0,10555.0,11442.0,-3843.0,3364.0,5.0,6.0,5.0,0.0,14.0,26.0,-1.0,7.0,0.6738789081573486
184,108.0,146.0,96.0,0.0,10555.0,11442.0,-3843.0,3364.0,2.0,0.0,5.0,-1.0,38.0,10.0,-3.0,1.0,0.6761307716369629
185,-136.0,55.0,124.0,0.0,10574.0,11422.0,-3847.0,3369.0,2.0,0.0,5.0,-1.0,38.0,10.0,-3.0,1.0,0.6812613010406494
186,-136.0,55.0,124.0,0.0,10574.0,11422.0,-3847.0,3369.0,7.0,16.0,21.0,-4.0,27.0,9.0,8.0,5.0,0.6897730827331543
187,-136.0,55.0,124.0,0.0,10574.0,11422.0,-3847.0,3369.0,-5.0,-3.0,-5.0,-15.0,-8.0,-14.0,-6.0,-7.0,0.6915493011474609
188,2.0,10.0,103.0,0.0,10584.0,11412.0,-3844.0,3373.0,-5.0,-3.0,-5.0,-15.0,-8.0,-14.0,-6.0,-7.0,0.7058467864990234
189,2.0,10.0,103.0,0.0,10584.0,11412.0,-3844.0,3373.0,-8.0,-13.0,-24.0,-6.0,-78.0,-13.0,-2.0,-2.0,0.7092702388763428
190,2.0,10.0,103.0,0.0,10584.0,11412.0,-3844.0,3373.0,7.0,11.0,0.0,23.0,29.0,-14.0,3.0,1.0,0.7110331058502197
191,215.0,-8.0,202.0,0.0,10579.0,11423.0,-3824.0,3375.0,7.0,11.0,0.0,23.0,29.0,-14.0,3.0,1.0,0.7275595664978027
192,215.0,-8.0,202.0,0.0,10579.0,11423.0,-3824.0,3375.0,-10.0,-7.0,-2.0,-11.0,7.0,1.0,-6.0,-13.0,0.7313108444213867
193,215.0,-8.0,202.0,0.0,10579.0,11423.0,-3824.0,3375.0,-14.0,-6.0,-3.0,26.0,56.0,16.0,10.0,2.0,0.7345490455627441
194,-9.0,-106.0,429.0,0.0,10601.0,11405.0,-3830.0,3360.0,-14.0,-6.0,-3.0,26.0,56.0,16.0,10.0,2.0,0.7425565719604492
195,-9.0,-106.0,429.0,0.0,10601.0,11405.0,-3830.0,3360.0,2.0,-4.0,-16.0,-50.0,-50.0,-21.0,-9.0,3.0,0.7494845390319824
196,-9.0,-106.0,429.0,0.0,10601.0,11405.0,-3830.0,3360.0,-9.0,-23.0,-6.0,-5.0,-12.0,-17.0,-15.0,-11.0,0.7515392303466797
197,-270.0,-117.0,658.0,0.0,10650.0,11342.0,-3876.0,3365.0,-9.0,-23.0,-6.0,-5.0,-12.0,-17.0,-15.0,-11.0,0.7654573917388916
198,-270.0,-117.0,658.0,0.0,10650.0,11342.0,-3876.0,3365.0,-6.0,-14.0,6.0,8.0,26.0,-16.0,-9.0,-7.0,0.7687506675720215
199,-270.0,-117.0,658.0,0.0,10650.0,11342.0,-3876.0,3365.0,-12.0,-29.0,-24.0,-22.0,-35.0,2.0,-4.0,-6.0,0.7719683647155762
200,-126.0,201.0,735.0,0.0,10704.0,11257.0,-3901.0,3450.0,-12.0,-29.0,-24.0,-22.0,-35.0,2.0,-4.0,-6.0,0.7889230251312256
201,-126.0,201.0,735.0,0.0,10704.0,11257.0,-3901.0,3450.0,-10.0,-16.0,-13.0,-22.0,-38.0,-18.0,-12.0,-7.0,0.7931623458862305
202,-126.0,201.0,735.0,0.0,10704.0,11257.0,-3901.0,3450.0,-8.0,-12.0,-14.0,-15.0,-75.0,-7.0,-11.0,-13.0,0.7964310646057129
203,339.0,826.0,459.0,0.0,10748.0,11223.0,-3770.0,3569.0,-8.0,-12.0,-14.0,-15.0,-75.0,-7.0,-11.0,-13.0,0.8017358779907227
204,339.0,826.0,459.0,0.0,10748.0,11223.0,-3770.0,3569.0,-5.0,3.0,15.0,25.0,74.0,31.0,13.0,3.0,0.8096203804016113
205,339.0,826.0,459.0,0.0,10748.0,11223.0,-3770.0,3569.0,8.0,8.0,1.0,8.0,-4.0,2.0,-7.0,1.0,0.8113913536071777
206,129.0,1085.0,-305.0,0.0,10875.0,11176.0,-3499.0,3607.0,8.0,8.0,1.0,8.0,-4.0,2.0,-7.0,1.0,0.8260016441345215
207,129.0,1085.0,-305.0,0.0,10875.0,11176.0,-3499.0,3607.0,-5.0,2.0,8.0,3.0,-6.0,10.0,7.0,0.0,0.8293447494506836
208,129.0,1085.0,-305.0,0.0,10875.0,11176.0,-3499.0,3607.0,10.0,21.0,22.0,0.0,6.0,-3.0,9.0,9.0,0.8324668407440186
209,-316.0,1116.0,-1374.0,0.0,11008.0,11145.0,-3211.0,3567.0,10.0,21.0,22.0,0.0,6.0,-3.0,9.0,9.0,0.8474736213684082
210,-316.0,1116.0,-1374.0,0.0,11008.0,11145.0,-3211.0,3567.0,7.0,7.0,1.0,12.0,24.0,1.0,2.0,2.0,0.8493340015411377
211,-316.0,1116.0,-1374.0,0.0,11008.0,11145.0,-3211.0,3567.0,5.0,4.0,-14.0,-5.0,9.0,-1.0,1.0,6.0,0.8515372276306152
212,-937.0,1393.0,-1787.0,0.0,11236.0,11036.0,-2862.0,3488.0,5.0,4.0,-14.0,-5.0,9.0,-1.0,1.0,6.0,0.8610057830810547
213,-937.0,1393.0,-1787.0,0.0,11236.0,11036.0,-2862.0,3488.0,-1.0,-11.0,-12.0,0.0,-29.0,-16.0,-8.0,-7.0,0.8698379993438721
214,-937.0,1393.0,-1787.0,0.0,11236.0,11036.0,-2862.0,3488.0,-5.0,7.0,10.0,-12.0,-10.0,4.0,0.0,-2.0,0.8716268539428711
215,-1320.0,1762.0,-2422.0,0.0,11535.0,10876.0,-2403.0,3360.0,-5.0,7.0,10.0,-12.0,-10.0,4.0,0.0,-2.0,0.885934591293335
216,-1320.0,1762.0,-2422.0,0.0,11535.0,10876.0,-2403.0,3360.0,2.0,9.0,2.0,12.0,1.0,-13.0,-5.0,1.0,0.8905763626098633
217,-1320.0,1762.0,-2422.0,0.0,11535.0,10876.0,-2403.0,3360.0,16.0,44.0,29.0,1.0,18.0,9.0,5.0,8.0,0.8932530879974365
218,-1061.0,2179.0,-3615.0,0.0,11837.0,10746.0,-1737.0,3132.0,16.0,44.0,29.0,1.0,18.0,9.0,5.0,8.0,0.90842604637146
219,-1061.0,2179.0,-3615.0,0.0,11837.0,10746.0,-1737.0,3132.0,-3.0,-5.0,-6.0,3.0,15.0,6.0,-2.0,-7.0,0.9115109443664551
220,-1061.0,2179.0,-3615.0,0.0,11837.0,10746.0,-1737.0,3132.0,-6.0,-12.0,-14.0,-29.0,-54.0,-5.0,-1.0,-6.0,0.9145727157592773
221,-1135.0,2353.0,-4455.0,0.0,12148.0,10586.0,-948.0,2807.0,-6.0,-12.0,-14.0,-29.0,-54.0,-5.0,-1.0,-6.0,0.9221150875091553
222,-1135.0,2353.0,-4455.0,0.0,12148.0,10586.0,-948.0,2807.0,7.0,14.0,5.0,-12.0,-23.0,-12.0,-3.0,6.0,0.9297094345092773
223,-1135.0,2353.0,-4455.0,0.0,12148.0,10586.0,-948.0,2807.0,0.0,-7.0,0.0,13.0,15.0,7.0,1.0,0.0,0.9314887523651123
224,-1284.0,2058.0,-5418.0,0.0,12457.0,10387.0,-88.0,2309.0,0.0,-7.0,0.0,13.0,15.0,7.0,1.0,0.0,0.9461081027984619
225,-1284.0,2058.0,-5418.0,0.0,12457.0,10387.0,-88.0,2309.0,-4.0,-10.0,-7.0,-16.0,-5.0,7.0,2.0,-2.0,0.9508554935455322
226,-1284.0,2058.0,-5418.0,0.0,12457.0,10387.0,-88.0,2309.0,-2.0,-9.0,-1.0,8.0,3.0,-8.0,-7.0,-7.0,0.9540507793426514
227,-1910.0,1563.0,-6397.0,0.0,12800.0,10067.0,799.0,1610.0,-2.0,-9.0,-1.0,8.0,3.0,-8.0,-7.0,-7.0,0.9678645133972168
228,-1910.0,1563.0,-6397.0,0.0,12800.0,10067.0,799.0,1610.0,2.0,2.0,0.0,7.0,10.0,3.0,-3.0,1.0,0.9710445404052734
229,-1910.0,1563.0,-6397.0,0.0,12800.0,10067.0,799.0,1610.0,-1.0,0.0,0.0,10.0,22.0,0.0,0.0,-1.0,0.9743971824645996
230,-3021.0,1285.0,-6786.0,0.0,13195.0,9531.0,1665.0,828.0,-1.0,0.0,0.0,10.0,22.0,0.0,0.0,-1.0,0.9810605049133301
231,-3021.0,1285.0,-6786.0,0.0,13195.0,9531.0,1665.0,828.0,0.0,0.0,-2.0,-1.0,8.0,2.0,-1.0,-2.0,0.9903614521026611
232,-3021.0,1285.0,-6786.0,0.0,13195.0,9531.0,1665.0,828.0,-1.0,-7.0,-3.0,6.0,24.0,16.0,5.0,7.0,0.9922449588775635
233,-3988.0,1148.0,-6760.0,0.0,13584.0,8829.0,2437.0,86.0,-1.0,-7.0,-3.0,6.0,24.0,16.0,5.0,7.0,1.0041353702545166
234,-3988.0,1148.0,-6760.0,0.0,13584.0,8829.0,2437.0,86.0,11.0,29.0,18.0,-10.0,-9.0,4.0,1.0,7.0,1.0061695575714111
235,-3988.0,1148.0,-6760.0,0.0,13584.0,8829.0,2437.0,86.0,-4.0,-10.0,-4.0,8.0,12.0,6.0,-1.0,0.0,1.011422872543335
236,-3800.0,1094.0,-6887.0,0.0,13863.0,8094.0,3199.0,-688.0,-4.0,-10.0,-4.0,8.0,12.0,6.0,-1.0,0.0,1.0275778770446777
237,-3800.0,1094.0,-6887.0,0.0,13863.0,8094.0,3199.0,-688.0,-4.0,-10.0,-8.0,4.0,5.0,2.0,2.0,-1.0,1.0294859409332275
238,-3800.0,1094.0,-6887.0,0.0,13863.0,8094.0,3199.0,-688.0,4.0,8.0,7.0,7.0,11.0,4.0,10.0,4.0,1.0312304496765137
239,-3828.0,1173.0,-6926.0,0.0,14049.0,7297.0,3957.0,-1457.0,4.0,8.0,7.0,7.0,11.0,4.0,10.0,4.0,1.0506830215454102
240,-3828.0,1173.0,-6926.0,0.0,14049.0,7297.0,3957.0,-1457.0,-4.0,-8.0,-11.0,-7.0,-19.0,-3.0,-1.0,-3.0,1.0537502765655518
241,-3828.0,1173.0,-6926.0,0.0,14049.0,7297.0,3957.0,-1457.0,-3.0,-7.0,-6.0,-6.0,-15.0,-8.0,-6.0,-4.0,1.057701826095581
242,-3877.0,1358.0,-6654.0,0.0,14142.0,6457.0,4698.0,-2159.0,-3.0,-7.0,-6.0,-6.0,-15.0,-8.0,-6.0,-4.0,1.0657174587249756
243,-3877.0,1358.0,-6654.0,0.0,14142.0,6457.0,4698.0,-2159.0,3.0,2.0,0.0,2.0,9.0,2.0,4.0,2.0,1.068185567855835
244,-3877.0,1358.0,-6654.0,0.0,14142.0,6457.0,4698.0,-2159.0,0.0,0.0,-2.0,-4.0,-8.0,-1.0,-1.0,0.0,1.0706815719604492
245,-3979.0,1467.0,-6337.0,0.0,14153.0,5573.0,5409.0,-2792.0,0.0,0.0,-2.0,-4.0,-8.0,-1.0,-1.0,0.0,1.0874991416931152
246,-3979.0,1467.0,-6337.0,0.0,14153.0,5573.0,5409.0,-2792.0,-3.0,-4.0,-1.0,0.0,-13.0,-8.0,-6.0,-7.0,1.0952684879302979
247,-3979.0,1467.0,-6337.0,0.0,14153.0,5573.0,5409.0,-2792.0,-4.0,-14.0,-7.0,-2.0,-2.0,-4.0,-1.0,-3.0,1.0981378555297852
248,-4231.0,1419.0,-6252.0,0.0,14094.0,4611.0,6087.0,-3387.0,-4.0,-14.0,-7.0,-2.0,-2.0,-4.0,-1.0,-3.0,1.1120972633361816
249,-4231.0,1419.0,-6252.0,0.0,14094.0,4611.0,6087.0,-3387.0,-1.0,-4.0,-3.0,2.0,-3.0,-1.0,0.0,1.0,1.115431308746338
250,-4231.0,1419.0,-6252.0,0.0,14094.0,4611.0,6087.0,-3387.0,2.0,-3.0,-5.0,-14.0,-7.0,-3.0,-1.0,0.0,1.1187176704406738
251,-4296.0,1217.0,-6072.0,0.0,13967.0,3605.0,6692.0,-3945.0,2.0,-3.0,-5.0,-14.0,-7.0,-3.0,-1.0,0.0,1.1244192123413086
252,-4296.0,1217.0,-6072.0,0.0,13967.0,3605.0,6692.0,-3945.0,-3.0,-3.0,-5.0,2.0,7.0,10.0,-2.0,-8.0,1.1263315677642822
253,-4296.0,1217.0,-6072.0,0.0,13967.0,3605.0,6692.0,-3945.0,0.0,1.0,0.0,-1.0,-5.0,1.0,-1.0,0.0,1.1319520473480225
254,-4279.0,1051.0,-5703.0,0.0,13778.0,2598.0,7223.0,-4434.0,0.0,1.0,0.0,-1.0,-5.0,1.0,-1.0,0.0,1.1473619937896729
255,-4279.0,1051.0,-5703.0,0.0,13778.0,2598.0,7223.0,-4434.0,0.0,-1.0,-1.0,0.0,-2.0,-2.0,1.0,2.0,1.1552131175994873
256,-4279.0,1051.0,-5703.0,0.0,13778.0,2598.0,7223.0,-4434.0,-2.0,-2.0,-4.0,-12.0,-22.0,-5.0,2.0,5.0,1.1578114032745361
257,-4519.0,1048.0,-5280.0,0.0,13530.0,1560.0,7725.0,-4821.0,-2.0,-2.0,-4.0,-12.0,-22.0,-5.0,2.0,5.0,1.171093463897705
258,-4519.0,1048.0,-5280.0,0.0,13530.0,1560.0,7725.0,-4821.0,-3.0,-3.0,-3.0,-12.0,-7.0,12.0,8.0,1.0,1.175389051437378
259,-4519.0,1048.0,-5280.0,0.0,13530.0,1560.0,7725.0,-4821.0,1.0,0.0,0.0,-1.0,-23.0,-23.0,-17.0,-6.0,1.1785621643066406
260,-4628.0,1116.0,-4721.0,0.0,13222.0,525.0,8205.0,-5100.0,1.0,0.0,0.0,-1.0,-23.0,-23.0,-17.0,-6.0,1.1847617626190186
261,-4628.0,1116.0,-4721.0,0.0,13222.0,525.0,8205.0,-5100.0,-1.0,0.0,-4.0,-1.0,0.0,-4.0,-6.0,-3.0,1.1866612434387207
262,-4628.0,1116.0,-4721.0,0.0,13222.0,525.0,8205.0,-5100.0,-5.0,-9.0,2.0,14.0,21.0,21.0,18.0,9.0,1.1911418437957764
263,-4204.0,1025.0,-4324.0,0.0,12863.0,-438.0,8618.0,-5338.0,-5.0,-9.0,2.0,14.0,21.0,21.0,18.0,9.0,1.2083463668823242
264,-4204.0,1025.0,-4324.0,0.0,12863.0,-438.0,8618.0,-5338.0,1.0,2.0,6.0,12.0,44.0,2.0,-11.0,6.0,1.2119712829589844
265,-4204.0,1025.0,-4324.0,0.0,12863.0,-438.0,8618.0,-5338.0,-1.0,-1.0,-9.0,-8.0,-46.0,-49.0,-44.0,9.0,1.2153427600860596
266,-3320.0,726.0,-4079.0,0.0,12486.0,-1281.0,8917.0,-5600.0,-1.0,-1.0,-9.0,-8.0,-46.0,-49.0,-44.0,9.0,1.2397139072418213
267,-3320.0,726.0,-4079.0,0.0,12486.0,-1281.0,8917.0,-5600.0,10.0,16.0,9.0,20.0,46.0,51.0,14.0,37.0,1.2447333335876465
268,-3320.0,726.0,-4079.0,0.0,12486.0,-1281.0,8917.0,-5600.0,5.0,8.0,13.0,-6.0,17.0,91.0,91.0,41.0,1.2488834857940674
269,-1720.0,783.0,-3480.0,0.0,12162.0,-1804.0,9072.0,-5912.0,5.0,8.0,13.0,-6.0,17.0,91.0,91.0,41.0,1.2514386177062988
270,-1720.0,783.0,-3480.0,0.0,12162.0,-1804.0,9072.0,-5912.0,1.0,12.0,16.0,38.0,92.0,108.0,93.0,12.0,1.2533907890319824
271,-1720.0,783.0,-3480.0,0.0,12162.0,-1804.0,9072.0,-5912.0,-9.0,0.0,-3.0,-13.0,-50.0,-3.0,-33.0,-44.0,1.2564208507537842
272,-1676.0,869.0,-3280.0,0.0,11822.0,-2293.0,9223.0,-6193.0,-9.0,0.0,-3.0,-13.0,-50.0,-3.0,-33.0,-44.0,1.2676236629486084
273,-1676.0,869.0,-3280.0,0.0,11822.0,-2293.0,9223.0,-6193.0,-3.0,-19.0,-9.0,7.0,-3.0,-17.0,31.0,4.0,1.2695229053497314
274,-1676.0,869.0,-3280.0,0.0,11822.0,-2293.0,9223.0,-6193.0,-2.0,-11.0,-14.0,-33.0,-37.0,-96.0,-58.0,-39.0,1.2745871543884277
275,-1857.0,1660.0,-3445.0,0.0,11363.0,-2764.0,9466.0,-6485.0,-2.0,-11.0,-14.0,-33.0,-37.0,-96.0,-58.0,-39.0,1.2926630973815918
276,-1857.0,1660.0,-3445.0,0.0,11363.0,-2764.0,9466.0,-6485.0,-2.0,-5.0,-9.0,-7.0,-19.0,-52.0,-67.0,-19.0,1.295799970626831
277,-1857.0,1660.0,-3445.0,0.0,11363.0,-2764.0,9466.0,-6485.0,-4.0,-4.0,-8.0,-2.0,43.0,-6.0,-28.0,-6.0,1.2981746196746826
278,-130.0,2010.0,-1677.0,0.0,11029.0,-2810.0,9670.0,-6738.0,-4.0,-4.0,-8.0,-2.0,43.0,-6.0,-28.0,-6.0,1.3035478591918945
279,-130.0,2010.0,-1677.0,0.0,11029.0,-2810.0,9670.0,-6738.0,-12.0,-1.0,0.0,-35.0,-16.0,-21.0,-27.0,-18.0,1.3132858276367188
280,-130.0,2010.0,-1677.0,0.0,11029.0,-2810.0,9670.0,-6738.0,-3.0,1.0,-3.0,10.0,45.0,20.0,-1.0,-11.0,1.3167004585266113
281,252.0,985.0,-177.0,0.0,10919.0,-2725.0,9764.0,-6815.0,-3.0,1.0,-3.0,10.0,45.0,20.0,-1.0,-11.0,1.327789306640625
282,252.0,985.0,-177.0,0.0,10919.0,-2725.0,9764.0,-6815.0,-4.0,-5.0,-5.0,-5.0,-17.0,-22.0,-50.0,-35.0,1.3306050300598145
283,252.0,985.0,-177.0,0.0,10919.0,-2725.0,9764.0,-6815.0,-3.0,0.0,5.0,18.0,26.0,6.0,2.0,-8.0,1.3337042331695557
284,1157.0,471.0,596.0,0.0,10946.0,-2489.0,9751.0,-6881.0,-3.0,0.0,5.0,18.0,26.0,6.0,2.0,-8.0,1.3523786067962646
285,1157.0,471.0,596.0,0.0,10946.0,-2489.0,9751.0,-6881.0,13.0,8.0,6.0,12.0,28.0,56.0,85.0,40.0,1.3574228286743164
286,1157.0,471.0,596.0,0.0,10946.0,-2489.0,9751.0,-6881.0,-3.0,1.0,0.0,2.0,-65.0,-55.0,-21.0,-30.0,1.3598086833953857
287,2051.0,-142.0,1859.0,0.0,11119.0,-2106.0,9636.0,-6892.0,-3.0,1.0,0.0,2.0,-65.0,-55.0,-21.0,-30.0,1.3636019229888916
288,2051.0,-142.0,1859.0,0.0,11119.0,-2106.0,9636.0,-6892.0,2.0,0.0,2.0,0.0,-1.0,6.0,-12.0,-3.0,1.3718409538269043
289,2051.0,-142.0,1859.0,0.0,11119.0,-2106.0,9636.0,-6892.0,-4.0,-1.0,-2.0,5.0,-3.0,7.0,-3.0,2.0,1.3736119270324707
290,1536.0,-664.0,3031.0,0.0,11419.0,-1688.0,9515.0,-6681.0,-4.0,-1.0,-2.0,5.0,-3.0,7.0,-3.0,2.0,1.387618064880371
291,1536.0,-664.0,3031.0,0.0,11419.0,-1688.0,9515.0,-6681.0,7.0,27.0,-7.0,-15.0,-21.0,-19.0,-15.0,-3.0,1.3915736675262451
292,1536.0,-664.0,3031.0,0.0,11419.0,-1688.0,9515.0,-6681.0,2.0,-1.0,3.0,-1.0,13.0,20.0,7.0,10.0,1.3934414386749268
293,1446.0,-1043.0,4164.0,0.0,11818.0,-1189.0,9361.0,-6302.0,2.0,-1.0,3.0,-1.0,13.0,20.0,7.0,10.0,1.411677598953247
294,1446.0,-1043.0,4164.0,0.0,11818.0,-1189.0,9361.0,-6302.0,-2.0,-9.0,-1.0,-8.0,-29.0,-27.0,-3.0,4.0,1.4155004024505615
295,1446.0,-1043.0,4164.0,0.0,11818.0,-1189.0,9361.0,-6302.0,-2.0,-9.0,-1.0,-8.0,-29.0,-27.0,-3.0,4.0,1.4188847541809082
296,1446.0,-1043.0,4164.0,0.0,11818.0,-1189.0,9361.0,-6302.0,5.0,10.0,5.0,24.0,69.0,21.0,12.0,14.0,1.4248020648956299
297,2123.0,-1258.0,5080.0,0.0,12273.0,-523.0,9125.0,-5853.0,5.0,10.0,5.0,24.0,69.0,21.0,12.0,14.0,1.426638126373291
298,2123.0,-1258.0,5080.0,0.0,12273.0,-523.0,9125.0,-5853.0,-10.0,-14.0,-14.0,-31.0,-22.0,-6.0,-9.0,-9.0,1.4395956993103027
299,2123.0,-1258.0,5080.0,0.0,12273.0,-523.0,9125.0,-5853.0,2.0,-5.0,6.0,-3.0,18.0,-6.0,-56.0,-16.0,1.4420909881591797
300,3096.0,-1242.0,5726.0,0.0,12723.0,335.0,8793.0,-5396.0,2.0,-5.0,6.0,-3.0,18.0,-6.0,-56.0,-16.0,1.4556682109832764
301,3096.0,-1242.0,5726.0,0.0,12723.0,335.0,8793.0,-5396.0,-1.0,-6.0,-8.0,-3.0,-13.0,-14.0,-21.0,-5.0,1.458099603652954
302,3096.0,-1242.0,5726.0,0.0,12723.0,335.0,8793.0,-5396.0,2.0,0.0,-4.0,3.0,0.0,24.0,35.0,28.0,1.4598641395568848
303,4493.0,-1207.0,6126.0,0.0,13126.0,1430.0,8319.0,-4986.0,2.0,0.0,-4.0,3.0,0.0,24.0,35.0,28.0,1.4708130359649658
304,4493.0,-1207.0,6126.0,0.0,13126.0,1430.0,8319.0,-4986.0,4.0,2.0,1.0,-18.0,-33.0,-27.0,-33.0,-9.0,1.473701000213623
305,4493.0,-1207.0,6126.0,0.0,13126.0,1430.0,8319.0,-4986.0,6.0,1.0,4.0,4.0,-2.0,8.0,25.0,16.0,1.4759349822998047
306,5002.0,-949.0,6227.0,0.0,13426.0,2632.0,7777.0,-4556.0,6.0,1.0,4.0,4.0,-2.0,8.0,25.0,16.0,1.4838495254516602
307,5002.0,-949.0,6227.0,0.0,13426.0,2632.0,7777.0,-4556.0,-10.0,-23.0,-3.0,11.0,3.0,38.0,13.0,14.0,1.492138147354126
308,5002.0,-949.0,6227.0,0.0,13426.0,2632.0,7777.0,-4556.0,2.0,12.0,5.0,-17.0,-49.0,-11.0,-12.0,-19.0,1.493943452835083
309,5515.0,-732.0,6169.0,0.0,13594.0,3919.0,7163.0,-4117.0,2.0,12.0,5.0,-17.0,-49.0,-11.0,-12.0,-19.0,1.5088016986846924
310,5515.0,-732.0,6169.0,0.0,13594.0,3919.0,7163.0,-4117.0,-25.0,-41.0,-15.0,-5.0,-3.0,-17.0,16.0,3.0,1.5106875896453857
311,5515.0,-732.0,6169.0,0.0,13594.0,3919.0,7163.0,-4117.0,4.0,12.0,14.0,1.0,18.0,-9.0,0.0,-8.0,1.5133306980133057
312,5330.0,-394.0,6285.0,0.0,13634.0,5194.0,6538.0,-3579.0,4.0,12.0,14.0,1.0,18.0,-9.0,0.0,-8.0,1.5314421653747559
313,5330.0,-394.0,6285.0,0.0,13634.0,5194.0,6538.0,-3579.0,6.0,15.0,-3.0,11.0,37.0,2.0,-31.0,-28.0,1.5364959239959717
314,5330.0,-394.0,6285.0,0.0,13634.0,5194.0,6538.0,-3579.0,31.0,36.0,9.0,0.0,12.0,18.0,42.0,57.0,1.5423517227172852
315,5004.0,-436.0,6264.0,0.0,13574.0,6344.0,5900.0,-3017.0,31.0,36.0,9.0,0.0,12.0,18.0,42.0,57.0,1.5455448627471924
316,5004.0,-436.0,6264.0,0.0,13574.0,6344.0,5900.0,-3017.0,8.0,6.0,3.0,-12.0,-75.0,-24.0,7.0,2.0,1.5530195236206055
317,5004.0,-436.0,6264.0,0.0,13574.0,6344.0,5900.0,-3017.0,11.0,15.0,-8.0,-12.0,33.0,-2.0,13.0,8.0,1.5557444095611572
318,4961.0,-500.0,6199.0,0.0,13416.0,7433.0,5215.0,-2444.0,11.0,15.0,-8.0,-12.0,33.0,-2.0,13.0,8.0,1.5685625076293945
319,4961.0,-500.0,6199.0,0.0,13416.0,7433.0,5215.0,-2444.0,-6.0,-22.0,-19.0,-8.0,-29.0,-15.0,-46.0,-48.0,1.5721819400787354
320,4961.0,-500.0,6199.0,0.0,13416.0,7433.0,5215.0,-2444.0,7.0,-1.0,36.0,27.0,60.0,32.0,2.0,21.0,1.5751662254333496
321,4873.0,-33.0,6262.0,0.0,13141.0,8470.0,4555.0,-1801.0,7.0,-1.0,36.0,27.0,60.0,32.0,2.0,21.0,1.5900623798370361
322,4873.0,-33.0,6262.0,0.0,13141.0,8470.0,4555.0,-1801.0,-1.0,-4.0,42.0,30.0,28.0,-6.0,2.0,-10.0,1.5919690132141113
323,4873.0,-33.0,6262.0,0.0,13141.0,8470.0,4555.0,-1801.0,-33.0,-64.0,-58.0,-15.0,-37.0,-5.0,-6.0,-27.0,1.5938589572906494
324,3283.0,733.0,6726.0,0.0,12890.0,9258.0,3961.0,-929.0,-33.0,-64.0,-58.0,-15.0,-37.0,-5.0,-6.0,-27.0,1.603691577911377
325,3283.0,733.0,6726.0,0.0,12890.0,9258.0,3961.0,-929.0,-10.0,-11.0,-19.0,-5.0,23.0,35.0,17.0,18.0,1.6119937896728516
326,3283.0,733.0,6726.0,0.0,12890.0,9258.0,3961.0,-929.0,-2.0,44.0,31.0,1.0,23.0,-1.0,-2.0,-8.0,1.613785743713379
327,1653.0,1155.0,7645.0,0.0,12703.0,9796.0,3322.0,191.0,-2.0,44.0,31.0,1.0,23.0,-1.0,-2.0,-8.0,1.6291429996490479
328,1653.0,1155.0,7645.0,0.0,12703.0,9796.0,3322.0,191.0,-2.0,20.0,3.0,-4.0,2.0,14.0,-11.0,10.0,1.6328816413879395
329,1653.0,1155.0,7645.0,0.0,12703.0,9796.0,3322.0,191.0,-11.0,-40.0,-6.0,28.0,18.0,38.0,10.0,-10.0,1.6362278461456299
330,3364.0,2362.0,7532.0,0.0,12189.0,10485.0,2839.0,1359.0,-11.0,-40.0,-6.0,28.0,18.0,38.0,10.0,-10.0,1.6498806476593018
331,3364.0,2362.0,7532.0,0.0,12189.0,10485.0,2839.0,1359.0,7.0,35.0,1.0,-20.0,-65.0,8.0,-26.0,-4.0,1.6520295143127441
332,3364.0,2362.0,7532.0,0.0,12189.0,10485.0,2839.0,1359.0,14.0,62.0,69.0,-8.0,-19.0,-19.0,-17.0,-8.0,1.6539616584777832
333,3631.0,2745.0,7214.0,0.0,11532.0,11102.0,2422.0,2509.0,14.0,62.0,69.0,-8.0,-19.0,-19.0,-17.0,-8.0,1.6643586158752441
334,3631.0,2745.0,7214.0,0.0,11532.0,11102.0,2422.0,2509.0,18.0,3.0,-1.0,3.0,19.0,-13.0,-5.0,-30.0,1.681333303451538
335,3631.0,2745.0,7214.0,0.0,11532.0,11102.0,2422.0,2509.0,2.0,-17.0,-30.0,19.0,-22.0,-9.0,54.0,33.0,1.6854870319366455
336,3748.0,1453.0,4771.0,0.0,10884.0,11633.0,2125.0,3179.0,2.0,-17.0,-30.0,19.0,-22.0,-9.0,54.0,33.0,1.68959641456604
337,3748.0,1453.0,4771.0,0.0,10884.0,11633.0,2125.0,3179.0,-29.0,-49.0,2.0,-31.0,-1.0,-28.0,-7.0,1.0,1.692225456237793
338,3748.0,1453.0,4771.0,0.0,10884.0,11633.0,2125.0,3179.0,-9.0,-30.0,6.0,16.0,9.0,-17.0,-24.0,-23.0,1.6940476894378662
339,129.0,115.0,4850.0,0.0,10681.0,11741.0,1526.0,3762.0,-9.0,-30.0,6.0,16.0,9.0,-17.0,-24.0,-23.0,1.7107000350952148
340,129.0,115.0,4850.0,0.0,10681.0,11741.0,1526.0,3762.0,33.0,14.0,-6.0,13.0,-7.0,-9.0,-69.0,6.0,1.7137670516967773
341,129.0,115.0,4850.0,0.0,10681.0,11741.0,1526.0,3762.0,-16.0,-36.0,-9.0,-26.0,-14.0,-13.0,1.0,15.0,1.716691255569458
342,-1357.0,-880.0,3858.0,0.0,10700.0,11671.0,872.0,4117.0,-16.0,-36.0,-9.0,-26.0,-14.0,-13.0,1.0,15.0,1.7257158756256104
343,-1357.0,-880.0,3858.0,0.0,10700.0,11671.0,872.0,4117.0,-5.0,-38.0,4.0,-26.0,-83.0,-54.0,22.0,-4.0,1.7321338653564453
344,-1357.0,-880.0,3858.0,0.0,10700.0,11671.0,872.0,4117.0,7.0,1.0,-21.0,-34.0,-77.0,-56.0,-96.0,-42.0,1.7339203357696533
345,394.0,-684.0,2676.0,0.0,10549.0,11750.0,472.0,4340.0,7.0,1.0,-21.0,-34.0,-77.0,-56.0,-96.0,-42.0,1.7477242946624756
346,394.0,-684.0,2676.0,0.0,10549.0,11750.0,472.0,4340.0,18.0,43.0,20.0,38.0,74.0,67.0,38.0,55.0,1.7497618198394775
347,394.0,-684.0,2676.0,0.0,10549.0,11750.0,472.0,4340.0,-44.0,-102.0,4.0,-7.0,48.0,54.0,55.0,-4.0,1.7526397705078125
348,2112.0,53.0,2129.0,0.0,10189.0,11983.0,315.0,4574.0,-44.0,-102.0,4.0,-7.0,48.0,54.0,55.0,-4.0,1.7700979709625244
349,2112.0,53.0,2129.0,0.0,10189.0,11983.0,315.0,4574.0,-5.0,9.0,11.0,8.0,57.0,28.0,46.0,-8.0,1.771958589553833
350,2112.0,53.0,2129.0,0.0,10189.0,11983.0,315.0,4574.0,24.0,66.0,-41.0,-42.0,-79.0,-27.0,-16.0,1.0,1.7737414836883545
351,1362.0,-40.0,1400.0,0.0,9964.0,12130.0,234.0,4684.0,24.0,66.0,-41.0,-42.0,-79.0,-27.0,-16.0,1.0,1.7845022678375244
352,1362.0,-40.0,1400.0,0.0,9964.0,12130.0,234.0,4684.0,-4.0,-3.0,25.0,59.0,80.0,-1.0,27.0,9.0,1.7926578521728516
353,1362.0,-40.0,1400.0,0.0,9964.0,12130.0,234.0,4684.0,-5.0,7.0,-17.0,-9.0,9.0,1.0,4.0,-12.0,1.7945265769958496
354,-556.0,-266.0,1472.0,0.0,9958.0,12131.0,71.0,4699.0,-5.0,7.0,-17.0,-9.0,9.0,1.0,4.0,-12.0,1.8076965808868408
355,-556.0,-266.0,1472.0,0.0,9958.0,12131.0,71.0,4699.0,-5.0,-11.0,-46.0,-50.0,-101.0,-99.0,1.0,-32.0,1.8108322620391846
356,-556.0,-266.0,1472.0,0.0,9958.0,12131.0,71.0,4699.0,1.0,-13.0,0.0,21.0,16.0,25.0,9.0,24.0,1.8145792484283447
357,-1662.0,-403.0,1233.0,0.0,10128.0,11956.0,-213.0,4779.0,1.0,-13.0,0.0,21.0,16.0,25.0,9.0,24.0,1.8302974700927734
358,-1662.0,-403.0,1233.0,0.0,10128.0,11956.0,-213.0,4779.0,-11.0,-51.0,25.0,11.0,35.0,10.0,45.0,25.0,1.8322014808654785
359,-1662.0,-403.0,1233.0,0.0,10128.0,11956.0,-213.0,4779.0,14.0,19.0,4.0,-6.0,-19.0,-24.0,20.0,16.0,1.833991289138794
360,-918.0,-350.0,396.0,0.0,10242.0,11830.0,-399.0,4838.0,14.0,19.0,4.0,-6.0,-19.0,-24.0,20.0,16.0,1.8446896076202393
361,-918.0,-350.0,396.0,0.0,10242.0,11830.0,-399.0,4838.0,8.0,14.0,-32.0,3.0,6.0,19.0,8.0,16.0,1.8521325588226318
362,-918.0,-350.0,396.0,0.0,10242.0,11830.0,-399.0,4838.0,-9.0,-8.0,-23.0,-16.0,-35.0,-38.0,-33.0,-28.0,1.85404634475708
363,671.0,-61.0,-217.0,0.0,10146.0,11908.0,-384.0,4849.0,-9.0,-8.0,-23.0,-16.0,-35.0,-38.0,-33.0,-28.0,1.8679728507995605
364,671.0,-61.0,-217.0,0.0,10146.0,11908.0,-384.0,4849.0,-9.0,5.0,-20.0,-69.0,-68.0,-10.0,-52.0,-29.0,1.8708524703979492
365,671.0,-61.0,-217.0,0.0,10146.0,11908.0,-384.0,4849.0,-5.0,-1.0,13.0,68.0,85.0,51.0,16.0,-18.0,1.8740320205688477
366,614.0,119.0,-203.0,0.0,10059.0,11986.0,-319.0,4843.0,-5.0,-1.0,13.0,68.0,85.0,51.0,16.0,-18.0,1.892190933227539
367,614.0,119.0,-203.0,0.0,10059.0,11986.0,-319.0,4843.0,-2.0,4.0,-16.0,-20.0,-55.0,3.0,21.0,23.0,1.8944730758666992
368,614.0,119.0,-203.0,0.0,10059.0,11986.0,-319.0,4843.0,10.0,-3.0,18.0,13.0,-20.0,-16.0,-14.0,21.0,1.896233320236206
369,-561.0,77.0,109.0,0.0,10146.0,11903.0,-347.0,4864.0,10.0,-3.0,18.0,13.0,-20.0,-16.0,-14.0,21.0,1.9038803577423096
370,-561.0,77.0,109.0,0.0,10146.0,11903.0,-347.0,4864.0,39.0,73.0,-35.0,4.0,22.0,-3.0,8.0,22.0,1.9121603965759277
371,-561.0,77.0,109.0,0.0,10146.0,11903.0,-347.0,4864.0,-6.0,-6.0,-9.0,4.0,28.0,10.0,-7.0,0.0,1.9140143394470215
372,-872.0,-85.0,-144.0,0.0,10258.0,11797.0,-427.0,4881.0,-6.0,-6.0,-9.0,4.0,28.0,10.0,-7.0,0.0,1.9263312816619873
373,-872.0,-85.0,-144.0,0.0,10258.0,11797.0,-427.0,4881.0,-15.0,-17.0,25.0,55.0,99.0,21.0,-7.0,4.0,1.9353389739990234
374,-872.0,-85.0,-144.0,0.0,10258.0,11797.0,-427.0,4881.0,9.0,18.0,-11.0,-27.0,-28.0,-10.0,-29.0,-14.0,1.9397368431091309
375,-139.0,45.0,-383.0,0.0,10270.0,11785.0,-428.0,4886.0,9.0,18.0,-11.0,-27.0,-28.0,-10.0,-29.0,-14.0,1.949937343597412
376,-139.0,45.0,-383.0,0.0,10270.0,11785.0,-428.0,4886.0,-23.0,-19.0,-1.0,-17.0,-52.0,-29.0,-72.0,-62.0,1.952188491821289
377,-139.0,45.0,-383.0,0.0,10270.0,11785.0,-428.0,4886.0,-7.0,-8.0,8.0,8.0,25.0,27.0,60.0,21.0,1.9572234153747559
378,34.0,167.0,-148.0,0.0,10266.0,11778.0,-411.0,4913.0,-7.0,-8.0,8.0,8.0,25.0,27.0,60.0,21.0,1.980550765991211
379,34.0,167.0,-148.0,0.0,10266.0,11778.0,-411.0,4913.0,27.0,44.0,-39.0,-22.0,-4.0,16.0,-15.0,-10.0,1.982419729232788
380,34.0,167.0,-148.0,0.0,10266.0,11778.0,-411.0,4913.0,1.0,-3.0,0.0,-15.0,-8.0,7.0,-9.0,1.0,1.9896998405456543
381,-170.0,190.0,-157.0,0.0,10292.0,11743.0,-400.0,4941.0,1.0,-3.0,0.0,-15.0,-8.0,7.0,-9.0,1.0,1.9931581020355225
382,-170.0,190.0,-157.0,0.0,10292.0,11743.0,-400.0,4941.0,-13.0,-38.0,3.0,14.0,24.0,0.0,22.0,14.0,1.9979567527770996
383,-170.0,190.0,-157.0,0.0,10292.0,11743.0,-400.0,4941.0,10.0,25.0,-4.0,14.0,45.0,23.0,14.0,7.0,2.0015993118286133
384,-314.0,135.0,-167.0,0.0,10328.0,11704.0,-405.0,4960.0,10.0,25.0,-4.0,14.0,45.0,23.0,14.0,7.0,2.0104422569274902
385,-314.0,135.0,-167.0,0.0,10328.0,11704.0,-405.0,4960.0,-7.0,-18.0,17.0,24.0,31.0,12.0,30.0,31.0,2.0135433673858643
386,-314.0,135.0,-167.0,0.0,10328.0,11704.0,-405.0,4960.0,-15.0,-24.0,7.0,-9.0,-24.0,-37.0,6.0,-4.0,2.0164685249328613
387,-331.0,188.0,38.0,0.0,10354.0,11665.0,-422.0,4997.0,-15.0,-24.0,7.0,-9.0,-24.0,-37.0,6.0,-4.0,2.033498764038086
388,-331.0,188.0,38.0,0.0,10354.0,11665.0,-422.0,4997.0,1.0,3.0,13.0,1.0,-5.0,-17.0,7.0,-3.0,2.0368025302886963
389,-331.0,188.0,38.0,0.0,10354.0,11665.0,-422.0,4997.0,-3.0,-22.0,10.0,2.0,7.0,14.0,32.0,17.0,2.040908098220825
390,-211.0,221.0,145.0,0.0,10366.0,11632.0,-436.0,5047.0,-3.0,-22.0,10.0,2.0,7.0,14.0,32.0,17.0,2.0478456020355225
391,-211.0,221.0,145.0,0.0,10366.0,11632.0,-436.0,5047.0,-4.0,-6.0,7.0,1.0,11.0,13.0,0.0,8.0,2.0505259037017822
392,-211.0,221.0,145.0,0.0,10366.0,11632.0,-436.0,5047.0,4.0,18.0,14.0,-17.0,-51.0,-21.0,-8.0,-3.0,2.0530319213867188
393,-142.0,182.0,93.0,0.0,10366.0,11617.0,-442.0,5080.0,4.0,18.0,14.0,-17.0,-51.0,-21.0,-8.0,-3.0,2.071065664291382
394,-142.0,182.0,93.0,0.0,10366.0,11617.0,-442.0,5080.0,-4.0,-7.0,10.0,-4.0,-3.0,1.0,-12.0,-8.0,2.075376272201538
395,-142.0,182.0,93.0,0.0,10366.0,11617.0,-442.0,5080.0,15.0,38.0,-18.0,0.0,14.0,15.0,15.0,17.0,2.078827142715454
396,-184.0,108.0,53.0,0.0,10360.0,11615.0,-456.0,5095.0,15.0,38.0,-18.0,0.0,14.0,15.0,15.0,17.0,2.0943641662597656
397,-184.0,108.0,53.0,0.0,10360.0,11615.0,-456.0,5095.0,1.0,-7.0,-11.0,-16.0,-20.0,7.0,-2.0,-3.0,2.0982184410095215
398,-184.0,108.0,53.0,0.0,10360.0,11615.0,-456.0,5095.0,-5.0,-4.0,-7.0,0.0,-17.0,-11.0,-9.0,0.0,2.1018333435058594
399,-221.0,56.0,117.0,0.0,10363.0,11607.0,-479.0,5106.0,-5.0,-4.0,-7.0,0.0,-17.0,-11.0,-9.0,0.0,2.1088924407958984
400,-221.0,56.0,117.0,0.0,10363.0,11607.0,-479.0,5106.0,-6.0,-8.0,5.0,-7.0,4.0,-2.0,4.0,-1.0,2.1112074851989746
401,-221.0,56.0,117.0,0.0,10363.0,11607.0,-479.0,5106.0,0.0,-6.0,-3.0,-2.0,-26.0,-15.0,-17.0,-3.0,2.1130034923553467
402,-108.0,4.0,142.0,0.0,10359.0,11605.0,-501.0,5116.0,0.0,-6.0,-3.0,-2.0,-26.0,-15.0,-17.0,-3.0,2.129929780960083
403,-108.0,4.0,142.0,0.0,10359.0,11605.0,-501.0,5116.0,26.0,59.0,30.0,15.0,31.0,17.0,50.0,46.0,2.1317853927612305
404,-108.0,4.0,142.0,0.0,10359.0,11605.0,-501.0,5116.0,0.0,10.0,-17.0,-20.0,-10.0,-8.0,-26.0,-26.0,2.1335675716400146
405,-35.0,-75.0,0.0,0.0,10350.0,11618.0,-516.0,5104.0,0.0,10.0,-17.0,-20.0,-10.0,-8.0,-26.0,-26.0,2.154010057449341
406,-35.0,-75.0,0.0,0.0,10350.0,11618.0,-516.0,5104.0,4.0,30.0,8.0,-2.0,-12.0,-2.0,3.0,3.0,2.158449411392212
407,-35.0,-75.0,0.0,0.0,10350.0,11618.0,-516.0,5104.0,-4.0,-4.0,0.0,7.0,33.0,17.0,-4.0,1.0,2.1603896617889404
408,-206.0,-156.0,85.0,0.0,10353.0,11619.0,-562.0,5090.0,-4.0,-4.0,0.0,7.0,33.0,17.0,-4.0,1.0,2.166701555252075
409,-206.0,-156.0,85.0,0.0,10353.0,11619.0,-562.0,5090.0,-5.0,-17.0,4.0,1.0,-4.0,5.0,18.0,16.0,2.169462203979492
410,-206.0,-156.0,85.0,0.0,10353.0,11619.0,-562.0,5090.0,-9.0,-8.0,3.0,9.0,18.0,6.0,-14.0,-15.0,2.173628807067871
411,-247.0,-162.0,150.0,0.0,10364.0,11609.0,-616.0,5084.0,-9.0,-8.0,3.0,9.0,18.0,6.0,-14.0,-15.0,2.1923716068267822
412,-247.0,-162.0,150.0,0.0,10364.0,11609.0,-616.0,5084.0,-16.0,-35.0,-12.0,5.0,25.0,27.0,-5.0,-22.0,2.195932626724243
413,-247.0,-162.0,150.0,0.0,10364.0,11609.0,-616.0,5084.0,-4.0,-7.0,-15.0,-12.0,-27.0,-18.0,0.0,-3.0,2.199289083480835
414,-121.0,-130.0,150.0,0.0,10372.0,11599.0,-658.0,5086.0,-4.0,-7.0,-15.0,-12.0,-27.0,-18.0,0.0,-3.0,2.214137554168701
415,-121.0,-130.0,150.0,0.0,10372.0,11599.0,-658.0,5086.0,4.0,0.0,-17.0,-6.0,4.0,-6.0,-22.0,-7.0,2.2183964252471924
416,-121.0,-130.0,150.0,0.0,10372.0,11599.0,-658.0,5086.0,3.0,12.0,4.0,-5.0,2.0,8.0,0.0,5.0,2.2222676277160645
417,-12.0,-119.0,73.0,0.0,10364.0,11606.0,-686.0,5082.0,3.0,12.0,4.0,-5.0,2.0,8.0,0.0,5.0,2.225900411605835
418,-12.0,-119.0,73.0,0.0,10364.0,11606.0,-686.0,5082.0,-2.0,-1.0,-4.0,7.0,8.0,-6.0,26.0,12.0,2.234689712524414
419,-12.0,-119.0,73.0,0.0,10364.0,11606.0,-686.0,5082.0,-1.0,-8.0,1.0,4.0,5.0,10.0,6.0,3.0,2.236536979675293
420,-32.0,-134.0,40.0,0.0,10362.0,11612.0,-710.0,5070.0,-1.0,-8.0,1.0,4.0,5.0,10.0,6.0,3.0,2.251008987426758
421,-32.0,-134.0,40.0,0.0,10362.0,11612.0,-710.0,5070.0,-8.0,-14.0,-1.0,4.0,-15.0,-8.0,-14.0,-17.0,2.254709243774414
422,-32.0,-134.0,40.0,0.0,10362.0,11612.0,-710.0,5070.0,-1.0,-10.0,2.0,-3.0,-4.0,-1.0,-8.0,-11.0,2.258690357208252
423,-123.0,-136.0,138.0,0.0,10365.0,11607.0,-753.0,5069.0,-1.0,-10.0,2.0,-3.0,-4.0,-1.0,-8.0,-11.0,2.2715611457824707
424,-123.0,-136.0,138.0,0.0,10365.0,11607.0,-753.0,5069.0,5.0,10.0,1.0,-23.0,-2.0,-11.0,42.0,17.0,2.2796432971954346
425,-123.0,-136.0,138.0,0.0,10365.0,11607.0,-753.0,5069.0,-2.0,-2.0,-3.0,2.0,14.0,8.0,-20.0,-18.0,2.2814815044403076
426,-37.0,-89.0,129.0,0.0,10361.0,11606.0,-784.0,5075.0,-2.0,-2.0,-3.0,2.0,14.0,8.0,-20.0,-18.0,2.2871010303497314
427,-37.0,-89.0,129.0,0.0,10361.0,11606.0,-784.0,5075.0,-8.0,-18.0,3.0,9.0,0.0,0.0,-11.0,-13.0,2.2902469635009766
428,-37.0,-89.0,129.0,0.0,10361.0,11606.0,-784.0,5075.0,17.0,34.0,5.0,0.0,5.0,5.0,14.0,18.0,2.2936055660247803
429,12.0,-79.0,95.0,0.0,10356.0,11608.0,-803.0,5077.0,17.0,34.0,5.0,0.0,5.0,5.0,14.0,18.0,2.311082601547241
430,12.0,-79.0,95.0,0.0,10356.0,11608.0,-803.0,5077.0,-3.0,-6.0,-1.0,-5.0,-10.0,-2.0,-25.0,-12.0,2.3143718242645264
431,12.0,-79.0,95.0,0.0,10356.0,11608.0,-803.0,5077.0,-14.0,-35.0,-13.0,7.0,-1.0,-9.0,-9.0,-7.0,2.3174986839294434
432,-75.0,-79.0,95.0,0.0,10360.0,11605.0,-823.0,5072.0,-14.0,-35.0,-13.0,7.0,-1.0,-9.0,-9.0,-7.0,2.333500862121582
433,-75.0,-79.0,95.0,0.0,10360.0,11605.0,-823.0,5072.0,2.0,0.0,-1.0,2.0,-13.0,-1.0,15.0,5.0,2.337151288986206
434,-75.0,-79.0,95.0,0.0,10360.0,11605.0,-823.0,5072.0,-14.0,-16.0,-2.0,-2.0,-10.0,-5.0,-11.0,-31.0,2.3409934043884277
435,-144.0,-84.0,116.0,0.0,10365.0,11597.0,-859.0,5074.0,-14.0,-16.0,-2.0,-2.0,-10.0,-5.0,-11.0,-31.0,2.3477940559387207
436,-144.0,-84.0,116.0,0.0,10365.0,11597.0,-859.0,5074.0,-9.0,-9.0,-3.0,17.0,32.0,-4.0,-26.0,-21.0,2.350388288497925
437,-144.0,-84.0,116.0,0.0,10365.0,11597.0,-859.0,5074.0,3.0,5.0,18.0,10.0,34.0,1.0,-26.0,8.0,2.3536875247955322
438,-24.0,-57.0,129.0,0.0,10358.0,11598.0,-886.0,5083.0,3.0,5.0,18.0,10.0,34.0,1.0,-26.0,8.0,2.3733556270599365
439,-24.0,-57.0,129.0,0.0,10358.0,11598.0,-886.0,5083.0,-7.0,-19.0,4.0,-1.0,-20.0,-7.0,-16.0,-4.0,2.377251386642456
440,-24.0,-57.0,129.0,0.0,10358.0,11598.0,-886.0,5083.0,-1.0,0.0,9.0,21.0,12.0,-1.0,20.0,8.0,2.380615711212158
441,85.0,-23.0,104.0,0.0,10338.0,11613.0,-894.0,5087.0,-1.0,0.0,9.0,21.0,12.0,-1.0,20.0,8.0,2.393010377883911
442,85.0,-23.0,104.0,0.0,10338.0,11613.0,-894.0,5087.0,-3.0,-9.0,-9.0,-10.0,-7.0,-28.0,-38.0,-18.0,2.3967955112457275
443,85.0,-23.0,104.0,0.0,10338.0,11613.0,-894.0,5087.0,0.0,-5.0,14.0,-6.0,-10.0,5.0,4.0,8.0,2.401118755340576
444,-52.0,-63.0,66.0,0.0,10337.0,11616.0,-908.0,5080.0,0.0,-5.0,14.0,-6.0,-10.0,5.0,4.0,8.0,2.409407377243042
445,-52.0,-63.0,66.0,0.0,10337.0,11616.0,-908.0,5080.0,4.0,6.0,-6.0,-3.0,-8.0,-9.0,-2.0,4.0,2.4114813804626465
446,-52.0,-63.0,66.0,0.0,10337.0,11616.0,-908.0,5080.0,-2.0,-3.0,-12.0,-6.0,-4.0,3.0,-2.0,-6.0,2.4132578372955322
447,-165.0,-71.0,86.0,0.0,10342.0,11608.0,-942.0,5079.0,-2.0,-3.0,-12.0,-6.0,-4.0,3.0,-2.0,-6.0,2.431918144226074
448,-165.0,-71.0,86.0,0.0,10342.0,11608.0,-942.0,5079.0,-1.0,0.0,8.0,6.0,-1.0,3.0,-13.0,-8.0,2.4355862140655518
449,-165.0,-71.0,86.0,0.0,10342.0,11608.0,-942.0,5079.0,3.0,-7.0,-23.0,-26.0,-36.0,5.0,21.0,14.0,2.439143419265747
450,-37.0,-50.0,78.0,0.0,10335.0,11610.0,-968.0,5087.0,3.0,-7.0,-23.0,-26.0,-36.0,5.0,21.0,14.0,2.4540300369262695
451,-37.0,-50.0,78.0,0.0,10335.0,11610.0,-968.0,5087.0,-12.0,-25.0,18.0,15.0,41.0,10.0,-1.0,-7.0,2.45757794380188
452,-37.0,-50.0,78.0,0.0,10335.0,11610.0,-968.0,5087.0,-2.0,1.0,4.0,-6.0,2.0,2.0,10.0,6.0,2.4612839221954346
453,95.0,-14.0,54.0,0.0,10318.0,11623.0,-968.0,5089.0,-2.0,1.0,4.0,-6.0,2.0,2.0,10.0,6.0,2.466996669769287
454,95.0,-14.0,54.0,0.0,10318.0,11623.0,-968.0,5089.0,0.0,-6.0,-5.0,-11.0,-13.0,6.0,2.0,1.0,2.4688880443573
455,95.0,-14.0,54.0,0.0,10318.0,11623.0,-968.0,5089.0,-2.0,-3.0,0.0,-4.0,3.0,-17.0,-13.0,-1.0,2.4750306606292725
456,-38.0,-42.0,25.0,0.0,10317.0,11627.0,-976.0,5081.0,-2.0,-3.0,0.0,-4.0,3.0,-17.0,-13.0,-1.0,2.4912045001983643
457,-38.0,-42.0,25.0,0.0,10317.0,11627.0,-976.0,5081.0,3.0,17.0,3.0,16.0,-1.0,-10.0,-3.0,1.0,2.495689630508423
458,-38.0,-42.0,25.0,0.0,10317.0,11627.0,-976.0,5081.0,3.0,6.0,-13.0,-4.0,-6.0,0.0,20.0,13.0,2.4993557929992676
459,-97.0,-59.0,14.0,0.0,10321.0,11624.0,-995.0,5077.0,3.0,6.0,-13.0,-4.0,-6.0,0.0,20.0,13.0,2.5124218463897705
460,-97.0,-59.0,14.0,0.0,10321.0,11624.0,-995.0,5077.0,-3.0,7.0,-6.0,2.0,3.0,-9.0,-7.0,-12.0,2.515714168548584
461,54.0,-6.0,15.0,0.0,10310.0,11632.0,-999.0,5081.0,-3.0,7.0,-6.0,2.0,3.0,-9.0,-7.0,-12.0,2.519090175628662
462,54.0,-6.0,15.0,0.0,10310.0,11632.0,-999.0,5081.0,-6.0,-22.0,-8.0,-28.0,-65.0,-7.0,14.0,6.0,2.522735118865967
463,54.0,-6.0,15.0,0.0,10310.0,11632.0,-999.0,5081.0,7.0,17.0,23.0,0.0,10.0,21.0,5.0,8.0,2.534970998764038
464,114.0,31.0,3.0,0.0,10296.0,11645.0,-985.0,5082.0,7.0,17.0,23.0,0.0,10.0,21.0,5.0,8.0,2.5369837284088135
465,114.0,31.0,3.0,0.0,10296.0,11645.0,-985.0,5082.0,-2.0,9.0,4.0,2.0,23.0,-2.0,-10.0,-1.0,2.541411876678467
466,114.0,31.0,3.0,0.0,10296.0,11645.0,-985.0,5082.0,8.0,24.0,9.0,11.0,17.0,15.0,7.0,6.0,2.549795627593994
467,-3.0,44.0,-5.0,0.0,10294.0,11648.0,-976.0,5081.0,8.0,24.0,9.0,11.0,17.0,15.0,7.0,6.0,2.552027463912964
468,-3.0,44.0,-5.0,0.0,10294.0,11648.0,-976.0,5081.0,-5.0,-9.0,-8.0,-7.0,0.0,6.0,24.0,3.0,2.5576024055480957
469,-3.0,44.0,-5.0,0.0,10294.0,11648.0,-976.0,5081.0,0.0,-6.0,-10.0,-16.0,-47.0,-20.0,-11.0,-5.0,2.5719985961914062
470,-71.0,34.0,3.0,0.0,10300.0,11642.0,-975.0,5082.0,0.0,-6.0,-10.0,-16.0,-47.0,-20.0,-11.0,-5.0,2.57379412651062
471,-71.0,34.0,3.0,0.0,10300.0,11642.0,-975.0,5082.0,-3.0,-5.0,-11.0,8.0,18.0,4.0,-14.0,-10.0,2.5786895751953125
472,-71.0,34.0,3.0,0.0,10300.0,11642.0,-975.0,5082.0,1.0,-2.0,-8.0,-2.0,-1.0,4.0,9.0,7.0,2.5957601070404053
473,9.0,51.0,-12.0,0.0,10299.0,11640.0,-970.0,5090.0,1.0,-2.0,-8.0,-2.0,-1.0,4.0,9.0,7.0,2.5987167358398438
474,9.0,51.0,-12.0,0.0,10299.0,11640.0,-970.0,5090.0,5.0,5.0,11.0,9.0,2.0,1.0,34.0,22.0,2.6017136573791504
475,9.0,51.0,-12.0,0.0,10299.0,11640.0,-970.0,5090.0,-2.0,18.0,-9.0,1.0,0.0,-5.0,-38.0,-45.0,2.6095173358917236
476,92.0,101.0,-21.0,0.0,10290.0,11646.0,-948.0,5098.0,-2.0,18.0,-9.0,1.0,0.0,-5.0,-38.0,-45.0,2.6113295555114746
477,92.0,101.0,-21.0,0.0,10290.0,11646.0,-948.0,5098.0,1.0,2.0,4.0,4.0,20.0,2.0,-13.0,-7.0,2.6170473098754883
478,92.0,101.0,-21.0,0.0,10290.0,11646.0,-948.0,5098.0,1.0,-9.0,-5.0,-5.0,5.0,-1.0,7.0,14.0,2.631709337234497
479,-54.0,79.0,17.0,0.0,10294.0,11640.0,-941.0,5105.0,1.0,-9.0,-5.0,-5.0,5.0,-1.0,7.0,14.0,2.6347222328186035
480,-54.0,79.0,17.0,0.0,10294.0,11640.0,-941.0,5105.0,2.0,0.0,-4.0,2.0,1.0,6.0,1.0,5.0,2.639216661453247
481,-54.0,79.0,17.0,0.0,10294.0,11640.0,-941.0,5105.0,1.0,-2.0,4.0,-15.0,-2.0,4.0,9.0,8.0,2.6569535732269287
482,-64.0,79.0,24.0,0.0,10299.0,11631.0,-940.0,5117.0,1.0,-2.0,4.0,-15.0,-2.0,4.0,9.0,8.0,2.660702705383301
483,-64.0,79.0,24.0,0.0,10299.0,11631.0,-940.0,5117.0,-2.0,-1.0,0.0,-3.0,-25.0,-9.0,-26.0,-14.0,2.6707241535186768
484,-64.0,79.0,24.0,0.0,10299.0,11631.0,-940.0,5117.0,-2.0,-3.0,-12.0,23.0,19.0,-19.0,11.0,4.0,2.6725215911865234
485,16.0,96.0,37.0,0.0,10294.0,11630.0,-932.0,5131.0,-2.0,-3.0,-12.0,23.0,19.0,-19.0,11.0,4.0,2.6743054389953613
486,16.0,96.0,37.0,0.0,10294.0,11630.0,-932.0,5131.0,-5.0,-7.0,-11.0,-2.0,-6.0,-9.0,-26.0,-16.0,2.676945686340332
487,16.0,96.0,37.0,0.0,10294.0,11630.0,-932.0,5131.0,-4.0,-5.0,-3.0,-3.0,1.0,6.0,2.0,2.0,2.6921417713165283
488,14.0,95.0,23.0,0.0,10290.0,11630.0,-919.0,5140.0,-4.0,-5.0,-3.0,-3.0,1.0,6.0,2.0,2.0,2.693955898284912
489,14.0,95.0,23.0,0.0,10290.0,11630.0,-919.0,5140.0,0.0,-6.0,-5.0,3.0,5.0,0.0,-1.0,-6.0,2.698751926422119
490,14.0,95.0,23.0,0.0,10290.0,11630.0,-919.0,5140.0,2.0,13.0,-3.0,-5.0,-24.0,0.0,-4.0,-6.0,2.7151834964752197
491,-50.0,84.0,52.0,0.0,10293.0,11620.0,-919.0,5155.0,2.0,13.0,-3.0,-5.0,-24.0,0.0,-4.0,-6.0,2.7183265686035156
492,-50.0,84.0,52.0,0.0,10293.0,11620.0,-919.0,5155.0,4.0,7.0,-1.0,6.0,5.0,5.0,-12.0,-6.0,2.7226624488830566
493,-50.0,84.0,52.0,0.0,10293.0,11620.0,-919.0,5155.0,-8.0,-23.0,5.0,-6.0,-1.0,1.0,2.0,0.0,2.7295281887054443
494,-8.0,81.0,76.0,0.0,10289.0,11616.0,-920.0,5173.0,-8.0,-23.0,5.0,-6.0,-1.0,1.0,2.0,0.0,2.7313597202301025
495,-8.0,81.0,76.0,0.0,10289.0,11616.0,-920.0,5173.0,-3.0,5.0,2.0,4.0,7.0,-3.0,-2.0,1.0,2.7365617752075195
496,-8.0,81.0,76.0,0.0,10289.0,11616.0,-920.0,5173.0,-5.0,-16.0,-7.0,-6.0,-13.0,-4.0,-8.0,-2.0,2.7517659664154053
497,56.0,80.0,99.0,0.0,10272.0,11622.0,-921.0,5193.0,-5.0,-16.0,-7.0,-6.0,-13.0,-4.0,-8.0,-2.0,2.754753589630127
498,56.0,80.0,99.0,0.0,10272.0,11622.0,-921.0,5193.0,-2.0,2.0,2.0,0.0,5.0,0.0,-5.0,-5.0,2.75952410697937
499,56.0,80.0,99.0,0.0,10272.0,11622.0,-921.0,5193.0,-1.0,-2.0,5.0,3.0,10.0,-4.0,-15.0,-2.0,2.7762112617492676
