,Gyro 0,Gyro 1,Gyro 2,Label,Orientation 0,Orientation 1,Orientation 2,Orientation 3,Sensor 0,Sensor 1,Sensor 2,Sensor 3,Sensor 4,Sensor 5,Sensor 6,Sensor 7,Timestamp
0,260.0,-148.0,60.0,1.0,48.0,11009.0,8003.0,9120.0,7.0,3.0,-5.0,-8.0,1.0,1.0,-3.0,2.0,2.384185791015625e-06
1,260.0,-148.0,60.0,1.0,48.0,11009.0,8003.0,9120.0,9.0,2.0,4.0,1.0,-6.0,-1.0,-5.0,3.0,0.0025997161865234375
2,260.0,-148.0,60.0,1.0,48.0,11009.0,8003.0,9120.0,-16.0,-11.0,9.0,7.0,5.0,-2.0,-5.0,-7.0,0.006162405014038086
3,167.0,-149.0,42.0,1.0,33.0,11023.0,8009.0,9097.0,-16.0,-11.0,9.0,7.0,5.0,-2.0,-5.0,-7.0,0.009503602981567383
4,167.0,-149.0,42.0,1.0,33.0,11023.0,8009.0,9097.0,1.0,0.0,20.0,-10.0,-6.0,-3.0,-3.0,1.0,0.01378321647644043
5,109.0,-140.0,21.0,1.0,34.0,11034.0,8016.0,9077.0,1.0,0.0,20.0,-10.0,-6.0,-3.0,-3.0,1.0,0.015939950942993164
6,109.0,-140.0,21.0,1.0,34.0,11034.0,8016.0,9077.0,-14.0,-2.0,-9.0,-2.0,-10.0,-2.0,-3.0,0.0,0.01827526092529297
7,109.0,-140.0,21.0,1.0,34.0,11034.0,8016.0,9077.0,-2.0,-2.0,-36.0,-11.0,-5.0,-2.0,1.0,-3.0,0.02185678482055664
8,53.0,-117.0,64.0,1.0,36.0,11049.0,8016.0,9060.0,-2.0,-2.0,-36.0,-11.0,-5.0,-2.0,1.0,-3.0,0.025523662567138672
9,53.0,-117.0,64.0,1.0,36.0,11049.0,8016.0,9060.0,-1.0,-17.0,21.0,-2.0,-10.0,-6.0,-11.0,-4.0,0.027867794036865234
10,53.0,-117.0,64.0,1.0,36.0,11049.0,8016.0,9060.0,2.0,-7.0,1.0,12.0,-4.0,0.0,-3.0,2.0,0.029702425003051758
11,-3.0,-77.0,89.0,1.0,35.0,11062.0,8004.0,9054.0,2.0,-7.0,1.0,12.0,-4.0,0.0,-3.0,2.0,0.031531572341918945
12,-3.0,-77.0,89.0,1.0,35.0,11062.0,8004.0,9054.0,2.0,14.0,-4.0,2.0,10.0,-2.0,3.0,-1.0,0.03340768814086914
13,-3.0,-77.0,89.0,1.0,35.0,11062.0,8004.0,9054.0,14.0,0.0,14.0,11.0,18.0,3.0,-14.0,5.0,0.03523564338684082
14,-62.0,-31.0,138.0,1.0,32.0,11073.0,7978.0,9064.0,14.0,0.0,14.0,11.0,18.0,3.0,-14.0,5.0,0.03702235221862793
15,-62.0,-31.0,138.0,1.0,32.0,11073.0,7978.0,9064.0,-2.0,-9.0,13.0,-10.0,-10.0,5.0,1.0,-4.0,0.03970932960510254
16,-62.0,-31.0,138.0,1.0,32.0,11073.0,7978.0,9064.0,1.0,-5.0,30.0,-2.0,-8.0,2.0,-12.0,-1.0,0.04242300987243652
17,-136.0,4.0,158.0,1.0,31.0,11080.0,7941.0,9088.0,1.0,-5.0,30.0,-2.0,-8.0,2.0,-12.0,-1.0,0.04427766799926758
18,-136.0,4.0,158.0,1.0,31.0,11080.0,7941.0,9088.0,1.0,-11.0,35.0,13.0,9.0,-2.0,1.0,2.0,0.04617881774902344
19,-136.0,4.0,158.0,1.0,31.0,11080.0,7941.0,9088.0,-4.0,-13.0,-25.0,-16.0,-19.0,-7.0,-8.0,-7.0,0.04798150062561035
20,-249.0,25.0,165.0,1.0,39.0,11086.0,7889.0,9125.0,-4.0,-13.0,-25.0,-16.0,-19.0,-7.0,-8.0,-7.0,0.04979085922241211
21,-249.0,25.0,165.0,1.0,39.0,11086.0,7889.0,9125.0,0.0,8.0,4.0,-18.0,-18.0,-11.0,-4.0,2.0,0.053320884704589844
22,-249.0,25.0,165.0,1.0,39.0,11086.0,7889.0,9125.0,11.0,12.0,-7.0,0.0,17.0,-1.0,-4.0,-4.0,0.05746579170227051
23,-344.0,25.0,202.0,1.0,49.0,11098.0,7821.0,9169.0,11.0,12.0,-7.0,0.0,17.0,-1.0,-4.0,-4.0,0.0600588321685791
24,-344.0,25.0,202.0,1.0,49.0,11098.0,7821.0,9169.0,2.0,9.0,-26.0,-5.0,2.0,-1.0,-5.0,-2.0,0.061975717544555664
25,-344.0,25.0,202.0,1.0,49.0,11098.0,7821.0,9169.0,-7.0,-8.0,-11.0,-1.0,-1.0,-4.0,-7.0,-2.0,0.06377983093261719
26,-401.0,-22.0,214.0,1.0,63.0,11120.0,7743.0,9208.0,-7.0,-8.0,-11.0,-1.0,-1.0,-4.0,-7.0,-2.0,0.06556224822998047
27,-401.0,-22.0,214.0,1.0,63.0,11120.0,7743.0,9208.0,-5.0,-20.0,1.0,2.0,-5.0,-2.0,5.0,2.0,0.06860804557800293
28,-401.0,-22.0,214.0,1.0,63.0,11120.0,7743.0,9208.0,-7.0,0.0,-6.0,-3.0,-9.0,4.0,6.0,0.0,0.07057785987854004
29,-431.0,-82.0,217.0,1.0,77.0,11154.0,7660.0,9236.0,-7.0,0.0,-6.0,-3.0,-9.0,4.0,6.0,0.0,0.07239747047424316
30,-431.0,-82.0,217.0,1.0,77.0,11154.0,7660.0,9236.0,12.0,26.0,8.0,-7.0,-2.0,-4.0,-3.0,1.0,0.07427453994750977
31,-431.0,-82.0,217.0,1.0,77.0,11154.0,7660.0,9236.0,2.0,42.0,-11.0,-3.0,-1.0,-1.0,-2.0,2.0,0.07635807991027832
32,-368.0,-140.0,204.0,1.0,87.0,11193.0,7582.0,9253.0,2.0,42.0,-11.0,-3.0,-1.0,-1.0,-2.0,2.0,0.0782938003540039
33,-368.0,-140.0,204.0,1.0,87.0,11193.0,7582.0,9253.0,-2.0,-6.0,-6.0,6.0,-1.0,3.0,7.0,-3.0,0.08016276359558105
34,-368.0,-140.0,204.0,1.0,87.0,11193.0,7582.0,9253.0,2.0,-1.0,10.0,4.0,6.0,1.0,3.0,-3.0,0.0820763111114502
35,-206.0,-181.0,156.0,1.0,90.0,11233.0,7530.0,9247.0,2.0,-1.0,10.0,4.0,6.0,1.0,3.0,-3.0,0.08583307266235352
36,-206.0,-181.0,156.0,1.0,90.0,11233.0,7530.0,9247.0,7.0,-5.0,-26.0,6.0,14.0,9.0,7.0,4.0,0.08803296089172363
37,-206.0,-181.0,156.0,1.0,90.0,11233.0,7530.0,9247.0,-17.0,-18.0,-28.0,3.0,0.0,-2.0,-3.0,-3.0,0.09133291244506836
38,-21.0,-201.0,94.0,1.0,90.0,11269.0,7514.0,9217.0,-17.0,-18.0,-28.0,3.0,0.0,-2.0,-3.0,-3.0,0.09339308738708496
39,-21.0,-201.0,94.0,1.0,90.0,11269.0,7514.0,9217.0,0.0,-1.0,2.0,-4.0,1.0,1.0,7.0,1.0,0.0953369140625
40,-21.0,-201.0,94.0,1.0,90.0,11269.0,7514.0,9217.0,1.0,4.0,-13.0,-5.0,-4.0,-3.0,2.0,-1.0,0.09712362289428711
41,108.0,-204.0,55.0,1.0,90.0,11300.0,7524.0,9171.0,1.0,4.0,-13.0,-5.0,-4.0,-3.0,2.0,-1.0,0.09893393516540527
42,108.0,-204.0,55.0,1.0,90.0,11300.0,7524.0,9171.0,-2.0,33.0,18.0,5.0,-4.0,-5.0,-3.0,-3.0,0.10082602500915527
43,108.0,-204.0,55.0,1.0,90.0,11300.0,7524.0,9171.0,8.0,23.0,21.0,6.0,6.0,2.0,-1.0,5.0,0.10289335250854492
44,125.0,-187.0,43.0,1.0,98.0,11326.0,7543.0,9123.0,8.0,23.0,21.0,6.0,6.0,2.0,-1.0,5.0,0.104705810546875
45,125.0,-187.0,43.0,1.0,98.0,11326.0,7543.0,9123.0,-6.0,17.0,25.0,-4.0,-6.0,-2.0,-11.0,-3.0,0.10663127899169922
46,125.0,-187.0,43.0,1.0,98.0,11326.0,7543.0,9123.0,9.0,-1.0,5.0,8.0,7.0,4.0,-5.0,5.0,0.10843372344970703
47,94.0,-141.0,57.0,1.0,108.0,11346.0,7559.0,9084.0,9.0,-1.0,5.0,8.0,7.0,4.0,-5.0,5.0,0.11029481887817383
48,94.0,-141.0,57.0,1.0,108.0,11346.0,7559.0,9084.0,11.0,10.0,-3.0,-10.0,-6.0,-1.0,-2.0,-2.0,0.11215782165527344
49,94.0,-141.0,57.0,1.0,108.0,11346.0,7559.0,9084.0,-7.0,11.0,-10.0,1.0,-7.0,1.0,0.0,-5.0,0.11538481712341309
50,19.0,-70.0,85.0,1.0,122.0,11359.0,7565.0,9062.0,-7.0,11.0,-10.0,1.0,-7.0,1.0,0.0,-5.0,0.11845898628234863
51,19.0,-70.0,85.0,1.0,122.0,11359.0,7565.0,9062.0,-14.0,-35.0,-13.0,2.0,5.0,-2.0,1.0,-10.0,0.1204674243927002
52,19.0,-70.0,85.0,1.0,122.0,11359.0,7565.0,9062.0,-2.0,6.0,21.0,0.0,9.0,-2.0,8.0,5.0,0.12342429161071777
53,-40.0,-44.0,108.0,1.0,143.0,11371.0,7565.0,9047.0,-2.0,6.0,21.0,0.0,9.0,-2.0,8.0,5.0,0.12584137916564941
54,-40.0,-44.0,108.0,1.0,143.0,11371.0,7565.0,9047.0,-16.0,-21.0,18.0,-2.0,-2.0,3.0,-6.0,1.0,0.1277914047241211
55,-40.0,-44.0,108.0,1.0,143.0,11371.0,7565.0,9047.0,-6.0,-21.0,-2.0,0.0,7.0,7.0,-5.0,3.0,0.12967634201049805
56,-82.0,-56.0,73.0,1.0,170.0,11382.0,7563.0,9035.0,-6.0,-21.0,-2.0,0.0,7.0,7.0,-5.0,3.0,0.13152241706848145
57,-82.0,-56.0,73.0,1.0,170.0,11382.0,7563.0,9035.0,-2.0,-12.0,-16.0,-6.0,3.0,-6.0,1.0,-2.0,0.1333937644958496
58,-82.0,-56.0,73.0,1.0,170.0,11382.0,7563.0,9035.0,-11.0,-15.0,3.0,2.0,-6.0,-9.0,-4.0,-6.0,0.13535809516906738
59,-136.0,-62.0,64.0,1.0,200.0,11394.0,7554.0,9026.0,-11.0,-15.0,3.0,2.0,-6.0,-9.0,-4.0,-6.0,0.1371915340423584
60,-136.0,-62.0,64.0,1.0,200.0,11394.0,7554.0,9026.0,17.0,47.0,0.0,6.0,-5.0,3.0,3.0,5.0,0.1391007900238037
61,-136.0,-62.0,64.0,1.0,200.0,11394.0,7554.0,9026.0,15.0,16.0,19.0,4.0,-10.0,0.0,-1.0,1.0,0.1408860683441162
62,-204.0,-31.0,43.0,1.0,237.0,11405.0,7543.0,9021.0,15.0,16.0,19.0,4.0,-10.0,0.0,-1.0,1.0,0.14272475242614746
63,-204.0,-31.0,43.0,1.0,237.0,11405.0,7543.0,9021.0,-21.0,-36.0,-16.0,-3.0,-3.0,-2.0,-1.0,-6.0,0.14510774612426758
64,-204.0,-31.0,43.0,1.0,237.0,11405.0,7543.0,9021.0,6.0,15.0,8.0,-3.0,-8.0,-2.0,1.0,-1.0,0.148390531539917
65,-215.0,-2.0,6.0,1.0,273.0,11416.0,7537.0,9011.0,6.0,15.0,8.0,-3.0,-8.0,-2.0,1.0,-1.0,0.15046334266662598
66,-215.0,-2.0,6.0,1.0,273.0,11416.0,7537.0,9011.0,-2.0,-25.0,-43.0,-2.0,-8.0,0.0,1.0,8.0,0.15244221687316895
67,-215.0,-2.0,6.0,1.0,273.0,11416.0,7537.0,9011.0,-5.0,-15.0,-3.0,4.0,0.0,-1.0,-6.0,-6.0,0.15429472923278809
68,-261.0,63.0,5.0,1.0,311.0,11423.0,7530.0,9007.0,-5.0,-15.0,-3.0,4.0,0.0,-1.0,-6.0,-6.0,0.15731000900268555
69,-261.0,63.0,5.0,1.0,311.0,11423.0,7530.0,9007.0,-2.0,6.0,-3.0,3.0,2.0,1.0,2.0,-4.0,0.15955853462219238
70,-261.0,63.0,5.0,1.0,311.0,11423.0,7530.0,9007.0,2.0,-20.0,-1.0,-2.0,-10.0,-8.0,-5.0,4.0,0.16141581535339355
71,-214.0,142.0,-36.0,1.0,335.0,11425.0,7531.0,9003.0,2.0,-20.0,-1.0,-2.0,-10.0,-8.0,-5.0,4.0,0.16326379776000977
72,-214.0,142.0,-36.0,1.0,335.0,11425.0,7531.0,9003.0,-5.0,-22.0,16.0,1.0,2.0,-3.0,-9.0,-4.0,0.16513919830322266
73,-214.0,142.0,-36.0,1.0,335.0,11425.0,7531.0,9003.0,6.0,29.0,11.0,-11.0,-7.0,-4.0,-3.0,-8.0,0.16693925857543945
74,-50.0,168.0,-95.0,1.0,337.0,11419.0,7553.0,8992.0,6.0,29.0,11.0,-11.0,-7.0,-4.0,-3.0,-8.0,0.16886019706726074
75,-50.0,168.0,-95.0,1.0,337.0,11419.0,7553.0,8992.0,14.0,11.0,5.0,-6.0,-8.0,2.0,-3.0,3.0,0.1707592010498047
76,-50.0,168.0,-95.0,1.0,337.0,11419.0,7553.0,8992.0,-11.0,-16.0,-25.0,-8.0,-12.0,-6.0,-3.0,0.0,0.17255234718322754
77,117.0,211.0,-117.0,1.0,313.0,11405.0,7588.0,8981.0,-11.0,-16.0,-25.0,-8.0,-12.0,-6.0,-3.0,0.0,0.17435455322265625
78,117.0,211.0,-117.0,1.0,313.0,11405.0,7588.0,8981.0,13.0,6.0,13.0,3.0,17.0,3.0,8.0,6.0,0.17779088020324707
79,117.0,211.0,-117.0,1.0,313.0,11405.0,7588.0,8981.0,0.0,-6.0,-12.0,-3.0,-8.0,0.0,8.0,2.0,0.18072104454040527
80,212.0,259.0,-144.0,1.0,281.0,11375.0,7634.0,8981.0,0.0,-6.0,-12.0,-3.0,-8.0,0.0,8.0,2.0,0.18279194831848145
81,212.0,259.0,-144.0,1.0,281.0,11375.0,7634.0,8981.0,0.0,-4.0,-8.0,12.0,9.0,3.0,-5.0,-2.0,0.18488574028015137
82,212.0,259.0,-144.0,1.0,281.0,11375.0,7634.0,8981.0,-21.0,-27.0,-3.0,-11.0,-6.0,-6.0,-6.0,-4.0,0.18689656257629395
83,291.0,284.0,-173.0,1.0,247.0,11332.0,7691.0,8988.0,-21.0,-27.0,-3.0,-11.0,-6.0,-6.0,-6.0,-4.0,0.18890881538391113
84,291.0,284.0,-173.0,1.0,247.0,11332.0,7691.0,8988.0,10.0,37.0,-4.0,0.0,1.0,2.0,-6.0,1.0,0.19202065467834473
85,291.0,284.0,-173.0,1.0,247.0,11332.0,7691.0,8988.0,2.0,11.0,1.0,-3.0,0.0,-2.0,-9.0,0.0,0.19390535354614258
86,382.0,241.0,-236.0,1.0,215.0,11283.0,7764.0,8987.0,2.0,11.0,1.0,-3.0,0.0,-2.0,-9.0,0.0,0.19571638107299805
87,382.0,241.0,-236.0,1.0,215.0,11283.0,7764.0,8987.0,12.0,-7.0,-2.0,-1.0,13.0,4.0,7.0,3.0,0.19759750366210938
88,382.0,241.0,-236.0,1.0,215.0,11283.0,7764.0,8987.0,1.0,-6.0,-1.0,7.0,17.0,11.0,1.0,1.0,0.19939470291137695
89,427.0,167.0,-279.0,1.0,193.0,11238.0,7850.0,8971.0,1.0,-6.0,-1.0,7.0,17.0,11.0,1.0,1.0,0.20119690895080566
90,427.0,167.0,-279.0,1.0,193.0,11238.0,7850.0,8971.0,-1.0,1.0,18.0,-15.0,-44.0,-9.0,-2.0,2.0,0.20319390296936035
91,427.0,167.0,-279.0,1.0,193.0,11238.0,7850.0,8971.0,-9.0,-13.0,-17.0,-2.0,13.0,1.0,1.0,0.0,0.20499897003173828
92,302.0,160.0,-238.0,1.0,194.0,11192.0,7925.0,8961.0,-9.0,-13.0,-17.0,-2.0,13.0,1.0,1.0,0.0,0.20820403099060059
93,302.0,160.0,-238.0,1.0,194.0,11192.0,7925.0,8961.0,-3.0,38.0,-11.0,6.0,6.0,4.0,3.0,1.0,0.21087026596069336
94,302.0,160.0,-238.0,1.0,194.0,11192.0,7925.0,8961.0,3.0,-7.0,-17.0,0.0,2.0,-3.0,-8.0,0.0,0.21273088455200195
95,-52.0,243.0,-90.0,1.0,213.0,11155.0,7948.0,8987.0,3.0,-7.0,-17.0,0.0,2.0,-3.0,-8.0,0.0,0.21458649635314941
96,-52.0,243.0,-90.0,1.0,213.0,11155.0,7948.0,8987.0,-3.0,5.0,1.0,-9.0,-7.0,-6.0,-6.0,-4.0,0.2164599895477295
97,-52.0,243.0,-90.0,1.0,213.0,11155.0,7948.0,8987.0,-3.0,-9.0,18.0,-4.0,-22.0,-4.0,1.0,-1.0,0.218292236328125
98,-269.0,267.0,12.0,1.0,217.0,11135.0,7922.0,9034.0,-3.0,-9.0,18.0,-4.0,-22.0,-4.0,1.0,-1.0,0.2200934886932373
99,-269.0,267.0,12.0,1.0,217.0,11135.0,7922.0,9034.0,-18.0,-25.0,-8.0,-8.0,-9.0,-5.0,-9.0,-5.0,0.22196269035339355
100,-269.0,267.0,12.0,1.0,217.0,11135.0,7922.0,9034.0,6.0,0.0,5.0,6.0,7.0,3.0,2.0,-2.0,0.2254166603088379
101,-82.0,237.0,10.0,1.0,180.0,11123.0,7899.0,9069.0,6.0,0.0,5.0,6.0,7.0,3.0,2.0,-2.0,0.22736048698425293
102,-82.0,237.0,10.0,1.0,180.0,11123.0,7899.0,9069.0,-13.0,-19.0,2.0,4.0,-4.0,-13.0,-1.0,-12.0,0.2292630672454834
103,-82.0,237.0,10.0,1.0,180.0,11123.0,7899.0,9069.0,-7.0,1.0,-4.0,-4.0,7.0,5.0,2.0,-10.0,0.2310807704925537
104,355.0,129.0,-79.0,1.0,115.0,11109.0,7932.0,9059.0,-7.0,1.0,-4.0,-4.0,7.0,5.0,2.0,-10.0,0.23288655281066895
105,355.0,129.0,-79.0,1.0,115.0,11109.0,7932.0,9059.0,10.0,15.0,10.0,8.0,16.0,10.0,6.0,7.0,0.23486113548278809
106,355.0,129.0,-79.0,1.0,115.0,11109.0,7932.0,9059.0,2.0,30.0,40.0,-1.0,-4.0,2.0,1.0,7.0,0.23714327812194824
107,581.0,20.0,-112.0,1.0,55.0,11090.0,7998.0,9025.0,2.0,30.0,40.0,-1.0,-4.0,2.0,1.0,7.0,0.24070000648498535
108,581.0,20.0,-112.0,1.0,55.0,11090.0,7998.0,9025.0,6.0,2.0,12.0,-1.0,9.0,-4.0,-4.0,-1.0,0.24273085594177246
109,581.0,20.0,-112.0,1.0,55.0,11090.0,7998.0,9025.0,2.0,-30.0,-37.0,-12.0,7.0,-5.0,-1.0,-3.0,0.24458670616149902
110,359.0,-13.0,-39.0,1.0,40.0,11070.0,8045.0,9008.0,2.0,-30.0,-37.0,-12.0,7.0,-5.0,-1.0,-3.0,0.24640583992004395
111,359.0,-13.0,-39.0,1.0,40.0,11070.0,8045.0,9008.0,-2.0,-18.0,-8.0,-31.0,-49.0,-19.0,-13.0,-2.0,0.24827909469604492
112,359.0,-13.0,-39.0,1.0,40.0,11070.0,8045.0,9008.0,-9.0,4.0,-41.0,4.0,-2.0,-6.0,-10.0,1.0,0.2500755786895752
113,-201.0,13.0,43.0,1.0,84.0,11055.0,8028.0,9041.0,-9.0,4.0,-41.0,4.0,-2.0,-6.0,-10.0,1.0,0.2518880367279053
114,-201.0,13.0,43.0,1.0,84.0,11055.0,8028.0,9041.0,-12.0,-24.0,1.0,-3.0,-3.0,-3.0,-5.0,-4.0,0.2537577152252197
115,-201.0,13.0,43.0,1.0,84.0,11055.0,8028.0,9041.0,2.0,8.0,12.0,6.0,-4.0,-2.0,3.0,-2.0,0.25571227073669434
116,-491.0,50.0,91.0,1.0,127.0,11052.0,7962.0,9102.0,2.0,8.0,12.0,6.0,-4.0,-2.0,3.0,-2.0,0.25887489318847656
117,-491.0,50.0,91.0,1.0,127.0,11052.0,7962.0,9102.0,19.0,36.0,9.0,8.0,6.0,6.0,5.0,5.0,0.2608151435852051
118,-491.0,50.0,91.0,1.0,127.0,11052.0,7962.0,9102.0,12.0,-2.0,-2.0,0.0,-23.0,-1.0,7.0,1.0,0.2626378536224365
119,-382.0,46.0,127.0,1.0,137.0,11059.0,7894.0,9152.0,12.0,-2.0,-2.0,0.0,-23.0,-1.0,7.0,1.0,0.2644495964050293
120,-382.0,46.0,127.0,1.0,137.0,11059.0,7894.0,9152.0,2.0,-6.0,-21.0,-1.0,-1.0,6.0,3.0,0.0,0.2663278579711914
121,-382.0,46.0,127.0,1.0,137.0,11059.0,7894.0,9152.0,3.0,8.0,9.0,5.0,17.0,11.0,9.0,5.0,0.2701108455657959
122,-202.0,20.0,133.0,1.0,123.0,11070.0,7839.0,9187.0,3.0,8.0,9.0,5.0,17.0,11.0,9.0,5.0,0.27404022216796875
123,-202.0,20.0,133.0,1.0,123.0,11070.0,7839.0,9187.0,-9.0,-12.0,-5.0,5.0,0.0,-4.0,-2.0,-1.0,0.2763674259185791
124,-202.0,20.0,133.0,1.0,123.0,11070.0,7839.0,9187.0,-2.0,3.0,3.0,0.0,0.0,1.0,1.0,1.0,0.27822256088256836
125,-142.0,18.0,111.0,1.0,107.0,11074.0,7792.0,9221.0,-2.0,3.0,3.0,0.0,0.0,1.0,1.0,1.0,0.28003740310668945
126,-142.0,18.0,111.0,1.0,107.0,11074.0,7792.0,9221.0,-1.0,-3.0,24.0,2.0,7.0,-4.0,-10.0,-1.0,0.2819254398345947
127,-142.0,18.0,111.0,1.0,107.0,11074.0,7792.0,9221.0,-7.0,3.0,-12.0,-31.0,-31.0,-10.0,3.0,-9.0,0.2837209701538086
128,-185.0,11.0,106.0,1.0,98.0,11079.0,7742.0,9259.0,-7.0,3.0,-12.0,-31.0,-31.0,-10.0,3.0,-9.0,0.2856912612915039
129,-185.0,11.0,106.0,1.0,98.0,11079.0,7742.0,9259.0,9.0,20.0,-11.0,11.0,-2.0,-3.0,-3.0,-1.0,0.2876300811767578
130,-185.0,11.0,106.0,1.0,98.0,11079.0,7742.0,9259.0,3.0,-23.0,-5.0,0.0,5.0,-6.0,0.0,4.0,0.289426326751709
131,-248.0,18.0,93.0,1.0,101.0,11079.0,7689.0,9302.0,3.0,-23.0,-5.0,0.0,5.0,-6.0,0.0,4.0,0.2912173271179199
132,-248.0,18.0,93.0,1.0,101.0,11079.0,7689.0,9302.0,-11.0,-36.0,-11.0,-1.0,9.0,5.0,13.0,1.0,0.2930917739868164
133,-248.0,18.0,93.0,1.0,101.0,11079.0,7689.0,9302.0,-2.0,5.0,2.0,5.0,8.0,4.0,-12.0,0.0,0.29488182067871094
134,-291.0,60.0,114.0,1.0,111.0,11073.0,7631.0,9358.0,-2.0,5.0,2.0,5.0,8.0,4.0,-12.0,0.0,0.2966642379760742
135,-291.0,60.0,114.0,1.0,111.0,11073.0,7631.0,9358.0,-8.0,-23.0,32.0,0.0,-1.0,0.0,-13.0,-4.0,0.3000342845916748
136,-291.0,60.0,114.0,1.0,111.0,11073.0,7631.0,9358.0,-6.0,-5.0,6.0,-3.0,-5.0,-5.0,10.0,-4.0,0.3027360439300537
137,-280.0,103.0,132.0,1.0,113.0,11065.0,7573.0,9413.0,-6.0,-5.0,6.0,-3.0,-5.0,-5.0,10.0,-4.0,0.30460357666015625
138,-280.0,103.0,132.0,1.0,113.0,11065.0,7573.0,9413.0,-11.0,-11.0,-15.0,4.0,7.0,0.0,11.0,3.0,0.3080143928527832
139,-280.0,103.0,132.0,1.0,113.0,11065.0,7573.0,9413.0,-5.0,-3.0,13.0,12.0,13.0,8.0,-6.0,0.0,0.30992937088012695
140,-207.0,117.0,106.0,1.0,110.0,11056.0,7529.0,9459.0,-5.0,-3.0,13.0,12.0,13.0,8.0,-6.0,0.0,0.3117532730102539
141,-207.0,117.0,106.0,1.0,110.0,11056.0,7529.0,9459.0,3.0,18.0,7.0,-6.0,-1.0,8.0,18.0,1.0,0.31363415718078613
142,-207.0,117.0,106.0,1.0,110.0,11056.0,7529.0,9459.0,18.0,3.0,40.0,9.0,12.0,-1.0,-9.0,-2.0,0.3154428005218506
143,-214.0,141.0,70.0,1.0,113.0,11044.0,7493.0,9501.0,18.0,3.0,40.0,9.0,12.0,-1.0,-9.0,-2.0,0.31723690032958984
144,-214.0,141.0,70.0,1.0,113.0,11044.0,7493.0,9501.0,-6.0,-23.0,-23.0,-11.0,-9.0,2.0,4.0,3.0,0.31926918029785156
145,-214.0,141.0,70.0,1.0,113.0,11044.0,7493.0,9501.0,-18.0,-21.0,-10.0,5.0,11.0,-1.0,5.0,-5.0,0.32106995582580566
146,-190.0,163.0,55.0,1.0,109.0,11034.0,7462.0,9538.0,-18.0,-21.0,-10.0,5.0,11.0,-1.0,5.0,-5.0,0.3228731155395508
147,-190.0,163.0,55.0,1.0,109.0,11034.0,7462.0,9538.0,0.0,-3.0,-4.0,12.0,21.0,13.0,19.0,2.0,0.32473254203796387
148,-190.0,163.0,55.0,1.0,109.0,11034.0,7462.0,9538.0,4.0,6.0,-10.0,-11.0,-8.0,-5.0,-12.0,5.0,0.326549768447876
149,-95.0,190.0,66.0,1.0,95.0,11019.0,7442.0,9571.0,4.0,6.0,-10.0,-11.0,-8.0,-5.0,-12.0,5.0,0.3287172317504883
150,-95.0,190.0,66.0,1.0,95.0,11019.0,7442.0,9571.0,-7.0,-2.0,-23.0,1.0,2.0,-5.0,-10.0,-6.0,0.3323023319244385
151,-95.0,190.0,66.0,1.0,95.0,11019.0,7442.0,9571.0,1.0,0.0,20.0,11.0,10.0,0.0,-9.0,-3.0,0.3343956470489502
152,-69.0,207.0,44.0,1.0,77.0,11002.0,7426.0,9603.0,1.0,0.0,20.0,11.0,10.0,0.0,-9.0,-3.0,0.33627796173095703
153,-69.0,207.0,44.0,1.0,77.0,11002.0,7426.0,9603.0,2.0,15.0,2.0,-2.0,-13.0,-4.0,-18.0,-3.0,0.3382887840270996
154,-69.0,207.0,44.0,1.0,77.0,11002.0,7426.0,9603.0,-5.0,-13.0,-4.0,-3.0,-7.0,0.0,7.0,2.0,0.34134602546691895
155,-117.0,133.0,89.0,1.0,68.0,10998.0,7403.0,9626.0,-5.0,-13.0,-4.0,-3.0,-7.0,0.0,7.0,2.0,0.34325122833251953
156,-117.0,133.0,89.0,1.0,68.0,10998.0,7403.0,9626.0,7.0,16.0,10.0,5.0,-4.0,-5.0,-5.0,1.0,0.34515953063964844
157,-117.0,133.0,89.0,1.0,68.0,10998.0,7403.0,9626.0,0.0,7.0,-7.0,2.0,5.0,1.0,0.0,0.0,0.34697437286376953
158,-133.0,17.0,95.0,1.0,68.0,11008.0,7377.0,9633.0,0.0,7.0,-7.0,2.0,5.0,1.0,0.0,0.0,0.3488490581512451
159,-133.0,17.0,95.0,1.0,68.0,11008.0,7377.0,9633.0,-3.0,-2.0,-7.0,-9.0,0.0,-1.0,-7.0,-4.0,0.3508729934692383
160,-133.0,17.0,95.0,1.0,68.0,11008.0,7377.0,9633.0,-1.0,16.0,-17.0,-14.0,-16.0,-7.0,-10.0,-7.0,0.3529975414276123
161,-133.0,-63.0,37.0,1.0,86.0,11021.0,7360.0,9632.0,-1.0,16.0,-17.0,-14.0,-16.0,-7.0,-10.0,-7.0,0.354816198348999
162,-133.0,-63.0,37.0,1.0,86.0,11021.0,7360.0,9632.0,3.0,-4.0,1.0,-5.0,-1.0,-5.0,0.0,0.0,0.35668373107910156
163,-133.0,-63.0,37.0,1.0,86.0,11021.0,7360.0,9632.0,3.0,11.0,5.0,-2.0,2.0,2.0,4.0,-1.0,0.35848212242126465
164,-132.0,-147.0,40.0,1.0,113.0,11043.0,7348.0,9616.0,3.0,11.0,5.0,-2.0,2.0,2.0,4.0,-1.0,0.36179518699645996
165,-132.0,-147.0,40.0,1.0,113.0,11043.0,7348.0,9616.0,3.0,3.0,-3.0,-2.0,0.0,-3.0,-8.0,1.0,0.36457037925720215
166,-132.0,-147.0,40.0,1.0,113.0,11043.0,7348.0,9616.0,-6.0,-7.0,9.0,8.0,3.0,3.0,-5.0,-2.0,0.3664216995239258
167,-178.0,-123.0,47.0,1.0,151.0,11058.0,7332.0,9609.0,-6.0,-7.0,9.0,8.0,3.0,3.0,-5.0,-2.0,0.36832141876220703
168,-178.0,-123.0,47.0,1.0,151.0,11058.0,7332.0,9609.0,6.0,22.0,-4.0,0.0,1.0,-1.0,-5.0,3.0,0.37020349502563477
169,-178.0,-123.0,47.0,1.0,151.0,11058.0,7332.0,9609.0,3.0,11.0,11.0,9.0,2.0,2.0,-3.0,1.0,0.37210774421691895
170,-181.0,-51.0,-7.0,1.0,189.0,11059.0,7322.0,9615.0,3.0,11.0,11.0,9.0,2.0,2.0,-3.0,1.0,0.37517786026000977
171,-181.0,-51.0,-7.0,1.0,189.0,11059.0,7322.0,9615.0,-5.0,-11.0,-20.0,-8.0,2.0,4.0,-1.0,-4.0,0.3771860599517822
172,-181.0,-51.0,-7.0,1.0,189.0,11059.0,7322.0,9615.0,-5.0,-1.0,6.0,4.0,-4.0,-3.0,-2.0,-1.0,0.37900876998901367
173,-156.0,-68.0,-85.0,1.0,236.0,11054.0,7325.0,9618.0,-5.0,-1.0,6.0,4.0,-4.0,-3.0,-2.0,-1.0,0.38080263137817383
174,-156.0,-68.0,-85.0,1.0,236.0,11054.0,7325.0,9618.0,2.0,-10.0,2.0,5.0,-11.0,-20.0,-13.0,-2.0,0.3827171325683594
175,-156.0,-68.0,-85.0,1.0,236.0,11054.0,7325.0,9618.0,-5.0,-1.0,1.0,2.0,2.0,-1.0,-1.0,2.0,0.38454508781433105
176,-156.0,-68.0,-85.0,1.0,236.0,11054.0,7325.0,9618.0,2.0,0.0,5.0,5.0,1.0,4.0,4.0,5.0,0.386521577835083
177,-222.0,66.0,29.0,1.0,722.0,11217.0,7722.0,9079.0,2.0,0.0,5.0,5.0,1.0,4.0,4.0,5.0,0.3883030414581299
178,-222.0,66.0,29.0,1.0,722.0,11217.0,7722.0,9079.0,-7.0,-2.0,24.0,-4.0,-18.0,-5.0,-5.0,5.0,0.3903064727783203
179,-222.0,66.0,29.0,1.0,722.0,11217.0,7722.0,9079.0,-2.0,-2.0,-5.0,-7.0,-18.0,-5.0,-10.0,-5.0,0.39374494552612305
180,-39.0,70.0,69.0,1.0,692.0,11227.0,7701.0,9087.0,-2.0,-2.0,-5.0,-7.0,-18.0,-5.0,-10.0,-5.0,0.39905762672424316
181,-39.0,70.0,69.0,1.0,692.0,11227.0,7701.0,9087.0,6.0,13.0,-2.0,9.0,12.0,2.0,-7.0,-2.0,0.4009733200073242
182,-39.0,70.0,69.0,1.0,692.0,11227.0,7701.0,9087.0,-3.0,-3.0,-19.0,-14.0,-17.0,-3.0,-5.0,2.0,0.40281105041503906
183,233.0,104.0,83.0,1.0,631.0,11228.0,7703.0,9089.0,-3.0,-3.0,-19.0,-14.0,-17.0,-3.0,-5.0,2.0,0.4224812984466553
184,233.0,104.0,83.0,1.0,631.0,11228.0,7703.0,9089.0,13.0,38.0,4.0,0.0,-4.0,0.0,0.0,6.0,0.4262576103210449
185,233.0,104.0,83.0,1.0,631.0,11228.0,7703.0,9089.0,7.0,7.0,9.0,-9.0,-8.0,4.0,6.0,1.0,0.42929935455322266
186,308.0,114.0,95.0,1.0,580.0,11215.0,7719.0,9094.0,7.0,7.0,9.0,-9.0,-8.0,4.0,6.0,1.0,0.4444575309753418
187,308.0,114.0,95.0,1.0,580.0,11215.0,7719.0,9094.0,1.0,19.0,12.0,-13.0,-15.0,-11.0,-3.0,-3.0,0.44664740562438965
188,308.0,114.0,95.0,1.0,580.0,11215.0,7719.0,9094.0,2.0,-3.0,-9.0,11.0,18.0,8.0,9.0,3.0,0.44973158836364746
189,238.0,62.0,83.0,1.0,564.0,11196.0,7739.0,9102.0,2.0,-3.0,-9.0,11.0,18.0,8.0,9.0,3.0,0.45984768867492676
190,238.0,62.0,83.0,1.0,564.0,11196.0,7739.0,9102.0,9.0,16.0,4.0,-1.0,-1.0,2.0,4.0,1.0,0.4662351608276367
191,238.0,62.0,83.0,1.0,564.0,11196.0,7739.0,9102.0,-7.0,24.0,22.0,6.0,9.0,5.0,7.0,-3.0,0.46817588806152344
192,23.0,45.0,89.0,1.0,570.0,11184.0,7737.0,9119.0,-7.0,24.0,22.0,6.0,9.0,5.0,7.0,-3.0,0.4821786880493164
193,23.0,45.0,89.0,1.0,570.0,11184.0,7737.0,9119.0,2.0,-11.0,-12.0,0.0,11.0,4.0,-1.0,4.0,0.48723912239074707
194,23.0,45.0,89.0,1.0,570.0,11184.0,7737.0,9119.0,-8.0,-29.0,-6.0,-4.0,-4.0,-11.0,-5.0,-9.0,0.4919548034667969
195,-144.0,53.0,137.0,1.0,577.0,11180.0,7706.0,9149.0,-8.0,-29.0,-6.0,-4.0,-4.0,-11.0,-5.0,-9.0,0.5044472217559814
196,-144.0,53.0,137.0,1.0,577.0,11180.0,7706.0,9149.0,-8.0,-24.0,0.0,-1.0,-7.0,-5.0,-1.0,-6.0,0.5066325664520264
197,-144.0,53.0,137.0,1.0,577.0,11180.0,7706.0,9149.0,7.0,-10.0,0.0,-4.0,-17.0,-7.0,-2.0,2.0,0.5095481872558594
198,-206.0,94.0,158.0,1.0,579.0,11180.0,7665.0,9182.0,7.0,-10.0,0.0,-4.0,-17.0,-7.0,-2.0,2.0,0.5191705226898193
199,-206.0,94.0,158.0,1.0,579.0,11180.0,7665.0,9182.0,-11.0,-50.0,3.0,-20.0,-24.0,-8.0,-4.0,-4.0,0.5267372131347656
200,-206.0,94.0,158.0,1.0,579.0,11180.0,7665.0,9182.0,-1.0,-29.0,-4.0,-8.0,-17.0,-3.0,1.0,2.0,0.5285847187042236
201,-150.0,143.0,154.0,1.0,564.0,11183.0,7631.0,9209.0,-1.0,-29.0,-4.0,-8.0,-17.0,-3.0,1.0,2.0,0.5417816638946533
202,-150.0,143.0,154.0,1.0,564.0,11183.0,7631.0,9209.0,-6.0,-29.0,-30.0,-6.0,-5.0,-1.0,0.0,-2.0,0.545569896697998
203,-150.0,143.0,154.0,1.0,564.0,11183.0,7631.0,9209.0,0.0,13.0,-14.0,0.0,-5.0,3.0,3.0,2.0,0.5491995811462402
204,-80.0,148.0,89.0,1.0,547.0,11183.0,7615.0,9223.0,0.0,13.0,-14.0,0.0,-5.0,3.0,3.0,2.0,0.5655500888824463
205,-80.0,148.0,89.0,1.0,547.0,11183.0,7615.0,9223.0,7.0,-4.0,3.0,-15.0,-19.0,-7.0,-4.0,0.0,0.5692384243011475
206,-80.0,148.0,89.0,1.0,547.0,11183.0,7615.0,9223.0,7.0,10.0,6.0,13.0,21.0,15.0,0.0,3.0,0.5726349353790283
207,47.0,88.0,78.0,1.0,514.0,11188.0,7606.0,9226.0,7.0,10.0,6.0,13.0,21.0,15.0,0.0,3.0,0.5795483589172363
208,47.0,88.0,78.0,1.0,514.0,11188.0,7606.0,9226.0,6.0,32.0,14.0,9.0,5.0,9.0,3.0,1.0,0.5815269947052002
209,47.0,88.0,78.0,1.0,514.0,11188.0,7606.0,9226.0,-12.0,-22.0,-6.0,1.0,0.0,0.0,-3.0,4.0,0.5854876041412354
210,102.0,97.0,83.0,1.0,478.0,11186.0,7601.0,9234.0,-12.0,-22.0,-6.0,1.0,0.0,0.0,-3.0,4.0,0.6022076606750488
211,102.0,97.0,83.0,1.0,478.0,11186.0,7601.0,9234.0,13.0,18.0,-8.0,4.0,4.0,2.0,-1.0,1.0,0.6057794094085693
212,102.0,97.0,83.0,1.0,478.0,11186.0,7601.0,9234.0,-9.0,11.0,11.0,8.0,12.0,2.0,5.0,-6.0,0.6102209091186523
213,117.0,90.0,82.0,1.0,447.0,11180.0,7599.0,9245.0,-9.0,11.0,11.0,8.0,12.0,2.0,5.0,-6.0,0.6262900829315186
214,117.0,90.0,82.0,1.0,447.0,11180.0,7599.0,9245.0,0.0,0.0,4.0,4.0,8.0,0.0,-4.0,2.0,0.6284377574920654
215,117.0,90.0,82.0,1.0,447.0,11180.0,7599.0,9245.0,0.0,19.0,4.0,7.0,12.0,1.0,-3.0,1.0,0.6302075386047363
216,94.0,82.0,57.0,1.0,423.0,11170.0,7597.0,9260.0,0.0,19.0,4.0,7.0,12.0,1.0,-3.0,1.0,0.6412029266357422
217,94.0,82.0,57.0,1.0,423.0,11170.0,7597.0,9260.0,12.0,18.0,6.0,-1.0,5.0,2.0,7.0,3.0,0.6436357498168945
218,94.0,82.0,57.0,1.0,423.0,11170.0,7597.0,9260.0,9.0,38.0,12.0,-28.0,-40.0,-4.0,1.0,-2.0,0.6454765796661377
219,85.0,67.0,24.0,1.0,404.0,11162.0,7600.0,9267.0,9.0,38.0,12.0,-28.0,-40.0,-4.0,1.0,-2.0,0.6618556976318359
220,85.0,67.0,24.0,1.0,404.0,11162.0,7600.0,9267.0,-11.0,-6.0,-8.0,-1.0,-8.0,-4.0,5.0,-4.0,0.6637208461761475
221,85.0,67.0,24.0,1.0,404.0,11162.0,7600.0,9267.0,-6.0,-8.0,-5.0,10.0,13.0,0.0,2.0,-4.0,0.6654813289642334
222,73.0,-19.0,28.0,1.0,394.0,11167.0,7605.0,9258.0,-6.0,-8.0,-5.0,10.0,13.0,0.0,2.0,-4.0,0.6843380928039551
223,73.0,-19.0,28.0,1.0,394.0,11167.0,7605.0,9258.0,1.0,-7.0,-5.0,-4.0,-5.0,2.0,1.0,0.0,0.6864891052246094
224,73.0,-19.0,28.0,1.0,394.0,11167.0,7605.0,9258.0,-2.0,-5.0,-2.0,3.0,10.0,7.0,9.0,3.0,0.6882510185241699
225,44.0,-21.0,65.0,1.0,382.0,11175.0,7600.0,9253.0,-2.0,-5.0,-2.0,3.0,10.0,7.0,9.0,3.0,0.6991889476776123
226,44.0,-21.0,65.0,1.0,382.0,11175.0,7600.0,9253.0,1.0,8.0,-1.0,3.0,3.0,-1.0,-3.0,-4.0,0.7016549110412598
227,44.0,-21.0,65.0,1.0,382.0,11175.0,7600.0,9253.0,-6.0,-36.0,-17.0,-8.0,3.0,-5.0,-2.0,-3.0,0.7056195735931396
228,53.0,39.0,90.0,1.0,361.0,11178.0,7592.0,9257.0,-6.0,-36.0,-17.0,-8.0,3.0,-5.0,-2.0,-3.0,0.7218315601348877
229,53.0,39.0,90.0,1.0,361.0,11178.0,7592.0,9257.0,-10.0,-22.0,3.0,5.0,3.0,3.0,-4.0,-1.0,0.7237026691436768
230,53.0,39.0,90.0,1.0,361.0,11178.0,7592.0,9257.0,7.0,10.0,-3.0,9.0,3.0,3.0,5.0,-3.0,0.7254598140716553
231,160.0,31.0,84.0,1.0,331.0,11180.0,7596.0,9253.0,7.0,10.0,-3.0,9.0,3.0,3.0,5.0,-3.0,0.7443602085113525
232,160.0,31.0,84.0,1.0,331.0,11180.0,7596.0,9253.0,3.0,5.0,6.0,-6.0,6.0,-6.0,-2.0,-3.0,0.7462608814239502
233,160.0,31.0,84.0,1.0,331.0,11180.0,7596.0,9253.0,-9.0,-23.0,16.0,12.0,7.0,-2.0,-3.0,-4.0,0.7480103969573975
234,206.0,-16.0,59.0,1.0,311.0,11180.0,7613.0,9239.0,-9.0,-23.0,16.0,12.0,7.0,-2.0,-3.0,-4.0,0.7581057548522949
235,206.0,-16.0,59.0,1.0,311.0,11180.0,7613.0,9239.0,-6.0,-4.0,-12.0,-3.0,-18.0,-7.0,-14.0,-6.0,0.7664816379547119
236,206.0,-16.0,59.0,1.0,311.0,11180.0,7613.0,9239.0,1.0,-4.0,1.0,-4.0,-4.0,-3.0,-7.0,0.0,0.7682552337646484
237,114.0,-40.0,30.0,1.0,311.0,11177.0,7625.0,9233.0,1.0,-4.0,1.0,-4.0,-4.0,-3.0,-7.0,0.0,0.7820053100585938
238,114.0,-40.0,30.0,1.0,311.0,11177.0,7625.0,9233.0,0.0,-18.0,2.0,0.0,-3.0,-1.0,4.0,-4.0,0.7857401371002197
239,114.0,-40.0,30.0,1.0,311.0,11177.0,7625.0,9233.0,1.0,39.0,20.0,7.0,7.0,-1.0,10.0,1.0,0.7891430854797363
240,99.0,-44.0,19.0,1.0,314.0,11174.0,7637.0,9226.0,1.0,39.0,20.0,7.0,7.0,-1.0,10.0,1.0,0.8056638240814209
241,99.0,-44.0,19.0,1.0,314.0,11174.0,7637.0,9226.0,-2.0,4.0,6.0,7.0,-1.0,0.0,5.0,2.0,0.8096344470977783
242,99.0,-44.0,19.0,1.0,314.0,11174.0,7637.0,9226.0,-10.0,6.0,-3.0,-7.0,-14.0,-5.0,-4.0,-2.0,0.8128256797790527
243,122.0,-44.0,47.0,1.0,304.0,11179.0,7646.0,9214.0,-10.0,6.0,-3.0,-7.0,-14.0,-5.0,-4.0,-2.0,0.8189797401428223
244,122.0,-44.0,47.0,1.0,304.0,11179.0,7646.0,9214.0,10.0,21.0,-10.0,11.0,21.0,10.0,2.0,3.0,0.8267624378204346
245,122.0,-44.0,47.0,1.0,304.0,11179.0,7646.0,9214.0,-2.0,22.0,-5.0,-11.0,7.0,3.0,0.0,3.0,0.8286411762237549
246,133.0,-57.0,7.0,1.0,305.0,11177.0,7663.0,9202.0,-2.0,22.0,-5.0,-11.0,7.0,3.0,0.0,3.0,0.8424148559570312
247,133.0,-57.0,7.0,1.0,305.0,11177.0,7663.0,9202.0,13.0,28.0,14.0,-3.0,-13.0,5.0,8.0,-3.0,0.8442840576171875
248,133.0,-57.0,7.0,1.0,305.0,11177.0,7663.0,9202.0,-2.0,-16.0,-23.0,11.0,-10.0,-6.0,-9.0,1.0,0.8460605144500732
249,65.0,-78.0,-95.0,1.0,340.0,11159.0,7690.0,9200.0,-2.0,-16.0,-23.0,11.0,-10.0,-6.0,-9.0,1.0,0.8653619289398193
250,65.0,-78.0,-95.0,1.0,340.0,11159.0,7690.0,9200.0,-1.0,-17.0,6.0,21.0,14.0,2.0,-4.0,5.0,0.8688304424285889
251,65.0,-78.0,-95.0,1.0,340.0,11159.0,7690.0,9200.0,18.0,-7.0,12.0,-21.0,-11.0,-4.0,0.0,6.0,0.8720223903656006
252,-5.0,-106.0,-223.0,1.0,402.0,11129.0,7725.0,9204.0,18.0,-7.0,12.0,-21.0,-11.0,-4.0,0.0,6.0,0.878777027130127
253,-5.0,-106.0,-223.0,1.0,402.0,11129.0,7725.0,9204.0,-6.0,-15.0,4.0,15.0,-3.0,5.0,0.0,1.0,0.8870205879211426
254,-5.0,-106.0,-223.0,1.0,402.0,11129.0,7725.0,9204.0,10.0,48.0,54.0,15.0,14.0,-6.0,-11.0,1.0,0.8899176120758057
255,-4.0,12.0,-461.0,1.0,482.0,11065.0,7792.0,9221.0,10.0,48.0,54.0,15.0,14.0,-6.0,-11.0,1.0,0.9022026062011719
256,-4.0,12.0,-461.0,1.0,482.0,11065.0,7792.0,9221.0,-19.0,-60.0,-11.0,-10.0,5.0,-1.0,6.0,-2.0,0.9040849208831787
257,-4.0,12.0,-461.0,1.0,482.0,11065.0,7792.0,9221.0,-6.0,-12.0,-31.0,2.0,13.0,12.0,29.0,0.0,0.905846118927002
258,200.0,51.0,-675.0,1.0,555.0,10976.0,7902.0,9229.0,-6.0,-12.0,-31.0,2.0,13.0,12.0,29.0,0.0,0.9262304306030273
259,200.0,51.0,-675.0,1.0,555.0,10976.0,7902.0,9229.0,-5.0,-8.0,14.0,-1.0,11.0,8.0,9.0,-1.0,0.929696798324585
260,200.0,51.0,-675.0,1.0,555.0,10976.0,7902.0,9229.0,-9.0,-31.0,-6.0,-34.0,1.0,-9.0,-22.0,-14.0,0.9328501224517822
261,309.0,-16.0,-846.0,1.0,663.0,10865.0,8051.0,9225.0,-9.0,-31.0,-6.0,-34.0,1.0,-9.0,-22.0,-14.0,0.9387209415435791
262,309.0,-16.0,-846.0,1.0,663.0,10865.0,8051.0,9225.0,25.0,57.0,-15.0,-44.0,-23.0,-1.0,-7.0,8.0,0.9466598033905029
263,309.0,-16.0,-846.0,1.0,663.0,10865.0,8051.0,9225.0,3.0,-5.0,-8.0,-3.0,22.0,21.0,-1.0,-1.0,0.9490280151367188
264,114.0,-50.0,-1063.0,1.0,843.0,10720.0,8213.0,9237.0,3.0,-5.0,-8.0,-3.0,22.0,21.0,-1.0,-1.0,0.9619715213775635
265,114.0,-50.0,-1063.0,1.0,843.0,10720.0,8213.0,9237.0,3.0,68.0,27.0,31.0,47.0,7.0,-5.0,-2.0,0.9654769897460938
266,114.0,-50.0,-1063.0,1.0,843.0,10720.0,8213.0,9237.0,14.0,14.0,17.0,17.0,1.0,3.0,4.0,5.0,0.9690272808074951
267,-276.0,170.0,-1351.0,1.0,1083.0,10518.0,8368.0,9305.0,14.0,14.0,17.0,17.0,1.0,3.0,4.0,5.0,0.9844439029693604
268,-276.0,170.0,-1351.0,1.0,1083.0,10518.0,8368.0,9305.0,-35.0,-45.0,-29.0,-28.0,-17.0,-6.0,1.0,-7.0,0.9863290786743164
269,-276.0,170.0,-1351.0,1.0,1083.0,10518.0,8368.0,9305.0,28.0,59.0,66.0,21.0,3.0,-7.0,-2.0,4.0,0.9880988597869873
270,-548.0,351.0,-1581.0,1.0,1351.0,10270.0,8513.0,9415.0,28.0,59.0,66.0,21.0,3.0,-7.0,-2.0,4.0,0.9979214668273926
271,-548.0,351.0,-1581.0,1.0,1351.0,10270.0,8513.0,9415.0,-8.0,-20.0,-8.0,-57.0,-77.0,-10.0,-6.0,1.0,1.0062131881713867
272,-548.0,351.0,-1581.0,1.0,1351.0,10270.0,8513.0,9415.0,-27.0,-14.0,0.0,-14.0,-25.0,-13.0,-22.0,-10.0,1.0138845443725586
273,-757.0,240.0,-1791.0,1.0,1617.0,10049.0,8640.0,9495.0,-27.0,-14.0,0.0,-14.0,-25.0,-13.0,-22.0,-10.0,1.0233850479125977
274,-757.0,240.0,-1791.0,1.0,1617.0,10049.0,8640.0,9495.0,8.0,-8.0,7.0,-1.0,11.0,-1.0,-4.0,0.0,1.0264339447021484
275,-757.0,240.0,-1791.0,1.0,1617.0,10049.0,8640.0,9495.0,3.0,-2.0,-25.0,26.0,-13.0,-11.0,-3.0,-1.0,1.0282773971557617
276,-1072.0,140.0,-2076.0,1.0,1955.0,9802.0,8760.0,9580.0,3.0,-2.0,-25.0,26.0,-13.0,-11.0,-3.0,-1.0,1.04465651512146
277,-1072.0,140.0,-2076.0,1.0,1955.0,9802.0,8760.0,9580.0,-13.0,-39.0,-11.0,18.0,-12.0,-10.0,-4.0,-6.0,1.0472562313079834
278,-1072.0,140.0,-2076.0,1.0,1955.0,9802.0,8760.0,9580.0,-10.0,-10.0,-38.0,-13.0,8.0,1.0,3.0,-1.0,1.050611972808838
279,-1313.0,274.0,-2363.0,1.0,2330.0,9502.0,8879.0,9688.0,-10.0,-10.0,-38.0,-13.0,8.0,1.0,3.0,-1.0,1.059744119644165
280,-1313.0,274.0,-2363.0,1.0,2330.0,9502.0,8879.0,9688.0,-16.0,-7.0,-4.0,0.0,5.0,8.0,-8.0,-5.0,1.0665550231933594
281,-1313.0,274.0,-2363.0,1.0,2330.0,9502.0,8879.0,9688.0,-18.0,-35.0,-22.0,-36.0,-18.0,1.0,7.0,-1.0,1.069260835647583
282,-1616.0,495.0,-2653.0,1.0,2741.0,9135.0,8992.0,9827.0,-18.0,-35.0,-22.0,-36.0,-18.0,1.0,7.0,-1.0,1.0813555717468262
283,-1616.0,495.0,-2653.0,1.0,2741.0,9135.0,8992.0,9827.0,20.0,-18.0,23.0,15.0,12.0,1.0,-2.0,5.0,1.0832440853118896
284,-1616.0,495.0,-2653.0,1.0,2741.0,9135.0,8992.0,9827.0,20.0,-18.0,23.0,15.0,12.0,1.0,-2.0,5.0,1.0878384113311768
285,-1616.0,495.0,-2653.0,1.0,2741.0,9135.0,8992.0,9827.0,-3.0,-36.0,-43.0,17.0,6.0,4.0,5.0,-7.0,1.1068627834320068
286,-2054.0,548.0,-2861.0,1.0,3204.0,8722.0,9069.0,9991.0,-3.0,-36.0,-43.0,17.0,6.0,4.0,5.0,-7.0,1.1095736026763916
287,-2054.0,548.0,-2861.0,1.0,3204.0,8722.0,9069.0,9991.0,5.0,58.0,18.0,-6.0,-4.0,-15.0,-10.0,-2.0,1.1114513874053955
288,-2054.0,548.0,-2861.0,1.0,3204.0,8722.0,9069.0,9991.0,-9.0,-12.0,17.0,-23.0,-12.0,-10.0,-9.0,-7.0,1.1132152080535889
289,-2421.0,512.0,-3168.0,1.0,3721.0,8264.0,9116.0,10157.0,-9.0,-12.0,17.0,-23.0,-12.0,-10.0,-9.0,-7.0,1.1183879375457764
290,-2421.0,512.0,-3168.0,1.0,3721.0,8264.0,9116.0,10157.0,1.0,13.0,-15.0,9.0,9.0,-3.0,-2.0,-3.0,1.1263549327850342
291,-2421.0,512.0,-3168.0,1.0,3721.0,8264.0,9116.0,10157.0,5.0,-1.0,-6.0,-1.0,-5.0,2.0,7.0,4.0,1.128131628036499
292,-2473.0,614.0,-3436.0,1.0,4247.0,7757.0,9167.0,10303.0,5.0,-1.0,-6.0,-1.0,-5.0,2.0,7.0,4.0,1.1418514251708984
293,-2473.0,614.0,-3436.0,1.0,4247.0,7757.0,9167.0,10303.0,-2.0,5.0,-11.0,1.0,5.0,0.0,0.0,0.0,1.1452171802520752
294,-2473.0,614.0,-3436.0,1.0,4247.0,7757.0,9167.0,10303.0,-4.0,-10.0,7.0,16.0,5.0,3.0,4.0,3.0,1.148383617401123
295,-2498.0,609.0,-3697.0,1.0,4792.0,7211.0,9219.0,10414.0,-4.0,-10.0,7.0,16.0,5.0,3.0,4.0,3.0,1.1665873527526855
296,-2498.0,609.0,-3697.0,1.0,4792.0,7211.0,9219.0,10414.0,3.0,0.0,6.0,1.0,-1.0,-1.0,0.0,-4.0,1.1705818176269531
297,-2498.0,609.0,-3697.0,1.0,4792.0,7211.0,9219.0,10414.0,3.0,7.0,-18.0,5.0,0.0,3.0,2.0,0.0,1.1753737926483154
298,-2738.0,654.0,-3907.0,1.0,5356.0,6616.0,9243.0,10513.0,3.0,7.0,-18.0,5.0,0.0,3.0,2.0,0.0,1.1772305965423584
299,-2738.0,654.0,-3907.0,1.0,5356.0,6616.0,9243.0,10513.0,-1.0,-14.0,-8.0,4.0,3.0,-2.0,-2.0,0.0,1.1864855289459229
300,-2738.0,654.0,-3907.0,1.0,5356.0,6616.0,9243.0,10513.0,1.0,4.0,2.0,-9.0,8.0,4.0,-2.0,-1.0,1.1882638931274414
301,-2998.0,711.0,-4115.0,1.0,5934.0,5968.0,9232.0,10600.0,1.0,4.0,2.0,-9.0,8.0,4.0,-2.0,-1.0,1.2010390758514404
302,-2998.0,711.0,-4115.0,1.0,5934.0,5968.0,9232.0,10600.0,12.0,2.0,-21.0,-2.0,-2.0,-1.0,-1.0,2.0,1.202939510345459
303,-2998.0,711.0,-4115.0,1.0,5934.0,5968.0,9232.0,10600.0,9.0,22.0,4.0,-6.0,-6.0,-4.0,2.0,3.0,1.208387851715088
304,-3094.0,841.0,-4305.0,1.0,6503.0,5267.0,9200.0,10664.0,9.0,22.0,4.0,-6.0,-6.0,-4.0,2.0,3.0,1.2264184951782227
305,-3094.0,841.0,-4305.0,1.0,6503.0,5267.0,9200.0,10664.0,-11.0,-16.0,9.0,3.0,0.0,-4.0,-3.0,-6.0,1.2302095890045166
306,-3094.0,841.0,-4305.0,1.0,6503.0,5267.0,9200.0,10664.0,2.0,10.0,-30.0,6.0,5.0,0.0,3.0,1.0,1.2323293685913086
307,-2745.0,814.0,-4413.0,1.0,7050.0,4565.0,9185.0,10654.0,2.0,10.0,-30.0,6.0,5.0,0.0,3.0,1.0,1.247779130935669
308,-2745.0,814.0,-4413.0,1.0,7050.0,4565.0,9185.0,10654.0,-4.0,-8.0,-10.0,-5.0,-6.0,-2.0,-2.0,0.0,1.25142502784729
309,-2745.0,814.0,-4413.0,1.0,7050.0,4565.0,9185.0,10654.0,3.0,-10.0,9.0,8.0,2.0,-1.0,0.0,-1.0,1.2550487518310547
310,-2516.0,726.0,-4397.0,1.0,7577.0,3873.0,9159.0,10588.0,3.0,-10.0,9.0,8.0,2.0,-1.0,0.0,-1.0,1.2612152099609375
311,-2516.0,726.0,-4397.0,1.0,7577.0,3873.0,9159.0,10588.0,-5.0,2.0,6.0,6.0,3.0,0.0,2.0,-4.0,1.2631163597106934
312,-2516.0,726.0,-4397.0,1.0,7577.0,3873.0,9159.0,10588.0,-7.0,-2.0,24.0,11.0,2.0,1.0,0.0,1.0,1.2681336402893066
313,-2350.0,653.0,-4311.0,1.0,8075.0,3197.0,9117.0,10481.0,-7.0,-2.0,24.0,11.0,2.0,1.0,0.0,1.0,1.2845416069030762
314,-2350.0,653.0,-4311.0,1.0,8075.0,3197.0,9117.0,10481.0,1.0,4.0,13.0,-1.0,-1.0,-1.0,-1.0,1.0,1.2880938053131104
315,-2350.0,653.0,-4311.0,1.0,8075.0,3197.0,9117.0,10481.0,2.0,-7.0,4.0,-4.0,-6.0,-5.0,1.0,2.0,1.2927970886230469
316,-2499.0,656.0,-4294.0,1.0,8554.0,2500.0,9035.0,10361.0,2.0,-7.0,4.0,-4.0,-6.0,-5.0,1.0,2.0,1.3084485530853271
317,-2499.0,656.0,-4294.0,1.0,8554.0,2500.0,9035.0,10361.0,9.0,4.0,-4.0,-5.0,2.0,0.0,1.0,4.0,1.3120982646942139
318,-2499.0,656.0,-4294.0,1.0,8554.0,2500.0,9035.0,10361.0,0.0,0.0,-21.0,-2.0,-4.0,-4.0,-10.0,1.0,1.3155064582824707
319,-2556.0,681.0,-4330.0,1.0,9011.0,1785.0,8926.0,10215.0,0.0,0.0,-21.0,-2.0,-4.0,-4.0,-10.0,1.0,1.3228962421417236
320,-2556.0,681.0,-4330.0,1.0,9011.0,1785.0,8926.0,10215.0,-2.0,-11.0,-10.0,1.0,5.0,2.0,0.0,-2.0,1.325599193572998
321,-2556.0,681.0,-4330.0,1.0,9011.0,1785.0,8926.0,10215.0,-12.0,-11.0,7.0,0.0,-4.0,1.0,3.0,-3.0,1.327399492263794
322,-2622.0,634.0,-4366.0,1.0,9455.0,1056.0,8776.0,10043.0,-12.0,-11.0,7.0,0.0,-4.0,1.0,3.0,-3.0,1.3444406986236572
323,-2622.0,634.0,-4366.0,1.0,9455.0,1056.0,8776.0,10043.0,2.0,8.0,-9.0,0.0,-2.0,-1.0,2.0,2.0,1.3466486930847168
324,-2622.0,634.0,-4366.0,1.0,9455.0,1056.0,8776.0,10043.0,4.0,4.0,12.0,3.0,0.0,1.0,1.0,4.0,1.350036859512329
325,-2439.0,564.0,-4411.0,1.0,9886.0,340.0,8612.0,9819.0,4.0,4.0,12.0,3.0,0.0,1.0,1.0,4.0,1.3684661388397217
326,-2439.0,564.0,-4411.0,1.0,9886.0,340.0,8612.0,9819.0,-7.0,-6.0,6.0,0.0,-2.0,-3.0,-4.0,-6.0,1.372617244720459
327,-2439.0,564.0,-4411.0,1.0,9886.0,340.0,8612.0,9819.0,10.0,-11.0,8.0,3.0,-1.0,-1.0,0.0,-2.0,1.3765435218811035
328,-2150.0,474.0,-4455.0,1.0,10303.0,-348.0,8444.0,9531.0,10.0,-11.0,8.0,3.0,-1.0,-1.0,0.0,-2.0,1.3816125392913818
329,-2150.0,474.0,-4455.0,1.0,10303.0,-348.0,8444.0,9531.0,-7.0,-2.0,-19.0,-3.0,-2.0,-3.0,0.0,-3.0,1.3841180801391602
330,-2150.0,474.0,-4455.0,1.0,10303.0,-348.0,8444.0,9531.0,8.0,28.0,-12.0,-4.0,-1.0,-3.0,-1.0,-4.0,1.3880085945129395
331,-2080.0,476.0,-4424.0,1.0,10689.0,-1029.0,8261.0,9211.0,8.0,28.0,-12.0,-4.0,-1.0,-3.0,-1.0,-4.0,1.4050495624542236
332,-2080.0,476.0,-4424.0,1.0,10689.0,-1029.0,8261.0,9211.0,-8.0,-17.0,6.0,-1.0,0.0,-1.0,-1.0,-1.0,1.4083495140075684
333,-2080.0,476.0,-4424.0,1.0,10689.0,-1029.0,8261.0,9211.0,0.0,-28.0,-19.0,-1.0,0.0,-2.0,3.0,0.0,1.4120287895202637
334,-1955.0,517.0,-4417.0,1.0,11042.0,-1700.0,8074.0,8854.0,0.0,-28.0,-19.0,-1.0,0.0,-2.0,3.0,0.0,1.4271245002746582
335,-1955.0,517.0,-4417.0,1.0,11042.0,-1700.0,8074.0,8854.0,-3.0,13.0,-2.0,2.0,1.0,0.0,5.0,0.0,1.4290034770965576
336,-1955.0,517.0,-4417.0,1.0,11042.0,-1700.0,8074.0,8854.0,-10.0,-9.0,3.0,-5.0,-3.0,1.0,-3.0,-4.0,1.4307842254638672
337,-1827.0,465.0,-4487.0,1.0,11379.0,-2353.0,7868.0,8454.0,-10.0,-9.0,3.0,-5.0,-3.0,1.0,-3.0,-4.0,1.4407718181610107
338,-1827.0,465.0,-4487.0,1.0,11379.0,-2353.0,7868.0,8454.0,-3.0,-12.0,-3.0,-2.0,-5.0,-6.0,-1.0,-1.0,1.4487903118133545
339,-1827.0,465.0,-4487.0,1.0,11379.0,-2353.0,7868.0,8454.0,-3.0,-5.0,-3.0,5.0,-1.0,2.0,2.0,0.0,1.4505798816680908
340,-1681.0,352.0,-4483.0,1.0,11700.0,-2975.0,7638.0,8021.0,-3.0,-5.0,-3.0,5.0,-1.0,2.0,2.0,0.0,1.464200735092163
341,-1681.0,352.0,-4483.0,1.0,11700.0,-2975.0,7638.0,8021.0,-5.0,17.0,4.0,5.0,8.0,4.0,-1.0,-3.0,1.4660592079162598
342,-1681.0,352.0,-4483.0,1.0,11700.0,-2975.0,7638.0,8021.0,-6.0,8.0,-18.0,-8.0,-12.0,0.0,10.0,-6.0,1.4679160118103027
343,-1689.0,278.0,-4420.0,1.0,11992.0,-3583.0,7373.0,7576.0,-6.0,8.0,-18.0,-8.0,-12.0,0.0,10.0,-6.0,1.4876713752746582
344,-1689.0,278.0,-4420.0,1.0,11992.0,-3583.0,7373.0,7576.0,3.0,-13.0,-41.0,-5.0,9.0,0.0,6.0,-3.0,1.4917771816253662
345,-1689.0,278.0,-4420.0,1.0,11992.0,-3583.0,7373.0,7576.0,-5.0,7.0,8.0,8.0,13.0,3.0,-7.0,5.0,1.4949700832366943
346,-1487.0,209.0,-4402.0,1.0,12268.0,-4155.0,7092.0,7096.0,-5.0,7.0,8.0,8.0,13.0,3.0,-7.0,5.0,1.50146484375
347,-1487.0,209.0,-4402.0,1.0,12268.0,-4155.0,7092.0,7096.0,15.0,0.0,-12.0,14.0,27.0,22.0,7.0,6.0,1.5091960430145264
348,-1487.0,209.0,-4402.0,1.0,12268.0,-4155.0,7092.0,7096.0,3.0,-15.0,-13.0,-39.0,2.0,-1.0,7.0,-4.0,1.5109989643096924
349,-1562.0,161.0,-4387.0,1.0,12513.0,-4734.0,6774.0,6599.0,3.0,-15.0,-13.0,-39.0,2.0,-1.0,7.0,-4.0,1.525097370147705
350,-1562.0,161.0,-4387.0,1.0,12513.0,-4734.0,6774.0,6599.0,-11.0,-4.0,23.0,-9.0,10.0,-6.0,3.0,3.0,1.5282034873962402
351,-1562.0,161.0,-4387.0,1.0,12513.0,-4734.0,6774.0,6599.0,-4.0,15.0,3.0,12.0,32.0,-1.0,7.0,-5.0,1.5304605960845947
352,-1223.0,118.0,-4167.0,1.0,12734.0,-5245.0,6459.0,6086.0,-4.0,15.0,3.0,12.0,32.0,-1.0,7.0,-5.0,1.5474379062652588
353,-1223.0,118.0,-4167.0,1.0,12734.0,-5245.0,6459.0,6086.0,2.0,-33.0,1.0,-20.0,-55.0,-21.0,0.0,-8.0,1.5509672164916992
354,-1223.0,118.0,-4167.0,1.0,12734.0,-5245.0,6459.0,6086.0,-6.0,-24.0,-36.0,-23.0,-63.0,-32.0,21.0,-6.0,1.5545713901519775
355,-775.0,75.0,-3793.0,1.0,12927.0,-5661.0,6178.0,5577.0,-6.0,-24.0,-36.0,-23.0,-63.0,-32.0,21.0,-6.0,1.5709373950958252
356,-775.0,75.0,-3793.0,1.0,12927.0,-5661.0,6178.0,5577.0,-2.0,-4.0,-26.0,-3.0,-24.0,14.0,31.0,11.0,1.5755465030670166
357,-775.0,75.0,-3793.0,1.0,12927.0,-5661.0,6178.0,5577.0,4.0,5.0,38.0,8.0,-61.0,-22.0,-52.0,-13.0,1.578284502029419
358,-804.0,-40.0,-3062.0,1.0,13062.0,-6023.0,5902.0,5165.0,4.0,5.0,38.0,8.0,-61.0,-22.0,-52.0,-13.0,1.5842576026916504
359,-804.0,-40.0,-3062.0,1.0,13062.0,-6023.0,5902.0,5165.0,-5.0,21.0,8.0,-13.0,-16.0,-24.0,-98.0,-31.0,1.5862832069396973
360,-804.0,-40.0,-3062.0,1.0,13062.0,-6023.0,5902.0,5165.0,-11.0,-12.0,4.0,16.0,-12.0,6.0,41.0,25.0,1.5880684852600098
361,-553.0,132.0,-2268.0,1.0,13141.0,-6253.0,5739.0,4867.0,-11.0,-12.0,4.0,16.0,-12.0,6.0,41.0,25.0,1.6086804866790771
362,-553.0,132.0,-2268.0,1.0,13141.0,-6253.0,5739.0,4867.0,-3.0,-17.0,-20.0,-29.0,-76.0,-80.0,-85.0,-15.0,1.6120491027832031
363,-553.0,132.0,-2268.0,1.0,13141.0,-6253.0,5739.0,4867.0,-17.0,-37.0,7.0,-4.0,40.0,22.0,27.0,-11.0,1.615231990814209
364,-605.0,500.0,-1335.0,1.0,13138.0,-6449.0,5686.0,4679.0,-17.0,-37.0,7.0,-4.0,40.0,22.0,27.0,-11.0,1.6206717491149902
365,-605.0,500.0,-1335.0,1.0,13138.0,-6449.0,5686.0,4679.0,-9.0,24.0,5.0,-13.0,-34.0,-26.0,-1.0,-6.0,1.629807949066162
366,-605.0,500.0,-1335.0,1.0,13138.0,-6449.0,5686.0,4679.0,5.0,-8.0,-3.0,26.0,5.0,23.0,-3.0,-8.0,1.6317920684814453
367,-925.0,507.0,-532.0,1.0,13067.0,-6640.0,5674.0,4624.0,5.0,-8.0,-3.0,26.0,5.0,23.0,-3.0,-8.0,1.6443769931793213
368,-925.0,507.0,-532.0,1.0,13067.0,-6640.0,5674.0,4624.0,11.0,-19.0,19.0,23.0,53.0,110.0,119.0,-12.0,1.646500587463379
369,-925.0,507.0,-532.0,1.0,13067.0,-6640.0,5674.0,4624.0,-62.0,-21.0,9.0,-29.0,-41.0,-76.0,-97.0,-31.0,1.6494088172912598
370,-250.0,334.0,964.0,1.0,12979.0,-6632.0,5779.0,4753.0,-62.0,-21.0,9.0,-29.0,-41.0,-76.0,-97.0,-31.0,1.6681575775146484
371,-250.0,334.0,964.0,1.0,12979.0,-6632.0,5779.0,4753.0,-31.0,9.0,67.0,15.0,-40.0,-37.0,-67.0,-18.0,1.6723549365997314
372,-250.0,334.0,964.0,1.0,12979.0,-6632.0,5779.0,4753.0,18.0,26.0,6.0,16.0,44.0,52.0,2.0,17.0,1.6768977642059326
373,-505.0,563.0,2220.0,1.0,12787.0,-6591.0,5991.0,5056.0,18.0,26.0,6.0,16.0,44.0,52.0,2.0,17.0,1.680736780166626
374,-505.0,563.0,2220.0,1.0,12787.0,-6591.0,5991.0,5056.0,59.0,-8.0,-19.0,-10.0,0.0,-11.0,0.0,27.0,1.6895427703857422
375,-505.0,563.0,2220.0,1.0,12787.0,-6591.0,5991.0,5056.0,-11.0,-43.0,-25.0,19.0,82.0,-12.0,-18.0,6.0,1.6920185089111328
376,-153.0,208.0,2988.0,1.0,12591.0,-6425.0,6223.0,5465.0,-11.0,-43.0,-25.0,19.0,82.0,-12.0,-18.0,6.0,1.7044494152069092
377,-153.0,208.0,2988.0,1.0,12591.0,-6425.0,6223.0,5465.0,14.0,82.0,3.0,17.0,39.0,-21.0,-14.0,-41.0,1.7074553966522217
378,-153.0,208.0,2988.0,1.0,12591.0,-6425.0,6223.0,5465.0,11.0,17.0,3.0,2.0,14.0,12.0,-52.0,8.0,1.709282636642456
379,271.0,-441.0,4337.0,1.0,12383.0,-6102.0,6437.0,6033.0,11.0,17.0,3.0,2.0,14.0,12.0,-52.0,8.0,1.7278251647949219
380,271.0,-441.0,4337.0,1.0,12383.0,-6102.0,6437.0,6033.0,-12.0,0.0,18.0,6.0,46.0,19.0,36.0,52.0,1.7312448024749756
381,271.0,-441.0,4337.0,1.0,12383.0,-6102.0,6437.0,6033.0,-18.0,31.0,10.0,-15.0,-14.0,-35.0,-10.0,13.0,1.7345881462097168
382,551.0,-754.0,5412.0,1.0,12103.0,-5622.0,6701.0,6741.0,-18.0,31.0,10.0,-15.0,-14.0,-35.0,-10.0,13.0,1.741481065750122
383,551.0,-754.0,5412.0,1.0,12103.0,-5622.0,6701.0,6741.0,-2.0,-11.0,-21.0,6.0,16.0,28.0,3.0,1.0,1.7486181259155273
384,551.0,-754.0,5412.0,1.0,12103.0,-5622.0,6701.0,6741.0,23.0,44.0,-3.0,4.0,19.0,5.0,-4.0,10.0,1.7511157989501953
385,742.0,-1144.0,6364.0,1.0,11735.0,-4988.0,6975.0,7561.0,23.0,44.0,-3.0,4.0,19.0,5.0,-4.0,10.0,1.764418363571167
386,742.0,-1144.0,6364.0,1.0,11735.0,-4988.0,6975.0,7561.0,-5.0,-59.0,4.0,1.0,-3.0,34.0,-16.0,5.0,1.7662818431854248
387,742.0,-1144.0,6364.0,1.0,11735.0,-4988.0,6975.0,7561.0,104.0,69.0,6.0,-27.0,-13.0,-24.0,-27.0,12.0,1.7682859897613525
388,993.0,-1628.0,7134.0,1.0,11287.0,-4180.0,7216.0,8455.0,104.0,69.0,6.0,-27.0,-13.0,-24.0,-27.0,12.0,1.7876811027526855
389,993.0,-1628.0,7134.0,1.0,11287.0,-4180.0,7216.0,8455.0,-35.0,-69.0,-12.0,-24.0,17.0,-18.0,-36.0,13.0,1.7918422222137451
390,993.0,-1628.0,7134.0,1.0,11287.0,-4180.0,7216.0,8455.0,105.0,85.0,23.0,9.0,-15.0,-2.0,16.0,30.0,1.7950363159179688
391,1362.0,-1934.0,7331.0,1.0,10777.0,-3232.0,7425.0,9310.0,105.0,85.0,23.0,9.0,-15.0,-2.0,16.0,30.0,1.8017256259918213
392,1362.0,-1934.0,7331.0,1.0,10777.0,-3232.0,7425.0,9310.0,-42.0,-12.0,-20.0,-9.0,1.0,26.0,56.0,-1.0,1.8087546825408936
393,1362.0,-1934.0,7331.0,1.0,10777.0,-3232.0,7425.0,9310.0,-122.0,-46.0,-11.0,19.0,-43.0,41.0,47.0,-14.0,1.8106753826141357
394,1491.0,-2342.0,6977.0,1.0,10276.0,-2246.0,7522.0,10059.0,-122.0,-46.0,-11.0,19.0,-43.0,41.0,47.0,-14.0,1.8253507614135742
395,1491.0,-2342.0,6977.0,1.0,10276.0,-2246.0,7522.0,10059.0,36.0,-18.0,-7.0,13.0,2.0,-34.0,-32.0,-12.0,1.8272864818572998
396,1491.0,-2342.0,6977.0,1.0,10276.0,-2246.0,7522.0,10059.0,61.0,-21.0,30.0,-10.0,48.0,23.0,64.0,3.0,1.829056978225708
397,2298.0,-2370.0,6676.0,1.0,9762.0,-1177.0,7647.0,10642.0,61.0,-21.0,30.0,-10.0,48.0,23.0,64.0,3.0,1.848417043685913
398,2298.0,-2370.0,6676.0,1.0,9762.0,-1177.0,7647.0,10642.0,28.0,49.0,10.0,0.0,-1.0,0.0,-13.0,-23.0,1.8517136573791504
399,2298.0,-2370.0,6676.0,1.0,9762.0,-1177.0,7647.0,10642.0,51.0,-82.0,-1.0,26.0,22.0,17.0,15.0,1.0,1.8548598289489746
400,4247.0,-1503.0,8005.0,1.0,8968.0,117.0,8042.0,11104.0,51.0,-82.0,-1.0,26.0,22.0,17.0,15.0,1.0,1.8604214191436768
401,4247.0,-1503.0,8005.0,1.0,8968.0,117.0,8042.0,11104.0,1.0,-36.0,-48.0,6.0,100.0,68.0,38.0,-2.0,1.8690979480743408
402,4247.0,-1503.0,8005.0,1.0,8968.0,117.0,8042.0,11104.0,-17.0,-17.0,-6.0,0.0,-5.0,52.0,24.0,-19.0,1.875793695449829
403,4403.0,-1671.0,5738.0,1.0,8386.0,1250.0,8378.0,11240.0,-17.0,-17.0,-6.0,0.0,-5.0,52.0,24.0,-19.0,1.8842921257019043
404,4403.0,-1671.0,5738.0,1.0,8386.0,1250.0,8378.0,11240.0,-64.0,15.0,49.0,-74.0,-36.0,63.0,112.0,0.0,1.886169195175171
405,4403.0,-1671.0,5738.0,1.0,8386.0,1250.0,8378.0,11240.0,-21.0,28.0,-25.0,-8.0,-65.0,-11.0,32.0,-14.0,1.8879404067993164
406,4733.0,-1613.0,3320.0,1.0,8045.0,2179.0,8746.0,11065.0,-21.0,28.0,-25.0,-8.0,-65.0,-11.0,32.0,-14.0,1.9082088470458984
407,4733.0,-1613.0,3320.0,1.0,8045.0,2179.0,8746.0,11065.0,-20.0,21.0,5.0,13.0,-52.0,-22.0,-14.0,1.0,1.9116134643554688
408,4733.0,-1613.0,3320.0,1.0,8045.0,2179.0,8746.0,11065.0,-27.0,7.0,-17.0,11.0,21.0,25.0,-1.0,-10.0,1.914764165878296
409,5985.0,-1408.0,2299.0,1.0,7739.0,3086.0,9267.0,10635.0,-27.0,7.0,-17.0,11.0,21.0,25.0,-1.0,-10.0,1.921457290649414
410,5985.0,-1408.0,2299.0,1.0,7739.0,3086.0,9267.0,10635.0,65.0,-56.0,57.0,-44.0,44.0,-85.0,-11.0,25.0,1.9291284084320068
411,5985.0,-1408.0,2299.0,1.0,7739.0,3086.0,9267.0,10635.0,109.0,85.0,-56.0,-95.0,-112.0,-115.0,-88.0,0.0,1.9309704303741455
412,5115.0,-720.0,2032.0,1.0,7391.0,3800.0,9713.0,10247.0,109.0,85.0,-56.0,-95.0,-112.0,-115.0,-88.0,0.0,1.9445838928222656
413,5115.0,-720.0,2032.0,1.0,7391.0,3800.0,9713.0,10247.0,-16.0,-26.0,-35.0,37.0,3.0,-30.0,-26.0,-11.0,1.9468412399291992
414,5115.0,-720.0,2032.0,1.0,7391.0,3800.0,9713.0,10247.0,-73.0,-120.0,30.0,-5.0,5.0,-10.0,29.0,-18.0,1.9497787952423096
415,3189.0,-167.0,1606.0,1.0,7091.0,4242.0,9982.0,10024.0,-73.0,-120.0,30.0,-5.0,5.0,-10.0,29.0,-18.0,1.968585729598999
416,3189.0,-167.0,1606.0,1.0,7091.0,4242.0,9982.0,10024.0,59.0,63.0,-27.0,35.0,27.0,11.0,38.0,-13.0,1.9741837978363037
417,3189.0,-167.0,1606.0,1.0,7091.0,4242.0,9982.0,10024.0,-86.0,-16.0,47.0,66.0,75.0,74.0,28.0,23.0,1.977952480316162
418,2321.0,-305.0,1541.0,1.0,6860.0,4606.0,10127.0,9877.0,-86.0,-16.0,47.0,66.0,75.0,74.0,28.0,23.0,1.9799065589904785
419,2321.0,-305.0,1541.0,1.0,6860.0,4606.0,10127.0,9877.0,81.0,81.0,-35.0,-7.0,12.0,22.0,-24.0,56.0,1.9890503883361816
420,2321.0,-305.0,1541.0,1.0,6860.0,4606.0,10127.0,9877.0,-22.0,-33.0,-1.0,64.0,93.0,17.0,-38.0,46.0,1.990903377532959
421,1873.0,-344.0,1765.0,1.0,6626.0,4965.0,10181.0,9807.0,-22.0,-33.0,-1.0,64.0,93.0,17.0,-38.0,46.0,2.0049407482147217
422,1873.0,-344.0,1765.0,1.0,6626.0,4965.0,10181.0,9807.0,-52.0,26.0,-18.0,-43.0,-66.0,-8.0,-19.0,13.0,2.008390188217163
423,1873.0,-344.0,1765.0,1.0,6626.0,4965.0,10181.0,9807.0,3.0,127.0,85.0,55.0,4.0,-13.0,-3.0,-38.0,2.0113861560821533
424,841.0,152.0,2030.0,1.0,6358.0,5221.0,10150.0,9884.0,3.0,127.0,85.0,55.0,4.0,-13.0,-3.0,-38.0,2.0270578861236572
425,841.0,152.0,2030.0,1.0,6358.0,5221.0,10150.0,9884.0,81.0,105.0,63.0,-3.0,-12.0,5.0,10.0,17.0,2.0294880867004395
426,841.0,152.0,2030.0,1.0,6358.0,5221.0,10150.0,9884.0,-78.0,-32.0,-28.0,-20.0,-15.0,-21.0,-7.0,-19.0,2.0317766666412354
427,256.0,374.0,1928.0,1.0,6090.0,5414.0,10085.0,10015.0,-78.0,-32.0,-28.0,-20.0,-15.0,-21.0,-7.0,-19.0,2.041652202606201
428,256.0,374.0,1928.0,1.0,6090.0,5414.0,10085.0,10015.0,-5.0,-64.0,-27.0,18.0,33.0,57.0,-1.0,-8.0,2.048917770385742
429,256.0,374.0,1928.0,1.0,6090.0,5414.0,10085.0,10015.0,6.0,34.0,29.0,19.0,36.0,-60.0,-45.0,-13.0,2.0507307052612305
430,734.0,210.0,1881.0,1.0,5811.0,5651.0,10055.0,10080.0,6.0,34.0,29.0,19.0,36.0,-60.0,-45.0,-13.0,2.0649020671844482
431,734.0,210.0,1881.0,1.0,5811.0,5651.0,10055.0,10080.0,-39.0,-45.0,-14.0,5.0,-47.0,0.0,71.0,-8.0,2.0689358711242676
432,734.0,210.0,1881.0,1.0,5811.0,5651.0,10055.0,10080.0,25.0,-6.0,-3.0,-4.0,10.0,27.0,24.0,-4.0,2.0725202560424805
433,106.0,545.0,2194.0,1.0,5505.0,5834.0,9973.0,10228.0,25.0,-6.0,-3.0,-4.0,10.0,27.0,24.0,-4.0,2.088186740875244
434,106.0,545.0,2194.0,1.0,5505.0,5834.0,9973.0,10228.0,-44.0,-83.0,-77.0,-78.0,-85.0,-81.0,-7.0,-11.0,2.092700958251953
435,106.0,545.0,2194.0,1.0,5505.0,5834.0,9973.0,10228.0,-1.0,-58.0,21.0,-36.0,10.0,11.0,28.0,-6.0,2.0969767570495605
436,-457.0,643.0,1676.0,1.0,5281.0,5912.0,9866.0,10404.0,-1.0,-58.0,21.0,-36.0,10.0,11.0,28.0,-6.0,2.100403070449829
437,-457.0,643.0,1676.0,1.0,5281.0,5912.0,9866.0,10404.0,-15.0,-9.0,-15.0,18.0,19.0,-11.0,-38.0,-6.0,2.109095573425293
438,-457.0,643.0,1676.0,1.0,5281.0,5912.0,9866.0,10404.0,14.0,-11.0,-36.0,-56.0,-24.0,7.0,-30.0,-13.0,2.1109066009521484
439,294.0,653.0,1611.0,1.0,4998.0,6036.0,9827.0,10508.0,14.0,-11.0,-36.0,-56.0,-24.0,7.0,-30.0,-13.0,2.124535322189331
440,294.0,653.0,1611.0,1.0,4998.0,6036.0,9827.0,10508.0,-41.0,-13.0,28.0,36.0,33.0,-51.0,-65.0,-11.0,2.1265885829925537
441,294.0,653.0,1611.0,1.0,4998.0,6036.0,9827.0,10508.0,2.0,-28.0,2.0,13.0,40.0,29.0,41.0,11.0,2.130722761154175
442,938.0,578.0,1301.0,1.0,4737.0,6148.0,9884.0,10511.0,2.0,-28.0,2.0,13.0,40.0,29.0,41.0,11.0,2.1475625038146973
443,938.0,578.0,1301.0,1.0,4737.0,6148.0,9884.0,10511.0,-5.0,-15.0,45.0,13.0,12.0,51.0,-35.0,6.0,2.1508686542510986
444,938.0,578.0,1301.0,1.0,4737.0,6148.0,9884.0,10511.0,-9.0,-12.0,-44.0,19.0,-45.0,-23.0,9.0,-14.0,2.1557435989379883
445,454.0,505.0,948.0,1.0,4589.0,6177.0,9955.0,10491.0,-9.0,-12.0,-44.0,19.0,-45.0,-23.0,9.0,-14.0,2.1697232723236084
446,454.0,505.0,948.0,1.0,4589.0,6177.0,9955.0,10491.0,40.0,44.0,-40.0,6.0,3.0,8.0,8.0,0.0,2.1731998920440674
447,454.0,505.0,948.0,1.0,4589.0,6177.0,9955.0,10491.0,-68.0,-44.0,-44.0,0.0,-4.0,7.0,6.0,-10.0,2.1767308712005615
448,-383.0,410.0,504.0,1.0,4517.0,6169.0,9944.0,10539.0,-68.0,-44.0,-44.0,0.0,-4.0,7.0,6.0,-10.0,2.1848361492156982
449,-383.0,410.0,504.0,1.0,4517.0,6169.0,9944.0,10539.0,-21.0,23.0,54.0,12.0,-25.0,-33.0,-23.0,-20.0,2.1874327659606934
450,-383.0,410.0,504.0,1.0,4517.0,6169.0,9944.0,10539.0,19.0,42.0,-25.0,-75.0,-62.0,8.0,-29.0,12.0,2.190918207168579
451,-384.0,276.0,377.0,1.0,4433.0,6197.0,9899.0,10601.0,19.0,42.0,-25.0,-75.0,-62.0,8.0,-29.0,12.0,2.207010507583618
452,-384.0,276.0,377.0,1.0,4433.0,6197.0,9899.0,10601.0,-5.0,-15.0,31.0,54.0,55.0,22.0,14.0,12.0,2.208861827850342
453,-384.0,276.0,377.0,1.0,4433.0,6197.0,9899.0,10601.0,-11.0,-22.0,-4.0,19.0,-13.0,-19.0,-8.0,0.0,2.210663080215454
454,-18.0,239.0,205.0,1.0,4366.0,6212.0,9915.0,10604.0,-11.0,-22.0,-4.0,19.0,-13.0,-19.0,-8.0,0.0,2.229309558868408
455,-18.0,239.0,205.0,1.0,4366.0,6212.0,9915.0,10604.0,15.0,25.0,13.0,36.0,33.0,28.0,22.0,22.0,2.231182336807251
456,-18.0,239.0,205.0,1.0,4366.0,6212.0,9915.0,10604.0,33.0,-24.0,15.0,-1.0,24.0,-26.0,-8.0,20.0,2.2329468727111816
457,-165.0,49.0,-8.0,1.0,4382.0,6195.0,9935.0,10589.0,33.0,-24.0,15.0,-1.0,24.0,-26.0,-8.0,20.0,2.2437000274658203
458,-165.0,49.0,-8.0,1.0,4382.0,6195.0,9935.0,10589.0,-21.0,-1.0,-16.0,35.0,39.0,-9.0,12.0,-40.0,2.246645927429199
459,-165.0,49.0,-8.0,1.0,4382.0,6195.0,9935.0,10589.0,1.0,-7.0,47.0,13.0,20.0,33.0,10.0,-1.0,2.2503631114959717
460,-710.0,42.0,56.0,1.0,4397.0,6185.0,9859.0,10659.0,1.0,-7.0,47.0,13.0,20.0,33.0,10.0,-1.0,2.2675399780273438
461,-710.0,42.0,56.0,1.0,4397.0,6185.0,9859.0,10659.0,-24.0,-52.0,-14.0,-5.0,-2.0,-12.0,-30.0,-16.0,2.2708072662353516
462,-710.0,42.0,56.0,1.0,4397.0,6185.0,9859.0,10659.0,15.0,-7.0,-44.0,-74.0,-47.0,-38.0,-14.0,-9.0,2.2737457752227783
463,-546.0,51.0,106.0,1.0,4391.0,6187.0,9780.0,10733.0,15.0,-7.0,-44.0,-74.0,-47.0,-38.0,-14.0,-9.0,2.2917628288269043
464,-546.0,51.0,106.0,1.0,4391.0,6187.0,9780.0,10733.0,1.0,-9.0,2.0,-18.0,-30.0,7.0,20.0,10.0,2.295366048812866
465,-546.0,51.0,106.0,1.0,4391.0,6187.0,9780.0,10733.0,12.0,28.0,3.0,27.0,24.0,26.0,8.0,-4.0,2.2985899448394775
466,121.0,-29.0,-76.0,1.0,4382.0,6200.0,9790.0,10720.0,12.0,28.0,3.0,27.0,24.0,26.0,8.0,-4.0,2.3040056228637695
467,121.0,-29.0,-76.0,1.0,4382.0,6200.0,9790.0,10720.0,-2.0,22.0,52.0,-57.0,25.0,11.0,-9.0,2.0,2.3058841228485107
468,121.0,-29.0,-76.0,1.0,4382.0,6200.0,9790.0,10720.0,7.0,-6.0,35.0,-14.0,12.0,14.0,13.0,4.0,2.3108925819396973
469,252.0,-40.0,-80.0,1.0,4366.0,6222.0,9828.0,10679.0,7.0,-6.0,35.0,-14.0,12.0,14.0,13.0,4.0,2.3271291255950928
470,252.0,-40.0,-80.0,1.0,4366.0,6222.0,9828.0,10679.0,-2.0,35.0,-52.0,33.0,13.0,27.0,-10.0,-14.0,2.3305623531341553
471,252.0,-40.0,-80.0,1.0,4366.0,6222.0,9828.0,10679.0,-3.0,-16.0,18.0,-2.0,-6.0,20.0,-17.0,-1.0,2.3344457149505615
472,-86.0,51.0,131.0,1.0,4332.0,6245.0,9815.0,10691.0,-3.0,-16.0,18.0,-2.0,-6.0,20.0,-17.0,-1.0,2.3503262996673584
473,-86.0,51.0,131.0,1.0,4332.0,6245.0,9815.0,10691.0,-6.0,-8.0,-1.0,-17.0,-35.0,-24.0,-6.0,-2.0,2.3534066677093506
474,-86.0,51.0,131.0,1.0,4332.0,6245.0,9815.0,10691.0,-13.0,-13.0,-44.0,-3.0,-35.0,-3.0,55.0,6.0,2.357577085494995
475,-97.0,72.0,230.0,1.0,4294.0,6267.0,9787.0,10719.0,-13.0,-13.0,-44.0,-3.0,-35.0,-3.0,55.0,6.0,2.363384962081909
476,-97.0,72.0,230.0,1.0,4294.0,6267.0,9787.0,10719.0,11.0,2.0,22.0,-11.0,-32.0,-20.0,-17.0,11.0,2.372915267944336
477,-97.0,72.0,230.0,1.0,4294.0,6267.0,9787.0,10719.0,-3.0,8.0,27.0,48.0,55.0,24.0,-34.0,-10.0,2.3754146099090576
478,53.0,62.0,183.0,1.0,4259.0,6284.0,9780.0,10730.0,-3.0,8.0,27.0,48.0,55.0,24.0,-34.0,-10.0,2.38767147064209
479,53.0,62.0,183.0,1.0,4259.0,6284.0,9780.0,10730.0,-2.0,-20.0,-25.0,10.0,-22.0,-16.0,24.0,23.0,2.3907630443573
480,53.0,62.0,183.0,1.0,4259.0,6284.0,9780.0,10730.0,-8.0,-21.0,-67.0,-8.0,-28.0,-38.0,-15.0,4.0,2.3936896324157715
481,-83.0,87.0,174.0,1.0,4217.0,6304.0,9751.0,10761.0,-8.0,-21.0,-67.0,-8.0,-28.0,-38.0,-15.0,4.0,2.4103188514709473
482,-83.0,87.0,174.0,1.0,4217.0,6304.0,9751.0,10761.0,34.0,49.0,35.0,-21.0,-37.0,-13.0,-13.0,-2.0,2.4136106967926025
483,-83.0,87.0,174.0,1.0,4217.0,6304.0,9751.0,10761.0,-21.0,-8.0,52.0,55.0,20.0,-12.0,-6.0,-4.0,2.416750907897949
484,-72.0,99.0,149.0,1.0,4173.0,6324.0,9723.0,10792.0,-21.0,-8.0,52.0,55.0,20.0,-12.0,-6.0,-4.0,2.4247491359710693
485,-72.0,99.0,149.0,1.0,4173.0,6324.0,9723.0,10792.0,-8.0,-39.0,-47.0,-12.0,17.0,24.0,18.0,-1.0,2.427562952041626
486,-72.0,99.0,149.0,1.0,4173.0,6324.0,9723.0,10792.0,8.0,25.0,-4.0,2.0,-5.0,15.0,15.0,2.0,2.430295944213867
487,123.0,54.0,138.0,1.0,4130.0,6348.0,9723.0,10794.0,8.0,25.0,-4.0,2.0,-5.0,15.0,15.0,2.0,2.4476051330566406
488,123.0,54.0,138.0,1.0,4130.0,6348.0,9723.0,10794.0,4.0,17.0,31.0,6.0,9.0,-13.0,12.0,-6.0,2.450788736343384
489,123.0,54.0,138.0,1.0,4130.0,6348.0,9723.0,10794.0,-28.0,0.0,-16.0,5.0,16.0,43.0,-4.0,-6.0,2.4542441368103027
490,73.0,17.0,73.0,1.0,4110.0,6363.0,9733.0,10784.0,-28.0,0.0,-16.0,5.0,16.0,43.0,-4.0,-6.0,2.4704630374908447
491,73.0,17.0,73.0,1.0,4110.0,6363.0,9733.0,10784.0,4.0,19.0,-1.0,-33.0,-39.0,9.0,8.0,2.0,2.474639654159546
492,73.0,17.0,73.0,1.0,4110.0,6363.0,9733.0,10784.0,-18.0,15.0,15.0,1.0,15.0,-32.0,3.0,2.0,2.476750135421753
493,-114.0,34.0,61.0,1.0,4091.0,6377.0,9716.0,10798.0,-18.0,15.0,15.0,1.0,15.0,-32.0,3.0,2.0,2.483844757080078
494,-114.0,34.0,61.0,1.0,4091.0,6377.0,9716.0,10798.0,21.0,15.0,-16.0,-39.0,-57.0,5.0,36.0,9.0,2.4860405921936035
495,-114.0,34.0,61.0,1.0,4091.0,6377.0,9716.0,10798.0,3.0,-11.0,15.0,8.0,-13.0,-7.0,15.0,-8.0,2.490746021270752
496,-61.0,56.0,38.0,1.0,4058.0,6397.0,9704.0,10810.0,3.0,-11.0,15.0,8.0,-13.0,-7.0,15.0,-8.0,2.5089282989501953
497,-61.0,56.0,38.0,1.0,4058.0,6397.0,9704.0,10810.0,-17.0,-20.0,-28.0,17.0,24.0,-20.0,-38.0,-16.0,2.512073040008545
498,-61.0,56.0,38.0,1.0,4058.0,6397.0,9704.0,10810.0,11.0,11.0,19.0,8.0,-32.0,4.0,-21.0,5.0,2.5150277614593506
499,82.0,87.0,20.0,1.0,4021.0,6412.0,9713.0,10807.0,11.0,11.0,19.0,8.0,-32.0,4.0,-21.0,5.0,2.5305118560791016
