,Gyro 0,Gyro 1,Gyro 2,Label,Orientation 0,Orientation 1,Orientation 2,Orientation 3,Sensor 0,Sensor 1,Sensor 2,Sensor 3,Sensor 4,Sensor 5,Sensor 6,Sensor 7,Timestamp
0,57.0,98.0,-57.0,0.0,-422.0,10209.0,9175.0,8935.0,-19.0,-24.0,7.0,-1.0,-1.0,-2.0,-2.0,-6.0,1.6689300537109375e-06
1,57.0,98.0,-57.0,0.0,-422.0,10209.0,9175.0,8935.0,8.0,-4.0,-11.0,3.0,-1.0,-4.0,-3.0,-1.0,0.0023217201232910156
2,125.0,138.0,-75.0,0.0,-435.0,10193.0,9206.0,8921.0,8.0,-4.0,-11.0,3.0,-1.0,-4.0,-3.0,-1.0,0.00537109375
3,125.0,138.0,-75.0,0.0,-435.0,10193.0,9206.0,8921.0,-6.0,-3.0,-9.0,-5.0,-3.0,2.0,-3.0,-2.0,0.010027647018432617
4,111.0,175.0,-71.0,0.0,-450.0,10169.0,9231.0,8921.0,-6.0,-3.0,-9.0,-5.0,-3.0,2.0,-3.0,-2.0,0.012081146240234375
5,111.0,175.0,-71.0,0.0,-450.0,10169.0,9231.0,8921.0,5.0,-2.0,-5.0,4.0,3.0,-2.0,1.0,-1.0,0.014171838760375977
6,111.0,175.0,-71.0,0.0,-450.0,10169.0,9231.0,8921.0,1.0,15.0,3.0,-4.0,-16.0,-3.0,-6.0,-2.0,0.016155719757080078
7,89.0,197.0,-43.0,0.0,-469.0,10143.0,9248.0,8932.0,1.0,15.0,3.0,-4.0,-16.0,-3.0,-6.0,-2.0,0.018141508102416992
8,89.0,197.0,-43.0,0.0,-469.0,10143.0,9248.0,8932.0,11.0,15.0,9.0,-4.0,-5.0,-1.0,1.0,2.0,0.020476818084716797
9,89.0,197.0,-43.0,0.0,-469.0,10143.0,9248.0,8932.0,-16.0,-38.0,3.0,-1.0,-6.0,-6.0,-4.0,-3.0,0.023325681686401367
10,91.0,161.0,-22.0,0.0,-487.0,10119.0,9259.0,8948.0,-16.0,-38.0,3.0,-1.0,-6.0,-6.0,-4.0,-3.0,0.025201082229614258
11,91.0,161.0,-22.0,0.0,-487.0,10119.0,9259.0,8948.0,8.0,11.0,-5.0,-6.0,-11.0,-3.0,0.0,-3.0,0.027753114700317383
12,91.0,161.0,-22.0,0.0,-487.0,10119.0,9259.0,8948.0,8.0,-3.0,1.0,3.0,2.0,3.0,7.0,5.0,0.03016376495361328
13,96.0,118.0,-45.0,0.0,-505.0,10098.0,9270.0,8958.0,8.0,-3.0,1.0,3.0,2.0,3.0,7.0,5.0,0.03192734718322754
14,96.0,118.0,-45.0,0.0,-505.0,10098.0,9270.0,8958.0,-8.0,-9.0,-19.0,-7.0,-8.0,-5.0,-5.0,-1.0,0.03375864028930664
15,96.0,118.0,-45.0,0.0,-505.0,10098.0,9270.0,8958.0,-6.0,-27.0,-15.0,-3.0,1.0,-1.0,5.0,-3.0,0.035521507263183594
16,85.0,112.0,-33.0,0.0,-521.0,10081.0,9280.0,8966.0,-6.0,-27.0,-15.0,-3.0,1.0,-1.0,5.0,-3.0,0.03727436065673828
17,85.0,112.0,-33.0,0.0,-521.0,10081.0,9280.0,8966.0,1.0,22.0,7.0,4.0,4.0,2.0,-1.0,4.0,0.03990364074707031
18,85.0,112.0,-33.0,0.0,-521.0,10081.0,9280.0,8966.0,-4.0,-9.0,-22.0,-9.0,1.0,-3.0,-2.0,-3.0,0.041961669921875
19,66.0,121.0,-35.0,0.0,-536.0,10064.0,9290.0,8974.0,-4.0,-9.0,-22.0,-9.0,1.0,-3.0,-2.0,-3.0,0.04374361038208008
20,66.0,121.0,-35.0,0.0,-536.0,10064.0,9290.0,8974.0,5.0,-1.0,-15.0,-1.0,2.0,-2.0,-3.0,2.0,0.045583248138427734
21,66.0,121.0,-35.0,0.0,-536.0,10064.0,9290.0,8974.0,2.0,19.0,14.0,2.0,6.0,2.0,0.0,-1.0,0.04734921455383301
22,106.0,88.0,-8.0,0.0,-551.0,10052.0,9303.0,8973.0,2.0,19.0,14.0,2.0,6.0,2.0,0.0,-1.0,0.04912400245666504
23,106.0,88.0,-8.0,0.0,-551.0,10052.0,9303.0,8973.0,-1.0,-15.0,-1.0,-4.0,-5.0,-3.0,-12.0,-5.0,0.05155372619628906
24,106.0,88.0,-8.0,0.0,-551.0,10052.0,9303.0,8973.0,-7.0,11.0,-13.0,2.0,3.0,-2.0,-3.0,-5.0,0.05396747589111328
25,118.0,33.0,-51.0,0.0,-556.0,10039.0,9322.0,8968.0,-7.0,11.0,-13.0,2.0,3.0,-2.0,-3.0,-5.0,0.055789947509765625
26,118.0,33.0,-51.0,0.0,-556.0,10039.0,9322.0,8968.0,-6.0,-9.0,3.0,-2.0,2.0,4.0,1.0,-2.0,0.057639360427856445
27,118.0,33.0,-51.0,0.0,-556.0,10039.0,9322.0,8968.0,10.0,9.0,-7.0,-12.0,-14.0,-4.0,4.0,2.0,0.059452056884765625
28,59.0,45.0,-33.0,0.0,-554.0,10024.0,9334.0,8972.0,10.0,9.0,-7.0,-12.0,-14.0,-4.0,4.0,2.0,0.06213545799255371
29,59.0,45.0,-33.0,0.0,-554.0,10024.0,9334.0,8972.0,10.0,25.0,10.0,12.0,5.0,4.0,0.0,1.0,0.06447124481201172
30,59.0,45.0,-33.0,0.0,-554.0,10024.0,9334.0,8972.0,4.0,0.0,5.0,2.0,-1.0,-2.0,2.0,2.0,0.06626439094543457
31,21.0,70.0,-22.0,0.0,-557.0,10012.0,9340.0,8979.0,4.0,0.0,5.0,2.0,-1.0,-2.0,2.0,2.0,0.06802558898925781
32,21.0,70.0,-22.0,0.0,-557.0,10012.0,9340.0,8979.0,-7.0,-26.0,-12.0,-1.0,-5.0,-5.0,-3.0,-1.0,0.06992197036743164
33,21.0,70.0,-22.0,0.0,-557.0,10012.0,9340.0,8979.0,1.0,-7.0,13.0,2.0,4.0,6.0,-1.0,-1.0,0.07174062728881836
34,0.0,127.0,-8.0,0.0,-566.0,9999.0,9343.0,8990.0,1.0,-7.0,13.0,2.0,4.0,6.0,-1.0,-1.0,0.07378268241882324
35,0.0,127.0,-8.0,0.0,-566.0,9999.0,9343.0,8990.0,2.0,4.0,11.0,-2.0,0.0,-4.0,-1.0,0.0,0.07568597793579102
36,0.0,127.0,-8.0,0.0,-566.0,9999.0,9343.0,8990.0,-2.0,0.0,15.0,1.0,-7.0,-2.0,-4.0,-1.0,0.07744264602661133
37,-47.0,184.0,5.0,0.0,-581.0,9985.0,9339.0,9008.0,-2.0,0.0,15.0,1.0,-7.0,-2.0,-4.0,-1.0,0.07922053337097168
38,-47.0,184.0,5.0,0.0,-581.0,9985.0,9339.0,9008.0,4.0,-4.0,-32.0,1.0,5.0,3.0,0.0,0.0,0.08121085166931152
39,-47.0,184.0,5.0,0.0,-581.0,9985.0,9339.0,9008.0,-1.0,10.0,14.0,-6.0,-14.0,-3.0,3.0,0.0,0.0836639404296875
40,-3.0,183.0,-6.0,0.0,-610.0,9975.0,9335.0,9022.0,-1.0,10.0,14.0,-6.0,-14.0,-3.0,3.0,0.0,0.08582520484924316
41,-3.0,183.0,-6.0,0.0,-610.0,9975.0,9335.0,9022.0,-7.0,-14.0,9.0,6.0,12.0,0.0,-2.0,-1.0,0.08769869804382324
42,-3.0,183.0,-6.0,0.0,-610.0,9975.0,9335.0,9022.0,2.0,-8.0,-12.0,2.0,4.0,0.0,1.0,3.0,0.08947944641113281
43,138.0,175.0,-30.0,0.0,-660.0,9964.0,9342.0,9023.0,2.0,-8.0,-12.0,2.0,4.0,0.0,1.0,3.0,0.09132504463195801
44,138.0,175.0,-30.0,0.0,-660.0,9964.0,9342.0,9023.0,-4.0,-4.0,-17.0,1.0,0.0,1.0,4.0,3.0,0.0931549072265625
45,138.0,175.0,-30.0,0.0,-660.0,9964.0,9342.0,9023.0,-9.0,-8.0,14.0,-4.0,-6.0,-5.0,-5.0,-7.0,0.09628510475158691
46,238.0,176.0,-63.0,0.0,-712.0,9945.0,9364.0,9017.0,-9.0,-8.0,14.0,-4.0,-6.0,-5.0,-5.0,-7.0,0.09814620018005371
47,238.0,176.0,-63.0,0.0,-712.0,9945.0,9364.0,9017.0,5.0,8.0,20.0,1.0,-5.0,-3.0,-3.0,-1.0,0.10004615783691406
48,238.0,176.0,-63.0,0.0,-712.0,9945.0,9364.0,9017.0,-3.0,-1.0,-18.0,-4.0,-1.0,-2.0,3.0,-2.0,0.1018364429473877
49,216.0,184.0,-36.0,0.0,-760.0,9925.0,9383.0,9015.0,-3.0,-1.0,-18.0,-4.0,-1.0,-2.0,3.0,-2.0,0.10365104675292969
50,216.0,184.0,-36.0,0.0,-760.0,9925.0,9383.0,9015.0,-11.0,-21.0,4.0,1.0,4.0,4.0,-3.0,2.0,0.1056206226348877
51,216.0,184.0,-36.0,0.0,-760.0,9925.0,9383.0,9015.0,3.0,27.0,-7.0,-1.0,1.0,2.0,4.0,1.0,0.10775589942932129
52,91.0,163.0,31.0,0.0,-799.0,9913.0,9381.0,9027.0,3.0,27.0,-7.0,-1.0,1.0,2.0,4.0,1.0,0.10957980155944824
53,91.0,163.0,31.0,0.0,-799.0,9913.0,9381.0,9027.0,1.0,18.0,11.0,-5.0,-4.0,-7.0,0.0,-4.0,0.11198830604553223
54,91.0,163.0,31.0,0.0,-799.0,9913.0,9381.0,9027.0,8.0,11.0,-10.0,5.0,12.0,2.0,-4.0,-1.0,0.11460137367248535
55,12.0,101.0,51.0,0.0,-832.0,9911.0,9364.0,9044.0,8.0,11.0,-10.0,5.0,12.0,2.0,-4.0,-1.0,0.11668920516967773
56,12.0,101.0,51.0,0.0,-832.0,9911.0,9364.0,9044.0,-7.0,-23.0,1.0,-5.0,-7.0,-4.0,-2.0,-1.0,0.11856365203857422
57,12.0,101.0,51.0,0.0,-832.0,9911.0,9364.0,9044.0,-3.0,-29.0,-24.0,-2.0,-2.0,1.0,-2.0,1.0,0.12033915519714355
58,89.0,11.0,19.0,0.0,-865.0,9911.0,9354.0,9052.0,-3.0,-29.0,-24.0,-2.0,-2.0,1.0,-2.0,1.0,0.12213397026062012
59,89.0,11.0,19.0,0.0,-865.0,9911.0,9354.0,9052.0,2.0,16.0,22.0,-2.0,-9.0,0.0,-12.0,0.0,0.12400484085083008
60,89.0,11.0,19.0,0.0,-865.0,9911.0,9354.0,9052.0,-15.0,-27.0,-6.0,7.0,5.0,1.0,-1.0,-1.0,0.1257791519165039
61,162.0,-59.0,-18.0,0.0,-888.0,9910.0,9358.0,9047.0,-15.0,-27.0,-6.0,7.0,5.0,1.0,-1.0,-1.0,0.12801551818847656
62,162.0,-59.0,-18.0,0.0,-888.0,9910.0,9358.0,9047.0,11.0,-5.0,-15.0,1.0,2.0,-1.0,0.0,0.0,0.13064002990722656
63,162.0,-59.0,-18.0,0.0,-888.0,9910.0,9358.0,9047.0,-4.0,-1.0,26.0,1.0,-8.0,0.0,-1.0,-1.0,0.1324329376220703
64,64.0,-83.0,-26.0,0.0,-887.0,9907.0,9360.0,9049.0,-4.0,-1.0,26.0,1.0,-8.0,0.0,-1.0,-1.0,0.13422179222106934
65,64.0,-83.0,-26.0,0.0,-887.0,9907.0,9360.0,9049.0,3.0,13.0,-4.0,0.0,-5.0,-5.0,-4.0,-4.0,0.13609552383422852
66,64.0,-83.0,-26.0,0.0,-887.0,9907.0,9360.0,9049.0,-2.0,3.0,-3.0,-5.0,7.0,-1.0,0.0,-1.0,0.13786721229553223
67,-172.0,-70.0,47.0,0.0,-865.0,9910.0,9331.0,9076.0,-2.0,3.0,-3.0,-5.0,7.0,-1.0,0.0,-1.0,0.13977813720703125
68,-172.0,-70.0,47.0,0.0,-865.0,9910.0,9331.0,9076.0,-9.0,-7.0,-18.0,0.0,6.0,2.0,-1.0,-3.0,0.14168143272399902
69,-172.0,-70.0,47.0,0.0,-865.0,9910.0,9331.0,9076.0,2.0,-9.0,-6.0,-3.0,8.0,0.0,-5.0,0.0,0.14448332786560059
70,-368.0,-43.0,89.0,0.0,-840.0,9921.0,9272.0,9127.0,2.0,-9.0,-6.0,-3.0,8.0,0.0,-5.0,0.0,0.14682316780090332
71,-368.0,-43.0,89.0,0.0,-840.0,9921.0,9272.0,9127.0,-1.0,0.0,-2.0,-3.0,6.0,1.0,4.0,-2.0,0.1487407684326172
72,-368.0,-43.0,89.0,0.0,-840.0,9921.0,9272.0,9127.0,-4.0,14.0,-4.0,-5.0,-5.0,-6.0,-4.0,-1.0,0.15053176879882812
73,-279.0,-43.0,37.0,0.0,-827.0,9931.0,9225.0,9165.0,-4.0,14.0,-4.0,-5.0,-5.0,-6.0,-4.0,-1.0,0.15230941772460938
74,-279.0,-43.0,37.0,0.0,-827.0,9931.0,9225.0,9165.0,7.0,-10.0,-22.0,-1.0,10.0,3.0,-1.0,-2.0,0.15417003631591797
75,-279.0,-43.0,37.0,0.0,-827.0,9931.0,9225.0,9165.0,12.0,-1.0,-15.0,-3.0,-6.0,1.0,1.0,-2.0,0.15594911575317383
76,-33.0,-62.0,-36.0,0.0,-829.0,9933.0,9213.0,9175.0,12.0,-1.0,-15.0,-3.0,-6.0,1.0,1.0,-2.0,0.15773916244506836
77,-33.0,-62.0,-36.0,0.0,-829.0,9933.0,9213.0,9175.0,-4.0,-2.0,13.0,3.0,-5.0,2.0,6.0,0.0,0.15960454940795898
78,-33.0,-62.0,-36.0,0.0,-829.0,9933.0,9213.0,9175.0,5.0,-2.0,24.0,6.0,-4.0,-2.0,0.0,4.0,0.16256213188171387
79,78.0,-49.0,-27.0,0.0,-834.0,9932.0,9218.0,9171.0,5.0,-2.0,24.0,6.0,-4.0,-2.0,0.0,4.0,0.1643824577331543
80,78.0,-49.0,-27.0,0.0,-834.0,9932.0,9218.0,9171.0,-12.0,29.0,21.0,2.0,0.0,4.0,1.0,-2.0,0.1662461757659912
81,78.0,-49.0,-27.0,0.0,-834.0,9932.0,9218.0,9171.0,-1.0,-18.0,-9.0,-10.0,-15.0,-4.0,-2.0,0.0,0.16801881790161133
82,-47.0,-9.0,45.0,0.0,-832.0,9933.0,9205.0,9182.0,-1.0,-18.0,-9.0,-10.0,-15.0,-4.0,-2.0,0.0,0.1697995662689209
83,-47.0,-9.0,45.0,0.0,-832.0,9933.0,9205.0,9182.0,-3.0,-5.0,-8.0,-7.0,-9.0,-2.0,1.0,-3.0,0.17166376113891602
84,-47.0,-9.0,45.0,0.0,-832.0,9933.0,9205.0,9182.0,1.0,17.0,14.0,4.0,5.0,3.0,-3.0,-2.0,0.1739790439605713
85,-172.0,18.0,99.0,0.0,-830.0,9943.0,9173.0,9204.0,1.0,17.0,14.0,4.0,5.0,3.0,-3.0,-2.0,0.17702174186706543
86,-172.0,18.0,99.0,0.0,-830.0,9943.0,9173.0,9204.0,-1.0,9.0,9.0,-4.0,-14.0,-5.0,-7.0,-1.0,0.18015217781066895
87,-172.0,18.0,99.0,0.0,-830.0,9943.0,9173.0,9204.0,-1.0,1.0,-8.0,-1.0,11.0,-1.0,-7.0,-4.0,0.18201327323913574
88,-152.0,8.0,112.0,0.0,-833.0,9958.0,9143.0,9217.0,-1.0,1.0,-8.0,-1.0,11.0,-1.0,-7.0,-4.0,0.1838371753692627
89,-152.0,8.0,112.0,0.0,-833.0,9958.0,9143.0,9217.0,1.0,-4.0,0.0,-1.0,3.0,3.0,2.0,-1.0,0.18569159507751465
90,-152.0,8.0,112.0,0.0,-833.0,9958.0,9143.0,9217.0,-9.0,2.0,-5.0,0.0,3.0,3.0,5.0,0.0,0.18747568130493164
91,-28.0,5.0,75.0,0.0,-843.0,9970.0,9131.0,9215.0,-9.0,2.0,-5.0,0.0,3.0,3.0,5.0,0.0,0.18924570083618164
92,-28.0,5.0,75.0,0.0,-843.0,9970.0,9131.0,9215.0,11.0,21.0,1.0,-1.0,3.0,0.0,1.0,3.0,0.19130873680114746
93,-28.0,5.0,75.0,0.0,-843.0,9970.0,9131.0,9215.0,1.0,4.0,-8.0,2.0,9.0,3.0,0.0,1.0,0.19309616088867188
94,58.0,-7.0,28.0,0.0,-848.0,9976.0,9139.0,9200.0,1.0,4.0,-8.0,2.0,9.0,3.0,0.0,1.0,0.19489145278930664
95,58.0,-7.0,28.0,0.0,-848.0,9976.0,9139.0,9200.0,4.0,-2.0,-6.0,6.0,2.0,1.0,0.0,3.0,0.19673442840576172
96,58.0,-7.0,28.0,0.0,-848.0,9976.0,9139.0,9200.0,9.0,32.0,24.0,4.0,-2.0,-1.0,-2.0,3.0,0.19855403900146484
97,39.0,14.0,38.0,0.0,-843.0,9979.0,9152.0,9185.0,9.0,32.0,24.0,4.0,-2.0,-1.0,-2.0,3.0,0.2003307342529297
98,39.0,14.0,38.0,0.0,-843.0,9979.0,9152.0,9185.0,-2.0,-5.0,15.0,0.0,5.0,-1.0,-2.0,-2.0,0.2021949291229248
99,39.0,14.0,38.0,0.0,-843.0,9979.0,9152.0,9185.0,-14.0,-12.0,-7.0,-12.0,-22.0,-7.0,-2.0,-6.0,0.20435667037963867
100,-50.0,35.0,46.0,0.0,-828.0,9980.0,9156.0,9181.0,-14.0,-12.0,-7.0,-12.0,-22.0,-7.0,-2.0,-6.0,0.20696449279785156
101,-50.0,35.0,46.0,0.0,-828.0,9980.0,9156.0,9181.0,-7.0,-7.0,2.0,-4.0,-6.0,-4.0,-2.0,0.0,0.20919442176818848
102,-50.0,35.0,46.0,0.0,-828.0,9980.0,9156.0,9181.0,11.0,19.0,3.0,4.0,-2.0,1.0,2.0,2.0,0.21220064163208008
103,-55.0,18.0,39.0,0.0,-817.0,9984.0,9157.0,9177.0,11.0,19.0,3.0,4.0,-2.0,1.0,2.0,2.0,0.2140216827392578
104,-55.0,18.0,39.0,0.0,-817.0,9984.0,9157.0,9177.0,-6.0,-16.0,-9.0,3.0,3.0,2.0,1.0,-1.0,0.21592092514038086
105,-55.0,18.0,39.0,0.0,-817.0,9984.0,9157.0,9177.0,2.0,-19.0,4.0,0.0,-4.0,-1.0,-3.0,-1.0,0.21769475936889648
106,26.0,4.0,26.0,0.0,-817.0,9988.0,9164.0,9165.0,2.0,-19.0,4.0,0.0,-4.0,-1.0,-3.0,-1.0,0.2194836139678955
107,26.0,4.0,26.0,0.0,-817.0,9988.0,9164.0,9165.0,2.0,18.0,-3.0,4.0,2.0,-5.0,-4.0,0.0,0.22137784957885742
108,26.0,4.0,26.0,0.0,-817.0,9988.0,9164.0,9165.0,-5.0,-8.0,-4.0,-3.0,4.0,-1.0,0.0,0.0,0.2233281135559082
109,44.0,-14.0,-13.0,0.0,-811.0,9987.0,9176.0,9155.0,-5.0,-8.0,-4.0,-3.0,4.0,-1.0,0.0,0.0,0.225144624710083
110,44.0,-14.0,-13.0,0.0,-811.0,9987.0,9176.0,9155.0,4.0,3.0,5.0,-5.0,-9.0,-3.0,-1.0,-3.0,0.22701358795166016
111,44.0,-14.0,-13.0,0.0,-811.0,9987.0,9176.0,9155.0,5.0,16.0,-6.0,1.0,1.0,0.0,-4.0,-3.0,0.22878813743591309
112,36.0,-41.0,-12.0,0.0,-801.0,9986.0,9186.0,9146.0,5.0,16.0,-6.0,1.0,1.0,0.0,-4.0,-3.0,0.23058104515075684
113,36.0,-41.0,-12.0,0.0,-801.0,9986.0,9186.0,9146.0,3.0,-5.0,10.0,-2.0,-3.0,3.0,1.0,2.0,0.23245835304260254
114,36.0,-41.0,-12.0,0.0,-801.0,9986.0,9186.0,9146.0,-9.0,-30.0,12.0,6.0,9.0,1.0,1.0,1.0,0.23423433303833008
115,8.0,-56.0,2.0,0.0,-785.0,9987.0,9193.0,9140.0,-9.0,-30.0,12.0,6.0,9.0,1.0,1.0,1.0,0.23700451850891113
116,8.0,-56.0,2.0,0.0,-785.0,9987.0,9193.0,9140.0,-2.0,-28.0,-30.0,-1.0,-1.0,2.0,0.0,2.0,0.23941445350646973
117,8.0,-56.0,2.0,0.0,-785.0,9987.0,9193.0,9140.0,-7.0,-4.0,2.0,-1.0,1.0,1.0,-1.0,-2.0,0.24123287200927734
118,-59.0,-77.0,21.0,0.0,-764.0,9995.0,9192.0,9135.0,-7.0,-4.0,2.0,-1.0,1.0,1.0,-1.0,-2.0,0.24302315711975098
119,-59.0,-77.0,21.0,0.0,-764.0,9995.0,9192.0,9135.0,-4.0,-10.0,2.0,-5.0,-4.0,-4.0,2.0,-1.0,0.2460174560546875
120,-59.0,-77.0,21.0,0.0,-764.0,9995.0,9192.0,9135.0,-1.0,23.0,3.0,1.0,3.0,0.0,1.0,1.0,0.24794387817382812
121,-106.0,-97.0,35.0,0.0,-738.0,10007.0,9184.0,9131.0,-1.0,23.0,3.0,1.0,3.0,0.0,1.0,1.0,0.2496931552886963
122,-106.0,-97.0,35.0,0.0,-738.0,10007.0,9184.0,9131.0,2.0,14.0,-13.0,-1.0,-3.0,-2.0,-1.0,0.0,0.25153613090515137
123,-106.0,-97.0,35.0,0.0,-738.0,10007.0,9184.0,9131.0,0.0,-10.0,-1.0,-7.0,-13.0,-4.0,5.0,1.0,0.25328993797302246
124,-148.0,-95.0,58.0,0.0,-710.0,10024.0,9170.0,9129.0,0.0,-10.0,-1.0,-7.0,-13.0,-4.0,5.0,1.0,0.25505805015563965
125,-148.0,-95.0,58.0,0.0,-710.0,10024.0,9170.0,9129.0,7.0,-11.0,-14.0,0.0,2.0,1.0,2.0,2.0,0.25707149505615234
126,-148.0,-95.0,58.0,0.0,-710.0,10024.0,9170.0,9129.0,4.0,-2.0,-17.0,4.0,5.0,1.0,-4.0,0.0,0.2589278221130371
127,-162.0,-75.0,47.0,0.0,-686.0,10039.0,9154.0,9130.0,4.0,-2.0,-17.0,4.0,5.0,1.0,-4.0,0.0,0.26079726219177246
128,-162.0,-75.0,47.0,0.0,-686.0,10039.0,9154.0,9130.0,3.0,17.0,17.0,2.0,-2.0,-3.0,-2.0,-2.0,0.2629055976867676
129,-162.0,-75.0,47.0,0.0,-686.0,10039.0,9154.0,9130.0,-1.0,2.0,-10.0,-2.0,-5.0,-3.0,-2.0,-4.0,0.26489973068237305
130,-70.0,-69.0,44.0,0.0,-673.0,10054.0,9149.0,9120.0,-1.0,2.0,-10.0,-2.0,-5.0,-3.0,-2.0,-4.0,0.26781129837036133
131,-70.0,-69.0,44.0,0.0,-673.0,10054.0,9149.0,9120.0,-11.0,-7.0,-16.0,3.0,3.0,0.0,-4.0,-2.0,0.2702057361602783
132,-70.0,-69.0,44.0,0.0,-673.0,10054.0,9149.0,9120.0,12.0,8.0,4.0,3.0,-2.0,1.0,-1.0,3.0,0.27201080322265625
133,-95.0,-45.0,37.0,0.0,-656.0,10065.0,9142.0,9117.0,12.0,8.0,4.0,3.0,-2.0,1.0,-1.0,3.0,0.2738018035888672
134,-95.0,-45.0,37.0,0.0,-656.0,10065.0,9142.0,9117.0,-7.0,-7.0,17.0,3.0,2.0,3.0,0.0,-3.0,0.2756686210632324
135,-95.0,-45.0,37.0,0.0,-656.0,10065.0,9142.0,9117.0,-8.0,-10.0,14.0,1.0,7.0,2.0,1.0,-3.0,0.2785971164703369
136,-112.0,-25.0,50.0,0.0,-642.0,10075.0,9130.0,9118.0,-8.0,-10.0,14.0,1.0,7.0,2.0,1.0,-3.0,0.280444860458374
137,-112.0,-25.0,50.0,0.0,-642.0,10075.0,9130.0,9118.0,-1.0,13.0,13.0,-5.0,3.0,0.0,-7.0,-2.0,0.28229665756225586
138,-112.0,-25.0,50.0,0.0,-642.0,10075.0,9130.0,9118.0,-7.0,-11.0,-7.0,-1.0,0.0,-3.0,-4.0,-1.0,0.28404736518859863
139,-57.0,-13.0,46.0,0.0,-637.0,10082.0,9123.0,9117.0,-7.0,-11.0,-7.0,-1.0,0.0,-3.0,-4.0,-1.0,0.2858009338378906
140,-57.0,-13.0,46.0,0.0,-637.0,10082.0,9123.0,9117.0,6.0,21.0,3.0,-2.0,-5.0,-4.0,1.0,-3.0,0.2876458168029785
141,-57.0,-13.0,46.0,0.0,-637.0,10082.0,9123.0,9117.0,10.0,2.0,-15.0,-2.0,-5.0,-3.0,-2.0,2.0,0.28977370262145996
142,-3.0,-22.0,26.0,0.0,-634.0,10086.0,9122.0,9114.0,10.0,2.0,-15.0,-2.0,-5.0,-3.0,-2.0,2.0,0.29158997535705566
143,-3.0,-22.0,26.0,0.0,-634.0,10086.0,9122.0,9114.0,-13.0,-9.0,-11.0,-2.0,-1.0,0.0,-4.0,0.0,0.29342103004455566
144,-3.0,-22.0,26.0,0.0,-634.0,10086.0,9122.0,9114.0,-6.0,-8.0,-12.0,-3.0,-3.0,0.0,-3.0,-2.0,0.29517483711242676
145,-12.0,-9.0,17.0,0.0,-631.0,10088.0,9120.0,9114.0,-6.0,-8.0,-12.0,-3.0,-3.0,0.0,-3.0,-2.0,0.297046422958374
146,-12.0,-9.0,17.0,0.0,-631.0,10088.0,9120.0,9114.0,-1.0,-14.0,19.0,2.0,-3.0,1.0,1.0,-1.0,0.29961442947387695
147,-12.0,-9.0,17.0,0.0,-631.0,10088.0,9120.0,9114.0,-2.0,4.0,-8.0,-6.0,3.0,-3.0,-9.0,-4.0,0.3017549514770508
148,-21.0,7.0,5.0,0.0,-626.0,10086.0,9119.0,9117.0,-2.0,4.0,-8.0,-6.0,3.0,-3.0,-9.0,-4.0,0.3035287857055664
149,-21.0,7.0,5.0,0.0,-626.0,10086.0,9119.0,9117.0,-10.0,-21.0,-3.0,0.0,9.0,5.0,1.0,-1.0,0.3053581714630127
150,-21.0,7.0,5.0,0.0,-626.0,10086.0,9119.0,9117.0,1.0,18.0,20.0,0.0,-8.0,-4.0,-3.0,-4.0,0.30713820457458496
151,-26.0,10.0,12.0,0.0,-622.0,10086.0,9118.0,9118.0,1.0,18.0,20.0,0.0,-8.0,-4.0,-3.0,-4.0,0.3088986873626709
152,-26.0,10.0,12.0,0.0,-622.0,10086.0,9118.0,9118.0,5.0,11.0,-1.0,-2.0,-4.0,-3.0,-7.0,1.0,0.31151509284973145
153,-26.0,10.0,12.0,0.0,-622.0,10086.0,9118.0,9118.0,3.0,11.0,4.0,-5.0,-12.0,-3.0,-4.0,-2.0,0.31391024589538574
154,-26.0,20.0,7.0,0.0,-619.0,10085.0,9117.0,9121.0,3.0,11.0,4.0,-5.0,-12.0,-3.0,-4.0,-2.0,0.31569409370422363
155,-26.0,20.0,7.0,0.0,-619.0,10085.0,9117.0,9121.0,7.0,1.0,1.0,2.0,2.0,-1.0,3.0,3.0,0.3175206184387207
156,-26.0,20.0,7.0,0.0,-619.0,10085.0,9117.0,9121.0,-8.0,-8.0,-10.0,6.0,7.0,7.0,1.0,-2.0,0.31927919387817383
157,17.0,28.0,-3.0,0.0,-622.0,10083.0,9121.0,9119.0,-8.0,-8.0,-10.0,6.0,7.0,7.0,1.0,-2.0,0.3210291862487793
158,17.0,28.0,-3.0,0.0,-622.0,10083.0,9121.0,9119.0,4.0,-14.0,10.0,3.0,2.0,-4.0,0.0,2.0,0.3231062889099121
159,17.0,28.0,-3.0,0.0,-622.0,10083.0,9121.0,9119.0,-2.0,12.0,13.0,-1.0,5.0,0.0,-4.0,0.0,0.32501649856567383
160,56.0,25.0,-4.0,0.0,-628.0,10081.0,9130.0,9113.0,-2.0,12.0,13.0,-1.0,5.0,0.0,-4.0,0.0,0.32683730125427246
161,56.0,25.0,-4.0,0.0,-628.0,10081.0,9130.0,9113.0,0.0,-17.0,-27.0,-5.0,-3.0,0.0,-1.0,1.0,0.32928466796875
162,56.0,25.0,-4.0,0.0,-628.0,10081.0,9130.0,9113.0,-7.0,-34.0,0.0,-4.0,-7.0,-8.0,-5.0,-3.0,0.33161163330078125
163,31.0,25.0,-5.0,0.0,-630.0,10077.0,9136.0,9110.0,-7.0,-34.0,0.0,-4.0,-7.0,-8.0,-5.0,-3.0,0.33341240882873535
164,31.0,25.0,-5.0,0.0,-630.0,10077.0,9136.0,9110.0,19.0,41.0,13.0,0.0,-6.0,2.0,0.0,4.0,0.3353111743927002
165,31.0,25.0,-5.0,0.0,-630.0,10077.0,9136.0,9110.0,-3.0,-14.0,-19.0,0.0,-1.0,-3.0,-2.0,0.0,0.3371274471282959
166,5.0,24.0,-5.0,0.0,-627.0,10075.0,9142.0,9106.0,-3.0,-14.0,-19.0,0.0,-1.0,-3.0,-2.0,0.0,0.3388862609863281
167,5.0,24.0,-5.0,0.0,-627.0,10075.0,9142.0,9106.0,-12.0,-16.0,8.0,-5.0,-7.0,-6.0,-5.0,-7.0,0.3407323360443115
168,5.0,24.0,-5.0,0.0,-627.0,10075.0,9142.0,9106.0,-1.0,-3.0,-3.0,-5.0,-13.0,-4.0,-4.0,1.0,0.34255313873291016
169,2.0,38.0,12.0,0.0,-630.0,10074.0,9143.0,9107.0,-1.0,-3.0,-3.0,-5.0,-13.0,-4.0,-4.0,1.0,0.3451046943664551
170,2.0,38.0,12.0,0.0,-630.0,10074.0,9143.0,9107.0,2.0,11.0,1.0,2.0,5.0,0.0,-1.0,-4.0,0.3475198745727539
171,2.0,38.0,12.0,0.0,-630.0,10074.0,9143.0,9107.0,8.0,31.0,11.0,-3.0,-1.0,3.0,-2.0,1.0,0.34929656982421875
172,-5.0,49.0,20.0,0.0,-632.0,10070.0,9143.0,9111.0,8.0,31.0,11.0,-3.0,-1.0,3.0,-2.0,1.0,0.3510711193084717
173,-5.0,49.0,20.0,0.0,-632.0,10070.0,9143.0,9111.0,1.0,-4.0,-9.0,-9.0,-6.0,-4.0,-5.0,-3.0,0.35292816162109375
174,-5.0,49.0,20.0,0.0,-632.0,10070.0,9143.0,9111.0,5.0,-1.0,9.0,-1.0,3.0,-2.0,0.0,0.0,0.35473179817199707
175,3.0,33.0,17.0,0.0,-633.0,10067.0,9144.0,9113.0,5.0,-1.0,9.0,-1.0,3.0,-2.0,0.0,0.0,0.3568098545074463
176,3.0,33.0,17.0,0.0,-633.0,10067.0,9144.0,9113.0,-3.0,-7.0,-19.0,-1.0,5.0,2.0,0.0,1.0,0.3588399887084961
177,8.0,29.0,-13.0,0.0,-648.0,10029.0,9197.0,9100.0,-3.0,-7.0,-19.0,-1.0,5.0,2.0,0.0,1.0,0.3613879680633545
178,8.0,29.0,-13.0,0.0,-648.0,10029.0,9197.0,9100.0,5.0,17.0,7.0,1.0,-5.0,-1.0,-5.0,0.0,0.3635110855102539
179,8.0,29.0,-13.0,0.0,-648.0,10029.0,9197.0,9100.0,-7.0,4.0,-10.0,3.0,6.0,2.0,1.0,-3.0,0.3653080463409424
180,25.0,34.0,-12.0,0.0,-649.0,10023.0,9203.0,9101.0,-7.0,4.0,-10.0,3.0,6.0,2.0,1.0,-3.0,0.3670814037322998
181,25.0,34.0,-12.0,0.0,-649.0,10023.0,9203.0,9101.0,-9.0,5.0,-11.0,-3.0,1.0,-2.0,8.0,-7.0,0.3689157962799072
182,25.0,34.0,-12.0,0.0,-649.0,10023.0,9203.0,9101.0,1.0,-11.0,8.0,1.0,10.0,2.0,3.0,2.0,0.38100719451904297
183,23.0,47.0,-5.0,0.0,-650.0,10015.0,9209.0,9104.0,1.0,-11.0,8.0,1.0,10.0,2.0,3.0,2.0,0.3828127384185791
184,23.0,47.0,-5.0,0.0,-650.0,10015.0,9209.0,9104.0,9.0,0.0,-17.0,-3.0,-4.0,-2.0,-1.0,3.0,0.38466477394104004
185,23.0,47.0,-5.0,0.0,-650.0,10015.0,9209.0,9104.0,0.0,22.0,0.0,4.0,-5.0,2.0,-6.0,-3.0,0.39594483375549316
186,-30.0,39.0,3.0,0.0,-644.0,10010.0,9210.0,9108.0,0.0,22.0,0.0,4.0,-5.0,2.0,-6.0,-3.0,0.40225958824157715
187,-30.0,39.0,3.0,0.0,-644.0,10010.0,9210.0,9108.0,7.0,6.0,21.0,1.0,-2.0,6.0,0.0,3.0,0.40412116050720215
188,-30.0,39.0,3.0,0.0,-644.0,10010.0,9210.0,9108.0,-5.0,-18.0,-15.0,-3.0,-2.0,-5.0,-3.0,0.0,0.4172382354736328
189,-30.0,25.0,2.0,0.0,-642.0,10009.0,9210.0,9110.0,-5.0,-18.0,-15.0,-3.0,-2.0,-5.0,-3.0,0.0,0.41902661323547363
190,-30.0,25.0,2.0,0.0,-642.0,10009.0,9210.0,9110.0,-8.0,-9.0,-7.0,0.0,-5.0,-5.0,-2.0,0.0,0.42452263832092285
191,-30.0,25.0,2.0,0.0,-642.0,10009.0,9210.0,9110.0,15.0,17.0,7.0,0.0,9.0,-1.0,-5.0,-1.0,0.4407658576965332
192,-3.0,18.0,2.0,0.0,-644.0,10010.0,9211.0,9108.0,15.0,17.0,7.0,0.0,9.0,-1.0,-5.0,-1.0,0.4429004192352295
193,-3.0,18.0,2.0,0.0,-644.0,10010.0,9211.0,9108.0,-13.0,-13.0,8.0,3.0,5.0,1.0,-1.0,-5.0,0.44594383239746094
194,-3.0,18.0,2.0,0.0,-644.0,10010.0,9211.0,9108.0,-3.0,14.0,15.0,1.0,-4.0,3.0,4.0,1.0,0.45553135871887207
195,28.0,10.0,-11.0,0.0,-648.0,10010.0,9216.0,9103.0,-3.0,14.0,15.0,1.0,-4.0,3.0,4.0,1.0,0.4638640880584717
196,28.0,10.0,-11.0,0.0,-648.0,10010.0,9216.0,9103.0,0.0,10.0,4.0,2.0,4.0,-2.0,-6.0,-4.0,0.46701598167419434
197,28.0,10.0,-11.0,0.0,-648.0,10010.0,9216.0,9103.0,-3.0,-15.0,6.0,2.0,0.0,-1.0,1.0,0.0,0.4773440361022949
198,43.0,13.0,-7.0,0.0,-651.0,10008.0,9223.0,9098.0,-3.0,-15.0,6.0,2.0,0.0,-1.0,1.0,0.0,0.4798855781555176
199,43.0,13.0,-7.0,0.0,-651.0,10008.0,9223.0,9098.0,-2.0,-14.0,13.0,-15.0,-15.0,-3.0,1.0,2.0,0.48628759384155273
200,43.0,13.0,-7.0,0.0,-651.0,10008.0,9223.0,9098.0,-1.0,-5.0,-5.0,-2.0,-10.0,-4.0,-3.0,0.0,0.5003962516784668
201,22.0,18.0,0.0,0.0,-651.0,10004.0,9227.0,9097.0,-1.0,-5.0,-5.0,-2.0,-10.0,-4.0,-3.0,0.0,0.5022053718566895
202,22.0,18.0,0.0,0.0,-651.0,10004.0,9227.0,9097.0,0.0,-21.0,-16.0,-1.0,2.0,-1.0,3.0,-2.0,0.5040698051452637
203,22.0,18.0,0.0,0.0,-651.0,10004.0,9227.0,9097.0,5.0,0.0,6.0,-4.0,-6.0,-3.0,0.0,4.0,0.5149502754211426
204,-16.0,20.0,7.0,0.0,-647.0,10000.0,9226.0,9103.0,5.0,0.0,6.0,-4.0,-6.0,-3.0,0.0,4.0,0.5225238800048828
205,-16.0,20.0,7.0,0.0,-647.0,10000.0,9226.0,9103.0,-8.0,-10.0,2.0,0.0,8.0,1.0,-1.0,-3.0,0.5256426334381104
206,-16.0,20.0,7.0,0.0,-647.0,10000.0,9226.0,9103.0,-4.0,-14.0,5.0,6.0,2.0,3.0,4.0,-2.0,0.5372767448425293
207,7.0,11.0,-9.0,0.0,-646.0,10000.0,9227.0,9103.0,-4.0,-14.0,5.0,6.0,2.0,3.0,4.0,-2.0,0.5390830039978027
208,7.0,11.0,-9.0,0.0,-646.0,10000.0,9227.0,9103.0,14.0,15.0,-3.0,1.0,8.0,2.0,-1.0,5.0,0.5442495346069336
209,7.0,11.0,-9.0,0.0,-646.0,10000.0,9227.0,9103.0,-4.0,-24.0,-5.0,-7.0,-7.0,-3.0,-3.0,-2.0,0.5609145164489746
210,4.0,14.0,8.0,0.0,-646.0,9999.0,9227.0,9103.0,-4.0,-24.0,-5.0,-7.0,-7.0,-3.0,-3.0,-2.0,0.56398606300354
211,4.0,14.0,8.0,0.0,-646.0,9999.0,9227.0,9103.0,-4.0,-5.0,-7.0,1.0,-3.0,0.0,-1.0,-1.0,0.5670595169067383
212,4.0,14.0,8.0,0.0,-646.0,9999.0,9227.0,9103.0,0.0,-7.0,-3.0,-1.0,2.0,2.0,1.0,-1.0,0.5839633941650391
213,-15.0,18.0,29.0,0.0,-644.0,9999.0,9225.0,9106.0,0.0,-7.0,-3.0,-1.0,2.0,2.0,1.0,-1.0,0.5871803760528564
214,-15.0,18.0,29.0,0.0,-644.0,9999.0,9225.0,9106.0,10.0,21.0,1.0,-3.0,-2.0,-1.0,-3.0,-1.0,0.5907077789306641
215,-15.0,18.0,29.0,0.0,-644.0,9999.0,9225.0,9106.0,-3.0,7.0,5.0,-7.0,-12.0,-7.0,-8.0,-8.0,0.5986955165863037
216,-4.0,20.0,27.0,0.0,-646.0,10001.0,9225.0,9104.0,-3.0,7.0,5.0,-7.0,-12.0,-7.0,-8.0,-8.0,0.6009578704833984
217,-4.0,20.0,27.0,0.0,-646.0,10001.0,9225.0,9104.0,-8.0,-25.0,-18.0,1.0,6.0,-1.0,0.0,4.0,0.6042866706848145
218,-4.0,20.0,27.0,0.0,-646.0,10001.0,9225.0,9104.0,6.0,22.0,12.0,4.0,1.0,0.0,-1.0,1.0,0.6204390525817871
219,18.0,23.0,16.0,0.0,-647.0,10000.0,9229.0,9101.0,6.0,22.0,12.0,4.0,1.0,0.0,-1.0,1.0,0.6222114562988281
220,18.0,23.0,16.0,0.0,-647.0,10000.0,9229.0,9101.0,-8.0,0.0,11.0,2.0,0.0,4.0,-1.0,-1.0,0.6243875026702881
221,18.0,23.0,16.0,0.0,-647.0,10000.0,9229.0,9101.0,-5.0,-4.0,-17.0,5.0,3.0,-1.0,1.0,1.0,0.6441977024078369
222,17.0,35.0,6.0,0.0,-651.0,10000.0,9234.0,9096.0,-5.0,-4.0,-17.0,5.0,3.0,-1.0,1.0,1.0,0.6482326984405518
223,17.0,35.0,6.0,0.0,-651.0,10000.0,9234.0,9096.0,-3.0,18.0,22.0,2.0,-1.0,-2.0,-5.0,-2.0,0.6512527465820312
224,17.0,35.0,6.0,0.0,-651.0,10000.0,9234.0,9096.0,3.0,6.0,-12.0,2.0,-1.0,-1.0,5.0,1.0,0.6576001644134521
225,32.0,41.0,10.0,0.0,-659.0,10000.0,9239.0,9090.0,3.0,6.0,-12.0,2.0,-1.0,-1.0,5.0,1.0,0.6594290733337402
226,32.0,41.0,10.0,0.0,-659.0,10000.0,9239.0,9090.0,6.0,21.0,-9.0,1.0,9.0,3.0,1.0,-1.0,0.6644449234008789
227,32.0,41.0,10.0,0.0,-659.0,10000.0,9239.0,9090.0,-6.0,1.0,-2.0,-1.0,1.0,-1.0,-6.0,-4.0,0.6809570789337158
228,77.0,44.0,12.0,0.0,-676.0,10000.0,9245.0,9082.0,-6.0,1.0,-2.0,-1.0,1.0,-1.0,-6.0,-4.0,0.6832473278045654
229,77.0,44.0,12.0,0.0,-676.0,10000.0,9245.0,9082.0,-2.0,-13.0,-2.0,2.0,-4.0,4.0,4.0,1.0,0.6863150596618652
230,77.0,44.0,12.0,0.0,-676.0,10000.0,9245.0,9082.0,2.0,4.0,-17.0,1.0,6.0,2.0,6.0,3.0,0.70455002784729
231,131.0,49.0,-12.0,0.0,-696.0,9995.0,9260.0,9071.0,2.0,4.0,-17.0,1.0,6.0,2.0,6.0,3.0,0.7082266807556152
232,131.0,49.0,-12.0,0.0,-696.0,9995.0,9260.0,9071.0,5.0,-21.0,-2.0,0.0,-8.0,-6.0,-1.0,1.0,0.7128429412841797
233,131.0,49.0,-12.0,0.0,-696.0,9995.0,9260.0,9071.0,15.0,2.0,-17.0,-8.0,-6.0,-3.0,-2.0,1.0,0.7171962261199951
234,163.0,42.0,-31.0,0.0,-714.0,9987.0,9280.0,9057.0,15.0,2.0,-17.0,-8.0,-6.0,-3.0,-2.0,1.0,0.7189702987670898
235,163.0,42.0,-31.0,0.0,-714.0,9987.0,9280.0,9057.0,-6.0,11.0,3.0,-3.0,-7.0,-5.0,-2.0,-5.0,0.7244405746459961
236,163.0,42.0,-31.0,0.0,-714.0,9987.0,9280.0,9057.0,-1.0,1.0,9.0,0.0,3.0,-3.0,1.0,-1.0,0.7421112060546875
237,149.0,32.0,-32.0,0.0,-726.0,9979.0,9302.0,9043.0,-1.0,1.0,9.0,0.0,3.0,-3.0,1.0,-1.0,0.7469577789306641
238,149.0,32.0,-32.0,0.0,-726.0,9979.0,9302.0,9043.0,1.0,-5.0,-3.0,-2.0,-7.0,-3.0,1.0,0.0,0.7508001327514648
239,149.0,32.0,-32.0,0.0,-726.0,9979.0,9302.0,9043.0,-7.0,-19.0,-15.0,-9.0,-2.0,3.0,-9.0,-6.0,0.7652168273925781
240,102.0,43.0,-36.0,0.0,-734.0,9970.0,9318.0,9037.0,-7.0,-19.0,-15.0,-9.0,-2.0,3.0,-9.0,-6.0,0.7689177989959717
241,102.0,43.0,-36.0,0.0,-734.0,9970.0,9318.0,9037.0,-17.0,-39.0,1.0,3.0,1.0,-1.0,-8.0,2.0,0.7727067470550537
242,102.0,43.0,-36.0,0.0,-734.0,9970.0,9318.0,9037.0,23.0,21.0,-50.0,-2.0,6.0,4.0,0.0,3.0,0.7774991989135742
243,128.0,51.0,-17.0,0.0,-752.0,9964.0,9333.0,9026.0,23.0,21.0,-50.0,-2.0,6.0,4.0,0.0,3.0,0.7801094055175781
244,128.0,51.0,-17.0,0.0,-752.0,9964.0,9333.0,9026.0,6.0,21.0,2.0,-5.0,2.0,-2.0,0.0,-2.0,0.7842938899993896
245,128.0,51.0,-17.0,0.0,-752.0,9964.0,9333.0,9026.0,-16.0,-3.0,31.0,2.0,2.0,1.0,-2.0,-2.0,0.8012905120849609
246,160.0,55.0,-17.0,0.0,-775.0,9956.0,9349.0,9015.0,-16.0,-3.0,31.0,2.0,2.0,1.0,-2.0,-2.0,0.8044416904449463
247,160.0,55.0,-17.0,0.0,-775.0,9956.0,9349.0,9015.0,-6.0,0.0,-8.0,1.0,5.0,2.0,1.0,-4.0,0.8077480792999268
248,160.0,55.0,-17.0,0.0,-775.0,9956.0,9349.0,9015.0,-2.0,0.0,16.0,3.0,0.0,-1.0,2.0,-1.0,0.8235049247741699
249,186.0,87.0,-18.0,0.0,-804.0,9946.0,9369.0,9004.0,-2.0,0.0,16.0,3.0,0.0,-1.0,2.0,-1.0,0.8256480693817139
250,186.0,87.0,-18.0,0.0,-804.0,9946.0,9369.0,9004.0,0.0,10.0,24.0,-3.0,-1.0,-1.0,5.0,2.0,0.8289868831634521
251,186.0,87.0,-18.0,0.0,-804.0,9946.0,9369.0,9004.0,-16.0,-27.0,9.0,2.0,1.0,-4.0,-5.0,-3.0,0.8372211456298828
252,224.0,131.0,-18.0,0.0,-831.0,9928.0,9398.0,8990.0,-16.0,-27.0,9.0,2.0,1.0,-4.0,-5.0,-3.0,0.8390440940856934
253,224.0,131.0,-18.0,0.0,-831.0,9928.0,9398.0,8990.0,11.0,-7.0,-12.0,4.0,3.0,-2.0,-2.0,1.0,0.8445439338684082
254,224.0,131.0,-18.0,0.0,-831.0,9928.0,9398.0,8990.0,-10.0,15.0,-3.0,-4.0,-5.0,-2.0,-4.0,-3.0,0.8618021011352539
255,175.0,170.0,11.0,0.0,-858.0,9911.0,9422.0,8982.0,-10.0,15.0,-3.0,-4.0,-5.0,-2.0,-4.0,-3.0,0.8650674819946289
256,175.0,170.0,11.0,0.0,-858.0,9911.0,9422.0,8982.0,9.0,-2.0,0.0,3.0,3.0,0.0,4.0,0.0,0.8677256107330322
257,175.0,170.0,11.0,0.0,-858.0,9911.0,9422.0,8982.0,-3.0,-19.0,3.0,-2.0,1.0,-4.0,4.0,2.0,0.8837919235229492
258,103.0,176.0,50.0,0.0,-885.0,9898.0,9432.0,8983.0,-3.0,-19.0,3.0,-2.0,1.0,-4.0,4.0,2.0,0.8883588314056396
259,103.0,176.0,50.0,0.0,-885.0,9898.0,9432.0,8983.0,-6.0,2.0,-23.0,-10.0,-4.0,-2.0,-3.0,-1.0,0.8922581672668457
260,103.0,176.0,50.0,0.0,-885.0,9898.0,9432.0,8983.0,-7.0,-6.0,4.0,0.0,-3.0,-1.0,0.0,-2.0,0.8973047733306885
261,57.0,166.0,71.0,0.0,-918.0,9892.0,9428.0,8990.0,-7.0,-6.0,4.0,0.0,-3.0,-1.0,0.0,-2.0,0.8990967273712158
262,57.0,166.0,71.0,0.0,-918.0,9892.0,9428.0,8990.0,-2.0,-3.0,7.0,7.0,-3.0,-2.0,-3.0,-1.0,0.9044463634490967
263,57.0,166.0,71.0,0.0,-918.0,9892.0,9428.0,8990.0,1.0,1.0,3.0,-3.0,-11.0,1.0,7.0,-1.0,0.9204339981079102
264,127.0,142.0,44.0,0.0,-956.0,9883.0,9431.0,8993.0,1.0,1.0,3.0,-3.0,-11.0,1.0,7.0,-1.0,0.9223217964172363
265,127.0,142.0,44.0,0.0,-956.0,9883.0,9431.0,8993.0,-19.0,-21.0,0.0,2.0,5.0,2.0,-4.0,-4.0,0.9253792762756348
266,127.0,142.0,44.0,0.0,-956.0,9883.0,9431.0,8993.0,4.0,-11.0,-33.0,-5.0,4.0,-3.0,-7.0,-1.0,0.9440724849700928
267,182.0,117.0,16.0,0.0,-990.0,9869.0,9444.0,8991.0,4.0,-11.0,-33.0,-5.0,4.0,-3.0,-7.0,-1.0,0.9484915733337402
268,182.0,117.0,16.0,0.0,-990.0,9869.0,9444.0,8991.0,-2.0,0.0,-1.0,-8.0,-9.0,-2.0,2.0,-3.0,0.9519171714782715
269,182.0,117.0,16.0,0.0,-990.0,9869.0,9444.0,8991.0,1.0,-6.0,-9.0,-1.0,-1.0,-1.0,-1.0,1.0,0.9574069976806641
270,190.0,91.0,5.0,0.0,-1014.0,9855.0,9464.0,8983.0,1.0,-6.0,-9.0,-1.0,-1.0,-1.0,-1.0,1.0,0.9592013359069824
271,190.0,91.0,5.0,0.0,-1014.0,9855.0,9464.0,8983.0,4.0,3.0,-7.0,0.0,-6.0,0.0,-5.0,0.0,0.964141845703125
272,190.0,91.0,5.0,0.0,-1014.0,9855.0,9464.0,8983.0,-7.0,-3.0,19.0,-2.0,-17.0,-9.0,-8.0,-2.0,0.9822390079498291
273,99.0,71.0,60.0,0.0,-1028.0,9848.0,9470.0,8983.0,-7.0,-3.0,19.0,-2.0,-17.0,-9.0,-8.0,-2.0,0.9854369163513184
274,99.0,71.0,60.0,0.0,-1028.0,9848.0,9470.0,8983.0,1.0,2.0,-14.0,5.0,5.0,4.0,7.0,2.0,0.9880852699279785
275,99.0,71.0,60.0,0.0,-1028.0,9848.0,9470.0,8983.0,7.0,5.0,-3.0,0.0,12.0,6.0,2.0,1.0,1.0028252601623535
276,-44.0,75.0,140.0,0.0,-1043.0,9853.0,9450.0,8997.0,7.0,5.0,-3.0,0.0,12.0,6.0,2.0,1.0,1.0045795440673828
277,-44.0,75.0,140.0,0.0,-1043.0,9853.0,9450.0,8997.0,2.0,-12.0,6.0,2.0,8.0,2.0,5.0,4.0,1.0066657066345215
278,-44.0,75.0,140.0,0.0,-1043.0,9853.0,9450.0,8997.0,1.0,-33.0,6.0,4.0,3.0,-1.0,-3.0,0.0,1.017099380493164
279,2.0,76.0,170.0,0.0,-1076.0,9862.0,9424.0,9010.0,1.0,-33.0,6.0,4.0,3.0,-1.0,-3.0,0.0,1.0188798904418945
280,2.0,76.0,170.0,0.0,-1076.0,9862.0,9424.0,9010.0,-3.0,2.0,-5.0,-2.0,5.0,2.0,-3.0,-4.0,1.0246407985687256
281,2.0,76.0,170.0,0.0,-1076.0,9862.0,9424.0,9010.0,-14.0,-4.0,-7.0,-3.0,-4.0,-6.0,2.0,-5.0,1.0436701774597168
282,115.0,31.0,178.0,0.0,-1118.0,9871.0,9404.0,9016.0,-14.0,-4.0,-7.0,-3.0,-4.0,-6.0,2.0,-5.0,1.0483205318450928
283,115.0,31.0,178.0,0.0,-1118.0,9871.0,9404.0,9016.0,4.0,9.0,-11.0,-4.0,1.0,-2.0,-3.0,-2.0,1.051546335220337
284,115.0,31.0,178.0,0.0,-1118.0,9871.0,9404.0,9016.0,-6.0,5.0,4.0,0.0,1.0,1.0,-6.0,-2.0,1.0635545253753662
285,157.0,16.0,161.0,0.0,-1152.0,9871.0,9393.0,9023.0,-6.0,5.0,4.0,0.0,1.0,1.0,-6.0,-2.0,1.0670642852783203
286,157.0,16.0,161.0,0.0,-1152.0,9871.0,9393.0,9023.0,0.0,11.0,-35.0,-10.0,-6.0,-12.0,-18.0,-5.0,1.0718576908111572
287,157.0,16.0,161.0,0.0,-1152.0,9871.0,9393.0,9023.0,8.0,26.0,25.0,2.0,-2.0,3.0,7.0,0.0,1.0776619911193848
288,85.0,29.0,78.0,0.0,-1157.0,9858.0,9392.0,9037.0,8.0,26.0,25.0,2.0,-2.0,3.0,7.0,0.0,1.0800673961639404
289,85.0,29.0,78.0,0.0,-1157.0,9858.0,9392.0,9037.0,0.0,-7.0,22.0,-3.0,-7.0,-3.0,0.0,1.0,1.0838422775268555
290,85.0,29.0,78.0,0.0,-1157.0,9858.0,9392.0,9037.0,11.0,41.0,22.0,9.0,7.0,0.0,-9.0,-1.0,1.101172924041748
291,19.0,31.0,-15.0,0.0,-1138.0,9833.0,9400.0,9060.0,11.0,41.0,22.0,9.0,7.0,0.0,-9.0,-1.0,1.1043572425842285
292,19.0,31.0,-15.0,0.0,-1138.0,9833.0,9400.0,9060.0,14.0,31.0,23.0,-11.0,-16.0,3.0,2.0,2.0,1.1080403327941895
293,19.0,31.0,-15.0,0.0,-1138.0,9833.0,9400.0,9060.0,11.0,5.0,-13.0,-24.0,-6.0,-3.0,10.0,9.0,1.124302864074707
294,-164.0,33.0,-139.0,0.0,-1089.0,9794.0,9399.0,9107.0,11.0,5.0,-13.0,-24.0,-6.0,-3.0,10.0,9.0,1.1280183792114258
295,-164.0,33.0,-139.0,0.0,-1089.0,9794.0,9399.0,9107.0,5.0,25.0,6.0,-1.0,25.0,3.0,-7.0,-1.0,1.13250732421875
296,-164.0,33.0,-139.0,0.0,-1089.0,9794.0,9399.0,9107.0,-8.0,-1.0,-6.0,10.0,5.0,7.0,10.0,0.0,1.1372835636138916
297,-145.0,17.0,-396.0,0.0,-1018.0,9730.0,9423.0,9159.0,-8.0,-1.0,-6.0,10.0,5.0,7.0,10.0,0.0,1.1391675472259521
298,-145.0,17.0,-396.0,0.0,-1018.0,9730.0,9423.0,9159.0,1.0,-12.0,0.0,7.0,-6.0,13.0,18.0,6.0,1.1451337337493896
299,-145.0,17.0,-396.0,0.0,-1018.0,9730.0,9423.0,9159.0,2.0,4.0,0.0,-2.0,-6.0,6.0,-10.0,-2.0,1.1608638763427734
300,119.0,-56.0,-676.0,0.0,-922.0,9635.0,9514.0,9177.0,2.0,4.0,0.0,-2.0,-6.0,6.0,-10.0,-2.0,1.1660528182983398
301,119.0,-56.0,-676.0,0.0,-922.0,9635.0,9514.0,9177.0,-18.0,-21.0,-4.0,-3.0,-1.0,-15.0,-10.0,-11.0,1.1687564849853516
302,119.0,-56.0,-676.0,0.0,-922.0,9635.0,9514.0,9177.0,-12.0,1.0,10.0,-5.0,-4.0,3.0,5.0,-1.0,1.1836395263671875
303,259.0,-8.0,-1000.0,0.0,-802.0,9489.0,9653.0,9194.0,-12.0,1.0,10.0,-5.0,-4.0,3.0,5.0,-1.0,1.1870806217193604
304,259.0,-8.0,-1000.0,0.0,-802.0,9489.0,9653.0,9194.0,-7.0,-7.0,-11.0,18.0,22.0,5.0,8.0,4.0,1.190807819366455
305,259.0,-8.0,-1000.0,0.0,-802.0,9489.0,9653.0,9194.0,22.0,11.0,-56.0,-14.0,-24.0,1.0,9.0,7.0,1.1980230808258057
306,181.0,49.0,-1184.0,0.0,-653.0,9309.0,9799.0,9236.0,22.0,11.0,-56.0,-14.0,-24.0,1.0,9.0,7.0,1.2047922611236572
307,181.0,49.0,-1184.0,0.0,-653.0,9309.0,9799.0,9236.0,-2.0,-27.0,-4.0,-4.0,-23.0,-16.0,-15.0,-6.0,1.2067084312438965
308,181.0,49.0,-1184.0,0.0,-653.0,9309.0,9799.0,9236.0,-10.0,-42.0,-4.0,-9.0,-45.0,-18.0,-14.0,-13.0,1.2205898761749268
309,-162.0,-9.0,-1365.0,0.0,-428.0,9106.0,9931.0,9310.0,-10.0,-42.0,-4.0,-9.0,-45.0,-18.0,-14.0,-13.0,1.224621057510376
310,-162.0,-9.0,-1365.0,0.0,-428.0,9106.0,9931.0,9310.0,4.0,-5.0,6.0,0.0,-2.0,0.0,6.0,3.0,1.2289602756500244
311,-162.0,-9.0,-1365.0,0.0,-428.0,9106.0,9931.0,9310.0,-11.0,-28.0,-3.0,-12.0,13.0,-3.0,-16.0,-4.0,1.2441518306732178
312,-630.0,-48.0,-1530.0,0.0,-114.0,8880.0,10039.0,9422.0,-11.0,-28.0,-3.0,-12.0,13.0,-3.0,-16.0,-4.0,1.2482554912567139
313,-630.0,-48.0,-1530.0,0.0,-114.0,8880.0,10039.0,9422.0,-10.0,-16.0,10.0,-2.0,-5.0,-10.0,-17.0,-7.0,1.2521114349365234
314,-630.0,-48.0,-1530.0,0.0,-114.0,8880.0,10039.0,9422.0,12.0,-7.0,14.0,-9.0,7.0,-2.0,7.0,1.0,1.2582604885101318
315,-951.0,2.0,-1712.0,0.0,176.0,8675.0,10110.0,9535.0,12.0,-7.0,14.0,-9.0,7.0,-2.0,7.0,1.0,1.264768123626709
316,-951.0,2.0,-1712.0,0.0,176.0,8675.0,10110.0,9535.0,-10.0,28.0,11.0,13.0,6.0,3.0,14.0,0.0,1.2669403553009033
317,-951.0,2.0,-1712.0,0.0,176.0,8675.0,10110.0,9535.0,-2.0,-2.0,21.0,33.0,4.0,4.0,6.0,4.0,1.2802951335906982
318,-1005.0,52.0,-2007.0,0.0,491.0,8428.0,10193.0,9655.0,-2.0,-2.0,21.0,33.0,4.0,4.0,6.0,4.0,1.2835261821746826
319,-1005.0,52.0,-2007.0,0.0,491.0,8428.0,10193.0,9655.0,4.0,27.0,19.0,-7.0,-25.0,-2.0,13.0,0.0,1.2884984016418457
320,-1005.0,52.0,-2007.0,0.0,491.0,8428.0,10193.0,9655.0,-6.0,24.0,-18.0,9.0,10.0,-1.0,0.0,-4.0,1.304025650024414
321,-1206.0,73.0,-2255.0,0.0,847.0,8146.0,10271.0,9789.0,-6.0,24.0,-18.0,9.0,10.0,-1.0,0.0,-4.0,1.3081715106964111
322,-1206.0,73.0,-2255.0,0.0,847.0,8146.0,10271.0,9789.0,2.0,-2.0,-4.0,-2.0,9.0,5.0,-1.0,0.0,1.3122847080230713
323,-1206.0,73.0,-2255.0,0.0,847.0,8146.0,10271.0,9789.0,5.0,15.0,-9.0,-3.0,2.0,-6.0,-3.0,0.0,1.3171274662017822
324,-1589.0,44.0,-2633.0,0.0,1276.0,7818.0,10332.0,9945.0,5.0,15.0,-9.0,-3.0,2.0,-6.0,-3.0,0.0,1.3247451782226562
325,-1589.0,44.0,-2633.0,0.0,1276.0,7818.0,10332.0,9945.0,-9.0,-3.0,-8.0,-19.0,-14.0,-3.0,-13.0,-7.0,1.3267300128936768
326,-1589.0,44.0,-2633.0,0.0,1276.0,7818.0,10332.0,9945.0,-1.0,-10.0,-2.0,7.0,7.0,-1.0,-5.0,0.0,1.3407831192016602
327,-1862.0,95.0,-2887.0,0.0,1742.0,7446.0,10370.0,10119.0,-1.0,-10.0,-2.0,7.0,7.0,-1.0,-5.0,0.0,1.3439981937408447
328,-1862.0,95.0,-2887.0,0.0,1742.0,7446.0,10370.0,10119.0,0.0,-13.0,-5.0,-2.0,6.0,3.0,6.0,3.0,1.3473036289215088
329,-1862.0,95.0,-2887.0,0.0,1742.0,7446.0,10370.0,10119.0,4.0,0.0,-9.0,1.0,11.0,3.0,-2.0,1.0,1.3651912212371826
330,-1988.0,149.0,-3173.0,0.0,2235.0,7026.0,10402.0,10288.0,4.0,0.0,-9.0,1.0,11.0,3.0,-2.0,1.0,1.3689789772033691
331,-1988.0,149.0,-3173.0,0.0,2235.0,7026.0,10402.0,10288.0,4.0,0.0,-9.0,1.0,11.0,3.0,-2.0,1.0,1.372927188873291
332,-1988.0,149.0,-3173.0,0.0,2235.0,7026.0,10402.0,10288.0,-2.0,-2.0,-8.0,7.0,4.0,2.0,1.0,1.0,1.3856933116912842
333,-1988.0,149.0,-3173.0,0.0,2235.0,7026.0,10402.0,10288.0,-9.0,1.0,6.0,-5.0,-1.0,0.0,2.0,-3.0,1.3888356685638428
334,-2125.0,134.0,-3411.0,0.0,2757.0,6572.0,10420.0,10442.0,-9.0,1.0,6.0,-5.0,-1.0,0.0,2.0,-3.0,1.3923883438110352
335,-2125.0,134.0,-3411.0,0.0,2757.0,6572.0,10420.0,10442.0,-11.0,-35.0,-9.0,3.0,0.0,0.0,-7.0,-2.0,1.3972082138061523
336,-2125.0,134.0,-3411.0,0.0,2757.0,6572.0,10420.0,10442.0,5.0,5.0,14.0,4.0,1.0,-2.0,3.0,4.0,1.3993453979492188
337,-2323.0,12.0,-3760.0,0.0,3335.0,6077.0,10416.0,10576.0,5.0,5.0,14.0,4.0,1.0,-2.0,3.0,4.0,1.4012010097503662
338,-2323.0,12.0,-3760.0,0.0,3335.0,6077.0,10416.0,10576.0,7.0,9.0,1.0,3.0,5.0,3.0,3.0,0.0,1.4069538116455078
339,-2323.0,12.0,-3760.0,0.0,3335.0,6077.0,10416.0,10576.0,-1.0,-2.0,1.0,4.0,1.0,-4.0,-2.0,-4.0,1.4239726066589355
340,-2545.0,-63.0,-4010.0,0.0,3951.0,5547.0,10376.0,10694.0,-1.0,-2.0,1.0,4.0,1.0,-4.0,-2.0,-4.0,1.4278438091278076
341,-2545.0,-63.0,-4010.0,0.0,3951.0,5547.0,10376.0,10694.0,3.0,13.0,-3.0,0.0,-1.0,-2.0,-2.0,0.0,1.4308042526245117
342,-2545.0,-63.0,-4010.0,0.0,3951.0,5547.0,10376.0,10694.0,-10.0,-24.0,-1.0,-5.0,-1.0,-1.0,-4.0,1.0,1.4368045330047607
343,-3010.0,61.0,-4077.0,0.0,4571.0,4966.0,10268.0,10836.0,-10.0,-24.0,-1.0,-5.0,-1.0,-1.0,-4.0,1.0,1.4462804794311523
344,-3010.0,61.0,-4077.0,0.0,4571.0,4966.0,10268.0,10836.0,9.0,2.0,3.0,-1.0,2.0,0.0,-2.0,-1.0,1.4484081268310547
345,-3010.0,61.0,-4077.0,0.0,4571.0,4966.0,10268.0,10836.0,1.0,5.0,14.0,3.0,5.0,2.0,7.0,1.0,1.4598801136016846
346,-3302.0,168.0,-4159.0,0.0,5185.0,4339.0,10108.0,10978.0,1.0,5.0,14.0,3.0,5.0,2.0,7.0,1.0,1.4617323875427246
347,-3302.0,168.0,-4159.0,0.0,5185.0,4339.0,10108.0,10978.0,16.0,17.0,-1.0,0.0,2.0,1.0,3.0,3.0,1.467618465423584
348,-3302.0,168.0,-4159.0,0.0,5185.0,4339.0,10108.0,10978.0,-7.0,-6.0,7.0,-1.0,-2.0,0.0,-3.0,-6.0,1.4836399555206299
349,-3136.0,248.0,-4251.0,0.0,5779.0,3688.0,9943.0,11070.0,-7.0,-6.0,7.0,-1.0,-2.0,0.0,-3.0,-6.0,1.486701488494873
350,-3136.0,248.0,-4251.0,0.0,5779.0,3688.0,9943.0,11070.0,-2.0,-6.0,-4.0,-8.0,-3.0,-2.0,-3.0,0.0,1.490006446838379
351,-3136.0,248.0,-4251.0,0.0,5779.0,3688.0,9943.0,11070.0,-3.0,-3.0,-3.0,3.0,-1.0,2.0,2.0,-5.0,1.4967319965362549
352,-2750.0,281.0,-4252.0,0.0,6340.0,3040.0,9797.0,11089.0,-3.0,-3.0,-3.0,3.0,-1.0,2.0,2.0,-5.0,1.5057296752929688
353,-2750.0,281.0,-4252.0,0.0,6340.0,3040.0,9797.0,11089.0,-3.0,5.0,13.0,7.0,0.0,2.0,-1.0,-3.0,1.5077238082885742
354,-2750.0,281.0,-4252.0,0.0,6340.0,3040.0,9797.0,11089.0,8.0,9.0,-3.0,-9.0,-4.0,-2.0,4.0,3.0,1.5196127891540527
355,-2685.0,293.0,-4186.0,0.0,6872.0,2393.0,9634.0,11074.0,8.0,9.0,-3.0,-9.0,-4.0,-2.0,4.0,3.0,1.521451473236084
356,-2685.0,293.0,-4186.0,0.0,6872.0,2393.0,9634.0,11074.0,8.0,9.0,-3.0,-9.0,-4.0,-2.0,4.0,3.0,1.5269660949707031
357,-2685.0,293.0,-4186.0,0.0,6872.0,2393.0,9634.0,11074.0,-5.0,-10.0,10.0,0.0,-4.0,-3.0,-2.0,0.0,1.5449047088623047
358,-2685.0,293.0,-4186.0,0.0,6872.0,2393.0,9634.0,11074.0,0.0,1.0,11.0,4.0,0.0,0.0,-5.0,0.0,1.547530174255371
359,-2720.0,319.0,-4141.0,0.0,7379.0,1738.0,9436.0,11040.0,0.0,1.0,11.0,4.0,0.0,0.0,-5.0,0.0,1.5493061542510986
360,-2720.0,319.0,-4141.0,0.0,7379.0,1738.0,9436.0,11040.0,0.0,-14.0,-27.0,-3.0,2.0,2.0,2.0,0.0,1.5512688159942627
361,-2720.0,319.0,-4141.0,0.0,7379.0,1738.0,9436.0,11040.0,-5.0,6.0,6.0,8.0,2.0,0.0,-2.0,-6.0,1.566735029220581
362,-2582.0,333.0,-4230.0,0.0,7875.0,1073.0,9232.0,10955.0,-5.0,6.0,6.0,8.0,2.0,0.0,-2.0,-6.0,1.5689330101013184
363,-2582.0,333.0,-4230.0,0.0,7875.0,1073.0,9232.0,10955.0,2.0,2.0,1.0,-2.0,-1.0,0.0,-6.0,0.0,1.5708069801330566
364,-2582.0,333.0,-4230.0,0.0,7875.0,1073.0,9232.0,10955.0,-3.0,-20.0,-24.0,-3.0,0.0,-1.0,0.0,5.0,1.5805399417877197
365,-2375.0,452.0,-4214.0,0.0,8336.0,405.0,9037.0,10821.0,-3.0,-20.0,-24.0,-3.0,0.0,-1.0,0.0,5.0,1.5873613357543945
366,-2375.0,452.0,-4214.0,0.0,8336.0,405.0,9037.0,10821.0,4.0,-1.0,11.0,-2.0,-1.0,-3.0,-4.0,-2.0,1.589341163635254
367,-2375.0,452.0,-4214.0,0.0,8336.0,405.0,9037.0,10821.0,12.0,37.0,35.0,0.0,-2.0,-4.0,3.0,3.0,1.6037566661834717
368,-1972.0,393.0,-4264.0,0.0,8784.0,-227.0,8863.0,10614.0,12.0,37.0,35.0,0.0,-2.0,-4.0,3.0,3.0,1.6073224544525146
369,-1972.0,393.0,-4264.0,0.0,8784.0,-227.0,8863.0,10614.0,-4.0,-4.0,-23.0,-15.0,-4.0,1.0,2.0,-2.0,1.6118190288543701
370,-1972.0,393.0,-4264.0,0.0,8784.0,-227.0,8863.0,10614.0,-7.0,-10.0,14.0,9.0,3.0,2.0,-6.0,-3.0,1.626225471496582
371,-1898.0,141.0,-4421.0,0.0,9252.0,-838.0,8650.0,10358.0,-7.0,-10.0,14.0,9.0,3.0,2.0,-6.0,-3.0,1.6292388439178467
372,-1898.0,141.0,-4421.0,0.0,9252.0,-838.0,8650.0,10358.0,5.0,3.0,-8.0,-5.0,-2.0,-2.0,-4.0,-2.0,1.632267951965332
373,-1898.0,141.0,-4421.0,0.0,9252.0,-838.0,8650.0,10358.0,-24.0,-38.0,-21.0,-12.0,-5.0,-3.0,-2.0,-7.0,1.6399321556091309
374,-2161.0,146.0,-4352.0,0.0,9683.0,-1469.0,8387.0,10107.0,-24.0,-38.0,-21.0,-12.0,-5.0,-3.0,-2.0,-7.0,1.6418170928955078
375,-2161.0,146.0,-4352.0,0.0,9683.0,-1469.0,8387.0,10107.0,-1.0,5.0,-8.0,11.0,3.0,1.0,2.0,0.0,1.646942377090454
376,-2161.0,146.0,-4352.0,0.0,9683.0,-1469.0,8387.0,10107.0,-13.0,-15.0,12.0,1.0,-3.0,-2.0,0.0,-5.0,1.6641767024993896
377,-1998.0,330.0,-4298.0,0.0,10072.0,-2096.0,8133.0,9819.0,-13.0,-15.0,12.0,1.0,-3.0,-2.0,0.0,-5.0,1.6672279834747314
378,-1998.0,330.0,-4298.0,0.0,10072.0,-2096.0,8133.0,9819.0,-7.0,-9.0,6.0,-2.0,4.0,1.0,2.0,-4.0,1.6703498363494873
379,-1998.0,330.0,-4298.0,0.0,10072.0,-2096.0,8133.0,9819.0,-1.0,-10.0,9.0,5.0,-4.0,-2.0,-3.0,0.0,1.6873445510864258
380,-1804.0,426.0,-4292.0,0.0,10432.0,-2714.0,7890.0,9485.0,-1.0,-10.0,9.0,5.0,-4.0,-2.0,-3.0,0.0,1.6925745010375977
381,-1804.0,426.0,-4292.0,0.0,10432.0,-2714.0,7890.0,9485.0,-3.0,-9.0,4.0,-5.0,4.0,-1.0,-4.0,-1.0,1.6970233917236328
382,-1804.0,426.0,-4292.0,0.0,10432.0,-2714.0,7890.0,9485.0,-9.0,-9.0,15.0,4.0,11.0,-2.0,1.0,-2.0,1.699007511138916
383,-1540.0,276.0,-4149.0,0.0,10776.0,-3271.0,7637.0,9125.0,-9.0,-9.0,15.0,4.0,11.0,-2.0,1.0,-2.0,1.7008421421051025
384,-1540.0,276.0,-4149.0,0.0,10776.0,-3271.0,7637.0,9125.0,2.0,6.0,-4.0,13.0,35.0,18.0,3.0,-1.0,1.7070164680480957
385,-1540.0,276.0,-4149.0,0.0,10776.0,-3271.0,7637.0,9125.0,9.0,18.0,-14.0,-11.0,-15.0,-7.0,-3.0,1.0,1.7236778736114502
386,-1450.0,177.0,-4029.0,0.0,11095.0,-3791.0,7367.0,8756.0,9.0,18.0,-14.0,-11.0,-15.0,-7.0,-3.0,1.0,1.7267749309539795
387,-1450.0,177.0,-4029.0,0.0,11095.0,-3791.0,7367.0,8756.0,12.0,50.0,-11.0,4.0,4.0,1.0,3.0,5.0,1.731217622756958
388,-1450.0,177.0,-4029.0,0.0,11095.0,-3791.0,7367.0,8756.0,8.0,-9.0,-10.0,3.0,5.0,5.0,1.0,-3.0,1.7455434799194336
389,-1659.0,41.0,-3861.0,0.0,11381.0,-4304.0,7046.0,8410.0,8.0,-9.0,-10.0,3.0,5.0,5.0,1.0,-3.0,1.7474205493927002
390,-1659.0,41.0,-3861.0,0.0,11381.0,-4304.0,7046.0,8410.0,-5.0,-5.0,12.0,8.0,3.0,2.0,-6.0,-4.0,1.7504119873046875
391,-1659.0,41.0,-3861.0,0.0,11381.0,-4304.0,7046.0,8410.0,9.0,45.0,-14.0,-24.0,-47.0,-20.0,-6.0,-1.0,1.7600502967834473
392,-1913.0,237.0,-3770.0,0.0,11611.0,-4856.0,6707.0,8064.0,9.0,45.0,-14.0,-24.0,-47.0,-20.0,-6.0,-1.0,1.7629203796386719
393,-1913.0,237.0,-3770.0,0.0,11611.0,-4856.0,6707.0,8064.0,19.0,73.0,-6.0,-10.0,-21.0,-22.0,-12.0,1.0,1.76676344871521
394,-1913.0,237.0,-3770.0,0.0,11611.0,-4856.0,6707.0,8064.0,10.0,29.0,-53.0,-8.0,10.0,7.0,-5.0,-2.0,1.7839949131011963
395,-2054.0,168.0,-3450.0,0.0,11790.0,-5396.0,6345.0,7749.0,10.0,29.0,-53.0,-8.0,10.0,7.0,-5.0,-2.0,1.785792350769043
396,-2054.0,168.0,-3450.0,0.0,11790.0,-5396.0,6345.0,7749.0,20.0,-30.0,-67.0,7.0,15.0,20.0,26.0,12.0,1.7886247634887695
397,-2054.0,168.0,-3450.0,0.0,11790.0,-5396.0,6345.0,7749.0,-7.0,-12.0,-7.0,-22.0,-15.0,-37.0,-10.0,-4.0,1.8053042888641357
398,-2204.0,230.0,-3065.0,0.0,11901.0,-5941.0,5981.0,7465.0,-7.0,-12.0,-7.0,-22.0,-15.0,-37.0,-10.0,-4.0,1.8083722591400146
399,-2204.0,230.0,-3065.0,0.0,11901.0,-5941.0,5981.0,7465.0,-14.0,-71.0,32.0,-6.0,3.0,-2.0,-4.0,-2.0,1.8130922317504883
400,-2204.0,230.0,-3065.0,0.0,11901.0,-5941.0,5981.0,7465.0,-10.0,-44.0,33.0,14.0,-16.0,-11.0,-2.0,-1.0,1.8201484680175781
401,-1680.0,516.0,-2278.0,0.0,11938.0,-6346.0,5761.0,7241.0,-10.0,-44.0,33.0,14.0,-16.0,-11.0,-2.0,-1.0,1.8219969272613525
402,-1680.0,516.0,-2278.0,0.0,11938.0,-6346.0,5761.0,7241.0,-22.0,11.0,33.0,7.0,48.0,24.0,16.0,-5.0,1.8271031379699707
403,-1680.0,516.0,-2278.0,0.0,11938.0,-6346.0,5761.0,7241.0,27.0,40.0,-2.0,-44.0,-35.0,-26.0,-10.0,-3.0,1.8460566997528076
404,-1240.0,885.0,-1501.0,0.0,11912.0,-6670.0,5673.0,7061.0,27.0,40.0,-2.0,-44.0,-35.0,-26.0,-10.0,-3.0,1.84946608543396
405,-1240.0,885.0,-1501.0,0.0,11912.0,-6670.0,5673.0,7061.0,-11.0,31.0,-23.0,-25.0,-87.0,-13.0,2.0,-8.0,1.8522071838378906
406,-1240.0,885.0,-1501.0,0.0,11912.0,-6670.0,5673.0,7061.0,-3.0,-21.0,-11.0,14.0,-68.0,60.0,60.0,13.0,1.8653168678283691
407,-691.0,1103.0,-780.0,0.0,11852.0,-6892.0,5706.0,6921.0,-3.0,-21.0,-11.0,14.0,-68.0,60.0,60.0,13.0,1.8678650856018066
408,-691.0,1103.0,-780.0,0.0,11852.0,-6892.0,5706.0,6921.0,8.0,2.0,15.0,8.0,22.0,-16.0,-35.0,27.0,1.8715877532958984
409,-691.0,1103.0,-780.0,0.0,11852.0,-6892.0,5706.0,6921.0,-23.0,-12.0,-19.0,-11.0,-15.0,59.0,51.0,0.0,1.8813433647155762
410,-575.0,939.0,299.0,0.0,11727.0,-7018.0,5806.0,6924.0,-23.0,-12.0,-19.0,-11.0,-15.0,59.0,51.0,0.0,1.8843469619750977
411,-575.0,939.0,299.0,0.0,11727.0,-7018.0,5806.0,6924.0,-3.0,-40.0,17.0,-6.0,-67.0,-30.0,-14.0,5.0,1.887467384338379
412,-862.0,883.0,1438.0,0.0,11592.0,-7214.0,5772.0,6978.0,-3.0,-40.0,17.0,-6.0,-67.0,-30.0,-14.0,5.0,1.904461145401001
413,-862.0,883.0,1438.0,0.0,11592.0,-7214.0,5772.0,6978.0,29.0,13.0,6.0,8.0,72.0,1.0,-15.0,0.0,1.9089059829711914
414,-862.0,883.0,1438.0,0.0,11592.0,-7214.0,5772.0,6978.0,-13.0,-6.0,59.0,9.0,-11.0,-8.0,20.0,-7.0,1.9136650562286377
415,-1019.0,576.0,2354.0,0.0,11291.0,-7236.0,5950.0,7292.0,-13.0,-6.0,59.0,9.0,-11.0,-8.0,20.0,-7.0,1.925612449645996
416,-1019.0,576.0,2354.0,0.0,11291.0,-7236.0,5950.0,7292.0,-3.0,-4.0,-7.0,27.0,90.0,40.0,-31.0,5.0,1.9288275241851807
417,-1019.0,576.0,2354.0,0.0,11291.0,-7236.0,5950.0,7292.0,-8.0,-16.0,-24.0,-9.0,-75.0,-36.0,-43.0,-24.0,1.9322388172149658
418,-1005.0,74.0,3676.0,0.0,10924.0,-7164.0,6126.0,7761.0,-8.0,-16.0,-24.0,-9.0,-75.0,-36.0,-43.0,-24.0,1.939878225326538
419,-1005.0,74.0,3676.0,0.0,10924.0,-7164.0,6126.0,7761.0,7.0,-5.0,10.0,13.0,45.0,-43.0,-33.0,8.0,1.9549071788787842
420,-1005.0,74.0,3676.0,0.0,10924.0,-7164.0,6126.0,7761.0,16.0,12.0,17.0,12.0,69.0,10.0,14.0,14.0,1.9576408863067627
421,-823.0,-432.0,4697.0,0.0,10501.0,-6939.0,6323.0,8369.0,16.0,12.0,17.0,12.0,69.0,10.0,14.0,14.0,1.963892936706543
422,-823.0,-432.0,4697.0,0.0,10501.0,-6939.0,6323.0,8369.0,-5.0,22.0,13.0,25.0,-12.0,-44.0,53.0,14.0,1.9672486782073975
423,-823.0,-432.0,4697.0,0.0,10501.0,-6939.0,6323.0,8369.0,-24.0,-25.0,-22.0,-3.0,29.0,88.0,90.0,-10.0,1.9691240787506104
424,-399.0,-968.0,5630.0,0.0,10022.0,-6526.0,6561.0,9074.0,-24.0,-25.0,-22.0,-3.0,29.0,88.0,90.0,-10.0,1.9854683876037598
425,-399.0,-968.0,5630.0,0.0,10022.0,-6526.0,6561.0,9074.0,18.0,3.0,-6.0,-5.0,-13.0,11.0,-31.0,3.0,1.9873452186584473
426,-399.0,-968.0,5630.0,0.0,10022.0,-6526.0,6561.0,9074.0,61.0,21.0,-12.0,15.0,27.0,26.0,-13.0,9.0,1.989353895187378
427,172.0,-1574.0,6111.0,0.0,9532.0,-5917.0,6807.0,9808.0,61.0,21.0,-12.0,15.0,27.0,26.0,-13.0,9.0,1.9992854595184326
428,172.0,-1574.0,6111.0,0.0,9532.0,-5917.0,6807.0,9808.0,-11.0,21.0,8.0,-3.0,-17.0,-2.0,-22.0,-23.0,2.0084781646728516
429,172.0,-1574.0,6111.0,0.0,9532.0,-5917.0,6807.0,9808.0,-30.0,-15.0,15.0,-2.0,-4.0,-38.0,13.0,-9.0,2.012382745742798
430,973.0,-1920.0,6581.0,0.0,9010.0,-5104.0,7111.0,10517.0,-30.0,-15.0,15.0,-2.0,-4.0,-38.0,13.0,-9.0,2.024489641189575
431,973.0,-1920.0,6581.0,0.0,9010.0,-5104.0,7111.0,10517.0,3.0,-13.0,-6.0,-3.0,-22.0,-63.0,-21.0,-17.0,2.0301623344421387
432,973.0,-1920.0,6581.0,0.0,9010.0,-5104.0,7111.0,10517.0,-8.0,12.0,-13.0,-33.0,-14.0,-18.0,-16.0,-27.0,2.033947229385376
433,1911.0,-2223.0,6585.0,0.0,8507.0,-4138.0,7456.0,11106.0,-8.0,12.0,-13.0,-33.0,-14.0,-18.0,-16.0,-27.0,2.0460541248321533
434,1911.0,-2223.0,6585.0,0.0,8507.0,-4138.0,7456.0,11106.0,32.0,-8.0,2.0,3.0,12.0,30.0,2.0,25.0,2.047964572906494
435,1911.0,-2223.0,6585.0,0.0,8507.0,-4138.0,7456.0,11106.0,32.0,-8.0,2.0,3.0,12.0,30.0,2.0,25.0,2.049738645553589
436,1911.0,-2223.0,6585.0,0.0,8507.0,-4138.0,7456.0,11106.0,-21.0,-55.0,-12.0,-10.0,8.0,-17.0,-38.0,1.0,2.060730457305908
437,2708.0,-2521.0,5777.0,0.0,8112.0,-3102.0,7789.0,11503.0,-21.0,-55.0,-12.0,-10.0,8.0,-17.0,-38.0,1.0,2.0634617805480957
438,2708.0,-2521.0,5777.0,0.0,8112.0,-3102.0,7789.0,11503.0,52.0,11.0,-5.0,10.0,9.0,-17.0,-1.0,2.0,2.066974401473999
439,2708.0,-2521.0,5777.0,0.0,8112.0,-3102.0,7789.0,11503.0,-60.0,-49.0,-19.0,17.0,27.0,6.0,-32.0,-13.0,2.068760395050049
440,3256.0,-2054.0,6431.0,0.0,7564.0,-2003.0,8206.0,11826.0,-60.0,-49.0,-19.0,17.0,27.0,6.0,-32.0,-13.0,2.083906888961792
441,3256.0,-2054.0,6431.0,0.0,7564.0,-2003.0,8206.0,11826.0,57.0,27.0,2.0,30.0,3.0,-31.0,-46.0,-4.0,2.087484836578369
442,3256.0,-2054.0,6431.0,0.0,7564.0,-2003.0,8206.0,11826.0,83.0,14.0,-52.0,-42.0,-26.0,-23.0,-12.0,9.0,2.091883897781372
443,3176.0,-1820.0,5782.0,0.0,7031.0,-986.0,8568.0,12025.0,83.0,14.0,-52.0,-42.0,-26.0,-23.0,-12.0,9.0,2.1054887771606445
444,3176.0,-1820.0,5782.0,0.0,7031.0,-986.0,8568.0,12025.0,-63.0,-42.0,-8.0,-21.0,48.0,69.0,51.0,-11.0,2.1088707447052
445,3176.0,-1820.0,5782.0,0.0,7031.0,-986.0,8568.0,12025.0,12.0,51.0,40.0,-33.0,-22.0,-6.0,0.0,5.0,2.1121726036071777
446,4163.0,-1844.0,3940.0,0.0,6716.0,-56.0,8996.0,11932.0,12.0,51.0,40.0,-33.0,-22.0,-6.0,0.0,5.0,2.12015700340271
447,4163.0,-1844.0,3940.0,0.0,6716.0,-56.0,8996.0,11932.0,-10.0,-31.0,-21.0,-39.0,-17.0,-75.0,-37.0,5.0,2.1279146671295166
448,4163.0,-1844.0,3940.0,0.0,6716.0,-56.0,8996.0,11932.0,-30.0,4.0,52.0,75.0,95.0,65.0,28.0,8.0,2.130310535430908
449,3984.0,-1635.0,3449.0,0.0,6419.0,785.0,9380.0,11773.0,-30.0,4.0,52.0,75.0,95.0,65.0,28.0,8.0,2.143719434738159
450,3984.0,-1635.0,3449.0,0.0,6419.0,785.0,9380.0,11773.0,-64.0,4.0,44.0,76.0,49.0,42.0,66.0,4.0,2.1469976902008057
451,3984.0,-1635.0,3449.0,0.0,6419.0,785.0,9380.0,11773.0,58.0,32.0,12.0,7.0,-33.0,-13.0,-2.0,22.0,2.1504905223846436
452,3158.0,-1227.0,2773.0,0.0,6154.0,1446.0,9665.0,11620.0,58.0,32.0,12.0,7.0,-33.0,-13.0,-2.0,22.0,2.166840076446533
453,3158.0,-1227.0,2773.0,0.0,6154.0,1446.0,9665.0,11620.0,22.0,-1.0,-32.0,-28.0,-53.0,-6.0,-29.0,-17.0,2.1699819564819336
454,3158.0,-1227.0,2773.0,0.0,6154.0,1446.0,9665.0,11620.0,-22.0,-31.0,-65.0,-61.0,-40.0,-50.0,16.0,-4.0,2.173116683959961
455,2782.0,-552.0,1818.0,0.0,5918.0,1911.0,9959.0,11426.0,-22.0,-31.0,-65.0,-61.0,-40.0,-50.0,16.0,-4.0,2.1795742511749268
456,2782.0,-552.0,1818.0,0.0,5918.0,1911.0,9959.0,11426.0,-46.0,-67.0,-42.0,-19.0,-36.0,-29.0,2.0,5.0,2.18733286857605
457,2782.0,-552.0,1818.0,0.0,5918.0,1911.0,9959.0,11426.0,9.0,18.0,25.0,9.0,10.0,0.0,-14.0,-3.0,2.189159631729126
458,2661.0,-284.0,1836.0,0.0,5660.0,2316.0,10231.0,11240.0,9.0,18.0,25.0,9.0,10.0,0.0,-14.0,-3.0,2.2028276920318604
459,2661.0,-284.0,1836.0,0.0,5660.0,2316.0,10231.0,11240.0,-28.0,16.0,19.0,35.0,17.0,23.0,18.0,-25.0,2.204709768295288
460,2661.0,-284.0,1836.0,0.0,5660.0,2316.0,10231.0,11240.0,-3.0,51.0,19.0,-19.0,25.0,37.0,21.0,-8.0,2.2067458629608154
461,2169.0,-168.0,1969.0,0.0,5386.0,2683.0,10423.0,11116.0,-3.0,51.0,19.0,-19.0,25.0,37.0,21.0,-8.0,2.2262439727783203
462,2169.0,-168.0,1969.0,0.0,5386.0,2683.0,10423.0,11116.0,16.0,38.0,55.0,45.0,86.0,127.0,89.0,10.0,2.2300562858581543
463,2169.0,-168.0,1969.0,0.0,5386.0,2683.0,10423.0,11116.0,-41.0,-64.0,-29.0,-48.0,-92.0,-87.0,-50.0,-27.0,2.2330245971679688
464,1213.0,114.0,1990.0,0.0,5116.0,2942.0,10505.0,11100.0,-41.0,-64.0,-29.0,-48.0,-92.0,-87.0,-50.0,-27.0,2.239224910736084
465,1213.0,114.0,1990.0,0.0,5116.0,2942.0,10505.0,11100.0,65.0,53.0,48.0,-5.0,16.0,60.0,19.0,9.0,2.24808669090271
466,1213.0,114.0,1990.0,0.0,5116.0,2942.0,10505.0,11100.0,-32.0,-39.0,-17.0,58.0,10.0,-35.0,-6.0,0.0,2.2512595653533936
467,740.0,266.0,1515.0,0.0,4912.0,3091.0,10526.0,11132.0,-32.0,-39.0,-17.0,58.0,10.0,-35.0,-6.0,0.0,2.2656145095825195
468,740.0,266.0,1515.0,0.0,4912.0,3091.0,10526.0,11132.0,-12.0,-13.0,3.0,-35.0,-5.0,22.0,-16.0,6.0,2.269162178039551
469,740.0,266.0,1515.0,0.0,4912.0,3091.0,10526.0,11132.0,0.0,45.0,27.0,-3.0,25.0,54.0,21.0,-1.0,2.272761821746826
470,1156.0,285.0,1543.0,0.0,4610.0,3343.0,10594.0,11125.0,0.0,45.0,27.0,-3.0,25.0,54.0,21.0,-1.0,2.285658597946167
471,1156.0,285.0,1543.0,0.0,4610.0,3343.0,10594.0,11125.0,-23.0,-10.0,-25.0,-56.0,-88.0,-62.0,-7.0,3.0,2.2888569831848145
472,1156.0,285.0,1543.0,0.0,4610.0,3343.0,10594.0,11125.0,-31.0,-27.0,-4.0,14.0,39.0,54.0,8.0,-1.0,2.2925045490264893
473,1231.0,349.0,1614.0,0.0,4321.0,3555.0,10702.0,11071.0,-31.0,-27.0,-4.0,14.0,39.0,54.0,8.0,-1.0,2.2998483180999756
474,1231.0,349.0,1614.0,0.0,4321.0,3555.0,10702.0,11071.0,2.0,35.0,-5.0,11.0,4.0,-32.0,-15.0,6.0,2.307805299758911
475,1231.0,349.0,1614.0,0.0,4321.0,3555.0,10702.0,11071.0,51.0,33.0,-12.0,5.0,1.0,10.0,1.0,-1.0,2.3102848529815674
476,912.0,417.0,1391.0,0.0,4084.0,3692.0,10806.0,11014.0,51.0,33.0,-12.0,5.0,1.0,10.0,1.0,-1.0,2.3237268924713135
477,912.0,417.0,1391.0,0.0,4084.0,3692.0,10806.0,11014.0,9.0,-6.0,30.0,7.0,-50.0,-47.0,-28.0,2.0,2.327063798904419
478,912.0,417.0,1391.0,0.0,4084.0,3692.0,10806.0,11014.0,-25.0,-33.0,-5.0,-34.0,-33.0,-7.0,-3.0,-3.0,2.3302001953125
479,657.0,300.0,1346.0,0.0,3837.0,3867.0,10844.0,11006.0,-25.0,-33.0,-5.0,-34.0,-33.0,-7.0,-3.0,-3.0,2.3472940921783447
480,657.0,300.0,1346.0,0.0,3837.0,3867.0,10844.0,11006.0,-20.0,-25.0,-27.0,-37.0,-27.0,-61.0,-19.0,-10.0,2.3508522510528564
481,657.0,300.0,1346.0,0.0,3837.0,3867.0,10844.0,11006.0,7.0,16.0,14.0,13.0,12.0,12.0,-22.0,17.0,2.3542044162750244
482,707.0,459.0,1489.0,0.0,3541.0,4049.0,10880.0,11004.0,7.0,16.0,14.0,13.0,12.0,12.0,-22.0,17.0,2.359368324279785
483,707.0,459.0,1489.0,0.0,3541.0,4049.0,10880.0,11004.0,-12.0,-20.0,-13.0,1.0,40.0,-5.0,-28.0,-12.0,2.369389057159424
484,707.0,459.0,1489.0,0.0,3541.0,4049.0,10880.0,11004.0,-2.0,5.0,-11.0,-3.0,-3.0,-16.0,8.0,0.0,2.3728957176208496
485,418.0,390.0,1214.0,0.0,3349.0,4144.0,10910.0,11000.0,-2.0,5.0,-11.0,-3.0,-3.0,-16.0,8.0,0.0,2.382200002670288
486,418.0,390.0,1214.0,0.0,3349.0,4144.0,10910.0,11000.0,-26.0,-48.0,-69.0,-20.0,18.0,19.0,-1.0,-6.0,2.384169340133667
487,418.0,390.0,1214.0,0.0,3349.0,4144.0,10910.0,11000.0,28.0,46.0,-5.0,14.0,23.0,14.0,5.0,7.0,2.3894894123077393
488,-60.0,200.0,798.0,0.0,3227.0,4217.0,10879.0,11039.0,28.0,46.0,-5.0,14.0,23.0,14.0,5.0,7.0,2.4054014682769775
489,-60.0,200.0,798.0,0.0,3227.0,4217.0,10879.0,11039.0,-12.0,-18.0,-20.0,4.0,-10.0,16.0,2.0,-5.0,2.4082894325256348
490,-60.0,200.0,798.0,0.0,3227.0,4217.0,10879.0,11039.0,18.0,29.0,25.0,15.0,6.0,9.0,24.0,4.0,2.4122049808502197
491,-72.0,172.0,650.0,0.0,3093.0,4308.0,10829.0,11092.0,18.0,29.0,25.0,15.0,6.0,9.0,24.0,4.0,2.419212818145752
492,-72.0,172.0,650.0,0.0,3093.0,4308.0,10829.0,11092.0,-19.0,-3.0,8.0,15.0,-16.0,13.0,-1.0,-2.0,2.4295053482055664
493,-72.0,172.0,650.0,0.0,3093.0,4308.0,10829.0,11092.0,-3.0,-14.0,13.0,25.0,3.0,7.0,-4.0,-4.0,2.4335272312164307
494,212.0,138.0,565.0,0.0,2978.0,4389.0,10864.0,11057.0,-3.0,-14.0,13.0,25.0,3.0,7.0,-4.0,-4.0,2.442209005355835
495,212.0,138.0,565.0,0.0,2978.0,4389.0,10864.0,11057.0,10.0,10.0,14.0,21.0,21.0,-8.0,1.0,7.0,2.4451706409454346
496,212.0,138.0,565.0,0.0,2978.0,4389.0,10864.0,11057.0,-9.0,5.0,13.0,23.0,-34.0,-26.0,-12.0,6.0,2.448857069015503
497,244.0,88.0,372.0,0.0,2918.0,4428.0,10920.0,11002.0,-9.0,5.0,13.0,23.0,-34.0,-26.0,-12.0,6.0,2.4663519859313965
498,244.0,88.0,372.0,0.0,2918.0,4428.0,10920.0,11002.0,6.0,36.0,31.0,4.0,-22.0,13.0,-9.0,-2.0,2.469686269760132
499,244.0,88.0,372.0,0.0,2918.0,4428.0,10920.0,11002.0,1.0,-5.0,-46.0,0.0,12.0,10.0,10.0,-8.0,2.4728972911834717
