,Gyro 0,Gyro 1,Gyro 2,Label,Orientation 0,Orientation 1,Orientation 2,Orientation 3,Sensor 0,Sensor 1,Sensor 2,Sensor 3,Sensor 4,Sensor 5,Sensor 6,Sensor 7,Timestamp
0,-79.0,-137.0,22.0,0.0,191.0,10641.0,8424.0,9175.0,5.0,31.0,2.0,-2.0,-5.0,-2.0,-3.0,3.0,1.9073486328125e-06
1,-79.0,-137.0,22.0,0.0,191.0,10641.0,8424.0,9175.0,-11.0,0.0,9.0,0.0,0.0,-3.0,-3.0,-6.0,0.0023736953735351562
2,-79.0,-137.0,22.0,0.0,191.0,10641.0,8424.0,9175.0,-6.0,-16.0,1.0,2.0,-2.0,-1.0,1.0,-6.0,0.0049059391021728516
3,-161.0,-119.0,35.0,0.0,215.0,10652.0,8399.0,9184.0,-6.0,-16.0,1.0,2.0,-2.0,-1.0,1.0,-6.0,0.00916600227355957
4,-161.0,-119.0,35.0,0.0,215.0,10652.0,8399.0,9184.0,-15.0,-28.0,-22.0,4.0,5.0,0.0,0.0,-1.0,0.011559247970581055
5,-161.0,-119.0,35.0,0.0,215.0,10652.0,8399.0,9184.0,1.0,20.0,5.0,-5.0,0.0,-1.0,0.0,0.0,0.013567209243774414
6,-219.0,-95.0,50.0,0.0,238.0,10668.0,8368.0,9193.0,1.0,20.0,5.0,-5.0,0.0,-1.0,0.0,0.0,0.015575647354125977
7,-219.0,-95.0,50.0,0.0,238.0,10668.0,8368.0,9193.0,8.0,20.0,25.0,-1.0,-1.0,1.0,-6.0,3.0,0.017673254013061523
8,-219.0,-95.0,50.0,0.0,238.0,10668.0,8368.0,9193.0,-15.0,-38.0,9.0,3.0,-1.0,2.0,0.0,-1.0,0.020621061325073242
9,-166.0,-89.0,74.0,0.0,244.0,10690.0,8335.0,9198.0,-15.0,-38.0,9.0,3.0,-1.0,2.0,0.0,-1.0,0.024143218994140625
10,-166.0,-89.0,74.0,0.0,244.0,10690.0,8335.0,9198.0,14.0,-11.0,-12.0,2.0,-4.0,-2.0,1.0,2.0,0.026360273361206055
11,-166.0,-89.0,74.0,0.0,244.0,10690.0,8335.0,9198.0,-1.0,-6.0,3.0,4.0,1.0,0.0,5.0,-3.0,0.02813577651977539
12,-91.0,-99.0,108.0,0.0,242.0,10715.0,8308.0,9193.0,-1.0,-6.0,3.0,4.0,1.0,0.0,5.0,-3.0,0.0299069881439209
13,-91.0,-99.0,108.0,0.0,242.0,10715.0,8308.0,9193.0,-14.0,4.0,4.0,2.0,-1.0,0.0,-10.0,-2.0,0.03176522254943848
14,-91.0,-99.0,108.0,0.0,242.0,10715.0,8308.0,9193.0,-2.0,5.0,-23.0,-9.0,-20.0,-7.0,2.0,-1.0,0.033538818359375
15,-30.0,-91.0,73.0,0.0,239.0,10734.0,8293.0,9184.0,-2.0,5.0,-23.0,-9.0,-20.0,-7.0,2.0,-1.0,0.035576820373535156
16,-30.0,-91.0,73.0,0.0,239.0,10734.0,8293.0,9184.0,3.0,-6.0,4.0,-10.0,-10.0,-9.0,-5.0,0.0,0.03745579719543457
17,-30.0,-91.0,73.0,0.0,239.0,10734.0,8293.0,9184.0,2.0,-12.0,10.0,2.0,0.0,1.0,2.0,2.0,0.039240121841430664
18,19.0,-73.0,36.0,0.0,243.0,10745.0,8293.0,9172.0,2.0,-12.0,10.0,2.0,0.0,1.0,2.0,2.0,0.04102015495300293
19,19.0,-73.0,36.0,0.0,243.0,10745.0,8293.0,9172.0,1.0,13.0,25.0,-5.0,-13.0,-6.0,-4.0,-2.0,0.04290199279785156
20,19.0,-73.0,36.0,0.0,243.0,10745.0,8293.0,9172.0,6.0,-29.0,3.0,3.0,15.0,-3.0,1.0,1.0,0.04469108581542969
21,29.0,-81.0,28.0,0.0,248.0,10753.0,8295.0,9161.0,6.0,-29.0,3.0,3.0,15.0,-3.0,1.0,1.0,0.046477317810058594
22,29.0,-81.0,28.0,0.0,248.0,10753.0,8295.0,9161.0,-9.0,-1.0,-9.0,2.0,9.0,2.0,-7.0,-5.0,0.048451900482177734
23,29.0,-81.0,28.0,0.0,248.0,10753.0,8295.0,9161.0,-12.0,14.0,-2.0,1.0,15.0,5.0,2.0,0.0,0.05105876922607422
24,-19.0,-99.0,55.0,0.0,261.0,10765.0,8291.0,9149.0,-12.0,14.0,-2.0,1.0,15.0,5.0,2.0,0.0,0.0534977912902832
25,-19.0,-99.0,55.0,0.0,261.0,10765.0,8291.0,9149.0,4.0,-3.0,-20.0,-9.0,-11.0,-2.0,-3.0,1.0,0.056262969970703125
26,-19.0,-99.0,55.0,0.0,261.0,10765.0,8291.0,9149.0,-2.0,-10.0,-7.0,3.0,3.0,2.0,2.0,-2.0,0.05847597122192383
27,-32.0,-128.0,70.0,0.0,279.0,10781.0,8284.0,9136.0,-2.0,-10.0,-7.0,3.0,3.0,2.0,2.0,-2.0,0.06026482582092285
28,-32.0,-128.0,70.0,0.0,279.0,10781.0,8284.0,9136.0,2.0,8.0,10.0,-1.0,1.0,2.0,5.0,0.0,0.06212258338928223
29,-32.0,-128.0,70.0,0.0,279.0,10781.0,8284.0,9136.0,5.0,5.0,-9.0,-3.0,4.0,1.0,3.0,2.0,0.06389379501342773
30,-33.0,-153.0,59.0,0.0,305.0,10797.0,8283.0,9118.0,5.0,5.0,-9.0,-3.0,4.0,1.0,3.0,2.0,0.0656588077545166
31,-33.0,-153.0,59.0,0.0,305.0,10797.0,8283.0,9118.0,-11.0,-19.0,9.0,7.0,-1.0,-1.0,-2.0,-3.0,0.06751394271850586
32,-33.0,-153.0,59.0,0.0,305.0,10797.0,8283.0,9118.0,0.0,-11.0,-22.0,-5.0,-7.0,-6.0,1.0,-1.0,0.06957864761352539
33,-58.0,-154.0,87.0,0.0,339.0,10814.0,8280.0,9099.0,0.0,-11.0,-22.0,-5.0,-7.0,-6.0,1.0,-1.0,0.07137274742126465
34,-58.0,-154.0,87.0,0.0,339.0,10814.0,8280.0,9099.0,0.0,27.0,7.0,-1.0,6.0,2.0,-3.0,-5.0,0.07322382926940918
35,-58.0,-154.0,87.0,0.0,339.0,10814.0,8280.0,9099.0,-6.0,-14.0,9.0,-6.0,-11.0,-4.0,-7.0,3.0,0.0752108097076416
36,-130.0,-113.0,111.0,0.0,377.0,10831.0,8271.0,9085.0,-6.0,-14.0,9.0,-6.0,-11.0,-4.0,-7.0,3.0,0.0770411491394043
37,-130.0,-113.0,111.0,0.0,377.0,10831.0,8271.0,9085.0,-9.0,-21.0,3.0,-5.0,-9.0,2.0,1.0,-3.0,0.07890105247497559
38,-130.0,-113.0,111.0,0.0,377.0,10831.0,8271.0,9085.0,-11.0,23.0,-24.0,-4.0,-5.0,-2.0,1.0,-5.0,0.0812687873840332
39,-226.0,-59.0,138.0,0.0,413.0,10849.0,8248.0,9083.0,-11.0,23.0,-24.0,-4.0,-5.0,-2.0,1.0,-5.0,0.08378791809082031
40,-226.0,-59.0,138.0,0.0,413.0,10849.0,8248.0,9083.0,12.0,1.0,5.0,10.0,8.0,3.0,3.0,5.0,0.0859830379486084
41,-226.0,-59.0,138.0,0.0,413.0,10849.0,8248.0,9083.0,0.0,-7.0,2.0,0.0,-6.0,1.0,2.0,-2.0,0.08778119087219238
42,-187.0,-30.0,163.0,0.0,430.0,10872.0,8223.0,9078.0,0.0,-7.0,2.0,0.0,-6.0,1.0,2.0,-2.0,0.0903162956237793
43,-187.0,-30.0,163.0,0.0,430.0,10872.0,8223.0,9078.0,-1.0,-19.0,-2.0,6.0,12.0,4.0,-1.0,2.0,0.09265518188476562
44,-187.0,-30.0,163.0,0.0,430.0,10872.0,8223.0,9078.0,2.0,2.0,-2.0,-3.0,-1.0,-3.0,-7.0,-2.0,0.09452247619628906
45,-129.0,3.0,133.0,0.0,438.0,10889.0,8205.0,9074.0,2.0,2.0,-2.0,-3.0,-1.0,-3.0,-7.0,-2.0,0.09631538391113281
46,-129.0,3.0,133.0,0.0,438.0,10889.0,8205.0,9074.0,-5.0,14.0,-18.0,-5.0,11.0,-3.0,-6.0,-3.0,0.09819316864013672
47,-129.0,3.0,133.0,0.0,438.0,10889.0,8205.0,9074.0,13.0,8.0,13.0,6.0,6.0,-2.0,4.0,3.0,0.09997963905334473
48,-60.0,31.0,94.0,0.0,435.0,10902.0,8196.0,9066.0,13.0,8.0,13.0,6.0,6.0,-2.0,4.0,3.0,0.10202908515930176
49,-60.0,31.0,94.0,0.0,435.0,10902.0,8196.0,9066.0,-3.0,-15.0,-7.0,-1.0,0.0,-2.0,-2.0,-2.0,0.10390067100524902
50,-60.0,31.0,94.0,0.0,435.0,10902.0,8196.0,9066.0,15.0,22.0,4.0,-2.0,0.0,5.0,0.0,7.0,0.1056818962097168
51,-8.0,54.0,54.0,0.0,432.0,10908.0,8200.0,9056.0,15.0,22.0,4.0,-2.0,0.0,5.0,0.0,7.0,0.10749626159667969
52,-8.0,54.0,54.0,0.0,432.0,10908.0,8200.0,9056.0,6.0,8.0,0.0,1.0,2.0,0.0,1.0,0.0,0.10937786102294922
53,-8.0,54.0,54.0,0.0,432.0,10908.0,8200.0,9056.0,-17.0,-1.0,-22.0,0.0,-3.0,-4.0,-4.0,-7.0,0.1112818717956543
54,11.0,71.0,25.0,0.0,431.0,10910.0,8212.0,9042.0,-17.0,-1.0,-22.0,0.0,-3.0,-4.0,-4.0,-7.0,0.11361837387084961
55,11.0,71.0,25.0,0.0,431.0,10910.0,8212.0,9042.0,-3.0,0.0,-11.0,-5.0,-3.0,-2.0,0.0,-3.0,0.11581945419311523
56,11.0,71.0,25.0,0.0,431.0,10910.0,8212.0,9042.0,-2.0,-13.0,15.0,-4.0,-15.0,-8.0,-10.0,-3.0,0.1175985336303711
57,-23.0,89.0,8.0,0.0,436.0,10909.0,8225.0,9031.0,-2.0,-13.0,15.0,-4.0,-15.0,-8.0,-10.0,-3.0,0.11938929557800293
58,-23.0,89.0,8.0,0.0,436.0,10909.0,8225.0,9031.0,1.0,6.0,-15.0,-5.0,-13.0,-6.0,-7.0,2.0,0.12125444412231445
59,-23.0,89.0,8.0,0.0,436.0,10909.0,8225.0,9031.0,-8.0,-15.0,-2.0,1.0,5.0,0.0,1.0,1.0,0.12430357933044434
60,-75.0,133.0,-29.0,0.0,446.0,10901.0,8238.0,9028.0,-8.0,-15.0,-2.0,1.0,5.0,0.0,1.0,1.0,0.12620210647583008
61,-75.0,133.0,-29.0,0.0,446.0,10901.0,8238.0,9028.0,-4.0,-12.0,2.0,0.0,-4.0,2.0,0.0,-1.0,0.12807774543762207
62,-75.0,133.0,-29.0,0.0,446.0,10901.0,8238.0,9028.0,3.0,2.0,1.0,1.0,0.0,-1.0,-5.0,-4.0,0.12986421585083008
63,-12.0,162.0,-54.0,0.0,447.0,10889.0,8259.0,9023.0,3.0,2.0,1.0,1.0,0.0,-1.0,-5.0,-4.0,0.13165903091430664
64,-12.0,162.0,-54.0,0.0,447.0,10889.0,8259.0,9023.0,7.0,19.0,20.0,4.0,3.0,-1.0,-3.0,2.0,0.13351964950561523
65,-12.0,162.0,-54.0,0.0,447.0,10889.0,8259.0,9023.0,-7.0,3.0,0.0,-1.0,3.0,2.0,-1.0,0.0,0.13556432723999023
66,69.0,200.0,-91.0,0.0,440.0,10868.0,8292.0,9019.0,-7.0,3.0,0.0,-1.0,3.0,2.0,-1.0,0.0,0.1373600959777832
67,69.0,200.0,-91.0,0.0,440.0,10868.0,8292.0,9019.0,4.0,4.0,16.0,2.0,1.0,0.0,2.0,2.0,0.13921666145324707
68,69.0,200.0,-91.0,0.0,440.0,10868.0,8292.0,9019.0,-2.0,-14.0,4.0,3.0,13.0,4.0,4.0,-4.0,0.14098501205444336
69,159.0,220.0,-137.0,0.0,430.0,10838.0,8341.0,9010.0,-2.0,-14.0,4.0,3.0,13.0,4.0,4.0,-4.0,0.14329171180725098
70,159.0,220.0,-137.0,0.0,430.0,10838.0,8341.0,9010.0,-7.0,-20.0,-17.0,-11.0,-20.0,-5.0,-2.0,-2.0,0.14582324028015137
71,159.0,220.0,-137.0,0.0,430.0,10838.0,8341.0,9010.0,1.0,4.0,-9.0,-8.0,-19.0,-2.0,0.0,0.0,0.14763975143432617
72,231.0,220.0,-183.0,0.0,417.0,10802.0,8401.0,8999.0,1.0,4.0,-9.0,-8.0,-19.0,-2.0,0.0,0.0,0.1494154930114746
73,231.0,220.0,-183.0,0.0,417.0,10802.0,8401.0,8999.0,6.0,6.0,-8.0,-3.0,3.0,2.0,-3.0,-3.0,0.15129852294921875
74,231.0,220.0,-183.0,0.0,417.0,10802.0,8401.0,8999.0,-4.0,6.0,9.0,4.0,9.0,1.0,-2.0,0.0,0.15307354927062988
75,267.0,226.0,-150.0,0.0,397.0,10765.0,8459.0,8990.0,-4.0,6.0,9.0,4.0,9.0,1.0,-2.0,0.0,0.1549854278564453
76,267.0,226.0,-150.0,0.0,397.0,10765.0,8459.0,8990.0,7.0,-12.0,12.0,6.0,-9.0,-6.0,-3.0,-2.0,0.1581583023071289
77,267.0,226.0,-150.0,0.0,397.0,10765.0,8459.0,8990.0,-9.0,-14.0,-9.0,2.0,14.0,-3.0,-7.0,-4.0,0.1599581241607666
78,170.0,239.0,-95.0,0.0,381.0,10728.0,8498.0,8997.0,-9.0,-14.0,-9.0,2.0,14.0,-3.0,-7.0,-4.0,0.16173219680786133
79,170.0,239.0,-95.0,0.0,381.0,10728.0,8498.0,8997.0,-9.0,-18.0,-9.0,-4.0,-1.0,0.0,-4.0,-4.0,0.1636180877685547
80,170.0,239.0,-95.0,0.0,381.0,10728.0,8498.0,8997.0,6.0,-11.0,35.0,-1.0,12.0,1.0,4.0,4.0,0.16538572311401367
81,99.0,206.0,-79.0,0.0,369.0,10697.0,8524.0,9011.0,6.0,-11.0,35.0,-1.0,12.0,1.0,4.0,4.0,0.16715478897094727
82,99.0,206.0,-79.0,0.0,369.0,10697.0,8524.0,9011.0,9.0,26.0,-3.0,-5.0,-5.0,-7.0,-2.0,3.0,0.16926980018615723
83,99.0,206.0,-79.0,0.0,369.0,10697.0,8524.0,9011.0,-5.0,0.0,7.0,5.0,9.0,9.0,1.0,0.0,0.17107391357421875
84,145.0,184.0,-52.0,0.0,345.0,10669.0,8545.0,9024.0,-5.0,0.0,7.0,5.0,9.0,9.0,1.0,0.0,0.172957181930542
85,145.0,184.0,-52.0,0.0,345.0,10669.0,8545.0,9024.0,-2.0,-8.0,0.0,3.0,28.0,8.0,1.0,1.0,0.17547845840454102
86,145.0,184.0,-52.0,0.0,345.0,10669.0,8545.0,9024.0,-3.0,-18.0,-3.0,-7.0,-16.0,-2.0,-2.0,1.0,0.17751359939575195
87,155.0,193.0,-27.0,0.0,318.0,10643.0,8566.0,9036.0,-3.0,-18.0,-3.0,-7.0,-16.0,-2.0,-2.0,1.0,0.17929720878601074
88,155.0,193.0,-27.0,0.0,318.0,10643.0,8566.0,9036.0,2.0,12.0,-4.0,5.0,5.0,1.0,-4.0,-2.0,0.18117785453796387
89,155.0,193.0,-27.0,0.0,318.0,10643.0,8566.0,9036.0,-5.0,-1.0,8.0,-3.0,-14.0,-5.0,-5.0,2.0,0.18295955657958984
90,52.0,207.0,6.0,0.0,294.0,10619.0,8569.0,9062.0,-5.0,-1.0,8.0,-3.0,-14.0,-5.0,-5.0,2.0,0.1847527027130127
91,52.0,207.0,6.0,0.0,294.0,10619.0,8569.0,9062.0,-2.0,-34.0,16.0,1.0,-1.0,-4.0,2.0,1.0,0.18660283088684082
92,52.0,207.0,6.0,0.0,294.0,10619.0,8569.0,9062.0,-2.0,17.0,-24.0,-2.0,-2.0,-1.0,0.0,-6.0,0.18878912925720215
93,45.0,178.0,-42.0,0.0,266.0,10597.0,8570.0,9088.0,-2.0,17.0,-24.0,-2.0,-2.0,-1.0,0.0,-6.0,0.19148588180541992
94,45.0,178.0,-42.0,0.0,266.0,10597.0,8570.0,9088.0,-1.0,27.0,-17.0,-10.0,-6.0,-2.0,2.0,1.0,0.19335651397705078
95,45.0,178.0,-42.0,0.0,266.0,10597.0,8570.0,9088.0,-3.0,15.0,9.0,3.0,1.0,4.0,0.0,-1.0,0.1957089900970459
96,198.0,107.0,-109.0,0.0,232.0,10577.0,8591.0,9092.0,-3.0,15.0,9.0,3.0,1.0,4.0,0.0,-1.0,0.19768404960632324
97,198.0,107.0,-109.0,0.0,232.0,10577.0,8591.0,9092.0,2.0,26.0,8.0,-12.0,-4.0,-2.0,2.0,-3.0,0.19974446296691895
98,198.0,107.0,-109.0,0.0,232.0,10577.0,8591.0,9092.0,1.0,6.0,-15.0,-7.0,-7.0,-1.0,10.0,-2.0,0.20183420181274414
99,349.0,52.0,-135.0,0.0,194.0,10556.0,8633.0,9077.0,1.0,6.0,-15.0,-7.0,-7.0,-1.0,10.0,-2.0,0.20389676094055176
100,349.0,52.0,-135.0,0.0,194.0,10556.0,8633.0,9077.0,-2.0,-8.0,15.0,11.0,-3.0,3.0,5.0,0.0,0.20661354064941406
101,349.0,52.0,-135.0,0.0,194.0,10556.0,8633.0,9077.0,4.0,1.0,-12.0,5.0,6.0,0.0,-1.0,0.0,0.20861387252807617
102,377.0,10.0,-132.0,0.0,168.0,10537.0,8685.0,9052.0,4.0,1.0,-12.0,5.0,6.0,0.0,-1.0,0.0,0.2104346752166748
103,377.0,10.0,-132.0,0.0,168.0,10537.0,8685.0,9052.0,-10.0,-43.0,-31.0,-8.0,-15.0,-8.0,-8.0,-7.0,0.21229028701782227
104,377.0,10.0,-132.0,0.0,168.0,10537.0,8685.0,9052.0,5.0,4.0,-12.0,10.0,6.0,0.0,-4.0,2.0,0.21407604217529297
105,198.0,19.0,-85.0,0.0,166.0,10519.0,8720.0,9039.0,5.0,4.0,-12.0,10.0,6.0,0.0,-4.0,2.0,0.2158491611480713
106,198.0,19.0,-85.0,0.0,166.0,10519.0,8720.0,9039.0,-6.0,2.0,-10.0,0.0,-7.0,-6.0,-7.0,-2.0,0.21775031089782715
107,198.0,19.0,-85.0,0.0,166.0,10519.0,8720.0,9039.0,3.0,-18.0,9.0,6.0,-2.0,2.0,0.0,-3.0,0.21953845024108887
108,-102.0,62.0,-1.0,0.0,177.0,10512.0,8714.0,9052.0,3.0,-18.0,9.0,6.0,-2.0,2.0,0.0,-3.0,0.22131657600402832
109,-102.0,62.0,-1.0,0.0,177.0,10512.0,8714.0,9052.0,-3.0,-10.0,-11.0,2.0,5.0,7.0,4.0,4.0,0.2246870994567871
110,-102.0,62.0,-1.0,0.0,177.0,10512.0,8714.0,9052.0,6.0,13.0,-5.0,-2.0,5.0,4.0,1.0,0.0,0.22655749320983887
111,-175.0,73.0,27.0,0.0,175.0,10514.0,8689.0,9073.0,6.0,13.0,-5.0,-2.0,5.0,4.0,1.0,0.0,0.22834110260009766
112,-175.0,73.0,27.0,0.0,175.0,10514.0,8689.0,9073.0,-1.0,14.0,2.0,-2.0,1.0,-4.0,-8.0,0.0,0.2301948070526123
113,-175.0,73.0,27.0,0.0,175.0,10514.0,8689.0,9073.0,1.0,12.0,9.0,-3.0,-7.0,-5.0,-7.0,2.0,0.23319387435913086
114,-19.0,87.0,23.0,0.0,145.0,10516.0,8672.0,9088.0,1.0,12.0,9.0,-3.0,-7.0,-5.0,-7.0,2.0,0.23603558540344238
115,-19.0,87.0,23.0,0.0,145.0,10516.0,8672.0,9088.0,2.0,39.0,6.0,0.0,4.0,-1.0,1.0,-3.0,0.23899364471435547
116,-19.0,87.0,23.0,0.0,145.0,10516.0,8672.0,9088.0,-4.0,-19.0,6.0,-1.0,0.0,-2.0,3.0,0.0,0.2417745590209961
117,152.0,70.0,29.0,0.0,102.0,10513.0,8671.0,9093.0,-4.0,-19.0,6.0,-1.0,0.0,-2.0,3.0,0.0,0.24366354942321777
118,152.0,70.0,29.0,0.0,102.0,10513.0,8671.0,9093.0,-6.0,-18.0,-19.0,2.0,15.0,4.0,1.0,2.0,0.2455134391784668
119,152.0,70.0,29.0,0.0,102.0,10513.0,8671.0,9093.0,1.0,-5.0,2.0,-11.0,-8.0,-1.0,-2.0,-6.0,0.24733591079711914
120,212.0,22.0,1.0,0.0,70.0,10505.0,8682.0,9092.0,1.0,-5.0,2.0,-11.0,-8.0,-1.0,-2.0,-6.0,0.24911046028137207
121,212.0,22.0,1.0,0.0,70.0,10505.0,8682.0,9092.0,-1.0,-4.0,16.0,5.0,2.0,-1.0,3.0,-2.0,0.25099873542785645
122,212.0,22.0,1.0,0.0,70.0,10505.0,8682.0,9092.0,5.0,6.0,2.0,-1.0,-9.0,-2.0,2.0,3.0,0.2530348300933838
123,173.0,-14.0,-18.0,0.0,52.0,10497.0,8694.0,9090.0,5.0,6.0,2.0,-1.0,-9.0,-2.0,2.0,3.0,0.2548232078552246
124,173.0,-14.0,-18.0,0.0,52.0,10497.0,8694.0,9090.0,5.0,-7.0,8.0,2.0,-7.0,1.0,1.0,0.0,0.2566802501678467
125,173.0,-14.0,-18.0,0.0,52.0,10497.0,8694.0,9090.0,-2.0,-9.0,-7.0,-3.0,4.0,2.0,0.0,-3.0,0.2586181163787842
126,85.0,-20.0,-13.0,0.0,46.0,10491.0,8699.0,9092.0,-2.0,-9.0,-7.0,-3.0,4.0,2.0,0.0,-3.0,0.26045751571655273
127,85.0,-20.0,-13.0,0.0,46.0,10491.0,8699.0,9092.0,-2.0,-4.0,-2.0,0.0,0.0,-2.0,-4.0,-2.0,0.2623171806335449
128,85.0,-20.0,-13.0,0.0,46.0,10491.0,8699.0,9092.0,-8.0,-4.0,22.0,-3.0,-12.0,-4.0,0.0,1.0,0.26421380043029785
129,34.0,-8.0,28.0,0.0,36.0,10492.0,8694.0,9095.0,-8.0,-4.0,22.0,-3.0,-12.0,-4.0,0.0,1.0,0.2669353485107422
130,34.0,-8.0,28.0,0.0,36.0,10492.0,8694.0,9095.0,-6.0,-18.0,-15.0,-4.0,-2.0,2.0,-3.0,-1.0,0.2695939540863037
131,34.0,-8.0,28.0,0.0,36.0,10492.0,8694.0,9095.0,-9.0,-9.0,-6.0,0.0,-3.0,-6.0,3.0,1.0,0.27153515815734863
132,19.0,-6.0,74.0,0.0,26.0,10499.0,8687.0,9094.0,-9.0,-9.0,-6.0,0.0,-3.0,-6.0,3.0,1.0,0.27440953254699707
133,19.0,-6.0,74.0,0.0,26.0,10499.0,8687.0,9094.0,2.0,4.0,2.0,-4.0,-6.0,-4.0,-3.0,-7.0,0.2763059139251709
134,19.0,-6.0,74.0,0.0,26.0,10499.0,8687.0,9094.0,-3.0,-13.0,-12.0,0.0,16.0,2.0,-4.0,-4.0,0.27811336517333984
135,-41.0,-18.0,113.0,0.0,24.0,10511.0,8672.0,9095.0,-3.0,-13.0,-12.0,0.0,16.0,2.0,-4.0,-4.0,0.27988529205322266
136,-41.0,-18.0,113.0,0.0,24.0,10511.0,8672.0,9095.0,8.0,-2.0,1.0,4.0,8.0,6.0,-1.0,4.0,0.28172993659973145
137,-41.0,-18.0,113.0,0.0,24.0,10511.0,8672.0,9095.0,1.0,3.0,-12.0,0.0,-1.0,0.0,-4.0,0.0,0.2835357189178467
138,-88.0,-32.0,127.0,0.0,25.0,10528.0,8650.0,9097.0,1.0,3.0,-12.0,0.0,-1.0,0.0,-4.0,0.0,0.2857041358947754
139,-88.0,-32.0,127.0,0.0,25.0,10528.0,8650.0,9097.0,-4.0,6.0,-4.0,0.0,-1.0,-6.0,2.0,0.0,0.2876262664794922
140,-88.0,-32.0,127.0,0.0,25.0,10528.0,8650.0,9097.0,-10.0,-30.0,-9.0,-12.0,-7.0,-5.0,-6.0,-8.0,0.28940415382385254
141,-121.0,-36.0,140.0,0.0,25.0,10548.0,8622.0,9100.0,-10.0,-30.0,-9.0,-12.0,-7.0,-5.0,-6.0,-8.0,0.2912149429321289
142,-121.0,-36.0,140.0,0.0,25.0,10548.0,8622.0,9100.0,-9.0,-30.0,-11.0,-2.0,-3.0,0.0,0.0,2.0,0.29309701919555664
143,-121.0,-36.0,140.0,0.0,25.0,10548.0,8622.0,9100.0,6.0,1.0,-11.0,0.0,-1.0,-1.0,3.0,3.0,0.29488229751586914
144,-151.0,-15.0,134.0,0.0,21.0,10570.0,8590.0,9105.0,6.0,1.0,-11.0,0.0,-1.0,-1.0,3.0,3.0,0.29718565940856934
145,-151.0,-15.0,134.0,0.0,21.0,10570.0,8590.0,9105.0,-4.0,10.0,2.0,1.0,8.0,6.0,0.0,-1.0,0.29960155487060547
146,-22.0,13.0,129.0,0.0,-10.0,10592.0,8565.0,9103.0,-4.0,10.0,2.0,1.0,8.0,6.0,0.0,-1.0,0.3014369010925293
147,-22.0,13.0,129.0,0.0,-10.0,10592.0,8565.0,9103.0,4.0,-1.0,-2.0,-2.0,-6.0,-3.0,-10.0,3.0,0.3033120632171631
148,-22.0,13.0,129.0,0.0,-10.0,10592.0,8565.0,9103.0,-13.0,-12.0,10.0,5.0,-6.0,-4.0,-2.0,-1.0,0.3054506778717041
149,275.0,-18.0,104.0,0.0,-67.0,10609.0,8571.0,9077.0,-13.0,-12.0,10.0,5.0,-6.0,-4.0,-2.0,-1.0,0.3081200122833252
150,275.0,-18.0,104.0,0.0,-67.0,10609.0,8571.0,9077.0,0.0,27.0,19.0,4.0,-3.0,1.0,-3.0,-3.0,0.31000638008117676
151,275.0,-18.0,104.0,0.0,-67.0,10609.0,8571.0,9077.0,3.0,3.0,-5.0,-8.0,-4.0,-6.0,-6.0,3.0,0.31177186965942383
152,461.0,-53.0,85.0,0.0,-119.0,10619.0,8609.0,9029.0,3.0,3.0,-5.0,-8.0,-4.0,-6.0,-6.0,3.0,0.31354355812072754
153,461.0,-53.0,85.0,0.0,-119.0,10619.0,8609.0,9029.0,1.0,-14.0,-18.0,-1.0,-5.0,-3.0,-2.0,-1.0,0.3153982162475586
154,461.0,-53.0,85.0,0.0,-119.0,10619.0,8609.0,9029.0,-4.0,-25.0,-12.0,-3.0,-6.0,-7.0,-2.0,-5.0,0.3171682357788086
155,326.0,-99.0,87.0,0.0,-138.0,10628.0,8640.0,8988.0,-4.0,-25.0,-12.0,-3.0,-6.0,-7.0,-2.0,-5.0,0.3192460536956787
156,326.0,-99.0,87.0,0.0,-138.0,10628.0,8640.0,8988.0,-10.0,0.0,4.0,-1.0,-2.0,1.0,-8.0,2.0,0.32111668586730957
157,326.0,-99.0,87.0,0.0,-138.0,10628.0,8640.0,8988.0,24.0,54.0,17.0,1.0,5.0,6.0,3.0,6.0,0.32289862632751465
158,56.0,-114.0,119.0,0.0,-133.0,10646.0,8638.0,8968.0,24.0,54.0,17.0,1.0,5.0,6.0,3.0,6.0,0.3247237205505371
159,56.0,-114.0,119.0,0.0,-133.0,10646.0,8638.0,8968.0,-5.0,-11.0,-4.0,-6.0,0.0,0.0,-2.0,-2.0,0.32679295539855957
160,56.0,-114.0,119.0,0.0,-133.0,10646.0,8638.0,8968.0,-4.0,4.0,9.0,-7.0,-17.0,-4.0,-5.0,-2.0,0.32930517196655273
161,-84.0,-108.0,126.0,0.0,-120.0,10667.0,8619.0,8963.0,-4.0,4.0,9.0,-7.0,-17.0,-4.0,-5.0,-2.0,0.33138132095336914
162,-84.0,-108.0,126.0,0.0,-120.0,10667.0,8619.0,8963.0,14.0,43.0,5.0,-1.0,1.0,-3.0,-5.0,3.0,0.33324527740478516
163,-84.0,-108.0,126.0,0.0,-120.0,10667.0,8619.0,8963.0,-6.0,-4.0,-7.0,1.0,7.0,3.0,-5.0,0.0,0.33506011962890625
164,-89.0,-112.0,120.0,0.0,-106.0,10687.0,8598.0,8959.0,-6.0,-4.0,-7.0,1.0,7.0,3.0,-5.0,0.0,0.33684253692626953
165,-89.0,-112.0,120.0,0.0,-106.0,10687.0,8598.0,8959.0,-8.0,-17.0,-10.0,4.0,0.0,3.0,7.0,-1.0,0.3398754596710205
166,-89.0,-112.0,120.0,0.0,-106.0,10687.0,8598.0,8959.0,6.0,8.0,0.0,4.0,5.0,3.0,9.0,0.0,0.34201478958129883
167,-116.0,-125.0,155.0,0.0,-92.0,10710.0,8569.0,8959.0,6.0,8.0,0.0,4.0,5.0,3.0,9.0,0.0,0.3437995910644531
168,-116.0,-125.0,155.0,0.0,-92.0,10710.0,8569.0,8959.0,-10.0,-23.0,1.0,1.0,1.0,1.0,1.0,0.0,0.34578871726989746
169,-116.0,-125.0,155.0,0.0,-92.0,10710.0,8569.0,8959.0,-2.0,-17.0,4.0,5.0,6.0,2.0,-7.0,0.0,0.34760332107543945
170,-221.0,-91.0,137.0,0.0,-67.0,10727.0,8532.0,8974.0,-2.0,-17.0,4.0,5.0,6.0,2.0,-7.0,0.0,0.3493785858154297
171,-221.0,-91.0,137.0,0.0,-67.0,10727.0,8532.0,8974.0,6.0,11.0,5.0,6.0,11.0,1.0,-2.0,0.0,0.3515000343322754
172,-221.0,-91.0,137.0,0.0,-67.0,10727.0,8532.0,8974.0,0.0,-13.0,-5.0,-4.0,-10.0,-1.0,-3.0,-3.0,0.3533306121826172
173,-349.0,-61.0,78.0,0.0,-30.0,10740.0,8487.0,9002.0,0.0,-13.0,-5.0,-4.0,-10.0,-1.0,-3.0,-3.0,0.3551204204559326
174,-349.0,-61.0,78.0,0.0,-30.0,10740.0,8487.0,9002.0,7.0,24.0,-5.0,2.0,-9.0,-4.0,5.0,5.0,0.35709190368652344
175,-349.0,-61.0,78.0,0.0,-30.0,10740.0,8487.0,9002.0,6.0,2.0,-3.0,-1.0,3.0,3.0,0.0,2.0,0.35948872566223145
176,5.0,-22.0,-33.0,0.0,219.0,10737.0,8380.0,9103.0,6.0,2.0,-3.0,-1.0,3.0,3.0,0.0,2.0,0.361616849899292
177,5.0,-22.0,-33.0,0.0,219.0,10737.0,8380.0,9103.0,-3.0,1.0,-5.0,-3.0,-3.0,-5.0,1.0,3.0,0.36348724365234375
178,5.0,-22.0,-33.0,0.0,219.0,10737.0,8380.0,9103.0,2.0,-6.0,-4.0,6.0,2.0,-2.0,-1.0,-1.0,0.3652617931365967
179,-45.0,-27.0,-42.0,0.0,233.0,10735.0,8382.0,9103.0,2.0,-6.0,-4.0,6.0,2.0,-2.0,-1.0,-1.0,0.36825013160705566
180,-45.0,-27.0,-42.0,0.0,233.0,10735.0,8382.0,9103.0,-7.0,-17.0,-3.0,2.0,4.0,-4.0,-4.0,-3.0,0.37010693550109863
181,-45.0,-27.0,-42.0,0.0,233.0,10735.0,8382.0,9103.0,-3.0,-33.0,3.0,9.0,11.0,5.0,-1.0,-2.0,0.3727571964263916
182,-47.0,-10.0,-33.0,0.0,247.0,10732.0,8383.0,9105.0,-3.0,-33.0,3.0,9.0,11.0,5.0,-1.0,-2.0,0.38214659690856934
183,-47.0,-10.0,-33.0,0.0,247.0,10732.0,8383.0,9105.0,-1.0,-42.0,-5.0,-5.0,-11.0,-1.0,-4.0,1.0,0.39160799980163574
184,-47.0,-10.0,-33.0,0.0,247.0,10732.0,8383.0,9105.0,5.0,4.0,-22.0,-1.0,-4.0,-1.0,-1.0,-3.0,0.39468836784362793
185,-57.0,15.0,-14.0,0.0,258.0,10728.0,8382.0,9110.0,5.0,4.0,-22.0,-1.0,-4.0,-1.0,-1.0,-3.0,0.4083826541900635
186,-57.0,15.0,-14.0,0.0,258.0,10728.0,8382.0,9110.0,6.0,0.0,15.0,3.0,3.0,1.0,0.0,7.0,0.4107043743133545
187,-57.0,15.0,-14.0,0.0,258.0,10728.0,8382.0,9110.0,-6.0,-8.0,21.0,-1.0,0.0,-3.0,2.0,0.0,0.4124772548675537
188,-93.0,-8.0,-10.0,0.0,274.0,10727.0,8377.0,9115.0,-6.0,-8.0,21.0,-1.0,0.0,-3.0,2.0,0.0,0.42863941192626953
189,-93.0,-8.0,-10.0,0.0,274.0,10727.0,8377.0,9115.0,7.0,0.0,-8.0,-4.0,-2.0,-2.0,-1.0,2.0,0.43051624298095703
190,-93.0,-8.0,-10.0,0.0,274.0,10727.0,8377.0,9115.0,-8.0,-2.0,-2.0,-3.0,1.0,1.0,10.0,-7.0,0.4322974681854248
191,-72.0,-23.0,-10.0,0.0,283.0,10730.0,8371.0,9118.0,-8.0,-2.0,-2.0,-3.0,1.0,1.0,10.0,-7.0,0.44242191314697266
192,-72.0,-23.0,-10.0,0.0,283.0,10730.0,8371.0,9118.0,-7.0,7.0,-3.0,-10.0,1.0,1.0,-3.0,-2.0,0.4513688087463379
193,-72.0,-23.0,-10.0,0.0,283.0,10730.0,8371.0,9118.0,-2.0,4.0,-3.0,-4.0,-8.0,2.0,-5.0,-1.0,0.45393800735473633
194,-29.0,-9.0,-41.0,0.0,289.0,10729.0,8372.0,9117.0,-2.0,4.0,-3.0,-4.0,-8.0,2.0,-5.0,-1.0,0.46676039695739746
195,-29.0,-9.0,-41.0,0.0,289.0,10729.0,8372.0,9117.0,-7.0,6.0,2.0,-2.0,-5.0,-6.0,-3.0,-3.0,0.47075963020324707
196,-29.0,-9.0,-41.0,0.0,289.0,10729.0,8372.0,9117.0,0.0,0.0,-14.0,-3.0,-3.0,-1.0,-3.0,-1.0,0.47440338134765625
197,26.0,-6.0,-71.0,0.0,293.0,10724.0,8384.0,9112.0,0.0,0.0,-14.0,-3.0,-3.0,-1.0,-3.0,-1.0,0.4907069206237793
198,26.0,-6.0,-71.0,0.0,293.0,10724.0,8384.0,9112.0,12.0,9.0,-6.0,-2.0,4.0,4.0,2.0,-2.0,0.49430227279663086
199,26.0,-6.0,-71.0,0.0,293.0,10724.0,8384.0,9112.0,-6.0,-2.0,7.0,0.0,0.0,-1.0,1.0,-2.0,0.49744319915771484
200,32.0,-23.0,-87.0,0.0,297.0,10720.0,8396.0,9105.0,-6.0,-2.0,7.0,0.0,0.0,-1.0,1.0,-2.0,0.512256383895874
201,32.0,-23.0,-87.0,0.0,297.0,10720.0,8396.0,9105.0,-7.0,6.0,11.0,-2.0,-4.0,-3.0,-2.0,-3.0,0.51676344871521
202,32.0,-23.0,-87.0,0.0,297.0,10720.0,8396.0,9105.0,3.0,-10.0,9.0,-2.0,-1.0,-1.0,-7.0,3.0,0.5204553604125977
203,24.0,-10.0,-62.0,0.0,299.0,10717.0,8405.0,9101.0,3.0,-10.0,9.0,-2.0,-1.0,-1.0,-7.0,3.0,0.5264325141906738
204,24.0,-10.0,-62.0,0.0,299.0,10717.0,8405.0,9101.0,4.0,60.0,16.0,7.0,6.0,-4.0,-1.0,0.0,0.5282986164093018
205,24.0,-10.0,-62.0,0.0,299.0,10717.0,8405.0,9101.0,-3.0,3.0,-3.0,-3.0,-2.0,-5.0,1.0,6.0,0.530083417892456
206,27.0,7.0,-41.0,0.0,298.0,10714.0,8412.0,9097.0,-3.0,3.0,-3.0,-3.0,-2.0,-5.0,1.0,6.0,0.549781322479248
207,27.0,7.0,-41.0,0.0,298.0,10714.0,8412.0,9097.0,-9.0,-25.0,-1.0,1.0,1.0,-1.0,-1.0,-5.0,0.5531079769134521
208,27.0,7.0,-41.0,0.0,298.0,10714.0,8412.0,9097.0,12.0,21.0,8.0,-1.0,3.0,3.0,2.0,2.0,0.5573265552520752
209,66.0,-6.0,-34.0,0.0,296.0,10712.0,8425.0,9088.0,12.0,21.0,8.0,-1.0,3.0,3.0,2.0,2.0,0.572509765625
210,66.0,-6.0,-34.0,0.0,296.0,10712.0,8425.0,9088.0,0.0,-30.0,-6.0,3.0,-4.0,0.0,-2.0,-5.0,0.5775494575500488
211,66.0,-6.0,-34.0,0.0,296.0,10712.0,8425.0,9088.0,-4.0,-9.0,8.0,0.0,-2.0,-1.0,1.0,-2.0,0.5824599266052246
212,137.0,-38.0,-63.0,0.0,290.0,10710.0,8445.0,9072.0,-4.0,-9.0,8.0,0.0,-2.0,-1.0,1.0,-2.0,0.5863082408905029
213,137.0,-38.0,-63.0,0.0,290.0,10710.0,8445.0,9072.0,7.0,3.0,4.0,-5.0,4.0,3.0,4.0,4.0,0.5881779193878174
214,137.0,-38.0,-63.0,0.0,290.0,10710.0,8445.0,9072.0,-7.0,4.0,-10.0,-4.0,3.0,1.0,-5.0,-6.0,0.591475248336792
215,207.0,-63.0,-67.0,0.0,279.0,10708.0,8472.0,9050.0,-7.0,4.0,-10.0,-4.0,3.0,1.0,-5.0,-6.0,0.6091835498809814
216,207.0,-63.0,-67.0,0.0,279.0,10708.0,8472.0,9050.0,-8.0,-10.0,-2.0,-4.0,-6.0,-1.0,4.0,-2.0,0.6111295223236084
217,207.0,-63.0,-67.0,0.0,279.0,10708.0,8472.0,9050.0,0.0,-8.0,-14.0,-7.0,6.0,-2.0,2.0,-3.0,0.6128997802734375
218,209.0,-68.0,-36.0,0.0,273.0,10707.0,8500.0,9025.0,0.0,-8.0,-14.0,-7.0,6.0,-2.0,2.0,-3.0,0.6319830417633057
219,209.0,-68.0,-36.0,0.0,273.0,10707.0,8500.0,9025.0,8.0,18.0,15.0,3.0,-8.0,-1.0,-8.0,0.0,0.6352968215942383
220,209.0,-68.0,-36.0,0.0,273.0,10707.0,8500.0,9025.0,-9.0,-3.0,-14.0,-4.0,-5.0,-1.0,-3.0,1.0,0.6394245624542236
221,176.0,-102.0,-41.0,0.0,280.0,10708.0,8529.0,8996.0,-9.0,-3.0,-14.0,-4.0,-5.0,-1.0,-3.0,1.0,0.6455037593841553
222,176.0,-102.0,-41.0,0.0,280.0,10708.0,8529.0,8996.0,-19.0,-31.0,-1.0,0.0,-1.0,-3.0,0.0,-4.0,0.6474449634552002
223,176.0,-102.0,-41.0,0.0,280.0,10708.0,8529.0,8996.0,2.0,-11.0,6.0,7.0,1.0,-2.0,-9.0,1.0,0.652862548828125
224,148.0,-193.0,-61.0,0.0,303.0,10713.0,8557.0,8963.0,2.0,-11.0,6.0,7.0,1.0,-2.0,-9.0,1.0,0.6709792613983154
225,148.0,-193.0,-61.0,0.0,303.0,10713.0,8557.0,8963.0,15.0,-6.0,28.0,7.0,1.0,3.0,-1.0,9.0,0.6758222579956055
226,148.0,-193.0,-61.0,0.0,303.0,10713.0,8557.0,8963.0,2.0,-4.0,4.0,9.0,10.0,-1.0,5.0,-1.0,0.6777770519256592
227,280.0,-201.0,-148.0,0.0,330.0,10702.0,8609.0,8925.0,2.0,-4.0,4.0,9.0,10.0,-1.0,5.0,-1.0,0.6903507709503174
228,280.0,-201.0,-148.0,0.0,330.0,10702.0,8609.0,8925.0,-10.0,12.0,30.0,17.0,-8.0,-1.0,12.0,0.0,0.6997494697570801
229,280.0,-201.0,-148.0,0.0,330.0,10702.0,8609.0,8925.0,8.0,4.0,6.0,18.0,-5.0,6.0,2.0,1.0,0.7031285762786865
230,-15.0,-202.0,-203.0,0.0,400.0,10683.0,8638.0,8917.0,8.0,4.0,6.0,18.0,-5.0,6.0,2.0,1.0,0.7074227333068848
231,-15.0,-202.0,-203.0,0.0,400.0,10683.0,8638.0,8917.0,6.0,-5.0,-72.0,-6.0,15.0,2.0,-3.0,1.0,0.7130734920501709
232,-15.0,-202.0,-203.0,0.0,400.0,10683.0,8638.0,8917.0,4.0,4.0,-8.0,-14.0,9.0,3.0,-6.0,0.0,0.7148764133453369
233,35.0,-197.0,-137.0,0.0,458.0,10668.0,8664.0,8907.0,4.0,4.0,-8.0,-14.0,9.0,3.0,-6.0,0.0,0.7292470932006836
234,35.0,-197.0,-137.0,0.0,458.0,10668.0,8664.0,8907.0,-13.0,-43.0,18.0,-14.0,-12.0,0.0,7.0,-1.0,0.7324326038360596
235,35.0,-197.0,-137.0,0.0,458.0,10668.0,8664.0,8907.0,-13.0,-1.0,10.0,-15.0,9.0,1.0,-11.0,-8.0,0.7354216575622559
236,-164.0,-71.0,-252.0,0.0,562.0,10616.0,8694.0,8933.0,-13.0,-1.0,10.0,-15.0,9.0,1.0,-11.0,-8.0,0.7515678405761719
237,-164.0,-71.0,-252.0,0.0,562.0,10616.0,8694.0,8933.0,-4.0,-32.0,-1.0,-16.0,-2.0,-4.0,-11.0,-7.0,0.7534806728363037
238,-164.0,-71.0,-252.0,0.0,562.0,10616.0,8694.0,8933.0,6.0,18.0,7.0,12.0,15.0,6.0,14.0,9.0,0.7552964687347412
239,-141.0,-66.0,-492.0,0.0,697.0,10532.0,8754.0,8964.0,6.0,18.0,7.0,12.0,15.0,6.0,14.0,9.0,0.7649950981140137
240,-141.0,-66.0,-492.0,0.0,697.0,10532.0,8754.0,8964.0,-5.0,-15.0,-14.0,-6.0,4.0,-2.0,2.0,-9.0,0.7742958068847656
241,-141.0,-66.0,-492.0,0.0,697.0,10532.0,8754.0,8964.0,15.0,67.0,-1.0,6.0,-20.0,-8.0,-5.0,-5.0,0.7762184143066406
242,-228.0,-93.0,-803.0,0.0,888.0,10407.0,8840.0,9010.0,15.0,67.0,-1.0,6.0,-20.0,-8.0,-5.0,-5.0,0.7895958423614502
243,-228.0,-93.0,-803.0,0.0,888.0,10407.0,8840.0,9010.0,12.0,33.0,-8.0,2.0,-10.0,-5.0,-10.0,6.0,0.7936208248138428
244,-228.0,-93.0,-803.0,0.0,888.0,10407.0,8840.0,9010.0,-30.0,-11.0,20.0,10.0,6.0,-3.0,-1.0,-5.0,0.7968294620513916
245,-371.0,-95.0,-1075.0,0.0,1136.0,10243.0,8943.0,9067.0,-30.0,-11.0,20.0,10.0,6.0,-3.0,-1.0,-5.0,0.8113312721252441
246,-371.0,-95.0,-1075.0,0.0,1136.0,10243.0,8943.0,9067.0,12.0,78.0,10.0,14.0,-4.0,2.0,1.0,3.0,0.8131918907165527
247,-371.0,-95.0,-1075.0,0.0,1136.0,10243.0,8943.0,9067.0,10.0,-21.0,-39.0,-15.0,-19.0,-1.0,3.0,12.0,0.8149831295013428
248,-699.0,-8.0,-1279.0,0.0,1421.0,10050.0,9029.0,9158.0,10.0,-21.0,-39.0,-15.0,-19.0,-1.0,3.0,12.0,0.8267548084259033
249,-699.0,-8.0,-1279.0,0.0,1421.0,10050.0,9029.0,9158.0,4.0,-3.0,-9.0,0.0,12.0,1.0,8.0,0.0,0.8332340717315674
250,-699.0,-8.0,-1279.0,0.0,1421.0,10050.0,9029.0,9158.0,-10.0,-25.0,8.0,-7.0,-33.0,-12.0,-13.0,-11.0,0.8354501724243164
251,-1013.0,142.0,-1646.0,0.0,1704.0,9840.0,9114.0,9252.0,-10.0,-25.0,8.0,-7.0,-33.0,-12.0,-13.0,-11.0,0.84964919090271
252,-1013.0,142.0,-1646.0,0.0,1704.0,9840.0,9114.0,9252.0,-17.0,-10.0,26.0,-16.0,-28.0,-12.0,-17.0,-11.0,0.8542156219482422
253,-1013.0,142.0,-1646.0,0.0,1704.0,9840.0,9114.0,9252.0,-19.0,-53.0,-18.0,-28.0,19.0,8.0,6.0,-5.0,0.8584840297698975
254,-1309.0,221.0,-1956.0,0.0,2041.0,9581.0,9198.0,9372.0,-19.0,-53.0,-18.0,-28.0,19.0,8.0,6.0,-5.0,0.8723008632659912
255,-1309.0,221.0,-1956.0,0.0,2041.0,9581.0,9198.0,9372.0,28.0,39.0,-11.0,-25.0,3.0,11.0,10.0,17.0,0.8762204647064209
256,-1309.0,221.0,-1956.0,0.0,2041.0,9581.0,9198.0,9372.0,-3.0,45.0,34.0,16.0,-2.0,-9.0,-4.0,-2.0,0.8801388740539551
257,-1584.0,222.0,-2348.0,0.0,2442.0,9269.0,9287.0,9501.0,-3.0,45.0,34.0,16.0,-2.0,-9.0,-4.0,-2.0,0.8856966495513916
258,-1584.0,222.0,-2348.0,0.0,2442.0,9269.0,9287.0,9501.0,-29.0,1.0,15.0,9.0,15.0,4.0,-5.0,-10.0,0.8933727741241455
259,-1584.0,222.0,-2348.0,0.0,2442.0,9269.0,9287.0,9501.0,8.0,10.0,3.0,1.0,-10.0,-1.0,-3.0,3.0,0.8953635692596436
260,-1851.0,204.0,-2611.0,0.0,2892.0,8917.0,9362.0,9637.0,8.0,10.0,3.0,1.0,-10.0,-1.0,-3.0,3.0,0.9089009761810303
261,-1851.0,204.0,-2611.0,0.0,2892.0,8917.0,9362.0,9637.0,1.0,-30.0,-18.0,18.0,-2.0,-6.0,-6.0,-6.0,0.9117977619171143
262,-1851.0,204.0,-2611.0,0.0,2892.0,8917.0,9362.0,9637.0,-16.0,-24.0,1.0,24.0,5.0,-1.0,3.0,1.0,0.9152896404266357
263,-2380.0,400.0,-2842.0,0.0,3385.0,8498.0,9394.0,9822.0,-16.0,-24.0,1.0,24.0,5.0,-1.0,3.0,1.0,0.9314374923706055
264,-2380.0,400.0,-2842.0,0.0,3385.0,8498.0,9394.0,9822.0,12.0,16.0,-10.0,4.0,1.0,2.0,7.0,3.0,0.9333536624908447
265,-2380.0,400.0,-2842.0,0.0,3385.0,8498.0,9394.0,9822.0,0.0,-31.0,-2.0,-13.0,-9.0,-7.0,-7.0,0.0,0.935462474822998
266,-2722.0,510.0,-3086.0,0.0,3907.0,8022.0,9398.0,10023.0,0.0,-31.0,-2.0,-13.0,-9.0,-7.0,-7.0,0.0,0.946648359298706
267,-2722.0,510.0,-3086.0,0.0,3907.0,8022.0,9398.0,10023.0,2.0,14.0,2.0,-8.0,-3.0,-3.0,-9.0,0.0,0.9530534744262695
268,-2722.0,510.0,-3086.0,0.0,3907.0,8022.0,9398.0,10023.0,16.0,50.0,12.0,20.0,6.0,11.0,4.0,1.0,0.955059289932251
269,-2877.0,590.0,-3283.0,0.0,4439.0,7502.0,9384.0,10215.0,16.0,50.0,12.0,20.0,6.0,11.0,4.0,1.0,0.9698545932769775
270,-2877.0,590.0,-3283.0,0.0,4439.0,7502.0,9384.0,10215.0,-7.0,-8.0,-15.0,-9.0,-4.0,-4.0,-5.0,-6.0,0.9732210636138916
271,-2877.0,590.0,-3283.0,0.0,4439.0,7502.0,9384.0,10215.0,0.0,-7.0,6.0,12.0,-1.0,-5.0,3.0,-3.0,0.9773871898651123
272,-2957.0,720.0,-3526.0,0.0,4976.0,6927.0,9368.0,10388.0,0.0,-7.0,6.0,12.0,-1.0,-5.0,3.0,-3.0,0.9937276840209961
273,-2957.0,720.0,-3526.0,0.0,4976.0,6927.0,9368.0,10388.0,-1.0,-17.0,-17.0,13.0,6.0,5.0,5.0,7.0,0.9969346523284912
274,-2957.0,720.0,-3526.0,0.0,4976.0,6927.0,9368.0,10388.0,8.0,-11.0,2.0,5.0,5.0,1.0,4.0,4.0,0.9999442100524902
275,-2843.0,900.0,-3715.0,0.0,5489.0,6308.0,9368.0,10522.0,8.0,-11.0,2.0,5.0,5.0,1.0,4.0,4.0,1.005598783493042
276,-2843.0,900.0,-3715.0,0.0,5489.0,6308.0,9368.0,10522.0,-2.0,6.0,-13.0,-1.0,3.0,-2.0,-3.0,1.0,1.013437032699585
277,-2843.0,900.0,-3715.0,0.0,5489.0,6308.0,9368.0,10522.0,18.0,35.0,2.0,-42.0,-8.0,-5.0,-7.0,-4.0,1.0154228210449219
278,-2852.0,973.0,-3858.0,0.0,5991.0,5656.0,9358.0,10627.0,18.0,35.0,2.0,-42.0,-8.0,-5.0,-7.0,-4.0,1.0287513732910156
279,-2852.0,973.0,-3858.0,0.0,5991.0,5656.0,9358.0,10627.0,-3.0,-7.0,15.0,15.0,3.0,0.0,-2.0,-2.0,1.0308191776275635
280,-2852.0,973.0,-3858.0,0.0,5991.0,5656.0,9358.0,10627.0,-2.0,-46.0,-62.0,6.0,-2.0,0.0,1.0,-2.0,1.0326948165893555
281,-2840.0,912.0,-3958.0,0.0,6496.0,4984.0,9327.0,10694.0,-2.0,-46.0,-62.0,6.0,-2.0,0.0,1.0,-2.0,1.052933931350708
282,-2840.0,912.0,-3958.0,0.0,6496.0,4984.0,9327.0,10694.0,-9.0,-15.0,-15.0,-15.0,-2.0,0.0,-3.0,-3.0,1.0569720268249512
283,-2840.0,912.0,-3958.0,0.0,6496.0,4984.0,9327.0,10694.0,-5.0,-5.0,12.0,-16.0,-8.0,-5.0,-7.0,-5.0,1.0597805976867676
284,-2628.0,745.0,-3964.0,0.0,6993.0,4329.0,9283.0,10705.0,-5.0,-5.0,12.0,-16.0,-8.0,-5.0,-7.0,-5.0,1.0648231506347656
285,-2628.0,745.0,-3964.0,0.0,6993.0,4329.0,9283.0,10705.0,-5.0,7.0,16.0,0.0,2.0,0.0,-2.0,-2.0,1.0741276741027832
286,-2628.0,745.0,-3964.0,0.0,6993.0,4329.0,9283.0,10705.0,-15.0,-11.0,23.0,-14.0,-6.0,-2.0,-8.0,-2.0,1.0760574340820312
287,-2505.0,746.0,-3956.0,0.0,7466.0,3673.0,9230.0,10676.0,-15.0,-11.0,23.0,-14.0,-6.0,-2.0,-8.0,-2.0,1.0891389846801758
288,-2505.0,746.0,-3956.0,0.0,7466.0,3673.0,9230.0,10676.0,8.0,-6.0,-38.0,2.0,3.0,1.0,2.0,-3.0,1.091059684753418
289,-2505.0,746.0,-3956.0,0.0,7466.0,3673.0,9230.0,10676.0,21.0,38.0,-27.0,-1.0,8.0,4.0,4.0,4.0,1.0928857326507568
290,-2669.0,829.0,-4012.0,0.0,7922.0,2980.0,9145.0,10636.0,21.0,38.0,-27.0,-1.0,8.0,4.0,4.0,4.0,1.1114511489868164
291,-2669.0,829.0,-4012.0,0.0,7922.0,2980.0,9145.0,10636.0,-2.0,-43.0,7.0,-7.0,-3.0,-3.0,-5.0,7.0,1.1134445667266846
292,-2669.0,829.0,-4012.0,0.0,7922.0,2980.0,9145.0,10636.0,-10.0,-12.0,24.0,10.0,-3.0,0.0,0.0,-2.0,1.115243673324585
293,-2807.0,747.0,-4263.0,0.0,8397.0,2255.0,9020.0,10557.0,-10.0,-12.0,24.0,10.0,-3.0,0.0,0.0,-2.0,1.1248600482940674
294,-2807.0,747.0,-4263.0,0.0,8397.0,2255.0,9020.0,10557.0,-9.0,-25.0,-24.0,0.0,-3.0,0.0,2.0,-4.0,1.134953260421753
295,-2807.0,747.0,-4263.0,0.0,8397.0,2255.0,9020.0,10557.0,-13.0,-13.0,3.0,4.0,2.0,-2.0,-4.0,-2.0,1.1386830806732178
296,-2964.0,656.0,-4406.0,0.0,8876.0,1504.0,8842.0,10449.0,-13.0,-13.0,3.0,4.0,2.0,-2.0,-4.0,-2.0,1.1489264965057373
297,-2964.0,656.0,-4406.0,0.0,8876.0,1504.0,8842.0,10449.0,-4.0,-9.0,-6.0,-2.0,-3.0,-6.0,-5.0,-5.0,1.1509363651275635
298,-2964.0,656.0,-4406.0,0.0,8876.0,1504.0,8842.0,10449.0,22.0,31.0,-37.0,0.0,7.0,6.0,7.0,6.0,1.1534218788146973
299,-2903.0,685.0,-4530.0,0.0,9343.0,732.0,8641.0,10291.0,22.0,31.0,-37.0,0.0,7.0,6.0,7.0,6.0,1.1723744869232178
300,-2903.0,685.0,-4530.0,0.0,9343.0,732.0,8641.0,10291.0,-16.0,-29.0,-32.0,-10.0,-5.0,-2.0,-4.0,-4.0,1.1766583919525146
301,-2903.0,685.0,-4530.0,0.0,9343.0,732.0,8641.0,10291.0,4.0,14.0,-24.0,-2.0,-2.0,-2.0,-5.0,1.0,1.1795048713684082
302,-2687.0,680.0,-4604.0,0.0,9789.0,-31.0,8436.0,10070.0,4.0,14.0,-24.0,-2.0,-2.0,-2.0,-5.0,1.0,1.1852679252624512
303,-2687.0,680.0,-4604.0,0.0,9789.0,-31.0,8436.0,10070.0,-8.0,-19.0,38.0,4.0,0.0,-4.0,-3.0,-1.0,1.1940712928771973
304,-2687.0,680.0,-4604.0,0.0,9789.0,-31.0,8436.0,10070.0,8.0,39.0,5.0,0.0,5.0,1.0,3.0,-1.0,1.1959891319274902
305,-2664.0,739.0,-4622.0,0.0,10198.0,-801.0,8218.0,9810.0,8.0,39.0,5.0,0.0,5.0,1.0,3.0,-1.0,1.2093181610107422
306,-2664.0,739.0,-4622.0,0.0,10198.0,-801.0,8218.0,9810.0,0.0,10.0,15.0,-1.0,-16.0,-5.0,-3.0,4.0,1.2124218940734863
307,-2664.0,739.0,-4622.0,0.0,10198.0,-801.0,8218.0,9810.0,-2.0,-13.0,21.0,8.0,4.0,5.0,8.0,-4.0,1.2153847217559814
308,-2462.0,802.0,-4807.0,0.0,10590.0,-1574.0,8001.0,9475.0,-2.0,-13.0,21.0,8.0,4.0,5.0,8.0,-4.0,1.2321743965148926
309,-2462.0,802.0,-4807.0,0.0,10590.0,-1574.0,8001.0,9475.0,9.0,39.0,45.0,2.0,7.0,5.0,2.0,-5.0,1.2354736328125
310,-2462.0,802.0,-4807.0,0.0,10590.0,-1574.0,8001.0,9475.0,-15.0,-43.0,15.0,0.0,-2.0,4.0,2.0,1.0,1.2386951446533203
311,-2053.0,719.0,-5224.0,0.0,11004.0,-2329.0,7776.0,9024.0,-15.0,-43.0,15.0,0.0,-2.0,4.0,2.0,1.0,1.2458972930908203
312,-2053.0,719.0,-5224.0,0.0,11004.0,-2329.0,7776.0,9024.0,-1.0,-7.0,-22.0,9.0,8.0,7.0,5.0,1.0,1.2544374465942383
313,-2053.0,719.0,-5224.0,0.0,11004.0,-2329.0,7776.0,9024.0,-12.0,-12.0,66.0,-3.0,-9.0,-7.0,-12.0,-5.0,1.258272409439087
314,-1307.0,551.0,-5284.0,0.0,11421.0,-2981.0,7571.0,8471.0,-12.0,-12.0,66.0,-3.0,-9.0,-7.0,-12.0,-5.0,1.2685649394989014
315,-1307.0,551.0,-5284.0,0.0,11421.0,-2981.0,7571.0,8471.0,14.0,16.0,17.0,3.0,-1.0,-1.0,-2.0,6.0,1.2705121040344238
316,-1307.0,551.0,-5284.0,0.0,11421.0,-2981.0,7571.0,8471.0,-5.0,4.0,-7.0,13.0,-4.0,4.0,9.0,9.0,1.2750654220581055
317,-1279.0,307.0,-4923.0,0.0,11786.0,-3568.0,7328.0,7942.0,-5.0,4.0,-7.0,13.0,-4.0,4.0,9.0,9.0,1.2940330505371094
318,-1279.0,307.0,-4923.0,0.0,11786.0,-3568.0,7328.0,7942.0,4.0,12.0,-8.0,-1.0,-2.0,0.0,-7.0,-2.0,1.2970621585845947
319,-1279.0,307.0,-4923.0,0.0,11786.0,-3568.0,7328.0,7942.0,7.0,10.0,-23.0,-26.0,-14.0,-9.0,-5.0,-4.0,1.298896312713623
320,-1929.0,155.0,-4500.0,0.0,12068.0,-4183.0,7001.0,7501.0,7.0,10.0,-23.0,-26.0,-14.0,-9.0,-5.0,-4.0,1.3151328563690186
321,-1929.0,155.0,-4500.0,0.0,12068.0,-4183.0,7001.0,7501.0,-2.0,-17.0,-9.0,-5.0,-11.0,-22.0,-33.0,-14.0,1.3187882900238037
322,-1929.0,155.0,-4500.0,0.0,12068.0,-4183.0,7001.0,7501.0,-14.0,-14.0,2.0,8.0,11.0,6.0,1.0,-4.0,1.322044849395752
323,-2533.0,125.0,-4285.0,0.0,12281.0,-4862.0,6594.0,7105.0,-14.0,-14.0,2.0,8.0,11.0,6.0,1.0,-4.0,1.3287920951843262
324,-2533.0,125.0,-4285.0,0.0,12281.0,-4862.0,6594.0,7105.0,-9.0,12.0,15.0,-5.0,-26.0,-6.0,5.0,-7.0,1.3314712047576904
325,-2533.0,125.0,-4285.0,0.0,12281.0,-4862.0,6594.0,7105.0,7.0,51.0,-27.0,-13.0,-17.0,-9.0,-18.0,-5.0,1.3351244926452637
326,-2412.0,239.0,-4110.0,0.0,12444.0,-5525.0,6194.0,6684.0,7.0,51.0,-27.0,-13.0,-17.0,-9.0,-18.0,-5.0,1.3522212505340576
327,-2412.0,239.0,-4110.0,0.0,12444.0,-5525.0,6194.0,6684.0,46.0,83.0,45.0,24.0,29.0,13.0,6.0,21.0,1.3559916019439697
328,-2412.0,239.0,-4110.0,0.0,12444.0,-5525.0,6194.0,6684.0,17.0,10.0,13.0,1.0,-8.0,-8.0,29.0,7.0,1.3589670658111572
329,-2043.0,559.0,-3519.0,0.0,12527.0,-6074.0,5903.0,6305.0,17.0,10.0,13.0,1.0,-8.0,-8.0,29.0,7.0,1.3651316165924072
330,-2043.0,559.0,-3519.0,0.0,12527.0,-6074.0,5903.0,6305.0,7.0,-33.0,-39.0,-8.0,-4.0,10.0,45.0,5.0,1.3732399940490723
331,-2043.0,559.0,-3519.0,0.0,12527.0,-6074.0,5903.0,6305.0,18.0,19.0,-81.0,-5.0,71.0,-18.0,-69.0,-13.0,1.375176191329956
332,-1082.0,1086.0,-2764.0,0.0,12568.0,-6471.0,5790.0,5921.0,18.0,19.0,-81.0,-5.0,71.0,-18.0,-69.0,-13.0,1.388089895248413
333,-1082.0,1086.0,-2764.0,0.0,12568.0,-6471.0,5790.0,5921.0,-28.0,-52.0,-19.0,28.0,100.0,58.0,81.0,6.0,1.391380786895752
334,-1082.0,1086.0,-2764.0,0.0,12568.0,-6471.0,5790.0,5921.0,-15.0,-57.0,-29.0,-3.0,-13.0,-8.0,97.0,-18.0,1.3949291706085205
335,-658.0,1103.0,-1992.0,0.0,12576.0,-6756.0,5756.0,5610.0,-15.0,-57.0,-29.0,-3.0,-13.0,-8.0,97.0,-18.0,1.4120924472808838
336,-658.0,1103.0,-1992.0,0.0,12576.0,-6756.0,5756.0,5610.0,25.0,53.0,-21.0,0.0,-49.0,-36.0,-52.0,-4.0,1.4152109622955322
337,-658.0,1103.0,-1992.0,0.0,12576.0,-6756.0,5756.0,5610.0,-12.0,-12.0,30.0,40.0,67.0,-12.0,-42.0,64.0,1.4181900024414062
338,-155.0,1338.0,-304.0,0.0,12498.0,-6877.0,5908.0,5479.0,-12.0,-12.0,30.0,40.0,67.0,-12.0,-42.0,64.0,1.4348838329315186
339,-155.0,1338.0,-304.0,0.0,12498.0,-6877.0,5908.0,5479.0,-15.0,6.0,-50.0,-43.0,-38.0,-31.0,-46.0,-28.0,1.4386324882507324
340,-155.0,1338.0,-304.0,0.0,12498.0,-6877.0,5908.0,5479.0,6.0,69.0,-12.0,-61.0,-89.0,-47.0,-9.0,-33.0,1.442279577255249
341,-319.0,1465.0,727.0,0.0,12334.0,-6960.0,6142.0,5488.0,6.0,69.0,-12.0,-61.0,-89.0,-47.0,-9.0,-33.0,1.4482636451721191
342,-319.0,1465.0,727.0,0.0,12334.0,-6960.0,6142.0,5488.0,-8.0,-3.0,41.0,7.0,-1.0,7.0,-11.0,-1.0,1.4501352310180664
343,-319.0,1465.0,727.0,0.0,12334.0,-6960.0,6142.0,5488.0,-34.0,-69.0,22.0,18.0,-18.0,42.0,28.0,-1.0,1.4552719593048096
344,-180.0,1333.0,1538.0,0.0,12136.0,-6960.0,6426.0,5604.0,-34.0,-69.0,22.0,18.0,-18.0,42.0,28.0,-1.0,1.4733388423919678
345,-180.0,1333.0,1538.0,0.0,12136.0,-6960.0,6426.0,5604.0,-10.0,-41.0,3.0,5.0,41.0,9.0,-8.0,-5.0,1.4770081043243408
346,-180.0,1333.0,1538.0,0.0,12136.0,-6960.0,6426.0,5604.0,-9.0,-33.0,23.0,0.0,-6.0,37.0,-19.0,28.0,1.479982614517212
347,-127.0,730.0,2992.0,0.0,11886.0,-6807.0,6738.0,5950.0,-9.0,-33.0,23.0,0.0,-6.0,37.0,-19.0,28.0,1.4936628341674805
348,-127.0,730.0,2992.0,0.0,11886.0,-6807.0,6738.0,5950.0,14.0,-13.0,-18.0,-31.0,-37.0,-35.0,-28.0,13.0,1.496809482574463
349,-127.0,730.0,2992.0,0.0,11886.0,-6807.0,6738.0,5950.0,-20.0,2.0,-9.0,-5.0,-10.0,11.0,44.0,18.0,1.5004925727844238
350,-454.0,-76.0,4270.0,0.0,11585.0,-6579.0,6974.0,6503.0,-20.0,2.0,-9.0,-5.0,-10.0,11.0,44.0,18.0,1.5087056159973145
351,-454.0,-76.0,4270.0,0.0,11585.0,-6579.0,6974.0,6503.0,3.0,22.0,21.0,28.0,52.0,107.0,75.0,9.0,1.5106043815612793
352,-454.0,-76.0,4270.0,0.0,11585.0,-6579.0,6974.0,6503.0,36.0,5.0,-5.0,-2.0,-2.0,-37.0,-25.0,-15.0,1.5148358345031738
353,-562.0,-697.0,5290.0,0.0,11212.0,-6214.0,7198.0,7231.0,36.0,5.0,-5.0,-2.0,-2.0,-37.0,-25.0,-15.0,1.532707691192627
354,-562.0,-697.0,5290.0,0.0,11212.0,-6214.0,7198.0,7231.0,2.0,-8.0,21.0,12.0,10.0,70.0,15.0,4.0,1.5359253883361816
355,-562.0,-697.0,5290.0,0.0,11212.0,-6214.0,7198.0,7231.0,-10.0,-12.0,4.0,6.0,10.0,57.0,-11.0,-10.0,1.5400927066802979
356,-357.0,-1350.0,5998.0,0.0,10801.0,-5689.0,7387.0,8051.0,-10.0,-12.0,4.0,6.0,10.0,57.0,-11.0,-10.0,1.5539512634277344
357,-357.0,-1350.0,5998.0,0.0,10801.0,-5689.0,7387.0,8051.0,36.0,35.0,7.0,-19.0,-35.0,-71.0,-14.0,16.0,1.5575199127197266
358,-357.0,-1350.0,5998.0,0.0,10801.0,-5689.0,7387.0,8051.0,-18.0,-8.0,-7.0,2.0,28.0,0.0,12.0,1.0,1.5612270832061768
359,463.0,-1868.0,6658.0,0.0,10367.0,-4932.0,7600.0,8880.0,-18.0,-8.0,-7.0,2.0,28.0,0.0,12.0,1.0,1.569333791732788
360,463.0,-1868.0,6658.0,0.0,10367.0,-4932.0,7600.0,8880.0,-82.0,-26.0,1.0,-15.0,-21.0,-40.0,-24.0,-17.0,1.572774887084961
361,463.0,-1868.0,6658.0,0.0,10367.0,-4932.0,7600.0,8880.0,31.0,12.0,36.0,23.0,-5.0,-22.0,0.0,31.0,1.5751585960388184
362,1127.0,-2398.0,7011.0,0.0,9900.0,-3967.0,7809.0,9680.0,31.0,12.0,36.0,23.0,-5.0,-22.0,0.0,31.0,1.592191219329834
363,1127.0,-2398.0,7011.0,0.0,9900.0,-3967.0,7809.0,9680.0,-33.0,15.0,-44.0,-13.0,-2.0,5.0,-52.0,2.0,1.5957694053649902
364,1127.0,-2398.0,7011.0,0.0,9900.0,-3967.0,7809.0,9680.0,33.0,8.0,-14.0,8.0,30.0,12.0,-22.0,-35.0,1.5987615585327148
365,1710.0,-2985.0,6363.0,0.0,9527.0,-2916.0,7918.0,10318.0,33.0,8.0,-14.0,8.0,30.0,12.0,-22.0,-35.0,1.6145813465118408
366,1710.0,-2985.0,6363.0,0.0,9527.0,-2916.0,7918.0,10318.0,-25.0,-3.0,21.0,20.0,30.0,-16.0,2.0,6.0,1.618070125579834
367,1710.0,-2985.0,6363.0,0.0,9527.0,-2916.0,7918.0,10318.0,21.0,-16.0,6.0,2.0,-25.0,-43.0,7.0,-26.0,1.6213107109069824
368,2909.0,-2454.0,6738.0,0.0,9040.0,-1749.0,8175.0,10807.0,21.0,-16.0,6.0,2.0,-25.0,-43.0,7.0,-26.0,1.6279659271240234
369,2909.0,-2454.0,6738.0,0.0,9040.0,-1749.0,8175.0,10807.0,57.0,16.0,32.0,20.0,-9.0,4.0,1.0,1.0,1.6298408508300781
370,2909.0,-2454.0,6738.0,0.0,9040.0,-1749.0,8175.0,10807.0,-31.0,18.0,59.0,-1.0,22.0,7.0,29.0,4.0,1.6349337100982666
371,3624.0,-1955.0,7778.0,0.0,8328.0,-465.0,8519.0,11236.0,-31.0,18.0,59.0,-1.0,22.0,7.0,29.0,4.0,1.6523082256317139
372,3624.0,-1955.0,7778.0,0.0,8328.0,-465.0,8519.0,11236.0,-44.0,-99.0,-59.0,-86.0,-33.0,-44.0,-9.0,-42.0,1.6587738990783691
373,3624.0,-1955.0,7778.0,0.0,8328.0,-465.0,8519.0,11236.0,23.0,10.0,25.0,60.0,6.0,24.0,34.0,22.0,1.6613545417785645
374,3984.0,-1881.0,5399.0,0.0,7839.0,627.0,8839.0,11333.0,23.0,10.0,25.0,60.0,6.0,24.0,34.0,22.0,1.6734507083892822
375,3984.0,-1881.0,5399.0,0.0,7839.0,627.0,8839.0,11333.0,51.0,31.0,21.0,66.0,93.0,-5.0,31.0,11.0,1.6755661964416504
376,3984.0,-1881.0,5399.0,0.0,7839.0,627.0,8839.0,11333.0,-35.0,-55.0,4.0,-44.0,-23.0,83.0,102.0,2.0,1.6777737140655518
377,4810.0,-1971.0,3063.0,0.0,7601.0,1574.0,9224.0,11094.0,-35.0,-55.0,4.0,-44.0,-23.0,83.0,102.0,2.0,1.687708854675293
378,4810.0,-1971.0,3063.0,0.0,7601.0,1574.0,9224.0,11094.0,0.0,21.0,24.0,41.0,-52.0,-70.0,10.0,6.0,1.6958622932434082
379,4810.0,-1971.0,3063.0,0.0,7601.0,1574.0,9224.0,11094.0,-19.0,4.0,64.0,56.0,-20.0,-5.0,21.0,-9.0,1.697904109954834
380,5395.0,-1410.0,2518.0,0.0,7329.0,2440.0,9695.0,10712.0,-19.0,4.0,64.0,56.0,-20.0,-5.0,21.0,-9.0,1.7113451957702637
381,5395.0,-1410.0,2518.0,0.0,7329.0,2440.0,9695.0,10712.0,-7.0,-29.0,-1.0,-1.0,-52.0,-95.0,-71.0,27.0,1.7133378982543945
382,5395.0,-1410.0,2518.0,0.0,7329.0,2440.0,9695.0,10712.0,6.0,-64.0,-78.0,0.0,67.0,45.0,-15.0,-19.0,1.7159028053283691
383,4277.0,-851.0,2633.0,0.0,6986.0,3155.0,10041.0,10431.0,6.0,-64.0,-78.0,0.0,67.0,45.0,-15.0,-19.0,1.7337861061096191
384,4277.0,-851.0,2633.0,0.0,6986.0,3155.0,10041.0,10431.0,56.0,-10.0,-53.0,-27.0,59.0,81.0,47.0,1.0,1.7373631000518799
385,4277.0,-851.0,2633.0,0.0,6986.0,3155.0,10041.0,10431.0,-78.0,-11.0,15.0,-2.0,-60.0,46.0,72.0,30.0,1.7405450344085693
386,3260.0,-140.0,1893.0,0.0,6659.0,3630.0,10347.0,10190.0,-78.0,-11.0,15.0,-2.0,-60.0,46.0,72.0,30.0,1.7484276294708252
387,3260.0,-140.0,1893.0,0.0,6659.0,3630.0,10347.0,10190.0,0.0,21.0,-1.0,24.0,-20.0,-26.0,77.0,17.0,1.7575206756591797
388,3260.0,-140.0,1893.0,0.0,6659.0,3630.0,10347.0,10190.0,-63.0,-73.0,-65.0,-28.0,-56.0,-31.0,-96.0,-49.0,1.7596402168273926
389,3965.0,-175.0,1752.0,0.0,6325.0,4127.0,10685.0,9859.0,-63.0,-73.0,-65.0,-28.0,-56.0,-31.0,-96.0,-49.0,1.7711474895477295
390,3965.0,-175.0,1752.0,0.0,6325.0,4127.0,10685.0,9859.0,78.0,87.0,51.0,-64.0,-90.0,-4.0,16.0,23.0,1.7732372283935547
391,3965.0,-175.0,1752.0,0.0,6325.0,4127.0,10685.0,9859.0,18.0,21.0,-103.0,-42.0,8.0,-95.0,-14.0,38.0,1.775804042816162
392,3710.0,-337.0,1415.0,0.0,6056.0,4568.0,10964.0,9522.0,18.0,21.0,-103.0,-42.0,8.0,-95.0,-14.0,38.0,1.7940177917480469
393,3710.0,-337.0,1415.0,0.0,6056.0,4568.0,10964.0,9522.0,41.0,-9.0,-28.0,31.0,46.0,40.0,-39.0,-19.0,1.7959651947021484
394,3710.0,-337.0,1415.0,0.0,6056.0,4568.0,10964.0,9522.0,110.0,100.0,-12.0,-3.0,98.0,37.0,-6.0,-12.0,1.7977676391601562
395,1223.0,280.0,1775.0,0.0,5793.0,4816.0,11005.0,9516.0,110.0,100.0,-12.0,-3.0,98.0,37.0,-6.0,-12.0,1.8082807064056396
396,1223.0,280.0,1775.0,0.0,5793.0,4816.0,11005.0,9516.0,-57.0,-76.0,-5.0,-110.0,-93.0,-30.0,-8.0,-8.0,1.816438913345337
397,1223.0,280.0,1775.0,0.0,5793.0,4816.0,11005.0,9516.0,10.0,-21.0,-66.0,-27.0,-17.0,-17.0,-113.0,14.0,1.819490671157837
398,142.0,541.0,2047.0,0.0,5510.0,5010.0,10933.0,9664.0,10.0,-21.0,-66.0,-27.0,-17.0,-17.0,-113.0,14.0,1.8313324451446533
399,142.0,541.0,2047.0,0.0,5510.0,5010.0,10933.0,9664.0,-23.0,-32.0,1.0,-38.0,47.0,88.0,-15.0,-5.0,1.8332207202911377
400,142.0,541.0,2047.0,0.0,5510.0,5010.0,10933.0,9664.0,18.0,27.0,67.0,-21.0,-2.0,-56.0,-50.0,-8.0,1.8353345394134521
401,705.0,463.0,1592.0,0.0,5244.0,5197.0,10928.0,9720.0,18.0,27.0,67.0,-21.0,-2.0,-56.0,-50.0,-8.0,1.8538439273834229
402,705.0,463.0,1592.0,0.0,5244.0,5197.0,10928.0,9720.0,-18.0,-52.0,34.0,30.0,17.0,-20.0,-21.0,-34.0,1.858515977859497
403,705.0,463.0,1592.0,0.0,5244.0,5197.0,10928.0,9720.0,79.0,42.0,31.0,-41.0,-27.0,2.0,27.0,6.0,1.861701250076294
404,623.0,522.0,1635.0,0.0,4985.0,5359.0,10937.0,9758.0,79.0,42.0,31.0,-41.0,-27.0,2.0,27.0,6.0,1.8681590557098389
405,623.0,522.0,1635.0,0.0,4985.0,5359.0,10937.0,9758.0,33.0,42.0,-24.0,24.0,41.0,47.0,55.0,30.0,1.8758413791656494
406,623.0,522.0,1635.0,0.0,4985.0,5359.0,10937.0,9758.0,-49.0,-54.0,-28.0,-48.0,1.0,-34.0,-37.0,-31.0,1.8778631687164307
407,-79.0,555.0,1465.0,0.0,4784.0,5454.0,10898.0,9849.0,-49.0,-54.0,-28.0,-48.0,1.0,-34.0,-37.0,-31.0,1.8922069072723389
408,-79.0,555.0,1465.0,0.0,4784.0,5454.0,10898.0,9849.0,-56.0,-29.0,14.0,0.0,-10.0,41.0,-83.0,-19.0,1.8958375453948975
409,-79.0,555.0,1465.0,0.0,4784.0,5454.0,10898.0,9849.0,6.0,8.0,-29.0,-28.0,-63.0,-41.0,-31.0,1.0,1.9000358581542969
410,566.0,691.0,1204.0,0.0,4535.0,5556.0,10938.0,9866.0,6.0,8.0,-29.0,-28.0,-63.0,-41.0,-31.0,1.0,1.9138374328613281
411,566.0,691.0,1204.0,0.0,4535.0,5556.0,10938.0,9866.0,-51.0,-25.0,-15.0,15.0,15.0,45.0,52.0,-14.0,1.9157493114471436
412,566.0,691.0,1204.0,0.0,4535.0,5556.0,10938.0,9866.0,84.0,80.0,95.0,77.0,42.0,0.0,10.0,27.0,1.9178259372711182
413,943.0,492.0,700.0,0.0,4369.0,5611.0,11046.0,9788.0,84.0,80.0,95.0,77.0,42.0,0.0,10.0,27.0,1.9273946285247803
414,943.0,492.0,700.0,0.0,4369.0,5611.0,11046.0,9788.0,-22.0,29.0,39.0,-1.0,-47.0,-47.0,-26.0,1.0,1.9367923736572266
415,943.0,492.0,700.0,0.0,4369.0,5611.0,11046.0,9788.0,-27.0,-3.0,36.0,46.0,24.0,-38.0,-21.0,1.0,1.9417026042938232
416,191.0,208.0,654.0,0.0,4271.0,5672.0,11073.0,9766.0,-27.0,-3.0,36.0,46.0,24.0,-38.0,-21.0,1.0,1.951674222946167
417,191.0,208.0,654.0,0.0,4271.0,5672.0,11073.0,9766.0,-3.0,30.0,22.0,27.0,-25.0,38.0,96.0,-15.0,1.9535813331604004
418,191.0,208.0,654.0,0.0,4271.0,5672.0,11073.0,9766.0,-56.0,-11.0,-27.0,5.0,-12.0,38.0,1.0,-38.0,1.9553797245025635
419,-463.0,23.0,426.0,0.0,4244.0,5707.0,11031.0,9805.0,-56.0,-11.0,-27.0,5.0,-12.0,38.0,1.0,-38.0,1.9745800495147705
420,-463.0,23.0,426.0,0.0,4244.0,5707.0,11031.0,9805.0,-14.0,-102.0,-73.0,16.0,18.0,-106.0,-37.0,14.0,1.9764835834503174
421,-463.0,23.0,426.0,0.0,4244.0,5707.0,11031.0,9805.0,-13.0,8.0,17.0,80.0,87.0,62.0,37.0,3.0,1.9782724380493164
422,-98.0,3.0,144.0,0.0,4224.0,5730.0,11025.0,9808.0,-13.0,8.0,17.0,80.0,87.0,62.0,37.0,3.0,1.987658977508545
423,-98.0,3.0,144.0,0.0,4224.0,5730.0,11025.0,9808.0,22.0,-5.0,-74.0,50.0,93.0,44.0,-22.0,-18.0,1.9960787296295166
424,-98.0,3.0,144.0,0.0,4224.0,5730.0,11025.0,9808.0,-13.0,-92.0,18.0,-18.0,12.0,7.0,15.0,8.0,2.0026028156280518
425,317.0,4.0,65.0,0.0,4196.0,5752.0,11057.0,9770.0,-13.0,-92.0,18.0,-18.0,12.0,7.0,15.0,8.0,2.0112149715423584
426,317.0,4.0,65.0,0.0,4196.0,5752.0,11057.0,9770.0,38.0,8.0,50.0,-2.0,56.0,-1.0,-29.0,3.0,2.013068437576294
427,317.0,4.0,65.0,0.0,4196.0,5752.0,11057.0,9770.0,-35.0,-12.0,-20.0,2.0,68.0,67.0,21.0,-22.0,2.014838218688965
428,265.0,-139.0,-3.0,0.0,4202.0,5774.0,11079.0,9730.0,-35.0,-12.0,-20.0,2.0,68.0,67.0,21.0,-22.0,2.033926248550415
429,265.0,-139.0,-3.0,0.0,4202.0,5774.0,11079.0,9730.0,-18.0,-6.0,17.0,27.0,-18.0,16.0,-18.0,-18.0,2.035823106765747
430,265.0,-139.0,-3.0,0.0,4202.0,5774.0,11079.0,9730.0,-35.0,-45.0,-15.0,-17.0,-41.0,-113.0,-58.0,-14.0,2.0376265048980713
431,-216.0,-115.0,66.0,0.0,4204.0,5799.0,11032.0,9767.0,-35.0,-45.0,-15.0,-17.0,-41.0,-113.0,-58.0,-14.0,2.0475380420684814
432,-216.0,-115.0,66.0,0.0,4204.0,5799.0,11032.0,9767.0,-37.0,23.0,22.0,0.0,22.0,1.0,3.0,2.0,2.0562593936920166
433,-216.0,-115.0,66.0,0.0,4204.0,5799.0,11032.0,9767.0,35.0,55.0,-31.0,-36.0,-28.0,-19.0,19.0,17.0,2.0586392879486084
434,-165.0,-1.0,147.0,0.0,4172.0,5830.0,10981.0,9819.0,35.0,55.0,-31.0,-36.0,-28.0,-19.0,19.0,17.0,2.072815179824829
435,-165.0,-1.0,147.0,0.0,4172.0,5830.0,10981.0,9819.0,-15.0,-18.0,2.0,-25.0,-27.0,-17.0,-19.0,-4.0,2.0769410133361816
436,-165.0,-1.0,147.0,0.0,4172.0,5830.0,10981.0,9819.0,-20.0,-25.0,-23.0,-5.0,-10.0,41.0,32.0,2.0,2.0803415775299072
437,261.0,67.0,62.0,0.0,4129.0,5851.0,10991.0,9814.0,-20.0,-25.0,-23.0,-5.0,-10.0,41.0,32.0,2.0,2.093782424926758
438,261.0,67.0,62.0,0.0,4129.0,5851.0,10991.0,9814.0,37.0,92.0,3.0,-2.0,-47.0,-5.0,28.0,23.0,2.0973002910614014
439,261.0,67.0,62.0,0.0,4129.0,5851.0,10991.0,9814.0,29.0,10.0,-1.0,-38.0,-38.0,-3.0,-57.0,9.0,2.1008036136627197
440,281.0,78.0,61.0,0.0,4101.0,5857.0,11019.0,9791.0,29.0,10.0,-1.0,-38.0,-38.0,-3.0,-57.0,9.0,2.1079812049865723
441,281.0,78.0,61.0,0.0,4101.0,5857.0,11019.0,9791.0,-1.0,-9.0,-53.0,-28.0,11.0,14.0,13.0,3.0,2.1162757873535156
442,281.0,78.0,61.0,0.0,4101.0,5857.0,11019.0,9791.0,1.0,-42.0,20.0,-17.0,-48.0,-19.0,1.0,-16.0,2.1190788745880127
443,-155.0,107.0,117.0,0.0,4075.0,5861.0,10993.0,9829.0,1.0,-42.0,20.0,-17.0,-48.0,-19.0,1.0,-16.0,2.131971597671509
444,-155.0,107.0,117.0,0.0,4075.0,5861.0,10993.0,9829.0,24.0,38.0,-8.0,-6.0,-13.0,-30.0,-10.0,-2.0,2.135241985321045
445,-155.0,107.0,117.0,0.0,4075.0,5861.0,10993.0,9829.0,-40.0,2.0,48.0,22.0,68.0,40.0,68.0,4.0,2.138300895690918
446,-295.0,122.0,163.0,0.0,4048.0,5864.0,10938.0,9899.0,-40.0,2.0,48.0,22.0,68.0,40.0,68.0,4.0,2.1549410820007324
447,-295.0,122.0,163.0,0.0,4048.0,5864.0,10938.0,9899.0,-1.0,19.0,24.0,-24.0,13.0,22.0,-18.0,-3.0,2.158993721008301
448,-295.0,122.0,163.0,0.0,4048.0,5864.0,10938.0,9899.0,-15.0,26.0,10.0,24.0,30.0,-13.0,-2.0,4.0,2.16098952293396
449,-74.0,129.0,121.0,0.0,4022.0,5863.0,10924.0,9926.0,-15.0,26.0,10.0,24.0,30.0,-13.0,-2.0,4.0,2.1673965454101562
450,-74.0,129.0,121.0,0.0,4022.0,5863.0,10924.0,9926.0,-16.0,15.0,36.0,24.0,-61.0,-64.0,-36.0,-24.0,2.1756374835968018
451,-74.0,129.0,121.0,0.0,4022.0,5863.0,10924.0,9926.0,-14.0,-16.0,5.0,3.0,-8.0,12.0,-42.0,-9.0,2.1774864196777344
452,-67.0,114.0,24.0,0.0,4007.0,5853.0,10926.0,9935.0,-14.0,-16.0,5.0,3.0,-8.0,12.0,-42.0,-9.0,2.1921257972717285
453,-67.0,114.0,24.0,0.0,4007.0,5853.0,10926.0,9935.0,-19.0,-12.0,2.0,14.0,4.0,-11.0,-6.0,6.0,2.194080352783203
454,-67.0,114.0,24.0,0.0,4007.0,5853.0,10926.0,9935.0,32.0,72.0,37.0,17.0,-4.0,-5.0,7.0,14.0,2.195882797241211
455,-229.0,133.0,78.0,0.0,3981.0,5853.0,10903.0,9971.0,32.0,72.0,37.0,17.0,-4.0,-5.0,7.0,14.0,2.215003252029419
456,-229.0,133.0,78.0,0.0,3981.0,5853.0,10903.0,9971.0,-10.0,-50.0,23.0,4.0,1.0,18.0,-17.0,-1.0,2.218393325805664
457,-229.0,133.0,78.0,0.0,3981.0,5853.0,10903.0,9971.0,27.0,39.0,-5.0,-1.0,30.0,18.0,16.0,-1.0,2.2221503257751465
458,-78.0,85.0,85.0,0.0,3956.0,5860.0,10895.0,9986.0,27.0,39.0,-5.0,-1.0,30.0,18.0,16.0,-1.0,2.227424383163452
459,-78.0,85.0,85.0,0.0,3956.0,5860.0,10895.0,9986.0,-3.0,-21.0,-29.0,-6.0,-28.0,-11.0,26.0,2.0,2.2369191646575928
460,-78.0,85.0,85.0,0.0,3956.0,5860.0,10895.0,9986.0,-19.0,-25.0,-33.0,-10.0,-41.0,-11.0,0.0,5.0,2.2402141094207764
461,139.0,4.0,-78.0,0.0,3942.0,5868.0,10916.0,9963.0,-19.0,-25.0,-33.0,-10.0,-41.0,-11.0,0.0,5.0,2.252384662628174
462,139.0,4.0,-78.0,0.0,3942.0,5868.0,10916.0,9963.0,-1.0,-25.0,-15.0,3.0,2.0,13.0,-4.0,3.0,2.2566936016082764
463,139.0,4.0,-78.0,0.0,3942.0,5868.0,10916.0,9963.0,-10.0,-8.0,0.0,5.0,-1.0,-11.0,-3.0,-7.0,2.260265350341797
464,32.0,36.0,-50.0,0.0,3927.0,5871.0,10932.0,9950.0,-10.0,-8.0,0.0,5.0,-1.0,-11.0,-3.0,-7.0,2.2755048274993896
465,32.0,36.0,-50.0,0.0,3927.0,5871.0,10932.0,9950.0,26.0,37.0,3.0,-34.0,-29.0,8.0,11.0,6.0,2.278892755508423
466,32.0,36.0,-50.0,0.0,3927.0,5871.0,10932.0,9950.0,1.0,1.0,-5.0,-6.0,-7.0,8.0,-9.0,-8.0,2.2820284366607666
467,-165.0,94.0,12.0,0.0,3910.0,5869.0,10922.0,9969.0,1.0,1.0,-5.0,-6.0,-7.0,8.0,-9.0,-8.0,2.2879457473754883
468,-165.0,94.0,12.0,0.0,3910.0,5869.0,10922.0,9969.0,8.0,-12.0,20.0,5.0,29.0,34.0,17.0,3.0,2.2957558631896973
469,-165.0,94.0,12.0,0.0,3910.0,5869.0,10922.0,9969.0,27.0,53.0,6.0,-3.0,-17.0,-15.0,-23.0,0.0,2.297529697418213
470,-55.0,114.0,-15.0,0.0,3880.0,5871.0,10917.0,9985.0,27.0,53.0,6.0,-3.0,-17.0,-15.0,-23.0,0.0,2.3121423721313477
471,-55.0,114.0,-15.0,0.0,3880.0,5871.0,10917.0,9985.0,-15.0,-7.0,-4.0,21.0,51.0,36.0,24.0,7.0,2.3154382705688477
472,-55.0,114.0,-15.0,0.0,3880.0,5871.0,10917.0,9985.0,-18.0,-53.0,-8.0,6.0,0.0,6.0,3.0,-4.0,2.318948984146118
473,274.0,-28.0,-92.0,0.0,3853.0,5894.0,10947.0,9949.0,-18.0,-53.0,-8.0,6.0,0.0,6.0,3.0,-4.0,2.3368079662323
474,274.0,-28.0,-92.0,0.0,3853.0,5894.0,10947.0,9949.0,-3.0,-2.0,-8.0,4.0,26.0,-14.0,-15.0,-3.0,2.3411457538604736
475,274.0,-28.0,-92.0,0.0,3853.0,5894.0,10947.0,9949.0,-12.0,-21.0,-14.0,-5.0,-6.0,5.0,11.0,-1.0,2.344414472579956
476,338.0,-102.0,-157.0,0.0,3840.0,5917.0,10987.0,9896.0,-12.0,-21.0,-14.0,-5.0,-6.0,5.0,11.0,-1.0,2.3473141193389893
477,338.0,-102.0,-157.0,0.0,3840.0,5917.0,10987.0,9896.0,5.0,1.0,-17.0,-11.0,-8.0,-10.0,-3.0,1.0,2.3557820320129395
478,338.0,-102.0,-157.0,0.0,3840.0,5917.0,10987.0,9896.0,1.0,-10.0,-20.0,-12.0,-8.0,-8.0,-4.0,0.0,2.3576090335845947
479,251.0,-22.0,-70.0,0.0,3815.0,5938.0,11018.0,9858.0,1.0,-10.0,-20.0,-12.0,-8.0,-8.0,-4.0,0.0,2.371523857116699
480,251.0,-22.0,-70.0,0.0,3815.0,5938.0,11018.0,9858.0,7.0,41.0,59.0,8.0,9.0,-7.0,-2.0,-1.0,2.375901699066162
481,251.0,-22.0,-70.0,0.0,3815.0,5938.0,11018.0,9858.0,7.0,-17.0,-15.0,1.0,-10.0,9.0,7.0,2.0,2.379626989364624
482,310.0,-10.0,-19.0,0.0,3778.0,5966.0,11041.0,9831.0,7.0,-17.0,-15.0,1.0,-10.0,9.0,7.0,2.0,2.394760847091675
483,310.0,-10.0,-19.0,0.0,3778.0,5966.0,11041.0,9831.0,-12.0,-18.0,-13.0,-7.0,5.0,-1.0,-1.0,0.0,2.3986406326293945
484,310.0,-10.0,-19.0,0.0,3778.0,5966.0,11041.0,9831.0,-10.0,2.0,2.0,-8.0,-9.0,-10.0,3.0,0.0,2.4018867015838623
485,626.0,-225.0,-100.0,0.0,3751.0,6019.0,11075.0,9770.0,-10.0,2.0,2.0,-8.0,-9.0,-10.0,3.0,0.0,2.4176106452941895
486,626.0,-225.0,-100.0,0.0,3751.0,6019.0,11075.0,9770.0,-1.0,-13.0,-19.0,-2.0,1.0,1.0,-5.0,-7.0,2.4213016033172607
487,626.0,-225.0,-100.0,0.0,3751.0,6019.0,11075.0,9770.0,2.0,-13.0,-24.0,5.0,9.0,3.0,2.0,1.0,2.4255378246307373
488,1021.0,-507.0,-215.0,0.0,3732.0,6113.0,11144.0,9639.0,2.0,-13.0,-24.0,5.0,9.0,3.0,2.0,1.0,2.4304449558258057
489,1021.0,-507.0,-215.0,0.0,3732.0,6113.0,11144.0,9639.0,3.0,-4.0,7.0,5.0,-14.0,-12.0,6.0,0.0,2.432349443435669
490,1021.0,-507.0,-215.0,0.0,3732.0,6113.0,11144.0,9639.0,6.0,2.0,-18.0,-12.0,-23.0,-4.0,-13.0,-3.0,2.4370391368865967
491,1184.0,-673.0,-215.0,0.0,3699.0,6250.0,11236.0,9457.0,6.0,2.0,-18.0,-12.0,-23.0,-4.0,-13.0,-3.0,2.454895257949829
492,1184.0,-673.0,-215.0,0.0,3699.0,6250.0,11236.0,9457.0,-18.0,-32.0,-39.0,-6.0,-6.0,-2.0,-38.0,-6.0,2.4595866203308105
493,1184.0,-673.0,-215.0,0.0,3699.0,6250.0,11236.0,9457.0,2.0,22.0,16.0,-4.0,1.0,-7.0,0.0,3.0,2.463519811630249
494,1267.0,-780.0,-293.0,0.0,3675.0,6391.0,11339.0,9246.0,2.0,22.0,16.0,-4.0,1.0,-7.0,0.0,3.0,2.4776742458343506
495,1267.0,-780.0,-293.0,0.0,3675.0,6391.0,11339.0,9246.0,-4.0,-5.0,-2.0,-6.0,-5.0,-7.0,16.0,-5.0,2.494084358215332
496,1267.0,-780.0,-293.0,0.0,3675.0,6391.0,11339.0,9246.0,-5.0,0.0,21.0,0.0,4.0,4.0,1.0,-6.0,2.4973504543304443
497,1392.0,-1047.0,-267.0,0.0,3669.0,6564.0,11436.0,9005.0,-5.0,0.0,21.0,0.0,4.0,4.0,1.0,-6.0,2.500074863433838
498,1392.0,-1047.0,-267.0,0.0,3669.0,6564.0,11436.0,9005.0,-7.0,-1.0,8.0,4.0,6.0,5.0,4.0,1.0,2.5022571086883545
499,1392.0,-1047.0,-267.0,0.0,3669.0,6564.0,11436.0,9005.0,-1.0,-8.0,-5.0,-7.0,-9.0,-3.0,-4.0,0.0,2.504058599472046
