,Gyro 0,Gyro 1,Gyro 2,Label,Orientation 0,Orientation 1,Orientation 2,Orientation 3,Sensor 0,Sensor 1,Sensor 2,Sensor 3,Sensor 4,Sensor 5,Sensor 6,Sensor 7,Timestamp
0,-229.0,95.0,135.0,1.0,386.0,10637.0,8134.0,9431.0,0.0,15.0,-2.0,-1.0,-1.0,0.0,-4.0,1.0,2.1457672119140625e-06
1,-229.0,95.0,135.0,1.0,386.0,10637.0,8134.0,9431.0,14.0,17.0,5.0,8.0,2.0,2.0,1.0,3.0,0.002470254898071289
2,-229.0,95.0,135.0,1.0,386.0,10637.0,8134.0,9431.0,-5.0,-8.0,-2.0,-4.0,-1.0,0.0,-3.0,-1.0,0.006024360656738281
3,-229.0,95.0,135.0,1.0,386.0,10637.0,8134.0,9431.0,-6.0,-6.0,-1.0,-5.0,1.0,2.0,-2.0,-3.0,0.010078191757202148
4,-137.0,30.0,133.0,1.0,375.0,10648.0,8097.0,9451.0,-6.0,-6.0,-1.0,-5.0,1.0,2.0,-2.0,-3.0,0.01240229606628418
5,-137.0,30.0,133.0,1.0,375.0,10648.0,8097.0,9451.0,0.0,-3.0,-3.0,-5.0,-4.0,-6.0,-6.0,-4.0,0.014403104782104492
6,-137.0,30.0,133.0,1.0,375.0,10648.0,8097.0,9451.0,-2.0,0.0,-3.0,-3.0,-3.0,-6.0,-3.0,-2.0,0.01627802848815918
7,-131.0,17.0,126.0,1.0,372.0,10657.0,8066.0,9467.0,-2.0,0.0,-3.0,-3.0,-3.0,-6.0,-3.0,-2.0,0.018583059310913086
8,-131.0,17.0,126.0,1.0,372.0,10657.0,8066.0,9467.0,0.0,1.0,5.0,3.0,5.0,-5.0,-12.0,2.0,0.022104263305664062
9,-131.0,17.0,126.0,1.0,372.0,10657.0,8066.0,9467.0,2.0,-7.0,-3.0,-5.0,1.0,2.0,0.0,0.0,0.02493596076965332
10,-93.0,40.0,77.0,1.0,374.0,10658.0,8050.0,9480.0,2.0,-7.0,-3.0,-5.0,1.0,2.0,0.0,0.0,0.02689337730407715
11,-93.0,40.0,77.0,1.0,374.0,10658.0,8050.0,9480.0,-1.0,-3.0,-6.0,2.0,-7.0,1.0,-1.0,-6.0,0.028846263885498047
12,-93.0,40.0,77.0,1.0,374.0,10658.0,8050.0,9480.0,-9.0,-12.0,0.0,1.0,-1.0,-2.0,6.0,-4.0,0.030698299407958984
13,-105.0,83.0,27.0,1.0,380.0,10650.0,8038.0,9498.0,-9.0,-12.0,0.0,1.0,-1.0,-2.0,6.0,-4.0,0.03405046463012695
14,-105.0,83.0,27.0,1.0,380.0,10650.0,8038.0,9498.0,-2.0,-12.0,7.0,3.0,1.0,2.0,-2.0,1.0,0.03620004653930664
15,-105.0,83.0,27.0,1.0,380.0,10650.0,8038.0,9498.0,6.0,23.0,-7.0,-2.0,-4.0,-7.0,2.0,-4.0,0.038062334060668945
16,-112.0,91.0,27.0,1.0,387.0,10642.0,8029.0,9515.0,6.0,23.0,-7.0,-2.0,-4.0,-7.0,2.0,-4.0,0.03990030288696289
17,-112.0,91.0,27.0,1.0,387.0,10642.0,8029.0,9515.0,0.0,-8.0,-2.0,2.0,3.0,4.0,-10.0,-2.0,0.04181313514709473
18,-112.0,91.0,27.0,1.0,387.0,10642.0,8029.0,9515.0,-13.0,-9.0,0.0,0.0,-1.0,-1.0,8.0,0.0,0.04366445541381836
19,-79.0,37.0,24.0,1.0,392.0,10643.0,8022.0,9519.0,-13.0,-9.0,0.0,0.0,-1.0,-1.0,8.0,0.0,0.04577922821044922
20,-79.0,37.0,24.0,1.0,392.0,10643.0,8022.0,9519.0,1.0,9.0,0.0,3.0,-1.0,-3.0,-8.0,2.0,0.04770994186401367
21,-79.0,37.0,24.0,1.0,392.0,10643.0,8022.0,9519.0,-2.0,-3.0,0.0,-9.0,1.0,-7.0,-5.0,-3.0,0.04954195022583008
22,-87.0,16.0,8.0,1.0,400.0,10644.0,8014.0,9525.0,-2.0,-3.0,0.0,-9.0,1.0,-7.0,-5.0,-3.0,0.05183219909667969
23,-87.0,16.0,8.0,1.0,400.0,10644.0,8014.0,9525.0,-3.0,-2.0,3.0,2.0,-2.0,1.0,-3.0,1.0,0.054939985275268555
24,-87.0,16.0,8.0,1.0,400.0,10644.0,8014.0,9525.0,4.0,-2.0,0.0,1.0,-1.0,4.0,13.0,0.0,0.05697751045227051
25,-114.0,41.0,17.0,1.0,408.0,10642.0,8002.0,9538.0,4.0,-2.0,0.0,1.0,-1.0,4.0,13.0,0.0,0.05891013145446777
26,-114.0,41.0,17.0,1.0,408.0,10642.0,8002.0,9538.0,-2.0,10.0,-5.0,-3.0,6.0,2.0,-12.0,-5.0,0.06082415580749512
27,-114.0,41.0,17.0,1.0,408.0,10642.0,8002.0,9538.0,4.0,-12.0,2.0,1.0,-6.0,1.0,2.0,4.0,0.06267952919006348
28,-68.0,43.0,-11.0,1.0,414.0,10636.0,7997.0,9548.0,4.0,-12.0,2.0,1.0,-6.0,1.0,2.0,4.0,0.06464719772338867
29,-68.0,43.0,-11.0,1.0,414.0,10636.0,7997.0,9548.0,-1.0,1.0,-6.0,1.0,-1.0,4.0,-1.0,0.0,0.06807971000671387
30,-68.0,43.0,-11.0,1.0,414.0,10636.0,7997.0,9548.0,0.0,-1.0,-1.0,-6.0,-6.0,0.0,5.0,-1.0,0.06999802589416504
31,-38.0,31.0,-37.0,1.0,426.0,10627.0,8001.0,9554.0,0.0,-1.0,-1.0,-6.0,-6.0,0.0,5.0,-1.0,0.07184743881225586
32,-38.0,31.0,-37.0,1.0,426.0,10627.0,8001.0,9554.0,-3.0,-13.0,1.0,-5.0,2.0,-6.0,1.0,0.0,0.07376790046691895
33,-38.0,31.0,-37.0,1.0,426.0,10627.0,8001.0,9554.0,-7.0,3.0,0.0,7.0,0.0,1.0,0.0,-3.0,0.07558178901672363
34,-78.0,14.0,-7.0,1.0,439.0,10623.0,7997.0,9561.0,-7.0,3.0,0.0,7.0,0.0,1.0,0.0,-3.0,0.07740354537963867
35,-78.0,14.0,-7.0,1.0,439.0,10623.0,7997.0,9561.0,21.0,38.0,15.0,-2.0,-5.0,-4.0,-4.0,0.0,0.07961201667785645
36,-78.0,14.0,-7.0,1.0,439.0,10623.0,7997.0,9561.0,7.0,6.0,0.0,-4.0,-1.0,3.0,1.0,2.0,0.08161306381225586
37,-139.0,31.0,19.0,1.0,449.0,10622.0,7980.0,9576.0,7.0,6.0,0.0,-4.0,-1.0,3.0,1.0,2.0,0.08478784561157227
38,-139.0,31.0,19.0,1.0,449.0,10622.0,7980.0,9576.0,0.0,-8.0,-4.0,-5.0,2.0,1.0,-2.0,0.0,0.08735775947570801
39,-139.0,31.0,19.0,1.0,449.0,10622.0,7980.0,9576.0,-5.0,3.0,-1.0,6.0,4.0,4.0,-4.0,-6.0,0.08926630020141602
40,-139.0,16.0,37.0,1.0,458.0,10625.0,7962.0,9587.0,-5.0,3.0,-1.0,6.0,4.0,4.0,-4.0,-6.0,0.09112358093261719
41,-139.0,16.0,37.0,1.0,458.0,10625.0,7962.0,9587.0,-4.0,-8.0,-2.0,1.0,1.0,0.0,9.0,4.0,0.0930471420288086
42,-139.0,16.0,37.0,1.0,458.0,10625.0,7962.0,9587.0,-8.0,-3.0,-8.0,-6.0,-5.0,0.0,5.0,-2.0,0.09491467475891113
43,-127.0,1.0,6.0,1.0,471.0,10626.0,7948.0,9597.0,-8.0,-3.0,-8.0,-6.0,-5.0,0.0,5.0,-2.0,0.09679841995239258
44,-127.0,1.0,6.0,1.0,471.0,10626.0,7948.0,9597.0,-3.0,-8.0,3.0,-2.0,-4.0,-2.0,-3.0,1.0,0.10030817985534668
45,-127.0,1.0,6.0,1.0,471.0,10626.0,7948.0,9597.0,-1.0,4.0,0.0,-6.0,2.0,-9.0,-9.0,0.0,0.10230851173400879
46,-81.0,-33.0,14.0,1.0,481.0,10631.0,7938.0,9599.0,-1.0,4.0,0.0,-6.0,2.0,-9.0,-9.0,0.0,0.10416722297668457
47,-81.0,-33.0,14.0,1.0,481.0,10631.0,7938.0,9599.0,-4.0,-7.0,-2.0,-4.0,-2.0,0.0,-8.0,-6.0,0.10608386993408203
48,-81.0,-33.0,14.0,1.0,481.0,10631.0,7938.0,9599.0,4.0,2.0,7.0,2.0,9.0,2.0,-1.0,-2.0,0.1079552173614502
49,-123.0,-58.0,-10.0,1.0,503.0,10637.0,7928.0,9600.0,4.0,2.0,7.0,2.0,9.0,2.0,-1.0,-2.0,0.10977983474731445
50,-123.0,-58.0,-10.0,1.0,503.0,10637.0,7928.0,9600.0,-3.0,-3.0,-6.0,-6.0,4.0,-10.0,-5.0,-2.0,0.11207461357116699
51,-123.0,-58.0,-10.0,1.0,503.0,10637.0,7928.0,9600.0,-2.0,1.0,-12.0,5.0,-6.0,4.0,-1.0,0.0,0.1157684326171875
52,-195.0,-83.0,-24.0,1.0,537.0,10643.0,7912.0,9604.0,-2.0,1.0,-12.0,5.0,-6.0,4.0,-1.0,0.0,0.11902594566345215
53,-195.0,-83.0,-24.0,1.0,537.0,10643.0,7912.0,9604.0,-5.0,-4.0,14.0,4.0,-4.0,8.0,2.0,0.0,0.12100648880004883
54,-195.0,-83.0,-24.0,1.0,537.0,10643.0,7912.0,9604.0,2.0,-4.0,0.0,5.0,1.0,-10.0,-3.0,0.0,0.12288427352905273
55,-200.0,-130.0,-21.0,1.0,572.0,10654.0,7893.0,9606.0,2.0,-4.0,0.0,5.0,1.0,-10.0,-3.0,0.0,0.12473440170288086
56,-200.0,-130.0,-21.0,1.0,572.0,10654.0,7893.0,9606.0,-11.0,-3.0,-1.0,-3.0,-10.0,-6.0,-2.0,-4.0,0.12665081024169922
57,-200.0,-130.0,-21.0,1.0,572.0,10654.0,7893.0,9606.0,6.0,17.0,3.0,0.0,-1.0,3.0,3.0,5.0,0.12877488136291504
58,-79.0,-124.0,11.0,1.0,590.0,10669.0,7883.0,9597.0,6.0,17.0,3.0,0.0,-1.0,3.0,3.0,5.0,0.13065838813781738
59,-79.0,-124.0,11.0,1.0,590.0,10669.0,7883.0,9597.0,4.0,-3.0,-4.0,20.0,6.0,6.0,1.0,-4.0,0.1325831413269043
60,-79.0,-124.0,11.0,1.0,590.0,10669.0,7883.0,9597.0,1.0,-13.0,-20.0,-4.0,-6.0,0.0,2.0,1.0,0.13442301750183105
61,106.0,-142.0,49.0,1.0,582.0,10692.0,7888.0,9567.0,1.0,-13.0,-20.0,-4.0,-6.0,0.0,2.0,1.0,0.13628029823303223
62,106.0,-142.0,49.0,1.0,582.0,10692.0,7888.0,9567.0,7.0,-2.0,-17.0,-6.0,-8.0,-6.0,0.0,5.0,0.13820290565490723
63,106.0,-142.0,49.0,1.0,582.0,10692.0,7888.0,9567.0,1.0,-3.0,3.0,-12.0,-4.0,-1.0,0.0,0.0,0.1400282382965088
64,146.0,-128.0,31.0,1.0,578.0,10709.0,7903.0,9536.0,1.0,-3.0,3.0,-12.0,-4.0,-1.0,0.0,0.0,0.1419084072113037
65,146.0,-128.0,31.0,1.0,578.0,10709.0,7903.0,9536.0,-4.0,0.0,9.0,3.0,5.0,16.0,7.0,3.0,0.1452183723449707
66,146.0,-128.0,31.0,1.0,578.0,10709.0,7903.0,9536.0,-8.0,0.0,9.0,6.0,5.0,0.0,0.0,-2.0,0.14773011207580566
67,55.0,-119.0,20.0,1.0,581.0,10725.0,7909.0,9512.0,-8.0,0.0,9.0,6.0,5.0,0.0,0.0,-2.0,0.15097522735595703
68,55.0,-119.0,20.0,1.0,581.0,10725.0,7909.0,9512.0,4.0,-9.0,-31.0,-15.0,-8.0,-7.0,-4.0,1.0,0.15299654006958008
69,55.0,-119.0,20.0,1.0,581.0,10725.0,7909.0,9512.0,0.0,18.0,12.0,7.0,5.0,6.0,5.0,1.0,0.1549053192138672
70,28.0,-100.0,43.0,1.0,585.0,10741.0,7910.0,9494.0,0.0,18.0,12.0,7.0,5.0,6.0,5.0,1.0,0.15680694580078125
71,28.0,-100.0,43.0,1.0,585.0,10741.0,7910.0,9494.0,1.0,3.0,14.0,6.0,9.0,-1.0,-1.0,0.0,0.1587378978729248
72,28.0,-100.0,43.0,1.0,585.0,10741.0,7910.0,9494.0,2.0,-12.0,-20.0,-4.0,-20.0,1.0,26.0,2.0,0.16057419776916504
73,57.0,-99.0,38.0,1.0,580.0,10759.0,7912.0,9473.0,2.0,-12.0,-20.0,-4.0,-20.0,1.0,26.0,2.0,0.16275334358215332
74,57.0,-99.0,38.0,1.0,580.0,10759.0,7912.0,9473.0,-2.0,-2.0,8.0,0.0,-3.0,2.0,-2.0,-10.0,0.16466975212097168
75,57.0,-99.0,38.0,1.0,580.0,10759.0,7912.0,9473.0,1.0,11.0,10.0,4.0,0.0,-9.0,-18.0,-8.0,0.16649723052978516
76,92.0,-109.0,-5.0,1.0,578.0,10771.0,7921.0,9450.0,1.0,11.0,10.0,4.0,0.0,-9.0,-18.0,-8.0,0.16832423210144043
77,92.0,-109.0,-5.0,1.0,578.0,10771.0,7921.0,9450.0,2.0,9.0,-1.0,15.0,9.0,1.0,9.0,7.0,0.17022180557250977
78,92.0,-109.0,-5.0,1.0,578.0,10771.0,7921.0,9450.0,-6.0,-7.0,-3.0,-19.0,11.0,3.0,-4.0,-1.0,0.17202544212341309
79,83.0,-79.0,-44.0,1.0,584.0,10774.0,7937.0,9433.0,-6.0,-7.0,-3.0,-19.0,11.0,3.0,-4.0,-1.0,0.1739640235900879
80,83.0,-79.0,-44.0,1.0,584.0,10774.0,7937.0,9433.0,-1.0,3.0,-1.0,-1.0,4.0,-2.0,-6.0,0.0,0.17721176147460938
81,83.0,-79.0,-44.0,1.0,584.0,10774.0,7937.0,9433.0,6.0,6.0,4.0,11.0,4.0,2.0,-4.0,-4.0,0.17925810813903809
82,81.0,-54.0,-52.0,1.0,588.0,10775.0,7954.0,9417.0,6.0,6.0,4.0,11.0,4.0,2.0,-4.0,-4.0,0.18129253387451172
83,81.0,-54.0,-52.0,1.0,588.0,10775.0,7954.0,9417.0,6.0,8.0,6.0,-3.0,-6.0,2.0,4.0,-1.0,0.18428540229797363
84,81.0,-54.0,-52.0,1.0,588.0,10775.0,7954.0,9417.0,-5.0,-14.0,-10.0,-10.0,-7.0,-10.0,-14.0,-3.0,0.18622589111328125
85,-23.0,-60.0,-67.0,1.0,607.0,10776.0,7964.0,9407.0,-5.0,-14.0,-10.0,-10.0,-7.0,-10.0,-14.0,-3.0,0.18805766105651855
86,-23.0,-60.0,-67.0,1.0,607.0,10776.0,7964.0,9407.0,-4.0,-1.0,1.0,-2.0,2.0,-1.0,4.0,0.0,0.18997621536254883
87,-23.0,-60.0,-67.0,1.0,607.0,10776.0,7964.0,9407.0,-8.0,-29.0,-3.0,3.0,6.0,-9.0,-12.0,1.0,0.19179010391235352
88,1.0,-21.0,-35.0,1.0,606.0,10781.0,7967.0,9399.0,-8.0,-29.0,-3.0,3.0,6.0,-9.0,-12.0,1.0,0.19361186027526855
89,1.0,-21.0,-35.0,1.0,606.0,10781.0,7967.0,9399.0,-1.0,2.0,-4.0,-15.0,-6.0,-8.0,-11.0,-2.0,0.19579458236694336
90,1.0,-21.0,-35.0,1.0,606.0,10781.0,7967.0,9399.0,-4.0,-16.0,-4.0,4.0,-2.0,3.0,2.0,-4.0,0.19764471054077148
91,130.0,8.0,-22.0,1.0,577.0,10787.0,7975.0,9387.0,-4.0,-16.0,-4.0,4.0,-2.0,3.0,2.0,-4.0,0.19945788383483887
92,130.0,8.0,-22.0,1.0,577.0,10787.0,7975.0,9387.0,13.0,40.0,22.0,13.0,1.0,1.0,-7.0,-1.0,0.20138192176818848
93,130.0,8.0,-22.0,1.0,577.0,10787.0,7975.0,9387.0,4.0,5.0,-3.0,1.0,-8.0,-10.0,-5.0,3.0,0.20325422286987305
94,210.0,42.0,-42.0,1.0,548.0,10782.0,7999.0,9374.0,4.0,5.0,-3.0,1.0,-8.0,-10.0,-5.0,3.0,0.2052137851715088
95,210.0,42.0,-42.0,1.0,548.0,10782.0,7999.0,9374.0,-10.0,-9.0,-1.0,-3.0,1.0,3.0,6.0,3.0,0.20843720436096191
96,210.0,42.0,-42.0,1.0,548.0,10782.0,7999.0,9374.0,-1.0,8.0,1.0,-2.0,0.0,-2.0,-3.0,-3.0,0.21040749549865723
97,118.0,31.0,-20.0,1.0,546.0,10774.0,8022.0,9364.0,-1.0,8.0,1.0,-2.0,0.0,-2.0,-3.0,-3.0,0.21228289604187012
98,118.0,31.0,-20.0,1.0,546.0,10774.0,8022.0,9364.0,-3.0,-12.0,-4.0,-1.0,-6.0,-8.0,-3.0,-2.0,0.21430087089538574
99,118.0,31.0,-20.0,1.0,546.0,10774.0,8022.0,9364.0,2.0,5.0,4.0,-4.0,-5.0,11.0,3.0,3.0,0.21746397018432617
100,16.0,-6.0,12.0,1.0,544.0,10774.0,8021.0,9365.0,2.0,5.0,4.0,-4.0,-5.0,11.0,3.0,3.0,0.21937203407287598
101,16.0,-6.0,12.0,1.0,544.0,10774.0,8021.0,9365.0,3.0,-6.0,-10.0,-8.0,-3.0,2.0,-4.0,-4.0,0.22130537033081055
102,16.0,-6.0,12.0,1.0,544.0,10774.0,8021.0,9365.0,-3.0,3.0,10.0,17.0,1.0,0.0,0.0,0.0,0.22316670417785645
103,62.0,19.0,34.0,1.0,533.0,10772.0,8022.0,9366.0,-3.0,3.0,10.0,17.0,1.0,0.0,0.0,0.0,0.2250223159790039
104,62.0,19.0,34.0,1.0,533.0,10772.0,8022.0,9366.0,-3.0,-12.0,-11.0,-2.0,-6.0,-3.0,-8.0,-1.0,0.22693729400634766
105,62.0,19.0,34.0,1.0,533.0,10772.0,8022.0,9366.0,10.0,-6.0,11.0,2.0,4.0,11.0,18.0,8.0,0.22902369499206543
106,85.0,-1.0,46.0,1.0,520.0,10773.0,8024.0,9364.0,10.0,-6.0,11.0,2.0,4.0,11.0,18.0,8.0,0.23087549209594727
107,85.0,-1.0,46.0,1.0,520.0,10773.0,8024.0,9364.0,-5.0,-3.0,-7.0,-4.0,-4.0,-5.0,3.0,-2.0,0.23276925086975098
108,85.0,-1.0,46.0,1.0,520.0,10773.0,8024.0,9364.0,-7.0,12.0,4.0,-8.0,-13.0,-4.0,-6.0,-6.0,0.23459339141845703
109,63.0,-14.0,57.0,1.0,512.0,10781.0,8029.0,9352.0,-7.0,12.0,4.0,-8.0,-13.0,-4.0,-6.0,-6.0,0.23729419708251953
110,63.0,-14.0,57.0,1.0,512.0,10781.0,8029.0,9352.0,-5.0,-8.0,-1.0,-1.0,6.0,5.0,-8.0,-5.0,0.23986434936523438
111,63.0,-14.0,57.0,1.0,512.0,10781.0,8029.0,9352.0,0.0,2.0,8.0,10.0,6.0,4.0,-4.0,4.0,0.24176263809204102
112,44.0,-89.0,4.0,1.0,529.0,10787.0,8042.0,9333.0,0.0,2.0,8.0,10.0,6.0,4.0,-4.0,4.0,0.24360942840576172
113,44.0,-89.0,4.0,1.0,529.0,10787.0,8042.0,9333.0,2.0,-6.0,-8.0,3.0,-11.0,-20.0,-1.0,-1.0,0.24557709693908691
114,44.0,-89.0,4.0,1.0,529.0,10787.0,8042.0,9333.0,-6.0,-2.0,0.0,-13.0,-2.0,-7.0,-3.0,-7.0,0.2474064826965332
115,-55.0,-83.0,-48.0,1.0,558.0,10789.0,8050.0,9322.0,-6.0,-2.0,0.0,-13.0,-2.0,-7.0,-3.0,-7.0,0.250138521194458
116,-55.0,-83.0,-48.0,1.0,558.0,10789.0,8050.0,9322.0,-1.0,5.0,22.0,0.0,9.0,5.0,0.0,2.0,0.2526400089263916
117,-55.0,-83.0,-48.0,1.0,558.0,10789.0,8050.0,9322.0,-2.0,-4.0,-8.0,17.0,-2.0,2.0,-2.0,-1.0,0.25450992584228516
118,-11.0,2.0,-85.0,1.0,570.0,10781.0,8062.0,9319.0,-2.0,-4.0,-8.0,17.0,-2.0,2.0,-2.0,-1.0,0.25633907318115234
119,-11.0,2.0,-85.0,1.0,570.0,10781.0,8062.0,9319.0,-5.0,-14.0,-11.0,10.0,7.0,8.0,1.0,0.0,0.2582516670227051
120,-11.0,2.0,-85.0,1.0,570.0,10781.0,8062.0,9319.0,5.0,7.0,-3.0,-6.0,-2.0,2.0,-3.0,1.0,0.2600698471069336
121,-47.0,40.0,4.0,1.0,580.0,10775.0,8063.0,9325.0,5.0,7.0,-3.0,-6.0,-2.0,2.0,-3.0,1.0,0.2621729373931885
122,-47.0,40.0,4.0,1.0,580.0,10775.0,8063.0,9325.0,-8.0,-8.0,-9.0,-13.0,-6.0,-1.0,5.0,-4.0,0.26413440704345703
123,-47.0,40.0,4.0,1.0,580.0,10775.0,8063.0,9325.0,0.0,1.0,-7.0,-7.0,4.0,11.0,-2.0,0.0,0.2660980224609375
124,-64.0,-5.0,-3.0,1.0,590.0,10774.0,8057.0,9331.0,0.0,1.0,-7.0,-7.0,4.0,11.0,-2.0,0.0,0.2693326473236084
125,-64.0,-5.0,-3.0,1.0,590.0,10774.0,8057.0,9331.0,-3.0,3.0,-19.0,-16.0,-7.0,-1.0,4.0,-3.0,0.27138328552246094
126,-64.0,-5.0,-3.0,1.0,590.0,10774.0,8057.0,9331.0,-5.0,-1.0,15.0,-6.0,-12.0,-19.0,-2.0,-1.0,0.273252010345459
127,88.0,-29.0,-3.0,1.0,578.0,10780.0,8065.0,9317.0,-5.0,-1.0,15.0,-6.0,-12.0,-19.0,-2.0,-1.0,0.27511143684387207
128,88.0,-29.0,-3.0,1.0,578.0,10780.0,8065.0,9317.0,-4.0,-1.0,7.0,1.0,-9.0,2.0,-4.0,3.0,0.2770218849182129
129,88.0,-29.0,-3.0,1.0,578.0,10780.0,8065.0,9317.0,2.0,-3.0,-9.0,-5.0,-9.0,-3.0,-5.0,-4.0,0.27887701988220215
130,116.0,-13.0,11.0,1.0,568.0,10782.0,8078.0,9305.0,2.0,-3.0,-9.0,-5.0,-9.0,-3.0,-5.0,-4.0,0.2807307243347168
131,116.0,-13.0,11.0,1.0,568.0,10782.0,8078.0,9305.0,3.0,-5.0,-1.0,-2.0,3.0,-9.0,-8.0,-2.0,0.28418397903442383
132,116.0,-13.0,11.0,1.0,568.0,10782.0,8078.0,9305.0,-4.0,7.0,3.0,-6.0,1.0,-5.0,-2.0,2.0,0.286146879196167
133,-37.0,26.0,27.0,1.0,573.0,10781.0,8076.0,9308.0,-4.0,7.0,3.0,-6.0,1.0,-5.0,-2.0,2.0,0.2880072593688965
134,-37.0,26.0,27.0,1.0,573.0,10781.0,8076.0,9308.0,-4.0,-19.0,0.0,3.0,3.0,16.0,7.0,1.0,0.2899610996246338
135,-37.0,26.0,27.0,1.0,573.0,10781.0,8076.0,9308.0,3.0,5.0,-1.0,8.0,10.0,-1.0,-5.0,1.0,0.3013291358947754
136,-34.0,5.0,35.0,1.0,575.0,10781.0,8069.0,9313.0,3.0,5.0,-1.0,8.0,10.0,-1.0,-5.0,1.0,0.30327725410461426
137,-34.0,5.0,35.0,1.0,575.0,10781.0,8069.0,9313.0,-2.0,10.0,17.0,2.0,3.0,-12.0,-16.0,-1.0,0.30719804763793945
138,-34.0,5.0,35.0,1.0,575.0,10781.0,8069.0,9313.0,1.0,-1.0,-6.0,-5.0,-5.0,-3.0,-3.0,-1.0,0.3237752914428711
139,44.0,-21.0,30.0,1.0,569.0,10790.0,8073.0,9300.0,1.0,-1.0,-6.0,-5.0,-5.0,-3.0,-3.0,-1.0,0.32558250427246094
140,44.0,-21.0,30.0,1.0,569.0,10790.0,8073.0,9300.0,-4.0,12.0,-2.0,3.0,-3.0,-3.0,-1.0,-3.0,0.327716588973999
141,44.0,-21.0,30.0,1.0,569.0,10790.0,8073.0,9300.0,-13.0,-4.0,-12.0,-4.0,4.0,6.0,-8.0,-1.0,0.33765149116516113
142,119.0,-36.0,-32.0,1.0,565.0,10791.0,8091.0,9283.0,-13.0,-4.0,-12.0,-4.0,4.0,6.0,-8.0,-1.0,0.3458082675933838
143,119.0,-36.0,-32.0,1.0,565.0,10791.0,8091.0,9283.0,0.0,19.0,-2.0,-2.0,5.0,2.0,8.0,-2.0,0.3477160930633545
144,119.0,-36.0,-32.0,1.0,565.0,10791.0,8091.0,9283.0,4.0,-12.0,-14.0,-10.0,-15.0,-1.0,5.0,-3.0,0.36114501953125
145,57.0,-49.0,-73.0,1.0,578.0,10790.0,8113.0,9264.0,4.0,-12.0,-14.0,-10.0,-15.0,-1.0,5.0,-3.0,0.3648049831390381
146,57.0,-49.0,-73.0,1.0,578.0,10790.0,8113.0,9264.0,4.0,0.0,-1.0,2.0,0.0,5.0,3.0,1.0,0.36907362937927246
147,-36.0,-43.0,-60.0,1.0,601.0,10789.0,8124.0,9254.0,4.0,0.0,-1.0,2.0,0.0,5.0,3.0,1.0,0.3832437992095947
148,-36.0,-43.0,-60.0,1.0,601.0,10789.0,8124.0,9254.0,-5.0,4.0,-15.0,-9.0,-19.0,-14.0,-4.0,0.0,0.3851315975189209
149,-36.0,-43.0,-60.0,1.0,601.0,10789.0,8124.0,9254.0,6.0,-14.0,-7.0,2.0,11.0,3.0,-10.0,0.0,0.39145779609680176
150,-191.0,-4.0,-34.0,1.0,630.0,10791.0,8117.0,9257.0,6.0,-14.0,-7.0,2.0,11.0,3.0,-10.0,0.0,0.40615034103393555
151,-191.0,-4.0,-34.0,1.0,630.0,10791.0,8117.0,9257.0,-12.0,-27.0,-22.0,6.0,7.0,4.0,2.0,-4.0,0.408022403717041
152,-191.0,-4.0,-34.0,1.0,630.0,10791.0,8117.0,9257.0,10.0,25.0,-11.0,-6.0,-1.0,-2.0,-3.0,0.0,0.40981578826904297
153,-216.0,-16.0,32.0,1.0,653.0,10800.0,8096.0,9262.0,10.0,25.0,-11.0,-6.0,-1.0,-2.0,-3.0,0.0,0.4302849769592285
154,-216.0,-16.0,32.0,1.0,653.0,10800.0,8096.0,9262.0,-11.0,-24.0,-14.0,1.0,6.0,4.0,-5.0,2.0,0.43440794944763184
155,-216.0,-16.0,32.0,1.0,653.0,10800.0,8096.0,9262.0,-1.0,10.0,0.0,13.0,8.0,7.0,-8.0,-1.0,0.4364748001098633
156,-93.0,37.0,15.0,1.0,645.0,10809.0,8082.0,9265.0,-1.0,10.0,0.0,13.0,8.0,7.0,-8.0,-1.0,0.4429306983947754
157,-93.0,37.0,15.0,1.0,645.0,10809.0,8082.0,9265.0,4.0,9.0,20.0,3.0,8.0,1.0,-7.0,0.0,0.4454474449157715
158,-93.0,37.0,15.0,1.0,645.0,10809.0,8082.0,9265.0,-2.0,-26.0,4.0,-10.0,-14.0,-5.0,-6.0,0.0,0.4498403072357178
159,162.0,107.0,-5.0,1.0,611.0,10804.0,8099.0,9258.0,-2.0,-26.0,4.0,-10.0,-14.0,-5.0,-6.0,0.0,0.4679419994354248
160,162.0,107.0,-5.0,1.0,611.0,10804.0,8099.0,9258.0,5.0,29.0,25.0,8.0,6.0,6.0,-4.0,1.0,0.47002410888671875
161,162.0,107.0,-5.0,1.0,611.0,10804.0,8099.0,9258.0,3.0,19.0,-2.0,-12.0,-20.0,-2.0,8.0,3.0,0.47188568115234375
162,238.0,114.0,24.0,1.0,576.0,10793.0,8124.0,9252.0,3.0,19.0,-2.0,-12.0,-20.0,-2.0,8.0,3.0,0.4898340702056885
163,238.0,114.0,24.0,1.0,576.0,10793.0,8124.0,9252.0,-1.0,-16.0,10.0,-1.0,20.0,6.0,-2.0,2.0,0.4929628372192383
164,238.0,114.0,24.0,1.0,576.0,10793.0,8124.0,9252.0,-5.0,-7.0,1.0,-11.0,-19.0,-10.0,-10.0,-3.0,0.49596452713012695
165,114.0,63.0,6.0,1.0,569.0,10780.0,8140.0,9253.0,-5.0,-7.0,1.0,-11.0,-19.0,-10.0,-10.0,-3.0,0.5025146007537842
166,114.0,63.0,6.0,1.0,569.0,10780.0,8140.0,9253.0,4.0,-1.0,0.0,5.0,13.0,8.0,0.0,-1.0,0.5108497142791748
167,114.0,63.0,6.0,1.0,569.0,10780.0,8140.0,9253.0,2.0,9.0,-4.0,2.0,7.0,-4.0,1.0,1.0,0.5135452747344971
168,-53.0,49.0,7.0,1.0,577.0,10769.0,8135.0,9270.0,2.0,9.0,-4.0,2.0,7.0,-4.0,1.0,1.0,0.527271032333374
169,-53.0,49.0,7.0,1.0,577.0,10769.0,8135.0,9270.0,4.0,9.0,3.0,10.0,-1.0,-3.0,-5.0,-1.0,0.5309221744537354
170,-53.0,49.0,7.0,1.0,577.0,10769.0,8135.0,9270.0,-4.0,-11.0,-8.0,-7.0,-9.0,-5.0,-4.0,-2.0,0.5341343879699707
171,-71.0,17.0,22.0,1.0,582.0,10765.0,8122.0,9285.0,-4.0,-11.0,-8.0,-7.0,-9.0,-5.0,-4.0,-2.0,0.5511338710784912
172,-71.0,17.0,22.0,1.0,582.0,10765.0,8122.0,9285.0,17.0,18.0,5.0,-11.0,-16.0,-4.0,-2.0,1.0,0.5534138679504395
173,-71.0,17.0,22.0,1.0,582.0,10765.0,8122.0,9285.0,-2.0,3.0,4.0,1.0,8.0,-1.0,-3.0,1.0,0.555309534072876
174,-65.0,40.0,20.0,1.0,582.0,10760.0,8110.0,9301.0,-2.0,3.0,4.0,1.0,8.0,-1.0,-3.0,1.0,0.563490629196167
175,-65.0,40.0,20.0,1.0,582.0,10760.0,8110.0,9301.0,-9.0,-8.0,8.0,-3.0,-14.0,-5.0,-4.0,-3.0,0.5654129981994629
176,-65.0,40.0,20.0,1.0,582.0,10760.0,8110.0,9301.0,-7.0,2.0,6.0,10.0,27.0,6.0,5.0,-2.0,0.5698847770690918
177,-71.0,68.0,13.0,1.0,585.0,10754.0,8104.0,9314.0,-7.0,2.0,6.0,10.0,27.0,6.0,5.0,-2.0,0.5862827301025391
178,-71.0,68.0,13.0,1.0,585.0,10754.0,8104.0,9314.0,2.0,0.0,8.0,2.0,15.0,3.0,9.0,-3.0,0.5881805419921875
179,-71.0,68.0,13.0,1.0,585.0,10754.0,8104.0,9314.0,-3.0,-25.0,15.0,11.0,2.0,-3.0,3.0,-3.0,0.5899910926818848
180,-74.0,39.0,27.0,1.0,588.0,10753.0,8095.0,9322.0,-3.0,-25.0,15.0,11.0,2.0,-3.0,3.0,-3.0,0.6098177433013916
181,-74.0,39.0,27.0,1.0,588.0,10753.0,8095.0,9322.0,9.0,1.0,-4.0,1.0,-7.0,-2.0,-7.0,-2.0,0.6131026744842529
182,-74.0,39.0,27.0,1.0,588.0,10753.0,8095.0,9322.0,8.0,24.0,-5.0,14.0,17.0,4.0,-2.0,-2.0,0.6170518398284912
183,-74.0,28.0,28.0,1.0,589.0,10754.0,8084.0,9330.0,8.0,24.0,-5.0,14.0,17.0,4.0,-2.0,-2.0,0.6230871677398682
184,-74.0,28.0,28.0,1.0,589.0,10754.0,8084.0,9330.0,2.0,-8.0,3.0,-2.0,9.0,7.0,6.0,2.0,0.6305723190307617
185,-74.0,28.0,28.0,1.0,589.0,10754.0,8084.0,9330.0,-9.0,7.0,9.0,-4.0,-19.0,-6.0,-1.0,-4.0,0.6323957443237305
186,-64.0,43.0,30.0,1.0,589.0,10753.0,8075.0,9339.0,-9.0,7.0,9.0,-4.0,-19.0,-6.0,-1.0,-4.0,0.6472373008728027
187,-64.0,43.0,30.0,1.0,589.0,10753.0,8075.0,9339.0,-3.0,4.0,-4.0,-3.0,-12.0,-8.0,-6.0,0.0,0.6515758037567139
188,-64.0,43.0,30.0,1.0,589.0,10753.0,8075.0,9339.0,-10.0,-7.0,7.0,-7.0,-5.0,4.0,3.0,2.0,0.6536200046539307
189,-10.0,34.0,29.0,1.0,582.0,10753.0,8070.0,9345.0,-10.0,-7.0,7.0,-7.0,-5.0,4.0,3.0,2.0,0.6699678897857666
190,-10.0,34.0,29.0,1.0,582.0,10753.0,8070.0,9345.0,-10.0,-7.0,-1.0,1.0,0.0,1.0,4.0,-1.0,0.6719906330108643
191,-10.0,34.0,29.0,1.0,582.0,10753.0,8070.0,9345.0,-7.0,-10.0,-8.0,-2.0,-4.0,-4.0,-10.0,-7.0,0.6738040447235107
192,0.0,17.0,43.0,1.0,573.0,10755.0,8061.0,9350.0,-7.0,-10.0,-8.0,-2.0,-4.0,-4.0,-10.0,-7.0,0.6830470561981201
193,0.0,17.0,43.0,1.0,573.0,10755.0,8061.0,9350.0,-11.0,-20.0,-4.0,-11.0,1.0,-5.0,-5.0,-3.0,0.6905770301818848
194,0.0,17.0,43.0,1.0,573.0,10755.0,8061.0,9350.0,1.0,2.0,-9.0,1.0,2.0,3.0,-5.0,1.0,0.6924483776092529
195,-6.0,34.0,26.0,1.0,569.0,10752.0,8058.0,9357.0,1.0,2.0,-9.0,1.0,2.0,3.0,-5.0,1.0,0.7068886756896973
196,-6.0,34.0,26.0,1.0,569.0,10752.0,8058.0,9357.0,2.0,-11.0,-8.0,0.0,-3.0,-6.0,-1.0,-1.0,0.7105381488800049
197,-6.0,34.0,26.0,1.0,569.0,10752.0,8058.0,9357.0,3.0,25.0,11.0,-7.0,-9.0,-3.0,3.0,0.0,0.7139842510223389
198,-3.0,28.0,9.0,1.0,567.0,10749.0,8057.0,9362.0,3.0,25.0,11.0,-7.0,-9.0,-3.0,3.0,0.0,0.7292881011962891
199,-3.0,28.0,9.0,1.0,567.0,10749.0,8057.0,9362.0,0.0,9.0,-6.0,9.0,29.0,12.0,2.0,0.0,0.7357273101806641
200,-3.0,28.0,9.0,1.0,567.0,10749.0,8057.0,9362.0,4.0,-8.0,4.0,-5.0,-8.0,-6.0,0.0,1.0,0.7375626564025879
201,26.0,3.0,7.0,1.0,563.0,10749.0,8058.0,9361.0,4.0,-8.0,4.0,-5.0,-8.0,-6.0,0.0,1.0,0.742279052734375
202,26.0,3.0,7.0,1.0,563.0,10749.0,8058.0,9361.0,-3.0,13.0,-10.0,1.0,-6.0,-6.0,1.0,-6.0,0.750565767288208
203,26.0,3.0,7.0,1.0,563.0,10749.0,8058.0,9361.0,6.0,-5.0,-9.0,2.0,10.0,5.0,3.0,4.0,0.752382755279541
204,22.0,15.0,16.0,1.0,558.0,10748.0,8058.0,9362.0,6.0,-5.0,-9.0,2.0,10.0,5.0,3.0,4.0,0.7682664394378662
205,22.0,15.0,16.0,1.0,558.0,10748.0,8058.0,9362.0,-2.0,4.0,6.0,3.0,0.0,-8.0,0.0,0.0,0.7721917629241943
206,22.0,15.0,16.0,1.0,558.0,10748.0,8058.0,9362.0,-3.0,-26.0,-14.0,-12.0,-2.0,-1.0,4.0,-3.0,0.7758941650390625
207,23.0,35.0,43.0,1.0,551.0,10745.0,8057.0,9366.0,-3.0,-26.0,-14.0,-12.0,-2.0,-1.0,4.0,-3.0,0.7885537147521973
208,23.0,35.0,43.0,1.0,551.0,10745.0,8057.0,9366.0,13.0,26.0,-14.0,-5.0,-9.0,3.0,-4.0,0.0,0.792381763458252
209,23.0,35.0,43.0,1.0,551.0,10745.0,8057.0,9366.0,-7.0,-34.0,-15.0,-2.0,-1.0,-2.0,-5.0,-6.0,0.7956702709197998
210,67.0,16.0,46.0,1.0,543.0,10747.0,8062.0,9361.0,-7.0,-34.0,-15.0,-2.0,-1.0,-2.0,-5.0,-6.0,0.8029139041900635
211,67.0,16.0,46.0,1.0,543.0,10747.0,8062.0,9361.0,-9.0,-20.0,-1.0,-12.0,-18.0,-5.0,-6.0,0.0,0.8105909824371338
212,67.0,16.0,46.0,1.0,543.0,10747.0,8062.0,9361.0,-3.0,1.0,-2.0,-2.0,9.0,0.0,-3.0,-4.0,0.812713623046875
213,80.0,-36.0,72.0,1.0,535.0,10755.0,8065.0,9348.0,-3.0,1.0,-2.0,-2.0,9.0,0.0,-3.0,-4.0,0.8268661499023438
214,80.0,-36.0,72.0,1.0,535.0,10755.0,8065.0,9348.0,0.0,-12.0,-8.0,3.0,-1.0,-4.0,-3.0,2.0,0.8302388191223145
215,80.0,-36.0,72.0,1.0,535.0,10755.0,8065.0,9348.0,8.0,5.0,-1.0,0.0,-8.0,1.0,8.0,3.0,0.834749698638916
216,26.0,-42.0,84.0,1.0,533.0,10764.0,8061.0,9342.0,8.0,5.0,-1.0,0.0,-8.0,1.0,8.0,3.0,0.8485445976257324
217,26.0,-42.0,84.0,1.0,533.0,10764.0,8061.0,9342.0,-5.0,-39.0,0.0,-3.0,-6.0,2.0,-4.0,-2.0,0.8506033420562744
218,26.0,-42.0,84.0,1.0,533.0,10764.0,8061.0,9342.0,-9.0,4.0,10.0,3.0,-1.0,-3.0,-3.0,-2.0,0.8531467914581299
219,-11.0,-13.0,98.0,1.0,535.0,10771.0,8055.0,9339.0,-9.0,4.0,10.0,3.0,-1.0,-3.0,-3.0,-2.0,0.8622832298278809
220,-11.0,-13.0,98.0,1.0,535.0,10771.0,8055.0,9339.0,-13.0,-4.0,9.0,0.0,4.0,2.0,4.0,5.0,0.8705422878265381
221,-11.0,-13.0,98.0,1.0,535.0,10771.0,8055.0,9339.0,3.0,-5.0,-9.0,-5.0,-9.0,1.0,-5.0,0.0,0.872380256652832
222,18.0,-17.0,116.0,1.0,531.0,10781.0,8049.0,9333.0,3.0,-5.0,-9.0,-5.0,-9.0,1.0,-5.0,0.0,0.8864409923553467
223,18.0,-17.0,116.0,1.0,531.0,10781.0,8049.0,9333.0,-6.0,14.0,13.0,-4.0,-9.0,-13.0,-11.0,-3.0,0.8883724212646484
224,18.0,-17.0,116.0,1.0,531.0,10781.0,8049.0,9333.0,5.0,3.0,3.0,9.0,8.0,5.0,5.0,4.0,0.8902096748352051
225,43.0,-52.0,117.0,1.0,527.0,10794.0,8045.0,9322.0,5.0,3.0,3.0,9.0,8.0,5.0,5.0,4.0,0.9092288017272949
226,43.0,-52.0,117.0,1.0,527.0,10794.0,8045.0,9322.0,13.0,22.0,3.0,-11.0,-7.0,0.0,-1.0,-2.0,0.9115593433380127
227,43.0,-52.0,117.0,1.0,527.0,10794.0,8045.0,9322.0,6.0,19.0,5.0,4.0,5.0,3.0,-5.0,2.0,0.9147152900695801
228,25.0,-54.0,95.0,1.0,529.0,10804.0,8041.0,9314.0,6.0,19.0,5.0,4.0,5.0,3.0,-5.0,2.0,0.9223911762237549
229,25.0,-54.0,95.0,1.0,529.0,10804.0,8041.0,9314.0,-4.0,-5.0,-9.0,6.0,4.0,5.0,11.0,3.0,0.9312894344329834
230,25.0,-54.0,95.0,1.0,529.0,10804.0,8041.0,9314.0,0.0,-3.0,-5.0,-1.0,3.0,3.0,-4.0,0.0,0.9343054294586182
231,37.0,-62.0,79.0,1.0,531.0,10812.0,8040.0,9305.0,0.0,-3.0,-5.0,-1.0,3.0,3.0,-4.0,0.0,0.9478573799133301
232,37.0,-62.0,79.0,1.0,531.0,10812.0,8040.0,9305.0,16.0,1.0,-32.0,0.0,4.0,5.0,-8.0,1.0,0.9521620273590088
233,37.0,-62.0,79.0,1.0,531.0,10812.0,8040.0,9305.0,-2.0,-1.0,-16.0,-6.0,-7.0,1.0,6.0,2.0,0.9553990364074707
234,54.0,-68.0,84.0,1.0,530.0,10823.0,8039.0,9293.0,-2.0,-1.0,-16.0,-6.0,-7.0,1.0,6.0,2.0,0.968557596206665
235,54.0,-68.0,84.0,1.0,530.0,10823.0,8039.0,9293.0,-10.0,-11.0,-3.0,8.0,4.0,-8.0,-3.0,-5.0,0.9715712070465088
236,54.0,-68.0,84.0,1.0,530.0,10823.0,8039.0,9293.0,-12.0,-23.0,1.0,-3.0,-4.0,-3.0,2.0,-1.0,0.975043535232544
237,96.0,-118.0,72.0,1.0,534.0,10836.0,8045.0,9273.0,-12.0,-23.0,1.0,-3.0,-4.0,-3.0,2.0,-1.0,0.9839658737182617
238,96.0,-118.0,72.0,1.0,534.0,10836.0,8045.0,9273.0,12.0,39.0,6.0,4.0,8.0,5.0,16.0,4.0,0.990713357925415
239,96.0,-118.0,72.0,1.0,534.0,10836.0,8045.0,9273.0,-6.0,7.0,0.0,-6.0,-2.0,-1.0,-9.0,-3.0,0.9925153255462646
240,75.0,-156.0,57.0,1.0,542.0,10851.0,8048.0,9252.0,-6.0,7.0,0.0,-6.0,-2.0,-1.0,-9.0,-3.0,1.0056071281433105
241,75.0,-156.0,57.0,1.0,542.0,10851.0,8048.0,9252.0,-6.0,3.0,12.0,-2.0,-4.0,2.0,3.0,0.0,1.0132031440734863
242,75.0,-156.0,57.0,1.0,542.0,10851.0,8048.0,9252.0,8.0,-9.0,-9.0,0.0,-4.0,-2.0,2.0,-2.0,1.0155212879180908
243,79.0,-177.0,38.0,1.0,553.0,10865.0,8052.0,9231.0,8.0,-9.0,-9.0,0.0,-4.0,-2.0,2.0,-2.0,1.0288681983947754
244,79.0,-177.0,38.0,1.0,553.0,10865.0,8052.0,9231.0,-5.0,-1.0,-7.0,2.0,-1.0,-2.0,0.0,-5.0,1.032222032546997
245,79.0,-177.0,38.0,1.0,553.0,10865.0,8052.0,9231.0,-23.0,-17.0,-6.0,-114.0,-12.0,-32.0,-5.0,3.0,1.0361344814300537
246,111.0,-225.0,1.0,1.0,567.0,10881.0,8063.0,9202.0,-23.0,-17.0,-6.0,-114.0,-12.0,-32.0,-5.0,3.0,1.042773723602295
247,111.0,-225.0,1.0,1.0,567.0,10881.0,8063.0,9202.0,-14.0,10.0,9.0,-97.0,-19.0,-15.0,-10.0,7.0,1.051290512084961
248,111.0,-225.0,1.0,1.0,567.0,10881.0,8063.0,9202.0,5.0,13.0,8.0,58.0,9.0,10.0,-10.0,-7.0,1.0531339645385742
249,131.0,-253.0,-27.0,1.0,588.0,10897.0,8081.0,9166.0,5.0,13.0,8.0,58.0,9.0,10.0,-10.0,-7.0,1.0662593841552734
250,131.0,-253.0,-27.0,1.0,588.0,10897.0,8081.0,9166.0,19.0,21.0,-6.0,106.0,8.0,14.0,-3.0,0.0,1.0692048072814941
251,131.0,-253.0,-27.0,1.0,588.0,10897.0,8081.0,9166.0,9.0,-24.0,5.0,111.0,29.0,21.0,10.0,0.0,1.0711603164672852
252,127.0,-266.0,-90.0,1.0,618.0,10905.0,8104.0,9134.0,9.0,-24.0,5.0,111.0,29.0,21.0,10.0,0.0,1.0886175632476807
253,127.0,-266.0,-90.0,1.0,618.0,10905.0,8104.0,9134.0,-1.0,-23.0,-4.0,53.0,1.0,-3.0,-9.0,-12.0,1.0905165672302246
254,127.0,-266.0,-90.0,1.0,618.0,10905.0,8104.0,9134.0,7.0,-15.0,-9.0,14.0,-5.0,1.0,2.0,0.0,1.092311143875122
255,169.0,-261.0,-167.0,1.0,654.0,10905.0,8142.0,9098.0,7.0,-15.0,-9.0,14.0,-5.0,1.0,2.0,0.0,1.111276626586914
256,169.0,-261.0,-167.0,1.0,654.0,10905.0,8142.0,9098.0,14.0,49.0,15.0,20.0,1.0,0.0,-3.0,1.0,1.1132636070251465
257,169.0,-261.0,-167.0,1.0,654.0,10905.0,8142.0,9098.0,-3.0,43.0,13.0,18.0,-8.0,1.0,12.0,1.0,1.1172094345092773
258,260.0,-234.0,-249.0,1.0,686.0,10893.0,8199.0,9059.0,-3.0,43.0,13.0,18.0,-8.0,1.0,12.0,1.0,1.126060962677002
259,260.0,-234.0,-249.0,1.0,686.0,10893.0,8199.0,9059.0,-13.0,-26.0,-24.0,-39.0,-16.0,0.0,7.0,-4.0,1.1285028457641602
260,260.0,-234.0,-249.0,1.0,686.0,10893.0,8199.0,9059.0,7.0,-3.0,-7.0,-8.0,1.0,-3.0,0.0,2.0,1.1332087516784668
261,329.0,-152.0,-347.0,1.0,726.0,10853.0,8276.0,9034.0,7.0,-3.0,-7.0,-8.0,1.0,-3.0,0.0,2.0,1.1486618518829346
262,329.0,-152.0,-347.0,1.0,726.0,10853.0,8276.0,9034.0,23.0,16.0,14.0,0.0,3.0,4.0,0.0,3.0,1.1505608558654785
263,329.0,-152.0,-347.0,1.0,726.0,10853.0,8276.0,9034.0,-6.0,-9.0,2.0,-40.0,-16.0,-8.0,-6.0,-2.0,1.1523449420928955
264,192.0,-72.0,-556.0,1.0,810.0,10777.0,8369.0,9031.0,-6.0,-9.0,2.0,-40.0,-16.0,-8.0,-6.0,-2.0,1.171919345855713
265,192.0,-72.0,-556.0,1.0,810.0,10777.0,8369.0,9031.0,-8.0,-36.0,8.0,4.0,12.0,-9.0,-36.0,-5.0,1.1750364303588867
266,192.0,-72.0,-556.0,1.0,810.0,10777.0,8369.0,9031.0,1.0,4.0,-7.0,9.0,-8.0,4.0,-13.0,1.0,1.1782386302947998
267,60.0,13.0,-790.0,1.0,936.0,10667.0,8486.0,9040.0,1.0,4.0,-7.0,9.0,-8.0,4.0,-13.0,1.0,1.186086654663086
268,60.0,13.0,-790.0,1.0,936.0,10667.0,8486.0,9040.0,-5.0,2.0,-28.0,-19.0,-6.0,-1.0,3.0,-9.0,1.1880991458892822
269,60.0,13.0,-790.0,1.0,936.0,10667.0,8486.0,9040.0,-9.0,-11.0,32.0,35.0,1.0,1.0,2.0,-1.0,1.1926579475402832
270,-29.0,-11.0,-991.0,1.0,1113.0,10529.0,8621.0,9054.0,-9.0,-11.0,32.0,35.0,1.0,1.0,2.0,-1.0,1.2086009979248047
271,-29.0,-11.0,-991.0,1.0,1113.0,10529.0,8621.0,9054.0,-22.0,-45.0,18.0,36.0,45.0,7.0,1.0,4.0,1.21185302734375
272,-29.0,-11.0,-991.0,1.0,1113.0,10529.0,8621.0,9054.0,-14.0,-18.0,-6.0,44.0,3.0,8.0,0.0,-7.0,1.2151126861572266
273,-305.0,127.0,-1210.0,1.0,1323.0,10349.0,8745.0,9114.0,-14.0,-18.0,-6.0,44.0,3.0,8.0,0.0,-7.0,1.2332763671875
274,-305.0,127.0,-1210.0,1.0,1323.0,10349.0,8745.0,9114.0,20.0,-16.0,18.0,68.0,22.0,15.0,22.0,-8.0,1.2371869087219238
275,-305.0,127.0,-1210.0,1.0,1323.0,10349.0,8745.0,9114.0,-4.0,-19.0,20.0,2.0,4.0,11.0,17.0,2.0,1.2406067848205566
276,-459.0,340.0,-1356.0,1.0,1554.0,10124.0,8873.0,9207.0,-4.0,-19.0,20.0,2.0,4.0,11.0,17.0,2.0,1.2466464042663574
277,-459.0,340.0,-1356.0,1.0,1554.0,10124.0,8873.0,9207.0,-53.0,-49.0,-31.0,-56.0,-2.0,-27.0,-30.0,-13.0,1.2486143112182617
278,-459.0,340.0,-1356.0,1.0,1554.0,10124.0,8873.0,9207.0,11.0,13.0,-28.0,-59.0,-9.0,-25.0,-25.0,-9.0,1.2526001930236816
279,-785.0,407.0,-1510.0,1.0,1854.0,9854.0,8997.0,9323.0,11.0,13.0,-28.0,-59.0,-9.0,-25.0,-25.0,-9.0,1.268866777420044
280,-785.0,407.0,-1510.0,1.0,1854.0,9854.0,8997.0,9323.0,2.0,83.0,10.0,-87.0,-23.0,0.0,10.0,-2.0,1.2707924842834473
281,-785.0,407.0,-1510.0,1.0,1854.0,9854.0,8997.0,9323.0,-6.0,14.0,1.0,-28.0,1.0,-4.0,3.0,5.0,1.272599697113037
282,-1101.0,328.0,-1855.0,1.0,2150.0,9597.0,9092.0,9435.0,-6.0,14.0,1.0,-28.0,1.0,-4.0,3.0,5.0,1.2917115688323975
283,-1101.0,328.0,-1855.0,1.0,2150.0,9597.0,9092.0,9435.0,2.0,1.0,13.0,-21.0,-20.0,-2.0,6.0,2.0,1.29360032081604
284,-1101.0,328.0,-1855.0,1.0,2150.0,9597.0,9092.0,9435.0,-16.0,-18.0,-11.0,-7.0,6.0,-2.0,-8.0,-2.0,1.2954108715057373
285,-1325.0,429.0,-2078.0,1.0,2475.0,9299.0,9181.0,9567.0,-16.0,-18.0,-11.0,-7.0,6.0,-2.0,-8.0,-2.0,1.305614709854126
286,-1325.0,429.0,-2078.0,1.0,2475.0,9299.0,9181.0,9567.0,18.0,24.0,-12.0,-4.0,-13.0,1.0,2.0,7.0,1.307535171508789
287,-1325.0,429.0,-2078.0,1.0,2475.0,9299.0,9181.0,9567.0,2.0,-4.0,4.0,15.0,9.0,-3.0,-8.0,-2.0,1.3127379417419434
288,-1656.0,630.0,-2241.0,1.0,2829.0,8946.0,9251.0,9736.0,2.0,-4.0,4.0,15.0,9.0,-3.0,-8.0,-2.0,1.3287103176116943
289,-1656.0,630.0,-2241.0,1.0,2829.0,8946.0,9251.0,9736.0,2.0,-31.0,10.0,8.0,-10.0,-3.0,-4.0,2.0,1.3321478366851807
290,-1656.0,630.0,-2241.0,1.0,2829.0,8946.0,9251.0,9736.0,0.0,5.0,21.0,23.0,-4.0,-9.0,-4.0,2.0,1.336233377456665
291,-2094.0,673.0,-2652.0,1.0,3254.0,8529.0,9303.0,9926.0,0.0,5.0,21.0,23.0,-4.0,-9.0,-4.0,2.0,1.3527979850769043
292,-2094.0,673.0,-2652.0,1.0,3254.0,8529.0,9303.0,9926.0,-5.0,-18.0,-13.0,7.0,-10.0,-2.0,0.0,3.0,1.355983018875122
293,-2094.0,673.0,-2652.0,1.0,3254.0,8529.0,9303.0,9926.0,-6.0,5.0,-6.0,-4.0,-1.0,8.0,4.0,4.0,1.358515977859497
294,-2323.0,669.0,-2910.0,1.0,3713.0,8072.0,9339.0,10112.0,-6.0,5.0,-6.0,-4.0,-1.0,8.0,4.0,4.0,1.3651280403137207
295,-2323.0,669.0,-2910.0,1.0,3713.0,8072.0,9339.0,10112.0,6.0,1.0,7.0,8.0,7.0,5.0,5.0,1.0,1.3738951683044434
296,-2323.0,669.0,-2910.0,1.0,3713.0,8072.0,9339.0,10112.0,10.0,14.0,-20.0,-13.0,-1.0,0.0,0.0,-2.0,1.3774986267089844
297,-2639.0,667.0,-3220.0,1.0,4223.0,7562.0,9352.0,10292.0,10.0,14.0,-20.0,-13.0,-1.0,0.0,0.0,-2.0,1.3897242546081543
298,-2639.0,667.0,-3220.0,1.0,4223.0,7562.0,9352.0,10292.0,8.0,9.0,20.0,-2.0,-1.0,0.0,1.0,0.0,1.3930456638336182
299,-2639.0,667.0,-3220.0,1.0,4223.0,7562.0,9352.0,10292.0,1.0,21.0,-12.0,0.0,-4.0,0.0,5.0,0.0,1.3965370655059814
300,-2992.0,813.0,-3521.0,1.0,4760.0,6981.0,9335.0,10482.0,1.0,21.0,-12.0,0.0,-4.0,0.0,5.0,0.0,1.411482810974121
301,-2992.0,813.0,-3521.0,1.0,4760.0,6981.0,9335.0,10482.0,-10.0,-8.0,10.0,9.0,-1.0,0.0,-1.0,2.0,1.413642406463623
302,-2992.0,813.0,-3521.0,1.0,4760.0,6981.0,9335.0,10482.0,-3.0,-20.0,24.0,-8.0,-4.0,-1.0,1.0,-7.0,1.418318271636963
303,-2951.0,966.0,-3755.0,1.0,5281.0,6355.0,9323.0,10640.0,-3.0,-20.0,24.0,-8.0,-4.0,-1.0,1.0,-7.0,1.4257283210754395
304,-2951.0,966.0,-3755.0,1.0,5281.0,6355.0,9323.0,10640.0,4.0,-2.0,7.0,16.0,-1.0,-3.0,4.0,2.0,1.4333696365356445
305,-2951.0,966.0,-3755.0,1.0,5281.0,6355.0,9323.0,10640.0,-5.0,-13.0,-13.0,-15.0,-8.0,-5.0,-3.0,2.0,1.4351754188537598
306,-2764.0,928.0,-3999.0,1.0,5805.0,5706.0,9324.0,10734.0,-5.0,-13.0,-13.0,-15.0,-8.0,-5.0,-3.0,2.0,1.447918176651001
307,-2764.0,928.0,-3999.0,1.0,5805.0,5706.0,9324.0,10734.0,2.0,-1.0,-4.0,-13.0,-2.0,1.0,-7.0,2.0,1.4569637775421143
308,-2764.0,928.0,-3999.0,1.0,5805.0,5706.0,9324.0,10734.0,0.0,1.0,20.0,-2.0,-2.0,3.0,6.0,-2.0,1.4602417945861816
309,-2787.0,719.0,-4080.0,1.0,6350.0,5051.0,9291.0,10782.0,0.0,1.0,20.0,-2.0,-2.0,3.0,6.0,-2.0,1.4716949462890625
310,-2787.0,719.0,-4080.0,1.0,6350.0,5051.0,9291.0,10782.0,0.0,-10.0,-15.0,3.0,3.0,1.0,2.0,-3.0,1.4736442565917969
311,-2787.0,719.0,-4080.0,1.0,6350.0,5051.0,9291.0,10782.0,7.0,9.0,1.0,17.0,0.0,2.0,-1.0,-2.0,1.475452184677124
312,-2593.0,606.0,-4106.0,1.0,6884.0,4403.0,9247.0,10776.0,7.0,9.0,1.0,17.0,0.0,2.0,-1.0,-2.0,1.4853949546813965
313,-2593.0,606.0,-4106.0,1.0,6884.0,4403.0,9247.0,10776.0,0.0,6.0,15.0,-5.0,2.0,2.0,-4.0,1.0,1.493102788925171
314,-2593.0,606.0,-4106.0,1.0,6884.0,4403.0,9247.0,10776.0,5.0,-13.0,-70.0,-34.0,-2.0,5.0,-7.0,-5.0,1.49521803855896
315,-2314.0,569.0,-4177.0,1.0,7395.0,3764.0,9217.0,10705.0,5.0,-13.0,-70.0,-34.0,-2.0,5.0,-7.0,-5.0,1.5088047981262207
316,-2314.0,569.0,-4177.0,1.0,7395.0,3764.0,9217.0,10705.0,-6.0,8.0,-24.0,-12.0,-2.0,-4.0,0.0,-1.0,1.5120413303375244
317,-2314.0,569.0,-4177.0,1.0,7395.0,3764.0,9217.0,10705.0,-12.0,8.0,-24.0,-4.0,-2.0,-3.0,4.0,-1.0,1.515796422958374
318,-2619.0,492.0,-4241.0,1.0,7911.0,3097.0,9123.0,10630.0,-12.0,8.0,-24.0,-4.0,-2.0,-3.0,4.0,-1.0,1.5345814228057861
319,-2619.0,492.0,-4241.0,1.0,7911.0,3097.0,9123.0,10630.0,6.0,1.0,52.0,0.0,-3.0,0.0,3.0,4.0,1.5389001369476318
320,-2619.0,492.0,-4241.0,1.0,7911.0,3097.0,9123.0,10630.0,32.0,23.0,43.0,2.0,0.0,-5.0,8.0,7.0,1.5422701835632324
321,-2892.0,480.0,-4288.0,1.0,8424.0,2391.0,8968.0,10550.0,32.0,23.0,43.0,2.0,0.0,-5.0,8.0,7.0,1.5444550514221191
322,-2892.0,480.0,-4288.0,1.0,8424.0,2391.0,8968.0,10550.0,-8.0,-16.0,-46.0,16.0,-2.0,-3.0,-3.0,-7.0,1.5531589984893799
323,-2892.0,480.0,-4288.0,1.0,8424.0,2391.0,8968.0,10550.0,-7.0,-1.0,-40.0,7.0,-8.0,-7.0,-6.0,-6.0,1.555074691772461
324,-2747.0,443.0,-4386.0,1.0,8927.0,1679.0,8800.0,10414.0,-7.0,-1.0,-40.0,7.0,-8.0,-7.0,-6.0,-6.0,1.5697133541107178
325,-2747.0,443.0,-4386.0,1.0,8927.0,1679.0,8800.0,10414.0,6.0,12.0,-14.0,7.0,-1.0,0.0,-7.0,2.0,1.57289719581604
326,-2747.0,443.0,-4386.0,1.0,8927.0,1679.0,8800.0,10414.0,13.0,6.0,81.0,14.0,0.0,-11.0,1.0,4.0,1.5759491920471191
327,-2581.0,326.0,-4548.0,1.0,9430.0,974.0,8618.0,10212.0,13.0,6.0,81.0,14.0,0.0,-11.0,1.0,4.0,1.592050552368164
328,-2581.0,326.0,-4548.0,1.0,9430.0,974.0,8618.0,10212.0,-2.0,25.0,-5.0,-16.0,-5.0,-3.0,1.0,0.0,1.5953052043914795
329,-2581.0,326.0,-4548.0,1.0,9430.0,974.0,8618.0,10212.0,6.0,12.0,-6.0,-16.0,-4.0,-3.0,2.0,-2.0,1.5989539623260498
330,-2534.0,318.0,-4553.0,1.0,9902.0,272.0,8419.0,9971.0,6.0,12.0,-6.0,-16.0,-4.0,-3.0,2.0,-2.0,1.6056020259857178
331,-2534.0,318.0,-4553.0,1.0,9902.0,272.0,8419.0,9971.0,-14.0,-44.0,31.0,0.0,-1.0,1.0,-1.0,-15.0,1.6132407188415527
332,-2534.0,318.0,-4553.0,1.0,9902.0,272.0,8419.0,9971.0,-4.0,18.0,32.0,6.0,-4.0,-3.0,-3.0,0.0,1.6150991916656494
333,-2645.0,312.0,-4616.0,1.0,10351.0,-454.0,8183.0,9700.0,-4.0,18.0,32.0,6.0,-4.0,-3.0,-3.0,0.0,1.628661870956421
334,-2645.0,312.0,-4616.0,1.0,10351.0,-454.0,8183.0,9700.0,-5.0,-5.0,-10.0,-3.0,9.0,5.0,2.0,-3.0,1.6318504810333252
335,-2645.0,312.0,-4616.0,1.0,10351.0,-454.0,8183.0,9700.0,-24.0,-59.0,-25.0,-8.0,-29.0,-13.0,4.0,-9.0,1.6358387470245361
336,-2265.0,364.0,-4767.0,1.0,10786.0,-1165.0,7961.0,9346.0,-24.0,-59.0,-25.0,-8.0,-29.0,-13.0,4.0,-9.0,1.6522002220153809
337,-2265.0,364.0,-4767.0,1.0,10786.0,-1165.0,7961.0,9346.0,15.0,-29.0,-46.0,-4.0,-1.0,3.0,-2.0,10.0,1.656419038772583
338,-2265.0,364.0,-4767.0,1.0,10786.0,-1165.0,7961.0,9346.0,-2.0,19.0,33.0,-1.0,4.0,1.0,7.0,3.0,1.6590545177459717
339,-1680.0,252.0,-4869.0,1.0,11217.0,-1811.0,7754.0,8899.0,-2.0,19.0,33.0,-1.0,4.0,1.0,7.0,3.0,1.6662023067474365
340,-1680.0,252.0,-4869.0,1.0,11217.0,-1811.0,7754.0,8899.0,-19.0,-29.0,13.0,3.0,-18.0,-16.0,-12.0,-9.0,1.6732208728790283
341,-1680.0,252.0,-4869.0,1.0,11217.0,-1811.0,7754.0,8899.0,13.0,15.0,23.0,-5.0,-6.0,6.0,-1.0,1.0,1.675027847290039
342,-1295.0,270.0,-4944.0,1.0,11628.0,-2420.0,7560.0,8378.0,13.0,15.0,23.0,-5.0,-6.0,6.0,-1.0,1.0,1.6888046264648438
343,-1295.0,270.0,-4944.0,1.0,11628.0,-2420.0,7560.0,8378.0,16.0,-7.0,18.0,24.0,69.0,29.0,11.0,4.0,1.6918206214904785
344,-1295.0,270.0,-4944.0,1.0,11628.0,-2420.0,7560.0,8378.0,29.0,67.0,-13.0,-39.0,-63.0,-39.0,-41.0,-13.0,1.694819688796997
345,-857.0,308.0,-4911.0,1.0,12012.0,-2972.0,7381.0,7798.0,29.0,67.0,-13.0,-39.0,-63.0,-39.0,-41.0,-13.0,1.7128856182098389
346,-857.0,308.0,-4911.0,1.0,12012.0,-2972.0,7381.0,7798.0,-36.0,-16.0,-15.0,-3.0,-25.0,-20.0,-11.0,-17.0,1.7172346115112305
347,-857.0,308.0,-4911.0,1.0,12012.0,-2972.0,7381.0,7798.0,15.0,-3.0,-35.0,11.0,50.0,35.0,29.0,3.0,1.7212293148040771
348,-955.0,331.0,-4802.0,1.0,12347.0,-3522.0,7176.0,7216.0,15.0,-3.0,-35.0,11.0,50.0,35.0,29.0,3.0,1.7249281406402588
349,-955.0,331.0,-4802.0,1.0,12347.0,-3522.0,7176.0,7216.0,31.0,-6.0,-25.0,7.0,6.0,-8.0,20.0,5.0,1.7351796627044678
350,-955.0,331.0,-4802.0,1.0,12347.0,-3522.0,7176.0,7216.0,-13.0,-64.0,-13.0,-2.0,-17.0,16.0,50.0,11.0,1.7382214069366455
351,-1247.0,243.0,-4483.0,1.0,12618.0,-4079.0,6926.0,6678.0,-13.0,-64.0,-13.0,-2.0,-17.0,16.0,50.0,11.0,1.7505590915679932
352,-1247.0,243.0,-4483.0,1.0,12618.0,-4079.0,6926.0,6678.0,-27.0,14.0,24.0,15.0,6.0,14.0,5.0,2.0,1.75278902053833
353,-1247.0,243.0,-4483.0,1.0,12618.0,-4079.0,6926.0,6678.0,0.0,18.0,1.0,47.0,106.0,74.0,83.0,24.0,1.7547240257263184
354,-1679.0,351.0,-3744.0,1.0,12783.0,-4653.0,6662.0,6244.0,0.0,18.0,1.0,47.0,106.0,74.0,83.0,24.0,1.772794485092163
355,-1679.0,351.0,-3744.0,1.0,12783.0,-4653.0,6662.0,6244.0,-24.0,-22.0,-43.0,-89.0,-104.0,-106.0,-90.0,-60.0,1.7753949165344238
356,-1679.0,351.0,-3744.0,1.0,12783.0,-4653.0,6662.0,6244.0,-3.0,-3.0,-9.0,42.0,74.0,48.0,70.0,-12.0,1.7778735160827637
357,-1896.0,1010.0,-3107.0,1.0,12814.0,-5265.0,6495.0,5857.0,-3.0,-3.0,-9.0,42.0,74.0,48.0,70.0,-12.0,1.7852849960327148
358,-1896.0,1010.0,-3107.0,1.0,12814.0,-5265.0,6495.0,5857.0,61.0,79.0,37.0,99.0,88.0,116.0,127.0,62.0,1.7933986186981201
359,-1896.0,1010.0,-3107.0,1.0,12814.0,-5265.0,6495.0,5857.0,-29.0,-1.0,-21.0,-89.0,-126.0,-116.0,-82.0,32.0,1.7955658435821533
360,-1538.0,1684.0,-1826.0,1.0,12717.0,-5714.0,6524.0,5612.0,-29.0,-1.0,-21.0,-89.0,-126.0,-116.0,-82.0,32.0,1.7997369766235352
361,-1538.0,1684.0,-1826.0,1.0,12717.0,-5714.0,6524.0,5612.0,-28.0,-50.0,15.0,51.0,41.0,17.0,-49.0,12.0,1.810176134109497
362,-1538.0,1684.0,-1826.0,1.0,12717.0,-5714.0,6524.0,5612.0,7.0,-6.0,19.0,89.0,84.0,68.0,88.0,1.0,1.813720941543579
363,-562.0,1676.0,-355.0,1.0,12581.0,-5919.0,6699.0,5497.0,7.0,-6.0,19.0,89.0,84.0,68.0,88.0,1.0,1.8224453926086426
364,-562.0,1676.0,-355.0,1.0,12581.0,-5919.0,6699.0,5497.0,-31.0,-10.0,-36.0,23.0,99.0,-57.0,-79.0,-18.0,1.8315443992614746
365,-562.0,1676.0,-355.0,1.0,12581.0,-5919.0,6699.0,5497.0,-1.0,-17.0,-15.0,-28.0,-11.0,-65.0,-118.0,-38.0,1.834796667098999
366,-71.0,1620.0,1129.0,1.0,12388.0,-5942.0,6989.0,5551.0,-1.0,-17.0,-15.0,-28.0,-11.0,-65.0,-118.0,-38.0,1.8384690284729004
367,-71.0,1620.0,1129.0,1.0,12388.0,-5942.0,6989.0,5551.0,-3.0,11.0,6.0,-59.0,-2.0,27.0,-45.0,-7.0,1.8465373516082764
368,-71.0,1620.0,1129.0,1.0,12388.0,-5942.0,6989.0,5551.0,-8.0,-15.0,-7.0,48.0,25.0,20.0,-84.0,40.0,1.8496119976043701
369,-38.0,1268.0,2006.0,1.0,12163.0,-5869.0,7285.0,5741.0,-8.0,-15.0,-7.0,48.0,25.0,20.0,-84.0,40.0,1.8597958087921143
370,-38.0,1268.0,2006.0,1.0,12163.0,-5869.0,7285.0,5741.0,46.0,63.0,45.0,-40.0,-88.0,-104.0,-13.0,0.0,1.8684747219085693
371,-38.0,1268.0,2006.0,1.0,12163.0,-5869.0,7285.0,5741.0,16.0,33.0,37.0,-5.0,-7.0,68.0,57.0,-10.0,1.8710980415344238
372,172.0,149.0,3399.0,1.0,11941.0,-5581.0,7528.0,6164.0,16.0,33.0,37.0,-5.0,-7.0,68.0,57.0,-10.0,1.8835275173187256
373,172.0,149.0,3399.0,1.0,11941.0,-5581.0,7528.0,6164.0,0.0,-20.0,3.0,-9.0,-38.0,-6.0,27.0,-4.0,1.9005601406097412
374,172.0,149.0,3399.0,1.0,11941.0,-5581.0,7528.0,6164.0,-10.0,-21.0,-43.0,-2.0,33.0,43.0,-50.0,-24.0,1.904642105102539
375,257.0,-636.0,5337.0,1.0,11653.0,-5085.0,7740.0,6845.0,-10.0,-21.0,-43.0,-2.0,33.0,43.0,-50.0,-24.0,1.9080007076263428
376,257.0,-636.0,5337.0,1.0,11653.0,-5085.0,7740.0,6845.0,-4.0,6.0,27.0,28.0,47.0,68.0,68.0,-3.0,1.910860300064087
377,257.0,-636.0,5337.0,1.0,11653.0,-5085.0,7740.0,6845.0,13.0,6.0,20.0,20.0,52.0,23.0,85.0,27.0,1.9128715991973877
378,143.0,-817.0,6666.0,1.0,11219.0,-4450.0,7972.0,7694.0,13.0,6.0,20.0,20.0,52.0,23.0,85.0,27.0,1.9199445247650146
379,143.0,-817.0,6666.0,1.0,11219.0,-4450.0,7972.0,7694.0,6.0,-18.0,-40.0,-17.0,31.0,12.0,8.0,-12.0,1.9285767078399658
380,143.0,-817.0,6666.0,1.0,11219.0,-4450.0,7972.0,7694.0,7.0,37.0,20.0,5.0,17.0,-15.0,-19.0,-14.0,1.9307787418365479
381,419.0,-1099.0,7734.0,1.0,10650.0,-3628.0,8214.0,8622.0,7.0,37.0,20.0,5.0,17.0,-15.0,-19.0,-14.0,1.9518158435821533
382,419.0,-1099.0,7734.0,1.0,10650.0,-3628.0,8214.0,8622.0,34.0,57.0,15.0,24.0,-10.0,-11.0,17.0,17.0,1.95432448387146
383,419.0,-1099.0,7734.0,1.0,10650.0,-3628.0,8214.0,8622.0,31.0,-38.0,76.0,-88.0,-54.0,-26.0,-55.0,10.0,1.957535743713379
384,630.0,-1778.0,8226.0,1.0,10019.0,-2640.0,8357.0,9551.0,31.0,-38.0,76.0,-88.0,-54.0,-26.0,-55.0,10.0,1.967456340789795
385,630.0,-1778.0,8226.0,1.0,10019.0,-2640.0,8357.0,9551.0,-56.0,-7.0,-56.0,-41.0,-45.0,-24.0,-52.0,-6.0,1.9732608795166016
386,630.0,-1778.0,8226.0,1.0,10019.0,-2640.0,8357.0,9551.0,34.0,45.0,48.0,-8.0,-33.0,9.0,-18.0,-3.0,1.975186824798584
387,844.0,-2479.0,7377.0,1.0,9466.0,-1611.0,8357.0,10314.0,34.0,45.0,48.0,-8.0,-33.0,9.0,-18.0,-3.0,1.9881749153137207
388,844.0,-2479.0,7377.0,1.0,9466.0,-1611.0,8357.0,10314.0,-14.0,-46.0,-32.0,-43.0,2.0,42.0,-58.0,-31.0,1.9908061027526855
389,844.0,-2479.0,7377.0,1.0,9466.0,-1611.0,8357.0,10314.0,-88.0,-65.0,-48.0,-39.0,-68.0,-81.0,-49.0,-5.0,1.9961791038513184
390,3143.0,-1995.0,8129.0,1.0,8747.0,-319.0,8606.0,10851.0,-88.0,-65.0,-48.0,-39.0,-68.0,-81.0,-49.0,-5.0,2.0130562782287598
391,3143.0,-1995.0,8129.0,1.0,8747.0,-319.0,8606.0,10851.0,39.0,-23.0,-14.0,-34.0,19.0,5.0,45.0,13.0,2.017296075820923
392,3143.0,-1995.0,8129.0,1.0,8747.0,-319.0,8606.0,10851.0,-40.0,-113.0,-105.0,-6.0,20.0,-24.0,-119.0,-41.0,2.021243095397949
393,4703.0,-1882.0,7620.0,1.0,7998.0,1063.0,8965.0,11088.0,-40.0,-113.0,-105.0,-6.0,20.0,-24.0,-119.0,-41.0,2.0254504680633545
394,4703.0,-1882.0,7620.0,1.0,7998.0,1063.0,8965.0,11088.0,-3.0,-6.0,32.0,26.0,55.0,92.0,65.0,-6.0,2.0339906215667725
395,4703.0,-1882.0,7620.0,1.0,7998.0,1063.0,8965.0,11088.0,-25.0,1.0,119.0,-4.0,-40.0,-45.0,108.0,14.0,2.0358645915985107
396,4865.0,-1762.0,4972.0,1.0,7489.0,2180.0,9314.0,10992.0,-25.0,1.0,119.0,-4.0,-40.0,-45.0,108.0,14.0,2.048264503479004
397,4865.0,-1762.0,4972.0,1.0,7489.0,2180.0,9314.0,10992.0,-2.0,-16.0,-18.0,-72.0,-83.0,70.0,72.0,5.0,2.05025577545166
398,4865.0,-1762.0,4972.0,1.0,7489.0,2180.0,9314.0,10992.0,-40.0,2.0,11.0,78.0,104.0,66.0,109.0,1.0,2.0554375648498535
399,5509.0,-1636.0,3313.0,1.0,7109.0,3154.0,9737.0,10636.0,-40.0,2.0,11.0,78.0,104.0,66.0,109.0,1.0,2.071680784225464
400,5509.0,-1636.0,3313.0,1.0,7109.0,3154.0,9737.0,10636.0,-13.0,-10.0,-80.0,-44.0,37.0,-88.0,-18.0,-9.0,2.075056791305542
401,5509.0,-1636.0,3313.0,1.0,7109.0,3154.0,9737.0,10636.0,37.0,41.0,-31.0,-53.0,38.0,68.0,-3.0,-47.0,2.078355550765991
402,5012.0,-1280.0,2948.0,1.0,6716.0,3996.0,10096.0,10266.0,37.0,41.0,-31.0,-53.0,38.0,68.0,-3.0,-47.0,2.0945181846618652
403,5012.0,-1280.0,2948.0,1.0,6716.0,3996.0,10096.0,10266.0,-4.0,-58.0,79.0,30.0,67.0,-68.0,-79.0,-2.0,2.098545551300049
404,5012.0,-1280.0,2948.0,1.0,6716.0,3996.0,10096.0,10266.0,49.0,24.0,-30.0,20.0,-7.0,-39.0,-28.0,2.0,2.102152109146118
405,3557.0,-866.0,2385.0,1.0,6381.0,4612.0,10316.0,10000.0,49.0,24.0,-30.0,20.0,-7.0,-39.0,-28.0,2.0,2.108389377593994
406,3557.0,-866.0,2385.0,1.0,6381.0,4612.0,10316.0,10000.0,-10.0,35.0,9.0,-4.0,57.0,-1.0,-22.0,29.0,2.1103615760803223
407,3557.0,-866.0,2385.0,1.0,6381.0,4612.0,10316.0,10000.0,-10.0,35.0,9.0,-4.0,57.0,-1.0,-22.0,29.0,2.1145081520080566
408,3557.0,-866.0,2385.0,1.0,6381.0,4612.0,10316.0,10000.0,-10.0,31.0,22.0,-61.0,-31.0,-32.0,70.0,33.0,2.1323134899139404
409,2989.0,-880.0,1937.0,1.0,6114.0,5129.0,10475.0,9747.0,-10.0,31.0,22.0,-61.0,-31.0,-32.0,70.0,33.0,2.1347527503967285
410,2989.0,-880.0,1937.0,1.0,6114.0,5129.0,10475.0,9747.0,-20.0,-17.0,40.0,10.0,-76.0,-61.0,-58.0,-42.0,2.1366567611694336
411,2989.0,-880.0,1937.0,1.0,6114.0,5129.0,10475.0,9747.0,84.0,27.0,-39.0,62.0,89.0,52.0,50.0,44.0,2.13847279548645
412,3138.0,-615.0,1314.0,1.0,5866.0,5551.0,10666.0,9457.0,84.0,27.0,-39.0,62.0,89.0,52.0,50.0,44.0,2.153855323791504
413,3138.0,-615.0,1314.0,1.0,5866.0,5551.0,10666.0,9457.0,108.0,49.0,60.0,14.0,-104.0,-54.0,16.0,51.0,2.1557674407958984
414,3138.0,-615.0,1314.0,1.0,5866.0,5551.0,10666.0,9457.0,-92.0,15.0,-32.0,-39.0,-128.0,-76.0,-34.0,-20.0,2.1576900482177734
415,2534.0,-6.0,1771.0,1.0,5542.0,5903.0,10795.0,9290.0,-92.0,15.0,-32.0,-39.0,-128.0,-76.0,-34.0,-20.0,2.168560743331909
416,2534.0,-6.0,1771.0,1.0,5542.0,5903.0,10795.0,9290.0,-64.0,14.0,-40.0,11.0,28.0,-58.0,-89.0,-31.0,2.1705093383789062
417,2534.0,-6.0,1771.0,1.0,5542.0,5903.0,10795.0,9290.0,-33.0,21.0,72.0,55.0,39.0,-18.0,-8.0,-16.0,2.1750333309173584
418,1405.0,364.0,1849.0,1.0,5242.0,6148.0,10824.0,9272.0,-33.0,21.0,72.0,55.0,39.0,-18.0,-8.0,-16.0,2.199772596359253
419,1405.0,364.0,1849.0,1.0,5242.0,6148.0,10824.0,9272.0,-17.0,-6.0,-75.0,-91.0,-79.0,-25.0,16.0,8.0,2.203418016433716
420,1405.0,364.0,1849.0,1.0,5242.0,6148.0,10824.0,9272.0,5.0,20.0,-23.0,54.0,-44.0,-11.0,-21.0,14.0,2.2068865299224854
421,927.0,565.0,1734.0,1.0,4943.0,6341.0,10818.0,9313.0,5.0,20.0,-23.0,54.0,-44.0,-11.0,-21.0,14.0,2.214736223220825
422,927.0,565.0,1734.0,1.0,4943.0,6341.0,10818.0,9313.0,-6.0,2.0,-59.0,-33.0,-75.0,67.0,58.0,8.0,2.217841863632202
423,927.0,565.0,1734.0,1.0,4943.0,6341.0,10818.0,9313.0,-44.0,-128.0,-122.0,-69.0,-34.0,35.0,-38.0,-2.0,2.219705581665039
424,-66.0,467.0,2098.0,1.0,4691.0,6524.0,10685.0,9470.0,-44.0,-128.0,-122.0,-69.0,-34.0,35.0,-38.0,-2.0,2.228574275970459
425,-66.0,467.0,2098.0,1.0,4691.0,6524.0,10685.0,9470.0,41.0,67.0,-38.0,-42.0,-21.0,49.0,12.0,-31.0,2.2305965423583984
426,-66.0,467.0,2098.0,1.0,4691.0,6524.0,10685.0,9470.0,4.0,-11.0,-16.0,61.0,115.0,38.0,-19.0,-12.0,2.235015869140625
427,-376.0,404.0,1945.0,1.0,4476.0,6683.0,10531.0,9633.0,4.0,-11.0,-16.0,61.0,115.0,38.0,-19.0,-12.0,2.25146746635437
428,-376.0,404.0,1945.0,1.0,4476.0,6683.0,10531.0,9633.0,-46.0,-12.0,78.0,45.0,80.0,118.0,16.0,6.0,2.253413438796997
429,-376.0,404.0,1945.0,1.0,4476.0,6683.0,10531.0,9633.0,47.0,-40.0,-78.0,-10.0,-37.0,-38.0,-22.0,2.0,2.2552363872528076
430,-14.0,393.0,1475.0,1.0,4268.0,6819.0,10458.0,9711.0,47.0,-40.0,-78.0,-10.0,-37.0,-38.0,-22.0,2.0,2.274569034576416
431,-14.0,393.0,1475.0,1.0,4268.0,6819.0,10458.0,9711.0,7.0,8.0,38.0,84.0,39.0,70.0,100.0,29.0,2.276618480682373
432,-14.0,393.0,1475.0,1.0,4268.0,6819.0,10458.0,9711.0,12.0,17.0,43.0,-14.0,-35.0,42.0,3.0,7.0,2.2784788608551025
433,471.0,474.0,1089.0,1.0,4043.0,6931.0,10446.0,9741.0,12.0,17.0,43.0,-14.0,-35.0,42.0,3.0,7.0,2.2873404026031494
434,471.0,474.0,1089.0,1.0,4043.0,6931.0,10446.0,9741.0,19.0,14.0,44.0,53.0,65.0,-53.0,1.0,5.0,2.2965853214263916
435,471.0,474.0,1089.0,1.0,4043.0,6931.0,10446.0,9741.0,-8.0,-12.0,-74.0,42.0,-12.0,-52.0,-80.0,-43.0,2.300307035446167
436,357.0,400.0,999.0,1.0,3891.0,6996.0,10434.0,9770.0,-8.0,-12.0,-74.0,42.0,-12.0,-52.0,-80.0,-43.0,2.3126115798950195
437,357.0,400.0,999.0,1.0,3891.0,6996.0,10434.0,9770.0,-10.0,32.0,-37.0,56.0,78.0,-6.0,-34.0,-4.0,2.3169455528259277
438,357.0,400.0,999.0,1.0,3891.0,6996.0,10434.0,9770.0,26.0,39.0,55.0,10.0,85.0,15.0,2.0,15.0,2.3206050395965576
439,-205.0,322.0,753.0,1.0,3827.0,7014.0,10400.0,9818.0,26.0,39.0,55.0,10.0,85.0,15.0,2.0,15.0,2.3353450298309326
440,-205.0,322.0,753.0,1.0,3827.0,7014.0,10400.0,9818.0,-19.0,11.0,66.0,33.0,7.0,16.0,-4.0,1.0,2.3392789363861084
441,-205.0,322.0,753.0,1.0,3827.0,7014.0,10400.0,9818.0,30.0,-30.0,-44.0,-103.0,-70.0,-46.0,-13.0,-9.0,2.342787265777588
442,-578.0,312.0,582.0,1.0,3759.0,7039.0,10323.0,9907.0,30.0,-30.0,-44.0,-103.0,-70.0,-46.0,-13.0,-9.0,2.3491084575653076
443,-578.0,312.0,582.0,1.0,3759.0,7039.0,10323.0,9907.0,3.0,-5.0,-36.0,-3.0,25.0,-36.0,2.0,-4.0,2.3558781147003174
444,-578.0,312.0,582.0,1.0,3759.0,7039.0,10323.0,9907.0,-47.0,-10.0,44.0,49.0,-6.0,-56.0,-22.0,1.0,2.3577122688293457
445,-105.0,223.0,355.0,1.0,3677.0,7075.0,10300.0,9937.0,-47.0,-10.0,44.0,49.0,-6.0,-56.0,-22.0,1.0,2.3718678951263428
446,-105.0,223.0,355.0,1.0,3677.0,7075.0,10300.0,9937.0,29.0,54.0,58.0,-63.0,-114.0,-23.0,14.0,17.0,2.3745760917663574
447,-105.0,223.0,355.0,1.0,3677.0,7075.0,10300.0,9937.0,3.0,-26.0,-16.0,-4.0,3.0,20.0,-19.0,11.0,2.3763856887817383
448,156.0,64.0,73.0,1.0,3643.0,7095.0,10341.0,9893.0,3.0,-26.0,-16.0,-4.0,3.0,20.0,-19.0,11.0,2.3938064575195312
449,156.0,64.0,73.0,1.0,3643.0,7095.0,10341.0,9893.0,-17.0,-51.0,-45.0,68.0,114.0,10.0,-39.0,-5.0,2.3993232250213623
450,156.0,64.0,73.0,1.0,3643.0,7095.0,10341.0,9893.0,-16.0,51.0,14.0,-111.0,-25.0,1.0,22.0,-9.0,2.4031150341033936
451,-212.0,70.0,102.0,1.0,3636.0,7103.0,10344.0,9886.0,-16.0,51.0,14.0,-111.0,-25.0,1.0,22.0,-9.0,2.407370090484619
452,-212.0,70.0,102.0,1.0,3636.0,7103.0,10344.0,9886.0,5.0,-1.0,10.0,-98.0,-36.0,-26.0,9.0,-6.0,2.415498971939087
453,-212.0,70.0,102.0,1.0,3636.0,7103.0,10344.0,9886.0,-10.0,3.0,4.0,18.0,-6.0,4.0,24.0,-5.0,2.417325019836426
454,-569.0,84.0,107.0,1.0,3632.0,7107.0,10281.0,9950.0,-10.0,3.0,4.0,18.0,-6.0,4.0,24.0,-5.0,2.4322962760925293
455,-569.0,84.0,107.0,1.0,3632.0,7107.0,10281.0,9950.0,-4.0,-60.0,-26.0,95.0,-32.0,-7.0,0.0,-2.0,2.4358479976654053
456,-569.0,84.0,107.0,1.0,3632.0,7107.0,10281.0,9950.0,-22.0,-4.0,43.0,-25.0,1.0,-34.0,-19.0,-20.0,2.4390738010406494
457,-327.0,33.0,155.0,1.0,3615.0,7126.0,10230.0,9995.0,-22.0,-4.0,43.0,-25.0,1.0,-34.0,-19.0,-20.0,2.455483913421631
458,-327.0,33.0,155.0,1.0,3615.0,7126.0,10230.0,9995.0,60.0,15.0,-61.0,51.0,9.0,58.0,48.0,38.0,2.461280107498169
459,-327.0,33.0,155.0,1.0,3615.0,7126.0,10230.0,9995.0,26.0,-2.0,36.0,93.0,28.0,12.0,14.0,17.0,2.4655444622039795
460,-70.0,-29.0,14.0,1.0,3604.0,7144.0,10222.0,9994.0,26.0,-2.0,36.0,93.0,28.0,12.0,14.0,17.0,2.468306303024292
461,-70.0,-29.0,14.0,1.0,3604.0,7144.0,10222.0,9994.0,-31.0,-82.0,-45.0,123.0,17.0,-41.0,-29.0,-15.0,2.47586727142334
462,-70.0,-29.0,14.0,1.0,3604.0,7144.0,10222.0,9994.0,22.0,65.0,45.0,50.0,74.0,-2.0,12.0,-1.0,2.4778738021850586
463,-227.0,2.0,133.0,1.0,3584.0,7171.0,10190.0,10015.0,22.0,65.0,45.0,50.0,74.0,-2.0,12.0,-1.0,2.4918107986450195
464,-227.0,2.0,133.0,1.0,3584.0,7171.0,10190.0,10015.0,-16.0,-7.0,14.0,-85.0,-24.0,-21.0,-34.0,-14.0,2.4942822456359863
465,-227.0,2.0,133.0,1.0,3584.0,7171.0,10190.0,10015.0,-5.0,-24.0,-11.0,-86.0,-39.0,8.0,23.0,4.0,2.4973630905151367
466,-388.0,70.0,180.0,1.0,3563.0,7188.0,10131.0,10070.0,-5.0,-24.0,-11.0,-86.0,-39.0,8.0,23.0,4.0,2.515373706817627
467,-388.0,70.0,180.0,1.0,3563.0,7188.0,10131.0,10070.0,9.0,-6.0,-13.0,-67.0,2.0,10.0,3.0,2.0,2.520033597946167
468,-388.0,70.0,180.0,1.0,3563.0,7188.0,10131.0,10070.0,-6.0,18.0,-31.0,-69.0,-52.0,-6.0,32.0,5.0,2.523209571838379
469,-65.0,89.0,161.0,1.0,3518.0,7211.0,10107.0,10093.0,-6.0,18.0,-31.0,-69.0,-52.0,-6.0,32.0,5.0,2.5274670124053955
470,-65.0,89.0,161.0,1.0,3518.0,7211.0,10107.0,10093.0,-35.0,-9.0,43.0,-9.0,-40.0,-14.0,3.0,10.0,2.535541534423828
471,-65.0,89.0,161.0,1.0,3518.0,7211.0,10107.0,10093.0,13.0,-29.0,-51.0,99.0,-41.0,2.0,-17.0,-15.0,2.5373902320861816
472,127.0,62.0,74.0,1.0,3480.0,7228.0,10113.0,10088.0,13.0,-29.0,-51.0,99.0,-41.0,2.0,-17.0,-15.0,2.5526671409606934
473,127.0,62.0,74.0,1.0,3480.0,7228.0,10113.0,10088.0,-28.0,-26.0,20.0,23.0,51.0,20.0,9.0,-22.0,2.5561134815216064
474,127.0,62.0,74.0,1.0,3480.0,7228.0,10113.0,10088.0,11.0,52.0,53.0,38.0,78.0,55.0,30.0,4.0,2.559331178665161
475,-64.0,104.0,107.0,1.0,3446.0,7239.0,10100.0,10104.0,11.0,52.0,53.0,38.0,78.0,55.0,30.0,4.0,2.5747203826904297
476,-64.0,104.0,107.0,1.0,3446.0,7239.0,10100.0,10104.0,-20.0,5.0,40.0,-23.0,0.0,-7.0,-8.0,-12.0,2.5791707038879395
477,-64.0,104.0,107.0,1.0,3446.0,7239.0,10100.0,10104.0,-1.0,-1.0,18.0,-5.0,19.0,11.0,3.0,8.0,2.583986520767212
478,-154.0,143.0,113.0,1.0,3408.0,7248.0,10073.0,10138.0,-1.0,-1.0,18.0,-5.0,19.0,11.0,3.0,8.0,2.5870823860168457
479,-154.0,143.0,113.0,1.0,3408.0,7248.0,10073.0,10138.0,-5.0,15.0,32.0,8.0,62.0,-41.0,-9.0,-2.0,2.595608711242676
480,-154.0,143.0,113.0,1.0,3408.0,7248.0,10073.0,10138.0,1.0,49.0,22.0,-43.0,-49.0,-20.0,-52.0,1.0,2.5974910259246826
481,-28.0,120.0,92.0,1.0,3372.0,7257.0,10066.0,10151.0,1.0,49.0,22.0,-43.0,-49.0,-20.0,-52.0,1.0,2.612374782562256
482,-28.0,120.0,92.0,1.0,3372.0,7257.0,10066.0,10151.0,27.0,79.0,-36.0,-21.0,-32.0,3.0,-16.0,4.0,2.6172826290130615
483,-28.0,120.0,92.0,1.0,3372.0,7257.0,10066.0,10151.0,16.0,29.0,-35.0,2.0,18.0,20.0,18.0,-4.0,2.620542049407959
484,-22.0,140.0,86.0,1.0,3336.0,7261.0,10063.0,10163.0,16.0,29.0,-35.0,2.0,18.0,20.0,18.0,-4.0,2.6344873905181885
485,-22.0,140.0,86.0,1.0,3336.0,7261.0,10063.0,10163.0,-12.0,-36.0,-49.0,-65.0,-30.0,-16.0,-4.0,0.0,2.638380527496338
486,-22.0,140.0,86.0,1.0,3336.0,7261.0,10063.0,10163.0,13.0,18.0,31.0,19.0,25.0,25.0,21.0,-1.0,2.642115831375122
487,-60.0,142.0,85.0,1.0,3302.0,7264.0,10050.0,10185.0,13.0,18.0,31.0,19.0,25.0,25.0,21.0,-1.0,2.649672269821167
488,-60.0,142.0,85.0,1.0,3302.0,7264.0,10050.0,10185.0,4.0,-17.0,-47.0,-20.0,-11.0,23.0,17.0,9.0,2.6558170318603516
489,-60.0,142.0,85.0,1.0,3302.0,7264.0,10050.0,10185.0,-18.0,-30.0,-15.0,34.0,21.0,15.0,-8.0,-6.0,2.6576788425445557
490,-84.0,129.0,38.0,1.0,3277.0,7259.0,10031.0,10215.0,-18.0,-30.0,-15.0,34.0,21.0,15.0,-8.0,-6.0,2.6719415187835693
491,-84.0,129.0,38.0,1.0,3277.0,7259.0,10031.0,10215.0,36.0,84.0,57.0,1.0,-12.0,-17.0,9.0,11.0,2.675980806350708
492,-84.0,129.0,38.0,1.0,3277.0,7259.0,10031.0,10215.0,-4.0,-22.0,-67.0,-11.0,-28.0,25.0,7.0,7.0,2.6794211864471436
493,7.0,70.0,20.0,1.0,3255.0,7263.0,10029.0,10222.0,-4.0,-22.0,-67.0,-11.0,-28.0,25.0,7.0,7.0,2.6946613788604736
494,7.0,70.0,20.0,1.0,3255.0,7263.0,10029.0,10222.0,-10.0,-27.0,-11.0,-24.0,-50.0,17.0,-12.0,-12.0,2.7007436752319336
495,7.0,70.0,20.0,1.0,3255.0,7263.0,10029.0,10222.0,-34.0,-65.0,30.0,-2.0,-21.0,-3.0,13.0,-7.0,2.7051100730895996
496,-142.0,71.0,78.0,1.0,3243.0,7266.0,10014.0,10238.0,-34.0,-65.0,30.0,-2.0,-21.0,-3.0,13.0,-7.0,2.708841562271118
497,-142.0,71.0,78.0,1.0,3243.0,7266.0,10014.0,10238.0,6.0,-1.0,-28.0,14.0,30.0,9.0,4.0,-9.0,2.7164721488952637
498,-142.0,71.0,78.0,1.0,3243.0,7266.0,10014.0,10238.0,-17.0,-22.0,15.0,-71.0,-51.0,-14.0,-8.0,-5.0,2.718431234359741
499,-151.0,124.0,114.0,1.0,3216.0,7272.0,9994.0,10262.0,-17.0,-22.0,15.0,-71.0,-51.0,-14.0,-8.0,-5.0,2.7310619354248047
