,Gyro 0,Gyro 1,Gyro 2,Label,Orientation 0,Orientation 1,Orientation 2,Orientation 3,Sensor 0,Sensor 1,Sensor 2,Sensor 3,Sensor 4,Sensor 5,Sensor 6,Sensor 7,Timestamp
0,118.0,161.0,-116.0,0.0,291.0,11117.0,7692.0,9250.0,4.0,3.0,6.0,1.0,5.0,-5.0,-5.0,1.0,2.384185791015625e-06
1,118.0,161.0,-116.0,0.0,291.0,11117.0,7692.0,9250.0,1.0,10.0,2.0,2.0,13.0,8.0,7.0,3.0,0.0024292469024658203
2,118.0,161.0,-116.0,0.0,291.0,11117.0,7692.0,9250.0,-1.0,-11.0,3.0,1.0,11.0,3.0,6.0,-3.0,0.005082845687866211
3,54.0,230.0,-122.0,0.0,291.0,11091.0,7730.0,9250.0,-1.0,-11.0,3.0,1.0,11.0,3.0,6.0,-3.0,0.008090496063232422
4,54.0,230.0,-122.0,0.0,291.0,11091.0,7730.0,9250.0,-6.0,-17.0,-5.0,-4.0,-9.0,-5.0,-6.0,-1.0,0.011462211608886719
5,54.0,230.0,-122.0,0.0,291.0,11091.0,7730.0,9250.0,14.0,31.0,23.0,3.0,-2.0,0.0,1.0,5.0,0.013353824615478516
6,54.0,272.0,-134.0,0.0,276.0,11062.0,7760.0,9260.0,14.0,31.0,23.0,3.0,-2.0,0.0,1.0,5.0,0.01517176628112793
7,54.0,272.0,-134.0,0.0,276.0,11062.0,7760.0,9260.0,2.0,2.0,10.0,1.0,17.0,3.0,2.0,1.0,0.01735210418701172
8,54.0,272.0,-134.0,0.0,276.0,11062.0,7760.0,9260.0,-14.0,-19.0,-18.0,1.0,9.0,2.0,-5.0,-6.0,0.019829750061035156
9,187.0,254.0,-139.0,0.0,239.0,11035.0,7798.0,9261.0,-14.0,-19.0,-18.0,1.0,9.0,2.0,-5.0,-6.0,0.022868633270263672
10,187.0,254.0,-139.0,0.0,239.0,11035.0,7798.0,9261.0,-3.0,6.0,-4.0,-6.0,-15.0,-6.0,-2.0,-7.0,0.024906396865844727
11,187.0,254.0,-139.0,0.0,239.0,11035.0,7798.0,9261.0,-1.0,-7.0,-1.0,4.0,-1.0,3.0,-5.0,3.0,0.026757001876831055
12,337.0,237.0,-140.0,0.0,188.0,11002.0,7848.0,9259.0,-1.0,-7.0,-1.0,4.0,-1.0,3.0,-5.0,3.0,0.028581857681274414
13,337.0,237.0,-140.0,0.0,188.0,11002.0,7848.0,9259.0,-7.0,-4.0,-3.0,-1.0,-8.0,-4.0,5.0,0.0,0.030437231063842773
14,337.0,237.0,-140.0,0.0,188.0,11002.0,7848.0,9259.0,2.0,26.0,11.0,-8.0,-26.0,-9.0,-6.0,-2.0,0.032250165939331055
15,446.0,233.0,-138.0,0.0,133.0,10959.0,7907.0,9261.0,2.0,26.0,11.0,-8.0,-26.0,-9.0,-6.0,-2.0,0.03410601615905762
16,446.0,233.0,-138.0,0.0,133.0,10959.0,7907.0,9261.0,11.0,-36.0,-41.0,-7.0,-25.0,-5.0,-3.0,0.0,0.035962581634521484
17,446.0,233.0,-138.0,0.0,133.0,10959.0,7907.0,9261.0,2.0,-4.0,-4.0,-3.0,4.0,3.0,-5.0,-1.0,0.03790283203125
18,408.0,220.0,-142.0,0.0,93.0,10908.0,7965.0,9273.0,2.0,-4.0,-4.0,-3.0,4.0,3.0,-5.0,-1.0,0.04090261459350586
19,408.0,220.0,-142.0,0.0,93.0,10908.0,7965.0,9273.0,-5.0,31.0,19.0,10.0,19.0,3.0,3.0,-6.0,0.042884111404418945
20,408.0,220.0,-142.0,0.0,93.0,10908.0,7965.0,9273.0,-6.0,-24.0,-5.0,-4.0,-9.0,-2.0,-7.0,-1.0,0.044731855392456055
21,285.0,143.0,-186.0,0.0,82.0,10858.0,8016.0,9287.0,-6.0,-24.0,-5.0,-4.0,-9.0,-2.0,-7.0,-1.0,0.04654836654663086
22,285.0,143.0,-186.0,0.0,82.0,10858.0,8016.0,9287.0,21.0,24.0,6.0,12.0,24.0,6.0,3.0,5.0,0.04845786094665527
23,285.0,143.0,-186.0,0.0,82.0,10858.0,8016.0,9287.0,-10.0,1.0,-21.0,-3.0,-1.0,-2.0,-1.0,-1.0,0.05266976356506348
24,223.0,-11.0,-216.0,0.0,97.0,10825.0,8069.0,9279.0,-10.0,1.0,-21.0,-3.0,-1.0,-2.0,-1.0,-1.0,0.055472373962402344
25,223.0,-11.0,-216.0,0.0,97.0,10825.0,8069.0,9279.0,-8.0,17.0,1.0,-7.0,-6.0,-3.0,0.0,-1.0,0.0582427978515625
26,223.0,-11.0,-216.0,0.0,97.0,10825.0,8069.0,9279.0,-4.0,-23.0,-23.0,-2.0,4.0,4.0,3.0,1.0,0.06005144119262695
27,80.0,-113.0,-203.0,0.0,140.0,10807.0,8110.0,9264.0,-4.0,-23.0,-23.0,-2.0,4.0,4.0,3.0,1.0,0.06186699867248535
28,80.0,-113.0,-203.0,0.0,140.0,10807.0,8110.0,9264.0,-1.0,-20.0,6.0,-5.0,-3.0,0.0,0.0,2.0,0.0637362003326416
29,80.0,-113.0,-203.0,0.0,140.0,10807.0,8110.0,9264.0,-5.0,-21.0,8.0,1.0,9.0,2.0,-5.0,-1.0,0.06552839279174805
30,-127.0,-117.0,-145.0,0.0,202.0,10798.0,8128.0,9258.0,-5.0,-21.0,8.0,1.0,9.0,2.0,-5.0,-1.0,0.06743168830871582
31,-127.0,-117.0,-145.0,0.0,202.0,10798.0,8128.0,9258.0,-19.0,-26.0,4.0,-4.0,-19.0,-3.0,2.0,-1.0,0.0695490837097168
32,-127.0,-117.0,-145.0,0.0,202.0,10798.0,8128.0,9258.0,10.0,10.0,-17.0,-11.0,-3.0,-4.0,-2.0,-3.0,0.07134056091308594
33,-276.0,-59.0,-74.0,0.0,264.0,10796.0,8122.0,9264.0,10.0,10.0,-17.0,-11.0,-3.0,-4.0,-2.0,-3.0,0.07314467430114746
34,-276.0,-59.0,-74.0,0.0,264.0,10796.0,8122.0,9264.0,3.0,26.0,6.0,0.0,-13.0,-7.0,-6.0,-2.0,0.07501626014709473
35,-276.0,-59.0,-74.0,0.0,264.0,10796.0,8122.0,9264.0,11.0,33.0,41.0,6.0,2.0,-4.0,-3.0,1.0,0.07681941986083984
36,-280.0,-32.0,-64.0,0.0,308.0,10799.0,8108.0,9272.0,11.0,33.0,41.0,6.0,2.0,-4.0,-3.0,1.0,0.07860279083251953
37,-280.0,-32.0,-64.0,0.0,308.0,10799.0,8108.0,9272.0,-12.0,-12.0,3.0,-4.0,4.0,1.0,-3.0,-3.0,0.08059358596801758
38,-280.0,-32.0,-64.0,0.0,308.0,10799.0,8108.0,9272.0,-7.0,2.0,-14.0,0.0,-2.0,0.0,-2.0,-4.0,0.08314681053161621
39,-205.0,20.0,-18.0,0.0,324.0,10803.0,8090.0,9282.0,-7.0,2.0,-14.0,0.0,-2.0,0.0,-2.0,-4.0,0.0856013298034668
40,-205.0,20.0,-18.0,0.0,324.0,10803.0,8090.0,9282.0,5.0,-12.0,-28.0,6.0,5.0,5.0,5.0,7.0,0.08830881118774414
41,-205.0,20.0,-18.0,0.0,324.0,10803.0,8090.0,9282.0,1.0,12.0,-2.0,0.0,-1.0,-6.0,0.0,-2.0,0.0907585620880127
42,-163.0,47.0,-7.0,0.0,326.0,10806.0,8069.0,9297.0,1.0,12.0,-2.0,0.0,-1.0,-6.0,0.0,-2.0,0.09260821342468262
43,-163.0,47.0,-7.0,0.0,326.0,10806.0,8069.0,9297.0,-3.0,-11.0,0.0,-13.0,-18.0,-7.0,-5.0,-9.0,0.09448432922363281
44,-163.0,47.0,-7.0,0.0,326.0,10806.0,8069.0,9297.0,-13.0,-11.0,5.0,2.0,-3.0,5.0,3.0,-3.0,0.09624838829040527
45,-80.0,64.0,-68.0,0.0,317.0,10799.0,8056.0,9316.0,-13.0,-11.0,5.0,2.0,-3.0,5.0,3.0,-3.0,0.09802532196044922
46,-80.0,64.0,-68.0,0.0,317.0,10799.0,8056.0,9316.0,15.0,25.0,-2.0,6.0,20.0,10.0,2.0,1.0,0.09993982315063477
47,-80.0,64.0,-68.0,0.0,317.0,10799.0,8056.0,9316.0,18.0,4.0,25.0,5.0,-3.0,1.0,-4.0,4.0,0.10201883316040039
48,53.0,71.0,-91.0,0.0,298.0,10787.0,8061.0,9327.0,18.0,4.0,25.0,5.0,-3.0,1.0,-4.0,4.0,0.10379338264465332
49,53.0,71.0,-91.0,0.0,298.0,10787.0,8061.0,9327.0,1.0,-6.0,-9.0,-2.0,2.0,0.0,-1.0,1.0,0.10564708709716797
50,53.0,71.0,-91.0,0.0,298.0,10787.0,8061.0,9327.0,-6.0,-14.0,-11.0,-2.0,-4.0,-3.0,1.0,-1.0,0.10743451118469238
51,109.0,42.0,-116.0,0.0,282.0,10773.0,8076.0,9330.0,-6.0,-14.0,-11.0,-2.0,-4.0,-3.0,1.0,-1.0,0.10924220085144043
52,109.0,42.0,-116.0,0.0,282.0,10773.0,8076.0,9330.0,-3.0,-8.0,0.0,2.0,-1.0,-2.0,-1.0,2.0,0.11139631271362305
53,109.0,42.0,-116.0,0.0,282.0,10773.0,8076.0,9330.0,-4.0,-19.0,-33.0,-15.0,-12.0,-8.0,-8.0,-4.0,0.11449122428894043
54,65.0,41.0,-111.0,0.0,270.0,10761.0,8087.0,9334.0,-4.0,-19.0,-33.0,-15.0,-12.0,-8.0,-8.0,-4.0,0.11660218238830566
55,65.0,41.0,-111.0,0.0,270.0,10761.0,8087.0,9334.0,-5.0,1.0,-1.0,2.0,1.0,-5.0,-2.0,-1.0,0.11844944953918457
56,65.0,41.0,-111.0,0.0,270.0,10761.0,8087.0,9334.0,7.0,23.0,15.0,3.0,3.0,5.0,1.0,1.0,0.12026405334472656
57,72.0,48.0,-56.0,0.0,253.0,10754.0,8094.0,9337.0,7.0,23.0,15.0,3.0,3.0,5.0,1.0,1.0,0.12367033958435059
58,72.0,48.0,-56.0,0.0,253.0,10754.0,8094.0,9337.0,-2.0,4.0,43.0,11.0,14.0,-2.0,-2.0,-3.0,0.12563681602478027
59,72.0,48.0,-56.0,0.0,253.0,10754.0,8094.0,9337.0,18.0,10.0,-15.0,-6.0,-6.0,-3.0,4.0,6.0,0.12742328643798828
60,72.0,43.0,-3.0,0.0,234.0,10752.0,8098.0,9336.0,18.0,10.0,-15.0,-6.0,-6.0,-3.0,4.0,6.0,0.12921953201293945
61,72.0,43.0,-3.0,0.0,234.0,10752.0,8098.0,9336.0,-9.0,-8.0,-6.0,-4.0,-9.0,-3.0,-2.0,-3.0,0.13106727600097656
62,72.0,43.0,-3.0,0.0,234.0,10752.0,8098.0,9336.0,-9.0,-4.0,12.0,4.0,-4.0,-2.0,-4.0,-2.0,0.13284802436828613
63,18.0,39.0,37.0,0.0,221.0,10756.0,8096.0,9334.0,-9.0,-4.0,12.0,4.0,-4.0,-2.0,-4.0,-2.0,0.13489818572998047
64,18.0,39.0,37.0,0.0,221.0,10756.0,8096.0,9334.0,0.0,31.0,6.0,1.0,-6.0,0.0,1.0,-6.0,0.13678288459777832
65,18.0,39.0,37.0,0.0,221.0,10756.0,8096.0,9334.0,-1.0,0.0,-18.0,13.0,12.0,2.0,-2.0,1.0,0.13858580589294434
66,-44.0,53.0,51.0,0.0,214.0,10758.0,8086.0,9341.0,-1.0,0.0,-18.0,13.0,12.0,2.0,-2.0,1.0,0.14035320281982422
67,-44.0,53.0,51.0,0.0,214.0,10758.0,8086.0,9341.0,11.0,29.0,-11.0,3.0,15.0,6.0,2.0,2.0,0.14234638214111328
68,-44.0,53.0,51.0,0.0,214.0,10758.0,8086.0,9341.0,4.0,-21.0,-20.0,-4.0,16.0,9.0,1.0,4.0,0.14514398574829102
69,-14.0,78.0,42.0,0.0,201.0,10757.0,8080.0,9347.0,4.0,-21.0,-20.0,-4.0,16.0,9.0,1.0,4.0,0.14725065231323242
70,-14.0,78.0,42.0,0.0,201.0,10757.0,8080.0,9347.0,-6.0,-15.0,15.0,-1.0,-6.0,-1.0,-3.0,0.0,0.1491260528564453
71,-14.0,78.0,42.0,0.0,201.0,10757.0,8080.0,9347.0,-9.0,8.0,6.0,-5.0,-4.0,-2.0,-4.0,-6.0,0.15093493461608887
72,64.0,88.0,43.0,0.0,177.0,10755.0,8080.0,9349.0,-9.0,8.0,6.0,-5.0,-4.0,-2.0,-4.0,-6.0,0.15274620056152344
73,64.0,88.0,43.0,0.0,177.0,10755.0,8080.0,9349.0,4.0,-17.0,-40.0,-14.0,-7.0,-5.0,1.0,-3.0,0.1549844741821289
74,64.0,88.0,43.0,0.0,177.0,10755.0,8080.0,9349.0,-12.0,-17.0,6.0,2.0,-1.0,-3.0,0.0,-5.0,0.15780401229858398
75,132.0,91.0,22.0,0.0,152.0,10749.0,8093.0,9346.0,-12.0,-17.0,6.0,2.0,-1.0,-3.0,0.0,-5.0,0.15964531898498535
76,132.0,91.0,22.0,0.0,152.0,10749.0,8093.0,9346.0,-3.0,-9.0,17.0,-3.0,-11.0,-3.0,-3.0,-3.0,0.16151857376098633
77,132.0,91.0,22.0,0.0,152.0,10749.0,8093.0,9346.0,1.0,26.0,23.0,0.0,7.0,1.0,0.0,0.0,0.16330599784851074
78,109.0,80.0,17.0,0.0,137.0,10740.0,8106.0,9345.0,1.0,26.0,23.0,0.0,7.0,1.0,0.0,0.0,0.16507959365844727
79,109.0,80.0,17.0,0.0,137.0,10740.0,8106.0,9345.0,11.0,9.0,12.0,0.0,7.0,-1.0,-3.0,1.0,0.16714787483215332
80,109.0,80.0,17.0,0.0,137.0,10740.0,8106.0,9345.0,-4.0,14.0,10.0,-7.0,-11.0,-5.0,-3.0,-3.0,0.1689746379852295
81,69.0,66.0,8.0,0.0,127.0,10733.0,8115.0,9346.0,-4.0,14.0,10.0,-7.0,-11.0,-5.0,-3.0,-3.0,0.17074203491210938
82,69.0,66.0,8.0,0.0,127.0,10733.0,8115.0,9346.0,-7.0,-11.0,-8.0,-7.0,-6.0,-3.0,-2.0,3.0,0.17274117469787598
83,69.0,66.0,8.0,0.0,127.0,10733.0,8115.0,9346.0,7.0,9.0,-21.0,-4.0,-9.0,-6.0,-2.0,1.0,0.17589473724365234
84,51.0,42.0,21.0,0.0,119.0,10729.0,8120.0,9346.0,7.0,9.0,-21.0,-4.0,-9.0,-6.0,-2.0,1.0,0.17786788940429688
85,51.0,42.0,21.0,0.0,119.0,10729.0,8120.0,9346.0,-12.0,-20.0,-16.0,5.0,7.0,0.0,-4.0,-2.0,0.17971515655517578
86,51.0,42.0,21.0,0.0,119.0,10729.0,8120.0,9346.0,-2.0,4.0,4.0,0.0,2.0,2.0,3.0,-1.0,0.18149304389953613
87,16.0,27.0,53.0,0.0,114.0,10729.0,8119.0,9347.0,-2.0,4.0,4.0,0.0,2.0,2.0,3.0,-1.0,0.1832594871520996
88,16.0,27.0,53.0,0.0,114.0,10729.0,8119.0,9347.0,5.0,1.0,14.0,7.0,2.0,-1.0,1.0,3.0,0.18511104583740234
89,16.0,27.0,53.0,0.0,114.0,10729.0,8119.0,9347.0,-11.0,-13.0,20.0,2.0,-14.0,-6.0,-1.0,-8.0,0.18699932098388672
90,-18.0,4.0,74.0,0.0,114.0,10734.0,8113.0,9346.0,-11.0,-13.0,20.0,2.0,-14.0,-6.0,-1.0,-8.0,0.190018892288208
91,-18.0,4.0,74.0,0.0,114.0,10734.0,8113.0,9346.0,2.0,15.0,-38.0,-5.0,-12.0,-5.0,-2.0,-6.0,0.19196629524230957
92,-18.0,4.0,74.0,0.0,114.0,10734.0,8113.0,9346.0,-9.0,-13.0,-15.0,6.0,-1.0,3.0,-1.0,3.0,0.19390463829040527
93,-32.0,-25.0,102.0,0.0,112.0,10748.0,8102.0,9341.0,-9.0,-13.0,-15.0,6.0,-1.0,3.0,-1.0,3.0,0.19568800926208496
94,-32.0,-25.0,102.0,0.0,112.0,10748.0,8102.0,9341.0,1.0,8.0,8.0,2.0,-4.0,-1.0,-7.0,0.0,0.19762659072875977
95,-32.0,-25.0,102.0,0.0,112.0,10748.0,8102.0,9341.0,-8.0,-23.0,-2.0,-1.0,0.0,-2.0,-1.0,-2.0,0.19942212104797363
96,-41.0,-57.0,133.0,0.0,111.0,10767.0,8085.0,9332.0,-8.0,-23.0,-2.0,-1.0,0.0,-2.0,-1.0,-2.0,0.20137643814086914
97,-41.0,-57.0,133.0,0.0,111.0,10767.0,8085.0,9332.0,-2.0,14.0,14.0,-16.0,-17.0,-7.0,-3.0,-3.0,0.20370149612426758
98,-41.0,-57.0,133.0,0.0,111.0,10767.0,8085.0,9332.0,-2.0,-2.0,15.0,0.0,0.0,-4.0,-2.0,-2.0,0.20660758018493652
99,-70.0,-69.0,163.0,0.0,115.0,10789.0,8066.0,9324.0,-2.0,-2.0,15.0,0.0,0.0,-4.0,-2.0,-2.0,0.2087230682373047
100,-70.0,-69.0,163.0,0.0,115.0,10789.0,8066.0,9324.0,-7.0,-13.0,-4.0,2.0,7.0,3.0,2.0,-3.0,0.2105860710144043
101,-70.0,-69.0,163.0,0.0,115.0,10789.0,8066.0,9324.0,-9.0,-21.0,-15.0,-9.0,-14.0,-3.0,-8.0,0.0,0.21240806579589844
102,-144.0,-67.0,182.0,0.0,124.0,10813.0,8035.0,9322.0,-9.0,-21.0,-15.0,-9.0,-14.0,-3.0,-8.0,0.0,0.21426892280578613
103,-144.0,-67.0,182.0,0.0,124.0,10813.0,8035.0,9322.0,0.0,14.0,3.0,7.0,7.0,3.0,2.0,-1.0,0.21683669090270996
104,-144.0,-67.0,182.0,0.0,124.0,10813.0,8035.0,9322.0,-1.0,1.0,-10.0,-1.0,9.0,5.0,3.0,-1.0,0.2188258171081543
105,-148.0,-62.0,196.0,0.0,130.0,10838.0,8001.0,9323.0,-1.0,1.0,-10.0,-1.0,9.0,5.0,3.0,-1.0,0.22062039375305176
106,-148.0,-62.0,196.0,0.0,130.0,10838.0,8001.0,9323.0,19.0,15.0,-2.0,2.0,5.0,5.0,0.0,5.0,0.22382187843322754
107,-148.0,-62.0,196.0,0.0,130.0,10838.0,8001.0,9323.0,-1.0,-19.0,3.0,4.0,2.0,-2.0,-1.0,-1.0,0.2257392406463623
108,-134.0,-58.0,181.0,0.0,132.0,10863.0,7967.0,9323.0,-1.0,-19.0,3.0,4.0,2.0,-2.0,-1.0,-1.0,0.2275245189666748
109,-134.0,-58.0,181.0,0.0,132.0,10863.0,7967.0,9323.0,3.0,-8.0,-39.0,-7.0,0.0,1.0,2.0,-2.0,0.22948026657104492
110,-134.0,-58.0,181.0,0.0,132.0,10863.0,7967.0,9323.0,0.0,-2.0,1.0,-4.0,-2.0,-3.0,-3.0,0.0,0.2312784194946289
111,-128.0,-56.0,161.0,0.0,134.0,10887.0,7937.0,9320.0,0.0,-2.0,1.0,-4.0,-2.0,-3.0,-3.0,0.0,0.23884892463684082
112,-128.0,-56.0,161.0,0.0,134.0,10887.0,7937.0,9320.0,-2.0,-6.0,12.0,-18.0,-45.0,-16.0,-2.0,-3.0,0.24137210845947266
113,-128.0,-56.0,161.0,0.0,134.0,10887.0,7937.0,9320.0,-3.0,-8.0,-19.0,3.0,4.0,1.0,-5.0,-2.0,0.24317312240600586
114,-58.0,-37.0,117.0,0.0,125.0,10909.0,7917.0,9312.0,-3.0,-8.0,-19.0,3.0,4.0,1.0,-5.0,-2.0,0.25058794021606445
115,-58.0,-37.0,117.0,0.0,125.0,10909.0,7917.0,9312.0,2.0,6.0,8.0,10.0,9.0,4.0,-2.0,0.0,0.25903987884521484
116,-58.0,-37.0,117.0,0.0,125.0,10909.0,7917.0,9312.0,6.0,15.0,23.0,2.0,5.0,-5.0,-1.0,-2.0,0.26084160804748535
117,24.0,-27.0,84.0,0.0,105.0,10929.0,7907.0,9297.0,6.0,15.0,23.0,2.0,5.0,-5.0,-1.0,-2.0,0.2750687599182129
118,24.0,-27.0,84.0,0.0,105.0,10929.0,7907.0,9297.0,-5.0,-16.0,1.0,3.0,0.0,2.0,-2.0,0.0,0.2769498825073242
119,24.0,-27.0,84.0,0.0,105.0,10929.0,7907.0,9297.0,6.0,8.0,15.0,8.0,3.0,5.0,2.0,3.0,0.2787301540374756
120,106.0,5.0,34.0,0.0,77.0,10940.0,7911.0,9280.0,6.0,8.0,15.0,8.0,3.0,5.0,2.0,3.0,0.29856252670288086
121,106.0,5.0,34.0,0.0,77.0,10940.0,7911.0,9280.0,17.0,23.0,13.0,-11.0,-19.0,-9.0,-2.0,1.0,0.30193066596984863
122,106.0,5.0,34.0,0.0,77.0,10940.0,7911.0,9280.0,-2.0,-16.0,-42.0,-5.0,2.0,-1.0,-2.0,-1.0,0.3058815002441406
123,183.0,57.0,8.0,0.0,38.0,10945.0,7926.0,9262.0,-2.0,-16.0,-42.0,-5.0,2.0,-1.0,-2.0,-1.0,0.31142330169677734
124,183.0,57.0,8.0,0.0,38.0,10945.0,7926.0,9262.0,-10.0,-30.0,-19.0,6.0,13.0,3.0,-3.0,-2.0,0.31950855255126953
125,183.0,57.0,8.0,0.0,38.0,10945.0,7926.0,9262.0,15.0,24.0,2.0,0.0,-3.0,1.0,5.0,2.0,0.32134532928466797
126,208.0,77.0,-15.0,0.0,-3.0,10943.0,7944.0,9249.0,15.0,24.0,2.0,0.0,-3.0,1.0,5.0,2.0,0.33474135398864746
127,208.0,77.0,-15.0,0.0,-3.0,10943.0,7944.0,9249.0,-4.0,0.0,3.0,0.0,13.0,0.0,2.0,0.0,0.33678174018859863
128,208.0,77.0,-15.0,0.0,-3.0,10943.0,7944.0,9249.0,-3.0,15.0,4.0,-4.0,-13.0,-3.0,-7.0,-4.0,0.3408017158508301
129,219.0,81.0,-40.0,0.0,-46.0,10936.0,7964.0,9240.0,-3.0,15.0,4.0,-4.0,-13.0,-3.0,-7.0,-4.0,0.359544038772583
130,219.0,81.0,-40.0,0.0,-46.0,10936.0,7964.0,9240.0,-13.0,-27.0,-7.0,1.0,12.0,3.0,3.0,-4.0,0.36432528495788574
131,219.0,81.0,-40.0,0.0,-46.0,10936.0,7964.0,9240.0,0.0,-16.0,-4.0,-12.0,-15.0,-6.0,0.0,1.0,0.36832571029663086
132,284.0,73.0,-64.0,0.0,-89.0,10923.0,7992.0,9231.0,0.0,-16.0,-4.0,-12.0,-15.0,-6.0,0.0,1.0,0.37086963653564453
133,284.0,73.0,-64.0,0.0,-89.0,10923.0,7992.0,9231.0,-12.0,-20.0,15.0,2.0,-3.0,1.0,-2.0,-2.0,0.3792240619659424
134,284.0,73.0,-64.0,0.0,-89.0,10923.0,7992.0,9231.0,9.0,-1.0,-18.0,3.0,2.0,4.0,4.0,2.0,0.38105058670043945
135,229.0,71.0,-57.0,0.0,-121.0,10907.0,8016.0,9229.0,9.0,-1.0,-18.0,3.0,2.0,4.0,4.0,2.0,0.39569616317749023
136,229.0,71.0,-57.0,0.0,-121.0,10907.0,8016.0,9229.0,-1.0,0.0,8.0,-4.0,-25.0,-5.0,-1.0,0.0,0.3992481231689453
137,229.0,71.0,-57.0,0.0,-121.0,10907.0,8016.0,9229.0,-11.0,0.0,23.0,-2.0,-6.0,-3.0,-6.0,-4.0,0.40261077880859375
138,109.0,56.0,-44.0,0.0,-137.0,10891.0,8026.0,9240.0,-11.0,0.0,23.0,-2.0,-6.0,-3.0,-6.0,-4.0,0.4174461364746094
139,109.0,56.0,-44.0,0.0,-137.0,10891.0,8026.0,9240.0,13.0,40.0,29.0,3.0,2.0,-1.0,-1.0,3.0,0.4195065498352051
140,109.0,56.0,-44.0,0.0,-137.0,10891.0,8026.0,9240.0,6.0,6.0,-9.0,-6.0,4.0,-3.0,-5.0,1.0,0.4221019744873047
141,21.0,69.0,-42.0,0.0,-146.0,10873.0,8023.0,9263.0,6.0,6.0,-9.0,-6.0,4.0,-3.0,-5.0,1.0,0.4416630268096924
142,21.0,69.0,-42.0,0.0,-146.0,10873.0,8023.0,9263.0,16.0,27.0,-26.0,-6.0,2.0,-4.0,-7.0,-1.0,0.44378018379211426
143,21.0,69.0,-42.0,0.0,-146.0,10873.0,8023.0,9263.0,-7.0,-3.0,4.0,6.0,9.0,3.0,7.0,1.0,0.44556641578674316
144,-25.0,96.0,-25.0,0.0,-155.0,10854.0,8014.0,9292.0,-7.0,-3.0,4.0,6.0,9.0,3.0,7.0,1.0,0.4569263458251953
145,-25.0,96.0,-25.0,0.0,-155.0,10854.0,8014.0,9292.0,-7.0,1.0,4.0,-7.0,-11.0,-5.0,-1.0,0.0,0.459195613861084
146,-25.0,96.0,-25.0,0.0,-155.0,10854.0,8014.0,9292.0,1.0,-3.0,2.0,0.0,0.0,0.0,-3.0,-3.0,0.4609825611114502
147,-11.0,85.0,-32.0,0.0,-168.0,10838.0,8004.0,9319.0,1.0,-3.0,2.0,0.0,0.0,0.0,-3.0,-3.0,0.47630834579467773
148,-11.0,85.0,-32.0,0.0,-168.0,10838.0,8004.0,9319.0,-10.0,-20.0,-9.0,4.0,7.0,3.0,1.0,-2.0,0.47818470001220703
149,-11.0,85.0,-32.0,0.0,-168.0,10838.0,8004.0,9319.0,-4.0,-5.0,-13.0,-4.0,-18.0,-11.0,-8.0,2.0,0.48336219787597656
150,66.0,63.0,-53.0,0.0,-185.0,10822.0,8006.0,9336.0,-4.0,-5.0,-13.0,-4.0,-18.0,-11.0,-8.0,2.0,0.49953532218933105
151,66.0,63.0,-53.0,0.0,-185.0,10822.0,8006.0,9336.0,2.0,9.0,6.0,3.0,1.0,2.0,-4.0,1.0,0.5017931461334229
152,66.0,63.0,-53.0,0.0,-185.0,10822.0,8006.0,9336.0,9.0,30.0,24.0,7.0,8.0,0.0,1.0,-2.0,0.5035779476165771
153,62.0,44.0,-36.0,0.0,-193.0,10808.0,8012.0,9347.0,9.0,30.0,24.0,7.0,8.0,0.0,1.0,-2.0,0.5234856605529785
154,62.0,44.0,-36.0,0.0,-193.0,10808.0,8012.0,9347.0,-1.0,-2.0,-6.0,1.0,4.0,2.0,-3.0,-1.0,0.5254111289978027
155,62.0,44.0,-36.0,0.0,-193.0,10808.0,8012.0,9347.0,3.0,15.0,-7.0,-7.0,6.0,0.0,-2.0,-2.0,0.5272026062011719
156,-45.0,15.0,0.0,0.0,-192.0,10803.0,8002.0,9361.0,3.0,15.0,-7.0,-7.0,6.0,0.0,-2.0,-2.0,0.5361194610595703
157,-45.0,15.0,0.0,0.0,-192.0,10803.0,8002.0,9361.0,1.0,-3.0,12.0,2.0,1.0,-3.0,-1.0,1.0,0.5445058345794678
158,-45.0,15.0,0.0,0.0,-192.0,10803.0,8002.0,9361.0,-12.0,-27.0,1.0,0.0,8.0,-3.0,-6.0,-1.0,0.5470247268676758
159,-112.0,23.0,57.0,0.0,-196.0,10805.0,7976.0,9382.0,-12.0,-27.0,1.0,0.0,8.0,-3.0,-6.0,-1.0,0.5598239898681641
160,-112.0,23.0,57.0,0.0,-196.0,10805.0,7976.0,9382.0,4.0,0.0,-11.0,-6.0,0.0,-4.0,-1.0,0.0,0.5618515014648438
161,-112.0,23.0,57.0,0.0,-196.0,10805.0,7976.0,9382.0,-8.0,-21.0,-3.0,-4.0,-14.0,-3.0,0.0,-9.0,0.5636968612670898
162,-14.0,18.0,43.0,0.0,-204.0,10804.0,7964.0,9392.0,-8.0,-21.0,-3.0,-4.0,-14.0,-3.0,0.0,-9.0,0.5830423831939697
163,-14.0,18.0,43.0,0.0,-204.0,10804.0,7964.0,9392.0,1.0,-2.0,-27.0,-3.0,-1.0,2.0,-2.0,-1.0,0.5863573551177979
164,-14.0,18.0,43.0,0.0,-204.0,10804.0,7964.0,9392.0,-6.0,-15.0,-19.0,1.0,2.0,2.0,-1.0,2.0,0.5907351970672607
165,150.0,-38.0,0.0,0.0,-216.0,10806.0,7981.0,9375.0,-6.0,-15.0,-19.0,1.0,2.0,2.0,-1.0,2.0,0.5955729484558105
166,150.0,-38.0,0.0,0.0,-216.0,10806.0,7981.0,9375.0,14.0,22.0,-3.0,5.0,9.0,2.0,-1.0,0.0,0.605201005935669
167,150.0,-38.0,0.0,0.0,-216.0,10806.0,7981.0,9375.0,0.0,-6.0,4.0,1.0,-8.0,2.0,0.0,0.0,0.6101973056793213
168,244.0,-106.0,14.0,0.0,-229.0,10816.0,8010.0,9338.0,0.0,-6.0,4.0,1.0,-8.0,2.0,0.0,0.0,0.6196017265319824
169,244.0,-106.0,14.0,0.0,-229.0,10816.0,8010.0,9338.0,-14.0,-16.0,1.0,-2.0,6.0,-1.0,1.0,0.0,0.6221191883087158
170,244.0,-106.0,14.0,0.0,-229.0,10816.0,8010.0,9338.0,-3.0,2.0,-8.0,-2.0,-3.0,2.0,0.0,-2.0,0.6259500980377197
171,174.0,-108.0,57.0,0.0,-232.0,10828.0,8031.0,9307.0,-3.0,2.0,-8.0,-2.0,-3.0,2.0,0.0,-2.0,0.6432194709777832
172,174.0,-108.0,57.0,0.0,-232.0,10828.0,8031.0,9307.0,-9.0,-19.0,0.0,-1.0,1.0,0.0,-13.0,-6.0,0.64609694480896
173,174.0,-108.0,57.0,0.0,-232.0,10828.0,8031.0,9307.0,7.0,17.0,5.0,-7.0,-12.0,-5.0,-5.0,2.0,0.6478774547576904
174,72.0,-104.0,68.0,0.0,-220.0,10840.0,8043.0,9283.0,7.0,17.0,5.0,-7.0,-12.0,-5.0,-5.0,2.0,0.6567604541778564
175,72.0,-104.0,68.0,0.0,-220.0,10840.0,8043.0,9283.0,-6.0,-6.0,12.0,-1.0,-16.0,-1.0,3.0,3.0,0.6641483306884766
176,72.0,-104.0,68.0,0.0,-220.0,10840.0,8043.0,9283.0,-1.0,12.0,11.0,7.0,0.0,0.0,1.0,2.0,0.6660728454589844
177,39.0,-98.0,85.0,0.0,-207.0,10856.0,8050.0,9258.0,-1.0,12.0,11.0,7.0,0.0,0.0,1.0,2.0,0.6795654296875
178,39.0,-98.0,85.0,0.0,-207.0,10856.0,8050.0,9258.0,-4.0,-9.0,12.0,3.0,5.0,3.0,-2.0,-2.0,0.6814360618591309
179,39.0,-98.0,85.0,0.0,-207.0,10856.0,8050.0,9258.0,2.0,-1.0,8.0,2.0,4.0,5.0,2.0,1.0,0.6832427978515625
180,36.0,-91.0,47.0,0.0,-189.0,10867.0,8063.0,9234.0,2.0,-1.0,8.0,2.0,4.0,5.0,2.0,1.0,0.702970027923584
181,36.0,-91.0,47.0,0.0,-189.0,10867.0,8063.0,9234.0,-7.0,24.0,9.0,0.0,-14.0,-5.0,0.0,-6.0,0.7071688175201416
182,36.0,-91.0,47.0,0.0,-189.0,10867.0,8063.0,9234.0,10.0,34.0,-12.0,-1.0,-8.0,-9.0,-8.0,-1.0,0.7102088928222656
183,11.0,-84.0,23.0,0.0,-167.0,10872.0,8073.0,9220.0,10.0,34.0,-12.0,-1.0,-8.0,-9.0,-8.0,-1.0,0.7173068523406982
184,11.0,-84.0,23.0,0.0,-167.0,10872.0,8073.0,9220.0,-7.0,-12.0,-7.0,-6.0,8.0,-1.0,2.0,3.0,0.7239325046539307
185,11.0,-84.0,23.0,0.0,-167.0,10872.0,8073.0,9220.0,-4.0,6.0,7.0,3.0,7.0,2.0,3.0,-3.0,0.7257440090179443
186,20.0,-74.0,2.0,0.0,-152.0,10877.0,8083.0,9206.0,-4.0,6.0,7.0,3.0,7.0,2.0,3.0,-3.0,0.7408039569854736
187,20.0,-74.0,2.0,0.0,-152.0,10877.0,8083.0,9206.0,13.0,14.0,19.0,8.0,11.0,3.0,-1.0,1.0,0.7426962852478027
188,20.0,-74.0,2.0,0.0,-152.0,10877.0,8083.0,9206.0,0.0,-27.0,3.0,-1.0,14.0,1.0,-2.0,-3.0,0.7444801330566406
189,58.0,-94.0,-81.0,0.0,-129.0,10874.0,8106.0,9189.0,0.0,-27.0,3.0,-1.0,14.0,1.0,-2.0,-3.0,0.7637197971343994
190,58.0,-94.0,-81.0,0.0,-129.0,10874.0,8106.0,9189.0,12.0,16.0,-8.0,-23.0,-7.0,-2.0,-1.0,6.0,0.7670788764953613
191,58.0,-94.0,-81.0,0.0,-129.0,10874.0,8106.0,9189.0,-11.0,-18.0,-8.0,-15.0,-4.0,0.0,0.0,-4.0,0.7698965072631836
192,88.0,-106.0,-192.0,0.0,-95.0,10856.0,8142.0,9179.0,-11.0,-18.0,-8.0,-15.0,-4.0,0.0,0.0,-4.0,0.7756636142730713
193,88.0,-106.0,-192.0,0.0,-95.0,10856.0,8142.0,9179.0,0.0,22.0,-3.0,16.0,-4.0,-2.0,-7.0,-3.0,0.7843325138092041
194,88.0,-106.0,-192.0,0.0,-95.0,10856.0,8142.0,9179.0,-4.0,0.0,1.0,13.0,17.0,9.0,-1.0,3.0,0.7861831188201904
195,83.0,-94.0,-297.0,0.0,-44.0,10821.0,8192.0,9176.0,-4.0,0.0,1.0,13.0,17.0,9.0,-1.0,3.0,0.7991914749145508
196,83.0,-94.0,-297.0,0.0,-44.0,10821.0,8192.0,9176.0,1.0,-17.0,-20.0,-2.0,7.0,-1.0,-3.0,-8.0,0.801098108291626
197,83.0,-94.0,-297.0,0.0,-44.0,10821.0,8192.0,9176.0,1.0,-16.0,-2.0,-5.0,0.0,5.0,7.0,1.0,0.8071205615997314
198,46.0,-42.0,-366.0,0.0,20.0,10770.0,8248.0,9185.0,1.0,-16.0,-2.0,-5.0,0.0,5.0,7.0,1.0,0.8246195316314697
199,46.0,-42.0,-366.0,0.0,20.0,10770.0,8248.0,9185.0,-9.0,-11.0,2.0,-1.0,0.0,7.0,5.0,0.0,0.8265964984893799
200,46.0,-42.0,-366.0,0.0,20.0,10770.0,8248.0,9185.0,-10.0,-5.0,-3.0,-3.0,-3.0,-4.0,-3.0,-2.0,0.8283965587615967
201,79.0,-22.0,-510.0,0.0,100.0,10701.0,8328.0,9194.0,-10.0,-5.0,-3.0,-3.0,-3.0,-4.0,-3.0,-2.0,0.8360693454742432
202,79.0,-22.0,-510.0,0.0,100.0,10701.0,8328.0,9194.0,-25.0,-38.0,-17.0,-13.0,-38.0,-13.0,-7.0,-9.0,0.8443069458007812
203,79.0,-22.0,-510.0,0.0,100.0,10701.0,8328.0,9194.0,19.0,46.0,-18.0,-9.0,-17.0,-5.0,-2.0,0.0,0.8461875915527344
204,236.0,-64.0,-743.0,0.0,188.0,10615.0,8447.0,9184.0,19.0,46.0,-18.0,-9.0,-17.0,-5.0,-2.0,0.0,0.8591339588165283
205,236.0,-64.0,-743.0,0.0,188.0,10615.0,8447.0,9184.0,-33.0,-75.0,29.0,-4.0,17.0,6.0,7.0,-8.0,0.8621628284454346
206,236.0,-64.0,-743.0,0.0,188.0,10615.0,8447.0,9184.0,-2.0,-5.0,22.0,21.0,-13.0,-8.0,4.0,0.0,0.865872859954834
207,400.0,-39.0,-1058.0,0.0,308.0,10485.0,8628.0,9162.0,-2.0,-5.0,22.0,21.0,-13.0,-8.0,4.0,0.0,0.8839201927185059
208,400.0,-39.0,-1058.0,0.0,308.0,10485.0,8628.0,9162.0,6.0,41.0,5.0,8.0,-12.0,-6.0,-6.0,3.0,0.8877274990081787
209,400.0,-39.0,-1058.0,0.0,308.0,10485.0,8628.0,9162.0,9.0,32.0,19.0,-7.0,-2.0,-1.0,-7.0,2.0,0.8908038139343262
210,263.0,-24.0,-1275.0,0.0,487.0,10316.0,8825.0,9157.0,9.0,32.0,19.0,-7.0,-2.0,-1.0,-7.0,2.0,0.8958740234375
211,263.0,-24.0,-1275.0,0.0,487.0,10316.0,8825.0,9157.0,-4.0,-10.0,22.0,-13.0,-3.0,0.0,5.0,0.0,0.9041447639465332
212,263.0,-24.0,-1275.0,0.0,487.0,10316.0,8825.0,9157.0,3.0,12.0,8.0,-9.0,11.0,8.0,15.0,8.0,0.905963659286499
213,-203.0,-14.0,-1253.0,0.0,722.0,10137.0,8970.0,9202.0,3.0,12.0,8.0,-9.0,11.0,8.0,15.0,8.0,0.9188992977142334
214,-203.0,-14.0,-1253.0,0.0,722.0,10137.0,8970.0,9202.0,13.0,-3.0,-46.0,-46.0,-42.0,-24.0,-12.0,-3.0,0.9213273525238037
215,-203.0,-14.0,-1253.0,0.0,722.0,10137.0,8970.0,9202.0,4.0,1.0,29.0,17.0,22.0,-8.0,-11.0,-4.0,0.9255871772766113
216,-846.0,33.0,-1394.0,0.0,1034.0,9933.0,9060.0,9305.0,4.0,1.0,29.0,17.0,22.0,-8.0,-11.0,-4.0,0.9506752490997314
217,-846.0,33.0,-1394.0,0.0,1034.0,9933.0,9060.0,9305.0,-7.0,-24.0,8.0,20.0,8.0,8.0,10.0,12.0,0.9543769359588623
218,-846.0,33.0,-1394.0,0.0,1034.0,9933.0,9060.0,9305.0,23.0,52.0,-8.0,14.0,-18.0,-8.0,-10.0,-1.0,0.9580824375152588
219,-1138.0,112.0,-1634.0,0.0,1326.0,9735.0,9124.0,9414.0,23.0,52.0,-8.0,14.0,-18.0,-8.0,-10.0,-1.0,0.9646141529083252
220,-1138.0,112.0,-1634.0,0.0,1326.0,9735.0,9124.0,9414.0,21.0,27.0,-25.0,11.0,11.0,1.0,3.0,3.0,0.9665374755859375
221,-1138.0,112.0,-1634.0,0.0,1326.0,9735.0,9124.0,9414.0,-20.0,-35.0,-19.0,0.0,15.0,8.0,-1.0,-1.0,0.9685628414154053
222,-991.0,198.0,-1813.0,0.0,1608.0,9508.0,9216.0,9512.0,-20.0,-35.0,-19.0,0.0,15.0,8.0,-1.0,-1.0,0.9792618751525879
223,-991.0,198.0,-1813.0,0.0,1608.0,9508.0,9216.0,9512.0,-8.0,-32.0,15.0,34.0,20.0,3.0,6.0,0.0,0.9811553955078125
224,-991.0,198.0,-1813.0,0.0,1608.0,9508.0,9216.0,9512.0,5.0,-9.0,-2.0,0.0,20.0,5.0,-7.0,-4.0,0.9856436252593994
225,-1074.0,236.0,-2064.0,0.0,1927.0,9240.0,9322.0,9613.0,5.0,-9.0,-2.0,0.0,20.0,5.0,-7.0,-4.0,1.0038986206054688
226,-1074.0,236.0,-2064.0,0.0,1927.0,9240.0,9322.0,9613.0,-12.0,-12.0,27.0,-10.0,-33.0,-13.0,-12.0,-9.0,1.0087010860443115
227,-1074.0,236.0,-2064.0,0.0,1927.0,9240.0,9322.0,9613.0,-19.0,-53.0,14.0,-4.0,2.0,-4.0,-2.0,-5.0,1.0128166675567627
228,-1632.0,284.0,-2283.0,0.0,2318.0,8926.0,9387.0,9760.0,-19.0,-53.0,14.0,-4.0,2.0,-4.0,-2.0,-5.0,1.0262506008148193
229,-1632.0,284.0,-2283.0,0.0,2318.0,8926.0,9387.0,9760.0,16.0,47.0,12.0,17.0,4.0,2.0,-3.0,0.0,1.0301282405853271
230,-1632.0,284.0,-2283.0,0.0,2318.0,8926.0,9387.0,9760.0,7.0,19.0,17.0,3.0,-9.0,3.0,7.0,6.0,1.0339717864990234
231,-2018.0,399.0,-2584.0,0.0,2755.0,8556.0,9428.0,9936.0,7.0,19.0,17.0,3.0,-9.0,3.0,7.0,6.0,1.039907455444336
232,-2018.0,399.0,-2584.0,0.0,2755.0,8556.0,9428.0,9936.0,4.0,31.0,11.0,-22.0,-7.0,-4.0,-6.0,0.0,1.0422616004943848
233,-2018.0,399.0,-2584.0,0.0,2755.0,8556.0,9428.0,9936.0,-8.0,-17.0,-22.0,-7.0,-6.0,-2.0,-3.0,-6.0,1.0461082458496094
234,-1926.0,519.0,-2880.0,0.0,3193.0,8138.0,9499.0,10087.0,-8.0,-17.0,-22.0,-7.0,-6.0,-2.0,-3.0,-6.0,1.063627004623413
235,-1926.0,519.0,-2880.0,0.0,3193.0,8138.0,9499.0,10087.0,3.0,-24.0,-24.0,-4.0,10.0,8.0,5.0,4.0,1.067922592163086
236,-1926.0,519.0,-2880.0,0.0,3193.0,8138.0,9499.0,10087.0,-11.0,-1.0,8.0,-4.0,-5.0,-3.0,-3.0,-2.0,1.0717499256134033
237,-1965.0,615.0,-3176.0,0.0,3647.0,7670.0,9579.0,10224.0,-11.0,-1.0,8.0,-4.0,-5.0,-3.0,-3.0,-2.0,1.0852186679840088
238,-1965.0,615.0,-3176.0,0.0,3647.0,7670.0,9579.0,10224.0,2.0,-4.0,-4.0,-2.0,5.0,3.0,-3.0,-6.0,1.0889580249786377
239,-1965.0,615.0,-3176.0,0.0,3647.0,7670.0,9579.0,10224.0,11.0,6.0,-6.0,-3.0,5.0,3.0,0.0,5.0,1.0928080081939697
240,-2327.0,581.0,-3417.0,0.0,4150.0,7155.0,9619.0,10366.0,11.0,6.0,-6.0,-3.0,5.0,3.0,0.0,5.0,1.0991709232330322
241,-2327.0,581.0,-3417.0,0.0,4150.0,7155.0,9619.0,10366.0,-3.0,5.0,22.0,11.0,8.0,2.0,-3.0,-2.0,1.1026160717010498
242,-2327.0,581.0,-3417.0,0.0,4150.0,7155.0,9619.0,10366.0,5.0,8.0,-17.0,9.0,-6.0,-4.0,0.0,2.0,1.1064376831054688
243,-2604.0,696.0,-3589.0,0.0,4666.0,6590.0,9630.0,10511.0,5.0,8.0,-17.0,9.0,-6.0,-4.0,0.0,2.0,1.1222267150878906
244,-2604.0,696.0,-3589.0,0.0,4666.0,6590.0,9630.0,10511.0,15.0,21.0,-33.0,-1.0,16.0,6.0,2.0,5.0,1.1243226528167725
245,-2604.0,696.0,-3589.0,0.0,4666.0,6590.0,9630.0,10511.0,-3.0,5.0,-12.0,-11.0,-7.0,0.0,2.0,-2.0,1.1275336742401123
246,-2924.0,919.0,-3798.0,0.0,5182.0,5956.0,9607.0,10667.0,-3.0,5.0,-12.0,-11.0,-7.0,0.0,2.0,-2.0,1.145794153213501
247,-2924.0,919.0,-3798.0,0.0,5182.0,5956.0,9607.0,10667.0,2.0,-17.0,-12.0,-4.0,-9.0,-4.0,-3.0,1.0,1.1496586799621582
248,-2924.0,919.0,-3798.0,0.0,5182.0,5956.0,9607.0,10667.0,-17.0,-21.0,3.0,-1.0,-4.0,-3.0,-1.0,-7.0,1.1535475254058838
249,-2967.0,904.0,-3990.0,0.0,5704.0,5292.0,9566.0,10787.0,-17.0,-21.0,3.0,-1.0,-4.0,-3.0,-1.0,-7.0,1.1587815284729004
250,-2967.0,904.0,-3990.0,0.0,5704.0,5292.0,9566.0,10787.0,-11.0,2.0,-23.0,1.0,4.0,-4.0,-5.0,-6.0,1.166548252105713
251,-2967.0,904.0,-3990.0,0.0,5704.0,5292.0,9566.0,10787.0,-10.0,-24.0,-27.0,-11.0,-5.0,-4.0,-1.0,-3.0,1.1683659553527832
252,-2859.0,852.0,-4028.0,0.0,6215.0,4622.0,9508.0,10864.0,-10.0,-24.0,-27.0,-11.0,-5.0,-4.0,-1.0,-3.0,1.1833884716033936
253,-2859.0,852.0,-4028.0,0.0,6215.0,4622.0,9508.0,10864.0,1.0,7.0,-17.0,-7.0,3.0,2.0,-1.0,2.0,1.1873693466186523
254,-2859.0,852.0,-4028.0,0.0,6215.0,4622.0,9508.0,10864.0,0.0,3.0,40.0,5.0,0.0,-1.0,-2.0,-1.0,1.1910834312438965
255,-2833.0,785.0,-4007.0,0.0,6717.0,3945.0,9421.0,10908.0,0.0,3.0,40.0,5.0,0.0,-1.0,-2.0,-1.0,1.2054531574249268
256,-2833.0,785.0,-4007.0,0.0,6717.0,3945.0,9421.0,10908.0,-2.0,-9.0,30.0,10.0,4.0,5.0,2.0,0.0,1.2094147205352783
257,-2833.0,785.0,-4007.0,0.0,6717.0,3945.0,9421.0,10908.0,-7.0,-6.0,-43.0,4.0,-2.0,1.0,1.0,-3.0,1.2127845287322998
258,-3004.0,834.0,-3941.0,0.0,7195.0,3245.0,9290.0,10945.0,-7.0,-6.0,-43.0,4.0,-2.0,1.0,1.0,-3.0,1.2193264961242676
259,-3004.0,834.0,-3941.0,0.0,7195.0,3245.0,9290.0,10945.0,-2.0,-9.0,8.0,2.0,2.0,1.0,-1.0,-3.0,1.226806879043579
260,-3004.0,834.0,-3941.0,0.0,7195.0,3245.0,9290.0,10945.0,6.0,2.0,-5.0,4.0,0.0,0.0,0.0,0.0,1.2286195755004883
261,-3041.0,1011.0,-3952.0,0.0,7637.0,2512.0,9143.0,10963.0,6.0,2.0,-5.0,4.0,0.0,0.0,0.0,0.0,1.243269920349121
262,-3041.0,1011.0,-3952.0,0.0,7637.0,2512.0,9143.0,10963.0,-3.0,-6.0,-14.0,-16.0,1.0,1.0,-2.0,2.0,1.24704909324646
263,-3041.0,1011.0,-3952.0,0.0,7637.0,2512.0,9143.0,10963.0,-6.0,-21.0,-36.0,-12.0,-6.0,-4.0,2.0,-6.0,1.2508931159973145
264,-2895.0,1095.0,-4105.0,0.0,8063.0,1760.0,8998.0,10924.0,-6.0,-21.0,-36.0,-12.0,-6.0,-4.0,2.0,-6.0,1.2664458751678467
265,-2895.0,1095.0,-4105.0,0.0,8063.0,1760.0,8998.0,10924.0,2.0,6.0,15.0,1.0,1.0,-1.0,-3.0,0.0,1.2706565856933594
266,-2895.0,1095.0,-4105.0,0.0,8063.0,1760.0,8998.0,10924.0,-3.0,-1.0,6.0,-2.0,-2.0,-1.0,-2.0,-2.0,1.2743771076202393
267,-2874.0,1073.0,-4180.0,0.0,8477.0,998.0,8827.0,10846.0,-3.0,-1.0,6.0,-2.0,-2.0,-1.0,-2.0,-2.0,1.2783823013305664
268,-2874.0,1073.0,-4180.0,0.0,8477.0,998.0,8827.0,10846.0,-10.0,-14.0,-17.0,-4.0,-3.0,-2.0,1.0,-4.0,1.2890329360961914
269,-2874.0,1073.0,-4180.0,0.0,8477.0,998.0,8827.0,10846.0,3.0,-1.0,41.0,4.0,-1.0,1.0,1.0,1.0,1.2923812866210938
270,-2969.0,991.0,-4167.0,0.0,8876.0,229.0,8609.0,10745.0,3.0,-1.0,41.0,4.0,-1.0,1.0,1.0,1.0,1.3025507926940918
271,-2969.0,991.0,-4167.0,0.0,8876.0,229.0,8609.0,10745.0,-2.0,1.0,9.0,3.0,0.0,-1.0,-3.0,-1.0,1.3044607639312744
272,-2969.0,991.0,-4167.0,0.0,8876.0,229.0,8609.0,10745.0,-1.0,7.0,-31.0,-3.0,-3.0,1.0,-2.0,-2.0,1.3062634468078613
273,-2895.0,1131.0,-4244.0,0.0,9248.0,-563.0,8384.0,10596.0,-1.0,7.0,-31.0,-3.0,-3.0,1.0,-2.0,-2.0,1.3249897956848145
274,-2895.0,1131.0,-4244.0,0.0,9248.0,-563.0,8384.0,10596.0,2.0,-3.0,-15.0,-4.0,1.0,-3.0,1.0,-1.0,1.3269169330596924
275,-2895.0,1131.0,-4244.0,0.0,9248.0,-563.0,8384.0,10596.0,-1.0,-6.0,1.0,2.0,2.0,-3.0,1.0,0.0,1.328752040863037
276,-2570.0,1302.0,-4397.0,0.0,9598.0,-1361.0,8186.0,10364.0,-1.0,-6.0,1.0,2.0,2.0,-3.0,1.0,0.0,1.3386659622192383
277,-2570.0,1302.0,-4397.0,0.0,9598.0,-1361.0,8186.0,10364.0,3.0,8.0,-13.0,7.0,1.0,1.0,3.0,-1.0,1.3493976593017578
278,-2570.0,1302.0,-4397.0,0.0,9598.0,-1361.0,8186.0,10364.0,-1.0,-2.0,8.0,-6.0,-1.0,0.0,-4.0,-2.0,1.3527107238769531
279,-1978.0,1306.0,-4536.0,0.0,9943.0,-2114.0,8029.0,10031.0,-1.0,-2.0,8.0,-6.0,-1.0,0.0,-4.0,-2.0,1.3621306419372559
280,-1978.0,1306.0,-4536.0,0.0,9943.0,-2114.0,8029.0,10031.0,6.0,5.0,20.0,14.0,6.0,2.0,0.0,3.0,1.3640265464782715
281,-1978.0,1306.0,-4536.0,0.0,9943.0,-2114.0,8029.0,10031.0,-9.0,-5.0,-10.0,-3.0,-3.0,0.0,1.0,-9.0,1.365833044052124
282,-1474.0,974.0,-4636.0,0.0,10312.0,-2781.0,7862.0,9619.0,-9.0,-5.0,-10.0,-3.0,-3.0,0.0,1.0,-9.0,1.3856770992279053
283,-1474.0,974.0,-4636.0,0.0,10312.0,-2781.0,7862.0,9619.0,-5.0,-5.0,-10.0,-7.0,-8.0,-1.0,4.0,6.0,1.3896701335906982
284,-1474.0,974.0,-4636.0,0.0,10312.0,-2781.0,7862.0,9619.0,-3.0,7.0,14.0,6.0,15.0,-1.0,-4.0,0.0,1.391843557357788
285,-1178.0,649.0,-4618.0,0.0,10686.0,-3372.0,7669.0,9168.0,-3.0,7.0,14.0,6.0,15.0,-1.0,-4.0,0.0,1.3986234664916992
286,-1178.0,649.0,-4618.0,0.0,10686.0,-3372.0,7669.0,9168.0,-8.0,14.0,18.0,14.0,6.0,1.0,-2.0,-2.0,1.4069626331329346
287,-1178.0,649.0,-4618.0,0.0,10686.0,-3372.0,7669.0,9168.0,1.0,-10.0,-31.0,-6.0,-21.0,-4.0,-3.0,2.0,1.4094774723052979
288,-1410.0,341.0,-4443.0,0.0,11033.0,-3939.0,7399.0,8742.0,1.0,-10.0,-31.0,-6.0,-21.0,-4.0,-3.0,2.0,1.424257755279541
289,-1410.0,341.0,-4443.0,0.0,11033.0,-3939.0,7399.0,8742.0,-4.0,-23.0,17.0,-13.0,-7.0,-6.0,-10.0,-1.0,1.4276769161224365
290,-1410.0,341.0,-4443.0,0.0,11033.0,-3939.0,7399.0,8742.0,19.0,-10.0,-1.0,32.0,36.0,12.0,0.0,-3.0,1.4308719635009766
291,-1981.0,204.0,-4091.0,0.0,11310.0,-4530.0,7047.0,8386.0,19.0,-10.0,-1.0,32.0,36.0,12.0,0.0,-3.0,1.4448182582855225
292,-1981.0,204.0,-4091.0,0.0,11310.0,-4530.0,7047.0,8386.0,-5.0,0.0,2.0,17.0,30.0,-17.0,-28.0,0.0,1.4483211040496826
293,-1981.0,204.0,-4091.0,0.0,11310.0,-4530.0,7047.0,8386.0,-8.0,-18.0,9.0,-7.0,11.0,-4.0,-13.0,0.0,1.4517107009887695
294,-2396.0,138.0,-3744.0,0.0,11513.0,-5141.0,6645.0,8079.0,-8.0,-18.0,9.0,-7.0,11.0,-4.0,-13.0,0.0,1.4588501453399658
295,-2396.0,138.0,-3744.0,0.0,11513.0,-5141.0,6645.0,8079.0,1.0,8.0,9.0,17.0,79.0,32.0,16.0,3.0,1.4669623374938965
296,-2396.0,138.0,-3744.0,0.0,11513.0,-5141.0,6645.0,8079.0,-29.0,-14.0,3.0,-26.0,-32.0,-3.0,9.0,-5.0,1.4695191383361816
297,-3046.0,510.0,-3117.0,0.0,11569.0,-5835.0,6248.0,7841.0,-29.0,-14.0,3.0,-26.0,-32.0,-3.0,9.0,-5.0,1.4821252822875977
298,-3046.0,510.0,-3117.0,0.0,11569.0,-5835.0,6248.0,7841.0,-17.0,-18.0,0.0,7.0,22.0,57.0,57.0,12.0,1.4842662811279297
299,-3046.0,510.0,-3117.0,0.0,11569.0,-5835.0,6248.0,7841.0,4.0,14.0,-5.0,-33.0,-89.0,-31.0,-10.0,-1.0,1.4860951900482178
300,-2119.0,1341.0,-2686.0,0.0,11563.0,-6395.0,6061.0,7555.0,4.0,14.0,-5.0,-33.0,-89.0,-31.0,-10.0,-1.0,1.5061845779418945
301,-2119.0,1341.0,-2686.0,0.0,11563.0,-6395.0,6061.0,7555.0,3.0,-21.0,-61.0,-45.0,-47.0,-64.0,-96.0,-19.0,1.5081415176391602
302,-2119.0,1341.0,-2686.0,0.0,11563.0,-6395.0,6061.0,7555.0,-3.0,-8.0,64.0,2.0,-68.0,-15.0,5.0,-3.0,1.5099308490753174
303,-367.0,1321.0,-2374.0,0.0,11641.0,-6704.0,6029.0,7185.0,-3.0,-8.0,64.0,2.0,-68.0,-15.0,5.0,-3.0,1.5270907878875732
304,-367.0,1321.0,-2374.0,0.0,11641.0,-6704.0,6029.0,7185.0,-17.0,-12.0,-8.0,-25.0,-105.0,-18.0,58.0,-7.0,1.5289509296417236
305,-367.0,1321.0,-2374.0,0.0,11641.0,-6704.0,6029.0,7185.0,-50.0,-22.0,-23.0,-27.0,-42.0,-35.0,18.0,-4.0,1.5312905311584473
306,694.0,1067.0,-1038.0,0.0,11701.0,-6767.0,6142.0,6928.0,-50.0,-22.0,-23.0,-27.0,-42.0,-35.0,18.0,-4.0,1.5421247482299805
307,694.0,1067.0,-1038.0,0.0,11701.0,-6767.0,6142.0,6928.0,50.0,21.0,-9.0,14.0,13.0,21.0,121.0,24.0,1.5439860820770264
308,694.0,1067.0,-1038.0,0.0,11701.0,-6767.0,6142.0,6928.0,9.0,21.0,25.0,56.0,127.0,37.0,6.0,-2.0,1.5457544326782227
309,863.0,1327.0,395.0,0.0,11644.0,-6729.0,6405.0,6821.0,9.0,21.0,25.0,56.0,127.0,37.0,6.0,-2.0,1.5660412311553955
310,863.0,1327.0,395.0,0.0,11644.0,-6729.0,6405.0,6821.0,4.0,1.0,0.0,-13.0,-12.0,-54.0,-41.0,-26.0,1.569481611251831
311,863.0,1327.0,395.0,0.0,11644.0,-6729.0,6405.0,6821.0,5.0,19.0,-20.0,4.0,48.0,37.0,57.0,-7.0,1.5732264518737793
312,255.0,1234.0,803.0,0.0,11515.0,-6732.0,6639.0,6814.0,5.0,19.0,-20.0,4.0,48.0,37.0,57.0,-7.0,1.5781276226043701
313,255.0,1234.0,803.0,0.0,11515.0,-6732.0,6639.0,6814.0,-30.0,4.0,13.0,21.0,15.0,14.0,-46.0,2.0,1.586733102798462
314,255.0,1234.0,803.0,0.0,11515.0,-6732.0,6639.0,6814.0,22.0,16.0,1.0,-12.0,-4.0,-8.0,-78.0,13.0,1.5889854431152344
315,-228.0,710.0,2250.0,0.0,11276.0,-6648.0,6874.0,7059.0,22.0,16.0,1.0,-12.0,-4.0,-8.0,-78.0,13.0,1.6036193370819092
316,-228.0,710.0,2250.0,0.0,11276.0,-6648.0,6874.0,7059.0,-13.0,-17.0,13.0,12.0,85.0,43.0,-25.0,1.0,1.6079998016357422
317,-228.0,710.0,2250.0,0.0,11276.0,-6648.0,6874.0,7059.0,42.0,-6.0,11.0,4.0,-7.0,-28.0,-36.0,-27.0,1.6113629341125488
318,-856.0,-347.0,3246.0,0.0,10982.0,-6478.0,6996.0,7542.0,42.0,-6.0,11.0,4.0,-7.0,-28.0,-36.0,-27.0,1.625852108001709
319,-856.0,-347.0,3246.0,0.0,10982.0,-6478.0,6996.0,7542.0,21.0,18.0,-7.0,-4.0,-37.0,-99.0,-53.0,22.0,1.6295199394226074
320,-856.0,-347.0,3246.0,0.0,10982.0,-6478.0,6996.0,7542.0,-30.0,-18.0,-20.0,-20.0,-34.0,-42.0,-28.0,23.0,1.6329622268676758
321,-584.0,-1377.0,4026.0,0.0,10721.0,-6170.0,7031.0,8122.0,-30.0,-18.0,-20.0,-20.0,-34.0,-42.0,-28.0,23.0,1.6394309997558594
322,-584.0,-1377.0,4026.0,0.0,10721.0,-6170.0,7031.0,8122.0,-26.0,-3.0,-5.0,-3.0,-11.0,-4.0,-32.0,-12.0,1.6464824676513672
323,-584.0,-1377.0,4026.0,0.0,10721.0,-6170.0,7031.0,8122.0,-2.0,8.0,-5.0,-43.0,-60.0,1.0,-18.0,-24.0,1.6482906341552734
324,-109.0,-1982.0,4945.0,0.0,10416.0,-5643.0,7103.0,8811.0,-2.0,8.0,-5.0,-43.0,-60.0,1.0,-18.0,-24.0,1.6635377407073975
325,-109.0,-1982.0,4945.0,0.0,10416.0,-5643.0,7103.0,8811.0,-13.0,-4.0,-2.0,18.0,-2.0,-11.0,-7.0,6.0,1.6667146682739258
326,-109.0,-1982.0,4945.0,0.0,10416.0,-5643.0,7103.0,8811.0,-8.0,-20.0,-8.0,18.0,29.0,45.0,16.0,16.0,1.6697161197662354
327,627.0,-2142.0,5960.0,0.0,10019.0,-4901.0,7278.0,9542.0,-8.0,-20.0,-8.0,18.0,29.0,45.0,16.0,16.0,1.6859047412872314
328,627.0,-2142.0,5960.0,0.0,10019.0,-4901.0,7278.0,9542.0,33.0,33.0,51.0,-1.0,-14.0,14.0,-29.0,-5.0,1.6916632652282715
329,627.0,-2142.0,5960.0,0.0,10019.0,-4901.0,7278.0,9542.0,28.0,1.0,-27.0,9.0,10.0,-12.0,-19.0,18.0,1.695378303527832
330,1712.0,-2204.0,6944.0,0.0,9515.0,-3917.0,7587.0,10245.0,28.0,1.0,-27.0,9.0,10.0,-12.0,-19.0,18.0,1.6981308460235596
331,1712.0,-2204.0,6944.0,0.0,9515.0,-3917.0,7587.0,10245.0,-65.0,-12.0,-10.0,0.0,3.0,3.0,-11.0,-22.0,1.7065417766571045
332,1712.0,-2204.0,6944.0,0.0,9515.0,-3917.0,7587.0,10245.0,86.0,47.0,-1.0,-18.0,1.0,-16.0,61.0,15.0,1.708348035812378
333,2492.0,-2564.0,7000.0,0.0,9018.0,-2783.0,7870.0,10835.0,86.0,47.0,-1.0,-18.0,1.0,-16.0,61.0,15.0,1.7240195274353027
334,2492.0,-2564.0,7000.0,0.0,9018.0,-2783.0,7870.0,10835.0,-53.0,-51.0,-16.0,-4.0,-19.0,14.0,70.0,-2.0,1.728269338607788
335,2492.0,-2564.0,7000.0,0.0,9018.0,-2783.0,7870.0,10835.0,-72.0,-2.0,-87.0,-8.0,-7.0,-3.0,31.0,-27.0,1.732267141342163
336,3419.0,-2688.0,5939.0,0.0,8623.0,-1613.0,8164.0,11172.0,-72.0,-2.0,-87.0,-8.0,-7.0,-3.0,31.0,-27.0,1.7450532913208008
337,3419.0,-2688.0,5939.0,0.0,8623.0,-1613.0,8164.0,11172.0,110.0,36.0,-8.0,-45.0,-2.0,36.0,26.0,4.0,1.7496469020843506
338,3419.0,-2688.0,5939.0,0.0,8623.0,-1613.0,8164.0,11172.0,1.0,-17.0,-17.0,13.0,-8.0,14.0,33.0,-14.0,1.7534236907958984
339,4061.0,-2273.0,7509.0,0.0,7945.0,-284.0,8537.0,11503.0,1.0,-17.0,-17.0,13.0,-8.0,14.0,33.0,-14.0,1.7587931156158447
340,4061.0,-2273.0,7509.0,0.0,7945.0,-284.0,8537.0,11503.0,-82.0,-13.0,-5.0,28.0,-17.0,16.0,-4.0,-12.0,1.7667651176452637
341,4061.0,-2273.0,7509.0,0.0,7945.0,-284.0,8537.0,11503.0,70.0,-20.0,-44.0,-43.0,-19.0,-3.0,16.0,40.0,1.7686312198638916
342,4638.0,-2152.0,6624.0,0.0,7298.0,1001.0,8916.0,11604.0,70.0,-20.0,-44.0,-43.0,-19.0,-3.0,16.0,40.0,1.781708002090454
343,4638.0,-2152.0,6624.0,0.0,7298.0,1001.0,8916.0,11604.0,19.0,40.0,-1.0,-40.0,66.0,35.0,21.0,16.0,1.7835917472839355
344,4638.0,-2152.0,6624.0,0.0,7298.0,1001.0,8916.0,11604.0,-4.0,-11.0,-71.0,20.0,87.0,84.0,44.0,11.0,1.7895617485046387
345,5046.0,-2433.0,4247.0,0.0,6922.0,2117.0,9288.0,11391.0,-4.0,-11.0,-71.0,20.0,87.0,84.0,44.0,11.0,1.8047475814819336
346,5046.0,-2433.0,4247.0,0.0,6922.0,2117.0,9288.0,11391.0,-21.0,-85.0,-23.0,43.0,50.0,-65.0,-42.0,-57.0,1.8065965175628662
347,5046.0,-2433.0,4247.0,0.0,6922.0,2117.0,9288.0,11391.0,-122.0,-39.0,88.0,39.0,67.0,63.0,-4.0,-70.0,1.808971643447876
348,4977.0,-2574.0,3182.0,0.0,6655.0,3128.0,9615.0,11040.0,-122.0,-39.0,88.0,39.0,67.0,63.0,-4.0,-70.0,1.8183090686798096
349,4977.0,-2574.0,3182.0,0.0,6655.0,3128.0,9615.0,11040.0,37.0,-16.0,-30.0,-36.0,-70.0,13.0,20.0,25.0,1.8265726566314697
350,4977.0,-2574.0,3182.0,0.0,6655.0,3128.0,9615.0,11040.0,14.0,-18.0,14.0,34.0,-68.0,-102.0,-5.0,12.0,1.8283474445343018
351,2812.0,-1570.0,3434.0,0.0,6302.0,3876.0,9710.0,10926.0,14.0,-18.0,14.0,34.0,-68.0,-102.0,-5.0,12.0,1.842348337173462
352,2812.0,-1570.0,3434.0,0.0,6302.0,3876.0,9710.0,10926.0,21.0,37.0,109.0,74.0,5.0,13.0,36.0,19.0,1.8442790508270264
353,2812.0,-1570.0,3434.0,0.0,6302.0,3876.0,9710.0,10926.0,24.0,74.0,9.0,-10.0,89.0,-24.0,12.0,27.0,1.8481645584106445
354,3124.0,-708.0,2467.0,0.0,5945.0,4432.0,9922.0,10723.0,24.0,74.0,9.0,-10.0,89.0,-24.0,12.0,27.0,1.8647215366363525
355,3124.0,-708.0,2467.0,0.0,5945.0,4432.0,9922.0,10723.0,60.0,6.0,-5.0,-22.0,3.0,-65.0,-70.0,-62.0,1.8668415546417236
356,3124.0,-708.0,2467.0,0.0,5945.0,4432.0,9922.0,10723.0,-41.0,30.0,72.0,65.0,102.0,1.0,-66.0,-33.0,1.8686902523040771
357,3513.0,-467.0,1961.0,0.0,5591.0,4922.0,10198.0,10437.0,-41.0,30.0,72.0,65.0,102.0,1.0,-66.0,-33.0,1.8882670402526855
358,3513.0,-467.0,1961.0,0.0,5591.0,4922.0,10198.0,10437.0,50.0,-33.0,-114.0,36.0,-19.0,77.0,24.0,54.0,1.8921902179718018
359,3513.0,-467.0,1961.0,0.0,5591.0,4922.0,10198.0,10437.0,-22.0,-101.0,-67.0,51.0,27.0,-49.0,-66.0,79.0,1.8955936431884766
360,2522.0,-215.0,1592.0,0.0,5295.0,5275.0,10381.0,10236.0,-22.0,-101.0,-67.0,51.0,27.0,-49.0,-66.0,79.0,1.902836561203003
361,2522.0,-215.0,1592.0,0.0,5295.0,5275.0,10381.0,10236.0,-52.0,17.0,-83.0,-71.0,-10.0,54.0,53.0,-8.0,1.9069483280181885
362,2522.0,-215.0,1592.0,0.0,5295.0,5275.0,10381.0,10236.0,127.0,127.0,119.0,-34.0,-55.0,30.0,3.0,32.0,1.9088358879089355
363,1378.0,240.0,1644.0,0.0,5025.0,5492.0,10457.0,10181.0,127.0,127.0,119.0,-34.0,-55.0,30.0,3.0,32.0,1.9246070384979248
364,1378.0,240.0,1644.0,0.0,5025.0,5492.0,10457.0,10181.0,17.0,61.0,37.0,-33.0,35.0,-1.0,13.0,25.0,1.9264936447143555
365,1378.0,240.0,1644.0,0.0,5025.0,5492.0,10457.0,10181.0,-128.0,-101.0,-56.0,-59.0,-115.0,-113.0,-81.0,-91.0,1.9282612800598145
366,1562.0,156.0,1006.0,0.0,4830.0,5644.0,10543.0,10102.0,-128.0,-101.0,-56.0,-59.0,-115.0,-113.0,-81.0,-91.0,1.9470109939575195
367,1562.0,156.0,1006.0,0.0,4830.0,5644.0,10543.0,10102.0,-20.0,-29.0,-44.0,36.0,12.0,-35.0,-39.0,-23.0,1.9489104747772217
368,1562.0,156.0,1006.0,0.0,4830.0,5644.0,10543.0,10102.0,-20.0,-29.0,-44.0,36.0,12.0,-35.0,-39.0,-23.0,1.9510467052459717
369,1562.0,156.0,1006.0,0.0,4830.0,5644.0,10543.0,10102.0,19.0,17.0,-47.0,-24.0,56.0,62.0,28.0,6.0,1.960942029953003
370,1047.0,356.0,1124.0,0.0,4636.0,5755.0,10604.0,10067.0,19.0,17.0,-47.0,-24.0,56.0,62.0,28.0,6.0,1.963442325592041
371,1047.0,356.0,1124.0,0.0,4636.0,5755.0,10604.0,10067.0,23.0,33.0,36.0,34.0,39.0,29.0,16.0,21.0,1.969231367111206
372,1047.0,356.0,1124.0,0.0,4636.0,5755.0,10604.0,10067.0,91.0,63.0,-67.0,-39.0,-33.0,26.0,20.0,11.0,1.972205638885498
373,76.0,550.0,742.0,0.0,4507.0,5767.0,10614.0,10108.0,91.0,63.0,-67.0,-39.0,-33.0,26.0,20.0,11.0,1.985612392425537
374,76.0,550.0,742.0,0.0,4507.0,5767.0,10614.0,10108.0,5.0,-20.0,-52.0,-13.0,50.0,31.0,56.0,8.0,1.9887325763702393
375,76.0,550.0,742.0,0.0,4507.0,5767.0,10614.0,10108.0,-30.0,-13.0,49.0,15.0,43.0,59.0,118.0,1.0,1.9917092323303223
376,672.0,478.0,635.0,0.0,4302.0,5855.0,10685.0,10072.0,-30.0,-13.0,49.0,15.0,43.0,59.0,118.0,1.0,2.008368968963623
377,672.0,478.0,635.0,0.0,4302.0,5855.0,10685.0,10072.0,-63.0,-17.0,28.0,-30.0,-68.0,-36.0,17.0,19.0,2.0115413665771484
378,672.0,478.0,635.0,0.0,4302.0,5855.0,10685.0,10072.0,15.0,-1.0,11.0,-2.0,11.0,58.0,-4.0,6.0,2.0145370960235596
379,1454.0,446.0,285.0,0.0,4129.0,5898.0,10806.0,9990.0,15.0,-1.0,11.0,-2.0,11.0,58.0,-4.0,6.0,2.021977424621582
380,1454.0,446.0,285.0,0.0,4129.0,5898.0,10806.0,9990.0,-8.0,-35.0,77.0,-5.0,-39.0,2.0,-26.0,-12.0,2.0250070095062256
381,1454.0,446.0,285.0,0.0,4129.0,5898.0,10806.0,9990.0,-66.0,-40.0,22.0,-52.0,-91.0,-95.0,-41.0,-29.0,2.0282464027404785
382,597.0,486.0,475.0,0.0,4034.0,5883.0,10865.0,9974.0,-66.0,-40.0,22.0,-52.0,-91.0,-95.0,-41.0,-29.0,2.0445947647094727
383,597.0,486.0,475.0,0.0,4034.0,5883.0,10865.0,9974.0,-2.0,-20.0,-5.0,18.0,-9.0,-27.0,-44.0,-12.0,2.046487808227539
384,597.0,486.0,475.0,0.0,4034.0,5883.0,10865.0,9974.0,-2.0,-4.0,-11.0,-32.0,45.0,34.0,-3.0,3.0,2.0482873916625977
385,-604.0,270.0,282.0,0.0,4000.0,5870.0,10806.0,10059.0,-2.0,-4.0,-11.0,-32.0,45.0,34.0,-3.0,3.0,2.0670976638793945
386,-604.0,270.0,282.0,0.0,4000.0,5870.0,10806.0,10059.0,25.0,-3.0,19.0,35.0,59.0,-4.0,-17.0,8.0,2.0694146156311035
387,-604.0,270.0,282.0,0.0,4000.0,5870.0,10806.0,10059.0,-27.0,-27.0,18.0,0.0,7.0,-34.0,-39.0,-10.0,2.0733423233032227
388,-238.0,133.0,263.0,0.0,3902.0,5934.0,10749.0,10120.0,-27.0,-27.0,18.0,0.0,7.0,-34.0,-39.0,-10.0,2.0819945335388184
389,-238.0,133.0,263.0,0.0,3902.0,5934.0,10749.0,10120.0,-4.0,9.0,-5.0,29.0,8.0,-15.0,56.0,-16.0,2.0841708183288574
390,-238.0,133.0,263.0,0.0,3902.0,5934.0,10749.0,10120.0,15.0,34.0,52.0,76.0,50.0,20.0,93.0,22.0,2.089057445526123
391,311.0,319.0,250.0,0.0,3795.0,5960.0,10777.0,10116.0,15.0,34.0,52.0,76.0,50.0,20.0,93.0,22.0,2.1050336360931396
392,311.0,319.0,250.0,0.0,3795.0,5960.0,10777.0,10116.0,-21.0,21.0,-22.0,15.0,-34.0,-39.0,-31.0,-17.0,2.106940984725952
393,311.0,319.0,250.0,0.0,3795.0,5960.0,10777.0,10116.0,34.0,6.0,-35.0,-46.0,-2.0,-3.0,0.0,18.0,2.108794927597046
394,50.0,433.0,308.0,0.0,3728.0,5937.0,10807.0,10123.0,34.0,6.0,-35.0,-46.0,-2.0,-3.0,0.0,18.0,2.1270737648010254
395,50.0,433.0,308.0,0.0,3728.0,5937.0,10807.0,10123.0,52.0,57.0,-49.0,-20.0,-27.0,0.0,12.0,-3.0,2.129361867904663
396,50.0,433.0,308.0,0.0,3728.0,5937.0,10807.0,10123.0,-2.0,-17.0,-21.0,8.0,-87.0,-16.0,-19.0,-7.0,2.1322684288024902
397,-229.0,354.0,75.0,0.0,3678.0,5911.0,10797.0,10167.0,-2.0,-17.0,-21.0,8.0,-87.0,-16.0,-19.0,-7.0,2.1413848400115967
398,-229.0,354.0,75.0,0.0,3678.0,5911.0,10797.0,10167.0,-36.0,-21.0,-4.0,-3.0,2.0,-42.0,-42.0,6.0,2.1497485637664795
399,-229.0,354.0,75.0,0.0,3678.0,5911.0,10797.0,10167.0,-2.0,-3.0,52.0,13.0,-9.0,6.0,-22.0,-12.0,2.151749610900879
400,9.0,264.0,13.0,0.0,3606.0,5916.0,10796.0,10190.0,-2.0,-3.0,52.0,13.0,-9.0,6.0,-22.0,-12.0,2.1648752689361572
401,9.0,264.0,13.0,0.0,3606.0,5916.0,10796.0,10190.0,-30.0,-2.0,-23.0,-7.0,-5.0,-7.0,14.0,-3.0,2.168656587600708
402,9.0,264.0,13.0,0.0,3606.0,5916.0,10796.0,10190.0,21.0,66.0,64.0,15.0,-27.0,30.0,1.0,11.0,2.172049045562744
403,38.0,278.0,-80.0,0.0,3584.0,5875.0,10833.0,10183.0,21.0,66.0,64.0,15.0,-27.0,30.0,1.0,11.0,2.1875576972961426
404,38.0,278.0,-80.0,0.0,3584.0,5875.0,10833.0,10183.0,4.0,-42.0,61.0,-14.0,-53.0,-16.0,-22.0,3.0,2.1902716159820557
405,38.0,278.0,-80.0,0.0,3584.0,5875.0,10833.0,10183.0,-20.0,-35.0,-34.0,-3.0,42.0,14.0,21.0,2.0,2.1920969486236572
406,-246.0,215.0,-128.0,0.0,3590.0,5829.0,10841.0,10199.0,-20.0,-35.0,-34.0,-3.0,42.0,14.0,21.0,2.0,2.201338768005371
407,-246.0,215.0,-128.0,0.0,3590.0,5829.0,10841.0,10199.0,34.0,21.0,-17.0,-33.0,17.0,7.0,-19.0,7.0,2.2095906734466553
408,-246.0,215.0,-128.0,0.0,3590.0,5829.0,10841.0,10199.0,31.0,-27.0,30.0,31.0,21.0,-3.0,6.0,6.0,2.2120163440704346
409,-299.0,210.0,-51.0,0.0,3568.0,5807.0,10817.0,10245.0,31.0,-27.0,30.0,31.0,21.0,-3.0,6.0,6.0,2.225053071975708
410,-299.0,210.0,-51.0,0.0,3568.0,5807.0,10817.0,10245.0,-27.0,-33.0,-44.0,-11.0,20.0,-30.0,-15.0,-5.0,2.228395938873291
411,-299.0,210.0,-51.0,0.0,3568.0,5807.0,10817.0,10245.0,30.0,42.0,11.0,65.0,22.0,-64.0,-54.0,-12.0,2.231605291366577
412,8.0,181.0,-115.0,0.0,3539.0,5791.0,10833.0,10247.0,30.0,42.0,11.0,65.0,22.0,-64.0,-54.0,-12.0,2.2478866577148438
413,8.0,181.0,-115.0,0.0,3539.0,5791.0,10833.0,10247.0,-8.0,20.0,58.0,21.0,43.0,63.0,52.0,11.0,2.250998020172119
414,8.0,181.0,-115.0,0.0,3539.0,5791.0,10833.0,10247.0,-28.0,-18.0,-35.0,-3.0,-16.0,8.0,17.0,12.0,2.2543487548828125
415,-58.0,178.0,-28.0,0.0,3524.0,5769.0,10853.0,10243.0,-28.0,-18.0,-35.0,-3.0,-16.0,8.0,17.0,12.0,2.260970115661621
416,-58.0,178.0,-28.0,0.0,3524.0,5769.0,10853.0,10243.0,32.0,15.0,43.0,15.0,3.0,-2.0,-4.0,19.0,2.2702929973602295
417,-58.0,178.0,-28.0,0.0,3524.0,5769.0,10853.0,10243.0,-38.0,-54.0,-43.0,10.0,8.0,46.0,16.0,17.0,2.275225877761841
418,-233.0,162.0,-32.0,0.0,3517.0,5746.0,10851.0,10261.0,-38.0,-54.0,-43.0,10.0,8.0,46.0,16.0,17.0,2.284660577774048
419,-233.0,162.0,-32.0,0.0,3517.0,5746.0,10851.0,10261.0,-22.0,-54.0,-17.0,-30.0,19.0,45.0,-10.0,-8.0,2.291818141937256
420,-233.0,162.0,-32.0,0.0,3517.0,5746.0,10851.0,10261.0,48.0,14.0,33.0,-16.0,-11.0,8.0,-5.0,-17.0,2.2936325073242188
421,-142.0,161.0,18.0,0.0,3486.0,5741.0,10842.0,10283.0,48.0,14.0,33.0,-16.0,-11.0,8.0,-5.0,-17.0,2.307234525680542
422,-142.0,161.0,18.0,0.0,3486.0,5741.0,10842.0,10283.0,-10.0,-8.0,28.0,-4.0,-53.0,-5.0,-2.0,-22.0,2.3091607093811035
423,-142.0,161.0,18.0,0.0,3486.0,5741.0,10842.0,10283.0,-19.0,27.0,14.0,-32.0,-61.0,-52.0,2.0,-22.0,2.3110764026641846
424,114.0,105.0,12.0,0.0,3461.0,5739.0,10858.0,10276.0,-19.0,27.0,14.0,-32.0,-61.0,-52.0,2.0,-22.0,2.322530508041382
425,114.0,105.0,12.0,0.0,3461.0,5739.0,10858.0,10276.0,-3.0,0.0,-31.0,30.0,117.0,44.0,29.0,26.0,2.3245933055877686
426,114.0,105.0,12.0,0.0,3461.0,5739.0,10858.0,10276.0,-34.0,-42.0,-19.0,0.0,3.0,3.0,13.0,-16.0,2.3283164501190186
427,100.0,82.0,-8.0,0.0,3453.0,5726.0,10873.0,10270.0,-34.0,-42.0,-19.0,0.0,3.0,3.0,13.0,-16.0,2.3449461460113525
428,100.0,82.0,-8.0,0.0,3453.0,5726.0,10873.0,10270.0,28.0,42.0,-26.0,-15.0,-13.0,-40.0,-19.0,-3.0,2.346877336502075
429,100.0,82.0,-8.0,0.0,3453.0,5726.0,10873.0,10270.0,45.0,20.0,-3.0,2.0,41.0,-6.0,-36.0,7.0,2.3486735820770264
430,-104.0,112.0,81.0,0.0,3434.0,5723.0,10866.0,10285.0,45.0,20.0,-3.0,2.0,41.0,-6.0,-36.0,7.0,2.3683974742889404
431,-104.0,112.0,81.0,0.0,3434.0,5723.0,10866.0,10285.0,-51.0,-59.0,19.0,3.0,-18.0,0.0,-4.0,-8.0,2.3726072311401367
432,-104.0,112.0,81.0,0.0,3434.0,5723.0,10866.0,10285.0,-38.0,-3.0,20.0,-25.0,-30.0,-37.0,-27.0,-9.0,2.375262498855591
433,-190.0,132.0,171.0,0.0,3396.0,5735.0,10838.0,10322.0,-38.0,-3.0,20.0,-25.0,-30.0,-37.0,-27.0,-9.0,2.3809282779693604
434,-190.0,132.0,171.0,0.0,3396.0,5735.0,10838.0,10322.0,9.0,32.0,12.0,4.0,-38.0,-42.0,-14.0,-3.0,2.388943672180176
435,-190.0,132.0,171.0,0.0,3396.0,5735.0,10838.0,10322.0,-3.0,0.0,-42.0,15.0,74.0,17.0,16.0,-23.0,2.390738010406494
436,81.0,99.0,104.0,0.0,3366.0,5739.0,10838.0,10329.0,-3.0,0.0,-42.0,15.0,74.0,17.0,16.0,-23.0,2.406471014022827
437,81.0,99.0,104.0,0.0,3366.0,5739.0,10838.0,10329.0,-14.0,7.0,36.0,25.0,61.0,35.0,-23.0,-26.0,2.408846378326416
438,81.0,99.0,104.0,0.0,3366.0,5739.0,10838.0,10329.0,-32.0,-28.0,54.0,36.0,26.0,9.0,-5.0,7.0,2.4106521606445312
439,134.0,83.0,-5.0,0.0,3359.0,5723.0,10849.0,10329.0,-32.0,-28.0,54.0,36.0,26.0,9.0,-5.0,7.0,2.429719924926758
440,134.0,83.0,-5.0,0.0,3359.0,5723.0,10849.0,10329.0,57.0,117.0,59.0,1.0,-15.0,-19.0,3.0,4.0,2.433164119720459
441,134.0,83.0,-5.0,0.0,3359.0,5723.0,10849.0,10329.0,-7.0,-23.0,15.0,28.0,22.0,38.0,1.0,9.0,2.4363791942596436
442,-131.0,128.0,-19.0,0.0,3348.0,5705.0,10832.0,10359.0,-7.0,-23.0,15.0,28.0,22.0,38.0,1.0,9.0,2.4411122798919678
443,-131.0,128.0,-19.0,0.0,3348.0,5705.0,10832.0,10359.0,-48.0,-61.0,-46.0,-38.0,-11.0,53.0,26.0,-2.0,2.4490303993225098
444,-131.0,128.0,-19.0,0.0,3348.0,5705.0,10832.0,10359.0,60.0,75.0,-2.0,2.0,0.0,-1.0,-19.0,4.0,2.4511518478393555
445,-85.0,150.0,81.0,0.0,3307.0,5710.0,10813.0,10389.0,60.0,75.0,-2.0,2.0,0.0,-1.0,-19.0,4.0,2.464948892593384
446,-85.0,150.0,81.0,0.0,3307.0,5710.0,10813.0,10389.0,-11.0,-41.0,-27.0,-16.0,-40.0,-81.0,-11.0,-2.0,2.4680516719818115
447,-85.0,150.0,81.0,0.0,3307.0,5710.0,10813.0,10389.0,-22.0,-58.0,-81.0,-16.0,1.0,-18.0,-24.0,-8.0,2.4721333980560303
448,136.0,109.0,35.0,0.0,3282.0,5707.0,10831.0,10380.0,-22.0,-58.0,-81.0,-16.0,1.0,-18.0,-24.0,-8.0,2.488696575164795
449,136.0,109.0,35.0,0.0,3282.0,5707.0,10831.0,10380.0,6.0,30.0,35.0,20.0,4.0,0.0,38.0,9.0,2.4925146102905273
450,136.0,109.0,35.0,0.0,3282.0,5707.0,10831.0,10380.0,6.0,22.0,11.0,-56.0,-103.0,-80.0,-6.0,-2.0,2.495492696762085
451,-13.0,116.0,-10.0,0.0,3276.0,5688.0,10840.0,10383.0,6.0,22.0,11.0,-56.0,-103.0,-80.0,-6.0,-2.0,2.5013105869293213
452,-13.0,116.0,-10.0,0.0,3276.0,5688.0,10840.0,10383.0,60.0,8.0,-12.0,-19.0,22.0,18.0,0.0,10.0,2.5093023777008057
453,-13.0,116.0,-10.0,0.0,3276.0,5688.0,10840.0,10383.0,-13.0,-38.0,-73.0,-16.0,-18.0,29.0,15.0,-5.0,2.511255979537964
454,-190.0,148.0,8.0,0.0,3262.0,5672.0,10821.0,10416.0,-13.0,-38.0,-73.0,-16.0,-18.0,29.0,15.0,-5.0,2.5246694087982178
455,-190.0,148.0,8.0,0.0,3262.0,5672.0,10821.0,10416.0,-8.0,17.0,28.0,3.0,-19.0,-40.0,-19.0,-15.0,2.52799129486084
456,-190.0,148.0,8.0,0.0,3262.0,5672.0,10821.0,10416.0,-8.0,-9.0,-5.0,19.0,8.0,18.0,24.0,9.0,2.531154155731201
457,-26.0,111.0,63.0,0.0,3229.0,5676.0,10809.0,10437.0,-8.0,-9.0,-5.0,19.0,8.0,18.0,24.0,9.0,2.5470244884490967
458,-26.0,111.0,63.0,0.0,3229.0,5676.0,10809.0,10437.0,-23.0,-43.0,-5.0,9.0,-52.0,56.0,47.0,2.0,2.549053192138672
459,-26.0,111.0,63.0,0.0,3229.0,5676.0,10809.0,10437.0,-2.0,15.0,-2.0,-12.0,10.0,19.0,7.0,3.0,2.5532941818237305
460,47.0,66.0,15.0,0.0,3218.0,5671.0,10816.0,10435.0,-2.0,15.0,-2.0,-12.0,10.0,19.0,7.0,3.0,2.5608115196228027
461,47.0,66.0,15.0,0.0,3218.0,5671.0,10816.0,10435.0,6.0,24.0,10.0,-14.0,22.0,13.0,-10.0,2.0,2.569187641143799
462,47.0,66.0,15.0,0.0,3218.0,5671.0,10816.0,10435.0,6.0,15.0,14.0,9.0,29.0,1.0,1.0,2.0,2.5709948539733887
463,-88.0,30.0,25.0,0.0,3215.0,5671.0,10813.0,10440.0,6.0,15.0,14.0,9.0,29.0,1.0,1.0,2.0,2.5853500366210938
464,-88.0,30.0,25.0,0.0,3215.0,5671.0,10813.0,10440.0,17.0,17.0,25.0,6.0,-9.0,-30.0,-35.0,-7.0,2.590198278427124
465,-88.0,30.0,25.0,0.0,3215.0,5671.0,10813.0,10440.0,-4.0,-3.0,31.0,-1.0,4.0,-26.0,-8.0,-4.0,2.5934228897094727
466,-117.0,59.0,36.0,0.0,3199.0,5676.0,10801.0,10455.0,-4.0,-3.0,31.0,-1.0,4.0,-26.0,-8.0,-4.0,2.6070024967193604
467,-117.0,59.0,36.0,0.0,3199.0,5676.0,10801.0,10455.0,1.0,-23.0,-26.0,0.0,12.0,6.0,10.0,5.0,2.6092724800109863
468,-117.0,59.0,36.0,0.0,3199.0,5676.0,10801.0,10455.0,0.0,6.0,10.0,-40.0,-43.0,14.0,-20.0,-2.0,2.6124839782714844
469,32.0,38.0,34.0,0.0,3184.0,5681.0,10802.0,10456.0,0.0,6.0,10.0,-40.0,-43.0,14.0,-20.0,-2.0,2.622412919998169
470,32.0,38.0,34.0,0.0,3184.0,5681.0,10802.0,10456.0,-19.0,-39.0,10.0,-1.0,-4.0,5.0,-30.0,-11.0,2.6293747425079346
471,32.0,38.0,34.0,0.0,3184.0,5681.0,10802.0,10456.0,-16.0,-16.0,-8.0,2.0,-8.0,-17.0,-7.0,2.0,2.6312313079833984
472,106.0,-45.0,-20.0,0.0,3179.0,5692.0,10811.0,10442.0,-16.0,-16.0,-8.0,2.0,-8.0,-17.0,-7.0,2.0,2.6455254554748535
473,106.0,-45.0,-20.0,0.0,3179.0,5692.0,10811.0,10442.0,20.0,17.0,28.0,28.0,65.0,8.0,7.0,0.0,2.6490094661712646
474,106.0,-45.0,-20.0,0.0,3179.0,5692.0,10811.0,10442.0,0.0,14.0,2.0,14.0,38.0,9.0,12.0,0.0,2.6522371768951416
475,49.0,-79.0,7.0,0.0,3171.0,5715.0,10811.0,10431.0,0.0,14.0,2.0,14.0,38.0,9.0,12.0,0.0,2.6682753562927246
476,49.0,-79.0,7.0,0.0,3171.0,5715.0,10811.0,10431.0,-11.0,-12.0,-20.0,13.0,30.0,14.0,-1.0,0.0,2.6714251041412354
477,49.0,-79.0,7.0,0.0,3171.0,5715.0,10811.0,10431.0,-10.0,-11.0,4.0,-6.0,-9.0,9.0,16.0,1.0,2.674644947052002
478,-26.0,-98.0,47.0,0.0,3164.0,5742.0,10792.0,10439.0,-10.0,-11.0,4.0,-6.0,-9.0,9.0,16.0,1.0,2.6812925338745117
479,-26.0,-98.0,47.0,0.0,3164.0,5742.0,10792.0,10439.0,6.0,4.0,-9.0,-10.0,-28.0,-13.0,-2.0,1.0,2.6905629634857178
480,-26.0,-98.0,47.0,0.0,3164.0,5742.0,10792.0,10439.0,15.0,34.0,-7.0,1.0,-2.0,1.0,1.0,3.0,2.6923916339874268
481,112.0,-225.0,-5.0,0.0,3167.0,5780.0,10766.0,10443.0,15.0,34.0,-7.0,1.0,-2.0,1.0,1.0,3.0,2.7059478759765625
482,112.0,-225.0,-5.0,0.0,3167.0,5780.0,10766.0,10443.0,-3.0,3.0,-30.0,-20.0,-24.0,-10.0,-16.0,0.0,2.709702253341675
483,112.0,-225.0,-5.0,0.0,3167.0,5780.0,10766.0,10443.0,2.0,12.0,40.0,15.0,20.0,20.0,9.0,-3.0,2.7131152153015137
484,493.0,-415.0,-135.0,0.0,3168.0,5850.0,10781.0,10389.0,2.0,12.0,40.0,15.0,20.0,20.0,9.0,-3.0,2.728104591369629
485,493.0,-415.0,-135.0,0.0,3168.0,5850.0,10781.0,10389.0,-1.0,13.0,-13.0,-2.0,-5.0,-9.0,-5.0,-5.0,2.7306504249572754
486,493.0,-415.0,-135.0,0.0,3168.0,5850.0,10781.0,10389.0,-10.0,-19.0,-4.0,-1.0,2.0,7.0,-2.0,-4.0,2.7324726581573486
487,793.0,-610.0,-197.0,0.0,3166.0,5961.0,10850.0,10253.0,-10.0,-19.0,-4.0,-1.0,2.0,7.0,-2.0,-4.0,2.7406201362609863
488,793.0,-610.0,-197.0,0.0,3166.0,5961.0,10850.0,10253.0,-11.0,-10.0,-2.0,-6.0,-3.0,-3.0,-8.0,2.0,2.7494306564331055
489,793.0,-610.0,-197.0,0.0,3166.0,5961.0,10850.0,10253.0,-1.0,-5.0,3.0,-5.0,-7.0,-5.0,-1.0,8.0,2.751268148422241
490,881.0,-714.0,-157.0,0.0,3166.0,6088.0,10921.0,10102.0,-1.0,-5.0,3.0,-5.0,-7.0,-5.0,-1.0,8.0,2.763838529586792
491,881.0,-714.0,-157.0,0.0,3166.0,6088.0,10921.0,10102.0,-13.0,-7.0,-3.0,0.0,-2.0,0.0,4.0,0.0,2.76706600189209
492,881.0,-714.0,-157.0,0.0,3166.0,6088.0,10921.0,10102.0,1.0,-3.0,0.0,-8.0,-40.0,-12.0,2.0,3.0,2.773193597793579
493,959.0,-897.0,-195.0,0.0,3193.0,6221.0,10979.0,9948.0,1.0,-3.0,0.0,-8.0,-40.0,-12.0,2.0,3.0,2.788029193878174
494,959.0,-897.0,-195.0,0.0,3193.0,6221.0,10979.0,9948.0,-5.0,-10.0,-6.0,-15.0,-14.0,2.0,-2.0,2.0,2.791196823120117
495,959.0,-897.0,-195.0,0.0,3193.0,6221.0,10979.0,9948.0,1.0,0.0,-14.0,3.0,5.0,1.0,-4.0,-2.0,2.7941815853118896
496,972.0,-1167.0,-250.0,0.0,3241.0,6389.0,11032.0,9766.0,1.0,0.0,-14.0,3.0,5.0,1.0,-4.0,-2.0,2.8020124435424805
497,972.0,-1167.0,-250.0,0.0,3241.0,6389.0,11032.0,9766.0,-4.0,-3.0,5.0,-1.0,2.0,-6.0,-2.0,0.0,2.8089540004730225
498,972.0,-1167.0,-250.0,0.0,3241.0,6389.0,11032.0,9766.0,3.0,3.0,9.0,4.0,15.0,-1.0,-4.0,2.0,2.810786008834839
499,870.0,-1265.0,-56.0,0.0,3263.0,6605.0,11074.0,9566.0,3.0,3.0,9.0,4.0,15.0,-1.0,-4.0,2.0,2.82393217086792
