Gyro 0,Gyro 1,Gyro 2,Orientation 0,Orientation 1,Orientation 2,Orientation 3,Sensor 0,Sensor 1,Sensor 2,Sensor 3,Sensor 4,Sensor 5,Sensor 6,Sensor 7
14.659819026656887,-52.22259454284345,-25.447565543071157,126.9380487804878,-106.46576001098978,60.24195171026162,-86.08858770379095,-8.542933319716475,-17.07582608168644,-3.8040282701290398,21.97025820861664,-4.482352978150229,4.51778656749542,-1.0762711865157,15.369426751590499
14.659819026656887,-52.22259454284345,-25.447565543071157,126.9380487804878,-106.46576001098978,60.24195171026162,-86.08858770379095,-20.805578839580598,-19.514074965198528,-11.369969896585673,45.54830648035617,12.450980372000144,1.5059288598787517,-2.152542372955833,15.369426751590535
14.659819026656887,-52.22259454284345,-25.447565543071157,126.9380487804878,-106.46576001098978,60.24195171026162,-86.08858770379095,-18.670395503276843,-20.731129933561505,-7.046663307967249,0.5356493291915339,11.454901900267386,8.533596843854358,-5.381355932276594,12.133757961781658
14.100758131572515,-57.20775490665389,-25.966462376574732,127.0,-106.22151246651555,59.34758551307851,-86.2881555686505,-17.141129458495293,-20.731100481816476,-7.046772789246534,0.5356525861076591,11.454901863270536,8.533596843549265,-5.381355932274777,12.133757961781704
14.100758131572515,-57.20775490665389,-25.966462376574732,127.0,-106.22151246651555,59.34758551307851,-86.2881555686505,-26.76730308685707,-31.64789910004344,-31.905685286937626,8.037763377881458,-10.458823663922777,-7.529644263140758,-1.0762711865109758,38.019108280253036
14.100758131572515,-57.20775490665389,-25.966462376574732,127.0,-106.22151246651555,59.34758551307851,-86.2881555686505,-5.911217946227884,-13.416292616031445,-22.177597681606525,15.5398716364998,1.4941175495448524,26.604743088164497,9.686440677894348,29.929936305730706
11.584984103692838,-68.27237912876973,-26.204290091930538,126.56634146341466,-106.02960368157153,59.47535211267609,-86.58750736593987,-12.082311907755374,-13.440899656642046,-22.17719624448698,15.539869827104896,1.4941175461814975,26.604743087249222,9.686440677891078,29.929936305730685
11.584984103692838,-68.27237912876973,-26.204290091930538,126.56634146341466,-106.02960368157153,59.47535211267609,-86.58750736593987,-12.951467811920372,-28.02123615684103,-18.93434224655013,1.607382595830753,4.482352836935841,-2.5098814189887317,1.0762711863638392,21.840764331208387
11.584984103692838,-68.27237912876973,-26.204290091930538,126.56634146341466,-106.02960368157153,59.47535211267609,-86.58750736593987,-27.8399165094743,-36.48747657712363,11.328840323568517,4.822574434377662,1.4941175293647386,-8.533596833815286,-3.228813559398507,16.987261146495026
9.752506725360726,-73.01436093824796,-25.620531154239018,126.039756097561,-105.92492616251116,60.56136820925559,-87.13631899430362,-20.493734146326045,-36.4342226053007,11.32811040377415,4.8225762437756,1.4941175260013821,-8.533596833544099,-3.228813559397414,16.98726114649505
9.752506725360726,-73.01436093824796,-25.620531154239018,126.039756097561,-105.92492616251116,60.56136820925559,-87.13631899430362,-7.182861759239188,-20.612309514815717,3.761657838569329,12.324685588031448,9.462744973618554,-4.5177865566766755,-6.457627118717809,29.92993630573072
9.752506725360726,-73.01436093824796,-25.620531154239018,126.039756097561,-105.92492616251116,60.56136820925559,-87.13631899430362,-17.056229130217616,-14.547583765828273,23.215898812529787,49.83522253856494,2.490195923740438,-14.557312248031657,1.0762711863678465,28.312101910826247
10.901687454145272,-68.15078985160363,-24.798944501191688,125.73000000000002,-105.80280239027405,61.2640845070423,-87.68513062266743,-20.556447366178034,-14.568245968430071,23.21476748273323,49.83520914903293,2.4901959170137284,-14.557312247557068,1.0762711863674856,28.312101910826232
10.901687454145272,-68.15078985160363,-24.798944501191688,125.73000000000002,-105.80280239027405,61.2640845070423,-87.68513062266743,-23.389030014948172,-1.2460860993458027,-9.210889503945957,42.33308822464494,2.490195910287018,14.557312258240204,32.28813559314151,21.840764331208394
10.901687454145272,-68.15078985160363,-24.798944501191688,125.73000000000002,-105.80280239027405,61.2640845070423,-87.68513062266743,-41.42524889265455,-23.145394504357792,-26.50400631242111,-47.69221305002626,-15.439215861145884,-8.5335968326966,-10.762711864489235,28.31210191082622
4.441428222059187,-69.73145045476303,-24.885427306775618,124.70780487804879,-105.4713235799162,63.627766599597635,-89.28167354154385,-35.10946565788004,-23.137211084846484,-26.503458843137334,-47.69219350853814,-15.439215807332303,-8.533596832425395,-10.762711864485599,28.312101910826204
4.441428222059187,-69.73145045476303,-24.885427306775618,124.70780487804879,-105.4713235799162,63.627766599597635,-89.28167354154385,-0.6184304392845412,-36.47183265788152,-28.664546428152622,-18.75547347545734,-17.43137261626385,-11.54545453960136,-1.0762711865174972,44.49044585987073
4.441428222059187,-69.73145045476303,-24.885427306775618,124.70780487804879,-105.4713235799162,63.627766599597635,-89.28167354154385,-34.26698289349934,-14.584968279059687,-4.885940492033385,18.75507396957491,5.478431365845448,17.569169966094222,4.305084745685349,36.401273885348374
-3.105893861579844,-79.45859262805169,-26.2475314947225,122.29170731707319,-104.9304897314376,67.39688128772639,-91.32724415635431,-31.0695283256564,-14.605577450232758,-4.8861229474378405,18.75507107453989,5.478431349028693,17.569169965484043,4.305084745683898,36.40127388534832
-3.105893861579844,-79.45859262805169,-26.2475314947225,122.29170731707319,-104.9304897314376,67.39688128772639,-91.32724415635431,-8.30509047400258,-7.348267671412767,1.5985997354437114,-5.894713720743056,16.435294077310164,32.62845850210974,-10.762711864484501,20.222929936303718
-3.105893861579844,-79.45859262805169,-26.2475314947225,122.29170731707319,-104.9304897314376,67.39688128772639,-91.32724415635431,-38.468023837445806,-32.86598421943529,-8.129159385308265,16.611614312020823,5.478431278398337,0.5019762882212244,1.0762711863645926,23.458598726112637
-3.292247493274637,-97.4538056486357,-27.198842356145725,119.16317073170734,-104.49433340201938,71.22987927565396,-92.47475937929676,-31.632654934033553,-32.82501338757502,-8.129232343387537,16.61161214074442,5.4784312615815765,0.5019762881873397,1.076271186364231,23.458598726112637
-3.292247493274637,-97.4538056486357,-27.198842356145725,119.16317073170734,-104.49433340201938,71.22987927565396,-92.47475937929676,0.35166710341443164,-9.737475013691537,-10.290940345291405,27.328906447837255,-4.482353068960849,-6.525691695889949,-2.152542372957619,20.22292993630372
-3.292247493274637,-97.4538056486357,-27.198842356145725,119.16317073170734,-104.49433340201938,71.22987927565396,-92.47475937929676,-20.32338732528585,-27.96918025292258,-30.826473239441494,10.181226292378648,-13.447058934497216,-42.667984185052624,-26.9067796610883,20.222929936303732
-0.18635363169478758,-103.16850167544278,-26.052945182158663,116.53024390243903,-104.31987087025209,75.3822937625755,-93.42270673737966,-21.681913733660647,-27.944674012350067,-30.82577980449095,10.181226292379582,-13.447058887410343,-42.66798418362885,-26.906779661079206,20.22292993630374
-0.18635363169478758,-103.16850167544278,-26.052945182158663,116.53024390243903,-104.31987087025209,75.3822937625755,-93.42270673737966,-25.5383953009954,-32.77213606618555,-1.6430132728482505,-15.540285255704791,-11.454901977578333,-5.521739123689931,-6.4576271187006835,25.076433121017114
-0.18635363169478758,-103.16850167544278,-26.052945182158663,116.53024390243903,-104.31987087025209,75.3822937625755,-93.42270673737966,3.039404149354958,-18.17556536301053,-22.178838148696286,21.970261103689765,2.4901961019977783,8.533596844566395,3.228813559265967,28.312101910826016
10.249449743213503,-104.38439444710386,-24.496254681647937,115.38414634146343,-104.70368844014013,77.49044265593568,-92.6743272441563,0.1834750589286358,-18.18398966484579,-22.178436690519,21.970257123017234,2.4901960952710733,8.533596844261325,3.2288135592648812,28.312101910825994
10.249449743213503,-104.38439444710386,-24.496254681647937,115.38414634146343,-104.70368844014013,77.49044265593568,-92.6743272441563,-37.834299178783695,-23.044328742855498,-36.22866303204854,-20.898932771130134,-8.466666656553864,-31.624505922006062,-4.305084745819678,8.898089171972504
10.249449743213503,-104.38439444710386,-24.496254681647937,115.38414634146343,-104.70368844014013,77.49044265593568,-92.6743272441563,-14.364980180669086,-27.888275700353155,-13.530619181992929,16.611615397660664,-7.470588194911162,2.50988143011279,-4.3050847458182195,12.133757961781457
21.52384446074835,-107.42412637625657,-25.252979230507318,115.44609756097563,-105.54110859262312,76.78772635814892,-89.93026910233743,-16.180165919158522,-27.863935071525262,-13.530509710462923,16.611613226384076,-7.470588168004373,2.509881430011107,-4.30508474581676,12.133757961781491
21.52384446074835,-107.42412637625657,-25.252979230507318,115.44609756097563,-105.54110859262312,76.78772635814892,-89.93026910233743,-8.280745152304162,-24.20069963563823,-29.742663078782687,-13.396819084325003,6.4745098981183435,8.533596844803771,1.076271186387179,20.222929936303803
21.52384446074835,-107.42412637625657,-25.252979230507318,115.44609756097563,-105.54110859262312,76.78772635814892,-89.93026910233743,-15.27693881075401,-19.336819415285124,-38.38854636941208,-9.109892531633676,-4.482352867159986,-12.549407107631524,-1.076271186494172,36.40127388534836
28.729518219613603,-104.50598372426998,-24.34490977187606,116.53024390243903,-106.72745380864072,74.296277665996,-85.93891180514629,-17.99492951087865,-19.34127444288288,-38.387597532576876,-9.109886017808332,-4.4823528503432435,-12.549407107224724,-1.0762711864938042,36.40127388534831
28.729518219613603,-104.50598372426998,-24.34490977187606,116.53024390243903,-106.72745380864072,74.296277665996,-85.93891180514629,-35.15439378488545,-26.623615802986503,0.5227820994163963,-24.114094573700527,11.454902068434562,2.509881430417951,-29.059322033946334,10.51592356687697
28.729518219613603,-104.50598372426998,-24.34490977187606,116.53024390243903,-106.72745380864072,74.296277665996,-85.93891180514629,-1.0649552156780047,-8.408782906828517,2.684052136895902,9.109536089375956,10.45882360006515,13.553359690955913,8.610169491480853,36.40127388534829
29.56810956224016,-96.60268070847295,-23.22063329928498,117.92414634146343,-107.84401401195137,71.42152917505035,-82.14712237281475,-0.9555235241384317,-8.45014263230907,2.6836141458815295,9.109536451249504,10.45882356643165,13.553359690481347,8.610169491477956,36.40127388534824
29.56810956224016,-96.60268070847295,-23.22063329928498,117.92414634146343,-107.84401401195137,71.42152917505035,-82.14712237281475,-24.21412618723655,-30.32509599921567,-5.9633640180160095,17.683373995818098,4.482352944562751,0.5019762910690295,2.1525423728320763,28.312101910825916
29.56810956224016,-96.60268070847295,-23.22063329928498,117.92414634146343,-107.84401401195137,71.42152917505035,-82.14712237281475,-8.791426144390748,-14.523851386886873,-1.6402399458324446,-6.966410437591076,-12.450980402224284,-8.533596831306369,-12.915254237335592,18.605095541399162
22.766202005380293,-96.23791287697462,-23.696288729996592,118.2958536585366,-108.61164915172745,69.69668008048296,-79.1037124337065,-15.78904693025435,-14.544664804577739,-1.6405319404764924,-6.966404647528133,-12.450980358500752,-8.533596831035155,-12.915254237331222,18.60509554139918
22.766202005380293,-96.23791287697462,-23.696288729996592,118.2958536585366,-108.61164915172745,69.69668008048296,-79.1037124337065,-27.305739707593634,-9.713523928777919,9.167351295131777,63.76775789976844,29.38431380287056,-19.577075091403582,12.915254237245057,25.076433121017025
22.766202005380293,-96.23791287697462,-23.696288729996592,118.2958536585366,-108.61164915172745,69.69668008048296,-79.1037124337065,-8.92337172375759,-21.880468004278413,4.843424272324135,15.539905653137492,33.368627430823686,23.59288538265001,1.076271186395247,23.45859872611257
14.566642210809492,-94.04930588798467,-25.231358529111336,117.76926829268294,-109.01291297479224,69.63279678068415,-77.45727754861514,-8.997925855954385,-21.876584634797446,4.842913329886759,15.539903843736823,33.368627319833124,23.592885381836446,1.0762711863948948,23.458598726112577
14.566642210809492,-94.04930588798467,-25.231358529111336,117.76926829268294,-109.01291297479224,69.63279678068415,-77.45727754861514,-22.561957077321363,-23.0856914373317,-7.046590351789593,23.042009569194672,1.4941174049204342,10.54150198208513,15.067796610120991,31.54777070063486
14.566642210809492,-94.04930588798467,-25.231358529111336,117.76926829268294,-109.01291297479224,69.63279678068415,-77.45727754861514,-22.3593737204506,-29.142635896168205,-12.45078744697731,14.468168043944605,-2.4901963239332217,2.509881428519795,13.99152542367542,26.69426751592147
23.449498654927858,-92.59023456199137,-23.328736806264892,118.51268292682929,-109.79799436774505,68.16348088531191,-74.76311137301116,-19.84917428871201,-29.114214005207067,-12.450714453712354,14.46816659642456,-2.490196313843215,2.5098814284181117,13.991525423670705,26.694267515921467
23.449498654927858,-92.59023456199137,-23.328736806264892,118.51268292682929,-109.79799436774505,68.16348088531191,-74.76311137301116,-25.047670845207186,-41.215655155989865,-41.632714570073574,12.324705853230979,-21.41568649983197,-4.517786555726977,-18.296610169548895,20.22292993630364
23.449498654927858,-92.59023456199137,-23.328736806264892,118.51268292682929,-109.79799436774505,68.16348088531191,-74.76311137301116,-14.598339803245768,-9.60887909674416,3.762679726380137,6.966056890285527,-18.427451131720623,-4.517786555591367,-8.610169491578242,23.45859872611257
31.742235265346054,-99.88559119195787,-20.236976506639426,120.21634146341464,-111.12390960917645,65.41649899396384,-70.4724022785307,-22.491751256821622,-9.64622326801414,3.762205277493752,6.966057975920998,-18.42745106781701,-4.5177865554557535,-8.610169491575327,23.458598726112577
31.742235265346054,-99.88559119195787,-20.236976506639426,120.21634146341464,-111.12390960917645,65.41649899396384,-70.4724022785307,-23.24852596430203,-18.17437796863153,14.569906061947286,38.046218848826044,54.286274486283936,-17.56916995425789,6.457627118594535,18.605095541399216
31.742235265346054,-99.88559119195787,-20.236976506639426,120.21634146341464,-111.12390960917645,65.41649899396384,-70.4724022785307,-27.725846799600617,-25.460824078759593,-26.501999175052912,21.970264722408924,28.388235088976337,0.5019762910014538,-2.1525423729316078,16.98726114649479
20.592076302274396,-97.08903781713738,-18.550561797752806,121.02170731707318,-112.15323854660349,65.672032193159,-68.12747986643092,-18.302940402067957,-25.444801073320995,-26.501451739693636,21.970260741735803,28.388234994802534,0.5019762909675758,-2.1525423729308732,16.987261146494824
20.592076302274396,-97.08903781713738,-18.550561797752806,121.02170731707318,-112.15323854660349,65.672032193159,-68.12747986643092,-4.118956958720046,-12.086020767230696,9.166073930016466,-6.9664437305326175,7.4705878418048375,6.525691705828044,-13.991525423775597,25.076433121017136
20.592076302274396,-97.08903781713738,-18.550561797752806,121.02170731707318,-112.15323854660349,65.672032193159,-68.12747986643092,-26.049366025527444,-27.883870323402522,-8.127663341627677,4.82258818574173,-11.45490237781739,-20.581027661433794,-4.441554468847619e-11,31.547770700634963
2.453656150648083,-94.04930588798467,-18.70190670752468,119.93756097560976,-112.60684112919844,69.82444668008054,-68.52661559615001,-27.473137923218538,-27.859679387699632,-8.12773632504847,4.822589995137336,-11.45490233745722,-20.581027660755794,-4.440789732175079e-11,31.547770700634945
2.453656150648083,-94.04930588798467,-18.70190670752468,119.93756097560976,-112.60684112919844,69.82444668008054,-68.52661559615001,-26.77378692819113,-20.557650593527086,-15.693531964966592,33.759292296128606,-14.443137591214741,3.5138339994995933,6.457627118598577,25.076433121017107
2.453656150648083,-94.04930588798467,-18.70190670752468,119.93756097560976,-112.60684112919844,69.82444668008054,-68.52661559615001,-20.333681791684448,-26.623035608023855,-8.12762682467384,24.113717504251245,-1.4941179329211496,-10.541501968722793,-2.152542372927566,18.605095541399294
-4.565663976522373,-93.56294877932024,-18.89649302008852,118.2339024390244,-112.85108867367265,75.82947686116705,-70.22294244745626,-22.864923463462286,-26.603044494829376,-8.127699808704806,24.113712799820668,-1.4941179261944586,-10.541501968383788,-2.1525423729268316,18.605095541399322
-4.565663976522373,-93.56294877932024,-18.89649302008852,118.2339024390244,-112.85108867367265,75.82947686116705,-70.22294244745626,-22.295760441674496,-13.24030560608379,30.78165801969115,41.26138246078109,-29.384313997899618,-6.525691691448554,-1.076271186485601,8.898089171972622
-4.565663976522373,-93.56294877932024,-18.89649302008852,118.2339024390244,-112.85108867367265,75.82947686116705,-70.22294244745626,-14.728143977846441,-24.18228235722286,-35.1495976487399,-10.18165112988687,-26.39607860288144,0.5019762927982605,8.610169491479235,28.312101910826147
0.6832966495475699,-92.10387745332694,-18.61542390194075,117.36658536585367,-113.3046912562676,81.00402414486928,-71.37045767039871,-10.79719384772075,-24.170534992776595,-35.14875823718947,-10.181644254177364,-26.39607851207099,0.5019762927643774,8.61016949147633,28.31210191082614
0.6832966495475699,-92.10387745332694,-18.61542390194075,117.36658536585367,-113.3046912562676,81.00402414486928,-71.37045767039871,-5.845141811925661,-16.88093096716473,-52.44099920033766,12.324685226105629,-24.403921558515403,8.533596845922956,-24.754237288181955,28.312101910826133
0.6832966495475699,-92.10387745332694,-18.61542390194075,117.36658536585367,-113.3046912562676,81.00402414486928,-71.37045767039871,-8.67210406851725,-24.17170233569991,-28.661590404800293,15.539873445858758,-5.478431278352891,3.513833999872584,-4.305084745804167,28.312101910826126
9.597212032281735,-92.10387745332694,-18.98297582567245,117.33560975609757,-113.98509513016003,83.94265593561374,-71.07110587310939,-12.033360400699127,-24.160000965410635,-28.660970014354923,15.539871636463527,-5.478431258172772,3.5138339997369954,-4.305084745802709,28.31210191082612
9.597212032281735,-92.10387745332694,-18.98297582567245,117.33560975609757,-113.98509513016003,83.94265593561374,-71.07110587310939,-10.470574956881093,-18.0834243523754,2.683358519066232,0.5356547573521713,3.486274644360448,-0.5019762769948286,2.1525423728417254,25.076433121017203
9.597212032281735,-92.10387745332694,-18.98297582567245,117.33560975609757,-113.98509513016003,83.94265593561374,-71.07110587310939,-31.72068467223525,-26.583127926310627,-31.903240181357415,14.468143436146907,-10.4588234049455,-11.545454537634464,-4.305084745801975,18.605095541399386
14.007581315725119,-91.37434179033029,-19.15594143684031,117.61439024390245,-114.75273026993614,85.41197183098598,-69.82380671773711,-26.455378487394352,-26.563289786068147,-31.90251032013722,14.468141988631002,-10.458823367948629,-11.545454537261572,-4.305084745800518,18.605095541399415
14.007581315725119,-91.37434179033029,-19.15594143684031,117.61439024390245,-114.75273026993614,85.41197183098598,-69.82380671773711,-6.997233924154392,-27.75647735165731,-43.790773219119316,-21.970667485338844,44.325490394539386,7.529644276943415,4.3050847457249075,16.987261146494987
14.007581315725119,-91.37434179033029,-19.15594143684031,117.61439024390245,-114.75273026993614,85.41197183098598,-69.82380671773711,-26.537084804206238,-18.028786073195953,-0.5569410385913116,4.822584566963211,6.474509854394517,4.517786569225047,6.457627118604448,21.840764331208387
10.653215945218882,-96.23791287697462,-19.35052774940415,117.33560975609757,-115.4505803970053,87.58400402414492,-68.72618346100955,-26.190611759802653,-18.037761534907716,-0.5572695700120356,4.822586376359422,6.474509834214427,4.517786569055547,6.457627118602268,21.8407643312084
10.653215945218882,-96.23791287697462,-19.35052774940415,117.33560975609757,-115.4505803970053,87.58400402414492,-68.72618346100955,-20.83294110965864,-22.898658046451416,4.846489516758556,12.324695720613544,2.4901960885440673,5.5217391380351035,29.059322033850506,39.63694267515743
10.653215945218882,-96.23791287697462,-19.35052774940415,117.33560975609757,-115.4505803970053,87.58400402414492,-68.72618346100955,-6.248471169867239,-22.891244736853785,-11.366284315543421,23.041991475223117,26.39607843475896,7.529644276129819,2.1525423728282944,20.222929936303913
2.8884812912692617,-95.14360938247964,-19.69645897173987,116.34439024390244,-115.88673672642352,91.80030181086522,-69.1253191907287,-8.559945310235056,-22.883856512646105,-11.36624787942577,23.04198713267121,26.39607834731187,7.529644275858619,2.152542372827567,20.22292993630393
2.8884812912692617,-95.14360938247964,-19.69645897173987,116.34439024390244,-115.88673672642352,91.80030181086522,-69.1253191907287,-24.128066179605284,-24.089474677855076,-15.689481534073497,23.041982790120038,-6.47450997542991,2.509881429842127,5.3813559321483275,21.84076433120841
2.8884812912692617,-95.14360938247964,-19.69645897173987,116.34439024390244,-115.88673672642352,91.80030181086522,-69.1253191907287,-7.245619821022794,-14.3741940885486,-23.255021777803808,17.683330208385158,40.341176322624136,5.521739137187593,-24.754237288187383,21.840764331208423
4.472487160674985,-93.56294877932024,-20.323459312223353,115.44609756097563,-116.28800054948829,95.56941649899403,-69.42467098801802,-8.848988386752378,-14.39555973690198,-23.254583903388884,17.68332767523182,40.34117618809014,5.521739136984188,-24.75423728817902,21.840764331208437
4.472487160674985,-93.56294877932024,-20.323459312223353,115.44609756097563,-116.28800054948829,95.56941649899403,-69.42467098801802,-36.896783299895716,-41.10248302561283,-54.59785418984921,-64.83985774136147,-54.28627492683767,-38.65217390577777,20.44915254233018,23.458598726112907
4.472487160674985,-93.56294877932024,-20.323459312223353,115.44609756097563,-116.28800054948829,95.56941649899403,-69.42467098801802,-13.101325643187938,-10.709171057521083,-1.6362993773060683,-4.82297213094423,3.4862742777553546,-0.501976276825422,1.0762711863943446,26.694267515921826
11.243335778919054,-100.25035902345618,-21.188287368062646,115.01243902439026,-116.93351191702726,97.67756539235415,-68.27715576507558,-17.88534692357988,-10.742907379379018,-1.6365914387662155,-4.822967064636247,3.4862742676652703,-0.5019762768254291,1.076271186393981,26.694267515921826
11.243335778919054,-100.25035902345618,-21.188287368062646,115.01243902439026,-116.93351191702726,97.67756539235415,-68.27715576507558,-26.90322160204733,-21.693428056411943,4.848021639874739,-5.8946916461660095,-20.419608095366407,0.5019762923236217,-18.296610169535313,21.840764331208455
11.243335778919054,-100.25035902345618,-21.188287368062646,115.01243902439026,-116.93351191702726,97.67756539235415,-68.27715576507558,-21.651741694788857,-24.116174985425932,4.847510619495926,14.468177090920406,12.450980210558585,-10.541501968349923,5.3813559321617745,21.84076433120847
16.399119589141602,-100.4935375777884,-21.23152877085461,115.22926829268295,-117.77093206951028,98.63581488933607,-66.43115301512466,-20.18447077999672,-24.104785892398635,4.8469996077207025,14.46817564339886,12.450980170198365,-10.541501968010945,5.3813559321599485,21.840764331208483
16.399119589141602,-100.4935375777884,-21.23152877085461,115.22926829268295,-117.77093206951028,98.63581488933607,-66.43115301512466,-8.501029891894479,-13.176599737484647,-12.446591755978531,34.831037504778436,44.32548993376025,26.60474309084317,-19.372881355973288,25.076433121017406
16.399119589141602,-100.4935375777884,-21.23152877085461,115.22926829268295,-117.77093206951028,98.63581488933607,-66.43115301512466,-19.488205863449444,-14.415116449855883,-9.204066266340588,34.8310291815512,-1.4941180573652277,-25.600790505823127,-13.991525423764282,10.515923566877309
14.504524333577894,-96.11632359980851,-22.031494722505954,115.29121951219514,-118.45133594340271,99.8495975855131,-65.03417796110779,-17.1993030103378,-14.436524371429726,-9.204102829916096,34.831020858325374,-1.4941180506385985,-25.600790504975674,-13.99152542375957,10.515923566877358
14.504524333577894,-96.11632359980851,-22.031494722505954,115.29121951219514,-118.45133594340271,99.8495975855131,-65.03417796110779,-8.55452309433163,-21.73579199760296,5.927305922569349,31.61582359159028,9.462744701186262,14.557312261834104,15.067796610138537,34.78343949044424
14.504524333577894,-96.11632359980851,-22.031494722505954,115.29121951219514,-118.45133594340271,99.8495975855131,-65.03417796110779,-32.75938095342017,-20.519591678089714,-10.285504404832922,11.252953045104217,-25.400000427123764,2.509881431536903,-5.381355932235991,26.69426751592193
11.802396674003427,-88.69937769267591,-22.680115764385423,114.98146341463416,-118.83515351329075,101.25503018108657,-64.33569043409932,-29.238526711532145,-20.520483017520593,-10.285504463199144,11.252952683226425,-25.400000339676737,2.5098814314351845,-5.381355932234186,26.694267515921922
11.802396674003427,-88.69937769267591,-22.680115764385423,114.98146341463416,-118.83515351329075,101.25503018108657,-64.33569043409932,-9.649564472234909,-26.586287212875224,-4.88141690891601,20.898519151880684,8.466666414437555,-3.5138339835608816,-4.305084745791888,16.987261146495186
11.802396674003427,-88.69937769267591,-22.680115764385423,114.98146341463416,-118.83515351329075,101.25503018108657,-64.33569043409932,-22.807530336967236,-16.862868313498534,-11.366504576450827,-16.612022141201507,1.4941173679227568,-2.509881414310148,4.305084745733521,29.929936305730855
11.056982147224263,-83.10627094303493,-23.069288389513105,114.3929268292683,-119.00961604505804,102.21327967806843,-63.93655470438023,-24.338177226158475,-16.876106283267532,-11.366468136996358,-16.612013094217474,1.4941173645593673,-2.5098814142423707,4.305084745732051,29.92993630573083
11.056982147224263,-83.10627094303493,-23.069288389513105,114.3929268292683,-119.00961604505804,102.21327967806843,-63.93655470438023,-14.154691301102659,-9.6114454056376,3.765013617290059,0.5356703181552334,-16.435294403510216,-6.525691690770826,-10.762711864436366,20.22292993630408
11.056982147224263,-83.10627094303493,-23.069288389513105,114.3929268292683,-119.00961604505804,102.21327967806843,-63.93655470438023,-25.34832661666264,-26.63096440533291,-7.043636096874955,4.8225921664154,-11.454902189470483,-4.517786552269335,2.152542372853206,23.458598726113006
13.665932990951335,-85.41646720919098,-22.961184882533193,114.08317073170733,-119.30620234906243,102.78822937625756,-63.038499312512215,-18.417844711525348,-26.611353129038083,-7.043745629836542,4.822593975810376,-11.454902149110323,-4.5177865521337575,2.1525423728524613,23.45859872611301
13.665932990951335,-85.41646720919098,-22.961184882533193,114.08317073170733,-119.30620234906243,102.78822937625756,-63.038499312512215,-14.07159284188643,-27.804764504729114,9.168407677034498,40.189674163822346,45.32156847948611,-8.533596828594412,-2.9276626320981354e-11,26.694267515921926
13.665932990951335,-85.41646720919098,-22.961184882533193,114.08317073170733,-119.30620234906243,102.78822937625756,-63.038499312512215,-30.77696734737289,-22.92921790031445,-18.933504859928256,-28.40103343036011,6.474509504605276,1.5059288631673415,7.533898305054177,18.605095541399642
13.852286622646126,-86.02441359502153,-22.8314606741573,113.80439024390245,-119.60278865306682,103.29929577464793,-62.1404439206442,-32.33846396573467,-22.922028471032828,-18.933212935472888,-28.40102040270657,6.474509484425143,1.5059288630995251,7.533898305051614,18.605095541399663
13.852286622646126,-86.02441359502153,-22.8314606741573,113.80439024390245,-119.60278865306682,103.29929577464793,-62.1404439206442,-2.365257472509768,-24.127842927394358,-12.448015880759382,4.822611707888292,-30.380392496539947,-6.525691690160756,-17.22033898308236,15.369426751590776
13.852286622646126,-86.02441359502153,-22.8314606741573,113.80439024390245,-119.60278865306682,103.29929577464793,-62.1404439206442,-18.591612194008142,-25.32958495650144,-23.25611816024265,14.468180347811973,9.462744862626495,7.52964427812943,-3.228813559350108,28.312101910826453
14.877231596967476,-87.60507419818094,-24.15032345931222,113.33975609756098,-119.84703619754106,103.36317907444675,-61.04282066391664,-17.169267958230435,-25.314281100994172,-23.255680267765,14.468178900289907,9.462744832356318,7.529644277858216,-3.228813559349033,28.312101910826442
14.877231596967476,-87.60507419818094,-24.15032345931222,113.33975609756098,-119.84703619754106,103.36317907444675,-61.04282066391664,-7.166844272102459,-19.23411078741275,-20.01278981509736,6.966069917909871,-24.40392186458112,8.533596846736058,5.381355932176011,29.929936305730884
14.877231596967476,-87.60507419818094,-24.15032345931222,113.33975609756098,-119.84703619754106,103.36317907444675,-61.04282066391664,-12.90724247650506,-13.174457815023064,-2.7193810612729115,23.04201572109652,-21.41568648637972,8.53359684643094,1.0762711864121937,26.694267515921954
12.703105893861583,-91.13116323599807,-25.771876064010893,112.31756097560978,-119.96915996977816,103.29929577464793,-59.645845609899766,-6.209011318754817,-13.200191692463282,-2.719636590142123,23.042011378540582,-21.415686412386073,8.533596846125823,1.0762711864118135,26.694267515921947
12.703105893861583,-91.13116323599807,-25.771876064010893,112.31756097560978,-119.96915996977816,103.29929577464793,-59.645845609899766,-6.987185121596751,-27.781664724705635,-37.30605283577467,0.5356844314107327,-17.43137261290215,-3.5138339839679915,4.305084745732921,18.605095541399663
12.703105893861583,-91.13116323599807,-25.771876064010893,112.31756097560978,-119.96915996977816,103.29929577464793,-59.645845609899766,-18.40063661211339,-20.48029851350729,7.008377901007563,-16.61198667706921,-27.392156866087543,-17.569169951953135,-10.762711864435499,15.369426751590773
12.796282709708978,-86.38918142651985,-25.382703438883212,111.66707317073173,-120.16106875472218,103.17152917505035,-58.39854645452755,-26.869521666970563,-20.48144351515396,7.007793912219839,-16.611977630091133,-27.392156771913776,-17.56916995137688,-10.762711864431887,15.369426751590806
12.796282709708978,-86.38918142651985,-25.382703438883212,111.66707317073173,-120.16106875472218,103.17152917505035,-58.39854645452755,-36.058479900624405,-27.76048366191894,-29.740585832851686,10.181272612807613,9.462745283044953,4.5177865704786395,-5.381355932225801,29.92993630573094
12.796282709708978,-86.38918142651985,-25.382703438883212,111.66707317073173,-120.16106875472218,103.17152917505035,-58.39854645452755,-14.183379763145378,-32.58899716887229,-16.77011870878056,27.32894697819102,21.4156864292456,-3.513833982883355,3.228813559299956,25.07643312101756
15.125703105893864,-79.45859262805169,-23.696288729996592,111.76000000000002,-120.49254756508003,102.9159959758552,-57.2510312315851,-12.193107785328031,-32.549256568736936,-16.76989980366637,27.328941188115856,21.415686358615243,-3.5138339827816956,3.2288135592988354,25.07643312101756
15.125703105893864,-79.45859262805169,-23.696288729996592,111.76000000000002,-120.49254756508003,102.9159959758552,-57.2510312315851,-13.805249896647979,-14.314883556162098,-28.65867365013268,6.9660720891408054,-22.41176469240805,0.5019762939161969,7.5338983050597,18.60509554139974
15.125703105893864,-79.45859262805169,-23.696288729996592,111.76000000000002,-120.49254756508003,102.9159959758552,-57.2510312315851,-10.897250064651036,-24.040591895752048,-21.092330652057825,23.042017892327102,-91.14117637975814,-23.59288536569513,-12.915254237312302,21.84076433120868
14.131817070188314,-72.77118238391574,-22.26932243786176,112.16268292682929,-120.82402637543788,103.17152917505035,-56.652327637006465,-9.723926155401445,-24.029664987453167,-21.091965785725773,23.04201354977081,-91.14117607033005,-23.592885364915496,-12.91525423730797,21.840764331208693
14.131817070188314,-72.77118238391574,-22.26932243786176,112.16268292682929,-120.82402637543788,103.17152917505035,-56.652327637006465,-18.728831506470964,-19.166848543558917,39.43418033627457,14.468172024520145,-0.49803850599844723,-4.517786550303767,-20.449152542387104,29.929936305730983
14.131817070188314,-72.77118238391574,-22.26932243786176,112.16268292682929,-120.82402637543788,103.17152917505035,-56.652327637006465,-14.484727366543384,-14.320449525273226,4.846340761073675,34.83103388590037,28.38823600716928,4.517786572173307,19.37288135591814,28.312101910826513
12.516752262166792,-71.67687888942076,-22.226081035069797,112.44146341463417,-121.15550518579573,103.49094567404433,-56.003732076212884,-20.281292214915418,-14.342363461144938,4.845829768460218,34.83102556267378,28.38823591299546,4.517786572003769,19.37288135591158,28.312101910826502
12.516752262166792,-71.67687888942076,-22.226081035069797,112.44146341463417,-121.15550518579573,103.49094567404433,-56.003732076212884,-36.094248511933074,-10.725311738509884,3.7645012619252114,10.181235339200171,3.486275034507487,0.5019762952379967,1.0762711864165833,18.60509554139976
12.516752262166792,-71.67687888942076,-22.226081035069797,112.44146341463417,-121.15550518579573,103.49094567404433,-56.003732076212884,-11.346560963140693,-25.315237879228732,-45.953579255199,-47.69216564399229,-4.482352426563131,0.501976295204051,4.305084745737693,39.636942675157705
10.125213988750309,-72.77118238391574,-22.507150153217566,112.37951219512198,-121.38230647709321,104.44919517102619,-55.80416421135334,-12.021087614551671,-25.300198034370375,-45.952374967576304,-47.692146102512076,-4.482352409746424,0.5019762951701043,4.305084745736225,39.63694267515766
10.125213988750309,-72.77118238391574,-22.507150153217566,112.37951219512198,-121.38230647709321,104.44919517102619,-55.80416421135334,-16.84469088822918,-19.220291715505553,0.5239827686182679,21.970300548362545,24.403922116874703,16.565217401521085,4.3050847457347565,20.22292993630416
10.125213988750309,-72.77118238391574,-22.507150153217566,112.37951219512198,-121.38230647709321,104.44919517102619,-55.80416421135334,-9.701583328352857,-22.864750563278456,-4.880469872996251,2.679162906619461,-12.450979924630676,-4.517786551185462,3.2288135592927922,15.369426751590824
10.684274883834682,-66.81330780277644,-22.009874021109972,112.75121951219515,-121.59166151521396,105.59909456740445,-56.10351600864266,-9.348223182539147,-22.85798323372473,-4.880652421866237,2.6791654397679334,-12.45097988090718,-4.517786551049916,3.228813559291687,15.369426751590874
10.684274883834682,-66.81330780277644,-22.009874021109972,112.75121951219515,-121.59166151521396,105.59909456740445,-56.10351600864266,-22.336632153630752,-28.916145856065285,-53.5176234816656,-8.03812850545291,-86.1607837587536,-31.62450591793894,1.0762711864095897,25.076433121017654
10.684274883834682,-66.81330780277644,-22.009874021109972,112.75121951219515,-121.59166151521396,105.59909456740445,-56.10351600864266,-21.786923074719017,-32.52789363381669,-31.899813308313988,23.042037433757184,24.403922416212623,5.521739141627014,-27.983050847484186,21.84076433120876
14.19393494741991,-65.23264719961703,-21.70718420156622,113.33975609756098,-121.8010165533347,106.11016096579482,-56.25319190728732,-23.977763344676266,-32.4884732292094,-31.89908350604949,23.042033091197585,24.40392233549222,5.521739141423563,-27.983050847474747,21.840764331208785
14.19393494741991,-65.23264719961703,-21.70718420156622,113.33975609756098,-121.8010165533347,106.11016096579482,-56.25319190728732,-23.25883046030376,-9.402498737533087,3.76862452745401,17.68338050945428,32.372549705752334,12.549407125263517,-2.1525423728934037,34.78343949044446
14.19393494741991,-65.23264719961703,-21.70718420156622,113.33975609756098,-121.8010165533347,106.11016096579482,-56.25319190728732,-43.69100286275915,-20.357895299013737,-11.363295338443166,-49.83558983743142,-53.290195499915576,2.5098814333321937,8.610169491512274,20.222929936304343
15.84005869405723,-61.94973671613211,-21.68556350017024,113.99024390243903,-121.92314032557181,106.11016096579482,-56.402867805931976,-38.53662748332793,-20.359553325564438,-11.36325895387171,-49.8355695721986,-53.290195318294735,2.5098814332304396,8.610169491509348,20.22292993630438
15.84005869405723,-61.94973671613211,-21.68556350017024,113.99024390243903,-121.92314032557181,106.11016096579482,-56.402867805931976,-14.787283356121195,-30.065073359867768,-18.928945227679183,26.257255689449828,-11.454901019026103,-1.5059288434675462,-6.457627118660524,16.987261146495506
15.84005869405723,-61.94973671613211,-21.68556350017024,113.99024390243903,-121.92314032557181,106.11016096579482,-56.402867805931976,-9.836641135815205,-16.691203632094037,-5.958843110492267,27.328979909084318,31.37647157035443,7.529644278907819,-10.762711864420345,15.369426751591098
15.21887992174126,-61.828147438966,-21.945011916922027,114.3619512195122,-121.95803283192527,105.79074446680085,-56.45275977214686,-12.417819949991967,-16.705248379438483,-5.958989206114621,27.328974119003572,31.37647146609059,7.529644278636569,-10.762711864416726,15.369426751591146
15.21887992174126,-61.828147438966,-21.945011916922027,114.3619512195122,-121.95803283192527,105.79074446680085,-56.45275977214686,-13.085950614755575,9.966294831754528,14.5763976288257,-54.122484906679674,17.431373322610806,-3.5138339822743245,2.1525423728728446,29.929936305731296
15.21887992174126,-61.828147438966,-21.945011916922027,114.3619512195122,-121.95803283192527,105.79074446680085,-56.45275977214686,-13.30854752447074,-16.823422190029632,21.060463272307633,16.611693563300886,18.427451696806393,8.533596847616003,7.5338983050745805,28.312101910826843
13.479579359256546,-65.59741503111536,-22.420667347633636,114.5478048780488,-122.01037159145545,106.046277665996,-56.552543704576635,-9.978419708169795,-16.837286956760522,21.059404826012532,16.61169139201119,18.427451636266067,8.533596847310848,7.533898305072017,28.31210191082685
13.479579359256546,-65.59741503111536,-22.420667347633636,114.5478048780488,-122.01037159145545,106.046277665996,-56.552543704576635,-24.131538628428938,-35.04585371097497,-9.204544233361199,28.400715346927626,2.490196673764675,-11.545454535975471,26.90677966099839,26.694267515922398
13.479579359256546,-65.59741503111536,-22.420667347633636,114.5478048780488,-122.01037159145545,106.046277665996,-56.552543704576635,-16.42306923338742,-21.655466883667053,-22.174391060302142,26.257249899292876,25.40000058860695,-10.541501966453598,10.762711864381837,20.22292993630459
14.908290535583275,-66.326950694112,-22.096356826693903,114.98146341463416,-122.14994161686928,106.17404426559358,-56.552543704576635,-22.053531005154323,-21.653017024715677,-22.17398967879659,26.25724447109149,25.400000504523163,-10.541501966114678,10.762711864378181,20.222929936304624
14.908290535583275,-66.326950694112,-22.096356826693903,114.98146341463416,-122.14994161686928,106.17404426559358,-56.552543704576635,-22.28114042623211,-26.502508032969658,-24.335223349154568,-5.894650392215613,2.4901964988703513,8.533596848056343,-10.762711864435397,28.312101910826932
14.908290535583275,-66.326950694112,-22.096356826693903,114.98146341463416,-122.14994161686928,106.17404426559358,-56.552543704576635,-23.546867225465306,-28.909671526654485,11.332229251922612,38.04627059727543,49.30588276665421,-13.553359673528092,-4.305084745788811,16.987261146495747
15.777940816825632,-65.23264719961703,-22.33418454204971,115.41512195121953,-122.25461913592966,105.91851106639842,-56.402867805931976,-20.479269316007887,-28.882727726060555,11.331499273386605,38.046261188402966,49.305882601850044,-13.553359673087474,-4.305084745787382,16.98726114649579
15.777940816825632,-65.23264719961703,-22.33418454204971,115.41512195121953,-122.25461913592966,105.91851106639842,-56.402867805931976,-29.379362324728934,-22.790940241044325,-36.22520168430157,0.5357141052410199,16.435294201751173,-8.533596826901562,5.381355932178512,21.840764331209193
15.777940816825632,-65.23264719961703,-22.33418454204971,115.41512195121953,-122.25461913592966,105.91851106639842,-56.402867805931976,-20.673923715292325,-21.571617335920127,-16.769610461978893,-6.966390172711936,-17.431372518729738,4.517786572307321,-4.305084745787796,28.312101910827035
13.883345561261926,-61.58496888463378,-22.853081375553284,115.57000000000002,-122.23717288275293,105.53521126760569,-56.402867805931976,-20.592977620908435,-21.569398635212856,-16.769391566236468,-6.966384382652311,-17.431372458189525,4.517786572137763,-4.305084745786368,28.31210191082703
13.883345561261926,-61.58496888463378,-22.853081375553284,115.57000000000002,-122.23717288275293,105.53521126760569,-56.402867805931976,-7.317789993662261,-11.863352686541234,-13.526720106613183,10.181295772796544,-2.490195927060813,0.5019762953719711,-11.838983050868412,20.222929936304745
13.883345561261926,-61.58496888463378,-22.853081375553284,115.57000000000002,-122.23717288275293,105.53521126760569,-56.402867805931976,-24.37368677774031,-26.449712164498912,-27.57723849560184,8.037836477112076,-11.454901799323924,0.5019762953380058,-5.381355932221465,29.929936305731502
13.231107850330156,-62.07132599329822,-23.696288729996592,115.44609756097563,-122.0976028573391,105.02414486921532,-56.402867805931976,-24.823028603055537,-26.431115147662837,-27.576654661294263,8.037837200859931,-11.454901758963791,0.5019762953040396,-5.381355932219676,29.929936305731488
13.231107850330156,-62.07132599329822,-23.696288729996592,115.44609756097563,-122.0976028573391,105.02414486921532,-56.402867805931976,-24.203944332562884,-21.560642285244754,-1.6364502960768696,26.257241937834756,-14.443137012721351,-14.557312241965796,-10.76271186442037,21.8407643312092
13.231107850330156,-62.07132599329822,-23.696288729996592,115.44609756097563,-122.0976028573391,105.02414486921532,-56.402867805931976,-17.388242249411263,-21.558524820786566,-1.6367423564414931,26.257236509634726,-14.443136962271158,-14.557312241491283,-10.762711864416765,21.84076433120922
13.231107850330156,-62.07132599329822,-23.696288729996592,115.44609756097563,-122.0976028573391,105.02414486921532,-56.402867805931976,-0.3243801998868321,-22.769409199233813,-13.526027159767406,6.966097420371623,6.474510147002924,13.55335969515685,3.228813559313287,28.312101910827057
15.405233553436052,-59.63954044997605,-23.76115083418454,115.9417073170732,-122.11504911051583,104.2575452716298,-56.3030838735022,-5.125107515193614,-22.763237860172996,-13.525917767662412,6.966098506000325,6.47451012682278,13.55335969468219,3.228813559312164,28.31210191082705
15.405233553436052,-59.63954044997605,-23.76115083418454,115.9417073170732,-122.11504911051583,104.2575452716298,-56.3030838735022,-9.783280338677635,-8.201322897239042,3.7672719830979506,58.409122687799474,27.39215716546652,7.529644279313178,-3.2288135593319365,16.987261146495854
15.405233553436052,-59.63954044997605,-23.76115083418454,115.9417073170732,-122.11504911051583,104.2575452716298,-56.3030838735022,-31.344928782483244,-31.290994462653984,-10.283830338076841,19.826839081094782,6.474510015832142,1.5059288641475574,11.838983050836069,15.369426751591428
21.057960381511375,-56.599808520823345,-23.28549540347293,117.18073170731708,-122.28951164228312,102.34104627766601,-55.65448831270868,-25.41913433506725,-31.256152227861005,-10.283830426097154,19.826835824174612,6.474509995651984,1.505928864079677,11.83898305083204,15.369426751591462
21.057960381511375,-56.599808520823345,-23.28549540347293,117.18073170731708,-122.28951164228312,102.34104627766601,-55.65448831270868,-20.50153274918158,-20.304558217262688,-11.364648036674794,15.539913975907442,-12.450980220606931,-0.5019762742863215,-8.610169491541413,34.78343949044496
21.057960381511375,-56.599808520823345,-23.28549540347293,117.18073170731708,-122.28951164228312,102.34104627766601,-55.65448831270868,-8.435536943803502,-14.241827548614953,-29.73850951301919,14.468182518668577,18.4274511956661,-11.545454534926042,-19.372881355943495,18.605095541400377
20.99584250427978,-55.26232647199616,-23.37197820905686,118.3268292682927,-122.42908166769695,100.16901408450707,-54.80632488705555,-15.600685778151554,-14.264495268609329,-29.737852695554256,14.468181071146176,18.427451135125754,-11.545454534553238,-19.372881355936975,18.605095541400406
20.99584250427978,-55.26232647199616,-23.37197820905686,118.3268292682927,-122.42908166769695,100.16901408450707,-54.80632488705555,-22.876099174228557,-22.77800889025096,1.6065122642515846,14.468179623624021,-3.4862744156110637,-4.5177865501370285,-1.5214646868200213e-12,33.16560509554053
20.99584250427978,-55.26232647199616,-23.37197820905686,118.3268292682927,-122.42908166769695,100.16901408450707,-54.80632488705555,-26.036278073265688,-17.92004012095758,-9.202064514693658,9.109529936917674,51.2980393233334,-12.549407103193976,-1.0762711864420367,16.987261146495953
15.094644167278066,-55.74868358066059,-23.696288729996592,118.72951219512197,-122.3418504018133,99.08299798792763,-54.756432920840666,-19.525408976808606,-17.930405127279244,-9.202101113683149,9.109530298792375,51.298039151802506,-12.549407102787267,-1.0762711864416923,16.98726114649598
15.094644167278066,-55.74868358066059,-23.696288729996592,118.72951219512197,-122.3418504018133,99.08299798792763,-54.756432920840666,-17.255790459266517,-31.28355958323956,-13.525407802217433,-4.822954761212527,-1.494117882474429,1.5059288657062586,9.686440677963613,12.133757961782644
15.094644167278066,-55.74868358066059,-23.696288729996592,118.72951219512197,-122.3418504018133,99.08299798792763,-54.756432920840666,-3.167879207974165,-27.609926344982483,-4.878758240616485,28.400669388036118,-6.474510032610666,4.517786573085562,-4.305084745766129,25.07643312101833
13.200048911714358,-56.235040689325025,-24.020599250936325,118.94634146341465,-122.20228037639947,98.69969818913484,-55.205460616774644,-10.1637733158058,-27.5875999158075,-4.878940819457796,28.400663236082917,-6.474510009067324,4.517786572915993,-4.305084745764694,25.076433121018326
13.200048911714358,-56.235040689325025,-24.020599250936325,118.94634146341465,-122.20228037639947,98.69969818913484,-55.205460616774644,-23.040512380490547,-13.00955856798392,-4.879123395245926,17.68336060576187,3.4862743282016786,2.5098814344483067,3.2288135593202134,20.222929936304958
13.200048911714358,-56.235040689325025,-24.020599250936325,118.94634146341465,-122.20228037639947,98.69969818913484,-55.205460616774644,-16.138573070804046,-13.036494546992124,-3.7984884454468784,3.750872650723923,13.447058631837185,17.5691699715824,10.762711864402576,33.16560509554061
16.212765957446813,-57.572522738152216,-24.301668369084098,119.38000000000002,-122.13249536369256,97.48591549295782,-55.0058927519151,-14.715208780672832,-13.063402762974487,-3.798707509913502,3.7508748219964883,13.447058588113533,17.56916997097214,10.762711864398916,33.165605095540585
16.212765957446813,-57.572522738152216,-24.301668369084098,119.38000000000002,-122.13249536369256,97.48591549295782,-55.0058927519151,-21.932927440870024,-30.072015631447783,-29.73854711150296,-9.109878780773968,-13.447059102669412,-13.553359673258921,11.838983050835749,13.751592356687087
16.212765957446813,-57.572522738152216,-24.301668369084098,119.38000000000002,-122.13249536369256,97.48591549295782,-55.0058927519151,-15.788262329274632,-14.272772585788882,-16.768080023327652,36.974502590035314,-25.400000232053436,-3.513833981327736,3.228813559307754,31.54777070063613
15.777940816825632,-58.66682623264719,-24.193564862104186,119.7517073170732,-122.08015660416237,96.27213279678074,-54.756432920840666,-16.165145004809666,-14.295594909423626,-16.76786115411893,36.974493543048595,-25.40000014460647,-3.513833981226119,3.2288135593066367,31.54777070063609
15.777940816825632,-58.66682623264719,-24.193564862104186,119.7517073170732,-122.08015660416237,96.27213279678074,-54.756432920840666,-15.439215424415359,-33.72608978336649,-18.929277333702224,-14.468538600107202,5.478431315390061,11.54545455611137,-9.686440677980434,28.312101910827142
15.777940816825632,-58.66682623264719,-24.193564862104186,119.7517073170732,-122.08015660416237,96.27213279678074,-54.756432920840666,-18.00123083666711,-17.91458162660525,-11.363262824639268,19.826818453894646,-19.42352948574094,-0.5019762740841917,6.457627118630255,18.60509554140038
14.069699192956715,-57.572522738152216,-24.755703098399724,119.8136585365854,-121.90569407239508,95.31388329979882,-54.80632488705555,-20.289390591582467,-17.92515959594085,-11.36322644178107,19.826815196977947,-19.423529418474057,-0.5019762740842684,6.457627118628052,18.605095541400388
14.069699192956715,-57.572522738152216,-24.755703098399724,119.8136585365854,-121.90569407239508,95.31388329979882,-54.80632488705555,-30.670427638761858,-26.426602610775348,-1.635832356771914,-10.181618199371062,-32.37254895905052,-18.573122518767388,-9.686440677981595,20.22292993630485
14.069699192956715,-57.572522738152216,-24.755703098399724,119.8136585365854,-121.90569407239508,95.31388329979882,-54.80632488705555,-18.53247030585531,-43.3902406317314,-34.06065010428915,-24.114096745546583,-29.384313553942366,-2.5098814117723425,-4.305084745775864,25.07643312101822
13.075813157251165,-54.16802297750118,-24.885427306775618,119.7826829268293,-121.62655402156742,94.29175050301814,-55.055784718129985,-16.82772135485864,-43.31485351509244,-34.05984732728869,-24.11408516541318,-29.38431345304195,-2.509881411704605,-4.3050847457744315,25.076433121018205
13.075813157251165,-54.16802297750118,-24.885427306775618,119.7826829268293,-121.62655402156742,94.29175050301814,-55.055784718129985,-13.964214445205638,-14.128072234439824,-5.957788978017704,-0.536021332870197,-26.396078058023832,-10.541501964829333,9.68644067795345,25.07643312101819
13.075813157251165,-54.16802297750118,-24.885427306775618,119.7826829268293,-121.62655402156742,94.29175050301814,-55.055784718129985,-15.48588405574641,-5.660415914741529,25.38577306078418,24.113764186163728,15.439216150434332,-0.5019762729998265,-3.228813559335796,33.16560509554045
14.069699192956715,-59.274772618477726,-24.755703098399724,119.87560975609756,-121.48698399615358,93.39738430583503,-55.055784718129985,-18.083825860205327,-5.712279113350407,25.384568599717426,24.113759481725356,15.439216099984044,-0.5019762729998871,-3.2288135593347267,33.165605095540414
14.069699192956715,-59.274772618477726,-24.755703098399724,119.87560975609756,-121.48698399615358,93.39738430583503,-55.055784718129985,-23.740136952333803,-28.81071244318168,9.171101320958659,34.83105125565666,22.411765069141715,5.5217391418943995,5.381355932190313,16.987261146495815
14.069699192956715,-59.274772618477726,-24.755703098399724,119.87560975609756,-121.48698399615358,93.39738430583503,-55.055784718129985,-18.140813752798515,-26.358656931518063,-20.011628786075146,31.61585398891648,-0.4980389264210445,6.525691710840003,-2.152542372895,20.222929936304745
13.696991929567135,-54.16802297750118,-23.826012938372486,120.12341463414634,-121.3125214643863,92.8224346076459,-55.45492044784908,-16.26345172302299,-26.340818226471935,-20.011300414383,31.615846751326195,-0.4980389230577523,6.52569171060265,-2.152542372894295,20.22292993630475
13.696991929567135,-54.16802297750118,-23.826012938372486,120.12341463414634,-121.3125214643863,92.8224346076459,-55.45492044784908,-18.408905136612912,-15.406200972185843,-27.576694705992523,20.89854303536826,26.396078727364827,-5.521739119423401,11.83898305083286,25.076433121018123
13.696991929567135,-54.16802297750118,-23.826012938372486,120.12341463414634,-121.3125214643863,92.8224346076459,-55.45492044784908,-41.14440003469157,-25.129172239877356,-62.16227160298933,2.6791354033460575,7.470588443838924,-10.541501964999261,-13.991525423743063,16.987261146495833
9.90780141843972,-48.33173767352799,-23.804392236976504,119.99951219512195,-120.94615014767498,92.56690140845075,-56.402867805931976,-37.46639312385095,-25.11551740471436,-62.160519955615214,2.6791379364991954,7.47058842029541,-10.541501964660338,-13.991525423738356,16.987261146495847
9.90780141843972,-48.33173767352799,-23.804392236976504,119.99951219512195,-120.94615014767498,92.56690140845075,-56.402867805931976,-2.507184121479522,-22.675944244025718,-14.602797346399228,-24.114100726270294,-21.415686113052526,-14.557312240917641,-13.99152542373365,33.165605095540414
9.90780141843972,-48.33173767352799,-23.804392236976504,119.99951219512195,-120.94615014767498,92.56690140845075,-56.402867805931976,-21.311134865519616,-15.392682645050497,0.5287937865508141,-3.7512258372353244,-17.431372313568634,-12.549407102145004,6.4576271186404846,31.547770700635912
4.286133528980194,-47.11584490186691,-23.242254000680965,119.28707317073173,-120.38787004601966,93.716800804829,-58.34865448831266,-21.845112667217915,-15.411911123544177,0.5284286745024112,-3.7512211328093628,-17.4313722530284,-12.549407101738284,6.457627118638285,31.54777070063587
4.286133528980194,-47.11584490186691,-23.242254000680965,119.28707317073173,-120.38787004601966,93.716800804829,-58.34865448831266,67.59719190103242,-17.857088784064047,-21.08828688208971,-28.400998328632603,6.474510160453436,10.541501989096771,-43.05084745762673,25.076433121018002
4.286133528980194,-47.11584490186691,-23.242254000680965,119.28707317073173,-120.38787004601966,93.716800804829,-58.34865448831266,4.414689377673142,-5.738289609986547,14.579056157443539,15.53993026032745,-0.4980388793346605,2.509881435531356,2.15254237288864,33.16560509554026
1.6461237466373237,-51.73623743417902,-22.70173646578141,118.41975609756099,-119.9342674634247,95.69718309859161,-60.39422510312312,17.61913378176643,-5.790256342629979,14.578216619191565,15.539928450922726,-0.4980388759713482,2.5098814354295964,2.152542372887905,33.1656050955402
1.6461237466373237,-51.73623743417902,-22.70173646578141,118.41975609756099,-119.9342674634247,95.69718309859161,-60.39422510312312,-55.760507684271516,-30.101769638470266,-36.221046463983456,48.763545724461835,-10.458823186333698,2.509881435327837,-5.381355932196304,4.044585987259953
1.6461237466373237,-51.73623743417902,-22.70173646578141,118.41975609756099,-119.9342674634247,95.69718309859161,-60.39422510312312,0.9429051764197602,-36.13657979578817,-47.028345944284425,28.4006693878994,8.466667046741868,6.525691711822309,-12.915254237277969,-0.8089171974533649
1.677182685253122,-58.54523695548108,-21.90177051413006,117.61439024390245,-119.63768115942028,98.44416498993968,-62.340011785503805,-15.551071251560142,-36.08607307095099,-47.027105266209,28.400663235946194,8.466667019835038,6.525691711584954,-12.915254237273619,-0.8089171974533009
1.677182685253122,-58.54523695548108,-21.90177051413006,117.61439024390245,-119.63768115942028,98.44416498993968,-62.340011785503805,-40.126010017303045,-33.6097080563705,18.904004265389446,92.7044359542073,33.36862777724236,-1.505928841844863,8.61016949154066,31.54777070063587
1.677182685253122,-58.54523695548108,-21.90177051413006,117.61439024390245,-119.63768115942028,98.44416498993968,-62.340011785503805,-63.22273647972024,-5.669039684857093,16.741383674362396,32.68754781063409,21.415686489780978,-6.525691687556315,15.067796610180723,34.78343949044473
5.621667889459529,-60.855433221637135,-21.058563159686752,117.36658536585367,-119.51555738718318,100.9356136820926,-64.03633863681,-62.73943281787704,-5.7212274864039365,16.74047113456806,32.68754021117056,21.415686419150575,-6.5256916873529835,15.06779661017563,34.78343949044466
5.621667889459529,-60.855433221637135,-21.058563159686752,117.36658536585367,-119.51555738718318,100.9356136820926,-64.03633863681,-44.65993505592274,-23.96805979336047,-43.786222651717935,20.89850648550253,9.46274517204935,-2.509881410553418,22.601694915254015,25.076433121017864
5.621667889459529,-60.855433221637135,-21.058563159686752,117.36658536585367,-119.51555738718318,100.9356136820926,-64.03633863681,-22.708974057746282,-15.467803118993132,-43.785091452683474,-21.970683046761962,-14.443137211162478,18.573122541644533,31.211864406770353,25.076433121017836
8.913915382734167,-60.00430828147438,-20.734252638747016,117.36658536585367,-119.46321862765299,102.46881287726364,-65.13396189353756,-10.24297227579309,-15.487115754515859,-43.783960272795916,-21.97067219037943,-14.44313716071234,18.5731225410004,31.21186440675981,25.07643312101781
8.913915382734167,-60.00430828147438,-20.734252638747016,117.36658536585367,-119.46321862765299,102.46881287726364,-65.13396189353756,-9.782943258470219,-23.997278070254843,-58.9142744275244,-6.9664462642823,16.435294262287357,3.5138340031204143,26.90677966098727,41.25477707006233
8.913915382734167,-60.00430828147438,-20.734252638747016,117.36658536585367,-119.46321862765299,102.46881287726364,-65.13396189353756,-6.905334820875748,-40.96961960501405,0.5323313803995937,-31.616222374461664,-12.450980301330757,-14.557312241698268,-30.13559322036813,0.8089171974508709
2.5778919051112776,-58.54523695548108,-22.874702076949266,116.43731707317073,-119.06195480458823,104.83249496981898,-67.07974857591825,-20.539852973137478,-40.90291979480217,0.5319662078986838,-31.61620826117033,-12.450980257607315,-14.557312241223734,-30.135593220357965,0.8089171974509419
2.5778919051112776,-58.54523695548108,-22.874702076949266,116.43731707317073,-119.06195480458823,104.83249496981898,-67.07974857591825,-40.24732466485773,-14.150771159279987,-7.034121616232101,-41.261760978413356,-11.454901782511303,10.54150198797725,32.288135593200955,83.31847133757825
2.5778919051112776,-58.54523695548108,-22.874702076949266,116.43731707317073,-119.06195480458823,104.83249496981898,-67.07974857591825,-21.974964676901664,-26.304253898246742,-4.872596267948798,33.75933174036882,-8.466666448033504,-10.541501964525903,3.2288135592966194,38.01910828025329
3.3854243091220386,-59.88271900430827,-24.280047667688113,115.41512195121953,-118.59090596881654,106.68511066398395,-68.77607542722444,-16.452818672451528,-26.28695055913731,-4.872778952516053,33.75932377901684,-8.466666417763447,-10.541501964186963,3.2288135592954905,38.019108280253235
3.3854243091220386,-59.88271900430827,-24.280047667688113,115.41512195121953,-118.59090596881654,106.68511066398395,-68.77607542722444,-15.521904420932305,-28.695660304444345,-12.438684291791235,76.6285017311417,22.411764985056166,4.517786573387843,-7.5338983051106,-13.751592356689393
3.3854243091220386,-59.88271900430827,-24.280047667688113,115.41512195121953,-118.59090596881654,106.68511066398395,-68.77607542722444,-16.85588513216754,-23.818344732250765,7.016103898798761,21.970267254940207,-24.40392136344822,9.537549418963588,30.13559322030927,15.369426751590936
9.348740523355346,-58.42364767831497,-25.20973782771535,115.01243902439026,-118.25942715845869,107.06841046277668,-69.72402278530734,-17.179109781993066,-23.809402671746298,7.015519776329057,21.970263274266678,-24.403921279364578,9.537549418624545,30.13559322029905,15.369426751590971
9.348740523355346,-58.42364767831497,-25.20973782771535,115.01243902439026,-118.25942715845869,107.06841046277668,-69.72402278530734,-6.386547179525811,-4.392804159917237,22.146380979128985,-49.83562711147767,-25.399999626653496,5.521739141689272,-15.067796610212003,26.694267515922192
9.348740523355346,-58.42364767831497,-25.20973782771535,115.01243902439026,-118.25942715845869,107.06841046277668,-69.72402278530734,-24.332964312534354,-15.366300043129705,18.902833381649973,58.409087585287075,-74.20784267646223,-43.67193674681801,-15.067796610206956,10.515923566877635
11.11910002445586,-56.721397797989454,-25.382703438883212,114.67170731707319,-117.89305584174738,106.81287726358153,-70.42251031231581,-22.927194152125455,-15.386030776846416,18.901847854573862,58.40907130071619,-74.2078424242111,-43.67193674536041,-15.06779661020191,10.515923566877685
11.11910002445586,-56.721397797989454,-25.382703438883212,114.67170731707319,-117.89305584174738,106.81287726358153,-70.42251031231581,-20.366507246861712,-15.405748153849544,-3.796305629100771,-41.261802232682534,15.439216651571007,5.521739144401016,-16.144067796637366,23.45859872611337
11.11910002445586,-56.721397797989454,-25.382703438883212,114.67170731707319,-117.89305584174738,106.81287726358153,-70.42251031231581,-12.990456225937981,-15.425451157592477,0.526745357691178,-27.32929944059603,12.450981307003008,0.501976298452268,-11.838983050869983,29.929936305731182
12.14404499877721,-54.4112015318334,-25.317841334695263,114.4858536585366,-117.50923827185935,106.2379275653924,-71.07110587310939,-14.783598130133965,-15.44513877365702,0.5263802788626535,-27.329286774822542,12.450981266642756,0.5019762984183045,-11.83898305086604,29.92993630573115
12.14404499877721,-54.4112015318334,-25.317841334695263,114.4858536585366,-117.50923827185935,106.2379275653924,-71.07110587310939,-8.352093774584274,-17.890771954603867,23.223183179358323,30.54412687414072,31.37647142236126,4.517786574980571,-6.457627118659617,10.515923566877653
12.14404499877721,-54.4112015318334,-25.317841334695263,114.4858536585366,-117.50923827185935,106.2379275653924,-71.07110587310939,-8.103667123203179,-5.772424657839917,4.848153839188862,-11.253336267209445,10.458824259273468,7.529644282258181,9.686440677949951,41.254777070062346
18.790657862558085,-53.316898037338426,-24.9070480081716,115.04341463414636,-117.31732948691533,104.32142857142861,-71.07110587310939,-6.994173676440353,-5.824839599002043,4.847642812545969,-11.253329029628187,10.458824225639898,7.5296442819869185,9.686440677946624,41.254777070062275
18.790657862558085,-53.316898037338426,-24.9070480081716,115.04341463414636,-117.31732948691533,104.32142857142861,-71.07110587310939,-23.565517519888793,-31.34977839156581,-22.17330626882205,25.18548623440602,12.450981054751457,-2.509881409774927,-16.144067796628608,13.751592356686471
18.790657862558085,-53.316898037338426,-24.9070480081716,115.04341463414636,-117.31732948691533,104.32142857142861,-71.07110587310939,-28.52487596605159,-26.464104862828066,-11.364729683238739,47.69180377266421,-14.443136632668107,-3.513833978856262,-1.5768508909156336e-11,26.694267515922146
26.244803130349723,-58.7884155098133,-25.015151515151512,116.43731707317073,-117.47434576550589,100.99949698189141,-69.77391475152223,-26.27539292765929,-26.446807523417974,-11.364693277663646,47.69179110688387,-14.443136582217948,-3.5138339787546395,-1.58201286346125e-11,26.694267515922135
26.244803130349723,-58.7884155098133,-25.015151515151512,116.43731707317073,-117.47434576550589,100.99949698189141,-69.77391475152223,-3.268258510078754,-25.21657155852229,-20.01119705299374,-9.109892894249402,-11.454901237650084,-10.541501962696422,-6.4576271186588485,20.2229299363043
26.244803130349723,-58.7884155098133,-25.015151515151512,116.43731707317073,-117.47434576550589,100.99949698189141,-69.77391475152223,-27.33277908074563,-20.351531389704327,-17.849233645333257,10.181247280639958,59.26666743016223,25.600790527008577,4.305084745748243,28.31210191082659
30.99682073856689,-59.63954044997605,-25.793496765406875,118.2339024390244,-117.70114705680336,96.5276659959759,-67.8281280691416,-30.809228384892968,-20.35483433764057,-17.84897827788574,10.181247280637328,59.26666723172453,25.600790526127135,4.305084745746736,28.312101910826573
30.99682073856689,-59.63954044997605,-25.793496765406875,118.2339024390244,-117.70114705680336,96.5276659959759,-67.8281280691416,-27.63871458801048,-21.57112657128776,-8.121365211980635,-13.396804971776834,-16.43529375102822,-6.525691687524166,-2.1525423728977473,20.222929936304283
30.99682073856689,-59.63954044997605,-25.793496765406875,118.2339024390244,-117.70114705680336,96.5276659959759,-67.8281280691416,-8.901467096157617,-39.765064991300555,-52.43495673016072,-15.54025630610925,19.42352983556099,-2.5098814107246112,-11.838983050861538,21.84076433120875
29.474932746392764,-66.57012924844422,-25.75025536261491,119.93756097560976,-118.15474963939832,92.37525150905435,-65.3335297583971,-1.5511465283391068,-39.702869141018596,-52.43353353699211,-15.540247621010682,19.423529771657236,-2.509881410656883,-11.838983050857594,21.840764331208756
29.474932746392764,-66.57012924844422,-25.75025536261491,119.93756097560976,-118.15474963939832,92.37525150905435,-65.3335297583971,-9.529283152190532,-19.02011987941584,-8.11859194403307,21.970298738377494,-21.41568597852174,-11.545454532930675,6.457627118634783,20.22292993630431
29.474932746392764,-66.57012924844422,-25.75025536261491,119.93756097560976,-118.15474963939832,92.37525150905435,-65.3335297583971,8.997937950539772,-20.240780325510407,-21.088475355690022,0.5357018009608314,-21.415685904528168,-1.5059288410672764,-2.152542372891423,26.694267515922146
22.269258987527515,-74.71661081857347,-24.085461355124274,121.11463414634147,-118.67813723470019,90.58651911468814,-63.48752700844625,-5.472517980449208,-20.244370448599255,-21.088110558308394,0.5357050578680447,-21.41568583053458,-1.5059288410334453,-2.1525423728907516,26.694267515922135
22.269258987527515,-74.71661081857347,-24.085461355124274,121.11463414634147,-118.67813723470019,90.58651911468814,-63.48752700844625,-24.33012088898329,-10.544125780222457,0.5286046835307339,47.691812819597786,5.47843189051829,-2.509881410148672,-9.087578147621885e-12,26.694267515922125
22.269258987527515,-74.71661081857347,-24.085461355124274,121.11463414634147,-118.67813723470019,90.58651911468814,-63.48752700844625,-24.931158189483185,5.188245871433075,18.90213745581458,-11.253330477212902,4.482353442328881,-5.521739117528116,-4.305084745771127,31.54777070063548
15.684764000978237,-80.67448539971276,-21.90177051413006,121.64121951219514,-119.21897108317879,91.0337022132797,-62.43979571793358,-15.219621930678759,5.098666624525368,18.901151939768226,-11.253323239632635,4.482353428875383,-5.52173911735869,-4.305084745769729,31.547770700635446
15.684764000978237,-80.67448539971276,-21.90177051413006,121.64121951219514,-119.21897108317879,91.0337022132797,-62.43979571793358,-5.773083231071222,1.3702852538058679,13.496078827656675,42.333166389790804,14.443137729147546,16.565217404090014,-1.0762711864468422,36.40127388534878
15.684764000978237,-80.67448539971276,-21.90177051413006,121.64121951219514,-119.21897108317879,91.0337022132797,-62.43979571793358,-27.63037641316115,-29.03124567408053,-60.00031571349942,18.755103280993453,-6.474509376763335,1.505928866277792,-4.305084745768022,20.22292993630418
12.268280753240404,-83.22786022020104,-20.92883895131086,121.79609756097562,-119.72491242530393,92.37525150905435,-61.79120015714,-29.084132901398483,-29.005733270925223,-59.998637063328026,18.75510038595347,-6.4745093532199895,1.505928866209922,-4.305084745766624,20.222929936304187
12.268280753240404,-83.22786022020104,-20.92883895131086,121.79609756097562,-119.72491242530393,92.37525150905435,-61.79120015714,-42.273107809603715,-47.17498456494408,-37.29979046834529,2.679152773360655,-20.419607368892567,0.5019762969929922,-3.2411662807532757e-12,23.458598726113106
12.268280753240404,-83.22786022020104,-20.92883895131086,121.79609756097562,-119.72491242530393,92.37525150905435,-61.79120015714,-23.454357292313887,-17.97659305842083,10.257092725970402,-4.82295222834748,10.458824074287225,10.541501988449598,4.305084745758688,29.929936305730923
11.584984103692838,-84.93011010052656,-21.03694245829077,121.76512195121953,-120.19596126107564,93.97233400402416,-61.242388528776246,-29.20278993135392,-17.98819999399628,10.25639914272471,-4.822947162042917,10.458824040653642,10.54150198807664,4.305084745757179,29.929936305730894
11.584984103692838,-84.93011010052656,-21.03694245829077,121.76512195121953,-120.19596126107564,93.97233400402416,-61.242388528776246,-13.473311217308815,-19.212778235156687,-10.279827356988331,-21.970616461129417,8.466667144274922,-18.573122517618998,-6.457627118649291,21.840764331208593
11.584984103692838,-84.93011010052656,-21.03694245829077,121.76512195121953,-120.19596126107564,93.97233400402416,-61.242388528776246,-33.030069891136044,-32.56306036337387,-20.00718521874305,-9.109849830715547,-64.2470583728293,-21.584980224456064,-8.610169491528156,15.369426751590776
13.479579359256546,-83.47103877453326,-21.296390875042558,121.73414634146343,-120.57977883096368,94.93058350100608,-60.49400903555289,-20.077690496505948,-32.52549595148784,-20.006856924655654,-9.10984331689744,-64.24705815421166,-21.584980223744264,-8.6101694915253,15.369426751590805
13.479579359256546,-83.47103877453326,-21.296390875042558,121.73414634146343,-120.57977883096368,94.93058350100608,-60.49400903555289,5.207939788959692,-15.506273060069557,8.094726949702178,4.822648618799115,-10.458822641475432,6.525691713141167,16.14406779660897,23.458598726113106
13.479579359256546,-83.47103877453326,-21.296390875042558,121.73414634146343,-120.57977883096368,94.93058350100608,-60.49400903555289,-12.474516083125813,-17.952161819250584,21.06391663852993,-3.7511867545106234,21.41568719944348,-6.525691686033954,-2.152542372884972,21.84076433120865
12.516752262166792,-80.91766395404498,-21.296390875042558,121.39341463414635,-120.82402637543788,95.82494969818919,-60.044981339618914,-18.546481740626614,-17.96387495988904,21.062858129943375,-3.751182050091378,21.415687128813083,-6.525691685830636,-2.152542372884299,21.840764331208653
12.516752262166792,-80.91766395404498,-21.296390875042558,121.39341463414635,-120.82402637543788,95.82494969818919,-60.044981339618914,-16.85770297572727,8.710002468750371,29.708339819454416,23.04206385024927,-18.42745019671997,-6.525691685627319,-9.686440677967097,31.54777070063539
12.516752262166792,-80.91766395404498,-21.296390875042558,121.39341463414635,-120.82402637543788,95.82494969818919,-60.044981339618914,-6.993444759738287,-5.947567989746656,35.11107700090405,4.822655494458019,25.40000084757651,-7.529644254573057,-3.228813559320899,29.9299363057309
11.429689410613845,-79.70177118238391,-21.080183861082734,121.05268292682928,-120.99848890720517,97.2303822937626,-59.99508937340403,-7.525493078231506,-6.000049979875699,35.10954411852467,4.822657303842226,25.400000763492706,-7.5296442543358415,-3.228813559319858,29.929936305730877
11.429689410613845,-79.70177118238391,-21.080183861082734,121.05268292682928,-120.99848890720517,97.2303822937626,-59.99508937340403,-31.21403967554307,-43.65485515311954,-44.872485405443676,-0.5359891259583129,5.478432051957571,3.5138340065410105,-3.228813559318817,13.751592356686299
11.429689410613845,-79.70177118238391,-21.080183861082734,121.05268292682928,-120.99848890720517,97.2303822937626,-59.99508937340403,-8.472635201128494,-41.15423326715465,-20.01251460355723,10.181310971190523,15.439216348866408,-27.608695637215465,-6.457627118639264,18.60509554139969
13.79016874541453,-74.59502154140736,-19.99914879128362,121.36243902439026,-121.38230647709321,97.99698189134813,-59.44627774504022,-9.090423498592484,-41.087896032158845,-20.01218621978164,10.181310971177147,15.439216298416087,-27.60869563630027,-6.4576271186371335,18.605095541399706
13.79016874541453,-74.59502154140736,-19.99914879128362,121.36243902439026,-121.38230647709321,97.99698189134813,-59.44627774504022,-30.552127281447156,-44.66062218741628,-66.487011310496,0.5357441406317811,-18.427450418701483,5.521739146533844,-8.610169491515995,13.751592356686363
13.79016874541453,-74.59502154140736,-19.99914879128362,121.36243902439026,-121.38230647709321,97.99698189134813,-59.44627774504022,-7.821130547256592,-14.257717432102794,-21.090777715601035,-10.18154908083702,18.42745160598702,24.59683796016248,1.076271186451329,33.16560509553987
10.901687454145272,-69.97462900909525,-18.442458290772894,121.82707317073172,-121.76612404698125,100.04124748490949,-59.84541347475931,-17.138216676947312,-14.281876455067838,-21.090412880244912,-10.181542205144769,18.427451545446644,24.596837959314936,1.0762711864509156,33.16560509553984
10.901687454145272,-69.97462900909525,-18.442458290772894,121.82707317073172,-121.76612404698125,100.04124748490949,-59.84541347475931,-28.669079105022377,-22.796873765894944,-18.928413006016598,29.472461640511174,34.36470638686732,-10.541501961749631,-15.067796610156941,28.31210191082645
10.901687454145272,-69.97462900909525,-18.442458290772894,121.82707317073172,-121.76612404698125,100.04124748490949,-59.84541347475931,-27.309748401036195,-26.43124786017048,2.688229278037273,24.113806887483577,-8.466666276507022,-1.5059288390691867,16.14406779662248,31.547770700635354
3.1680117388114493,-65.11105792245093,-16.756043581886274,121.88902439024392,-121.99292533827872,104.2575452716298,-61.74130819092511,-18.83203564457843,-26.414411586013,2.6877912107147495,24.113802183037876,-8.466666246236995,-1.505928839035352,16.14406779661697,31.547770700635336
3.1680117388114493,-65.11105792245093,-16.756043581886274,121.88902439024392,-121.99292533827872,104.2575452716298,-61.74130819092511,-2.315533534374282,-17.906749725997454,3.768170673287459,14.46823064806098,0.49803966638613206,2.5098814375947143,9.686440677968484,16.98726114649522
3.1680117388114493,-65.11105792245093,-16.756043581886274,121.88902439024392,-121.99292533827872,104.2575452716298,-61.74130819092511,-4.894324455143572,-21.557609176465117,-61.08135522608378,70.19817088804851,8.466667117366551,-1.5059288391032788,-4.305084745761296,23.458598726113078
3.3233064318904404,-57.32934418382,-16.51821586653047,122.35365853658539,-122.13249536369256,108.98490945674047,-64.38558240031426,-11.852171441136605,-21.557230960556247,-61.079640078237276,70.19815062279591,8.466667090459643,-1.505928839069444,-4.305084745759899,23.458598726113088
3.3233064318904404,-57.32934418382,-16.51821586653047,122.35365853658539,-122.13249536369256,108.98490945674047,-64.38558240031426,-18.053215371040867,-19.13090399047587,4.851943915130228,0.5357032481490513,4.482353338062465,1.5059288684115644,-4.305084745758503,23.458598726113102
3.3233064318904404,-57.32934418382,-16.51821586653047,122.35365853658539,-122.13249536369256,108.98490945674047,-64.38558240031426,-43.995134952834675,-32.481534220335135,-22.169005240393908,9.109543687751152,1.4941180304912502,3.513834006641818,4.8784253473013596e-12,28.31210191082648
8.696502812423578,-54.53279080899951,-17.3398025195778,123.53073170731707,-122.44652792087368,112.11519114688133,-66.23158515026512,-32.49987067913869,-32.444320260827226,-22.168603954318364,9.10954404962342,1.4941180271277814,3.5138340065061557,4.821070096791415e-12,28.312101910826474
8.696502812423578,-54.53279080899951,-17.3398025195778,123.53073170731707,-122.44652792087368,112.11519114688133,-66.23158515026512,-10.541576388594653,-14.212469164986164,0.5289652981300605,27.328948424722718,3.486274886509445,20.581027681904477,12.915254237290716,31.54777070063538
8.696502812423578,-54.53279080899951,-17.3398025195778,123.53073170731707,-122.44652792087368,112.11519114688133,-66.23158515026512,-48.509802686325465,-43.34839025464416,-5.956304955177226,-11.253324687480745,17.431372915635198,16.565217404596307,-7.533898305083133,20.222929936304173
11.771337735387629,-68.63714696026805,-18.161389172625125,124.76975609756099,-123.02225427570576,114.8621730382294,-66.8801807110587,-50.05959570990979,-43.27444509952031,-5.956451098442968,-11.253317449901449,17.431372858458133,16.56521740401997,-7.5338983050806485,20.222929936304194
11.771337735387629,-68.63714696026805,-18.161389172625125,124.76975609756099,-123.02225427570576,114.8621730382294,-66.8801807110587,-22.901114053720057,-17.728043988723023,2.689942940977607,-9.109850916649595,17.431372801281064,13.553359695996457,-13.991525423721143,31.5477707006354
11.771337735387629,-68.63714696026805,-18.161389172625125,124.76975609756099,-123.02225427570576,114.8621730382294,-66.8801807110587,-15.234727297587266,-21.37934296976107,-4.876217813476369,-10.181574050668182,-4.4823527460924755,2.509881434882178,11.83898305085543,18.605095541399738
10.994864269992666,-82.4983245572044,-20.345080013619338,125.32731707317075,-123.58053437736109,117.7369215291751,-67.17953250834802,-13.896142045071215,-21.379411988062092,-4.8764004393322775,-10.181567174971708,-4.482352729275872,2.5098814347804237,11.838983050851377,18.605095541399766
10.994864269992666,-82.4983245572044,-20.345080013619338,125.32731707317075,-123.58053437736109,117.7369215291751,-67.17953250834802,-19.296878557942048,-31.083349741489926,-35.13947369307453,19.826869840156476,-16.435293888930055,-12.5494071025572,-1.0762711864386298,18.605095541399795
10.994864269992666,-82.4983245572044,-20.345080013619338,125.32731707317075,-123.58053437736109,117.7369215291751,-67.17953250834802,15.909688873354632,12.616620070574925,-2.714108782804579,21.970325878904774,-3.486274223909885,0.5019762967872885,-9.686440677962286,21.84076433120873
9.535094155050137,-84.20057443752991,-22.096356826693903,125.29634146341465,-123.91201318771894,120.61167002012075,-67.72834413671183,13.037913676993533,12.50175307339925,-2.714364406368727,21.9703218982213,-3.486274210456611,0.5019762967533392,-9.686440677959066,21.840764331208753
9.535094155050137,-84.20057443752991,-22.096356826693903,125.29634146341465,-123.91201318771894,120.61167002012075,-67.72834413671183,-30.80037769584856,-24.002363415923554,-16.765247818591753,0.5357249608007386,0.49803952848692923,-12.549407102218366,-4.305084745753362,23.458598726113223
9.535094155050137,-84.20057443752991,-22.096356826693903,125.29634146341465,-123.91201318771894,120.61167002012075,-67.72834413671183,-20.489656213875577,-31.271881636018378,-20.007481568973578,35.90280659632137,-9.462744785238856,-1.5059288411719929,-9.686440677954437,20.222929936304325
13.013695280019567,-86.02441359502153,-23.58818522301668,125.23439024390245,-124.22604574490006,122.08098591549299,-67.52877627185222,-25.077520370132657,-31.238965649566808,-20.00715327113279,35.90279791120814,-9.46274475160548,-1.5059288411381437,-9.686440677951213,20.222929936304347
13.013695280019567,-86.02441359502153,-23.58818522301668,125.23439024390245,-124.22604574490006,122.08098591549299,-67.52877627185222,-43.60559719735069,-37.27102372306711,-7.0370147084838965,8.037818382337289,-21.415685894442895,-29.61660077727792,-7.533898305066993,23.458598726113284
13.013695280019567,-86.02441359502153,-23.58818522301668,125.23439024390245,-124.22604574490006,122.08098591549299,-67.52877627185222,-22.677500533337838,-23.8749785024483,-10.279576926872364,20.898574880130738,-1.4941171929979862,-0.5019762709722255,3.2288135593404674,26.694267515922206
17.113475177304966,-86.26759214935375,-24.409771876064006,125.42024390243904,-124.54007830208118,122.33651911468814,-66.78039677862893,-25.502699330557853,-23.866884302534537,-10.279577091494682,20.898571261330137,-1.4941171862713836,-0.5019762709722826,3.228813559339331,26.694267515922206
17.113475177304966,-86.26759214935375,-24.409771876064006,125.42024390243904,-124.54007830208118,122.33651911468814,-66.78039677862893,7.453314980262274,-6.877087560021453,-1.6330370758963042,-1.6077549620444955,4.482353408690618,-6.525691685866687,8.610169491540676,20.222929936304382
17.113475177304966,-86.26759214935375,-24.409771876064006,125.42024390243904,-124.54007830208118,122.33651911468814,-66.78039677862893,-9.405961305524423,-25.121109762422385,-15.683956991837553,-46.62039619052843,-26.396077977312423,0.5019762983800555,-7.533898305069723,21.84076433120886
19.846661775495235,-96.60268070847295,-25.036772216547494,125.38926829268294,-125.0285733910296,121.31438631790746,-64.58515026517381,-2.160918430629927,-25.108913374856243,-15.683774677724234,-46.62037701093427,-26.39607788650208,0.5019762983461009,-7.533898305067228,21.840764331208877
19.846661775495235,-96.60268070847295,-25.036772216547494,125.38926829268294,-125.0285733910296,121.31438631790746,-64.58515026517381,-18.856418949316954,-26.309734555127076,-17.845227411802142,10.181313504011694,-8.466666030985541,-9.537549393178436,3.2288135593402285,34.783439490444536
19.846661775495235,-96.60268070847295,-25.036772216547494,125.38926829268294,-125.0285733910296,121.31438631790746,-64.58515026517381,-3.4677211820099583,-10.52476341459442,-5.955979366500331,18.755150686693014,12.450981058108413,4.5177865752134085,1.076271186458096,26.69426751592223
16.05747126436782,-97.3322163714696,-24.561116785835885,124.80073170731708,-125.41239096091766,120.99496981891355,-62.58947161657824,-9.209578979165489,-10.561833133590259,-5.956125516084475,18.75514779164505,12.45098101774814,4.517786575043856,1.0762711864576826,26.69426751592223
16.05747126436782,-97.3322163714696,-24.561116785835885,124.80073170731708,-125.41239096091766,120.99496981891355,-62.58947161657824,-4.889026240831896,-17.876740362827327,-18.92608193364635,12.324767009576242,-9.462744512808595,12.549407128066765,-10.762711864388189,8.898089171973218
16.05747126436782,-97.3322163714696,-24.561116785835885,124.80073170731708,-125.41239096091766,120.99496981891355,-62.58947161657824,-39.87772647770696,-39.722795315160866,-14.602520050808238,3.7509291031097822,-4.482352322312349,-3.5138339787589117,18.29661016950879,41.25477707006239
10.342626559060898,-94.414073719483,-23.523323118828735,123.71658536585366,-125.65663850539187,122.08098591549299,-61.541740326065565,-37.49973512503454,-39.66146231259536,-14.602374242228217,3.750931274372731,-4.482352305495677,-3.513833978657277,18.296610169502554,41.25477707006233
10.342626559060898,-94.414073719483,-23.523323118828735,123.71658536585366,-125.65663850539187,122.08098591549299,-61.541740326065565,-24.099365075884997,-10.488706222397324,-12.440593391093442,30.54417464155752,11.45490261328206,3.513834005487764,2.152542372888862,28.312101910826648
10.342626559060898,-94.414073719483,-23.523323118828735,123.71658536585366,-125.65663850539187,122.08098591549299,-61.541740326065565,-25.462472061155268,-19.016779236618262,-14.60215562217828,12.32476375261084,6.474510419422317,-5.5217391169894166,-5.381355932195407,20.222929936304375
10.808510638297875,-89.30732407850645,-22.33418454204971,123.00414634146344,-125.93577855621953,123.23088531187125,-60.69357690041244,-19.513178824145896,-19.025268767983086,-14.602009819902008,12.32476302884005,6.474510399242152,-5.521739116819987,-5.381355932193661,20.22292993630441
10.808510638297875,-89.30732407850645,-22.33418454204971,123.00414634146344,-125.93577855621953,123.23088531187125,-60.69357690041244,-13.516925311740668,7.651821771690884,26.469201836119822,28.4007070226227,7.470588810434551,15.561264835479665,8.610169491534535,29.92993630573118
10.808510638297875,-89.30732407850645,-22.33418454204971,123.00414634146344,-125.93577855621953,123.23088531187125,-60.69357690041244,-5.552795315228421,-19.13235603108049,-24.3304627276114,16.611674744457297,-9.462744546442591,-12.549407101236405,5.381355932210063,13.75159235668663
12.206162876008808,-86.87553853518429,-22.26932243786176,122.35365853658539,-126.2149186070472,123.80583501006038,-59.59595364368488,-14.177024142311826,-19.140689909497397,-24.329988456366166,16.611672573170694,-9.462744512809168,-12.549407100829681,5.38135593220817,13.751592356686686
12.206162876008808,-86.87553853518429,-22.26932243786176,122.35365853658539,-126.2149186070472,123.80583501006038,-59.59595364368488,-12.458943282396657,-27.639886467441944,-4.874798787581077,35.90280406294845,8.466667285530452,-5.521739116379547,-10.762711864401163,23.458598726113472
12.206162876008808,-86.87553853518429,-22.26932243786176,122.35365853658539,-126.2149186070472,123.80583501006038,-59.59595364368488,-35.11345813051294,-16.702713155276058,-0.5517113484926615,25.1854988994668,6.474510395878461,2.509881436982353,-9.686440677957112,25.07643312101795
10.870628515529472,-88.33460986117758,-22.139598229485866,121.64121951219514,-126.51150491105159,124.7640845070423,-58.54822235317221,-23.09314183288172,-16.719274814398673,-0.5520399756521162,25.18549383314823,6.4745103756983,2.509881436880599,-9.686440677953915,25.076433121017963
10.870628515529472,-88.33460986117758,-22.139598229485866,121.64121951219514,-126.51150491105159,124.7640845070423,-58.54822235317221,-12.478527485107072,-22.80072267646304,-14.602996390241227,27.328948062504292,15.439216237871232,-1.505928839817387,7.533898305097224,36.40127388534916
10.870628515529472,-88.33460986117758,-22.139598229485866,121.64121951219514,-126.51150491105159,124.7640845070423,-58.54822235317221,-15.470966768715709,-37.35253964174669,-4.875492871362059,12.324727202712465,-15.439215185128628,-5.521739116379777,-4.305084745750849,13.751592356686766
11.55392516507704,-91.61752034466251,-22.788219271365335,120.8048780487805,-126.82553746823271,125.27515090543261,-57.10135533294044,-23.62868089761918,-37.29945279284233,-4.87567551087738,12.324726478947868,-15.439215131315107,-5.521739116210342,-4.3050847457494665,13.751592356686821
11.55392516507704,-91.61752034466251,-22.788219271365335,120.8048780487805,-126.82553746823271,125.27515090543261,-57.10135533294044,-32.47563855732525,-33.60752536585828,-25.411391075484325,20.898562937878495,4.482353549949746,-9.537549392637139,1.3901362170612822e-11,20.2229299363047
11.55392516507704,-91.61752034466251,-22.788219271365335,120.8048780487805,-126.82553746823271,125.27515090543261,-57.10135533294044,-44.237889403850346,-19.01116081039852,-22.168427740362148,-57.33770497301286,65.24313785022282,14.557312267245287,-7.533898305069642,7.280254777069089
9.100269014428958,-92.59023456199137,-23.934116445352398,119.47292682926832,-127.0,125.97786720321938,-55.75427224513845,-35.403868189753524,-19.019801274796222,-22.168026465874007,-57.33768217462388,65.24313763160501,14.557312266736746,-7.53389830506717,7.280254777069164
9.100269014428958,-92.59023456199137,-23.934116445352398,119.47292682926832,-127.0,125.97786720321938,-55.75427224513845,-12.29362818402143,-25.09334741838316,-39.46070555874137,-10.18155487141567,-3.486274351719886,-9.537549393349186,35.51694915255514,33.16560509554052
9.100269014428958,-92.59023456199137,-23.934116445352398,119.47292682926832,-127.0,125.97786720321938,-55.75427224513845,-14.52083671492558,-6.886795979952147,15.661973267882662,31.615908269916254,-16.43529394610996,-8.533596823895092,-9.686440677957766,26.694267515922675
6.367082416238692,-87.96984202967926,-25.447565543071157,117.80024390243904,-126.94766124046981,127.00000000000006,-55.205460616774644,-18.835802925146634,-6.93642972113987,15.661097194465029,31.615901032316764,-16.43529388893314,-8.533596823623954,-9.68644067795457,26.694267515922675
6.367082416238692,-87.96984202967926,-25.447565543071157,117.80024390243904,-126.94766124046981,127.00000000000006,-55.205460616774644,-8.021875301879643,-4.560029544442781,-13.521851972606608,-10.181562470920117,-37.35294089058019,-3.5138339776075274,-9.686440677951369,31.547770700636043
6.367082416238692,-87.96984202967926,-25.447565543071157,117.80024390243904,-126.94766124046981,127.00000000000006,-55.205460616774644,-17.936925070237653,-26.451365902186684,-11.360107612211653,38.04627855743445,6.474510217619903,0.5019762990903482,3.228813559337789,23.458598726113745
11.274394717534852,-75.44614648157011,-25.815117466802857,117.02585365853659,-126.8778762277629,126.5528169014085,-54.506973089766234,-11.553496625661026,-26.435231804580347,-11.360071288352229,38.04626914856061,6.47451019743972,0.5019762990563963,3.2288135593366314,23.458598726113756
11.274394717534852,-75.44614648157011,-25.815117466802857,117.02585365853659,-126.8778762277629,126.5528169014085,-54.506973089766234,-3.1868180767928944,-15.502304716601,-23.249027713019252,18.75512607862438,11.454902334122368,0.5019762990224435,-6.4576271186289915,12.133757961782576
11.274394717534852,-75.44614648157011,-25.815117466802857,117.02585365853659,-126.8778762277629,126.5528169014085,-54.506973089766234,-8.41598686576122,-31.291856529188287,-59.996385713948364,-19.827144138547336,-25.399999663659514,-0.5019762701605683,-3.2288135593053884,31.547770700636093
13.79016874541453,-71.92005744375298,-25.92322097378277,116.46829268292683,-126.77319870870252,125.466800804829,-53.75859359654288,-12.182454297253964,-31.259384504611326,-59.9947071334205,-19.82713400593679,-25.39999957621252,-0.5019762701606232,-3.228813559304364,31.547770700636075
13.79016874541453,-71.92005744375298,-25.92322097378277,116.46829268292683,-126.77319870870252,125.466800804829,-53.75859359654288,-21.17898585832983,-25.162072582241656,3.775205248158869,-11.253286690632848,-9.462744586804462,-4.51778654675691,-17.220338983029787,23.458598726113777
13.79016874541453,-71.92005744375298,-25.92322097378277,116.46829268292683,-126.77319870870252,125.466800804829,-53.75859359654288,-25.32273727317196,-15.446362375912583,42.68416139060539,-43.40516888816654,-3.48627396493565,-0.5019762700251377,12.915254237309853,28.312101910827156
14.535583272193694,-69.97462900909525,-26.139427987742593,116.09658536585368,-126.70341369599561,123.99748490945677,-52.760754272245094,-24.324620698555684,-15.467296966462918,42.68237291746016,-43.405150794216645,-3.48627395148233,-0.501976270025193,12.915254237305424,28.312101910827145
14.535583272193694,-69.97462900909525,-26.139427987742593,116.09658536585368,-126.70341369599561,123.99748490945677,-52.760754272245094,-25.52313537496785,-40.960806737333996,-5.956204039533403,20.89864616994346,-6.474509232146708,-2.509881408323364,-5.381355932187438,21.840764331209318
14.535583272193694,-69.97462900909525,-26.139427987742593,116.09658536585368,-126.70341369599561,123.99748490945677,-52.760754272245094,11.245886977124794,5.197596412014956,9.175095128513963,48.76361339488997,1.4941182423771924,-1.5059288391065637,-8.610169491507175,25.076433121018244
14.566642210809492,-71.92005744375298,-26.096186584950626,115.72487804878051,-126.65107493646542,122.84758551307851,-51.962482812806854,3.899825677656647,5.106963954429805,9.174438056494033,48.76360036721693,1.4941182390137686,-1.5059288390727201,-8.610169491504335,25.076433121018248
14.566642210809492,-71.92005744375298,-26.096186584950626,115.72487804878051,-126.65107493646542,122.84758551307851,-51.962482812806854,-0.6293155366195116,0.1645548841519009,10.25459851805855,19.826886847950107,4.482353529768043,-1.5059288390388765,-2.1525423728585165,29.92993630573162
14.566642210809492,-71.92005744375298,-26.096186584950626,115.72487804878051,-126.65107493646542,122.84758551307851,-51.962482812806854,-19.920964336987353,-30.233920569211826,-20.008985657570612,24.11380218236937,-35.360783738588076,-22.58893279113525,5.381355932225616,23.458598726113784
14.4113475177305,-65.47582575394925,-26.117807286346608,115.50804878048783,-126.49405865787486,121.63380281690144,-51.61323904930265,-11.33897499523395,-30.205353299219723,-20.008657336549447,24.11379747792454,-35.36078361750756,-22.588932790389524,5.381355932223731,23.458598726113795
14.4113475177305,-65.47582575394925,-26.117807286346608,115.50804878048783,-126.49405865787486,121.63380281690144,-51.61323904930265,-23.299947502334764,-49.58453145237062,-41.624679471773035,11.253036999437853,2.490196895730496,-4.517786544960759,4.305084745781348,18.605095541400438
14.4113475177305,-65.47582575394925,-26.117807286346608,115.50804878048783,-126.49405865787486,121.63380281690144,-51.61323904930265,-15.263694134442709,-21.59197204469698,14.57888990555383,16.61168487673033,22.41176551645509,4.517786577516308,15.067796610184786,25.07643312101829
17.361946686231356,-62.314504547630435,-26.50697991147429,115.75585365853661,-126.37193488563776,120.03672032193163,-51.31388725201333,-25.304731769063537,-21.592342689848923,14.578050364296736,16.61168270544206,22.411765442461373,4.5177865773467625,15.067796610179625,25.0764331210183
17.361946686231356,-62.314504547630435,-26.50697991147429,115.75585365853661,-126.37193488563776,120.03672032193163,-51.31388725201333,-36.93186763115446,-44.63935810295921,-28.65549006415064,-35.90307220985334,0.4980398782711894,0.501976300580983,-6.457627118635456,13.751592356687121
17.361946686231356,-62.314504547630435,-26.50697991147429,115.75585365853661,-126.37193488563776,120.03672032193163,-51.31388725201333,-27.247317869389125,-11.811437177423405,-5.957701812440255,92.70450109137005,56.27843203513484,1.505928869696088,-37.66949152540773,12.133757961782713
22.269258987527515,-63.40880804212541,-26.074565883554644,116.56121951219512,-126.42427364516794,117.54527162977871,-50.316047927715545,-24.263297037947943,-11.84472808840508,-5.9578479349758195,92.70447322665154,56.278431846787235,1.5059288696282347,-37.66949152539507,12.133757961782766
22.269258987527515,-63.40880804212541,-26.074565883554644,116.56121951219512,-126.42427364516794,117.54527162977871,-50.316047927715545,-23.154194561426912,-14.303932700525289,-0.5539064424177607,17.683370013355535,-26.39607814548338,3.513834007858497,9.68644067799943,28.312101910827376
22.269258987527515,-63.40880804212541,-26.074565883554644,116.56121951219512,-126.42427364516794,117.54527162977871,-50.316047927715545,-7.683362585153022,-21.606820038595497,-30.817125664961463,-1.6077661808685075,-16.435293740947348,2.509881438573786,-7.533898305051835,34.78343949044519
20.902665688432382,-61.58496888463378,-25.771876064010893,117.21170731707318,-126.40682739199121,115.11770623742461,-49.46788450206242,-7.553197379680757,-21.607210500595656,-30.816432397017365,-1.6077622002012362,-16.43529368377047,2.509881438472032,-7.533898305049346,34.78343949044516
20.902665688432382,-61.58496888463378,-25.771876064010893,117.21170731707318,-126.40682739199121,115.11770623742461,-49.46788450206242,-7.3828723511334005,-20.39462487985329,10.255326715439011,17.683375441529346,24.403922059681626,-0.501976269076896,-9.68644067792785,21.840764331209492
20.902665688432382,-61.58496888463378,-25.771876064010893,117.21170731707318,-126.40682739199121,115.11770623742461,-49.46788450206242,-30.8223768290691,-32.52893050595651,-3.7959946349672355,-4.822949696206276,-17.43137213868659,-5.5217391148222426,8.610169491563804,21.840764331209513
15.498410369283446,-55.8702728578267,-26.571842015662238,117.24268292682927,-126.07534858163336,113.58450704225356,-49.71734433313685,-29.722150695273452,-32.4924673966503,-3.7962137485353784,-4.822944629902098,-17.43137207814635,-5.521739114652806,8.61016949156084,21.840764331209527
15.498410369283446,-55.8702728578267,-26.571842015662238,117.24268292682927,-126.07534858163336,113.58450704225356,-49.71734433313685,-23.158580485118414,-4.557511062910731,7.011742366888214,-3.7512099157618923,-7.4705877038804465,0.5019763004109787,2.152542372914897,26.694267515922913
15.498410369283446,-55.8702728578267,-26.571842015662238,117.24268292682927,-126.07534858163336,113.58450704225356,-49.71734433313685,-22.53292366364454,-27.66202671289079,16.73851601556561,17.68338774539906,-10.458822971091392,-6.525691683666384,3.3118238848124194e-11,16.98726114649618
12.578870139398388,-55.26232647199616,-26.355635001702414,117.05682926829269,-125.6740847585686,113.00955734406443,-50.61539972500486,-23.281207308968774,-27.64199318344138,16.737603518184407,17.683385212236004,-10.458822934094583,-6.525691683463049,3.305849379550408e-11,16.987261146496216
12.578870139398388,-55.26232647199616,-26.355635001702414,117.05682926829269,-125.6740847585686,113.00955734406443,-50.61539972500486,-22.25459490495709,-36.11286748870755,-1.6372068468828225,-18.755425347380807,-5.478430740234933,-2.50988140666348,-6.457627118609978,23.458598726114072
12.578870139398388,-55.26232647199616,-26.355635001702414,117.05682926829269,-125.6740847585686,113.00955734406443,-50.61539972500486,-29.711318893041884,-34.85126628104678,-82.6988130921031,-0.5360115634206348,-6.474509151427427,1.5059288700004947,3.5120893011153906e-11,31.54777070063636
18.573245292247496,-54.53279080899951,-25.058392917943475,117.83121951219513,-125.56940723950822,111.41247484909462,-50.61539972500486,-24.83014552621313,-34.806834905230204,-82.69636803337272,-0.5360079446368413,-6.474509127884001,1.5059288699326405,3.506258183979564e-11,31.547770700636338
18.573245292247496,-54.53279080899951,-25.058392917943475,117.83121951219513,-125.56940723950822,111.41247484909462,-50.61539972500486,-7.623711257567926,-0.7990242262248266,-10.27914900624546,12.324751448188998,-11.454901261203402,-8.533596821625794,1.0762711864755004,26.69426751592295
18.573245292247496,-54.53279080899951,-25.058392917943475,117.83121951219513,-125.56940723950822,111.41247484909462,-50.61539972500486,-21.0382629077962,-37.25887864736164,-21.08732440626278,-26.257516597707664,-13.44705808358835,-11.545454528801834,43.050847457654434,13.7515923566873
18.231596967473713,-56.235040689325025,-24.798944501191688,118.2648780487805,-125.41239096091766,109.5598591549296,-50.41583186014532,-22.640662937263144,-37.206324523725634,-21.086959633120546,-26.257504293822414,-13.44705803650147,-11.545454528429005,43.050847457639854,13.751592356687341
18.231596967473713,-56.235040689325025,-24.798944501191688,118.2648780487805,-125.41239096091766,109.5598591549296,-50.41583186014532,-22.58339733560314,-26.23704478591416,-16.7633247760562,28.40072004974204,5.478432206664173,4.517786578328753,7.533898305088887,25.07643312101857
18.231596967473713,-56.235040689325025,-24.798944501191688,118.2648780487805,-125.41239096091766,109.5598591549296,-50.41583186014532,-19.187999840044434,6.528926260141251,25.388777384305598,25.18552495426956,-10.45882271211364,0.5019763015629679,-12.915254237283138,23.45859872611412
11.460748349229643,-46.9942556247008,-25.966462376574732,118.04804878048782,-124.88900336561576,108.72937625754531,-51.513455116872876,-17.781853478427912,6.4337854737026525,25.387572865416402,25.185519887946604,-10.458822675116805,0.5019763015290097,-12.91525423727883,23.458598726114126
11.460748349229643,-46.9942556247008,-25.966462376574732,118.04804878048782,-124.88900336561576,108.72937625754531,-51.513455116872876,4.9962153190878915,2.6998529522868218,-1.6340696965102168,21.970325878113837,14.443138146194192,-2.509881405952123,1.0762711864519292,36.40127388534978
11.460748349229643,-46.9942556247008,-25.966462376574732,118.04804878048782,-124.88900336561576,108.72937625754531,-51.513455116872876,-19.33983264730564,-16.790389614152392,1.6080907624736245,30.544159080125514,10.458824373617029,2.5098814398609046,-6.457627118631959,23.4585987261141
13.821227684030328,-46.9942556247008,-26.096186584950626,118.3268292682927,-124.487739542551,107.57947686116705,-52.41151050874089,-15.297659413315012,-16.807267495914232,1.6076891743876427,30.54415220440856,10.458824339983526,2.509881439759148,-6.457627118629826,23.45859872611411
13.821227684030328,-46.9942556247008,-26.096186584950626,118.3268292682927,-124.487739542551,107.57947686116705,-52.41151050874089,-26.43207879861126,-28.953927971081697,-44.86786587588021,-31.61617424584673,-4.48235216423847,-4.517786544386014,-10.76271186438968,5.6624203821651165
13.821227684030328,-46.9942556247008,-26.096186584950626,118.3268292682927,-124.487739542551,107.57947686116705,-52.41151050874089,9.704485700718813,25.654350085857203,8.093360429504688,50.9070227508768,-21.41568548075536,21.58498025362503,-12.915254237267087,42.87261146496766
20.31254585473221,-49.061273336524636,-25.317841334695263,119.38000000000002,-124.34816951713717,105.47132796780687,-52.51129444117066,-1.350349785298171,25.494136951721735,8.092739866421685,50.9070089994536,-21.41568540676168,21.584980252879195,-12.915254237262774,42.8726114649676
20.31254585473221,-49.061273336524636,-25.317841334695263,119.38000000000002,-124.34816951713717,105.47132796780687,-52.51129444117066,-44.81072508854349,-46.231673607850496,-62.16101965087524,13.396457573741651,11.45490290252669,0.5019763000031328,27.983050847480392,31.547770700636345
20.31254585473221,-49.061273336524636,-25.317841334695263,119.38000000000002,-124.34816951713717,105.47132796780687,-52.51129444117066,-95.41061460394525,-40.08477038142449,-116.20014415854826,-60.552889212647614,-38.349018703098466,-49.69565215748373,21.525423728827917,12.133757961782855
18.914893617021278,-45.656773575873615,-26.074565883554644,120.12341463414634,-124.0690294663095,102.78822937625756,-52.361618542526,-73.56408311997936,-40.02338032686361,-116.19656782981352,-60.55286532862161,-38.349018571927814,-49.695652155822756,21.5254237288206,12.1337579617829
18.914893617021278,-45.656773575873615,-26.074565883554644,120.12341463414634,-124.0690294663095,102.78822937625756,-52.361618542526,-8.36807707811104,-26.619297264923553,17.828381232578543,50.90704193043674,23.407844304341957,26.604743101166616,-18.296610169485085,16.98726114649631
18.914893617021278,-45.656773575873615,-26.074565883554644,120.12341463414634,-124.0690294663095,102.78822937625756,-52.361618542526,32.85217759793482,-10.834404918406753,8.100074383952666,48.763568883336575,48.30980501129912,-18.57312251145634,-8.610169491514501,31.547770700636434
21.33749082905356,-43.10339875538534,-29.771705822267617,120.7739024390244,-123.61542688371455,98.57193158953726,-51.91259084659197,0.7955332110229207,-10.871532741868936,8.099453707162652,48.763555855671044,48.30980484985839,-18.573122510846225,-8.610169491511655,31.547770700636406
21.33749082905356,-43.10339875538534,-29.771705822267617,120.7739024390244,-123.61542688371455,98.57193158953726,-51.91259084659197,-82.13822574427599,-116.43793698387898,-109.7102769153307,10.18127550587974,53.290196845280484,35.64031622381303,-15.067796610151785,-5.662420382166108
21.33749082905356,-43.10339875538534,-29.771705822267617,120.7739024390244,-123.61542688371455,98.57193158953726,-51.91259084659197,-18.714871044952037,-99.1368704931954,-127.0,-50.9073144208302,42.333333921924755,-2.509881405071592,-47.35593220336165,5.66242038216517
22.331376864759115,-38.36141694590712,-34.095846101464076,121.17658536585367,-122.96991551617558,92.24748490945677,-50.465723826360204,10.201333383904537,-98.87543198498616,-126.99605886431537,-50.907293793718964,42.33333378066409,-2.5098814050038514,-47.35593220334573,5.662420382165216
22.331376864759115,-38.36141694590712,-34.095846101464076,121.17658536585367,-122.96991551617558,92.24748490945677,-50.465723826360204,110.80660717234419,126.99999999999999,126.99999999999999,61.62433985626201,21.4156865805795,0.5019763025110633,19.372881355980933,65.52229299363012
22.331376864759115,-38.36141694590712,-34.095846101464076,121.17658536585367,-122.96991551617558,92.24748490945677,-50.465723826360204,-52.86498577518955,-48.17056267373461,45.93405053732089,-2.6794563841706243,-20.419607607698666,-65.75889326136071,26.906779661057776,8.89808917197401
20.96478356566398,-22.55481091431305,-38.463227783452496,120.83585365853659,-121.48698399615358,85.02867203219319,-50.56550775878998,-56.57767956006217,-48.08124298316915,45.932152451850705,-2.6794520416306753,-20.419607537068387,-65.75889325915735,26.9067796610486,8.898089171974053
20.96478356566398,-22.55481091431305,-38.463227783452496,120.83585365853659,-121.48698399615358,85.02867203219319,-50.56550775878998,-17.840876769371548,-60.12189987922108,-2.706534115653816,-21.970581360155442,-114.05098001545932,-22.588932783544486,-39.82203389827134,21.84076433120974
20.96478356566398,-22.55481091431305,-38.463227783452496,120.83585365853659,-121.48698399615358,85.02867203219319,-50.56550775878998,-56.10399328249076,-118.21504860208617,-96.73791433214868,-70.19840465645,-52.29411688357505,-4.517786538115712,-74.26271186435386,20.222929936305285
18.573245292247496,-6.018669219722341,-48.21416411304051,117.52146341463416,-118.41644343704925,73.21026156941656,-50.21626399528577,-41.26633524886218,-117.8887666538345,-96.73499503751682,-70.19837751551917,-52.29411670531753,-4.517786537980159,-74.26271186432884,20.222929936305288
18.573245292247496,-6.018669219722341,-48.21416411304051,117.52146341463416,-118.41644343704925,73.21026156941656,-50.21626399528577,-34.88560873067166,-35.08037757487486,44.855019659563936,-19.827056926259143,-9.462743978039656,-18.573122505931416,-18.29661016939797,5.662420382165195
18.573245292247496,-6.018669219722341,-48.21416411304051,117.52146341463416,-118.41644343704925,73.21026156941656,-50.21626399528577,-28.259491866869542,-111.45161564384375,-88.08739723333088,48.763650667897565,48.30980507520269,32.628458521280685,13.991525423823113,16.987261146496444
9.721447786744928,-15.38104356151267,-53.81392577459993,111.32634146341465,-114.3863589532248,61.2640845070423,-50.016696130426226,-33.71072759913885,-111.14716591037241,-88.0847699644624,48.76363764021829,48.30980491376193,32.62845852016199,13.991525423818402,16.987261146496465
9.721447786744928,-15.38104356151267,-53.81392577459993,111.32634146341465,-114.3863589532248,61.2640845070423,-50.016696130426226,42.35846531456255,-41.70339630874512,-95.64786539780393,83.05897334332164,33.368628281732676,14.557312274360273,9.686440678051706,38.019108280254414
9.721447786744928,-15.38104356151267,-53.81392577459993,111.32634146341465,-114.3863589532248,61.2640845070423,-50.016696130426226,-59.601507046187415,-5.244175010581527,5.951864363721796,-15.540178865483643,-17.431371829258747,19.577075119597072,6.45762711872696,13.751592356687528
5.714844705306924,-11.490186692197206,-52.08426966292134,104.97634146341466,-110.02479565904252,52.06488933601611,-51.71302298173242,-37.461479008673265,-5.297465413980175,5.951316448294559,-15.540170180397997,-17.431371768718467,19.57707511891908,6.457627118724795,13.75159235668756
5.714844705306924,-11.490186692197206,-52.08426966292134,104.97634146341466,-110.02479565904252,52.06488933601611,-51.71302298173242,48.606623620260876,6.779054445050917,-29.71620970161497,40.18978019220435,-6.47450896307995,-13.55335966367783,23.677966101770565,31.547770700636597
5.714844705306924,-11.490186692197206,-52.08426966292134,104.97634146341466,-110.02479565904252,52.06488933601611,-51.71302298173242,-1.1486461575168754,16.388659147724766,-26.47310070323237,-27.329197754159054,-1.4941167826736679,8.533596858042111,10.762711864476632,39.636942675158835
0.8385913426265628,-4.438008616562932,-59.327204630575416,99.24585365853659,-105.82024864345078,41.52414486921532,-52.01237477902174,-1.89062980042549,16.261729019911755,-26.472553768036985,-27.32918508840261,-1.4941167759469627,8.533596857737,10.762711864473015,39.63694267515877
0.8385913426265628,-4.438008616562932,-59.327204630575416,99.24585365853659,-105.82024864345078,41.52414486921532,-52.01237477902174,-45.918376677096965,-6.911699191991836,18.92232910417035,-21.97052418346388,4.482353819015142,-18.573122509592675,-27.983050847388462,13.75159235668743
0.8385913426265628,-4.438008616562932,-59.327204630575416,99.24585365853659,-105.82024864345078,41.52414486921532,-52.01237477902174,13.223179717087195,12.44717094283262,22.163795807130562,45.54845448661585,8.466667531052016,24.59683796442698,26.90677966108631,21.84076433120974
-15.436292492051841,-23.041168022977487,-73.22931562819203,89.36463414634147,-100.20255512054399,30.919517102615714,-51.61323904930265,-1.8981356304215566,12.332831010636049,22.162700474633724,45.54844254457563,8.46666750414522,24.5968379635795,26.90677966107724,21.840764331209748
-15.436292492051841,-23.041168022977487,-73.22931562819203,89.36463414634147,-100.20255512054399,30.919517102615714,-51.61323904930265,-13.449560092705948,-1.1241658369224758,-10.262920515498287,33.75940447633165,-32.372548209036786,-7.529644250037831,12.915254237341712,36.40127388534985
-15.436292492051841,-23.041168022977487,-73.22931562819203,89.36463414634147,-100.20255512054399,30.919517102615714,-51.61323904930265,19.288007107869028,10.93662948332371,21.080787185811705,26.257288980109244,21.41568719607233,8.533596856584387,5.1405960467657055e-11,36.4012738853498
-26.120567375886523,-41.644327429392035,-83.60725229826353,76.75756097560978,-93.57297891338692,20.442655935613743,-49.916912197996396,20.454502770976482,10.826724285205394,21.07972838470146,26.257283551901292,21.415687125442,8.533596856279296,5.141743151772768e-11,36.40127388534976
-26.120567375886523,-41.644327429392035,-83.60725229826353,76.75756097560978,-93.57297891338692,20.442655935613743,-49.916912197996396,-7.340117358915506,-37.80227887665983,-57.82100954357437,-17.683637437618152,-26.396077651071536,1.5059288719307968,3.2288135593729175,-4.044585987261666
-26.120567375886523,-41.644327429392035,-83.60725229826353,76.75756097560978,-93.57297891338692,20.442655935613743,-49.916912197996396,1.800962008899365,-37.74807045028639,-57.81940418968989,-17.683628028774105,-26.396077560261123,1.5059288718629964,3.228813559371838,-4.044585987261563
-26.120567375886523,-41.644327429392035,-83.60725229826353,76.75756097560978,-93.57297891338692,20.442655935613743,-49.916912197996396,19.259814542142202,20.529088487362813,16.75861019174502,21.970378350033194,23.4078440991776,12.549407132434833,3.2288135593707588,60.668789808916756
-45.81193445830276,-53.07371948300621,-95.13108614232209,61.51756097560977,-85.77450374338898,11.818410462776683,-47.82144961697111,3.920381101847603,20.386430535501532,16.757697350816695,21.97037436934096,23.407844021820537,12.549407131994142,3.2288135593696796,60.66878980891663
-45.81193445830276,-53.07371948300621,-95.13108614232209,61.51756097560977,-85.77450374338898,11.818410462776683,-47.82144961697111,-103.76576995895192,-65.87767212309649,-56.738807007082414,-62.69627179046476,16.435294924855505,-8.533596820576765,4.305084745809096,12.133757961782841
-45.81193445830276,-53.07371948300621,-95.13108614232209,61.51756097560977,-85.77450374338898,11.818410462776683,-47.82144961697111,14.33756383089905,-5.080073542435063,34.05143372088694,33.75942112262679,32.37254977300293,-17.5691699426471,5.381355932248149,25.076433121018532
-64.10564930300806,-62.192915270464326,-107.56298944501191,43.11804878048781,-76.109279483481,4.9190140845071255,-45.07739147515218,-3.6875172361731554,-5.136599673983968,34.04993696730175,33.75941316125973,32.37254966537571,-17.569169942070832,5.381355932246341,25.076433121018532
-64.10564930300806,-62.192915270464326,-107.56298944501191,43.11804878048781,-76.109279483481,4.9190140845071255,-45.07739147515218,-63.57440112069762,-13.683932263396198,-19.992435887794166,57.33745745230555,-2.4901955402913476,4.517786579784713,5.381355932244532,8.898089171973975
-64.10564930300806,-62.192915270464326,-107.56298944501191,43.11804878048781,-76.109279483481,4.9190140845071255,-45.07739147515218,-36.643937366052796,-23.41551310099802,19.9981404820175,36.97457822069633,-17.43137200078985,2.509881441317087,-1.0762711864002534,5.662420382165131
-85.53631694790901,-54.4112015318334,-112.21144024514811,23.014878048780503,-64.64709114636995,2.299798792756633,-43.78020035356508,-28.1725044148249,-23.410465399964274,19.997118205306833,36.97456917369685,-17.431371940249612,2.509881441215374,-1.0762711863998813,5.662420382165209
-85.53631694790901,-54.4112015318334,-112.21144024514811,23.014878048780503,-64.64709114636995,2.299798792756633,-43.78020035356508,-31.08890488487524,-25.831420374604456,-0.539436982388322,25.185534000493142,-3.4862738404934444,-5.521739112078802,-10.762711864363975,18.605095541400935
-85.53631694790901,-54.4112015318334,-112.21144024514811,23.014878048780503,-64.64709114636995,2.299798792756633,-43.78020035356508,-16.325662891895213,-25.818262897283482,-0.5397658238426093,69.12644449548114,-2.4901953956675245,-3.513833973611209,1.0762711864851227,34.783439490445524
-101.93543653705062,-48.93968405935853,-111.99523323118828,2.6329268292682855,-51.911326327357656,4.727364185110673,-43.680416421135305,-24.68391046743177,-25.80516072599206,-0.540094659854077,69.12642459210738,-2.490195385577519,-3.513833973509528,1.0762711864847647,34.7834394904455
-101.93543653705062,-48.93968405935853,-111.99523323118828,2.6329268292682855,-51.911326327357656,4.727364185110673,-43.680416421135305,-23.44213579353932,-18.51422842878024,-11.348598715752422,-9.109859603355812,19.423530114708946,1.505928872337444,2.1525423729249025,36.40127388534994
-101.93543653705062,-48.93968405935853,-111.99523323118828,2.6329268292682855,-51.911326327357656,4.727364185110673,-43.680416421135305,-37.64513944359908,-8.821964230873075,26.48005069566043,23.0420363455707,0.4980398547265014,-6.525691680922833,-5.381355932159293,12.13375796178308
-111.84323795549034,-19.879846816658677,-114.28702757916241,-17.06756097560975,-37.64029122879319,9.263078470825008,-43.78020035356508,-29.623875416138784,-8.866326382104981,26.478809500136258,23.0420320030113,0.49803985472645035,-6.525691680719453,-5.381355932157471,12.133757961783147
-111.84323795549034,-19.879846816658677,-114.28702757916241,-17.06756097560975,-37.64029122879319,9.263078470825008,-43.78020035356508,-15.578226391316587,-18.614491312101055,-25.401672756120362,23.042027660452632,10.45882416845206,-9.537549387963246,-3.228813559274659,34.78343949044558
-111.84323795549034,-19.879846816658677,-114.28702757916241,-17.06756097560975,-37.64029122879319,9.263078470825008,-43.78020035356508,-0.26245563821671425,-1.644262174308249,-10.269716844661657,-16.61197365207015,15.439216291681344,10.541501995322996,3.228813559369411,23.458598726114374
-127.0,33.376256582096715,-117.55175348995573,-35.65292682926827,-21.118689470430667,15.779175050301887,-44.82793164407775,-6.747364326550052,-1.7131138960295083,-10.269717184409439,-16.611964605094272,15.439216241231042,10.541501994950101,3.2288135593683234,23.458598726114396
-127.0,33.376256582096715,-117.55175348995573,-35.65292682926827,-21.118689470430667,15.779175050301887,-44.82793164407775,-7.7313154225841085,-18.76360577394118,-9.188900001715075,-2.6794701362403917,-2.490195573925452,-0.5019762660624218,-6.45762711859723,33.16560509554115
-127.0,33.376256582096715,-117.55175348995573,-35.65292682926827,-21.118689470430667,15.779175050301887,-44.82793164407775,-8.963692954003607,-24.83983285229295,-22.158747106829786,54.12220554165693,-2.490195563835467,15.561264840322501,4.305084745809915,33.16560509554114
-122.27904133039863,71.31211105792246,-121.07592781750084,-52.13195121951219,-3.7073288000549525,21.337022132796847,-42.98192889412684,-5.5237601864302945,-24.830677470728837,-22.158346003572053,54.12219070459701,-2.490195553745481,15.561264839780115,4.305084745808462,33.16560509554113
-122.27904133039863,71.31211105792246,-121.07592781750084,-52.13195121951219,-3.7073288000549525,21.337022132796847,-42.98192889412684,-27.08100460714006,-4.200881450076324,3.7816756336093995,-2.6794954678154976,-8.466666131890891,-14.557312235234019,-23.67796610164589,2.426751592356471
-122.27904133039863,71.31211105792246,-121.07592781750084,-52.13195121951219,-3.7073288000549525,21.337022132796847,-42.98192889412684,-14.998478114085882,-10.32632926667087,-17.835149602438907,-49.83559563009206,-6.474509238875673,0.5019763024764177,-3.228813559268469,18.605095541401123
-107.24651504035216,92.34705600765918,-122.32992849846782,-66.22585365853655,13.459784325846556,25.04225352112678,-36.94500098212529,-20.610307068175374,-10.366307909087864,-17.8348944841568,-49.83557536485826,-6.474509215332284,0.5019763024425006,-3.2288135592673783,18.605095541401166
-107.24651504035216,92.34705600765918,-122.32992849846782,-66.22585365853655,13.459784325846556,25.04225352112678,-36.94500098212529,-20.4393876226844,-14.04517652036458,0.5392585127812346,-0.5359912991310534,29.38431433762349,14.557312270495393,-13.991525423671249,38.01910828025467
-107.24651504035216,92.34705600765918,-122.32992849846782,-66.22585365853655,13.459784325846556,25.04225352112678,-36.94500098212529,-20.83084956942968,-26.202570084575907,-15.67336962713599,19.826875628550212,14.4431377694978,13.553359700837829,77.49152542377564,36.40127388535018
-107.30863291758375,109.73432264241265,-119.82192713653387,-78.12048780487805,30.906037502575725,30.216800804829063,-29.910233745825906,-21.010614721957886,-26.18916205693173,-15.673187501175114,19.826872371623814,14.443137722410842,13.553359700363218,77.49152542374948,36.40127388535016
-107.30863291758375,109.73432264241265,-119.82192713653387,-78.12048780487805,30.906037502575725,30.216800804829063,-29.910233745825906,-37.88371979229325,-23.74982743676667,-32.96608573891934,3.750924397144643,12.450980812578747,11.545454561590496,-18.296610169480864,-21.84076433121026
-107.30863291758375,109.73432264241265,-119.82192713653387,-78.12048780487805,30.906037502575725,30.216800804829063,-29.910233745825906,-18.43932537343175,-20.105738989796514,-5.944881639382008,14.468223046777315,-8.466666286605411,22.588932821823317,-12.915254237272203,41.254777070063696
-106.00415749572022,119.21828626136909,-121.72454885938032,-87.47512195121948,47.671886805412456,35.07193158953726,-21.029463759575663,-15.8412710019579,-20.112902350720773,-5.945027985898662,14.468221599248011,-8.46666625633534,22.588932821043624,-12.91525423726784,41.254777070063675
-106.00415749572022,119.21828626136909,-121.72454885938032,-87.47512195121948,47.671886805412456,35.07193158953726,-21.029463759575663,-10.094281780723529,-27.39795200591705,-11.3492619427137,43.404920643314924,10.458823970013487,8.533596852177123,17.220338983070413,68.7579617834394
-106.00415749572022,119.21828626136909,-121.72454885938032,-87.47512195121948,47.671886805412456,35.07193158953726,-21.029463759575663,-39.69639296234043,-17.67669399985217,-24.319036080955385,14.468208933449787,5.478431779517094,-19.577075084301615,-34.44067796607922,-13.751592356687937
-92.74199070677426,126.51364289133559,-118.87061627511065,-95.12609756097561,63.722439728003295,39.79929577464793,-9.55431153015121,-41.20465724750781,-17.692091736801725,-24.318562012063467,14.468207485922875,5.478431762700278,-19.577075083657558,-34.4406779660676,-13.751592356687752
-92.74199070677426,126.51364289133559,-118.87061627511065,-95.12609756097561,63.722439728003295,39.79929577464793,-9.55431153015121,-26.197335868795417,-33.47622796075346,-32.96462813154706,-18.755413044547314,-13.4470584501953,44.675889342526204,35.516949152576274,120.52866242038222
-92.74199070677426,126.51364289133559,-118.87061627511065,-95.12609756097561,63.722439728003295,39.79929577464793,-9.55431153015121,-23.138031159867133,-33.43835295563456,-32.963862120578746,-18.75540327381629,-13.44705840310848,44.67588934100074,35.51694915256429,120.52866242038193
-92.74199070677426,126.51364289133559,-118.87061627511065,-95.12609756097561,63.722439728003295,39.79929577464793,-9.55431153015121,-6.627827799831058,-23.69670792286023,-18.912468329726067,-95.91992814734283,-83.17254855210129,-56.72332014457958,-15.067796610151024,55.815286624203424
-69.665199315236,124.81139301101007,-119.82192713653387,-101.94073170731707,78.41218490280926,42.67404426559358,7.009821253191944,-6.299885098748803,-23.691755356628686,-18.912176777090906,-95.91989232130744,-83.17254826958002,-56.72332014268129,-15.06779661014593,55.81528662420335
-69.665199315236,124.81139301101007,-119.82192713653387,-101.94073170731707,78.41218490280926,42.67404426559358,7.009821253191944,-4.595357122195539,-45.520483873520504,-26.477607887227848,-13.396673611837713,-29.3843126929401,-69.77470353972076,-17.22033898302183,36.40127388534982
-69.665199315236,124.81139301101007,-119.82192713653387,-101.94073170731707,78.41218490280926,42.67404426559358,7.009821253191944,-35.23524019561081,-30.88608490399438,-23.23460831356293,24.113872023772664,14.443138388353308,41.664031638163614,-15.067796610135014,-102.73248407643337
-47.706529713866466,100.25035902345621,-127.0,-109.28195121951217,91.91558486159764,45.16549295774655,30.30936947554511,-28.9890377178093,-30.856758913447205,-23.234170801217623,24.113867319316086,14.443138341266435,41.66403163673979,-15.067796610129921,-102.73248407643293
-47.706529713866466,100.25035902345621,-127.0,-109.28195121951217,91.91558486159764,45.16549295774655,30.30936947554511,-26.879951032127792,-40.53135125904494,-32.961090999181664,-101.2785061820556,16.43529515692469,66.76284586404242,-22.601694915208306,50.96178343949077
