Gyro 0,Gyro 1,Gyro 2,Orientation 0,Orientation 1,Orientation 2,Orientation 3,Sensor 0,Sensor 1,Sensor 2,Sensor 3,Sensor 4,Sensor 5,Sensor 6,Sensor 7
8.299268198741798,-104.86029850746269,-9.338560724864973,126.99999999999997,-123.64717036172695,-7.50899742930585,30.916252661461954,-17.794727643686393,-17.724462145545175,14.570277426992257,-10.496009521415733,-19.423528374545384,-2.5708502141806373,4.627530364319426,-5.906976744189166
8.886249839517252,-111.98746268656717,-9.559853633037129,125.61987136837433,-124.3696032672112,-5.876606683804539,31.817601135557084,-15.713299193102348,-17.70715707549087,14.56999623849239,-10.496008103806519,-19.423528307278392,-2.5708502142153593,4.627530364319426,-5.906976744189166
8.886249839517252,-111.98746268656717,-9.559853633037129,125.61987136837433,-124.3696032672112,-5.876606683804539,31.817601135557084,-2.5373593537176964,1.5293876047385329,-3.126403837511319,9.44612927458018,-3.4862734978027117,-4.627530376120216,27.251012145684037,-3.185007813044649e-12
8.886249839517252,-111.98746268656717,-9.559853633037129,125.61987136837433,-124.3696032672112,-5.876606683804539,31.817601135557084,-5.202310772013307,16.857152936274268,17.69287591170196,-14.69435641502788,10.458824415083296,0.5141700285898425,3.599190283340672,-5.906976744189187
8.886249839517252,-111.98746268656717,-9.559853633037129,125.61987136837433,-124.3696032672112,-5.876606683804539,31.817601135557084,-13.593778559027818,-12.711878290416342,-1.0445777807114185,-11.545595270212555,3.486275431733527,-9.769230780899719,-9.769230769283517,-10.337209302328672
10.060213121068156,-114.41373134328359,-9.8032758320265,124.32424040807273,-125.25875145857643,-4.788346186803665,34.070972320794795,-10.575642499524683,-12.71168188504503,-1.0443317300827726,-11.545593498201104,3.486275421643496,-9.769230780691386,-9.76923076927865,-10.337209302328656
10.060213121068156,-114.41373134328359,-9.8032758320265,124.32424040807273,-125.25875145857643,-4.788346186803665,34.070972320794795,-13.74448422109686,-24.243042224910855,-8.330722874534624,-3.1489029005993325,-2.4901951167747893,-7.7125506186129185,5.655870445292996,-10.337209302328642
10.060213121068156,-114.41373134328359,-9.8032758320265,124.32424040807273,-125.25875145857643,-4.788346186803665,34.070972320794795,11.916763905235463,-12.672336728551233,6.243043589580427,-7.347248376602217,9.462745949971781,1.542510109941576,-1.5425101215051775,-2.953488372096148
4.809988445243276,-119.41791044776119,-11.042516117790571,122.69061876247503,-126.07380396732788,-2.122107969151614,33.80056777856635,5.4402956320556,-12.672193043214625,6.243043583654373,-7.347248022200399,9.462745919701652,1.542510109767961,-1.5425101215030876,-2.9534883720961567
4.809988445243276,-119.41791044776119,-11.042516117790571,122.69061876247503,-126.07380396732788,-2.122107969151614,33.80056777856635,-13.070708046627331,-17.79718463237677,7.283991747859192,-7.347247667798641,-2.490195167224989,-6.684210537886193,7.712550607239072,-8.860465116282148
4.809988445243276,-119.41791044776119,-11.042516117790571,122.69061876247503,-126.07380396732788,-2.122107969151614,33.80056777856635,-17.781170073653513,-22.90486774440719,14.570593784295111,15.743646956977269,14.443138006461785,7.71255059530891,2.5708502023824447,-13.290697674421626
8.429708563358567,-96.52,-11.44084335250045,121.47948547349743,-126.46280630105016,-0.4897172236503593,33.440028388928226,-13.07642429706772,-22.870134195190673,14.57031259045785,15.743639514528233,14.443137959374905,7.7125505949269595,2.570850202383147,-13.290697674421605
8.429708563358567,-96.52,-11.44084335250045,121.47948547349743,-126.46280630105016,-0.4897172236503593,33.440028388928226,-12.415220001214966,-17.710320383457354,-2.0851393207522193,-32.53732867506561,-19.423528414905412,-15.939271266961534,5.6558704452972055,-5.906976744189108
8.429708563358567,-96.52,-11.44084335250045,121.47948547349743,-126.46280630105016,-0.4897172236503593,33.440028388928226,-15.27493497852439,16.90167577757749,22.897897955088354,-5.24808113183667,-21.415685190414514,-10.79757086186953,19.02429149792141,-5.906976744189116
17.658364359994845,-89.39283582089553,-12.746471510716168,120.77533821246394,-126.64804550758458,-1.2514995715509372,35.69339957416605,-19.061358831238298,16.8021453009377,22.897335577500098,-5.248081486238622,-21.415685116420807,-10.797570861626479,19.024291497916558,-5.906976744189124
17.658364359994845,-89.39283582089553,-12.746471510716168,120.77533821246394,-126.64804550758458,-1.2514995715509372,35.69339957416605,-14.539621529245117,-6.360335486432616,4.159706147024667,11.545295810540726,15.439216548930467,-2.5708502139028875,-1.5425101215106647,-5.906976744189132
17.658364359994845,-89.39283582089553,-12.746471510716168,120.77533821246394,-126.64804550758458,-1.2514995715509372,35.69339957416605,-22.998927755979643,-25.600910916073886,14.569258163886381,-23.09105161985927,42.3333338759574,-11.825910942353218,-15.939271255104224,-8.86046511628213
19.027988188470903,-85.29850746268656,-12.082592786199701,120.18385451319581,-126.85180863477245,-2.557412167951952,38.66784953867989,-17.622362979398602,-25.5572762566202,14.568976992615665,-23.091045949420938,42.33333373469675,-11.82591094207544,-15.939271255097267,-8.860465116282127
19.027988188470903,-85.29850746268656,-12.082592786199701,120.18385451319581,-126.85180863477245,-2.557412167951952,38.66784953867989,0.042493289838763104,-20.388570307225635,7.282058635171369,-27.289384691778867,-29.384312746502975,-30.33603239862887,0.5141700404475777,-1.4767441860496486
19.027988188470903,-85.29850746268656,-12.082592786199701,120.18385451319581,-126.85180863477245,-2.557412167951952,38.66784953867989,-20.6896531831771,-24.206231628743723,4.159179002950177,-9.446413849353178,23.407843687963727,3.599190273131131,4.627530364333445,-11.813953488375137
11.038515855693909,-81.81074626865671,-11.68426555148982,119.25438012863161,-127.0,-1.958868894601494,38.75798438608933,-17.498111604650433,-24.167101184762185,4.1592493274152424,-9.446412786147903,23.40784361060668,3.5991902728880785,4.627530364333449,-11.813953488375127
11.038515855693909,-81.81074626865671,-11.68426555148982,119.25438012863161,-127.0,-1.958868894601494,38.75798438608933,-3.538393700900489,-13.877758528935015,1.0364751403030148,3.148621515443123,5.4784319482648645,5.6558704345151565,-8.74089068829109,-7.383720930235627
11.038515855693909,-81.81074626865671,-11.68426555148982,119.25438012863161,-127.0,-1.958868894601494,38.75798438608933,-14.693071746942916,-4.904377721854234,3.11854724836095,-9.446414912565524,-18.427450181864923,-8.740890698888286,2.5708502023957336,-7.383720930235629
11.690717678777746,-62.24895522388059,-11.64000696985539,118.83189177201152,-126.90738039673278,-1.414738646101057,37.76650106458476,-16.168742369019796,-4.930281393938934,3.1186527160674813,-9.446413849360063,-18.427450117961307,-8.740890698714676,2.570850202396434,-7.383720930235631
11.690717678777746,-62.24895522388059,-11.64000696985539,118.83189177201152,-126.90738039673278,-1.414738646101057,37.76650106458476,-10.96798386661608,-21.61284055361159,-3.126930838796085,-24.140618230938376,-6.474508997401167,-3.5991902938657274,4.627530364339371,-8.860465116282128
11.690717678777746,-62.24895522388059,-11.64000696985539,118.83189177201152,-126.90738039673278,-1.414738646101057,37.76650106458476,-3.16688981530307,-16.457272285595796,-1.044718142999752,-27.289370515697502,-12.450979502185975,1.5425101108096086,1.5425101214260208,-5.906976744189135
18.47361663884964,-46.93313432835821,-11.83917058721033,119.25438012863161,-126.64804550758458,-2.2309340188517126,37.76650106458476,-1.352733921062283,-16.444199185778288,-1.0444720899313475,-27.28936342765426,-12.45097945846243,1.5425101106359955,1.5425101214270684,-5.906976744189143
18.47361663884964,-46.93313432835821,-11.83917058721033,119.25438012863161,-126.64804550758458,-2.2309340188517126,37.76650106458476,-3.4436252578126085,-13.868579086299876,1.0376702992501041,8.396571169147924,27.39215744078281,8.740890677007851,7.712550607254828,-10.337209302328636
18.47361663884964,-46.93313432835821,-11.83917058721033,119.25438012863161,-126.64804550758458,-2.2309340188517126,37.76650106458476,-4.533078122739534,-27.958335249583165,8.324483237816096,-10.495983650068435,10.458824186375672,-9.76923078024003,-0.5141700405151548,-10.33720930232863
24.24560277314159,-35.559999999999995,-11.108903990242217,120.29651807496117,-126.33313885647607,-4.407455012853461,39.29879347054646,-5.522676034123912,-27.906379395199405,8.324412942549879,-10.495982232463604,10.458824152742183,-9.769230780031698,-0.5141700405134131,-10.337209302328622
24.24560277314159,-35.559999999999995,-11.108903990242217,120.29651807496117,-126.33313885647607,-4.407455012853461,39.29879347054646,-7.759695127436732,-7.353961170906614,34.348046901785054,-3.1488780924672164,-8.466665887264115,-7.7125506179532275,-3.5991902834250276,-4.4302325581426345
24.24560277314159,-35.559999999999995,-11.108903990242217,120.29651807496117,-126.33313885647607,-4.407455012853461,39.29879347054646,-8.244583540636286,-26.590682980327713,-8.331777080601462,-16.793498497263748,-15.439214806710268,-5.655870455944202,1.542510121433347,-8.860465116282136
24.115162408524824,-33.89194029850746,-10.754835337166769,121.33865602129073,-126.01823220536755,-6.6928020565552515,41.1014904187366,-9.58156208239218,-26.543215989854907,-8.331284980461609,-16.793494953245393,-15.439214752896678,-5.655870455874755,1.5425101214343924,-8.860465116282134
24.115162408524824,-33.89194029850746,-10.754835337166769,121.33865602129073,-126.01823220536755,-6.6928020565552515,41.1014904187366,-25.273364088660607,-25.214553176478653,-9.371741058760039,11.545333377140704,18.42745162811036,12.854251001025897,-0.5141700405067988,-13.290697674421619
24.115162408524824,-33.89194029850746,-10.754835337166769,121.33865602129073,-126.01823220536755,-6.6928020565552515,41.1014904187366,6.043239802950847,-7.233606955188962,2.079216044786441,-17.843083537271507,-15.439214759623342,-23.137651832257024,45.761133603195276,-2.953488372096133
19.51713955578378,-44.35522388059701,-10.290120230005241,121.98647150144154,-125.87004084014004,-7.67223650385597,41.82256919801273,1.4657420959537184,-7.251299597485636,2.0793566337835534,-17.843079638851037,-15.43921470580973,-23.137651831597307,45.761133603181385,-2.9534883720961522
19.51713955578378,-44.35522388059701,-10.290120230005241,121.98647150144154,-125.87004084014004,-7.67223650385597,41.82256919801273,-8.853217856795181,-9.831542543585126,3.1204453905370144,-2.099284192448809,-3.486273595339607,0.5141700305689536,10.797570850149455,-4.430232558142667
19.51713955578378,-44.35522388059701,-10.290120230005241,121.98647150144154,-125.87004084014004,-7.67223650385597,41.82256919801273,-7.846319000946232,-16.246967075400633,-7.288930875106834,-0.0001134036665435545,-2.4901951604981387,-3.5991902933102136,-2.570850202477178,-10.337209302328663
15.832199255360106,-48.449552238805964,-10.688447464715122,122.38079396762029,-125.70332555425904,-7.50899742930585,40.65081618168904,-5.070822086572277,-16.234331393784696,-7.288473955584278,-0.0001155300862984987,-2.4901951504080606,-3.5991902933102224,-2.570850202474756,-10.337209302328656
15.832199255360106,-48.449552238805964,-10.688447464715122,122.38079396762029,-125.70332555425904,-7.50899742930585,40.65081618168904,-2.925173863300964,-8.534019840396104,5.203360997807704,-9.44639258529514,0.49804012384614477,-6.684210536115433,8.74089068820997,-10.337209302328652
15.832199255360106,-48.449552238805964,-10.688447464715122,122.38079396762029,-125.70332555425904,-7.50899742930585,40.65081618168904,-8.483196629231134,-18.797684075702,-9.369878262719462,-11.5455637284911,3.486275388010303,-30.33603239751782,-14.91093117412716,-7.383720930235657
16.712671716523285,-47.236417910447756,-11.927687750479192,122.71878465291637,-125.38841890315052,-7.617823479005892,39.47906316536546,-10.801563877316742,-18.776448360400586,-9.369351062117616,-11.545561956484978,3.4862753779202853,-30.336032396615042,-14.910931174120574,-7.383720930235663
16.712671716523285,-47.236417910447756,-11.927687750479192,122.71878465291637,-125.38841890315052,-7.617823479005892,39.47906316536546,-8.01543482312887,-7.223698502434097,5.204450511426888,-7.347215771683844,-13.44705779576645,-2.570850210465446,2.570850202395025,-4.430232558142679
16.712671716523285,-47.236417910447756,-11.927687750479192,122.71878465291637,-125.38841890315052,-7.617823479005892,39.47906316536546,-16.217423103372337,-18.77305808607571,-4.164047916867284,-22.04142086207112,-19.423528277007783,-6.684210534240433,4.627530364337942,-4.430232558142695
19.51713955578378,-47.08477611940298,-13.100540163791615,123.11310711909513,-125.01794049008168,-8.597257926306725,39.3889283179559,-13.579025361623906,-18.75190046282851,-4.163696477512744,-22.04141554604263,-19.42352820974076,-6.684210534136263,4.627530364337928,-4.430232558142711
19.51713955578378,-47.08477611940298,-13.100540163791615,123.11310711909513,-125.01794049008168,-8.597257926306725,39.3889283179559,-9.159125781519636,-9.761799142361799,-10.409034064903203,9.446172865949805,6.474510813615374,-4.627530372161958,1.5425101214245571,-8.860465116282214
19.51713955578378,-47.08477611940298,-13.100540163791615,123.11310711909513,-125.01794049008168,-8.597257926306725,39.3889283179559,-24.220600216944558,-20.021301798191313,15.615232507238638,30.437889613883968,34.36470659230051,19.024291489379312,-0.5141700405166523,-5.906976744189223
22.09333675696493,-49.5110447761194,-13.47673810768428,123.4510978043912,-124.64746207701285,-10.501713796058198,40.740951029098596,-20.6187552233187,-19.995914521636383,15.614916102489723,30.43787720979641,34.36470647794666,19.02429148861542,-0.514170040514931,-5.906976744189234
22.09333675696493,-49.5110447761194,-13.47673810768428,123.4510978043912,-124.64746207701285,-10.501713796058198,40.740951029098596,-2.2445210907197737,-22.533154723072585,2.0822734913417884,-35.686059695815175,5.478432143339568,-6.684210535525139,4.627530364342382,-10.33720930232873
22.09333675696493,-49.5110447761194,-13.47673810768428,123.4510978043912,-124.64746207701285,-10.501713796058198,40.740951029098596,-13.79300673517509,-10.967670280433353,7.287154879217427,-11.545569398980403,4.482353705134777,2.5708501929946443,-1.5425101214843444,-4.4302325581427455
19.48452946462959,-52.392238805970145,-13.12266945460883,123.50742958527388,-124.31403150525088,-12.025278491859467,41.73243435060317,-16.29969202896932,-10.972760028957383,7.287119671227227,-11.545567626973313,4.482353691681379,2.5708501927863194,-1.5425101214822758,-4.430232558142762
19.48452946462959,-52.392238805970145,-13.12266945460883,123.50742958527388,-124.31403150525088,-12.025278491859467,41.73243435060317,-15.084443449870196,-21.228135839051625,3.123291783283845,20.991603344197134,10.458824206556232,-5.655870454902543,4.627530364346503,-7.383720930235771
19.48452946462959,-52.392238805970145,-13.12266945460883,123.50742958527388,-124.31403150525088,-12.025278491859467,41.73243435060317,2.211350995260135,-1.9793624067850164,16.655723382420767,-3.1488862438408107,2.49019680181839,-6.684210535768157,4.627530364346488,-8.860465116282272
14.234304788804707,-49.20776119402984,-12.63582505663009,123.25393657130182,-123.92502917152859,-12.514995715509826,41.01135557132716,3.9842722835742155,-2.0148222094838193,16.655371836724978,-3.14888730705119,2.4901967950916806,-6.68421053566398,4.627530364346472,-8.860465116282272
14.234304788804707,-49.20776119402984,-12.63582505663009,123.25393657130182,-123.92502917152859,-12.514995715509826,41.01135557132716,-8.497725569363297,-16.144369533309135,11.450279446286348,-35.686057569425046,-15.439214796619787,-3.599190292754601,9.76923076920205,-4.4302325581427855
14.234304788804707,-49.20776119402984,-12.63582505663009,123.25393657130182,-123.92502917152859,-12.514995715509826,41.01135557132716,-1.8579675446145414,-8.44444285625719,8.327259144846758,-14.694325582187115,-10.458822635865992,-3.59919029275459,6.684210526286941,-4.430232558142801
13.288612145333143,-50.57253731343283,-11.44084335250045,123.14127300953646,-123.68421820303385,-12.351756640959707,39.83960255500347,-5.280519441093705,-8.458218384309529,8.327188802447093,-14.694322746973473,-10.458822598869155,-3.5991902927545794,6.68421052628623,-4.430232558142815
13.288612145333143,-50.57253731343283,-11.44084335250045,123.14127300953646,-123.68421820303385,-12.351756640959707,39.83960255500347,-7.9947985700406115,-23.84740135482614,-2.08236324010333,-2.0992866733743814,1.4941184947841943,-8.740890697429904,1.5425101214299244,-7.383720930235819
13.288612145333143,-50.57253731343283,-11.44084335250045,123.14127300953646,-123.68421820303385,-12.351756640959707,39.83960255500347,-15.952825633211383,-3.308688920854541,18.73688130812235,-22.04142405176706,3.4862753341969306,4.627530354899591,0.5141700404598293,-7.383720930235824
16.158300166902023,-57.093134328358204,-10.577801010629043,123.3102683521845,-123.64717036172695,-12.460582690659749,39.83960255500347,-14.759852237339599,-3.339833030636065,18.736459477686125,-22.041418735738013,3.4862753241068827,4.627530354621822,0.5141700404612015,-7.383720930235826
16.158300166902023,-57.093134328358204,-10.577801010629043,123.3102683521845,-123.64717036172695,-12.460582690659749,39.83960255500347,-10.667647869650638,-18.74635449058574,-1.0419775781576819,-5.24803576852862,-25.39999890623639,-0.5141700503312854,10.79757085017376,1.4767441860431427
16.158300166902023,-57.093134328358204,-10.577801010629043,123.3102683521845,-123.64717036172695,-12.460582690659749,39.83960255500347,-20.166412148123598,-26.41321245591226,-7.287420592478526,-9.446380535733526,-11.454900919356717,-3.5991902932406474,10.797570850171656,-10.337209302328851
19.51713955578378,-61.490746268656714,-10.068827321833087,123.76092259924593,-123.7583138856476,-13.167952013710305,41.19162526614616,-16.519665272893043,-26.36645452207717,-7.286963698794258,-9.446379472533852,-11.454900878996519,-3.59919029324064,10.797570850169555,-10.337209302328839
19.51713955578378,-61.490746268656714,-10.068827321833087,123.76092259924593,-123.7583138856476,-13.167952013710305,41.19162526614616,-11.635588707397476,-22.475939016424768,12.49150841968007,-12.595136718930839,0.49804021802019727,-19.024291507266643,31.36437246958982,-7.383720930235838
19.51713955578378,-61.490746268656714,-10.068827321833087,123.76092259924593,-123.7583138856476,-13.167952013710305,41.19162526614616,-7.11660937711927,-14.754646917817347,4.163712114158154,-0.00010135413867740084,-28.388234002233013,-7.712550616460064,0.5141700404472056,-4.430232558142848
18.96276800616252,-66.34328358208955,-10.378637393274104,124.01441561321799,-123.88798133022169,-13.6032562125107,42.273243435060294,-11.665689965723917,-14.747098387558808,4.163782361743635,-0.00010348056044851006,-28.388233904695856,-7.712550616321169,0.514170040448569,-4.430232558142858
18.96276800616252,-66.34328358208955,-10.378637393274104,124.01441561321799,-123.88798133022169,-13.6032562125107,42.273243435060294,-11.877558541764213,-9.614444881506213,7.286697118525554,-0.00010560698185901884,16.435295155303198,-3.5991902924420054,-13.882591093145727,-14.767441860468333
18.96276800616252,-66.34328358208955,-10.378637393274104,124.01441561321799,-123.88798133022169,-13.6032562125107,42.273243435060294,-6.97209089086692,-14.749407867749095,4.163817407623249,-9.446382662192358,13.447059837325494,-0.5141700496367982,7.712550607253994,-4.430232558142839
16.321350622672984,-66.34328358208955,-10.7990939188012,124.12707917498335,-123.96207701283546,-13.385604113110503,42.273243435060294,-3.35030488986303,-14.741930932446976,4.163887653385183,-9.44638159899232,13.447059793601964,-0.5141700497409603,7.712550607252929,-4.430232558142848
16.321350622672984,-66.34328358208955,-10.7990939188012,124.12707917498335,-123.96207701283546,-13.385604113110503,42.273243435060294,1.9017640866528485,1.922212932042914,19.778180449933565,-8.39679443259363,14.44313817126647,-20.052631587611398,-17.995951417026102,-10.337209302328837
16.321350622672984,-66.34328358208955,-10.7990939188012,124.12707917498335,-123.96207701283546,-13.385604113110503,42.273243435060294,-1.1588040881227233,-5.814327621552029,5.204449082998951,-10.495965930193908,-21.41568504578994,-9.769230777705165,-3.599190283422823,-10.337209302328825
18.212735909616107,-72.25731343283582,-11.418714061683234,124.15524506542468,-124.07322053675614,-13.6032562125107,42.90418736692686,-3.40892090762142,-5.837137853184354,5.204484185497428,-10.495964512592044,-21.415684971796246,-9.769230777496823,-3.599190283420066,-10.337209302328812
18.212735909616107,-72.25731343283582,-11.418714061683234,124.15524506542468,-124.07322053675614,-13.6032562125107,42.90418736692686,-12.137955472865684,-13.5476348454058,-2.0821179035384016,6.297414556190823,7.470589322450675,11.82591092234793,4.627530364351638,4.430232558136151
18.212735909616107,-72.25731343283582,-11.418714061683234,124.15524506542468,-124.07322053675614,-13.6032562125107,42.90418736692686,1.0904019565967538,-8.419305090578526,4.163852258479526,13.644513025747152,7.470589298907246,-6.684210535004106,7.712550607264973,-4.430232558142859
20.169341378867614,-74.83522388059701,-11.153162571876647,124.18341095586604,-124.18436406067678,-14.310625535561257,44.43647977288856,-2.108926558020932,-8.433441324731294,4.163922503564749,13.644506292096292,7.470589275363815,-6.684210534899929,7.712550607263909,-4.430232558142865
20.169341378867614,-74.83522388059701,-11.153162571876647,124.18341095586604,-124.18436406067678,-14.310625535561257,44.43647977288856,-20.596600188087034,-16.135277438376093,8.327785427978291,-33.58687508550068,-11.454900754552423,-0.5141700491853487,-0.5141700405061052,-14.767441860468338
20.169341378867614,-74.83522388059701,-11.153162571876647,124.18341095586604,-124.18436406067678,-14.310625535561257,44.43647977288856,-11.82746797760068,-16.123439031752664,-3.1227147950484184,-20.9918326326597,-6.474508607252004,-6.6842105348999095,30.336032388629167,-11.813953488375317
17.69097445114904,-77.41313432835821,-11.131033281059432,123.87358616101129,-124.27698366394398,-14.691516709511461,45.518097941802694,-10.581415752974117,-16.111636791410373,-3.122398511257675,-20.991827671033843,-6.474508583708541,-6.6842105347957315,30.336032388620453,-11.813953488375294
17.69097445114904,-77.41313432835821,-11.131033281059432,123.87358616101129,-124.27698366394398,-14.691516709511461,45.518097941802694,-10.66887469596857,-12.256017215822713,2.0826586178378923,10.495760386556007,12.450981446207726,-0.5141700490811512,4.6275303643337695,-2.9534883720962983
17.69097445114904,-77.41313432835821,-11.131033281059432,123.87358616101129,-124.27698366394398,-14.691516709511461,45.518097941802694,-12.258225358847035,-18.663691036538417,10.410384509159279,-9.446381244666629,7.470589298907337,-16.967611344146384,1.542510121420381,-13.290697674421772
13.02773141609961,-75.29014925373134,-11.086774699425002,123.28210246174316,-124.31403150525088,-14.038560411310982,44.887154009936125,-14.464180630287174,-18.64332499456736,10.410243848527927,-9.446380181466829,7.470589275363903,-16.967611343694983,1.5425101214213903,-13.290697674421743
13.02773141609961,-75.29014925373134,-11.086774699425002,123.28210246174316,-124.31403150525088,-14.038560411310982,44.887154009936125,-7.549567726481882,-9.654019099122838,16.65579221104801,3.148654120118726,-2.4901949620599555,-3.5991902910877056,-0.5141700405198382,-4.430232558142746
13.02773141609961,-75.29014925373134,-11.086774699425002,123.28210246174316,-124.31403150525088,-14.038560411310982,44.887154009936125,-10.076410102467543,-5.820189553347191,20.81923334428495,-6.29762399829892,0.4980403121942268,-0.5141700482824909,-6.684210526344847,-5.906976744189247
13.54949287456668,-77.41313432835821,-11.020386826973354,122.69061876247503,-124.40665110851808,-13.494430162810545,44.70688431511701,-7.106466477937632,-5.843194156971059,20.81874120866133,-6.297623998305852,0.49804031219423506,-0.5141700483866458,-6.68421052634106,-5.906976744189247
13.54949287456668,-77.41313432835821,-11.020386826973354,122.69061876247503,-124.40665110851808,-13.494430162810545,44.70688431511701,-6.8619855949150885,-5.866176691906731,16.65445640080345,10.495753652868451,-7.470587058910095,-3.599190291296002,-11.825910931192869,-8.860465116282237
13.54949287456668,-77.41313432835821,-11.020386826973354,122.69061876247503,-124.40665110851808,-13.494430162810545,44.70688431511701,-1.8667871983706865,-17.420698089046205,-21.86097741888014,1.0494730536352153,11.454902974369512,0.5141700324442793,0.5141700404660785,-4.430232558142738
14.6582359738092,-83.47880597014925,-11.374455480048804,122.07096917276556,-124.5918903150525,-13.276778063410347,45.24769339957413,-4.871964183736936,-17.404696681125618,-21.860028440921884,1.0494705728131137,11.454902937372678,0.514170032305401,0.5141700404674348,-4.430232558142742
14.6582359738092,-83.47880597014925,-11.374455480048804,122.07096917276556,-124.5918903150525,-13.276778063410347,45.24769339957413,-2.474809890068788,1.8305316762484871,2.082728434046536,-15.743909559189811,0.4980402651073717,-1.5425101297036137,-2.5708502024445643,-10.337209302328727
14.6582359738092,-83.47880597014925,-11.374455480048804,122.07096917276556,-124.5918903150525,-13.276778063410347,45.24769339957413,-18.937910361952788,-25.125426108814434,6.2466616435167195,-13.644734163176565,6.474510793435623,-1.5425101297730501,-6.684210526326643,-10.33720930232871
12.179869046090623,-87.11820895522388,-11.83917058721033,121.16966067864269,-124.77712952158694,-12.623821765209868,45.427963094393135,-14.671417956918031,-25.083484343185425,6.246661575813941,-13.644731682366118,6.474510773255524,-1.5425101298424884,-6.684210526322859,-10.337209302328692
12.179869046090623,-87.11820895522388,-11.83917058721033,121.16966067864269,-124.77712952158694,-12.623821765209868,45.427963094393135,-10.857842284342006,-19.916491851929486,-7.285664703630724,-7.347212582363123,-8.466665567745208,2.57085019382834,3.599190283392108,-2.9534883720962
12.179869046090623,-87.11820895522388,-11.83917058721033,121.16966067864269,-124.77712952158694,-12.623821765209868,45.427963094393135,-20.046839258826857,-28.861025752313,-9.367104180323974,-6.297626124768504,-2.4901950091468117,2.5708501936200108,5.655870445334655,-2.9534883720962113
10.060213121068156,-83.7820895522388,-11.108903990242217,120.21202040363715,-124.94384480746791,-11.426735218508952,44.616749467707564,-20.559449939298034,-28.806344407117393,-9.366577027363743,-6.297626124775077,-2.490194999056761,2.5708501934116814,5.655870445334269,-2.9534883720962224
10.060213121068156,-83.7820895522388,-11.108903990242217,120.21202040363715,-124.94384480746791,-11.426735218508952,44.616749467707564,-6.113891155319754,3.280337963816013,18.73955071024905,-5.248040021582822,-2.490194988966708,-10.797570858952522,4.627530364362764,-7.383720930235719
10.060213121068156,-83.7820895522388,-11.108903990242217,120.21202040363715,-124.94384480746791,-11.426735218508952,44.616749467707564,-14.304392744898554,-9.58621828776607,18.739128834167552,-1.0496959631963865,6.474510813615727,-0.5141700493587895,11.825910931160557,-4.430232558142723
9.994992938759772,-77.71641791044776,-9.913922286112578,119.59237081392769,-125.14760793465578,-9.903170522707796,43.26472675656487,-13.06145958197295,-9.59659538880701,18.738706965184107,-1.0496977352144148,6.474510793435638,-0.5141700494629533,11.825910931158088,-4.430232558142729
9.994992938759772,-77.71641791044776,-9.913922286112578,119.59237081392769,-125.14760793465578,-9.903170522707796,43.26472675656487,-11.711640647157502,-17.29468443989049,-9.367315490277916,-14.694318848816902,-0.49803817646074866,-4.627530373307386,16.96761133601121,-1.4767441860497437
9.994992938759772,-77.71641791044776,-9.913922286112578,119.59237081392769,-125.14760793465578,-9.903170522707796,43.26472675656487,-1.6176740519666613,-4.466264463731392,4.165537877850866,10.495750463167475,-5.478430280037604,-7.712550616077862,4.627530364353582,-13.290697674421722
13.02773141609961,-73.92537313432835,-9.537724342219914,119.45154136172098,-125.40694282380397,-8.814910025706922,42.72391767210786,-1.2714696759887527,-4.494002458325136,4.1656080940192295,10.495744792724231,-5.478430259857499,-7.7125506159389685,4.627530364353544,-13.290697674421704
13.02773141609961,-73.92537313432835,-9.537724342219914,119.45154136172098,-125.40694282380397,-8.814910025706922,42.72391767210786,0.9216557504688705,-12.209421488814511,10.411367329773,-0.0001219097063458463,13.447059766695407,0.5141700316804618,3.5991902833823866,-1.4767441860497224
13.02773141609961,-73.92537313432835,-9.537724342219914,119.45154136172098,-125.40694282380397,-8.814910025706922,42.72391767210786,-16.881645775650462,-13.49243116947496,-14.571529431034573,-18.892673893703556,0.49804024492732546,-8.74089069687403,-15.939271255068562,-16.2441860465147
13.679933239183447,-73.92537313432835,-9.825405122843716,119.28254601907295,-125.59218203033839,-7.83547557840609,42.09297374024129,-16.229422391340847,-13.489845913946107,-14.570826540810003,-18.89266964088005,0.4980402449273321,-8.740890696700415,-15.939271255061655,-16.24418604651467
13.679933239183447,-73.92537313432835,-9.825405122843716,119.28254601907295,-125.59218203033839,-7.83547557840609,42.09297374024129,-15.281536443518588,-17.33113817367532,8.330736080434548,3.1486427791181164,-2.4901950192367877,-4.627530372786532,-1.54251012145909,-11.813953488375159
13.679933239183447,-73.92537313432835,-9.825405122843716,119.28254601907295,-125.59218203033839,-7.83547557840609,42.09297374024129,-19.297250728873156,-18.59690584469089,-1.037867852703629,-6.297635339297632,2.4901970977934784,-3.599190291816739,5.655870445340785,-5.906976744189171
12.897291051482842,-73.47044776119402,-9.84753441366093,119.11355067642491,-125.81446907817968,-6.6928020565552515,41.281760113555606,-17.729657815383664,-18.577109074825835,-1.037621916428403,-6.297635339302667,2.490197091066787,-3.599190291816735,5.655870445340398,-5.906976744189184
12.897291051482842,-73.47044776119402,-9.84753441366093,119.11355067642491,-125.81446907817968,-6.6928020565552515,41.281760113555606,-11.231761354427086,-15.994797759404168,7.290209376722619,-12.595151958500669,-0.4980381798240304,-5.655870453686866,7.712550607282248,-10.337209302328683
12.897291051482842,-73.47044776119402,-9.84753441366093,119.11355067642491,-125.81446907817968,-6.6928020565552515,41.281760113555606,-2.369571616695998,-12.13990998499178,9.372070456392807,-22.04142476088133,-6.474508704788927,-5.655870453617417,-0.5141700404877829,-5.906976744189194
13.647323148029255,-73.47044776119402,-9.294302143230542,119.11355067642491,-126.09232788798133,-5.5501285347042995,40.65081618168904,-5.9019789399970755,-12.141896338774247,9.371964899235442,-22.041419444852174,-6.4745086812454735,-5.655870453547969,-0.5141700404860874,-5.906976744189208
13.647323148029255,-73.47044776119402,-9.294302143230542,119.11355067642491,-126.09232788798133,-5.5501285347042995,40.65081618168904,-24.117024607815914,-17.26904027867391,24.986081895816223,-15.743897509630944,0.49804029201427696,-3.599190291608386,20.05263157893798,-5.906976744189222
13.647323148029255,-73.47044776119402,-9.294302143230542,119.11355067642491,-126.09232788798133,-5.5501285347042995,40.65081618168904,-3.93575749646201,-3.159627775200187,6.248382051336369,10.495758259953288,13.447059770058834,-4.62753037254345,12.854251012134897,-7.3837209302357305
15.01694697650531,-71.80238805970149,-9.117267816692818,119.22621423819027,-126.38871061843639,-4.842759211653743,40.740951029098596,-2.553578141795742,-3.1919847000299324,6.248381954023078,10.495752589508726,13.447059726335302,-4.627530372508724,12.854251012132073,-7.383720930235739
15.01694697650531,-71.80238805970149,-9.117267816692818,119.22621423819027,-126.38871061843639,-4.842759211653743,40.740951029098596,0.08139870004347394,-17.318438901486147,3.1255373462851628,-8.396802938513764,-12.450979273477337,-4.627530372473998,1.542510121446941,-7.383720930235746
15.01694697650531,-71.80238805970149,-9.117267816692818,119.22621423819027,-126.38871061843639,-4.842759211653743,40.740951029098596,-14.855999277968545,-9.615428976572538,27.0674506076538,-8.396802229714941,-3.486273437261412,-6.684210534309406,6.684210526303527,-8.860465116282246
13.74515342149183,-68.16298507462686,-9.44920717895105,119.19804834774894,-126.57394982497084,-4.080976863753108,40.29027679205103,-15.838648744946507,-9.62613124949533,27.06674753722882,-8.396801520916238,-3.486273423808009,-6.684210534205234,6.684210526302783,-8.860465116282246
13.74515342149183,-68.16298507462686,-9.44920717895105,119.19804834774894,-126.57394982497084,-4.080976863753108,40.29027679205103,-12.401165823181135,-14.761973684426206,3.124236565601308,-13.644731328111794,7.4705892249138595,-4.627530372230928,0.5141700404753253,-5.906976744189253
13.74515342149183,-68.16298507462686,-9.44920717895105,119.19804834774894,-126.57394982497084,-4.080976863753108,40.29027679205103,-7.082221164483471,-14.755373253651731,9.370030956603932,-31.487692601681882,-1.4941165911219565,-4.627530372196199,-1.5425101214655728,-2.9534883720962704
9.994992938759772,-65.13014925373135,-9.825405122843716,118.91638944333553,-126.64804550758458,-2.557412167951952,38.39744499645133,-6.783277659826664,-14.748803653319312,9.369925433634567,-31.48768409603316,-1.4941165843952502,-4.627530372161472,-1.542510121463538,-2.9534883720962894
9.994992938759772,-65.13014925373135,-9.825405122843716,118.91638944333553,-126.64804550758458,-2.557412167951952,38.39744499645133,-10.244476287119154,-16.02354980867092,-6.244402639563232,-9.249442103875793e-05,1.4941186864955833,-5.655870453061811,7.712550607278565,-7.3837209302357945
9.994992938759772,-65.13014925373135,-9.825405122843716,118.91638944333553,-126.64804550758458,-2.557412167951952,38.39744499645133,-4.526801971927791,-10.887577658270985,17.697826982473032,12.594938617541647,6.474510790072453,0.5141700326180425,19.02429149795978,-5.9069767441893015
9.440621389138512,-63.31044776119403,-9.980310158564224,118.66289642936349,-126.68509334889148,-0.8706083976006198,36.23420865862306,-4.925147834224029,-10.894088475111774,17.697440267379314,12.594932238291111,6.474510769892365,0.514170032479158,19.02429149795487,-5.9069767441893095
9.440621389138512,-63.31044776119403,-9.980310158564224,118.66289642936349,-126.68509334889148,-0.8706083976006198,36.23420865862306,-8.16874517628241,-14.744462466649487,1.0418828366730022,-3.1488656889407567,0.4980402213840214,3.5991902751454763,3.5991902833831793,-7.383720930235812
9.440621389138512,-63.31044776119403,-9.980310158564224,118.66289642936349,-126.68509334889148,-0.8706083976006198,36.23420865862306,-11.201970958644422,-9.612873720217772,9.369643872657353,-7.3472111649499,-9.462743992496398,-1.542510129772913,-0.5141700405009955,-5.90697674418932
10.060213121068156,-61.79402985074626,-10.20160306673638,118.40940341539142,-126.66656942823803,0.6529562982005928,33.89070262597579,-11.807073811264912,-9.623760021432204,9.369538356094493,-7.34721081055434,-9.462743958862896,-1.5425101298423551,-0.5141700404993097,-5.906976744189327
10.060213121068156,-61.79402985074626,-10.20160306673638,118.40940341539142,-126.66656942823803,0.6529562982005928,33.89070262597579,-3.8832327947315717,-17.322355391433607,6.246588330895546,-3.1488660433635283,-18.427449717721768,-9.769230777392337,4.62753036435797,-7.383720930235831
10.060213121068156,-61.79402985074626,-10.20160306673638,118.40940341539142,-126.66656942823803,0.6529562982005928,33.89070262597579,-16.852070247297142,-19.869854907996285,14.574173624604054,-47.231483440928066,-11.454900704101815,-6.684210534378799,11.82591093115575,-4.430232558142843
10.158043394530731,-55.27343283582089,-10.245861648370811,118.1840762918607,-126.51837806301049,2.0132819194516287,31.36692689850952,-13.67813190738855,-19.846178156451625,14.573892368733874,-47.23146961924492,-11.454900663741595,-6.68421053427463,11.825910931153267,-4.4302325581428565
10.158043394530731,-55.27343283582089,-10.245861648370811,118.1840762918607,-126.51837806301049,2.0132819194516287,31.36692689850952,-18.2048589698946,-7.009716178137281,11.450766607196972,15.743710394365554,5.478432540215353,-13.882591100715931,-3.599190283415993,-5.906976744189365
10.158043394530731,-55.27343283582089,-10.245861648370811,118.1840762918607,-126.51837806301049,2.0132819194516287,31.36692689850952,-3.6883137848451915,-9.591995525516433,-6.245528085775831,5.247841919917558,-0.49803800492960715,-1.5425101291478973,0.5141700404712104,-4.430232558142877
12.864680960328652,-52.6955223880597,-11.064645408607786,118.07141273009535,-126.2590431738623,2.611825192802087,29.564229950319373,-8.08513285343189,-9.603040359462202,-6.245106357980635,5.2478380214821225,-0.49803800156621847,-1.5425101292173373,0.5141700404725498,-4.43023255814289
12.864680960328652,-52.6955223880597,-11.064645408607786,118.07141273009535,-126.2590431738623,2.611825192802087,29.564229950319373,-9.141513538042716,-17.301794853379054,12.492382425061294,-7.347199115338588,7.470589372901508,1.5425101135184223,5.655870445329483,-5.906976744189398
12.864680960328652,-52.6955223880597,-11.064645408607786,118.07141273009535,-126.2590431738623,2.611825192802087,29.564229950319373,-12.53065373410672,-9.599176683087972,7.287430613789013,-31.48767913451811,3.486275663805933,5.655870437085081,-6.684210526324339,-10.337209302328892
12.897291051482842,-56.03164179104477,-11.418714061683234,117.93058327788864,-126.07380396732788,3.2647814910026227,27.941802696948116,-9.398231446770867,-9.61027034392025,7.287395399534922,-31.487670628871683,3.4862756537159227,5.655870436772579,-6.684210526320571,-10.337209302328883
12.897291051482842,-56.03164179104477,-11.418714061683234,117.93058327788864,-126.07380396732788,3.2647814910026227,27.941802696948116,-9.74710220258105,-13.465219100378905,-2.081173345336346,-29.388489916829034,-1.494116463314299,-2.570850211020459,-7.712550607287923,-11.813953488375372
12.897291051482842,-56.03164179104477,-11.418714061683234,117.93058327788864,-126.07380396732788,3.2647814910026227,27.941802696948116,-12.877128432867034,-17.307189535625145,1.0419522890211184,17.842892523957158,4.482354071740691,-12.85425102040585,27.251012145734226,-2.953488372096385
15.114777249967887,-61.64238805970149,-10.644188883080691,118.07141273009535,-126.07380396732788,3.700085689802961,27.220723917672103,-12.852686794981414,-17.292349908931723,1.0421279625264956,17.84288437269115,4.482354058287328,-12.854251020093345,27.25101214572655,-2.9534883720964022
15.114777249967887,-61.64238805970149,-10.644188883080691,118.07141273009535,-126.07380396732788,3.700085689802961,27.220723917672103,-4.157542011468209,-5.745993874254299,12.49273350450251,-3.1488458425500307,12.450981415938301,-4.627530372300299,0.5141700404697982,-8.8604651162824
15.114777249967887,-61.64238805970149,-10.644188883080691,118.07141273009535,-126.07380396732788,3.700085689802961,27.220723917672103,-14.65849356008566,-22.426883360730557,-20.81781890639627,-18.892638453749633,-15.43921442328704,-9.769230776940905,2.5708502024134026,-8.860465116282395
17.756194633457422,-67.10149253731343,-10.00243944938144,118.21224218230205,-126.20347141190197,3.4824335904028203,28.031937544357675,-14.78789221343552,-22.394808909328695,-20.81690511551282,-18.892634200932093,-15.439214369473417,-9.769230776732567,2.5708502024140754,-8.860465116282388
17.756194633457422,-67.10149253731343,-10.00243944938144,118.21224218230205,-126.20347141190197,3.4824335904028203,28.031937544357675,-21.46112353419622,-17.237671964566516,-2.0789242776987233,-17.843043844916433,-0.498037994839154,0.5141700328264465,2.5708502024147477,-10.337209302328874
17.756194633457422,-67.10149253731343,-10.00243944938144,118.21224218230205,-126.20347141190197,3.4824335904028203,28.031937544357675,-7.18790093610863,-19.785625780139647,7.289890339338342,5.247854323871584,7.470589379628575,-4.627530371987775,3.5991902833865392,-7.383720930235871
14.071254333033748,-71.34746268656716,-10.046698031015872,118.09957862053668,-126.40723453908984,4.135389888603299,27.941802696948116,-6.759400753251917,-19.76240630163578,7.289855083342488,5.2478504254340645,7.470589356085171,-4.627530371953049,3.5991902833868643,-7.383720930235868
14.071254333033748,-71.34746268656716,-10.046698031015872,118.09957862053668,-126.40723453908984,4.135389888603299,27.941802696948116,-7.047346187534137,-26.145674643854097,-34.34810697739103,-43.03311422014886,-48.30980226518861,-38.56275304277554,-0.5141700404972847,-7.383720930235865
14.071254333033748,-71.34746268656716,-10.046698031015872,118.09957862053668,-126.40723453908984,4.135389888603299,27.941802696948116,1.2719050574789428,-20.97581505463563,-3.118291185783052,5.247858931066956,-29.38431209401165,-2.5708502088676033,61.18623481777154,10.337209302322083
10.647194761843608,-68.01134328358208,-10.511413138177398,117.78975382568194,-126.51837806301049,5.386889460154293,26.589779985805535,-3.033296148904034,-20.948503836384475,-3.117974978208366,5.2478550326286655,-29.384311993111133,-2.570850208902304,61.186234817752414,10.337209302322023
10.647194761843608,-68.01134328358208,-10.511413138177398,117.78975382568194,-126.51837806301049,5.386889460154293,26.589779985805535,-2.723280199087874,0.8605706991354776,14.578460116240677,-51.42979843854565,-23.407841363882355,6.684210519478597,17.99595141694632,-8.860465116282471
10.647194761843608,-68.01134328358208,-10.511413138177398,117.78975382568194,-126.51837806301049,5.386889460154293,26.589779985805535,-18.67757298166868,-8.154810825500121,20.823867808289165,12.59496909587024,-1.4941160126249868,-11.825910937699819,-20.05263157898959,-13.290697674421942
17.91924508922838,-60.277611940298506,-10.046698031015872,118.26857396318472,-126.62952158693116,5.278063410454195,26.95031937544354,-10.535425112779006,-8.170864684225497,20.823375592878058,12.594962716614592,-1.4941160058982297,-11.825910937422027,-20.052631578981266,-13.290697674421915
17.91924508922838,-60.277611940298506,-10.046698031015872,118.26857396318472,-126.62952158693116,5.278063410454195,26.95031937544354,-14.171368715730887,-15.874626595799022,-5.200820867572682,13.644542440558855,43.32941296329042,14.910931167167515,-0.5141700405216918,-5.906976744189415
17.91924508922838,-60.277611940298506,-10.046698031015872,118.26857396318472,-126.62952158693116,5.278063410454195,26.95031937544354,3.0041135508355428,-5.614444631162347,18.741373560676962,-3.1488419442781934,12.450981755637129,-10.797570856834167,19.024291497931287,-7.383720930235913
19.843240467325696,-62.24895522388059,-10.688447464715122,118.57839875803946,-126.72214119019836,4.189802913453377,28.753016323633688,-8.871900363971132,-5.6391942591752615,18.740951652377813,-3.148843007496008,12.450981715276962,-10.797570856591108,19.024291497926413,-7.38372093023591
19.843240467325696,-62.24895522388059,-10.688447464715122,118.57839875803946,-126.72214119019836,4.189802913453377,28.753016323633688,-17.028915515271784,-12.070350704312334,11.453892560240291,-2.0992579675148137,15.439216939080918,5.655870438613025,13.882591093065946,-1.4767441860499249
19.843240467325696,-62.24895522388059,-10.688447464715122,118.57839875803946,-126.72214119019836,4.189802913453377,28.753016323633688,-14.299774428136676,-10.79214995952104,18.740353896987177,12.594946059649022,18.427452152794828,3.5991902764303907,-8.740890688301802,-1.4767441860499426
12.571190139940924,-70.74089552238806,-12.03833420456527,118.043246839654,-126.72214119019836,4.516281062553617,28.572746628814684,-5.680771157095008,-10.799579213467496,18.73993200580661,12.594939680397275,18.427452092254565,3.5991902761873353,-8.740890688297297,-1.4767441860499604
12.571190139940924,-70.74089552238806,-12.03833420456527,118.043246839654,-126.72214119019836,4.516281062553617,28.572746628814684,2.1968975131126722,-21.05729706063334,10.411924760659979,-1.0496860404381492,34.364706773922975,3.599190275944279,2.5708502023895154,-13.290697674421942
12.571190139940924,-70.74089552238806,-12.03833420456527,118.043246839654,-126.72214119019836,4.516281062553617,28.572746628814684,-5.924308064403698,-12.061145427068407,13.53462858256745,-7.347204431650763,-23.407841780937353,16.967611327857092,4.627530364332442,-4.430232558142949
12.31030941070739,-69.67940298507462,-12.436661439275149,117.64892437347525,-126.75918903150526,5.169237360754096,27.941802696948116,-8.858141158642999,-12.06434170815375,13.53438245073874,-7.347204077256293,-23.40784170021697,16.967611327162636,4.627530364332436,-4.430232558142959
12.31030941070739,-69.67940298507462,-12.436661439275149,117.64892437347525,-126.75918903150526,5.169237360754096,27.941802696948116,-5.1353581463872855,-5.661133773495155,13.534136323040613,-5.248031516464229,-62.25490005363021,-25.19433199186959,-0.5141700405231626,-7.38372093023596
12.31030941070739,-69.67940298507462,-12.436661439275149,117.64892437347525,-126.75918903150526,5.169237360754096,27.941802696948116,-18.65056269234315,-5.685999460838873,11.451993859209153,19.942034605897376,-5.478429822620762,-2.570850210568954,-3.5991902834347886,-10.33720930232895
18.832327641545753,-59.21611940298507,-12.28175640355464,117.90241738744731,-126.68509334889148,4.353041988003497,28.753016323633688,-17.941985508499563,-5.710845702832116,11.451818036900669,19.942025745831902,-5.4784298024406235,-2.570850210603695,-3.5991902834320175,-10.337209302328938
18.832327641545753,-59.21611940298507,-12.28175640355464,117.90241738744731,-126.68509334889148,4.353041988003497,28.753016323633688,-16.596231951213966,-10.860809933143365,4.165005026611132,7.346983647382002,16.435295488276452,-19.024291505599514,19.024291497935366,-4.430232558142947
18.832327641545753,-59.21611940298507,-12.28175640355464,117.90241738744731,-126.68509334889148,4.353041988003497,28.753016323633688,-6.010083191334585,-13.430877779927863,13.533608781327239,6.297392936948334,18.42745227723899,8.74089068016812,-8.74089068828971,-8.860465116282443
17.91924508922838,-52.08895522388059,-12.370273566823503,118.12774451097803,-126.46280630105016,3.64567266495294,28.753016323633688,-4.848486435402153,-13.42973101953638,13.533362666580826,6.2973886841165765,18.427452216698757,8.740890679751434,-8.740890688285202,-8.860465116282437
17.91924508922838,-52.08895522388059,-12.370273566823503,118.12774451097803,-126.46280630105016,3.64567266495294,28.753016323633688,-3.3311510141489444,-7.022182978464074,13.53311655596984,-17.843095942287494,-4.482351535766454,-3.5991902918860568,3.5991902833727307,-1.4767441860499515
17.91924508922838,-52.08895522388059,-12.370273566823503,118.12774451097803,-126.46280630105016,3.64567266495294,28.753016323633688,-18.275494962661643,-17.292989096192013,1.041492407904947,3.148630020111712,-8.466665204501828,-31.364372477132886,-10.797570850222586,-13.290697674421931
16.940942354602626,-50.42089552238806,-12.458790730092366,118.1840762918607,-126.11085180863478,3.047129391602425,28.302342086586236,-17.4383289368915,-17.278891594684847,1.041668088318132,3.148626830487645,-8.466665174231634,-31.36437247619539,-10.79757085021738,-13.290697674421908
16.940942354602626,-50.42089552238806,-12.458790730092366,118.1840762918607,-126.11085180863478,3.047129391602425,28.302342086586236,-16.641307339155166,-15.983553273908822,-2.0810007446514387,10.495726363255905,-33.3686256786625,-6.684210532816277,-15.939271255067762,-14.76744186046838
16.940942354602626,-50.42089552238806,-12.458790730092366,118.1840762918607,-126.11085180863478,3.047129391602425,28.302342086586236,-8.13351862069078,-13.411300986832181,5.205917566405903,-29.388551228738667,13.447060240929405,-3.5991902899069106,-3.599190283407392,-4.4302325581428885
17.20182308383616,-49.20776119402984,-12.348144276006288,118.26857396318472,-125.74037339556594,2.448586118251967,27.671398154719554,-10.210232183178489,-13.410307979978473,5.205952641830247,-29.388543431889325,13.44706019720591,-3.5991902899069137,-3.59919028340461,-4.4302325581429
17.20182308383616,-49.20776119402984,-12.348144276006288,118.26857396318472,-125.74037339556594,2.448586118251967,27.671398154719554,-2.7023545756455327,-7.002914126772085,6.246935886773688,8.396564080116496,41.3372559523476,12.854251005054156,21.080971659905018,1.476744186043069
17.20182308383616,-49.20776119402984,-12.348144276006288,118.26857396318472,-125.74037339556594,2.448586118251967,27.671398154719554,-24.60354459572462,-26.242867572781996,-12.49013124997727,-45.132332144659905,-30.380390525488732,-32.392712556644376,-16.96761133603193,-13.290697674421917
20.29978174348438,-53.302089552238805,-12.370273566823503,118.6065646484808,-125.49956242707117,1.3603256212511496,28.12207239176712,-17.577573506101317,-26.198641223065415,-12.489498650237866,-45.1323190317778,-30.38039042122487,-32.392712555672176,-16.967611336024643,-13.2906976744219
20.29978174348438,-53.302089552238805,-12.370273566823503,118.6065646484808,-125.49956242707117,1.3603256212511496,28.12207239176712,0.3514792023490365,-17.185519783451447,20.821475383036688,-20.991825545324865,-53.29019400888597,-14.910931178803846,6.684210526318372,-5.9069767441894045
20.29978174348438,-53.302089552238805,-12.370273566823503,118.6065646484808,-125.49956242707117,1.3603256212511496,28.12207239176712,-4.259361469154604,-15.8904898912139,-12.489358236880147,-37.78519823488139,-60.26274277698137,-21.080971664032344,-17.99595141698918,-4.430232558142917
20.98459365772241,-55.12179104477612,-12.171109949468564,118.97272122421822,-125.27727537922988,0.21765209940019759,28.933286018452804,-8.291673160805594,-15.881119197957599,-12.488725650270844,-37.785187602820656,-60.262742571817014,-21.080971663442096,-17.995951416981555,-4.43023255814293
20.98459365772241,-55.12179104477612,-12.171109949468564,118.97272122421822,-125.27727537922988,0.21765209940019759,28.933286018452804,-6.556069701485843,-8.18408165181306,4.167077647749268,-8.396766081194524,23.40784502994288,-6.684210529760911,13.882591093130735,-4.430232558142944
20.98459365772241,-55.12179104477612,-12.171109949468564,118.97272122421822,-125.27727537922988,0.21765209940019759,28.933286018452804,-9.414821518291077,5.893380119757602,12.494733196996428,4.19826786598408,25.400001795361973,-1.5425101249814435,8.740890688271989,-4.430232558142956
19.614969829246355,-56.03164179104477,-11.88342916884476,119.19804834774894,-125.12908401400233,-0.8706083976006198,29.83463449254782,-6.29290238511166,5.829125398412057,12.49452219546626,4.198264321949001,25.400001711278282,-1.5425101250509248,8.740890688270573,-4.430232558142969
19.614969829246355,-56.03164179104477,-11.88342916884476,119.19804834774894,-125.12908401400233,-0.8706083976006198,29.83463449254782,-11.988781208758011,-7.047887448272625,16.658103877998183,-34.636425040442106,5.478433199433746,0.5141700367497277,-0.514170040470912,-7.383720930235973
19.614969829246355,-56.03164179104477,-11.88342916884476,119.19804834774894,-125.12908401400233,-0.8706083976006198,29.83463449254782,-1.6273998304338502,-14.756407181747072,5.207322417824959,-14.694279510813057,33.36862898148223,5.655870441286135,9.769230769241982,-4.4302325581429844
17.88663499807419,-59.97432835820895,-10.976128245338924,119.3952095808383,-125.11056009334888,-1.469151670951078,30.555713271823947,-5.037358284790291,-14.75124264739011,5.207357469205631,-14.694276675607115,33.368628870491754,5.655870440973592,9.769230769240217,-4.430232558142996
17.88663499807419,-59.97432835820895,-10.976128245338924,119.3952095808383,-125.11056009334888,-1.469151670951078,30.555713271823947,-5.380809254976158,-28.840235584150513,-8.324933691756856,-12.595101634004,13.447060331740412,10.797570845336388,-5.655870445328331,-2.9534883720965124
17.88663499807419,-59.97432835820895,-10.976128245338924,119.3952095808383,-125.11056009334888,-1.469151670951078,30.555713271823947,-22.40999619876912,-30.068819060367066,-5.201597199906653,-9.44634119800714,33.368628715777746,12.854251006720368,9.769230769241886,-10.337209302329004
19.451919373475395,-63.00716417910447,-10.644188883080691,119.8176979374584,-125.24022753792298,-2.122107969151614,31.817601135557084,-18.252286513602396,-30.01190184251094,-5.201210672479707,-9.446340134814031,33.36862860478723,12.854251006164763,9.769230769240117,-10.337209302328997
19.451919373475395,-63.00716417910447,-10.644188883080691,119.8176979374584,-125.24022753792298,-2.122107969151614,31.817601135557084,-9.084716473451344,2.07701194444091,28.10951729262909,30.43793284993434,-4.482351518948898,-15.939271260572728,0.5141700404982803,-8.860465116282493
19.451919373475395,-63.00716417910447,-10.644188883080691,119.8176979374584,-125.24022753792298,-2.122107969151614,31.817601135557084,-10.528964999569485,-17.193740785271668,5.207919310019789,2.0990956594712227,11.454903240076527,-0.5141700461301006,9.769230769239702,-10.337209302328985
23.234689947361645,-63.91701492537313,-10.59993030144626,120.49367930805055,-125.40694282380397,-3.5368466152527844,34.25124201561391,-12.359426937080828,-17.180264250772034,5.2079543511353945,2.099092824240719,11.454903203079683,-0.514170046234316,9.76923076923793,-10.337209302328974
23.234689947361645,-63.91701492537313,-10.59993030144626,120.49367930805055,-125.40694282380397,-3.5368466152527844,34.25124201561391,-6.721700955939962,7.177574397110028,7.289885731893143,2.099089989010702,22.411765801351304,3.599190277401738,-0.5141700404750269,-2.953488372096489
23.234689947361645,-63.91701492537313,-10.59993030144626,120.49367930805055,-125.40694282380397,-3.5368466152527844,34.25124201561391,-4.307407048259755,-15.954366199667078,11.453643155167903,-4.198429465411799,8.466667827925013,-3.599190289386837,4.627530364382265,-4.430232558143001
25.060855051996384,-63.15880597014925,-10.267990939188026,121.3949878021734,-125.61070595099184,-5.22365038560406,37.22569198012775,-3.451634627683891,-15.945212757833389,11.453467304226633,-4.198430174227035,8.466667801018197,-3.5991902893868843,4.627530364382228,-4.430232558143014
25.060855051996384,-63.15880597014925,-10.267990939188026,121.3949878021734,-125.61070595099184,-5.22365038560406,37.22569198012775,-15.56042198492232,-26.18637350114352,-2.079034755498757,9.44618845854261,14.443138302439625,-9.769230774997336,6.684210526324427,-11.813953488375502
25.060855051996384,-63.15880597014925,-10.267990939188026,121.3949878021734,-125.61070595099184,-5.22365038560406,37.22569198012775,-3.7434260067790595,-1.7982750451175598,2.0850390112811255,-45.13229422384136,-44.325488606541775,-25.194331988815055,-9.769230769214204,-10.33720930232899
23.039029400436494,-61.945671641791044,-9.8032758320265,122.21179862497226,-125.81446907817968,-6.420736932304976,39.56919801277502,-5.340536260037694,-1.836882939954858,2.0851794985037664,-45.132281110965636,-44.32548845519108,-25.19433198808593,-9.769230769209381,-10.33720930232898
23.039029400436494,-61.945671641791044,-9.8032758320265,122.21179862497226,-125.81446907817968,-6.420736932304976,39.56919801277502,-11.391367103654465,-27.5011398832481,-9.36510988813534,-15.74385710852493,-8.466665133870865,-12.854251016135999,3.5991902834199836,-7.383720930235981
23.039029400436494,-61.945671641791044,-9.8032758320265,122.21179862497226,-125.81446907817968,-6.420736932304976,39.56919801277502,-3.868921369611501,-3.1087228463887815,23.94575867270774,16.79331528024556,1.4941191102796796,-21.080971663304084,-15.939271255030963,-4.4302325581429916
20.75632301964307,-63.15880597014925,-9.714758668757637,122.83144821468173,-125.99970828471413,-7.073693230505569,41.1014904187366,-8.01402441348137,-3.1430179134496825,23.94516102637449,16.793307483380456,1.4941191069163107,-21.08097166271385,-15.93927125502406,-4.430232558143004
20.75632301964307,-63.15880597014925,-9.714758668757637,122.83144821468173,-125.99970828471413,-7.073693230505569,41.1014904187366,-22.746656277070688,-19.83397527135102,4.166548157582434,4.198266448130735,19.4235306885377,13.882591089668665,3.5991902834340896,-8.860465116282501
20.75632301964307,-63.15880597014925,-9.714758668757637,122.83144821468173,-125.99970828471413,-7.073693230505569,41.1014904187366,-4.263983812886492,-14.68681151058321,-3.1200188368695994,3.1486768008970696,5.478432725201433,12.854251008143269,12.854251012174458,-4.43023255814301
19.549749646937972,-69.2244776119403,-9.980310158564224,123.28210246174316,-126.27756709451575,-7.4545844044557725,42.543647977288856,-1.9502656733716295,-14.68214873296662,-3.119702601671051,3.1486736112651315,5.478432708384647,12.854251007587653,12.854251012171632,-4.430232558143021
19.549749646937972,-69.2244776119403,-9.980310158564224,123.28210246174316,-126.27756709451575,-7.4545844044557725,42.543647977288856,-11.516302496934761,-18.521367645916,7.290095329482279,-10.495948919951031,-30.38039047840166,-2.5708502069939874,-10.797570850166924,-7.383720930236022
19.549749646937972,-69.2244776119403,-9.980310158564224,123.28210246174316,-126.27756709451575,-7.4545844044557725,42.543647977288856,-3.781605487690366,-14.659927508786051,8.331008238445754,-29.388497359930852,7.470589638607731,-7.712550611704119,19.02429149800068,-1.4767441860500403
18.375786365387064,-69.8310447761194,-11.108903990242217,123.36660013306718,-126.37018669778297,-7.83547557840609,43.44499645138387,-9.695723293742592,-14.655370988418685,8.330937829277287,-29.388489563090562,7.470589615064248,-7.7125506115653035,19.02429149799577,-1.4767441860500607
18.375786365387064,-69.8310447761194,-11.108903990242217,123.36660013306718,-126.37018669778297,-7.83547557840609,43.44499645138387,-23.626104094448465,-15.932127797033822,0.003282060205404669,9.446204052105019,-14.443135679016166,-5.655870449556353,34.44939271255764,-20.67441860465452
18.375786365387064,-69.8310447761194,-11.108903990242217,123.36660013306718,-126.37018669778297,-7.83547557840609,43.44499645138387,-0.00501203511330317,-0.5478863516829158,11.453922713308952,-3.148834502328492,24.403922805567685,6.684210521733823,4.627530364385064,-10.337209302329002
15.73436898189753,-71.0441791044776,-12.215368531102994,123.0286094477711,-126.2960910151692,-7.781062553556126,43.174591909155424,-0.7974223636609441,-0.591012716180014,11.453746857175432,-3.148835565547537,24.403922724847266,6.6842105213865235,4.627530364385005,-10.33720930232899
15.73436898189753,-71.0441791044776,-12.215368531102994,123.0286094477711,-126.2960910151692,-7.781062553556126,43.174591909155424,-10.934251892679885,-8.321792464078952,3.125985642919182,-22.041386486345303,-14.443135790006805,-16.967611340467325,-19.02429149795078,-4.430232558142997
15.73436898189753,-71.0441791044776,-12.215368531102994,123.0286094477711,-126.2960910151692,-7.781062553556126,43.174591909155424,-21.05866119216339,-19.870411832647903,-1.0377016993685855,-3.148831312743633,-3.486273104288142,-7.712550611600409,24.165991902844134,-2.9534883720965115
15.01694697650531,-68.01134328358208,-12.923505837253892,122.521623419827,-126.05528004667445,-7.67223650385597,42.36337828246974,-16.537695896305223,-19.848519549359878,-1.0374557686863488,-3.148832375963217,-3.4862730908347848,-7.712550611461598,24.165991902837476,-2.953488372096526
15.01694697650531,-68.01134328358208,-12.923505837253892,122.521623419827,-126.05528004667445,-7.67223650385597,42.36337828246974,-0.8627853698787273,-10.857689090657816,11.45416819940111,-38.834760947942755,-0.49803781321730123,-6.68421053038772,24.165991902830807,-5.906976744189531
15.01694697650531,-68.01134328358208,-12.923505837253892,122.521623419827,-126.05528004667445,-7.67223650385597,42.36337828246974,-15.756050670644434,-21.1164680965581,-4.160230213026331,-16.79344179430829,14.44313851096664,7.712550602807308,-1.5425101214538293,-5.906976744189533
17.038772628065203,-64.52358208955224,-12.989893709705537,122.0991350632069,-125.74037339556594,-8.16195372750633,42.00283889283173,-19.65619563638802,-21.09036262461051,-4.159878842091937,-16.793438250299427,14.443138463879706,7.712550602425285,-1.5425101214518175,-5.906976744189537
17.038772628065203,-64.52358208955224,-12.989893709705537,122.0991350632069,-125.74037339556594,-8.16195372750633,42.00283889283173,-6.426077781446228,23.780642880478275,74.95253345294788,6.297459564083043,6.474511045688434,-3.5991902882424758,-4.627530364363162,-3.558930927738402e-12
17.038772628065203,-64.52358208955224,-12.989893709705537,122.0991350632069,-125.74037339556594,-8.16195372750633,42.00283889283173,-10.069539198818854,-19.908478160789265,-3.1208992387444248,-8.39675013354355,16.435295239388715,-0.514170045437349,-2.570850202417871,-7.383720930236061
17.658364359994845,-71.19582089552239,-12.812859383167813,121.59214903526279,-125.59218203033839,-9.086975149957084,42.99432221433631,-3.43546712285453,-19.886626167671643,-3.1205829891618535,-8.396749424753592,16.43529518557507,-0.5141700455415914,-2.570850202415513,-7.383720930236059
17.658364359994845,-71.19582089552239,-12.812859383167813,121.59214903526279,-125.59218203033839,-9.086975149957084,42.99432221433631,-7.839529586002854,-24.989965043807032,-11.447852106006064,-24.140540263946164,-24.403920145148305,3.5991902780944347,6.684210526326913,-7.383720930236057
17.658364359994845,-71.19582089552239,-12.812859383167813,121.59214903526279,-125.59218203033839,-9.086975149957084,42.99432221433631,-6.833605041185747,-9.575497186176031,10.412656894125373,-1.0496399687476803,-41.33725322466134,2.5708501969162363,0.5141700404994332,-8.860465116282551
13.582102965720871,-72.71223880597014,-12.370273566823503,120.83166999334662,-125.49956242707117,-9.141388174807162,42.99432221433631,-10.907472538531017,-9.58844517843959,10.412516191542444,-1.0496417407750966,-41.337253083400725,2.570850196707826,0.5141700405007485,-8.860465116282542
13.582102965720871,-72.71223880597014,-12.370273566823503,120.83166999334662,-125.49956242707117,-9.141388174807162,42.99432221433631,-10.091371726025216,-23.69551939652759,-11.447536081478422,-29.388468299170555,16.43529549836635,-11.825910936591525,1.5425101214731827,-5.90697674418954
13.582102965720871,-72.71223880597014,-12.370273566823503,120.83166999334662,-125.49956242707117,-9.141388174807162,42.99432221433631,-23.223817997269975,-15.973159322760612,6.249180232695595,-12.595082851153943,-7.470586668760295,1.5425101158420524,-4.6275303643525625,-5.90697674418954
8.723199383746291,-71.19582089552239,-12.03833420456527,119.84586382789973,-125.40694282380397,-8.053127677806287,41.46202980837472,-20.95440593382942,-15.964542163719685,6.249180118933849,-12.595080724756741,-7.470586641853542,1.5425101156683647,-4.627530364349509,-5.90697674418954
8.723199383746291,-71.19582089552239,-12.03833420456527,119.84586382789973,-125.40694282380397,-8.053127677806287,41.46202980837472,-6.801019939050201,-6.986965350845269,2.085387324611201,-9.44632028876341,22.411766026694483,5.655870439234944,5.655870445364731,-1.4767441860500554
8.723199383746291,-71.19582089552239,-12.03833420456527,119.84586382789973,-125.40694282380397,-8.053127677806287,41.46202980837472,-11.786333532667685,-21.10282991171318,7.290268655700633,18.89250556079452,-5.47842984616443,-6.684210532298447,3.599190283422075,-11.813953488375537
8.723199383746291,-65.73671641791044,-11.374455480048804,119.16988245730758,-125.3328471411902,-6.8016281062552935,39.56919801277502,-8.95250013906151,-21.076954426639595,7.290233390909515,18.892497055121723,-5.478429825984381,-6.684210532194362,3.5991902834223506,-11.813953488375518
8.723199383746291,-65.73671641791044,-11.374455480048804,119.16988245730758,-125.3328471411902,-6.8016281062552935,39.56919801277502,-6.74577733302389,-13.363433948810856,18.740627998138635,32.53710789103512,23.407844414448903,2.5708501963253285,2.570850202451508,-11.813953488375493
8.723199383746291,-65.73671641791044,-11.374455480048804,119.16988245730758,-125.3328471411902,-6.8016281062552935,39.56919801277502,-8.380394046852501,-5.67593525043884,4.166931718429311,18.892475436550505,27.392158022643994,4.627530357987046,14.910931174105553,-2.953488372096495
10.190653485684923,-58.45791044776119,-9.714758668757637,119.14171656686625,-125.4254667444574,-5.604541559554377,38.127040454222765,-10.246065991395596,-5.702121747269615,4.1670019075433515,18.892466930882794,27.39215793183351,4.627530357709183,14.910931174102004,-2.9534883720965004
10.190653485684923,-58.45791044776119,-9.714758668757637,119.14171656686625,-125.4254667444574,-5.604541559554377,38.127040454222765,-19.340602012874157,-31.353975409106855,-24.979476668270195,-33.58684673472487,5.478432570486086,-25.194331989685633,11.825910931185096,-13.290697674421972
10.190653485684923,-58.45791044776119,-9.714758668757637,119.14171656686625,-125.4254667444574,-5.604541559554377,38.127040454222765,-1.2063995590493075,-1.8240350946576758,9.372867292534128,-8.221791206963758e-05,20.419608874489903,0.5141700344201245,8.740890688269232,-7.38372093023596
10.679804852997801,-55.12179104477612,-8.387001219724706,119.47970725216231,-125.64775379229872,-4.080976863753108,36.59474804826118,-4.424367900335726,-1.8632699294089399,9.372761718562709,-8.434433701065558e-05,20.419608807222843,0.5141700342811388,8.740890688267761,-7.383720930235949
10.679804852997801,-55.12179104477612,-8.387001219724706,119.47970725216231,-125.64775379229872,-4.080976863753108,36.59474804826118,-11.704736634244318,-12.152733047340671,-13.528203596578354,-22.041394637936975,-7.4705870589094125,-5.655870451468255,-7.712550607271609,-13.290697674421917
10.679804852997801,-55.12179104477612,-8.387001219724706,119.47970725216231,-125.64775379229872,-4.080976863753108,36.59474804826118,-5.433617837443637,-10.875972895853312,20.82375371569183,-16.79345880591869,-4.482351767838583,-8.740890694204111,-4.627530364354168,-1.476744186049924
11.103736038002292,-53.45373134328358,-7.700993204391024,119.9585273896651,-125.90708868144691,-2.666238217652051,35.15259048970893,-3.6722849016548578,-10.884831663594081,20.823261499712668,-16.793455261906963,-4.482351751021926,-8.740890694030599,-4.62753036435112,-1.4767441860499346
11.103736038002292,-53.45373134328358,-7.700993204391024,119.9585273896651,-125.90708868144691,-2.666238217652051,35.15259048970893,-9.399476599289848,-13.4562598211562,-5.200934961305533,1.049512036484228,-9.462743841145478,-2.5708502082466804,4.627530364391994,-2.95348837209644
11.103736038002292,-53.45373134328358,-7.700993204391024,119.9585273896651,-125.90708868144691,-2.666238217652051,35.15259048970893,-13.334357849400046,-5.768757579398874,0.004192403991472027,-11.545523682730334,-1.4941164364077275,3.599190277328902,20.052631578958696,-4.430232558142942
10.581974579535224,-57.548059701492534,-8.298484056455843,120.21202040363715,-126.11085180863478,-0.9794344473007186,33.34989354151878,-13.739157563773738,-5.794935245476144,0.004403169250733363,-11.545521910730905,-1.4941164296811074,3.5991902770857465,20.052631578953406,-4.430232558142942
10.581974579535224,-57.548059701492534,-8.298484056455843,120.21202040363715,-126.11085180863478,-0.9794344473007186,33.34989354151878,-11.646408288384803,-17.35264338409308,-7.282023260013894,-11.545520138731781,-6.474508529894698,-10.797570856248349,27.25101214574595,-4.430232558142943
10.581974579535224,-57.548059701492534,-8.298484056455843,120.21202040363715,-126.11085180863478,-0.9794344473007186,33.34989354151878,-9.358418194018682,-26.308812843021578,10.414552430242793,-24.140551605118883,-32.37254746244043,-1.542510127589785,-9.76923076922204,-13.290697674421914
10.647194761843608,-61.33910447761194,-9.095138525875603,120.24018629407848,-126.20347141190197,0.8161953727507125,31.096522356280957,-12.21437227856612,-26.26574007821362,10.41441169493025,-24.14054558029271,-32.372547351449946,-1.5425101276593294,-9.769230769217257,-13.290697674421882
10.647194761843608,-61.33910447761194,-9.095138525875603,120.24018629407848,-126.20347141190197,0.8161953727507125,31.096522356280957,-18.285398483584878,-26.222755563197143,6.250478281423999,24.140421191678534,27.392158042823088,4.6275303578815254,-15.939271255039188,-4.4302325581428805
10.647194761843608,-61.33910447761194,-9.095138525875603,120.24018629407848,-126.20347141190197,0.8161953727507125,31.096522356280957,1.4817704487453387,7.133540280235707,20.82375252689058,-15.743861007558696,7.470589524251775,-4.6275303708119635,9.76923076924564,-4.4302325581428805
15.701758890743339,-61.64238805970149,-10.533542428994613,120.35284985584386,-126.12937572928823,1.3059125964010718,30.014904187366824,2.7967537862804814,7.063859524535619,20.82326031058991,-15.743857817951227,7.4705895007082885,-4.627530370777347,9.76923076924382,-4.4302325581428805
15.701758890743339,-61.64238805970149,-10.533542428994613,120.35284985584386,-126.12937572928823,1.3059125964010718,30.014904187366824,4.134698520402184,4.431713604154496,40.60078333508205,4.198281332433421,4.482354213000674,2.5708501958027385,2.570850202444167,-5.906976744189375
20.430222108101148,-67.10149253731343,-11.418714061683234,120.35284985584386,-126.07380396732788,0.2720651242502754,31.36692689850952,1.7711892745758817,4.3708971452056815,40.59962331264556,4.198277788396048,4.482354199547233,2.5708501955942973,2.5708502024447766,-5.90697674418937
20.430222108101148,-67.10149253731343,-11.418714061683234,120.35284985584386,-126.07380396732788,0.2720651242502754,31.36692689850952,-12.318318827427783,-18.752947727834297,-18.735582387786835,-17.843033922816108,-9.462743713338803,-13.882591099575219,1.5425101214742676,-8.860465116282356
20.430222108101148,-67.10149253731343,-11.418714061683234,120.35284985584386,-126.07380396732788,0.2720651242502754,31.36692689850952,-13.25169462209698,-16.173127629520735,1.043276329480018,8.39662255556677,-10.458822101093396,-8.740890694552766,9.769230769244174,-7.3837209302358415
17.071382719219393,-73.47044776119402,-12.28175640355464,119.8176979374584,-125.98118436406068,-0.3264781491001827,32.088005677785645,-13.445845263237041,-16.164565017212787,1.0434519772720572,8.396617593920725,-10.458822064096589,-8.74089069437926,9.769230769242352,-7.383720930235828
17.071382719219393,-73.47044776119402,-12.28175640355464,119.8176979374584,-125.98118436406068,-0.3264781491001827,32.088005677785645,-35.593497830033044,-23.843731535747455,14.575953833793589,-1.0496622965139295,-24.40391992653237,-25.194331989166834,-26.222672064748622,-16.244186046514784
17.071382719219393,-73.47044776119402,-12.28175640355464,119.8176979374584,-125.98118436406068,-0.3264781491001827,32.088005677785645,-4.068498664425054,-9.715122403356373,6.248087183225053,-4.198422378134051,19.423530698625186,-11.825910936281891,24.165991902846514,-3.2924774018283642e-12
14.136474515342131,-73.6220895522388,-12.503049311726796,119.02905300510089,-125.87004084014004,-0.4897172236503593,32.17814052519509,-10.467886795763697,-9.728301100446435,6.248087086939234,-4.198423086950479,19.42353063472152,-11.825910936004218,24.16599190283983,-3.304023721284466e-12
14.136474515342131,-73.6220895522388,-12.503049311726796,119.02905300510089,-125.87004084014004,-0.4897172236503593,32.17814052519509,-11.257480105547957,-27.679450382213687,-16.652772752288037,7.347023339420316,23.407844256370005,7.71255060203973,-6.6842105263004274,-8.860465116282288
14.136474515342131,-73.6220895522388,-12.503049311726796,119.02905300510089,-125.87004084014004,-0.4897172236503593,32.17814052519509,-10.950455023132351,-0.725052775915076,31.231616245846674,-13.644703331797768,-14.44313583373269,2.5708501969823443,11.825910931183422,4.43023255813619
14.234304788804707,-69.8310447761194,-12.72434221989895,118.21224218230205,-125.68480163360559,-0.9794344473007186,32.53867991483321,-5.812919439318957,-0.768575411165914,31.230772570923875,-13.644700850992455,-14.443135783282509,2.570850196773905,11.825910931180887,4.430232558136167
14.234304788804707,-69.8310447761194,-12.72434221989895,118.21224218230205,-125.68480163360559,-0.9794344473007186,32.53867991483321,-8.211204331856887,-17.468731323337988,0.001483806243746777,-30.438076021368804,-9.462743625892113,-7.712550612785206,5.655870445351638,-8.860465116282313
14.234304788804707,-69.8310447761194,-12.72434221989895,118.21224218230205,-125.68480163360559,-0.9794344473007186,32.53867991483321,6.753145643347157,-0.7991746105794828,5.206435467300044,8.396617948229146,-14.443135699198878,2.570850196704251,22.109311740889083,-7.383720930235794
13.060341507253803,-68.31462686567164,-13.299703781146555,117.36726546906186,-125.49956242707117,-1.3059125964009581,32.71894960965221,0.6227085986739986,-0.8425874858379192,5.206470531297995,8.396612986583879,-14.44313564874868,2.5708501964958117,22.10931174088307,-7.383720930235773
13.060341507253803,-68.31462686567164,-13.299703781146555,117.36726546906186,-125.49956242707117,-1.3059125964009581,32.71894960965221,-19.443888016802763,-9.85492183809221,11.452194615475344,10.495780231337108,-4.482351384418055,-31.364372474569844,8.740890688252499,-8.860465116282247
13.060341507253803,-68.31462686567164,-13.299703781146555,117.36726546906186,-125.49956242707117,-1.3059125964009581,32.71894960965221,-22.808865938292325,-34.212315031060655,7.288226106336346,3.1486718384971173,27.392158116816006,-8.740890693060962,-12.854251012142509,-16.24418604651469
13.875593786108597,-70.43761194029851,-13.786548179125298,116.71944998891104,-125.4254667444574,-1.7956298200513743,33.440028388928226,-19.61365127325977,-34.14307821066244,7.288190874923296,3.148668648865998,27.392158026005532,-8.74089069288745,-12.854251012136729,-16.244186046514635
13.875593786108597,-70.43761194029851,-13.786548179125298,116.71944998891104,-125.4254667444574,-1.7956298200513743,33.440028388928226,-8.383075294572958,-16.13597800301642,-16.653652268966237,-27.289331533530582,-34.36470419086358,0.5141700357016674,17.995951417002622,-1.47674418604963
13.875593786108597,-70.43761194029851,-13.786548179125298,116.71944998891104,-125.4254667444574,-1.7956298200513743,33.440028388928226,-12.763397662453954,-13.564986869539693,-6.243397380972592,-25.190152239096175,-10.458821959833394,1.5425101164977448,-21.08097165990452,-8.860465116282104
18.180125818461917,-64.82686567164178,-12.657954347447305,116.80394766023507,-125.48103850641775,-2.8294772922021707,35.15259048970893,-13.90431916538067,-13.565239306227035,-6.2429756930113385,-25.190145859865222,-10.458821922836606,1.5425101163240313,-21.080971659895965,-8.860465116282075
18.180125818461917,-64.82686567164178,-12.657954347447305,116.80394766023507,-125.48103850641775,-2.8294772922021707,35.15259048970893,-8.519225665995172,-11.002929146366984,19.781150241114396,-15.7438645518459,14.443138648861241,1.542510116150317,14.910931174101737,-3.072209153742733e-12
18.180125818461917,-64.82686567164178,-12.657954347447305,116.80394766023507,-125.48103850641775,-2.8294772922021707,35.15259048970893,-9.484651217001195,-4.605424153023892,-6.243011052600156,-35.685997323015556,-32.3725472034637,-11.825910936179271,-2.570850202410889,-4.430232558142559
18.832327641545753,-56.789850746268655,-11.064645408607786,117.33909957862052,-125.57365810968494,-3.5912596401027486,36.50461320085162,-7.205226060448613,-4.635965172343633,-6.242589371250341,-35.68598739976427,-32.37254709247321,-11.825910935901595,-2.5708502024085966,-4.430232558142545
18.832327641545753,-56.789850746268655,-11.064645408607786,117.33909957862052,-125.57365810968494,-3.5912596401027486,36.50461320085162,-3.9174831854107213,-29.01086767151258,-4.160271356786362,-3.1488082773509958,3.486276188486791,6.684210521207291,23.13765182187166,-10.337209302328512
18.832327641545753,-56.789850746268655,-11.064645408607786,117.33909957862052,-125.57365810968494,-3.5912596401027486,36.50461320085162,-12.347920550284183,-14.864982022608078,-3.1189718167328113,11.545396104209136,24.403923027545588,-4.627530369425776,-6.684210526297175,-11.813953488374974
17.821414815765806,-59.51940298507462,-11.219550444328295,117.73342204479927,-125.64775379229872,-4.080976863753108,37.22569198012775,-11.900076580360777,-14.860911217359607,-3.118655601341869,11.54539007935362,24.403922946825155,-4.6275303693911605,-6.6842105262935,-11.813953488374935
17.821414815765806,-59.51940298507462,-11.219550444328295,117.73342204479927,-125.64775379229872,-4.080976863753108,37.22569198012775,-19.946740548795184,-13.575568724406741,-19.77351011344717,-19.942199041465717,-26.39607662468544,-12.854251016837082,6.6842105263347165,-10.337209302328402
17.821414815765806,-59.51940298507462,-11.219550444328295,117.73342204479927,-125.64775379229872,-4.080976863753108,37.22569198012775,-4.378773874545392,-9.73199624552791,17.701502592962406,14.694146971311213,-8.466664948890303,-26.222672068680556,1.5425101214782844,-7.383720930235379
18.408396456541258,-65.73671641791044,-12.348144276006288,117.93058327788864,-125.64775379229872,-4.461868037703425,37.76650106458476,-9.361344792653203,-9.745262167748965,17.70111581147372,14.694139883250045,-8.46666491862021,-26.222672067916772,1.5425101214791814,-7.383720930235356
18.408396456541258,-65.73671641791044,-12.348144276006288,117.93058327788864,-125.64775379229872,-4.461868037703425,37.76650106458476,-18.02641588118736,-21.290072760489526,4.168402824752688,13.644546691991248,17.431374067738986,5.655870441834098,-13.882591093086702,-11.813953488374818
18.408396456541258,-65.73671641791044,-12.348144276006288,117.93058327788864,-125.64775379229872,-4.461868037703425,37.76650106458476,8.128172327764851,47.925005610682554,86.40337842803036,-3.1488376928464614,-19.423527580795568,-0.5141700440889108,3.5991902834284195,-1.4767441860493111
23.952111952753864,-66.19164179104477,-13.100540163791615,118.35307163450875,-125.57365810968494,-5.931019708654617,39.47906316536546,7.294298692043103,47.71704334486109,86.4006718531776,-3.148838756064942,-19.423527513528633,-0.5141700441931825,3.5991902834286207,-1.4767441860493076
23.952111952753864,-66.19164179104477,-13.100540163791615,118.35307163450875,-125.57365810968494,-5.931019708654617,39.47906316536546,-8.181979392502555,0.10190892376706095,27.06391962644629,-8.396770335277381,6.4745115098273995,-10.797570853648125,17.995951417024482,-7.383720930235285
23.952111952753864,-66.19164179104477,-13.100540163791615,118.35307163450875,-125.57365810968494,-5.931019708654617,39.47906316536546,-22.786962802490503,-43.50892889569039,-45.80315529825725,-14.694286245676953,14.44313886075159,-6.684210529664906,-0.5141700404603187,-8.860465116281755
26.300038515855675,-61.79402985074626,-12.879247255619461,118.80372588157017,-125.31432322053675,-7.9443016281062455,41.281760113555606,-17.913278536614882,-43.40889625718293,-45.80139790244621,-14.694283410469858,14.443138813664646,-6.684210529560845,-0.5141700404587333,-8.860465116281723
26.300038515855675,-61.79402985074626,-12.879247255619461,118.80372588157017,-125.31432322053675,-7.9443016281062455,41.281760113555606,5.988022039814796,18.19264222414996,42.68095392494,-19.942211091257384,13.447060345189653,0.5141700370886877,7.712550607311799,-2.7204904995414836e-12
26.300038515855675,-61.79402985074626,-12.879247255619461,118.80372588157017,-125.31432322053675,-7.9443016281062455,41.281760113555606,-16.62032457157074,-20.35384787751414,-5.20389219254719,-43.03310075441393,31.37647188645081,-12.854251015206179,6.684210526339486,-11.813953488374686
21.930286301193973,-62.70388059701492,-12.326014985189072,118.86005766245285,-125.03646441073514,-9.250214224507204,42.273243435060294,-21.23446365742946,-20.33181162253618,-5.203505629308667,-43.03308835034636,31.376471782186908,-12.854251014893782,6.684210526338639,-11.813953488374647
21.930286301193973,-62.70388059701492,-12.326014985189072,118.86005766245285,-125.03646441073514,-9.250214224507204,42.273243435060294,-28.759187791813204,-15.184662128361062,-4.1621709024861495,13.644573626455795,9.462746407386069,-13.882591095516446,9.769230769251145,-8.860465116281617
21.930286301193973,-62.70388059701492,-12.326014985189072,118.86005766245285,-125.03646441073514,-9.250214224507204,42.273243435060294,-22.208452558721106,-20.30512154317072,-36.431212775017855,-14.694257893573546,-9.462743629256964,9.76923076633722,5.65587044536478,-14.767441860467567
18.930157915008326,-66.19164179104477,-11.68426555148982,118.63473053892213,-124.86974912485414,-10.011996572407838,42.814052519517304,-13.146512826477156,-20.28313413308402,-36.42977177396231,-14.694255058371217,-9.462743595623557,9.769230765885725,5.655870445364277,-14.767441860467518
18.930157915008326,-66.19164179104477,-11.68426555148982,118.63473053892213,-124.86974912485414,-10.011996572407838,42.814052519517304,-0.9354006610643406,-21.542459003828103,18.741922219753917,-7.347149500777573,-21.415684618646658,-10.797570853267114,7.712550607306012,-2.5162094630104548e-12
18.930157915008326,-66.19164179104477,-11.68426555148982,118.63473053892213,-124.86974912485414,-10.011996572407838,42.814052519517304,-12.585394849259158,-31.766478917513098,-1.03651493425542,-4.6424000529121656e-05,-21.415684544653047,-6.684210529283892,11.825910931189288,-10.337209302327986
16.45179098728975,-71.0441791044776,-11.861299878027545,118.15591040141936,-124.74008168028004,-10.338474721508078,43.084457061745866,-19.01243556685612,-31.705648502164205,-1.0362690259723744,-4.855043146179128e-05,-21.41568447065943,-6.684210529179828,11.825910931186701,-10.337209302327953
16.45179098728975,-71.0441791044776,-11.861299878027545,118.15591040141936,-124.74008168028004,-10.338474721508078,43.084457061745866,-6.2089173793719326,-20.113355403599492,-8.322660312808003,-10.495911708850311,11.454903509139594,2.5708501993398407,2.5708502024440443,-5.906976744188435
16.45179098728975,-71.0441791044776,-11.861299878027545,118.15591040141936,-124.74008168028004,-10.338474721508078,43.084457061745866,-28.983214347928683,-46.99864112449419,-33.304924456151504,-8.396738084859836,-13.447057062558361,11.825910927547007,13.882591093126887,-4.430232558141923
15.506098343818188,-74.53194029850746,-12.348144276006288,117.6770902639166,-124.72155775962659,-10.392887746358156,43.35486160397443,-18.008001980295226,-46.88613346125837,-33.30358895916329,-8.396737376071862,-13.447057015471527,11.825910927026063,13.882591093123605,-4.4302325581419115
15.506098343818188,-74.53194029850746,-12.348144276006288,117.6770902639166,-124.72155775962659,-10.392887746358156,43.35486160397443,3.314091380766163,-10.897852382295095,19.786103191985198,-25.19011431846525,-3.4862727545042658,-1.5425101256507552,1.5425101214668997,-8.860465116281386
15.506098343818188,-74.53194029850746,-12.348144276006288,117.6770902639166,-124.72155775962659,-10.392887746358156,43.35486160397443,-5.26732858974278,-22.43844242082001,2.089527174828423,-4.1462468796993335e-05,-5.478429583827003,-1.5425101257203102,-3.599190283387804,-14.767441860467338
18.701887276928986,-72.4089552238806,-11.905558459661977,117.62075848303391,-124.77712952158694,-10.937017994858593,44.346344925479,-9.525971419956713,-22.40852842665707,2.089667583152302,-4.358890056277431e-05,-5.478429563646957,-1.5425101257898675,-3.5991902833851785,-14.76744186046729
18.701887276928986,-72.4089552238806,-11.905558459661977,117.62075848303391,-124.77712952158694,-10.937017994858593,44.346344925479,-17.681447325963937,-27.503815670012727,-10.401570052539366,-4.571533196795485e-05,-34.36470376372014,-22.109311744560767,7.712550607299752,-2.953488372095281
18.701887276928986,-72.4089552238806,-11.905558459661977,117.62075848303391,-124.77712952158694,-10.937017994858593,44.346344925479,10.58252621765206,50.7016420893668,79.1205347650822,43.03298238938892,-26.396076274898594,1.5425101175706777,4.627530364385203,2.953488372090705
20.82154320195145,-62.8555223880597,-11.24167973514551,117.95874916832999,-124.77712952158694,-11.862039417309234,45.60823278921214,6.1052973288810595,50.484736745318315,79.1180741653811,43.03296573246381,-26.39607618408818,1.5425101173969624,4.627530364385051,2.953488372090689
20.82154320195145,-62.8555223880597,-11.24167973514551,117.95874916832999,-124.77712952158694,-11.862039417309234,45.60823278921214,-15.015172845107292,-21.48374306143142,10.413034378434892,9.446193773179026,15.43921760502001,-1.542510125581956,-4.627530364355168,-13.290697674420775
20.82154320195145,-62.8555223880597,-11.24167973514551,117.95874916832999,-124.77712952158694,-11.862039417309234,45.60823278921214,-5.073313898787281,-25.301486560432277,-11.447017905908634,3.1486718379402685,25.400001768450178,5.655870440893963,5.655870445358992,-8.860465116281247
19.71280010270893,-57.548059701492534,-11.352326189231588,118.26857396318472,-124.68450991831972,-12.732647814910024,46.41944641589771,-1.3646515195282358,-25.262436277284166,-11.44642049531291,3.14866864830919,25.40000168436643,5.655870440581353,5.6558704453584925,-8.860465116281224
19.71280010270893,-57.548059701492534,-11.352326189231588,118.26857396318472,-124.68450991831972,-12.732647814910024,46.41944641589771,4.767205665067275,-7.285463649310388,4.168399457148204,-10.495953882906115,22.411766336118557,-5.655870450016997,2.5708502024446367,-1.4767441860487232
19.71280010270893,-57.548059701492534,-11.352326189231588,118.26857396318472,-124.68450991831972,-12.732647814910024,46.41944641589771,-6.471867622401641,1.6618836449329581,15.618899490516322,-32.53726063248156,-6.474507958128367,4.627530359403011,5.655870445358535,-4.430232558141714
19.125818461933477,-55.27343283582089,-12.569437184178442,118.52206697715678,-124.42517502917153,-13.385604113110503,46.329311568488265,-12.051488308563638,1.609994441676676,15.618583017015824,-32.53725177243351,-6.4745079345849375,4.627530359125121,5.655870445358035,-4.430232558141705
19.125818461933477,-55.27343283582089,-12.569437184178442,118.52206697715678,-124.42517502917153,-13.385604113110503,46.329311568488265,-34.21936182817893,-26.63006303364243,-15.61017855515421,-4.19841812601863,56.27843263640516,32.39271254409403,15.939271255068721,-11.813953488374171
19.125818461933477,-55.27343283582089,-12.569437184178442,118.52206697715678,-124.42517502917153,-13.385604113110503,46.329311568488265,-15.753883098474937,-50.93099153380981,-30.182714943020827,4.198269990754843,10.458825064207648,-5.655870451718852,-2.5708502024153868,-13.290697674420631
22.810758762357153,-47.236417910447756,-13.144798745426048,119.19804834774894,-124.01764877479579,-14.637103684661497,46.329311568488265,-12.066331502629597,-50.80538030817008,-30.18148488165749,4.1982664467193835,10.458825030574138,-5.655870451649517,-2.5708502024131086,-13.290697674420592
22.810758762357153,-47.236417910447756,-13.144798745426048,119.19804834774894,-124.01764877479579,-14.637103684661497,46.329311568488265,-6.835335110428679,-10.960159213202756,21.86715366551763,-6.2975981293037515,3.4862760472243304,-9.769230775320452,-30.336032388631033,-13.290697674420555
22.810758762357153,-47.236417910447756,-13.144798745426048,119.19804834774894,-124.01764877479579,-14.637103684661497,46.329311568488265,24.43218200788081,53.09513549934387,87.44636097547044,13.644537831462742,12.450981829626642,-21.080971665397964,19.02429149799432,-1.4767441860485597
31.02850173321349,-50.87582089552238,-13.52099668931871,120.26835218451983,-123.72126604434072,-17.901885175664006,49.84457061745911,11.378116173842134,52.869892754660896,87.4436192164932,13.644531097807757,12.450981789266427,-21.080971664807787,19.024291497989307,-1.4767441860485704
31.02850173321349,-50.87582089552238,-13.52099668931871,120.26835218451983,-123.72126604434072,-17.901885175664006,49.84457061745911,-47.046630498716,-42.17002452396662,-68.70134801610492,-19.942230938208578,48.30980491887572,12.854251006639608,-68.3846153845608,-28.058139534885495
31.02850173321349,-50.87582089552238,-13.52099668931871,120.26835218451983,-123.72126604434072,-17.901885175664006,49.84457061745911,56.880833618043596,-92.04443237489248,-71.8216619085733,-66.124014871736,-45.32156685304106,4.627530358603405,3.59919028344201,17.720930232555943
33.18076774939014,-50.72417910447761,-16.065865133298498,121.16966067864269,-123.16554842473747,-21.819622964867108,53.44996451383952,47.609497731100944,-91.78016498548277,-71.81902588772097,-66.12399467081445,-45.32156669832704,4.627530358325512,3.599190283442197,17.720930232555858
33.18076774939014,-50.72417910447761,-16.065865133298498,121.16966067864269,-123.16554842473747,-21.819622964867108,53.44996451383952,-3.5680009765172347,45.58110920354823,61.42497586553945,-18.892599825949056,22.411766110773872,32.39271254329442,29.30769230772035,5.906976744183808
33.18076774939014,-50.72417910447761,-16.065865133298498,121.16966067864269,-123.16554842473747,-21.819622964867108,53.44996451383952,2.6116920395053054,45.38154693629857,61.423112781266646,-18.89259557313796,22.41176603678016,32.392712542079025,29.307692307711857,5.906976744183758
33.18076774939014,-50.72417910447761,-16.065865133298498,121.16966067864269,-123.16554842473747,-21.819622964867108,53.44996451383952,-20.74211432099755,22.11919822100652,20.824271093232298,66.12388303877746,-52.29411564131673,-32.392712558045595,-42.67611336027493,-19.197674418606713
26.169598151238908,-30.100895522388058,-20.27043038856945,121.5358172543801,-121.90592182030338,-24.975578406169575,53.35982966643007,-21.616032926002596,21.998193650777623,20.823778865720445,66.12385858500056,-52.29411546305924,-32.392712557073466,-42.67611336025913,-19.197674418606674
26.169598151238908,-30.100895522388058,-20.27043038856945,121.5358172543801,-121.90592182030338,-24.975578406169575,53.35982966643007,29.088416808416824,105.16091232867609,127.0,6.297426248894615,-29.384311592876788,-6.684210532724664,-3.5991902833408265,32.48837209302069
26.169598151238908,-30.100895522388058,-20.27043038856945,121.5358172543801,-121.90592182030338,-24.975578406169575,53.35982966643007,-17.442662686649854,59.91418145835006,124.91402629539628,-39.88436654469116,102.09804013124524,78.66801618498998,110.54655870445595,31.011627906974056
18.636667094620602,-17.817910447761186,-27.50670848579893,120.85983588378795,-119.86829054842474,-27.913881748071958,50.385379701916236,-16.06174486994537,59.664560090063546,124.91001929701397,-39.88435520382646,102.09803978818357,78.66801618221206,110.54655870442,31.011627906973906
18.636667094620602,-17.817910447761186,-27.50670848579893,120.85983588378795,-119.86829054842474,-27.913881748071958,50.385379701916236,-55.95835769513872,-82.80718135851055,-3.1306125600076466,-14.694277386191803,-52.294115870024655,-3.599190295371238,-6.684210526323481,-5.90697674418861
18.636667094620602,-17.817910447761186,-27.50670848579893,120.85983588378795,-119.86829054842474,-27.913881748071958,50.385379701916236,-41.58618521475327,-51.82478564386179,16.6477190826596,-57.72730478213814,87.15686330255873,-74.55465587989102,-32.3927125505978,-33.96511627907203
22.843368853511343,-9.932537313432832,-32.95051402683396,119.22621423819027,-116.94151108518085,-33.191945158526096,48.582682753725976,-31.793867220658573,-51.697396575912975,16.647367664801095,-57.727287416438585,87.15686300994729,-74.55465587749532,-32.39271255058547,-33.965116279071935
22.843368853511343,-9.932537313432832,-32.95051402683396,119.22621423819027,-116.94151108518085,-33.191945158526096,48.582682753725976,-13.40814629308548,-63.10174162801311,-98.89823063181159,-17.842998129186505,45.321569019038044,-24.16599190928137,66.32793522265426,17.72093023255547
22.843368853511343,-9.932537313432832,-32.95051402683396,119.22621423819027,-116.94151108518085,-33.191945158526096,48.582682753725976,-84.62654400356887,-127.0,-56.21580557188251,-3.1487887859967487,-28.388234315027905,-7.712550613626025,-6.684210526316145,-57.59302325581589
19.51713955578378,-15.694925373134325,-39.10245687401988,115.02949656243067,-112.73658109684948,-39.39502999143099,45.06742370475513,-86.0263314174513,-126.61796405064615,-56.21369663838575,-3.148789849223481,-28.388234217490872,-7.71255061348731,-6.684210526312473,-57.59302325581574
19.51713955578378,-15.694925373134325,-39.10245687401988,115.02949656243067,-112.73658109684948,-39.39502999143099,45.06742370475513,97.5459493742794,118.48880279233975,122.83149752229572,66.12389189867261,-51.29803781187879,-16.9676113417642,10.797570850200216,28.05813953488112
19.51713955578378,-15.694925373134325,-39.10245687401988,115.02949656243067,-112.73658109684948,-39.39502999143099,45.06742370475513,-94.0246402539321,-90.80618183817037,-127.0,45.132145380917706,-61.25882185086513,-17.99595142224805,-29.307692307675644,-16.24418604651389
18.310566183078684,-14.481791044776116,-44.92246035894756,109.03016189842535,-107.38316802800466,-46.14224507283632,40.20014194464159,-45.63236079141916,-90.5458046013879,-126.9955009690105,45.13212801518954,-61.25882164233756,-17.995951421762115,-29.307692307664333,-16.24418604651389
18.310566183078684,-14.481791044776116,-44.92246035894756,109.03016189842535,-107.38316802800466,-46.14224507283632,40.20014194464159,-17.247784842349763,-49.28476101764478,-7.281962448762187,-22.041399955260673,3.486275956412783,-0.5141700453800362,30.336032388671864,-32.48837209302535
18.310566183078684,-14.481791044776116,-44.92246035894756,109.03016189842535,-107.38316802800466,-46.14224507283632,40.20014194464159,63.61796486154749,4.650233265981015,22.905991279396886,-40.93394449681447,38.349020694904155,32.392712544437764,36.50607287448974,23.627906976741514
18.47361663884964,21.457313432835832,-49.41470639484232,104.60811709913504,-102.10385064177362,-54.630676949443,38.75798438608933,24.596863928982827,4.589344295069086,22.90542875764617,-40.93393280154884,38.34902056709681,32.3927125432223,36.50607287447882,23.627906976741357
18.47361663884964,21.457313432835832,-49.41470639484232,104.60811709913504,-102.10385064177362,-54.630676949443,38.75798438608933,-68.84970597070651,-114.63092847401775,-79.10805442763339,-70.32233199585235,-22.411763265381133,-7.71255061446076,-15.939271255059165,-47.25581395349055
18.47361663884964,21.457313432835832,-49.41470639484232,104.60811709913504,-102.10385064177362,-54.630676949443,38.75798438608933,-46.71559955647021,-63.037902909530025,70.79136412774864,-16.793419114185962,-20.419606345248116,-46.78947368985459,1.5425101214566337,-16.244186046514045
2.070740788291163,15.240000000000009,-63.99790904338736,97.79197161233088,-95.80571761960327,-62.411739502999126,35.60326472675649,-32.3060938341371,-62.8699272657095,70.78918474233271,-16.79341557018089,-20.419606274617873,-46.789473688396406,1.5425101214575112,-16.244186046514038
2.070740788291163,15.240000000000009,-63.99790904338736,97.79197161233088,-95.80571761960327,-62.411739502999126,35.60326472675649,8.08161803408536,-34.51401214530263,-29.14401893904639,58.77678740413917,26.39607960125036,12.854251007295687,35.477732793505304,-8.86046511628156
2.070740788291163,15.240000000000009,-63.99790904338736,97.79197161233088,-95.80571761960327,-62.411739502999126,35.60326472675649,65.90954797610677,127.0,55.173977791804134,5.247874168037015,-4.482351549226124,-5.655870450091241,-14.910931174090088,23.627906976741315
-13.51688278341252,-40.412537313432836,-81.67921240634257,86.32845420270569,-88.22943407234538,-69.37660668380454,32.53867991483321,47.077432483099,126.52686231390066,55.17232568814661,5.247870269596245,-4.482351532409472,-5.655870450021958,-14.91093117408365,23.627906976741194
-13.51688278341252,-40.412537313432836,-81.67921240634257,86.32845420270569,-88.22943407234538,-69.37660668380454,32.53867991483321,-17.239153538148805,41.48972233305338,59.334466292890035,-43.03309437598994,-5.478429936980856,-6.684210530887741,35.477732793507585,-11.81395348837481
-13.51688278341252,-40.412537313432836,-81.67921240634257,86.32845420270569,-88.22943407234538,-69.37660668380454,32.53867991483321,65.92633585388646,-15.072812493543486,64.53741450139474,3.1487065688249665,21.415687460676292,3.5991902785669376,2.570850202421198,-2.9534883720958276
-35.039542945179114,-77.56477611940298,-96.81564732531801,70.69638500776223,-79.17123687281213,-73.51199657240784,27.49112845990055,61.414415970151396,-15.068138014808442,64.53544614668547,3.1487033791880084,21.415687390045857,3.5991902783237224,2.5708502024217172,-2.953488372095848
-35.039542945179114,-77.56477611940298,-96.81564732531801,70.69638500776223,-79.17123687281213,-73.51199657240784,27.49112845990055,-21.63970323740932,-21.46988563775514,12.486069318587152,-46.18184666079331,0.4980404702665376,-26.222672069036445,-60.15789473681599,-25.1046511627933
-35.039542945179114,-77.56477611940298,-96.81564732531801,70.69638500776223,-79.17123687281213,-73.51199657240784,27.49112845990055,-37.0482037630262,-25.287431479711593,-42.68439455853721,-50.38017760631627,-46.31764533497155,-30.33603239201299,11.825910931184026,-5.906976744188809
-61.12761586853256,-80.5976119402985,-108.78759365743161,52.078731426036796,-68.22359976662777,-73.02227934875748,18.207239176721032,-36.21939095952477,-25.248181695094154,-42.68274254125207,-50.380162721436946,-46.317645176894196,-30.336032391110365,11.825910931181433,-5.906976744188825
-61.12761586853256,-80.5976119402985,-108.78759365743161,52.078731426036796,-68.22359976662777,-73.02227934875748,18.207239176721032,-12.399527740206711,-13.677431109610367,10.407266124902256,4.1983295297788885,28.388236585286347,20.052631575610544,30.336032388658978,1.4767441860436366
-61.12761586853256,-80.5976119402985,-108.78759365743161,52.078731426036796,-68.22359976662777,-73.02227934875748,18.207239176721032,-33.383394795050314,23.480013478902322,35.38988159289295,-1.0496045302607255,5.478432799187565,10.79757084639618,-19.024291497963567,-7.383720930235375
-94.7812299396585,-105.16358208955224,-117.46227565778011,30.36282989576401,-55.62733372228705,-64.86032562125104,3.785663591199409,-43.55431460512706,23.354744525250304,35.388897414574146,-1.0496063022940874,5.478432782370786,10.797570845909911,-19.02429149795574,-7.383720930235382
-94.7812299396585,-105.16358208955224,-117.46227565778011,30.36282989576401,-55.62733372228705,-64.86032562125104,3.785663591199409,-55.975281008287425,-43.39710255672582,-45.80604401746305,31.48756112483651,-12.450978819430755,4.627530359813239,11.825910931185648,-11.813953488374874
-94.7812299396585,-105.16358208955224,-117.46227565778011,30.36282989576401,-55.62733372228705,-64.86032562125104,3.785663591199409,-23.305401548723246,-20.233825675578913,-56.21376827598905,-20.991756793609014,-0.4980377190507411,-0.5141700451400375,3.5991902834141145,-17.720930232560846
-109.78187187058673,-95.30686567164179,-121.48980658651334,8.196274118429784,-41.71586931155193,-51.910025706940814,-10.54577714691277,-0.833622836315886,-20.211705366828305,-56.21165937724195,-20.99175183199585,-0.49803771568742505,-0.5141700452443656,3.599190283414308,-17.720930232560807
-109.78187187058673,-95.30686567164179,-121.48980658651334,8.196274118429784,-41.71586931155193,-51.910025706940814,-10.54577714691277,13.164313957828096,-45.81530562093533,-45.800068812791636,-24.14050517998,-3.486272976488235,-10.797570854699366,4.6275303643856205,-2.8252955530660984e-12
-109.78187187058673,-95.30686567164179,-121.48980658651334,8.196274118429784,-41.71586931155193,-51.910025706940814,-10.54577714691277,13.482600190434365,26.045226598093997,4.167200695438206,30.437978211177445,-23.407841390795717,-4.6275303688460685,3.599190283414349,2.95348837209014
-127.0,-57.85134328358208,-120.40547133646977,-12.899977822133536,-26.433634772462078,-33.518423307626335,-26.679914833215093,-14.210361453600129,25.91136452889362,4.167270876601265,30.437965807075074,-23.407841310075355,-4.627530368811509,3.5991902834145426,2.9534883720901046
-127.0,-57.85134328358208,-120.40547133646977,-12.899977822133536,-26.433634772462078,-33.518423307626335,-26.679914833215093,-45.634159248626524,-13.94208212284052,-4.160244304513636,53.52884767334902,21.415687733106918,26.22267205927507,0.5141700405013809,-31.011627906979317
-127.0,-57.85134328358208,-120.40547133646977,-12.899977822133536,-26.433634772462078,-33.518423307626335,-26.679914833215093,-46.16319599632977,-12.660058235366025,31.232344847220155,-33.58681909310252,6.474511341655913,5.655870439566632,20.05263157895387,-17.720930232560768
-124.42380279881885,1.8955223880597032,-123.43718417842831,-32.27811044577513,-9.817677946324388,-14.4194515852613,-37.045422285308746,-20.221687635208006,-12.663628605211805,31.231501157355407,-33.5868098786568,6.474511321475784,5.655870439253981,20.052631578948507,-17.72093023256072
-124.42380279881885,1.8955223880597032,-123.43718417842831,-32.27811044577513,-9.817677946324388,-14.4194515852613,-37.045422285308746,8.710138222519102,-38.29286814742211,-3.1206321326677156,-20.991767425826694,43.32941289265322,-8.740890694149613,-33.421052631555035,-10.337209302328192
-124.42380279881885,1.8955223880597032,-123.43718417842831,-32.27811044577513,-9.817677946324388,-14.4194515852613,-37.045422285308746,4.750895647790481,-36.92857968581772,0.0025286188621711503,32.537128798928485,29.384314848596556,-2.5708502083657505,4.627530364389045,5.906976744183281
-122.04326614456286,45.87164179104478,-127.0,-50.27611443779111,7.8726662777129555,5.604541559554491,-40.92122072391771,-12.098572549098279,-36.85002995161525,0.0027394089393348864,32.53711568602516,29.38431475105936,-2.570850208400625,4.6275303643888845,5.906976744183245
-122.04326614456286,45.87164179104478,-127.0,-50.27611443779111,7.8726662777129555,5.604541559554491,-40.92122072391771,-31.417217355978003,-35.49031959662804,4.166742875958533,-25.190133102811483,-83.17254696332662,-6.6842105321757685,20.052631578955506,-5.906976744188756
-122.04326614456286,45.87164179104478,-127.0,-50.27611443779111,7.8726662777129555,5.604541559554491,-40.92122072391771,-36.8328041049531,-26.447355193095817,-16.652150338042343,1.0495258563869623,19.423530722163004,0.5141700344737163,6.684210526325591,-13.29069767442123
-116.72782128642959,74.68358208955226,-124.18958006621364,-66.16167664670661,25.637106184364065,26.4991431019709,-39.02838892831801,-24.420273892574425,-26.403791142808963,-16.651377179358146,1.0495233755560625,19.423530658259313,0.5141700343346738,6.684210526324735,-13.290697674421201
-116.72782128642959,74.68358208955226,-124.18958006621364,-66.16167664670661,25.637106184364065,26.4991431019709,-39.02838892831801,12.119875071744787,13.359523958367078,36.4377526429965,17.842898545906824,-24.403919946718254,-17.995951422635578,-9.76923076921402,-4.430232558142201
-116.72782128642959,74.68358208955226,-124.18958006621364,-66.16167664670661,25.637106184364065,26.4991431019709,-39.02838892831801,3.9805482155551566,-25.169716176214173,-1.0374009259595693,-6.297589978933127,-108.07450725923013,-32.392712555240564,0.5141700405018605,-4.430232558142204
-100.91192707664656,107.4382089552239,-118.7236452343614,-78.44200487913065,41.7899649941657,43.530419880034344,-30.375443577005058,0.008309898252660375,-25.130469550548092,-1.0371550047139921,-6.297589978945694,-108.0745068926251,-32.392712554268506,0.5141700405030818,-4.430232558142207
-100.91192707664656,107.4382089552239,-118.7236452343614,-78.44200487913065,41.7899649941657,43.530419880034344,-30.375443577005058,-18.038322271889946,-14.841011396697043,-27.060613340968608,-9.446348288554745,5.478433512216792,-10.797570853660044,16.9676113360422,-2.9534883720957157
-100.91192707664656,107.4382089552239,-118.7236452343614,-78.44200487913065,41.7899649941657,43.530419880034344,-30.375443577005058,-11.844313822144382,-37.89963256339287,-4.158628971119459,-7.229657095386699e-05,58.2705898289663,-29.307692310248374,-99.23481781369854,-29.534883720932637
-85.84606496340994,111.68417910447764,-114.80676075971424,-89.42670215125307,57.07219953325554,59.473436161096856,-15.683463449254873,-9.991201386474291,-37.81726524435807,-4.158277631591652,-7.442299752202786e-05,58.27058963389202,-29.3076923093805,-99.23481781366364,-29.534883720932548
-85.84606496340994,111.68417910447764,-114.80676075971424,-89.42670215125307,57.07219953325554,59.473436161096856,-15.683463449254873,13.485055142093294,1.9847811164691471,17.701985274744214,-35.68600405818387,-74.2078406057919,-73.52631578872051,62.214574898836865,22.15116279069488
-85.84606496340994,111.68417910447764,-114.80676075971424,-89.42670215125307,57.07219953325554,59.473436161096856,-15.683463449254873,2.2097959040049027,-5.754969421997594,-29.141069173456856,-19.942202586948994,0.49804125056241605,10.797570850315976,15.939271255116902,-7.383720930235105
-74.88907433560149,125.48358208955224,-108.21223209618401,-98.60878243512974,71.48380980163361,74.21936589545851,2.5237757274662727,0.6625008292604466,-5.780971447114289,-29.13987427389332,-19.942197979732754,0.4980412505623709,10.7975708498297,15.939271255112908,-7.383720930235079
-74.88907433560149,125.48358208955224,-108.21223209618401,-98.60878243512974,71.48380980163361,74.21936589545851,2.5237757274662727,14.519418341651566,-0.6817951227661183,17.70398826140969,-5.7411739558865804e-05,73.21176601188941,103.34817813349947,-88.95141700394517,-10.337209302328041
-74.88907433560149,125.48358208955224,-108.21223209618401,-98.60878243512974,71.48380980163361,74.21936589545851,2.5237757274662727,-49.413397634955935,-16.100437695381924,0.007482542952685911,-109.1570142708467,-104.09019324070664,-95.12145749057976,-38.56275303632888,-48.73255813953688
-59.95365258698165,127.0,-101.2193761979439,-106.43889997782213,84.58022170361727,87.16966580976867,24.33640880056771,-32.196793669878566,-16.09167622440938,0.0076932487900682744,-109.15697953943582,-104.09019288755496,-95.12145748748962,-38.56275303631444,-48.73255813953671
-59.95365258698165,127.0,-101.2193761979439,-106.43889997782213,84.58022170361727,87.16966580976867,24.33640880056771,5.400476464027783,-5.83265399823504,29.15445271472699,-7.347092797744503,85.16470752932479,-15.939271252399383,-30.336032388531066,-22.151162790699615
-59.95365258698165,127.0,-101.2193761979439,-106.43889997782213,84.58022170361727,87.16966580976867,24.33640880056771,-2.9513032377242645,-12.264959657784193,10.416612191204784,33.586765581385514,59.26666828735102,37.53441295664055,51.93117408917007,-1.4767441860485997
-59.30145076389782,110.77432835820898,-97.39100888656561,-113.56487025948104,97.19501166861144,102.18766066838049,46.870120652945275,-17.418927157425067,-12.269166950957871,10.41647141720222,33.58675211407137,59.266668088913406,37.53441295525143,51.93117408915392,-1.4767441860485917
-59.30145076389782,110.77432835820898,-97.39100888656561,-113.56487025948104,97.19501166861144,102.18766066838049,46.870120652945275,4.574055660948652,-5.866944049830712,41.64477574950268,15.743774892379431,-126.99999690908811,-120.82995951013805,114.65991902837601,51.68604651162526
-59.30145076389782,110.77432835820898,-97.39100888656561,-113.56487025948104,97.19501166861144,102.18766066838049,46.870120652945275,-16.75679459540744,-13.580476812278548,6.251342738773318,-71.37187911559373,112.05882465455073,84.83805668083347,8.740890688313444,-84.17441860465249
-55.71434073693672,109.86447761194032,-80.77191148283674,-118.24040807274343,108.51312718786465,116.77035132819202,65.34776437189487,1.1608848221835686,-13.580298458923336,6.251342583813081,-71.37185714267179,112.05882427785563,84.83805667784712,8.740890688311879,-84.1744186046522
-55.71434073693672,109.86447761194032,-80.77191148283674,-118.24040807274343,108.51312718786465,116.77035132819202,65.34776437189487,41.8699288755462,6.920435678392252,46.848321063981075,67.17353045249169,66.23921651731057,94.09311740327641,-64.27125506063912,56.11627906976512
-55.71434073693672,109.86447761194032,-80.77191148283674,-118.24040807274343,108.51312718786465,116.77035132819202,65.34776437189487,51.72094308122804,-12.367874300175668,-7.28235473189007,75.57019446989287,127.00000000000003,3.59919027769169,-117.74493927111419,-4.4302325581414115
-28.224033893953028,127.0,-61.939884997386315,-120.83166999334668,117.42313302217036,124.06169665809773,84.54648687012059,35.74076285937048,-12.371897066563998,-7.281897932507567,75.5701668264892,126.99999957285462,3.599190277448443,-117.74493927107301,-4.4302325581414275
-28.224033893953028,127.0,-61.939884997386315,-120.83166999334668,117.42313302217036,124.06169665809773,84.54648687012059,4.942319040492761,4.280792973142962,6.250885070845839,-43.03309047837735,123.01568546015703,19.024291491231203,100.26315789484532,10.337209302323508
-28.224033893953028,127.0,-61.939884997386315,-120.83166999334668,117.42313302217036,124.06169665809773,84.54648687012059,-34.742318543501966,-12.436147696101736,-5.199544948048368,-22.041356010334916,20.419607643496644,-82.78137652210452,4.627530364498822,-16.24418604651347
-5.853511362177446,79.3844776119403,-46.60428646105594,-122.52162341982705,122.92473745624271,127.00000000000006,100.1398154719659,-19.553901965959803,-12.440034482870761,-5.199158461336026,-22.041350694317188,20.41960757622957,-82.78137651943106,4.627530364498647,-16.24418604651344
-5.853511362177446,79.3844776119403,-46.60428646105594,-122.52162341982705,122.92473745624271,127.00000000000006,100.1398154719659,-16.43525731780637,17.025641653062387,-14.567305512385701,-62.97520340305464,61.2588227858722,-125.97165991603038,-105.40485829941123,-13.290697674420427
-5.853511362177446,79.3844776119403,-46.60428646105594,-122.52162341982705,122.92473745624271,127.00000000000006,100.1398154719659,-59.311253510964804,-40.73552853090857,-20.81229172254638,-53.528909336559444,84.16862627263276,-34.449392708677586,67.35627530377371,-5.906976744187938
33.832969572473985,27.522985074626874,-30.49416274612303,-124.6340652029275,124.23993582263711,122.91902313624684,115.5528743789921,-64.04126793006006,-40.64401511500168,-20.81137803245277,-53.52889338847766,84.16862599011132,-34.44939270763606,67.35627530375235,-5.9069767441879515
33.832969572473985,27.522985074626874,-30.49416274612303,-124.6340652029275,124.23993582263711,122.91902313624684,115.5528743789921,-15.474473727315143,8.136168976911396,30.195995978654192,17.84297757712171,71.21960622954529,84.83805668187325,85.86639676121113,16.244186046509462
33.832969572473985,27.522985074626874,-30.49416274612303,-124.6340652029275,124.23993582263711,122.91902313624684,115.5528743789921,28.596006289257872,70.84593509799608,80.16069952458136,111.25613261053715,-126.9999998654731,46.78947368428952,33.42105263165647,32.488372093020814
38.430992425215024,-17.21134328358208,-7.612476041122162,-127.0,125.6848016336056,123.35432733504717,127.0,20.393055209522124,70.56089932665692,80.15820378674734,111.25609291745336,-126.99999943496447,46.789473682587996,33.42105263164659,32.488372093020644
38.430992425215024,-17.21134328358208,-7.612476041122162,-127.0,125.6848016336056,123.35432733504717,127.0,-99.00869267282266,-79.63393195193372,-54.126605856084545,-82.91737586740679,-62.25490161423304,20.052631576574743,29.30769230775222,-106.3255813953501
38.430992425215024,-17.21134328358208,-7.612476041122162,-127.0,125.6848016336056,123.35432733504717,127.0,29.56105245729315,-23.03523261024342,2.0866338420111763,39.8842240782118,-16.435294018492137,21.080971656711093,126.99999999999999,41.34883720929973
9.081910386442402,-32.3755223880597,21.620317128419572,-124.54956753160349,127.0,125.85732647814916,118.9779985805535,28.65972747383283,-23.003768443224835,2.086774296115638,39.88420848449371,-16.43529396131523,21.080971655877644,126.99999999995848,41.34883720929951
9.081910386442402,-32.3755223880597,21.620317128419572,-124.54956753160349,127.0,125.85732647814916,118.9779985805535,29.930609625110037,-12.72205567402039,14.578292789399358,-18.892628888356104,5.47843136639861,25.19433197878446,1.542510121440471,2.953488372090403
9.081910386442402,-32.3755223880597,21.620317128419572,-124.54956753160349,127.0,125.85732647814916,118.9779985805535,-37.44822187932178,-2.4749833097994607,21.864648646858647,-33.58683008032355,-79.18823446840173,-56.044534416058184,-88.95141700401715,-2.681410649074678e-12
29.82192836050839,-54.81850746268656,53.840564558285394,-117.05744067420716,122.75802217036173,115.79091688089125,95.3626685592618,-47.78873973544221,-2.5127692195436655,21.86412127816424,-33.58682086587589,-79.18823419933378,-56.04453441428745,-88.95141700398574,-2.76667577736589e-12
29.82192836050839,-54.81850746268656,53.840564558285394,-117.05744067420716,122.75802217036173,115.79091688089125,95.3626685592618,-31.36367481037752,-16.644596124770395,6.249371366350227,43.03297388208463,3.4862750449417432,15.939271252937996,28.27935222675318,14.767441860462096
29.82192836050839,-54.81850746268656,53.840564558285394,-117.05744067420716,122.75802217036173,115.79091688089125,95.3626685592618,-4.047184399644549,-12.790756439488533,10.413163924362802,-31.48765610195574,-33.36862655650578,-43.704453441955714,34.44939271257168,20.674418604647947
61.32327641545768,-68.76955223880597,75.6379160132427,-107.76269682856514,114.62602100350058,97.78020565552703,69.3136976579134,11.004452753643086,-12.793739442037415,10.41302320756373,-31.48764759631303,-33.36862644215179,-43.70445344060165,34.44939271256138,20.6744186046478
61.32327641545768,-68.76955223880597,75.6379160132427,-107.76269682856514,114.62602100350058,97.78020565552703,69.3136976579134,1.1577632749920443,-7.671551206691461,16.65857151390306,54.57842137163212,-4.482352107544576,-10.797570849325448,86.89473684207813,2.9534883720897103
61.32327641545768,-68.76955223880597,75.6379160132427,-107.76269682856514,114.62602100350058,97.78020565552703,69.3136976579134,-29.291736642181565,-43.56774491512502,-9.365484342897515,-88.16530921875746,29.384314236465734,49.87449392608645,72.49797570845445,-56.11627906977019
81.0849916548979,-83.93373134328358,88.67206830458265,-96.66533599467735,103.65985997666279,74.92673521850907,43.084457061745866,-33.734371712703606,-43.466768936255434,-9.364957226415928,-88.16528157538976,29.384314138928733,49.87449392428077,72.4979757084313,-56.11627906977005
81.0849916548979,-83.93373134328358,88.67206830458265,-96.66533599467735,103.65985997666279,74.92673521850907,43.084457061745866,-37.105689122354875,-38.240803454499556,-20.814859990325928,-82.91732341603254,-31.37646966327885,-92.03643724656419,-36.50607287453043,-47.25581395349092
81.0849916548979,-83.93373134328358,88.67206830458265,-96.66533599467735,103.65985997666279,74.92673521850907,43.084457061745866,-16.772320182246375,-25.344588960047,-14.568257236731522,-62.975161583907926,9.462745721258198,-86.89473683890284,62.214574898710616,7.383720930229522
81.34587238413144,-81.20417910447762,99.29412789684612,-82.80771789753828,91.4340723453909,51.25706940874039,15.413058907026198,-23.993114398546567,-25.304612094177646,-14.567554410776285,-62.975142446209155,9.462745690988188,-86.89473683609046,62.21457489869095,7.383720930229455
81.34587238413144,-81.20417910447762,99.29412789684612,-82.80771789753828,91.4340723453909,51.25706940874039,15.413058907026198,-10.694907427369026,0.36100235716096485,32.27581605923203,-58.7767788957183,-92.13725332086216,19.02429150303382,-71.46963562757412,-22.151162790700518
81.34587238413144,-81.20417910447762,99.29412789684612,-82.80771789753828,91.4340723453909,51.25706940874039,15.413058907026198,3.276257786524397,-4.810798467409105,33.31588534618206,-9.446214325290313,95.1254902128814,49.87449393032178,-7.712550607339287,14.767441860461897
93.11811529079469,-74.83522388059701,106.66318173897889,-66.8094921268574,77.4855600933489,25.628534704370225,-8.833215046132068,14.395008000692545,-4.8400626509492035,33.3149713292343,-9.446213262118464,95.12548989336332,49.87449392851607,-7.712550607335338,14.767441860461805
93.11811529079469,-74.83522388059701,106.66318173897889,-66.8094921268574,77.4855600933489,25.628534704370225,-8.833215046132068,-15.182457573183303,-24.088532327940268,0.0037158834402841734,17.843026484222722,-29.384313099660083,-97.17813764700426,88.95141700395378,-16.244186046514685
93.11811529079469,-74.83522388059701,106.66318173897889,-66.8094921268574,77.4855600933489,25.628534704370225,-8.833215046132068,49.053374312934544,24.636045743938055,33.31426809552788,-39.884217343001204,-37.352940369863894,126.99999999999997,-50.90283400814702,14.767441860461737
101.59673899088456,-46.93313432835821,114.01010629029446,-49.205810601020204,63.240665110851815,0.544130248500494,-28.03193754435779,26.228100828591323,24.507361106700564,33.31335410578092,-39.88420600216155,-37.35294024205654,126.99999999559006,-50.902834008128444,14.767441860461652
101.59673899088456,-46.93313432835821,114.01010629029446,-49.205810601020204,63.240665110851815,0.544130248500494,-28.03193754435779,-88.3807577519263,-48.65430882073172,-39.553931777841235,-46.18171128051679,-48.30980274951763,36.50607286889425,67.3562753035688,-110.75581395349052
101.59673899088456,-46.93313432835821,114.01010629029446,-49.205810601020204,63.240665110851815,0.544130248500494,-28.03193754435779,-61.747826742305996,-20.34764504810643,10.413126828957555,7.347193449873059,114.0509801015375,-11.825910936408205,56.04453441286515,-98.94186046511815
99.54230324817047,-30.100895522388058,124.742812336644,-28.56021290751832,48.27333722287048,-22.581405312767743,-46.149041873669375,-51.90530570901468,-20.32460327346263,10.41298611224951,7.347188842602963,114.05097971811581,-11.82591093613055,56.04453441284764,-98.9418604651178
99.54230324817047,-30.100895522388058,124.742812336644,-28.56021290751832,48.27333722287048,-22.581405312767743,-46.149041873669375,109.76648291263812,52.73164576370061,87.44300998769293,126.99999999999999,35.36078404503875,126.99999999038116,-79.69635627535753,51.68604651162508
99.54230324817047,-30.100895522388058,124.742812336644,-28.56021290751832,48.27333722287048,-22.581405312767743,-46.149041873669375,-23.289555147889715,7.663087336400476,-4.163170689615345,60.87603048934274,-101.1019598028402,-21.08097166867838,-119.80161943320284,-97.46511627907111
73.81294132751313,-64.97850746268657,126.99999999999997,-7.041472610334921,33.546820303383896,-36.83761782347892,-67.51100070972325,-14.172878792536787,7.591325141882262,-4.162819275484944,60.87600780756435,-101.10195945977847,-21.080971668088218,-119.80161943316097,-97.46511627907076
73.81294132751313,-64.97850746268657,126.99999999999997,-7.041472610334921,33.546820303383896,-36.83761782347892,-67.51100070972325,-32.3301354580298,-36.04395895513379,-13.53100139850115,-87.11565542524492,-93.13333174561237,-77.63967611892674,70.44129554653786,-42.82558139535008
73.81294132751313,-64.97850746268657,126.99999999999997,-7.041472610334921,33.546820303383896,-36.83761782347892,-67.51100070972325,6.573054216084248,-35.96831065764303,-13.530333659217522,-87.11562813629095,-93.13333142945739,-77.63967611642684,70.4412955465155,-42.825581395349936
73.81294132751313,-64.97850746268657,126.99999999999997,-7.041472610334921,33.546820303383896,-36.83761782347892,-67.51100070972325,-72.29389389627173,-101.23827619645036,-63.49517809759605,-11.545401417025996,-50.30195899361653,109.5182186162553,-33.421052631589866,-91.55813953488413
37.97445114905634,-113.80716417910448,123.26014985189056,13.773120425815023,19.690927654609105,-39.939160239931425,-93.92051100070967,-70.11006772175857,-100.94218279292404,-63.492823249916654,-11.54539964504707,-50.30195882208548,109.51821861243575,-33.42105263157718,-91.55813953488381
37.97445114905634,-113.80716417910448,123.26014985189056,13.773120425815023,19.690927654609105,-39.939160239931425,-93.92051100070967,-16.505399255495682,-27.613354471553755,11.457799807503049,-91.31394171617936,50.30196190963785,38.56275302409653,-126.99999999993628,-67.93023255813955
37.97445114905634,-113.80716417910448,123.26014985189056,13.773120425815023,19.690927654609105,-39.939160239931425,-93.92051100070967,-57.51860800085823,-3.2204464879533834,37.48132813238057,70.32234688299346,-13.447057227364077,-42.67611337119752,30.336032388689166,-72.3604651162788
