Gyro 0,Gyro 1,Gyro 2,Orientation 0,Orientation 1,Orientation 2,Orientation 3,Sensor 0,Sensor 1,Sensor 2,Sensor 3,Sensor 4,Sensor 5,Sensor 6,Sensor 7
25.95130658289306,-73.64911206368647,-31.836239376150004,127.0,-109.44686762050284,-16.802405498281814,-5.186134852801501,15.059238051578983,19.240846920659024,1.457687913284871,-0.49807856217202195,2.57084729468293,-14.694214896964722,4.482352940910662,-28.754716981131725
25.95130658289306,-73.64911206368647,-31.836239376150004,127.0,-109.44686762050284,-16.802405498281814,-5.186134852801501,-2.6935692390547956,17.013949960659687,1.4576038462113101,-4.48239025976227,-10.79757367662324,-9.44628101237942,-2.4901960786999786,-28.754716981131693
25.95130658289306,-73.64911206368647,-31.836239376150004,127.0,-109.44686762050284,-16.802405498281814,-5.186134852801501,5.071350140037455,4.991717982410348,-11.488933755556983,-40.34119890142336,-7.712553403730135,-7.34710745856302,4.482352940909822,-17.97169811320703
9.085677566757116,-85.00367421922842,-32.170069219311316,126.20954356846474,-109.83497708015003,-14.402061855670127,-6.553023108578714,-0.1718497912012822,5.065704266515745,-11.487924943567469,-40.34116442710337,-7.712553369007293,-7.347107458474419,4.482352940906459,-17.97169811320709
9.085677566757116,-85.00367421922842,-32.170069219311316,126.20954356846474,-109.83497708015003,-14.402061855670127,-6.553023108578714,21.904316613315466,8.410686333135743,-3.5198678429698407,16.435323719792144,-7.712553334284451,-13.644628119037616,-7.470588235566523,-23.962264150943057
9.085677566757116,-85.00367421922842,-32.170069219311316,126.20954356846474,-109.83497708015003,-14.402061855670127,-6.553023108578714,11.572258792852566,16.08947163709983,8.431040844003055,13.44707586254638,-11.825913582399119,-6.297520680990316,-2.490196078697458,-31.150943396226154
10.064972154790816,-82.51500306184937,-31.925260667659686,125.4483633010604,-110.18780386164744,-12.056271477663245,-8.161126938904772,9.077653143377661,16.07051693940939,8.4303682149865,13.4470649316382,-11.825913512953433,-6.297520680990317,-2.4901960786949378,-31.1509433962261
10.064972154790816,-82.51500306184937,-31.925260667659686,125.4483633010604,-110.18780386164744,-12.056271477663245,-8.161126938904772,13.885417030510412,26.95601051509776,15.40086290414748,1.4941163854525132,6.684207829261055,-3.148760350664419,2.4901960781699244,-29.952830188678867
10.064972154790816,-82.51500306184937,-31.925260667659686,125.4483633010604,-110.18780386164744,-12.056271477663245,-8.161126938904772,38.47876458515604,33.387766924801994,-14.47682937976762,10.45881875606065,3.5991875303258194,-3.1487603509302216,-3.486274510066569,-20.367924528301373
21.091103812651735,-89.51439069197795,-31.791728730395164,125.30198248040573,-110.73468537296847,-11.45618556701038,-6.79423868312756,40.41171006579363,33.22215741990048,-14.4755683561105,10.458810347673431,3.5991874695608495,-3.1487603511960236,-3.486274510063209,-20.367924528301412
21.091103812651735,-89.51439069197795,-31.791728730395164,125.30198248040573,-110.73468537296847,-11.45618556701038,-6.79423868312756,20.986713143182115,-5.108057828744123,-28.416641965373522,-14.443151425881323,2.5708473380865016,-23.090909110192516,-2.4901960786873807,-28.754716981131722
21.091103812651735,-89.51439069197795,-31.791728730395164,125.30198248040573,-110.73468537296847,-11.45618556701038,-6.79423868312756,-9.34252624865982,8.135349615068337,-16.463631612420023,-19.423529486367535,-37.53441547166349,-26.239669439100812,-4.482352941429798,-31.150943396226054
24.24660859631588,-104.4464176362523,-31.413388241479016,125.09704933148917,-111.56382830948743,-11.510738831615186,-3.256410256410277,-12.671250649812258,8.182410814710178,-16.46220266426703,-19.42351266963924,-37.53441518520006,-26.23966943741741,-4.482352941425598,-31.150943396226
24.24660859631588,-104.4464176362523,-31.413388241479016,125.09704933148917,-111.56382830948743,-11.510738831615186,-3.256410256410277,3.748552160798792,9.319754599356202,-1.5225581555810668,-11.4548707760633,-67.35627694930857,-36.735537203487,-0.4980392159315259,-26.358490566037222
24.24660859631588,-104.4464176362523,-31.413388241479016,125.09704933148917,-111.56382830948743,-11.510738831615186,-3.256410256410277,-1.657638290914182,0.6337661257554323,7.440539038016327,1.494155063842762,14.910929245645704,-1.0495867905574015,-12.450980392400309,-27.556603773584396
18.91489361702129,-123.88916105327618,-31.858494699027425,123.98455509451361,-112.49881928045562,-10.746993127147789,0.20101297879079993,-2.31908701632271,0.7447813542568369,7.439950247995461,1.4941542229729783,14.910929089392912,-1.049586791000407,-12.450980392389383,-27.556603773584378
18.91489361702129,-123.88916105327618,-31.858494699027425,123.98455509451361,-112.49881928045562,-10.746993127147789,0.20101297879079993,12.851035570721429,20.48321354314554,3.4558373170007295,11.454934728171981,-13.882593046722455,-11.545454559196408,37.35294117624496,-15.575471698112542
18.91489361702129,-123.88916105327618,-31.858494699027425,123.98455509451361,-112.49881928045562,-10.746993127147789,0.20101297879079993,13.47632454325521,11.704019140428388,10.426752134397946,45.32158205556434,-2.5708521821121906,11.545454530303182,27.39215686248918,-26.35849056603726
12.204912180494087,-127.0,-30.389643389117673,122.63785154449056,-113.55729962494792,-8.292096219931295,1.8091168091168583,16.974241151472857,11.722183344839513,10.425911202921943,45.3215442178657,-2.5708521907928983,11.545454528796967,27.392156862466493,-26.35849056603725
12.204912180494087,-127.0,-30.389643389117673,122.63785154449056,-113.55729962494792,-8.292096219931295,1.8091168091168583,-2.334109638239065,13.921111483982864,5.445665099767365,-4.4824003501591525,4.627528295492038,23.090909071819055,-13.4470588238274,-34.74528301886751
12.204912180494087,-127.0,-30.389643389117673,122.63785154449056,-113.55729962494792,-8.292096219931295,1.8091168091168583,7.530530787412718,17.19195163818935,15.404054988399091,14.443088411560405,-7.712552622466176,8.396694194484045,-23.407843137540304,-27.556603773584342
11.443238612023432,-96.98040416411513,-29.610707088407956,121.87667127708622,-114.26295318794277,-5.9463058419244135,1.8091168091168583,10.916100207111679,17.163822481333533,15.402793809887807,14.443076639842788,-7.71255258774333,8.396694193243633,-23.40784313752013,-27.556603773584325
11.443238612023432,-96.98040416411513,-29.610707088407956,121.87667127708622,-114.26295318794277,-5.9463058419244135,1.8091168091168583,8.99143414174437,16.04534359866408,24.364462057171558,-0.4981071509725101,22.10930949755147,-12.595041343502778,0.49803921543928986,-23.96226415094276
11.443238612023432,-96.98040416411513,-29.610707088407956,121.87667127708622,-114.26295318794277,-5.9463058419244135,1.8091168091168583,4.847625544284701,-9.053507306840501,-48.336871641102405,-31.376528482935456,2.5708479370555475,-4.198347128768788,-5.478431372795517,-27.556603773584317
12.603884049693,-84.07042253521126,-28.74274949618856,121.52535730751498,-114.8627587164884,-3.6005154639175316,1.0854700854700923,6.827433444123232,-8.860500312058232,-48.332752335336494,-31.376501576135727,2.5708478849713092,-4.198347128945999,-5.478431372790468,-27.5566037735843
12.603884049693,-84.07042253521126,-28.74274949618856,121.52535730751498,-114.8627587164884,-3.6005154639175316,1.0854700854700923,13.42644949678431,13.140379151695809,2.461299907973418,5.478416311105854,-17.99595358130048,-5.24793390589851,4.482352940939263,-22.764150943395556
12.603884049693,-84.07042253521126,-28.74274949618856,121.52535730751498,-114.8627587164884,-3.6005154639175316,1.0854700854700923,31.170466994120304,17.509174560921714,27.358157479875867,-12.450994316013931,-67.35627685382065,-29.38842977181901,3.4862745095634344,-25.160377358489942
15.17906611452236,-100.55786895284753,-29.365898536756333,121.05693868142001,-115.7271843311571,-1.8002577319588227,2.371953149730871,34.59561002108849,17.479224835564974,27.35588734672413,-12.450983385140509,-67.35627631561655,-29.38842976986981,3.4862745095609147,-25.160377358489946
15.17906611452236,-100.55786895284753,-29.365898536756333,121.05693868142001,-115.7271843311571,-1.8002577319588227,2.371953149730871,12.410260356691701,3.2735574956539164,-20.4486726781171,-12.450972454271705,-9.769231817687334,-7.347107455639318,-11.454901961028629,-28.75471698113149
15.17906611452236,-100.55786895284753,-29.365898536756333,121.05693868142001,-115.7271843311571,-1.8002577319588227,2.371953149730871,19.680638262074737,16.448537097560067,14.408929048822811,22.411773187832004,23.137650497097024,-1.0495867948989348,21.415686274272918,-21.566037735848376
14.308582036270183,-106.46846295162278,-28.74274949618856,120.58852005532503,-116.75038199749966,0.3273195876288355,3.980056980056929,18.876209090825835,16.42725542051461,14.407751904377328,22.411754689392218,23.13765027139856,-1.0495867953419529,21.415686274255272,-21.566037735848408
14.308582036270183,-106.46846295162278,-28.74274949618856,120.58852005532503,-116.75038199749966,0.3273195876288355,3.980056980056929,24.958995293590704,9.863284454564258,-17.46161851539546,13.447032979498657,11.825909267896947,11.545454525518629,-3.486274510074095,-25.160377358489985
14.308582036270183,-106.46846295162278,-28.74274949618856,120.58852005532503,-116.75038199749966,0.3273195876288355,3.980056980056929,-46.360725305538345,12.07800840024948,-26.42303478690836,-15.439243854989844,-6.684212135082484,-17.84297522569598,-12.45098039242295,-29.95283018867871
11.624589461659301,-98.53582363747705,-28.653728204678877,119.91516828031351,-117.57952493401862,2.782216494845329,4.301677746122209,-53.71321113872769,12.093150429958648,-26.420765146137402,-15.439230401598646,-6.684212109040326,-17.842975224721386,-12.450980392412024,-29.952830188678668
11.624589461659301,-98.53582363747705,-28.653728204678877,119.91516828031351,-117.57952493401862,2.782216494845329,4.301677746122209,-19.01888753739595,18.65071242519104,1.4661735579096917,11.454892686171647,80.72469392729894,-16.79338844697149,-61.25882352965205,-39.53773584905608
11.624589461659301,-98.53582363747705,-28.653728204678877,119.91516828031351,-117.57952493401862,2.782216494845329,4.301677746122209,85.8239190718857,40.4189875906868,80.1406913993888,21.415664783017554,12.854248548661783,-1.7680706676515e-08,6.474509803727932,-1.1981132075461574
6.619306011709281,-90.29210042865891,-29.32138789100149,118.89050253573076,-118.16168912348937,5.782646048109882,3.256410256410277,94.8271648110782,40.19443137569476,80.13396567447224,21.415647125427682,12.85424840977046,-1.821232498144809e-08,6.474509803722901,-1.198113207546374
6.619306011709281,-90.29210042865891,-29.32138789100149,118.89050253573076,-118.16168912348937,5.782646048109882,3.256410256410277,54.040679997463556,6.167151639125464,5.436162128207647,0.49798864110155766,0.5141674223666133,-1.87439441745596e-08,12.450980391952681,-31.150943396226147
6.619306011709281,-90.29210042865891,-29.32138789100149,118.89050253573076,-118.16168912348937,5.782646048109882,3.256410256410277,2.004998827568615,9.501105653346542,4.439860960448884,-13.44710524338959,9.769228024028232,-5.247933903152061,1.4941176468454545,-31.150943396226122
2.5570469798657847,-85.470300061237,-31.324366949969335,117.4559704933149,-118.46159188776218,9.16494845360819,0.7638493194049261,-1.2645128225245852,9.535834414579,4.43952491907805,-13.447093471665182,9.769227911179055,-5.2479339032406775,1.4941176468446278,-31.150943396226097
2.5570469798657847,-85.470300061237,-31.324366949969335,117.4559704933149,-118.46159188776218,9.16494845360819,0.7638493194049261,14.446870969707032,8.47993906962837,9.418594099096321,10.458793530618497,-7.712553403729538,-2.0991735730033945,-6.474509804135946,-26.358490566037354
2.5570469798657847,-85.470300061237,-31.324366949969335,117.4559704933149,-118.46159188776218,9.16494845360819,0.7638493194049261,7.206436777553474,18.337450245380957,7.426075668302593,-2.490230627646995,-12.854253722553517,-18.89256200176261,-43.32941176491137,-31.150943396226097
8.904326717121247,-75.36007348438457,-32.63743099973714,116.66551406177963,-118.65564661758577,11.292525773195848,-0.7638493194049261,4.596513248366352,18.297925308340993,7.425487486614922,-2.490228105137352,-12.85425364442706,-18.892562000699428,-43.32941176487437,-31.150943396226076
8.904326717121247,-75.36007348438457,-32.63743099973714,116.66551406177963,-118.65564661758577,11.292525773195848,-0.7638493194049261,-3.583300848218361,17.168089158522392,12.40430453701515,-16.435319467124582,-27.251014556231887,-31.48760332093984,57.2745098037819,-31.15094339622606
8.904326717121247,-75.36007348438457,-32.63743099973714,116.66551406177963,-118.65564661758577,11.292525773195848,-0.7638493194049261,1.6949444136806804,0.7814409348693712,-3.5308005923408294,11.454882596094292,-87.92307852842879,-18.892561997509862,-26.39607843155336,-31.150943396226047
19.89418820505499,-73.3380281690141,-33.41636730044686,116.75334255417243,-118.97319072093345,11.456185567010266,0.20101297879079993,-0.28872998805076655,0.8895505546219518,-3.530463943196668,11.454873346876019,-87.92307781661047,-18.89256199644668,-26.396078431530675,-31.150943396226033
19.89418820505499,-73.3380281690141,-33.41636730044686,116.75334255417243,-118.97319072093345,11.456185567010266,0.20101297879079993,-0.9862587553923827,33.71032403199792,50.247448927803305,7.4705515592342735,14.910929966145563,9.446280977549586,60.26274509789675,-9.584905660376752
19.89418820505499,-73.3380281690141,-33.41636730044686,116.75334255417243,-118.97319072093345,11.456185567010266,0.20101297879079993,14.495353335007497,16.094205919640252,19.370933643575597,-10.458860749550878,13.882589739183405,-9.446281005734845,16.43529411745768,-29.95283018867901
23.920177066971313,-72.87140232700551,-34.262069569788835,116.89972337482712,-119.22016946798166,10.63788659793812,2.2915479582146645,13.898383849578423,16.073082290971886,19.369336899996892,-10.458851500342115,13.882589591611339,-9.446281005469071,16.435294117444208,-29.952830188679002
23.920177066971313,-72.87140232700551,-34.262069569788835,116.89972337482712,-119.22016946798166,10.63788659793812,2.2915479582146645,18.435999731964326,17.14246178784556,-8.516928935017681,-8.46668598192357,-33.421053808592106,-4.198347121326799,-10.458823529625919,-22.764150943395908
23.920177066971313,-72.87140232700551,-34.262069569788835,116.89972337482712,-119.22016946798166,10.63788659793812,2.2915479582146645,0.5534732679824614,4.026991367248099,-55.32258061072859,0.4980247970647247,46.78947195847997,7.347107423024266,-13.44705882373411,-23.962264150943145
18.769812937312594,-67.11635027556645,-34.81845264172435,116.54840940525588,-119.23781080705652,10.365120274914034,3.095599873377637,-1.521784920876767,4.107359337178691,-55.31787221951285,0.49802479705411346,46.78947153312519,7.347107421872423,-13.447058823722376,-23.962264150943188
18.769812937312594,-67.11635027556645,-34.81845264172435,116.54840940525588,-119.23781080705652,10.365120274914034,3.095599873377637,1.6621006984026518,16.182175945503143,7.427341581656626,-16.435303491272837,33.42105018854853,-4.198347123807723,-3.486274509985962,-23.962264150943234
18.769812937312594,-67.11635027556645,-34.81845264172435,116.54840940525588,-119.23781080705652,10.365120274914034,3.095599873377637,13.878307663327437,28.155342500222446,-15.478510602131484,-45.32155510065079,-16.967613588716457,-24.140495882715662,22.41176470570154,-23.96226415094328
15.759388833357146,-64.93876301285977,-34.484622798563045,115.99216228676809,-119.16724545075704,10.692439862542926,2.6935739157961507,13.987638579678,28.032473172640046,-15.477165265912621,-45.321516422159696,-16.967613475867104,-24.1404958812095,22.411764705682998,-23.962264150943327
15.759388833357146,-64.93876301285977,-34.484622798563045,115.99216228676809,-119.16724545075704,10.692439862542926,2.6935739157961507,2.520094696158502,8.282209425981762,-33.40167873160835,5.478507121264085,-42.67611513075221,2.0991735396791533,-0.49803921590231315,-25.160377358490553
15.759388833357146,-64.93876301285977,-34.484622798563045,115.99216228676809,-119.16724545075704,10.692439862542926,2.6935739157961507,-10.810519964429016,-0.39743691059966757,-63.275251543512894,-15.439137909714558,20.052629512386925,12.595041306723296,15.439215686057974,-27.55660377358495
22.505640439811522,-64.31659522351501,-33.86147375799527,115.93360995850622,-119.22016946798166,9.819587628865918,4.301677746122209,-13.216543619856136,-0.28011995403370094,-63.2698712217706,-15.439124456368095,20.052629312730684,12.59504130512844,15.439215686045317,-27.556603773584964
22.505640439811522,-64.31659522351501,-33.86147375799527,115.93360995850622,-119.22016946798166,9.819587628865918,4.301677746122209,12.723182667926569,11.831493984516875,20.38951635055731,11.45499863135746,8.740888335271277,-1.0495867945453128,-21.415686274748666,-25.160377358490617
22.505640439811522,-64.31659522351501,-33.86147375799527,115.93360995850622,-119.22016946798166,9.819587628865918,4.301677746122209,13.562712613288575,21.660415864483696,5.449618962272214,21.41577072815862,-41.64777523365667,-22.041322330494353,-7.470588235515671,-28.754716981132194
22.505640439811522,-75.36007348438457,-33.149303425917815,115.69940064545874,-119.43186553688011,9.16494845360819,6.311807534029754,15.1633293117469,21.592414960593597,5.449198271888083,21.415753070524005,-41.64777491247027,-22.041322329165386,-7.470588235508998,-28.754716981132198
22.505640439811522,-75.36007348438457,-33.149303425917815,115.69940064545874,-119.43186553688011,9.16494845360819,6.311807534029754,15.295013407676471,12.801146633151944,7.440539681822404,-19.423468105983734,-31.364373884190094,5.24793386832137,-11.4549019609922,-25.160377358490656
22.505640439811522,-75.36007348438457,-33.149303425917815,115.69940064545874,-119.43186553688011,9.16494845360819,6.311807534029754,15.772736961878223,-10.091939206295354,-61.27584096452268,-9.46266994321288,-36.50607400335768,-20.99173555203577,-30.380392157059063,-34.74528301886814
17.645437669570196,-86.24800979791794,-31.769473407517744,115.14315352697096,-119.81997499652729,9.928694158075587,7.357075023741686,18.911646317280752,-9.892570839775388,-61.27062910130275,-9.462661534888815,-36.506073725574836,-20.991735550795404,-30.38039215703305,-34.74528301886809
17.645437669570196,-86.24800979791794,-31.769473407517744,115.14315352697096,-119.81997499652729,9.928694158075587,7.357075023741686,16.398533091144543,19.74771005613782,4.462731274115252,-8.466574991961453,-35.47773337708263,-22.041322326330338,2.4901960782844306,-23.962264150943412
17.645437669570196,-86.24800979791794,-31.769473407517744,115.14315352697096,-119.81997499652729,9.928694158075587,7.357075023741686,15.976931450679771,6.6113291802814835,15.417085724885379,27.392245421364752,30.33603141741967,17.84297519246001,7.470588235145055,-29.95283018867936
17.609167499643025,-90.13655848132272,-31.14632436694997,114.64545873674504,-120.3139324906237,11.074312714776568,8.161126938904658,19.338516471439682,6.6707554754162,15.415823996098952,27.392222718704897,30.336031130956307,17.84297519042214,7.470588235139133,-29.952830188679354
17.609167499643025,-90.13655848132272,-31.14632436694997,114.64545873674504,-120.3139324906237,11.074312714776568,8.161126938904658,-3.0838975763826326,-12.898146023615425,-54.297110578163995,-13.447003502825947,-96.1497978527605,-67.173553730415,46.317647058659475,-38.339622641509614
17.609167499643025,-90.13655848132272,-31.14632436694997,114.64545873674504,-120.3139324906237,11.074312714776568,8.161126938904658,12.670675972660899,17.85841371691187,-11.469602725856866,-0.49797598125553555,48.84615289852584,10.49586775609594,61.25882352920782,-16.773584905660265
15.396687134085404,-89.98101653398653,-31.302111627091914,114.23559243891195,-120.82553132379496,12.820017182130528,8.241532130420978,13.989385512008209,17.823741986692248,-11.468594733867134,-0.4979751404616829,48.84615245580973,10.495867754678248,61.258823529156544,-16.773584905660364
15.396687134085404,-89.98101653398653,-31.302111627091914,114.23559243891195,-120.82553132379496,12.820017182130528,8.241532130420978,13.916105736948289,17.788991536993798,13.429439250018508,26.396135334716583,48.84615201309364,10.495867753260558,-38.349019608141546,-31.150943396226648
15.396687134085404,-89.98101653398653,-31.302111627091914,114.23559243891195,-120.82553132379496,12.820017182130528,8.241532130420978,9.753988206862479,23.20637270643912,28.366561099804954,-12.450933776759536,-34.44939415708201,-15.743801667539637,1.494117646790016,-22.764150943396356
15.759388833357146,-76.91549295774648,-32.12555857355647,114.0306592899954,-121.1783581052924,14.18384879725079,8.000316555872132,8.297052483484633,23.125482446067537,28.36420636798349,-12.450922845911666,-34.449393896660496,-15.743801666742328,1.4941176467892106,-22.764150943396405
15.759388833357146,-76.91549295774648,-32.12555857355647,114.0306592899954,-121.1783581052924,14.18384879725079,8.000316555872132,26.659798463132297,5.597728494906622,-5.498103672696343,14.443197719316355,3.599188980008001,-1.4315524765606824e-08,-8.466666666936279,-22.764150943396455
15.759388833357146,-76.91549295774648,-32.12555857355647,114.0306592899954,-121.1783581052924,14.18384879725079,8.000316555872132,11.00983598736268,3.483583784011058,2.469448405010459,7.470639005304716,25.19433040414016,-9.446281005824918,-16.435294117908423,-25.160377358490866
21.889047551049565,-71.78260869565219,-31.969771313414526,114.41124942369756,-121.6017502430893,14.238402061855652,9.36720481164923,9.799074280514482,3.568257979837231,2.4692795931310716,7.470633119405824,25.194330161080458,-9.44628100555921,-16.435294117894095,-25.160377358490894
21.889047551049565,-71.78260869565219,-31.969771313414526,114.41124942369756,-121.6017502430893,14.238402061855652,9.36720481164923,11.674634552011883,30.913353296570477,22.386731615957167,2.4902365604752,-8.7408924153887,-22.041322326597097,11.454901960549343,-20.367924528302197
21.889047551049565,-71.78260869565219,-31.969771313414526,114.41124942369756,-121.6017502430893,14.238402061855652,9.36720481164923,29.577190702171706,15.500616406158823,-8.48743080763345,5.478469282587431,-0.5141718063099225,-1.298688712125795e-08,-2.4901960786744275,-29.95283018867972
22.070398400685434,-77.38211879975506,-31.546920178743537,114.87966804979253,-122.20155577163496,14.347508591065264,11.457739791073095,31.373198177820612,15.483343745904303,-8.486674790745605,5.478465078368467,-0.5141718323518512,-1.3518577368643037e-08,-2.4901960786718718,-29.95283018867971
22.070398400685434,-77.38211879975506,-31.546920178743537,114.87966804979253,-122.20155577163496,14.347508591065264,11.457739791073095,10.321603592624689,12.194652140961718,-2.510632557811358,2.4902264703307475,23.137649767921907,-5.247933897926766,-20.419607843373747,-25.16037735849097
22.070398400685434,-77.38211879975506,-31.546920178743537,114.87966804979253,-122.20155577163496,14.347508591065264,11.457739791073095,3.4249023260886435,8.93347781425215,16.411358778530758,6.474537327054079,12.854248835129852,17.84297519104114,5.47843137232813,-25.160377358490994
18.443381407968026,-76.91549295774648,-32.57066503110488,114.87966804979253,-122.607306570357,15.002147766322992,12.261791706236181,1.693154493247519,8.971017202050593,16.410013042699518,6.474532282002247,12.854248696238692,17.842975189003244,5.478431372323972,-25.160377358491022
18.443381407968026,-76.91549295774648,-32.57066503110488,114.87966804979253,-122.607306570357,15.002147766322992,12.261791706236181,14.802543916299765,16.641287897784782,-19.44305012728545,-17.4313479936117,-31.364374483155707,-8.396694232417147,-7.470588235522275,-19.16981132075514
18.443381407968026,-76.91549295774648,-32.57066503110488,114.87966804979253,-122.607306570357,15.002147766322992,12.261791706236181,9.689475838116342,19.88501893029185,27.36503961029309,16.435323718064392,22.10930942811132,-10.495867785790633,-6.474509804143034,-26.358490566038306
16.267171212337583,-65.71647274954073,-33.92823972662753,114.76256339326879,-122.69551326573134,15.765893470790331,11.698955365622055,8.718265399839037,19.829756427324813,27.362769178023644,16.43531026463917,22.109309211093752,-10.495867785436321,-6.474509804137106,-26.35849056603832
16.267171212337583,-65.71647274954073,-33.92823972662753,114.76256339326879,-122.69551326573134,15.765893470790331,11.698955365622055,-4.638080312165167,4.508412945092438,10.430521137372626,7.470593599758042,23.13764906478558,-8.396694231531407,-13.447058823738455,-29.952830188679883
16.267171212337583,-65.71647274954073,-33.92823972662753,114.76256339326879,-122.69551326573134,15.765893470790331,11.698955365622055,15.470480001478494,20.938763478955376,12.421442119187759,-7.470584305224337,-26.222674554962804,-7.347107454578996,12.450980391957529,-19.16981132075523
21.562616021704997,-52.80649112063687,-34.64041005870499,115.11387736284001,-122.57202389220726,15.65678694158072,11.055713833491609,14.793297556818565,20.873972877581043,12.42043291927661,-7.470577578544707,-26.22267436398695,-7.347107454490484,12.450980391947475,-19.1698113207553
21.562616021704997,-52.80649112063687,-34.64041005870499,115.11387736284001,-122.57202389220726,15.65678694158072,11.055713833491609,19.474154884341466,20.809315957285705,3.4564943890903232,2.4902104942005154,-8.740892970951682,-2.0991735705254735,-0.4980392159046665,-32.34905660377437
21.562616021704997,-52.80649112063687,-34.64041005870499,115.11387736284001,-122.57202389220726,15.65678694158072,11.055713833491609,0.020815624784265907,4.388217418803663,-12.477854784871884,11.454912023964804,17.9959489108959,-7.347107454756465,-8.466666666883539,-25.16037735849124
27.619734399543066,-47.82914880587876,-34.573644090072726,115.90433379437529,-122.50145853590777,14.020189003436371,12.342196897752501,-2.951728225692797,4.461941989794084,-12.47676221275149,11.454902774734089,17.9959487286012,-7.347107454667954,-8.466666666875941,-25.160377358491257
27.619734399543066,-47.82914880587876,-34.573644090072726,115.90433379437529,-122.50145853590777,14.020189003436371,12.342196897752501,26.308955994227816,15.43961232908904,-10.48390760420274,-6.474512897415906,-39.59109541341865,-12.595041338455943,-1.4941176472610722,-19.16981132075537
27.619734399543066,-47.82914880587876,-34.573644090072726,115.90433379437529,-122.50145853590777,14.020189003436371,12.342196897752501,12.857748763371495,16.510818426370925,15.409923817474159,-8.466663280784253,-43.70445539243105,-32.537190096655124,-9.462745098239113,-29.952830188680075
24.71812080536914,-57.4727495407226,-34.10628230964689,116.25564776394653,-122.51909987498263,12.92912371134014,13.7090851535296,13.69746027868775,16.482320638445827,15.408662379405337,-8.466655713267146,-43.70445505388311,-32.537190094440206,-9.462745098230684,-29.952830188680053
24.71812080536914,-57.4727495407226,-34.10628230964689,116.25564776394653,-122.51909987498263,12.92912371134014,13.7090851535296,-14.41025899043646,-4.264542252523714,-29.40724586883682,18.42746148863153,31.364370446449392,7.347107425236079,-13.447058823712132,-31.150943396227213
24.71812080536914,-57.4727495407226,-34.10628230964689,116.25564776394653,-122.51909987498263,12.92912371134014,13.7090851535296,15.125184487538485,31.86632668044136,12.422279556371322,-3.486272607810681,-21.080973454872822,-1.3342940086147337e-08,13.447058823356302,-22.764150943396913
16.70241325146367,-58.25045927740356,-34.373346184175944,116.10926694329184,-122.44853451868315,13.201890034364226,13.146248812915474,17.188825499809624,31.70815970255186,12.421270318755823,-3.486269244479199,-21.080973307300532,-1.3874657867063434e-08,13.447058823345388,-22.764150943396956
16.70241325146367,-58.25045927740356,-34.373346184175944,116.10926694329184,-122.44853451868315,13.201890034364226,13.146248812915474,15.377598156940692,21.736606780467348,-13.472645953020864,2.4902029264919237,25.194330022193753,14.694214860447818,-0.49803921588008615,-23.962264150944176
16.70241325146367,-58.25045927740356,-34.373346184175944,116.10926694329184,-122.44853451868315,13.201890034364226,13.146248812915474,2.6828077967093513,5.305866640613276,-2.5167779065890366,2.490201244797817,38.56275069835597,-1.0495867929538045,18.427450980197666,-26.35849056603857
15.940739682993016,-58.40600122473975,-34.284324892666255,116.10926694329184,-122.44853451868315,13.91108247422676,12.181386514719861,1.8244724292828902,5.370054251998901,-2.5165261033692863,2.4901995631044214,38.56275034244707,-1.049586793396922,18.42745098018255,-26.35849056603858
15.940739682993016,-58.40600122473975,-34.284324892666255,116.10926694329184,-122.44853451868315,13.91108247422676,12.181386514719861,8.248796794358405,11.976536039402077,2.4631308959439218,-5.478427195443011,-1.5425127711275506,6.297520643587058,4.482352940952881,-25.160377358491406
15.940739682993016,-58.40600122473975,-34.284324892666255,116.10926694329184,-122.44853451868315,13.91108247422676,12.181386514719861,4.819932553587453,13.075236411852073,-0.5246807822715517,10.458828003271504,-1.542512788488731,-10.495867785881057,-0.4980392159128004,-23.962264150944247
20.4382407539626,-52.339865278628295,-33.90598440375011,116.54840940525588,-122.44853451868315,13.801975945017148,11.940170940170901,4.091280630749161,13.074172974984512,-0.5245971282342985,10.458819594880403,-1.5425128058499107,-10.495867785526766,-0.4980392159119358,-23.962264150944275
20.4382407539626,-52.339865278628295,-33.90598440375011,116.54840940525588,-122.44853451868315,13.801975945017148,11.940170940170901,12.252573127060508,1.0781940404156707,20.38898839144849,21.415670667168136,-0.5141727525017115,-38.83471075810556,-24.403921568850315,-29.95283018868021
20.4382407539626,-52.339865278628295,-33.90598440375011,116.54840940525588,-122.44853451868315,13.801975945017148,11.940170940170901,24.83128928584978,21.8965685537419,-8.493243571426445,-9.462769163236374,29.307689272028362,-24.140495880504854,-3.4862745100074384,-22.7641509433971
22.070398400685434,-53.584200857317825,-33.81696311224043,117.07538035961272,-122.53674121405751,13.14733676975942,12.824628046850307,26.39709609925741,21.82117255923783,-8.492487317703663,-9.462760754870414,29.307688994245872,-24.14049587899876,-3.486274510004051,-22.76415094339714
22.070398400685434,-53.584200857317825,-33.81696311224043,117.07538035961272,-122.53674121405751,13.14733676975942,12.824628046850307,11.556377330037636,20.655578679038694,-0.524682764954389,10.45881034562886,-37.53441587964617,-14.694214886514958,4.482352940979083,-25.160377358491544
22.070398400685434,-53.584200857317825,-33.81696311224043,117.07538035961272,-122.53674121405751,13.14733676975942,12.824628046850307,1.5017479711806487,9.685496231567699,1.4671629705599778,2.4901768603904757,-79.69635849226694,-7.347107448379161,-14.443137255101153,-33.54716981132184
19.785377695273468,-54.828536436007354,-33.70568649785333,117.33886583679116,-122.57202389220726,12.874570446735333,13.226654004431794,-0.025792296092637557,9.712091843320012,1.4670784852899441,2.4901751787073865,-79.69635784989414,-7.347107448290664,-14.44313725508852,-33.54716981132178
19.785377695273468,-54.828536436007354,-33.70568649785333,117.33886583679116,-122.57202389220726,12.874570446735333,13.226654004431794,11.967928088528053,14.100281694687423,15.409328582942141,-19.423545464325546,12.85424915632262,-1.0775070613533444e-08,-5.4784313727236755,-31.15094339622736
19.785377695273468,-54.828536436007354,-33.70568649785333,117.33886583679116,-122.57202389220726,12.874570446735333,13.226654004431794,15.892869605401064,17.3610466040365,10.428661958170245,-3.4862784938809805,-9.769232538174851,-3.148760341632677,-0.4980392158562683,-23.962264150944236
17.173925460516934,-50.6289038579302,-34.351090861298516,117.39741816505303,-122.48381719683289,12.92912371134014,12.663817663817667,15.95331569276799,17.322876563515695,10.427820928790986,-3.4862751305470057,-9.76923248609038,-3.148760341898582,-0.49803921585540556,-23.96226415094426
17.173925460516934,-50.6289038579302,-34.351090861298516,117.39741816505303,-122.48381719683289,12.92912371134014,12.663817663817667,8.21455071778723,17.28483495574923,-7.498878810569653,-18.427443786317102,6.684208697344136,14.694214863015603,8.466666666497671,-17.97169811320838
17.173925460516934,-50.6289038579302,-34.351090861298516,117.39741816505303,-122.48381719683289,12.92912371134014,12.663817663817667,10.350099275936293,1.9807780978721983,-10.485849686243618,0.49805674710093,20.05262952975915,-24.1404958794426,-10.458823529585931,-28.75471698113309
18.588462087676724,-53.11757501530925,-33.75019714360817,117.66090364223145,-122.50145853590777,12.874570446735333,12.583412472301347,9.691364595496166,2.071879683907566,-10.48492526509121,0.4980567470768199,20.052629330103027,-24.140495877936498,-10.458823529576664,-28.754716981133072
18.588462087676724,-53.11757501530925,-33.75019714360817,117.66090364223145,-122.50145853590777,12.874570446735333,12.583412472301347,27.444493691201927,23.971337896965778,5.450095779237405,-10.458802733622568,17.995948989028147,-2.0991735641491083,9.462745097881974,-19.169811320755606
18.588462087676724,-53.11757501530925,-33.75019714360817,117.66090364223145,-122.50145853590777,12.874570446735333,12.583412472301347,16.156276930488573,14.06351063455159,2.4620319244116247,-11.45487161904515,-39.5910951529917,4.198347096148172,-5.478431372712592,-23.962264150944396
20.4382407539626,-55.7617881200245,-32.68194164549198,118.10004610419548,-122.62494790943185,12.820017182130528,12.905033238366514,16.70135751018424,14.052845728720492,2.461863412515304,-11.454861529027673,-39.59109484916658,4.198347095262056,-5.478431372707521,-23.96226415094442
20.4382407539626,-55.7617881200245,-32.68194164549198,118.10004610419548,-122.62494790943185,12.820017182130528,12.905033238366514,-4.54847119457107,17.313514263973445,-11.480639672177471,-0.4979919583391811,-13.882592777606995,-27.289256208883042,-55.28235294132586,-35.94339622641626
20.4382407539626,-55.7617881200245,-32.68194164549198,118.10004610419548,-122.62494790943185,12.820017182130528,12.905033238366514,18.442289740673452,10.73263340087643,5.450346472530426,11.45494649774352,-26.22267353931216,-2.099173564503964,3.486274509696873,-17.97169811320846
19.71283735541912,-54.828536436007354,-32.45938841671778,118.3635315813739,-122.71315460480622,12.710910652920916,13.226654004431794,18.986783033357256,10.74976417438721,5.449925730260536,11.454937248498254,-26.222673348336272,-2.099173564858491,3.486274509694372,-17.97169811320854
19.71283735541912,-54.828536436007354,-32.45938841671778,118.3635315813739,-122.71315460480622,12.710910652920916,13.226654004431794,26.71582871638114,12.947680467595532,-5.5051864499584475,-1.4940877506320762,0.5141686810834356,3.148760318663479,1.4941176469469344,-28.75471698113325
19.71283735541912,-54.828536436007354,-32.45938841671778,118.3635315813739,-122.71315460480622,12.710910652920916,13.226654004431794,-5.467071008045394,0.9513755349106798,-6.50056346082914,-0.4980079343800712,45.761131757573466,6.297520648191849,-12.450980392268445,-32.34905660377478
15.432957304012579,-55.60624617268831,-32.5929203539823,118.30497925311204,-122.73079594388108,13.365549828178644,12.422602089268707,-7.9662426654784895,1.051130681323846,-6.499975384780684,-0.4980070935727443,45.76113134089961,6.297520647128522,-12.450980392257494,-32.34905660377473
15.432957304012579,-55.60624617268831,-32.5929203539823,118.30497925311204,-122.73079594388108,13.365549828178644,12.422602089268707,1.667705971369129,18.597433522315587,3.459423080178727,18.427478304764247,-2.570852399114991,-16.793388442991393,11.454901960692695,-22.76415094339723
15.432957304012579,-55.60624617268831,-32.5929203539823,118.30497925311204,-122.73079594388108,13.365549828178644,12.422602089268707,8.969091826190153,9.825411021823578,-6.499639978812128,-0.49802138786454064,-34.449394599786146,16.79338841470408,18.427450980290747,-27.556603773585994
16.194630872483234,-51.40661359461115,-32.10330325067905,118.50991240202859,-122.7837199611057,14.074742268041177,11.538144982589415,9.93244656877953,9.850680314340245,-6.499051942669864,-0.49802054705154364,-34.449394339364574,16.793388412754748,18.427450980275633,-27.556603773585987
16.194630872483234,-51.40661359461115,-32.10330325067905,118.50991240202859,-122.7837199611057,14.074742268041177,11.538144982589415,7.005618848956825,16.418404807177453,-7.494344973083676,4.4823709667953135,-17.995952947592972,-7.347107455026476,14.443137254770647,-26.3584905660388
16.194630872483234,-51.40661359461115,-32.10330325067905,118.50991240202859,-122.7837199611057,14.074742268041177,11.538144982589415,10.316900083416282,17.478520531550203,11.428066866478286,2.4902113342082903,-4.627531906840883,-8.39669423171329,-14.443137255042679,-32.34905660377471
19.676567185491944,-52.184323331292106,-31.524664855866117,119.0954356846473,-122.96013335185441,14.292955326460458,11.457739791073095,12.374966506176794,17.439056609747134,11.427141616234598,2.4902096525106225,-4.6275318981599405,-8.396694231536205,-14.443137255030049,-32.34905660377466
19.676567185491944,-52.184323331292106,-31.524664855866117,119.0954356846473,-122.96013335185441,14.292955326460458,11.457739791073095,6.402618332559367,4.314433035007198,11.426216404722224,1.494129836206822,30.33603051463985,26.239669402225765,40.341176470468326,-23.962264150944343
19.676567185491944,-52.184323331292106,-31.524664855866117,119.0954356846473,-122.96013335185441,14.292955326460458,11.457739791073095,20.62605141742133,30.556211620935752,27.359387894426334,5.478441533775074,31.364370298886023,-3.1487603502293613,-8.466666666816247,-28.754716981133093
20.14807939454521,-59.02816901408451,-31.569175501620958,119.53457814661134,-123.20711209890263,14.511168384879682,11.859765748654581,23.00544917949952,30.406178498124774,27.357117687282035,5.478437329567809,31.364370003742103,-3.148760350495282,-8.466666666808685,-28.754716981133072
20.14807939454521,-59.02816901408451,-31.569175501620958,119.53457814661134,-123.20711209890263,14.511168384879682,11.859765748654581,14.856017195258316,14.990629857428019,-1.5257026249188175,-7.470582624526645,21.0809690015044,3.1487603098905943,14.44313725476565,-23.962264150944332
20.14807939454521,-59.02816901408451,-31.569175501620958,119.53457814661134,-123.20711209890263,14.511168384879682,11.859765748654581,2.630553890729651,13.880332634655382,-5.5090588611808595,-15.439200974702485,1.542507449689408,-13.644628119311719,-6.474509804067961,-29.952830188680263
17.210195630444108,-59.33925290875689,-32.10330325067905,119.65168280313509,-123.34824281150159,15.056701030927798,11.698955365622055,1.5409329114808248,13.869806117475818,-5.5085546707636235,-15.439187521329423,1.5425074062861004,-13.64462811869163,-6.474509804062085,-29.952830188680235
17.210195630444108,-59.33925290875689,-32.10330325067905,119.65168280313509,-123.34824281150159,15.056701030927798,11.698955365622055,14.756990583734162,12.768931032356146,9.43016511926476,-2.4901583180730733,38.562749908420386,-2.0991735735432453,2.490196078296006,-26.35849056603866
17.210195630444108,-59.33925290875689,-32.10330325067905,119.65168280313509,-123.34824281150159,15.056701030927798,11.698955365622055,17.88009378172788,8.40603543820228,-4.512926318972729,4.482391146653911,5.655867289811418,-25.190082662954357,-2.4901960785680264,-19.16981132075557
15.070255604740838,-59.1837109614207,-32.79321825987908,119.53457814661134,-123.43644950687596,15.874999999999943,10.894903450458969,18.24619996048321,8.441768766842994,-4.512506206720582,4.482387783272052,5.655867211685274,-25.190082661359664,-2.4901960785655137,-19.169811320755635
15.070255604740838,-59.1837109614207,-32.79321825987908,119.53457814661134,-123.43644950687596,15.874999999999943,10.894903450458969,4.819467055312096,6.296507462036864,51.25725220623525,20.41963457360111,-7.712553785662782,-9.446281008135479,0.4980392155544038,-29.95283018868033
15.070255604740838,-59.1837109614207,-32.79321825987908,119.53457814661134,-123.43644950687596,15.874999999999943,10.894903450458969,7.858638140636726,3.0790886520808787,-35.38868607555464,-23.407820165873012,-20.052634599452222,-8.396694231094493,-9.46274509817029,-26.358490566038753
16.521062401827802,-54.0508266993264,-33.104792780162974,119.68095896726602,-123.45409084595082,16.42053264604806,10.171256726812317,6.825285295529282,3.160379012955884,-35.385659738834185,-23.407799985805433,-20.05263446056061,-8.396694230917408,-9.462745098161893,-26.358490566038753
16.521062401827802,-54.0508266993264,-33.104792780162974,119.68095896726602,-123.45409084595082,16.42053264604806,10.171256726812317,24.246355045614088,23.95965950421485,13.415537498750604,10.458876770886306,-21.08097439237837,-2.0991735700885252,-4.482352941291158,-21.566037735850024
16.521062401827802,-54.0508266993264,-33.104792780162974,119.68095896726602,-123.45409084595082,16.42053264604806,10.171256726812317,-7.346813823965718,5.327855944952823,-46.33841819126428,-7.470538060448575,-0.5141728306184916,-9.446281007870141,-4.482352941286968,-25.160377358491612
18.55219191774955,-56.38395590936926,-33.238324717427496,119.8273397879207,-123.48937352410056,16.52963917525767,10.010446343779677,-8.697051548656088,5.390396183212404,-46.334467326686124,-7.470531333788479,-0.5141728566603829,-9.446281007604457,-4.482352941282779,-25.16037735849162
18.55219191774955,-56.38395590936926,-33.238324717427496,119.8273397879207,-123.48937352410056,16.52963917525767,10.010446343779677,6.606696827897233,2.1813223308895893,-10.478799138711235,-5.478368337917532,-27.251014721146095,-26.23966943574357,-4.482352941278592,-27.55660377358599
18.55219191774955,-56.38395590936926,-33.238324717427496,119.8273397879207,-123.48937352410056,16.52963917525767,10.010446343779677,28.04086772204442,17.537022191995167,36.3285339228048,21.415746341447413,32.392709579654394,-15.743801666307279,-0.49803921578453014,-29.952830188680345
17.645437669570196,-64.16105327617882,-33.127048103040394,119.71023513139696,-123.61286289762467,16.802405498281757,10.251661918328637,33.334658684875585,17.497258435859823,36.325506846403655,21.415728683823083,32.39270927582976,-15.743801665509988,-0.4980392157837046,-29.95283018868031
17.645437669570196,-64.16105327617882,-33.127048103040394,119.71023513139696,-123.61286289762467,16.802405498281757,10.251661918328637,14.056293691972462,14.186295549423896,-5.50452384151597,5.4784608724967105,26.222668547748842,12.595041308220392,26.396078431273768,-15.575471698114095
17.645437669570196,-64.16105327617882,-33.127048103040394,119.71023513139696,-123.61286289762467,16.802405498281757,10.251661918328637,9.98122762037309,18.53615434030351,22.38064931342917,-7.470559081607679,-14.910934532366651,-29.38842976438652,-9.462745098156963,-26.358490566038817
14.99771526488649,-69.13839559093694,-33.68343117497591,119.18326417704012,-123.68342825392415,17.51159793814429,9.930041152263357,13.505980506031438,18.48745697694575,22.378799409436287,-7.470552354938709,-14.910934436878621,-29.38842976243742,-9.46274509814857,-26.358490566038814
14.99771526488649,-69.13839559093694,-33.68343117497591,119.18326417704012,-123.68342825392415,17.51159793814429,9.930041152263357,1.0739038969567378,16.258074096329032,-12.478886865815104,-15.43917070512733,4.627527002087579,-1.049586787555227,-29.384313725589543,-28.75471698113317
14.99771526488649,-69.13839559093694,-33.68343117497591,119.18326417704012,-123.68342825392415,17.51159793814429,9.930041152263357,14.975667930662352,11.866428227082944,4.45218343741824,-4.482297771091765,-66.32793794630496,2.0991735423275593,1.4941176469821786,-23.96226415094442
15.795659003284321,-61.205756276791185,-34.284324892666255,118.80267404333794,-123.61286289762467,17.948024054982795,9.36720481164923,17.345003044516766,11.873493912006841,4.451846850192242,-4.482293566945531,-66.32793741678141,2.0991735416186383,1.4941176469813273,-23.96226415094444
15.795659003284321,-61.205756276791185,-34.284324892666255,118.80267404333794,-123.61286289762467,17.948024054982795,9.36720481164923,19.481886373713234,34.7797699279124,29.3485363120629,-2.4901330935873824,-21.080973776045248,-19.942148771371578,0.498039215608007,-23.962264150944456
15.795659003284321,-61.205756276791185,-34.284324892666255,118.80267404333794,-123.61286289762467,17.948024054982795,9.36720481164923,18.233493351249212,7.332520162730189,-17.46031086994856,32.37260414012057,-2.5708523557041785,-7.34710744891629,9.462745097960212,-22.764150943397294
18.91489361702129,-64.00551132884263,-34.66266538158241,118.48063623789766,-123.55993888040004,17.67525773195871,9.68882557771451,18.731687433199184,7.377230291725542,-17.458797850703103,32.37257723328859,-2.5708523643846988,-7.347107448827804,9.462745097952636,-22.76415094339732
18.91489361702129,-64.00551132884263,-34.66266538158241,118.48063623789766,-123.55993888040004,17.67525773195871,9.68882557771451,-1.6102277135947975,27.049712753843735,-6.502593440066274,21.415690845792685,12.85424868757545,-19.942148770042913,-10.458823529504306,-27.556603773586072
18.91489361702129,-64.00551132884263,-34.66266538158241,118.48063623789766,-123.55993888040004,17.67525773195871,9.68882557771451,7.8380926457727815,23.65714293645612,9.432091375686241,-13.44706152304772,14.910928690103034,7.347107427266579,5.478431372464426,-19.16981132075579
18.697272597458245,-71.16044090630741,-34.328835538421096,118.10004610419548,-123.64814557577441,17.51159793814429,10.653687875910123,5.038581259004591,23.56411137596288,9.4313344307396,-13.447049751341781,14.910928533850438,7.347107426114659,5.478431372460215,-19.169811320755848
18.697272597458245,-71.16044090630741,-34.328835538421096,118.10004610419548,-123.64814557577441,17.51159793814429,10.653687875910123,3.1033513805501247,0.5723612344413933,5.447053351930898,-7.470569171999756,9.76922802405097,-10.495867780217356,-9.462745098131021,-33.54716981132208
18.697272597458245,-71.16044090630741,-34.328835538421096,118.10004610419548,-123.64814557577441,17.51159793814429,10.653687875910123,4.3805778766982,7.21630076013084,-33.39272787593492,9.462765842989826,11.825908052620699,-9.446281003087769,1.4941176469745243,-25.160377358491743
17.065114950735413,-69.44947948560932,-34.239814246911415,117.66090364223145,-123.71871093207389,17.67525773195871,11.136119025007929,-0.768165033487918,7.262046970895366,-33.38986985560251,9.462758275429113,11.825907922410249,-9.446281002822083,1.4941176469736712,-25.16037735849175
17.065114950735413,-69.44947948560932,-34.239814246911415,117.66090364223145,-123.71871093207389,17.67525773195871,11.136119025007929,19.31475638418474,0.7650502068823073,-2.514699672690692,-9.462733849658422,-46.78947623823472,-1.0495867883540013,4.482352941090221,-27.556603773586115
17.065114950735413,-69.44947948560932,-34.239814246911415,117.66090364223145,-123.71871093207389,17.67525773195871,11.136119025007929,17.584084925157978,21.58415006659059,12.423767647465873,-5.47841290288,-17.995953893782097,6.297520648629979,12.45098039206659,-19.16981132075583
14.707553905469098,-73.3380281690141,-34.64041005870499,116.95827570308899,-123.77163494929852,18.220790378006825,11.136119025007929,13.858436720833566,21.50963969893347,12.422758329479423,-5.478407857881,-17.995953772251944,6.297520647566662,12.450980392056485,-19.169811320755887
14.707553905469098,-73.3380281690141,-34.64041005870499,116.95827570308899,-123.77163494929852,18.220790378006825,11.136119025007929,7.898306320153744,-8.006342124631693,-35.38054093359092,-13.447027889738878,-22.10931393355931,-15.743801665777942,-20.41960784324508,-38.33962264151084
14.707553905469098,-73.3380281690141,-34.64041005870499,116.95827570308899,-123.77163494929852,18.220790378006825,11.136119025007929,19.081756374150324,33.60517638655933,29.354752743796247,8.466702843303416,-40.619435050075126,-3.1487603436770493,-33.36862745106953,-31.150943396227646
15.396687134085404,-70.53827311696264,-34.462367475685625,116.4020285846012,-123.842200305598,18.76632302405494,11.055713833491609,15.893804677277245,33.42953453026857,29.352314242013815,8.466696116573441,-40.61943473756936,-3.148760343942957,-33.36862745104096,-31.150943396227596
15.396687134085404,-70.53827311696264,-34.462367475685625,116.4020285846012,-123.842200305598,18.76632302405494,11.055713833491609,25.40208615119207,21.259925104945182,-16.46065206168871,-5.478404494649505,-34.44939400080733,-16.793388442287757,10.4588235293762,-14.377358490567007
15.396687134085404,-70.53827311696264,-34.462367475685625,116.4020285846012,-123.842200305598,18.76632302405494,11.055713833491609,-3.5631848568497855,8.10203601566706,10.429564845173918,0.4980693579870029,28.27935057288621,-16.79338844140186,31.376470588189598,-28.754716981133278
17.101385120662588,-66.33864053888549,-33.88372908087269,116.2263715998156,-123.93040700097234,19.14819587628864,11.055713833491609,-8.052049764629366,8.140364681979715,10.428723762544967,0.49806935795757107,28.279350303784362,-16.79338844051597,31.3764705881635,-28.754716981133253
17.101385120662588,-66.33864053888549,-33.88372908087269,116.2263715998156,-123.93040700097234,19.14819587628864,11.055713833491609,2.0856482104616187,-3.8161403793687008,-21.440310609741964,-15.439180795781352,-13.882592864401966,-9.446281002202982,-7.4705882353888695,-35.94339622641631
17.101385120662588,-66.33864053888549,-33.88372908087269,116.2263715998156,-123.93040700097234,19.14819587628864,11.055713833491609,18.167984750957526,27.946174141622322,9.43385080803458,2.490239080506396,-2.570851999791519,-3.1487603412855005,5.478431372459898,-26.358490566038775
20.039268884763686,-59.650336803429276,-33.61666520634364,116.4020285846012,-123.98333101819696,19.14819587628864,11.216524216524249,18.458344334372008,27.818341892320063,9.433093784657714,2.4902373987970363,-2.5708520084720456,-3.1487603415514194,5.478431372455648,-26.35849056603877
20.039268884763686,-59.650336803429276,-33.61666520634364,116.4020285846012,-123.98333101819696,19.14819587628864,11.216524216524249,19.5023405752115,6.972870851782849,-14.468808200705356,15.439251466977352,16.967609326325608,-5.247933895367935,19.42352941166595,-19.169811320755677
22.90461230901044,-62.7611757501531,-33.70568649785333,116.7240663900415,-124.14210306987081,18.49355670103091,12.583412472301347,10.004256750933834,7.021374799231464,-14.467547550893615,15.439238854386792,16.967609152711585,-5.247933895456651,19.423529411649923,-19.169811320755734
22.90461230901044,-62.7611757501531,-33.70568649785333,116.7240663900415,-124.14210306987081,18.49355670103091,12.583412472301347,-1.8620757720317886,-0.5632272876319337,11.426620121905717,-7.470570854155836,0.5141678477475287,-6.297520672320666,-8.466666666795218,-29.952830188680426
22.90461230901044,-62.7611757501531,-33.70568649785333,116.7240663900415,-124.14210306987081,18.49355670103091,12.583412472301347,5.504769396068,20.26798568828199,11.425694920755166,-20.419579877370836,-63.24291657095653,-41.98347108268097,-4.482352941297839,-27.556603773586026
22.46937026988435,-61.98346601347214,-33.81696311224043,117.04610419548179,-124.28323378246978,17.948024054982795,13.7090851535296,0.9509671164400313,20.20561906802287,11.4247697583794,-20.419562219817088,-63.242916067475115,-41.983471079668654,-4.482352941293697,-27.556603773586012
22.46937026988435,-61.98346601347214,-33.81696311224043,117.04610419548179,-124.28323378246978,17.948024054982795,13.7090851535296,17.390650565559866,4.877523846170066,-17.456705565898684,-1.4940600047407624,19.024290092756516,1.0495867711309304,-12.450980392269305,-33.54716981132191
22.46937026988435,-61.98346601347214,-33.81696311224043,117.04610419548179,-124.28323378246978,17.948024054982795,13.7090851535296,16.655898783687185,11.487518044248567,-8.492263332876776,-8.466605265355193,-29.30769342155966,-8.39669422046709,6.4745098038184645,-17.97169811320848
20.07553905469086,-56.69503980404165,-33.99500569525979,117.25103734439834,-124.31851646061952,17.67525773195871,14.030705919594766,16.087433102922716,11.499513475293362,-8.491507140304348,-8.46659769786256,-29.30769320454169,-8.396694220290009,6.474509803813361,-17.971698113208543
20.07553905469086,-56.69503980404165,-33.99500569525979,117.25103734439834,-124.31851646061952,17.67525773195871,14.030705919594766,9.406003791383831,13.692487706647523,3.459821516880777,-8.46659013037312,-19.02429228042995,-8.396694220112929,8.466666666553195,-22.76415094339733
20.07553905469086,-56.69503980404165,-33.99500569525979,117.25103734439834,-124.31851646061952,17.67525773195871,14.030705919594766,6.7815075141676635,19.13846989093826,-6.499241573949152,2.490276917788403,-5.655871230997192,27.28925619042434,2.4901960783115977,-26.358490566038896
20.365700414108254,-54.828536436007354,-34.06177166389205,117.48524665744583,-124.26559244339492,17.457044673539485,13.950300728078446,6.015682712334221,19.086414322393672,-6.498653569657115,2.4902752360630824,-5.655871213635583,27.28925618758899,2.490196078309854,-26.358490566038885
20.365700414108254,-54.828536436007354,-34.06177166389205,117.48524665744583,-124.26559244339492,17.457044673539485,13.950300728078446,14.803776028545935,16.85387494097111,35.328938148422736,-26.395992349259988,-7.712551337692731,-10.49586777915713,-0.49803921580929544,-25.16037735849169
20.365700414108254,-54.828536436007354,-34.06177166389205,117.48524665744583,-124.26559244339492,17.457044673539485,13.950300728078446,3.5868010148270697,17.911472510639623,-9.48865157788173,-12.450875762211457,-7.712551302969702,-13.644628109128746,-1.4941176471809863,-27.556603773586055
22.868342139083264,-57.4727495407226,-34.306580215543676,117.83656062701706,-124.3361577996944,16.584192439862477,15.236783792339338,2.8809946805471363,17.869766343013744,-9.487811298722166,-12.450864831388069,-7.712551268246673,-13.644628108508662,-1.494117647179368,-27.556603773586033
22.868342139083264,-57.4727495407226,-34.306580215543676,117.83656062701706,-124.3361577996944,16.584192439862477,15.236783792339338,12.378648784096535,-2.8899026988169823,-17.454019386559025,18.42756827224284,4.627529614988886,-7.347107447236784,2.490196078312124,-26.35849056603883
22.868342139083264,-57.4727495407226,-34.306580215543676,117.83656062701706,-124.3361577996944,16.584192439862477,15.236783792339338,11.32844148616983,10.329329994416023,6.4486383513154815,-6.474400228064955,11.82591004050903,-2.0991735632718074,3.486274509682848,-28.754716981133182
21.707696701413695,-57.31720759338641,-34.284324892666255,118.10004610419548,-124.35379913876926,15.984106529209555,15.960430515986104,12.461653602705937,10.35244040433041,6.448133421503422,-6.474394342267157,11.825909910298558,-2.0991735636263344,3.4862745096802628,-28.75471698113315
21.707696701413695,-57.31720759338641,-34.284324892666255,118.10004610419548,-124.35379913876926,15.984106529209555,15.960430515986104,13.340091762331728,16.91826305062765,-12.47411127400515,-6.474388456471845,-23.137652624030757,-16.79338843883506,25.39999999987198,-28.754716981133118
21.707696701413695,-57.31720759338641,-34.284324892666255,118.10004610419548,-124.35379913876926,15.984106529209555,15.960430515986104,20.27861987461874,8.162775278368944,-0.5224463906172975,13.447180121457848,-7.712551398456403,-20.991735545050382,1.494117646911665,-20.367924528302815
20.039268884763686,-53.895284751990204,-33.99500569525979,118.30497925311204,-124.3361577996944,15.602233676975914,16.28205128205127,22.636790272602788,8.204751510132443,-0.5223628554441757,13.447169190505692,-7.7125513637333745,-20.991735543810115,1.494117646910764,-20.367924528302858
20.039268884763686,-53.895284751990204,-33.99500569525979,118.30497925311204,-124.3361577996944,15.602233676975914,16.28205128205127,19.36069529722669,23.512866272032987,-15.460494945220553,9.46284572113078,37.53441178220228,9.446280983913843,-13.447058823677162,-21.56603773585008
20.039268884763686,-53.895284751990204,-33.99500569525979,118.30497925311204,-124.3361577996944,15.602233676975914,16.28205128205127,6.851736088646188,19.064186625955998,7.446113540545631,14.443228826570571,10.79756959653025,26.239669410989485,18.427450980253532,-28.7547169811332
20.365700414108254,-52.495407225964485,-33.193814071672655,118.65629322268327,-124.389081816919,15.220360824742215,16.764482431149077,7.499347369309882,19.014640293613187,7.445524474154495,14.44321705479371,10.797569475000529,26.239669408242726,18.42745098023834,-28.75471698113317
20.365700414108254,-52.495407225964485,-33.193814071672655,118.65629322268327,-124.389081816919,15.220360824742215,16.764482431149077,12.708510998200955,9.151549529423715,2.465530225222261,2.490267667739699,-23.13765297993865,-9.446281004864206,15.439215686105745,-21.566037735850053
20.365700414108254,-52.495407225964485,-33.193814071672655,118.65629322268327,-124.389081816919,15.220360824742215,16.764482431149077,16.02282300278591,15.728313246146262,-5.501686788058558,5.478500389838809,-0.5141712593986099,-14.69421488847503,-14.443137255080968,-26.358490566038807
18.29830072825933,-49.07348438456828,-32.79321825987908,118.9197786998617,-124.35379913876926,15.384020618556633,16.20164609053495,17.89959780234161,15.707270564494648,-5.501182926770837,5.478496185606721,-0.5141712854405123,-14.694214887766352,-14.443137255068413,-26.358490566038796
18.29830072825933,-49.07348438456828,-32.79321825987908,118.9197786998617,-124.35379913876926,15.384020618556633,16.20164609053495,10.941783464245189,35.31444380954993,26.367514237771353,33.368679750368024,25.194330456252025,-13.644628110282374,-31.376470588387818,-29.95283018868033
18.29830072825933,-49.07348438456828,-32.79321825987908,118.9197786998617,-124.35379913876926,15.384020618556633,16.20164609053495,10.924384361087293,12.229111108630697,-3.5111033327398107,7.470620502922062,22.109310001064223,-15.743801663212897,-4.482352941304326,-23.96226415094438
18.443381407968026,-50.473361910594,-32.12555857355647,119.27109266943292,-124.40672315599389,15.602233676975914,15.880025324469784,12.04271305013352,12.237373676727836,-3.5107675569581747,7.470614617030995,22.10930978404669,-15.743801662415613,-4.482352941300176,-23.962264150944392
18.443381407968026,-50.473361910594,-32.12555857355647,119.27109266943292,-124.40672315599389,15.602233676975914,15.880025324469784,16.68137867892534,10.064992855778495,-12.473361168330594,10.458843134962942,9.76922871851664,-3.1487603403147357,-3.4862745099235606,-23.962264150944403
18.443381407968026,-50.473361910594,-32.12555857355647,119.27109266943292,-124.40672315599389,15.602233676975914,15.880025324469784,8.970451983152845,11.182570752912936,2.4659468031140137,3.4862877843175664,30.336030019855208,6.297520650397042,9.462745097921834,-26.358490566038775
19.930458374982162,-55.29516227801592,-32.03653728204679,119.73951129552789,-124.5831365467426,15.765893470790331,15.960430515986104,9.944253381758696,11.200648150782925,2.4657781008903332,3.4862852617835163,30.33602973339201,6.297520649333714,9.46274509791421,-26.358490566038768
19.930458374982162,-55.29516227801592,-32.03653728204679,119.73951129552789,-124.5831365467426,15.765893470790331,15.960430515986104,3.5369737149772194,-2.9568141317357757,-12.472606215648474,-21.415670625920555,-10.797573381446302,-13.644628110460294,1.4941176469268358,-27.556603773585937
19.930458374982162,-55.29516227801592,-32.03653728204679,119.73951129552789,-124.5831365467426,15.765893470790331,15.960430515986104,3.1480011159993406,6.995213378610894,-0.5209414014425294,-10.458792646849078,3.5991876692502087,-14.6942148866155,-39.34509803934527,-35.94339622641618
18.769812937312594,-56.072872014696884,-32.34811180233068,120.09082526509913,-124.7066259202667,16.202319587628836,15.638809749920824,3.9635517379997074,7.050055382201477,-0.5208579354957301,-10.45878339766906,3.599187608485482,-14.694214885906803,-39.34509803931171,-35.94339622641609
18.769812937312594,-56.072872014696884,-32.34811180233068,120.09082526509913,-124.7066259202667,16.202319587628836,15.638809749920824,1.1608045009279042,19.09968425724636,13.421560106161728,-14.443086686920319,-72.4979776847732,-16.793388438748707,3.4862745097379797,-17.97169811320827
18.769812937312594,-56.072872014696884,-32.34811180233068,120.09082526509913,-124.7066259202667,16.202319587628836,15.638809749920824,11.059324852936445,8.148773280985942,0.4740130869496947,-5.47837086293802,0.5141679172004778,-9.446281000435716,1.4941176469904427,-21.56603773584987
19.966728544909337,-50.6289038579302,-32.14781389643389,120.67634854771785,-124.77719127656619,16.52963917525767,14.995568217790492,12.482499299672801,8.194684642193401,0.4740125237260984,-5.47836581795676,0.5141678824778797,-9.446281000170028,1.4941176469895239,-21.566037735849896
19.966728544909337,-50.6289038579302,-32.14781389643389,120.67634854771785,-124.77719127656619,16.52963917525767,14.995568217790492,15.769118594058682,20.235404818737578,25.371037995232523,-6.474438907584476,-2.5708523643728496,-15.743801660556139,13.447058823458226,-28.75471698113301
19.966728544909337,-50.6289038579302,-32.14781389643389,120.67634854771785,-124.77719127656619,16.52963917525767,14.995568217790492,14.307875905466215,7.09473028299136,-5.503376529062082,-7.470511156377195,-11.825913009437713,6.297520652522445,1.4941176469775925,-27.556603773585792
23.702556047408265,-48.606858542559706,-31.813984053272584,121.58390963577686,-124.88303931101541,16.25687285223364,15.236783792339338,15.405091419643393,7.150191754901883,-5.5028726021209975,-7.47050442972843,-11.82591293999178,6.297520651459125,1.4941176469766684,-27.556603773585763
23.702556047408265,-48.606858542559706,-31.813984053272584,121.58390963577686,-124.88303931101541,16.25687285223364,15.236783792339338,-6.229355160848897,-13.512786079418834,-48.32525347714548,11.454986854447519,10.797568685060462,4.198347096845213,5.478431372465618,-29.952830188680103
23.702556047408265,-48.606858542559706,-31.813984053272584,121.58390963577686,-124.88303931101541,16.25687285223364,15.236783792339338,4.250959556002472,7.435710481532618,-0.5188447219041816,4.482430662937334,-12.854253062784931,-4.198347118243289,6.474509803833798,-25.160377358491328
23.231043838355006,-51.095529699938766,-31.324366949969335,122.432918395574,-125.05945270176412,16.14776632302403,15.477999366888298,2.859410400234669,7.490048070942045,-0.5187613479494466,4.482427299538832,-12.854252984658293,-4.19834711842059,6.474509803828671,-25.160377358491317
23.231043838355006,-51.095529699938766,-31.324366949969335,122.432918395574,-125.05945270176412,16.14776632302403,15.477999366888298,19.86228721877209,12.996397396148279,2.468965146214219,-13.44698248678143,-96.14979863399124,-33.58677686830627,10.458823529313415,-25.16037735849131
23.231043838355006,-51.095529699938766,-31.324366949969335,122.432918395574,-125.05945270176412,16.14776632302403,15.477999366888298,9.677702264038533,10.823447895234127,-19.440586599937284,-17.431283253536215,-8.740891842429932,-22.04132232147446,10.458823529304922,-22.764150943396942
21.23618449236043,-51.251071647274955,-31.346622272846755,123.1648224988474,-125.21822475343797,16.311426116838447,15.397594175371978,8.007762912161722,10.849780887049967,-19.43890595294148,-17.431268118520094,-8.740891799026128,-22.041322320145536,10.458823529296426,-22.764150943396956
21.23618449236043,-51.251071647274955,-31.346622272846755,123.1648224988474,-125.21822475343797,16.311426116838447,15.397594175371978,11.014435283525804,15.237779999588753,1.4762764920375409,-25.39987806036511,21.080970294949626,7.347107430891782,-11.454901960906376,-26.358490566038515
21.23618449236043,-51.251071647274955,-31.346622272846755,123.1648224988474,-125.21822475343797,16.311426116838447,15.397594175371978,21.333613420384147,18.49842460849865,11.435002001489783,-5.478293506527912,-14.910932388215395,-25.190082650294396,13.447058823415325,-22.764150943396952
20.728402113379992,-53.584200857317825,-31.435643564356436,123.72106961733517,-125.41227948326156,16.311426116838447,15.799620132953464,21.272009815029797,18.46020324163085,11.434076429173187,-5.478288461579308,-14.910932292727326,-25.190082648699665,13.447058823404301,-22.76415094339697
20.728402113379992,-53.584200857317825,-31.435643564356436,123.72106961733517,-125.41227948326156,16.311426116838447,15.799620132953464,20.4640175896237,7.517780547683264,-16.451518263917563,-1.4939708782054621,0.514168863401407,-5.247933888374236,-7.470588235428557,-31.150943396227255
20.728402113379992,-53.584200857317825,-31.435643564356436,123.72106961733517,-125.41227948326156,16.311426116838447,15.799620132953464,11.948758596339042,9.752876454774485,-8.483041549864511,27.39229670698884,65.29959328336962,2.0991735489641883,-0.49803921581464694,-23.96226415094411
18.842353277166943,-62.139007960808335,-31.858494699027425,123.86745043798986,-125.60633421308515,16.638745704467283,16.20164609053495,10.9742342823988,9.78847263106417,-8.482285764507015,27.39227400430734,65.29959270176231,2.0991735482553047,-0.4980392158139001,-23.96226415094412
18.842353277166943,-62.139007960808335,-31.858494699027425,123.86745043798986,-125.60633421308515,16.638745704467283,16.20164609053495,7.516971993761904,69.79811039295738,48.283689348352574,1.494219801857486,12.854248513976714,-7.347107443431278,-4.482352941303026,-23.962264150944126
18.842353277166943,-62.139007960808335,-31.858494699027425,123.86745043798986,-125.60633421308515,16.638745704467283,16.20164609053495,5.2490433592947765,11.533911295218388,20.394984086186856,9.462844037815142,-13.88259346335818,-16.793388434320455,-4.482352941298917,-28.75471698113286
18.80608310723977,-68.51622780159217,-31.546920178743537,124.07238358690641,-125.97680233365745,17.1842783505154,16.925292814181716,4.095017082950784,11.553009201256529,20.393302031305733,9.462836470221404,-13.882593376550776,-16.79338843343453,-4.482352941294808,-28.754716981132823
18.80608310723977,-68.51622780159217,-31.546920178743537,124.07238358690641,-125.97680233365745,17.1842783505154,16.925292814181716,13.998218573148197,1.7582088801170404,10.432809632972269,-3.4861868472580975,-7.7125528654871065,5.247933879732672,8.466666666551388,-29.952830188679968
18.80608310723977,-68.51622780159217,-31.546920178743537,124.07238358690641,-125.97680233365745,17.1842783505154,16.925292814181716,10.278647940963378,20.397725758499263,7.444325265833302,-0.4979490801422891,-3.5991925479264566,-8.396694219320924,-18.42745098051208,-28.754716981132738
21.272454662287604,-71.3159828536436,-31.702707438885483,124.36514522821577,-126.36491179330463,17.293384879725068,18.292181069958815,10.669586027647119,20.342966244801733,7.443736259287975,-0.49794823935980537,-3.5991925479261595,-8.396694219143814,-18.427450980496207,-28.754716981132702
21.272454662287604,-71.3159828536436,-31.702707438885483,124.36514522821577,-126.36491179330463,17.293384879725068,18.292181069958815,4.066590155593239,-1.5202272987422134,-5.5033062609735355,21.41577156277288,37.53441028044925,6.2975206558874905,39.345098039122846,-16.773584905660854
21.272454662287604,-71.3159828536436,-31.702707438885483,124.36514522821577,-126.36491179330463,17.293384879725068,18.292181069958815,33.95858800886865,43.317848206107406,30.348915144046117,16.435363232103697,12.854248236196046,8.396694208374791,22.411764705758,-17.971698113208102
18.189490218477808,-61.67238211879976,-32.61517567685972,124.42369755647765,-126.48840116682871,17.78436426116832,18.05096549540997,36.43945062770855,43.070080312965906,30.346392622275598,16.43534977866181,12.854248097304964,8.396694207134292,22.411764705739415,-17.97169811320816
18.189490218477808,-61.67238211879976,-32.61517567685972,124.42369755647765,-126.48840116682871,17.78436426116832,18.05096549540997,4.847366090186185,-17.1506153729296,-58.289542478165785,-26.396023462868644,-9.769233597192418,-20.9917355438146,-13.447058823688028,-28.754716981132848
18.189490218477808,-61.67238211879976,-32.61517567685972,124.42369755647765,-126.48840116682871,17.78436426116832,18.05096549540997,-5.072635163257468,12.552267865713297,-3.511125540616103,10.458890220150431,-38.562755524970434,-14.694214881922493,-16.43529411779376,-27.55660377358563
18.73354276738542,-46.273729332516844,-33.193814071672655,124.716459197787,-126.43547714960411,17.51159793814429,18.05096549540997,-9.806900639634108,12.563813369980712,-3.5107897790515814,10.458881811733097,-38.562755229825974,-14.694214881213787,-16.43529411777956,-27.5566037735856
18.73354276738542,-46.273729332516844,-33.193814071672655,124.716459197787,-126.43547714960411,17.51159793814429,18.05096549540997,14.65364629496288,10.394594660930917,-13.46926444604339,1.4941701918577217,-6.6842127426908124,-4.198347112752086,6.474509803801411,-27.55660377358557
18.73354276738542,-46.273729332516844,-33.193814071672655,124.716459197787,-126.43547714960411,17.51159793814429,18.05096549540997,2.863529771365638,7.153453974324051,-12.472207001390146,-16.43523707194157,-16.96761342374217,7.347107431598909,12.450980392031084,-20.367924528302456
16.629872911609322,-50.6289038579302,-32.61517567685972,124.83356385431074,-126.43547714960411,17.89347079037799,17.407723963279523,-1.6482894674699793,7.211262985406577,-12.47111471527568,-16.435222777749086,-16.967613310892645,7.3471074304469965,12.450980392020904,-20.367924528302492
16.629872911609322,-50.6289038579302,-32.61517567685972,124.83356385431074,-126.43547714960411,17.89347079037799,17.407723963279523,18.878187306053306,20.35422946885553,26.369338139035065,5.478510477787917,10.79756871111006,-3.1487603384579135,-19.423529411908262,-27.556603773585618
16.629872911609322,-50.6289038579302,-32.61517567685972,124.83356385431074,-126.43547714960411,17.89347079037799,17.407723963279523,2.1345599637672876,2.8543044088848966,6.449530888087456,-19.423447091619497,-44.73279522872602,-15.74380166002742,1.494117646930279,-31.15094339622714
15.142795944595186,-42.54072259644826,-30.79023920091124,125.30198248040573,-126.45311848867897,19.093642611683833,15.397594175371978,0.45067072312697043,2.949033075216983,6.449025898607633,-19.423430274925927,-44.73279488149732,-15.743801659230128,1.494117646929332,-31.150943396227085
15.142795944595186,-42.54072259644826,-30.79023920091124,125.30198248040573,-126.45311848867897,19.093642611683833,15.397594175371978,8.262718740979333,-2.4087498448608677,-83.18077279625022,-67.23516391936793,-35.47773389788421,-4.198347113904537,-23.407843137383324,-34.74528301886857
15.142795944595186,-42.54072259644826,-30.79023920091124,125.30198248040573,-126.45311848867897,19.093642611683833,15.397594175371978,12.7471943782466,21.721015617179702,-23.420849222985265,-9.462574935309679,-11.82591200246623,-13.644628105059546,-12.45098039226611,-32.34905660377412
17.717978009424545,-45.029393753827314,-30.901515815298346,125.71184877823882,-126.47075982775385,19.584621993127087,14.513137068692572,15.780049566062868,21.65804437362773,-23.41883245706671,-9.46256652702571,-11.825911933020286,-13.644628104439455,-12.450980392255293,-32.34905660377405
17.717978009424545,-45.029393753827314,-30.901515815298346,125.71184877823882,-126.47075982775385,19.584621993127087,14.513137068692572,6.114160074358676,15.052755535437242,0.48432921674105667,-53.2899960414464,-5.655871439318078,-22.04132231802176,-10.458823529499536,-21.566037735849356
17.717978009424545,-45.029393753827314,-30.901515815298346,125.71184877823882,-126.47075982775385,19.584621993127087,14.513137068692572,16.728655411469287,3.050827730677673,24.385473194926217,44.325706555134616,36.506071477128096,13.644628093667329,11.454901960703898,-13.179245283019112
15.033985434813664,-50.473361910594,-31.724962761762903,125.7704011065007,-126.47075982775385,20.566580756013707,13.065843621399154,21.206226109624346,3.1450731672248775,24.383454568993848,44.32566955818755,36.506071138580644,13.644628091983808,11.454901960694531,-13.179245283019211
15.033985434813664,-50.473361910594,-31.724962761762903,125.7704011065007,-126.47075982775385,20.566580756013707,13.065843621399154,3.6208926599238485,10.872021666308257,-19.437329794111186,14.443288523050816,22.109309810101912,-1.0495867845539095,3.4862745097054155,-27.556603773585483
15.033985434813664,-50.473361910594,-31.724962761762903,125.7704011065007,-126.47075982775385,20.566580756013707,13.065843621399154,25.977167511409025,10.90106424592965,4.465495694111557,55.28248027012933,14.910929098118782,-8.396694222424124,-0.498039215787102,-27.556603773585458
13.220476938454961,-50.16227801592162,-32.5929203539823,125.65329644997695,-126.34727045422974,21.875859106529163,10.734093067426443,28.954398242614413,10.929977129027842,4.465158507293829,55.28243402401011,14.910928941866267,-8.396694222247039,-0.49803921578638344,-27.55660377358543
13.220476938454961,-50.16227801592162,-32.5929203539823,125.65329644997695,-126.34727045422974,21.875859106529163,10.734093067426443,23.385529828990162,14.23007053664509,-0.5145838729287989,36.35690322038039,6.684208219938727,-7.347107445294652,-1.494117647158133,-26.35849056603822
13.220476938454961,-50.16227801592162,-32.5929203539823,125.65329644997695,-126.34727045422974,21.875859106529163,10.734093067426443,16.181629963788346,18.59284564585004,-5.493905904160458,-18.427424453170808,-32.39271455382445,-13.644628105857963,-34.364705882448035,-34.74528301886848
17.82678851920607,-58.25045927740356,-32.68194164549198,125.62402028584602,-126.40019447145437,22.14862542955325,10.573282684393803,14.360543922498328,18.55702085424932,-5.493402397133809,-18.427408477290978,-32.392714310764276,-13.644628105237874,-34.36470588241873,-34.745283018868385
17.82678851920607,-58.25045927740356,-32.68194164549198,125.62402028584602,-126.40019447145437,22.14862542955325,10.573282684393803,37.70828243201579,17.430901141816623,22.391770247303125,1.4941701907189664,9.76922883138038,-9.446280997516585,-19.423529411802406,-10.78301886792467
17.82678851920607,-58.25045927740356,-32.68194164549198,125.62402028584602,-126.40019447145437,22.14862542955325,10.573282684393803,16.434077662547164,14.133260470516694,-1.5112251612127423,-4.48229945779826,-25.194333685587424,-14.694214881127394,19.423529411740542,-14.377358490566328
16.77495359131802,-60.739130434782616,-33.260580040304916,125.3605348086676,-126.32962911515489,22.74871134020617,9.68882557771451,14.194374581354271,14.134671463167372,-1.5110578887370998,-4.482295253651322,-25.194333503292228,-14.6942148804187,19.42352941172444,-14.377358490566408
16.77495359131802,-60.739130434782616,-33.260580040304916,125.3605348086676,-126.32962911515489,22.74871134020617,9.68882557771451,1.692624795429472,15.226522170302564,15.41908707994285,51.298084488477066,-10.797572331065748,-13.644628102934707,-0.4980392157410226,-34.74528301886858
16.77495359131802,-60.739130434782616,-33.260580040304916,125.3605348086676,-126.32962911515489,22.74871134020617,9.68882557771451,3.2845431026998764,40.2988424692033,12.430182072638216,-8.466646470669147,3.599188719630784,1.0495867725395804,7.470588235239437,-23.96226415094385
15.505497643866928,-62.91671769748929,-33.50538859195654,124.77501152604887,-126.24142241978052,23.239690721649424,8.965178854067744,1.226361913603835,40.079409958404426,12.42917244348466,-8.46663890315915,3.5991886588660806,1.049586771919266,7.470588235233423,-23.96226415094385
15.505497643866928,-62.91671769748929,-33.50538859195654,124.77501152604887,-126.24142241978052,23.239690721649424,8.965178854067744,10.033296585537794,13.690458629707816,20.395211187660564,49.30590047154457,9.769229022357644,-4.198347112577548,1.4941176469925987,-19.169811320755127
15.505497643866928,-62.91671769748929,-33.50538859195654,124.77501152604887,-126.24142241978052,23.239690721649424,8.965178854067744,4.2808490030635085,13.694043108718429,1.4717893194812333,-25.400000825018317,-2.5708519390038562,-15.743801657283157,6.47450980385397,-29.9528301886798
18.29830072825933,-71.3159828536436,-33.54989923771138,124.62863070539419,-126.40019447145437,23.78522336769754,9.125989237100384,3.9295882862023817,13.69775468699803,1.4717045829457982,-25.399978963266193,-2.5708519476842953,-15.743801656485864,6.4745098038487985,-29.95283018867975
18.29830072825933,-71.3159828536436,-33.54989923771138,124.62863070539419,-126.40019447145437,23.78522336769754,9.125989237100384,-7.4057372485753525,10.430272040394527,2.4675008909509084,13.447090148143598,-0.514171814945978,8.396694210143322,4.48235294109869,-25.160377358490976
18.29830072825933,-71.3159828536436,-33.54989923771138,124.62863070539419,-126.40019447145437,23.78522336769754,9.125989237100384,4.254778684558304,1.7383240318086273,5.454975217829143,-1.4940928018732496,44.73279127022479,15.743801646329896,16.43529411756482,-29.952830188679695
23.920177066971313,-68.36068585425598,-33.75019714360817,124.86284001844169,-126.55896652312822,23.18513745704462,10.412472301361163,4.761454184873623,1.843513057619397,5.454554225970032,-1.4940911202259575,44.73279086223167,15.743801644469162,16.435294117551233,-29.95283018867964
23.920177066971313,-68.36068585425598,-33.75019714360817,124.86284001844169,-126.55896652312822,23.18513745704462,10.412472301361163,11.19113374554107,12.852735391436523,6.450014292870137,-39.345058553639426,-26.22267442470851,-20.99173554452706,25.399999999889857,-32.34905660377396
23.920177066971313,-68.36068585425598,-33.75019714360817,124.86284001844169,-126.55896652312822,23.18513745704462,10.412472301361163,12.08528020642889,13.95556937819968,-10.480468435200098,11.454959944766173,-1.542512536707541,9.446280983196914,-5.478431372677813,-25.1603773584908
22.686991289447395,-72.56031843233313,-34.551388767195306,124.65790686952514,-126.6295318794277,22.475945017182084,11.859765748654581,13.05817156189499,13.958763734986562,-10.479544298225722,11.45495069551519,-1.5425125540686904,9.446280981867776,-5.478431372672906,-25.160377358490788
22.686991289447395,-72.56031843233313,-34.551388767195306,124.65790686952514,-126.6295318794277,22.475945017182084,11.859765748654581,11.709103630862874,25.95683736067943,19.397811041418173,11.454941446268107,-11.825913278523617,-9.446281001416763,-10.45882352953034,-29.952830188679506
22.686991289447395,-72.56031843233313,-34.551388767195306,124.65790686952514,-126.6295318794277,22.475945017182084,11.859765748654581,4.510634406563462,17.135358293249137,-23.42667169307404,-46.317599610171996,-26.222674199008946,-15.743801661802893,-9.462745098148764,-27.556603773585092
22.46937026988435,-77.07103490508267,-35.08551651625339,124.3944213923467,-126.80594527017641,21.603092783505133,14.030705919594766,4.5475525280786036,17.11153804472402,-23.424654695977267,-46.317560090858045,-26.222674008033046,-15.74380166100562,-9.462745098140495,-27.556603773585064
22.46937026988435,-77.07103490508267,-35.08551651625339,124.3944213923467,-126.80594527017641,21.603092783505133,14.030705919594766,21.450896090534226,25.811431709247273,0.47850720918215395,-1.4940045142528189,-24.165993675638404,-30.438016535062538,-3.486274509897418,-25.16037735849067
22.46937026988435,-77.07103490508267,-35.08551651625339,124.3944213923467,-126.80594527017641,21.603092783505133,14.030705919594766,2.526220390902278,-4.817930557693945,-20.434995444269873,-1.494002832642848,-28.279353784861453,-44.08264463110374,-26.39607843146097,-33.547169811320934
20.14807939454521,-69.91610532761788,-34.95198457898887,124.24804057169203,-126.94707598277537,21.00300687285221,15.719214941437144,3.8837791255349785,-4.656729519699404,-20.433230820193533,-1.4940011510335878,-28.279353576524155,-44.08264462791424,-26.396078431438415,-33.54716981132085
20.14807939454521,-69.91610532761788,-34.95198457898887,124.24804057169203,-126.94707598277537,21.00300687285221,15.719214941437144,-4.116843631438828,10.770001219807101,-3.5014885673429768,1.494234934395494,7.71254910664136,6.297520660489644,11.454901960737939,-22.764150943396135
20.14807939454521,-69.91610532761788,-34.95198457898887,124.24804057169203,-126.94707598277537,21.00300687285221,15.719214941437144,36.59150986732155,55.50908074403197,21.395872801346474,23.407953054842515,25.194330213213206,1.0495867755498303,2.490196078376333,-22.764150943396146
18.951163786948463,-62.7611757501531,-34.70717602733725,124.2187644075611,-127.0,20.948453608247405,15.960430515986104,42.00977186249986,55.16266872041202,21.394106443301443,23.40793371552259,25.194329970153547,1.0495867749295176,2.490196078374508,-22.764150943396157
18.951163786948463,-62.7611757501531,-34.70717602733725,124.2187644075611,-127.0,20.948453608247405,15.960430515986104,3.1400794848944757,4.657667475209779,10.43764870380511,-15.439132873456064,-29.30769402050313,-16.79338843087089,5.478431372490086,-27.556603773584893
18.951163786948463,-62.7611757501531,-34.70717602733725,124.2187644075611,-127.0,20.948453608247405,15.960430515986104,-11.604747390425803,-11.618602328089608,-17.44786192770256,-28.38813517000075,-7.712552318588208,7.347107435846894,10.45882352934808,-20.367924528301774
22.977152648864788,-60.894672382118806,-35.04100587049855,124.36514522821577,-126.98235866092512,20.02104810996559,17.086103197214356,-14.641243715114474,-11.400367721221183,-17.44634948682992,-28.38811078577953,-7.712552283865146,7.347107434694976,10.458823529339528,-20.36792452830181
22.977152648864788,-60.894672382118806,-35.04100587049855,124.36514522821577,-126.98235866092512,20.02104810996559,17.086103197214356,16.051749113023146,6.264086800832602,7.452188924717494,-2.49005490179067,9.769228952917336,28.338842969049054,13.447058823448382,-22.764150943396206
22.977152648864788,-60.894672382118806,-35.04100587049855,124.36514522821577,-126.98235866092512,20.02104810996559,17.086103197214356,18.185698092677427,27.051723345772587,32.34862559496567,-4.482208648568968,13.882589122905827,11.545454537720321,-3.4862745098946575,-28.75471698113213
20.764672283307167,-58.561543172075936,-36.2873039516341,124.16021207929921,-126.78830393110152,19.093642611683833,17.80974992086101,17.04128638606745,26.945882185051058,32.34593457758319,-4.482204444460396,13.88258897533397,11.545454536213995,-3.486274509891442,-28.75471698113209
20.764672283307167,-58.561543172075936,-36.2873039516341,124.16021207929921,-126.78830393110152,19.093642611683833,17.80974992086101,1.4619448718313865,-6.963049144252999,-5.500235900016704,-7.4704346441741265,-9.769232798553576,-35.685950420180816,-10.458823529495502,-31.15094339622642
20.764672283307167,-58.561543172075936,-36.2873039516341,124.16021207929921,-126.78830393110152,19.093642611683833,17.80974992086101,2.0017613773212553,1.9410488009603135,-42.347330674218206,41.3374006781776,23.137649516230994,-36.73553719447543,-23.40784313732849,-35.94339622641508
18.443381407968026,-53.11757501530925,-37.40007009550513,123.75034578146612,-126.43547714960411,18.220790378006825,17.72934472934469,-1.0649962273994067,2.047266078744144,-42.34371645646662,41.337366203772035,23.137649290532746,-36.73553719190615,-23.407843137308458,-35.94339622641499
18.443381407968026,-53.11757501530925,-37.40007009550513,123.75034578146612,-126.43547714960411,18.220790378006825,17.72934472934469,37.815853429670256,57.76546527603715,50.276834458673974,-4.48226246253378,-21.08097397566874,5.2479338816751095,-27.392156862778297,-21.566037735848713
18.443381407968026,-53.11757501530925,-37.40007009550513,123.75034578146612,-126.43547714960411,18.220790378006825,17.72934472934469,28.83423110939083,-8.024999611933243,-36.36902046992916,-9.462648931436718,-33.42105467660895,12.595041318127453,39.34509803920048,-8.386792452829745
23.231043838355006,-46.89589712186161,-39.0024533426794,123.75034578146612,-125.97680233365745,16.202319587628836,18.533396644507775,29.930193381167932,-7.835180463827108,-36.36591078403027,-9.462640523121587,-33.4210544248681,12.595041316532491,39.34509803916755,-8.386792452829887
23.231043838355006,-46.89589712186161,-39.0024533426794,123.75034578146612,-125.97680233365745,16.202319587628836,18.533396644507775,12.647240186715427,11.981764107816408,-28.395752898825663,9.462852442720017,27.25100999872604,-7.347107443793162,-12.450980392233715,-27.556603773584936
23.231043838355006,-46.89589712186161,-39.0024533426794,123.75034578146612,-125.97680233365745,16.202319587628836,18.533396644507775,30.76800620379988,64.34539110892537,64.22362083708157,8.466766740515837,14.91092888979244,5.247933877598886,-0.498039215753288,-16.77358490566028
24.60931029558762,-36.319044703000614,-40.226496100937524,123.69179345320424,-125.21822475343797,13.63831615120273,18.77461221905662,32.895668223157436,63.92601660479143,64.21823938092186,8.466760013758817,14.910928733539905,5.247933876624135,-0.4980392157525677,-16.773584905660353
24.60931029558762,-36.319044703000614,-40.226496100937524,123.69179345320424,-125.21822475343797,13.63831615120273,18.77461221905662,1.1734807314272242,4.624832036020436,-7.490576829710932,-23.407747020414348,2.570847728774825,-8.396694222429513,0.498039215620621,-23.96226415094351
24.60931029558762,-36.319044703000614,-40.226496100937524,123.69179345320424,-125.21822475343797,13.63831615120273,18.77461221905662,11.720327875401056,57.04754581701793,100.06524746834802,46.317742582101346,-12.854253383949857,-15.743801659679551,-7.470588235359246,-23.96226415094352
23.412394687990876,-41.29638701775873,-40.471304652589154,123.39903181189489,-124.47728851229337,11.183419243986236,19.337448559670747,9.048808011887674,56.687235609563395,100.05684002202466,46.317703903530735,-12.854253305823216,-15.743801658882287,-7.470588235352641,-23.96226415094353
23.412394687990876,-41.29638701775873,-40.471304652589154,123.39903181189489,-124.47728851229337,11.183419243986236,19.337448559670747,3.4925834369217217,18.163429095058497,-21.449054120775312,-9.462710313006768,-44.732795419687285,-30.438016532939212,-26.396078431422936,-34.74528301886817
23.412394687990876,-41.29638701775873,-40.471304652589154,123.39903181189489,-124.47728851229337,11.183419243986236,19.337448559670747,-27.94632811834461,-42.93549124849815,-43.356587585227516,11.454938922077982,2.5708481801727787,-11.54545454894614,-1.4941176470886486,-31.150943396226545
20.365700414108254,-23.564605021432946,-42.14045386839569,123.1648224988474,-123.36588415057648,9.001288659793772,17.80974992086101,-36.66356673991682,-42.45379894289703,-43.35288874128131,11.454929672835853,2.570848128088766,-11.545454548503269,-1.4941176470870876,-31.150943396226488
20.365700414108254,-23.564605021432946,-42.14045386839569,123.1648224988474,-123.36588415057648,9.001288659793772,17.80974992086101,14.454127953960446,7.095866511702543,62.214200335145826,38.3490300579824,-74.55465722719858,-23.090909092588696,18.42745098036384,-20.367924528301803
20.365700414108254,-23.564605021432946,-42.14045386839569,123.1648224988474,-123.36588415057648,9.001288659793772,17.80974992086101,23.946172807644096,87.85216804992307,74.15956025342554,19.423513548615688,1.5425086042646408,5.247933881761869,-14.443137254942867,-29.952830188679293
24.210338426388702,2.0998162890385785,-48.238412336808906,123.13554633471647,-121.61939158216418,4.637027491408844,16.44286166508391,23.43893003327461,87.23470931572278,74.15333908998572,19.42349757269786,1.5425085608613172,5.247933880787132,-14.443137254930376,-29.95283018867925
24.210338426388702,2.0998162890385785,-48.238412336808906,123.13554633471647,-121.61939158216418,4.637027491408844,16.44286166508391,-34.81083009919968,-111.8397715799632,-32.412153240853144,-26.396112595128013,15.939269507389284,9.446280986913598,7.470588235276419,-38.33962264150948
24.210338426388702,2.0998162890385785,-48.238412336808906,123.13554633471647,-121.61939158216418,4.637027491408844,16.44286166508391,18.521060908100615,68.05611671654052,65.18696335588963,-16.43530854645616,-78.66801716280673,-86.0661157009678,101.10196078428244,-44.33018867924526
22.75953162930174,-6.766074709124318,-56.71769035310611,120.70562471184878,-118.79677733018474,-1.6911512027492108,15.477999366888298,16.141193700211176,67.60603595666223,65.18149920494682,-16.43529425223357,-78.6680165291146,-86.06611569423428,101.10196078419744,-44.3301886792451
22.75953162930174,-6.766074709124318,-56.71769035310611,120.70562471184878,-118.79677733018474,-1.6911512027492108,15.477999366888298,67.65168315043812,67.15822917314907,65.17603528510841,-16.435279958017013,-78.66801589542246,-86.06611568750075,101.10196078411248,-44.33018867924493
22.75953162930174,-6.766074709124318,-56.71769035310611,120.70562471184878,-118.79677733018474,-1.6911512027492108,15.477999366888298,22.965879322167588,-31.426748953251682,-103.13332440067285,30.380406662715156,-27.251011726261453,-2.099173538743263,-9.462745098316464,-29.952830188678586
22.75953162930174,-6.766074709124318,-56.71769035310611,120.70562471184878,-118.79677733018474,-1.6911512027492108,15.477999366888298,-58.83080906430723,-127.0,-61.29757678343281,-64.24704135007534,12.854251231060864,8.396694228655225,-30.38039215712993,-37.14150943396163
9.883621305154946,1.944274341702382,-59.07675457811268,116.43130474873213,-115.12737880261147,-6.546391752577392,10.492877492877483,-42.79254512297162,-125.80586653242972,-61.292364090955246,-64.24698669567816,12.854251092169733,8.396694227414713,-30.380392157103906,-37.14150943396153
9.883621305154946,1.944274341702382,-59.07675457811268,116.43130474873213,-115.12737880261147,-6.546391752577392,10.492877492877483,15.32304191460766,126.18427465630549,100.04557708911551,-28.388119195457662,16.967611236116117,4.198347119072999,-4.482352941393694,-33.54716981131988
9.883621305154946,1.944274341702382,-59.07675457811268,116.43130474873213,-115.12737880261147,-6.546391752577392,10.492877492877483,5.115372640158933,-73.20903809468857,-121.04842071566087,-10.458688388319905,-41.647772967932376,-31.4876032921733,21.41568627429466,-27.556603773583905
0.5984578037983823,-5.366197183098592,-64.46254271444843,111.1030428769018,-111.08751215446588,-10.310567010309342,4.060462171573249,18.93248874973685,-72.46320181385403,-121.0381640831594,-10.458679139183875,-41.647772646745814,-31.487603290047,21.415686274276975,-27.556603773583888
0.5984578037983823,-5.366197183098592,-64.46254271444843,111.1030428769018,-111.08751215446588,-10.310567010309342,4.060462171573249,-32.809194331502376,23.147401313716756,-37.37390040573451,42.33347124411095,29.307692553387795,-16.79338841306651,-26.3960784316192,-32.349056603772596
0.5984578037983823,-5.366197183098592,-64.46254271444843,111.1030428769018,-111.08751215446588,-10.310567010309342,4.060462171573249,46.47816936447871,-45.6123676002242,-127.0,-11.454783339897963,2.570850437161506,12.595041337527768,3.4862745095774956,-33.54716981131972
11.370698272169083,-23.875688916105332,-76.43590642250066,104.92577224527432,-106.69481872482288,-19.09364261168389,5.266540044317821,60.00197365964045,-45.094789357673584,-126.98923996652867,-11.454773249917684,2.5708503850775193,12.59504133593284,3.4862745095749204,-33.54716981131965
11.370698272169083,-23.875688916105332,-76.43590642250066,104.92577224527432,-106.69481872482288,-19.09364261168389,5.266540044317821,11.812021493282746,31.750697488924175,-1.4974691711989114,-19.423388236796416,-56.04453369744099,-13.644628085044584,-4.4823529414074015,-25.1603773584893
11.370698272169083,-23.875688916105332,-76.43590642250066,104.92577224527432,-106.69481872482288,-19.09364261168389,5.266540044317821,14.717109642587403,-59.9788008970238,-115.02774121931834,-23.407683958555037,-6.684209860674352,-11.545454530873899,-24.40392156885262,-39.53773584905548
12.49507353991148,-58.87262706674832,-88.74309997371418,96.08437067773167,-101.43769968051117,-29.895189003436485,10.090851535295997,16.495711254711928,-59.33842227846945,-115.01799090910504,-23.40766377854489,-6.684209834631963,-11.54545453043102,-24.40392156883167,-39.53773584905535
12.49507353991148,-58.87262706674832,-88.74309997371418,96.08437067773167,-101.43769968051117,-29.895189003436485,10.090851535295997,27.03779099864783,14.357685070661843,65.24622748214736,103.09427949652584,67.35627528248561,15.743801666169652,32.37254901941997,-2.396226415092606
12.49507353991148,-58.87262706674832,-88.74309997371418,96.08437067773167,-101.43769968051117,-29.895189003436485,10.090851535295997,56.544467175476065,45.996530772445965,8.475541465724241,-3.4861675127281617,57.07287397642305,16.793388441084215,-23.407843137465242,-21.566037735847708
1.6140225617592563,-50.00673606858543,-92.014632436695,86.04264638082066,-95.31615502153076,-39.16924398625429,12.583412472301347,56.88861370990261,45.7445106930174,8.474866861845463,-3.4861641494410023,57.07287346426137,16.793388439134876,-23.40784313744515,-21.566037735847743
1.6140225617592563,-50.00673606858543,-92.014632436695,86.04264638082066,-95.31615502153076,-39.16924398625429,12.583412472301347,-41.71943452540001,-22.11473440003821,-43.31162186798485,-20.419489074471603,-1.5425110783348206,5.2479338926572385,28.388235293943296,-37.14150943396113
1.6140225617592563,-50.00673606858543,-92.014632436695,86.04264638082066,-95.31615502153076,-39.16924398625429,12.583412472301347,23.572182906752552,47.99215973512861,22.420223802691517,-1.4939868594261487,-11.825911802789745,-2.0991735457445886,-23.407843137448673,-16.773584905658957
-30.448807653862623,-66.80526638089407,-97.890037676334,73.92231443061318,-88.6653701903042,-44.02448453608247,10.975308641975289,11.331816956660155,47.71941047136777,22.418372156239567,-1.4939851778235427,-11.825911733343785,-2.099173546099114,-23.407843137428564,-16.77358490565904
-30.448807653862623,-66.80526638089407,-97.890037676334,73.92231443061318,-88.6653701903042,-44.02448453608247,10.975308641975289,86.11702567650566,48.53729379360373,17.43711537946609,-12.450842976896924,1.5425092553240836,-18.89256197485843,-27.392156862898332,-4.792452830187308
-30.448807653862623,-66.80526638089407,-97.890037676334,73.92231443061318,-88.6653701903042,-44.02448453608247,10.975308641975289,49.28124477852426,54.79845010519353,10.464516932004717,-16.435144584514735,-9.76923156588235,28.33884298109313,52.29411764692261,-10.783018867923406
-60.262887333999714,-66.96080832823026,-105.0562516428634,58.08390963577685,-79.95054868731768,-44.40635738831622,3.256410256410277,33.759003415161146,54.46215268244366,10.463674302929313,-16.435130290361286,-9.769231513797815,28.338842978169176,52.29411764687882,-10.783018867923543
-60.262887333999714,-66.96080832823026,-105.0562516428634,58.08390963577685,-79.95054868731768,-44.40635738831622,3.256410256410277,21.927639981444692,10.509017465096324,-7.463027037187666,-13.446881592393334,20.052630588858676,5.247933886188637,11.45490196056383,-20.367924528301128
-60.262887333999714,-66.96080832823026,-105.0562516428634,58.08390963577685,-79.95054868731768,-44.40635738831622,3.256410256410277,-30.387302989469063,14.904224111294415,21.41819381023732,-47.31352639739599,13.882589964946337,-9.446280989640298,-15.439215686502124,-33.547169811320174
-73.61030986719976,-66.80526638089407,-111.39901866292824,41.25011526048871,-70.28309487428808,-42.76975945017182,-4.301677746122209,-50.148987842721056,14.900089770193269,21.416426482159352,-47.31348603730873,13.88258981737453,-9.44628098937463,-15.439215686488733,-33.5471698113201
-73.61030986719976,-66.80526638089407,-111.39901866292824,41.25011526048871,-70.28309487428808,-42.76975945017182,-4.301677746122209,-10.040768981164764,21.437991742412443,-66.22287241610873,-15.438945369819523,17.995949952640213,-3.1487603284571635,-1.494117647260789,-28.75471698113131
-73.61030986719976,-66.80526638089407,-111.39901866292824,41.25011526048871,-70.28309487428808,-42.76975945017182,-4.301677746122209,23.584221270565976,51.90974937582038,56.27612639763707,0.49831823715515544,-8.740892068098272,-9.446280989374895,-6.474509804121513,-11.981132075470745
-91.41896330144223,-65.87201469687692,-120.32340313677385,23.01106500691563,-59.22197527434365,-38.678264604811034,-11.618550174105735,17.44756744095751,51.59116298710195,56.27141662953495,0.49831823702065986,-8.740892024694462,-9.446280989109226,-6.4745098041156925,-11.981132075470864
-91.41896330144223,-65.87201469687692,-120.32340313677385,23.01106500691563,-59.22197527434365,-38.678264604811034,-11.618550174105735,8.77362954756428,29.464676642333693,2.489130823228316,-12.450697513002801,15.939269715734412,-5.247933881742359,15.439215686084427,-20.36792452830126
-91.41896330144223,-65.87201469687692,-120.32340313677385,23.01106500691563,-59.22197527434365,-38.678264604811034,-11.618550174105735,-0.08860292755045229,-1.2002660380633472,-13.445135590039001,15.439501186736939,-13.882592499770794,2.0991735555960034,22.41176470567903,-21.56603773584849
-112.34685134942168,-75.98224127372933,-124.55191448348374,3.9230059935454165,-47.12001666898179,-30.167955326460515,-19.980690091801193,-3.741690074923591,-1.0749727520449355,-13.443960261617587,15.43948857404095,-13.882592412963431,2.0991735548870647,22.41176470566047,-21.566037735848532
-112.34685134942168,-75.98224127372933,-124.55191448348374,3.9230059935454165,-47.12001666898179,-30.167955326460515,-19.980690091801193,-27.20196219530819,9.953778197843194,14.44188417532965,44.325741864948746,16.967609795125266,-4.198347106473675,-18.427450980629274,-37.14150943396193
-112.34685134942168,-75.98224127372933,-124.55191448348374,3.9230059935454165,-47.12001666898179,-30.167955326460515,-19.980690091801193,0.856879963340484,35.065236944842994,52.28418509744327,37.35315792573889,4.6275287729987795,-5.247933883426315,-1.494117647281392,-29.952830188678753
-122.50249892903042,-67.58297611757501,-125.06378690966442,-14.433148916551403,-34.43589387414917,-18.54810996563583,-28.021209243431485,-1.699533174918125,34.88432535431721,52.279811946039814,37.35312681465242,4.627528703553354,-5.247933883515055,-1.4941176472797602,-29.952830188678725
-122.50249892903042,-67.58297611757501,-125.06378690966442,-14.433148916551403,-34.43589387414917,-18.54810996563583,-28.021209243431485,36.37085052806165,33.613383161081934,25.386650860370704,-8.466498488335713,-11.825912497242113,-1.049586776502597,22.41176470566111,-21.56603773584843
-122.50249892903042,-67.58297611757501,-125.06378690966442,-14.433148916551403,-34.43589387414917,-18.54810996563583,-28.021209243431485,29.836556293447444,38.89474807714772,-4.491883354761543,4.48252482900079,-8.740892215668037,-28.338842973103528,-47.313725490430215,-25.16037735849002
-123.77195487648152,-58.40600122473975,-127.0,-31.881742738589196,-21.310737602444775,-5.346219931271548,-33.08673630895851,29.61044837832131,38.67837480034983,-4.491464227595331,4.482521465562513,-8.740892172264225,-28.338842971243054,-47.3137254903899,-25.160377358490035
-123.77195487648152,-58.40600122473975,-127.0,-31.881742738589196,-21.310737602444775,-5.346219931271548,-33.08673630895851,10.905084753457196,23.196591534950127,-5.48692616035112,-82.17627960866972,23.13765006313029,-4.198347103550692,-4.48235294133345,-25.16037735849005
-123.77195487648152,-58.40600122473975,-127.0,-31.881742738589196,-21.310737602444775,-5.346219931271548,-33.08673630895851,-27.637178147872355,10.025348718542329,10.44767365929715,-13.446818531403096,-12.854252637396158,-72.4214875941225,-22.41176470603371,-34.74528301886751
-120.94288162216193,-35.38579301898347,-126.95548935424516,-47.86652835408023,-7.815113210168072,8.237542955326433,-34.855650522317205,-32.84484833106508,10.050098476118428,10.446831721215416,-13.446806759799742,-12.85425255926951,-72.4214875885408,-22.41176470601441,-34.74528301886745
-120.94288162216193,-35.38579301898347,-126.95548935424516,-47.86652835408023,-7.815113210168072,8.237542955326433,-34.855650522317205,-4.016146899466245,-5.191524238133145,-43.33158641793697,-5.478169911346611,-102.31983863285873,-45.13223138680131,-17.43137254913277,-27.556603773584285
-120.94288162216193,-35.38579301898347,-126.95548935424516,-47.86652835408023,-7.815113210168072,8.237542955326433,-34.855650522317205,7.281984791063324,-7.21924303967014,-4.4885280498326745,5.47869461422508,46.7894724533495,49.330578526253746,-10.458823529510399,-28.75471698113146
-115.28473511352277,-18.12063686466626,-121.25812669762551,-61.421392346703556,5.168912348937361,21.984965635738774,-34.775245330800885,8.84424508296889,-7.048505990892494,-4.488109069379523,5.478690409910989,46.78947202799495,49.33057852155777,-10.458823529501196,-28.75471698113144
-115.28473511352277,-18.12063686466626,-121.25812669762551,-61.421392346703556,5.168912348937361,21.984965635738774,-34.775245330800885,10.388203277114004,17.110945222211186,21.405216968949635,10.459076878632889,-15.939272710631595,-34.63636362516219,8.466666666584903,-41.933962264150416
-115.28473511352277,-18.12063686466626,-121.25812669762551,-61.421392346703556,5.168912348937361,21.984965635738774,-34.775245330800885,15.887038808400586,13.805918605354266,48.29223828613969,47.313959450589934,3.599188737015443,-4.198347096286442,1.4941176469708477,-27.556603773584104
-127.0,22.00918554807103,-116.94059405940594,-72.92692485016136,18.91151548826227,38.29639175257728,-37.10699588477371,20.047496526474376,13.799714888792883,48.28820174815946,47.31391993112369,3.5991886762508036,-4.198347096463805,1.4941176469699555,-27.556603773584094
-127.0,22.00918554807103,-116.94059405940594,-72.92692485016136,18.91151548826227,38.29639175257728,-37.10699588477371,10.253960602517683,6.160209512825946,2.473637475286899,5.478598758186717,-32.39271385934205,-14.694214864394164,-1.4941176471483422,-27.556603773584083
-127.0,22.00918554807103,-116.94059405940594,-72.92692485016136,18.91151548826227,38.29639175257728,-37.10699588477371,14.864921335825136,24.75546288297703,7.452873569175401,-7.470421195975874,10.797569353512035,8.396694225371073,18.427450980302655,-21.566037735848166
-126.52848779094674,77.84874464176363,-110.08595461316042,-81.70977408944213,32.954021391859996,54.716924398625395,-39.92117758784423,18.309292604176427,24.65626502536518,7.4522841271926525,-7.470414469365105,10.797569231982413,8.396694224130504,18.427450980287475,-21.56603773584821
-126.52848779094674,77.84874464176363,-110.08595461316042,-81.70977408944213,32.954021391859996,54.716924398625395,-39.92117758784423,20.615045490008427,15.833751425764403,1.4764084610686172,17.431545622413907,-8.740892233025377,-19.942148750043152,-4.48235294129448,-25.160377358489797
-126.52848779094674,77.84874464176363,-110.08595461316042,-81.70977408944213,32.954021391859996,54.716924398625395,-39.92117758784423,36.876922748328965,26.71301471134796,13.42689596694872,10.458984385842973,-82.7813772806967,9.44628100081688,15.439215686159041,-11.981132075470809
-122.35741824932171,105.84629516227801,-105.94646455796021,-88.64822498847394,46.92596193915823,71.13745704467351,-41.20766065210512,40.381562797286165,26.59576632031579,13.425802174105351,10.458975977385848,-82.78137661228168,9.44628099948771,15.439215686146385,-11.981132075470931
-122.35741824932171,105.84629516227801,-105.94646455796021,-88.64822498847394,46.92596193915823,71.13745704467351,-41.20766065210512,31.686216219489108,14.484042378562963,-10.476436566793765,-7.4704388539909035,7.712550278558542,-14.694214867673356,-20.419607843275134,-11.981132075471052
-122.35741824932171,105.84629516227801,-105.94646455796021,-88.64822498847394,46.92596193915823,71.13745704467351,-41.20766065210512,-5.578666576800213,17.74011128668042,-5.496107451559575,-2.490041454338463,-20.052631726082225,-10.495867759863518,-3.486274509925558,-27.55660377358453
-105.9995716121662,127.0,-103.23131516691492,-94.2399723374827,60.174607584386735,85.59407216494839,-38.15226337448564,-8.14625360278033,17.697211071963785,-5.4956039182669,-2.4900389319087037,-20.05263158719061,-10.495867759509284,-3.4862745099222345,-27.556603773584513
-105.9995716121662,127.0,-103.23131516691492,-94.2399723374827,60.174607584386735,85.59407216494839,-38.15226337448564,1.8400788617239332,1.2978114132968486,-16.449791862236246,0.4981979943405219,16.96761109723861,-6.297520652053849,13.447058823413052,-23.962264150942953
-105.9995716121662,127.0,-103.23131516691492,-94.2399723374827,60.174607584386735,85.59407216494839,-38.15226337448564,9.881169154535447,13.388008202205757,-9.4771963449688,-19.42336469788009,-23.13765183404109,-1.0495867681775168,-6.474509804047288,-29.952830188678874
-82.56904183921176,127.0,-100.13782528695347,-99.07053941908714,72.082511459925,97.10481099656351,-29.790123456790184,10.197440396842785,13.38160860884237,-9.476356647967282,-19.423347881221346,-23.137651669107324,-1.049586768620685,-6.474509804041447,-29.95283018867884
-82.56904183921176,127.0,-100.13782528695347,-99.07053941908714,72.082511459925,97.10481099656351,-29.790123456790184,-25.333766211256098,-4.071899310177898,-5.491992821454463,0.4982316275671617,-15.939271009207904,-25.19008263489574,-40.34117647069953,-61.10377358490552
-82.56904183921176,127.0,-100.13782528695347,-99.07053941908714,72.082511459925,97.10481099656351,-29.790123456790184,-0.17033680536319729,15.696730698048633,-12.462656754803561,12.451169242751325,57.07287411532671,-9.44628098167161,-29.384313725567953,-40.735849056603136
-62.330287019848626,116.73423147581138,-100.33812319285026,-104.04748732134624,82.94957633004586,106.81529209621988,-15.799620132953464,-1.9517944462607861,15.671028254242797,-12.461564950756818,12.451159152607868,57.07287360316509,-9.446280981405975,-29.38431372554278,-40.735849056603016
-62.330287019848626,116.73423147581138,-100.33812319285026,-104.04748732134624,82.94957633004586,106.81529209621988,-15.799620132953464,23.625090179992135,15.645308160531508,-12.460473193534305,12.451149062468671,57.07287309100349,-9.446280981140342,-29.384313725517604,-40.735849056602895
-62.330287019848626,116.73423147581138,-100.33812319285026,-104.04748732134624,82.94957633004586,106.81529209621988,-15.799620132953464,22.85841805835797,13.438700791500425,8.454120386307329,-48.30962723868371,58.10121264955128,6.297520670754787,-43.32941176470698,-25.16037735848941
-62.330287019848626,116.73423147581138,-100.33812319285026,-104.04748732134624,82.94957633004586,106.81529209621988,-15.799620132953464,24.310775218339515,7.979183221667978,-15.447698352447032,-13.446851326510256,-28.27935381087873,-18.89256197291578,-45.321568627414976,-29.952830188678142
-39.48007996572897,116.26760563380282,-97.84552703057916,-108.8487782388197,92.3347687178775,113.85266323024052,2.4523583412471908,37.9734591595884,8.017807317631018,-15.446354460075707,-13.446839554893094,-28.279353602541317,-18.892561971852743,-45.321568627376344,-29.952830188678107
-39.48007996572897,116.26760563380282,-97.84552703057916,-108.8487782388197,92.3347687178775,113.85266323024052,2.4523583412471908,12.265591226696575,14.59878413096463,9.452015409828034,45.32178215852286,51.93117212112756,18.89256199312108,63.250980392261354,2.396226415095832
-39.48007996572897,116.26760563380282,-97.84552703057916,-108.8487782388197,92.3347687178775,113.85266323024052,2.4523583412471908,-0.17561811799572524,15.67204656096954,-3.4951960280418395,29.384494167030237,3.599188329028803,61.925619838781785,70.22352941181563,-29.95283018867832
-25.443524203912602,113.00122473974281,-95.61999474283712,-113.44513600737668,100.78497013474095,119.36254295532643,23.35770813548595,1.1250503277662194,15.645620648451269,-3.494861024542373,29.38446978265709,3.5991882682642062,61.92561983302254,70.22352941175674,-29.95283018867829
-25.443524203912602,113.00122473974281,-95.61999474283712,-113.44513600737668,100.78497013474095,119.36254295532643,23.35770813548595,1.539700363437488,13.438320605487904,1.4848791709859623,6.4746483023368295,-70.44129688357559,-54.57851239479495,-84.16862745103474,-107.83018867924508
-25.443524203912602,113.00122473974281,-95.61999474283712,-113.44513600737668,100.78497013474095,119.36254295532643,23.35770813548595,39.65765433943396,1.4354853794012445,-24.40811326736435,-23.40770078096716,-96.14979808706352,47.23140495648454,98.11372549019839,97.04716981132361
-18.661002427531045,100.24678505817513,-92.68229212301762,-117.80728446288612,108.65300736213365,124.76331615120273,45.46913580246917,39.229816228577846,1.5286647627521823,-24.406012882556578,-23.407680600949977,-96.14979730579923,47.231404951965686,98.11372549011593,97.04716981132249
-18.661002427531045,100.24678505817513,-92.68229212301762,-117.80728446288612,108.65300736213365,124.76331615120273,45.46913580246917,45.380372831797686,1.621313702449239,-24.40391258735021,-23.407660420941312,-96.14979652453495,47.23140494744683,98.11372549003343,97.04716981132137
-18.661002427531045,100.24678505817513,-92.68229212301762,-117.80728446288612,108.65300736213365,124.76331615120273,45.46913580246917,-12.38517598142126,8.25604547579324,-3.4883105123318203,6.474703797264134,-38.562751783545515,-27.2892562081183,-45.32156862768452,-70.68867924528519
-18.661002427531045,100.24678505817513,-92.68229212301762,-117.80728446288612,108.65300736213365,124.76331615120273,45.46913580246917,-35.14699119738193,-8.064258275819153,-29.380882881553664,24.404105175065194,-86.8947348117418,-127.0,-101.10196078450423,-70.68867924528487
-0.09067542481792401,111.2902633190447,-86.38403574870762,-121.64246196403872,115.35671621058482,126.99999999999994,69.75150364039257,-37.682297990913185,-7.890259779251846,-29.37836244556243,24.404084994876957,-86.89473410860391,-126.99999998981123,-101.10196078441861,-70.68867924528456
-0.09067542481792401,111.2902633190447,-86.38403574870762,-121.64246196403872,115.35671621058482,126.99999999999994,69.75150364039257,35.19544574493158,32.629007884784585,11.45528058041777,-26.39592005025179,-45.76113057709093,127.00000000000003,0.4980392156587651,17.97169811320719
-0.09067542481792401,111.2902633190447,-86.38403574870762,-121.64246196403872,115.35671621058482,126.99999999999994,69.75150364039257,-2.090872620339951,-29.694637041820933,-72.19965342670235,-81.18019475110604,66.32793748614067,83.96694214096009,100.10588235290545,19.16981132075395
16.77495359131802,115.64543784445806,-73.38692718829405,-124.27731673582298,120.41978052507294,125.63616838487968,92.50617283950612,1.605523241426651,-29.338119851232186,-72.19351828381096,-81.18012580255161,66.32793689585262,83.96694213334007,100.10588235282125,19.169811320753524
16.77495359131802,115.64543784445806,-73.38692718829405,-124.27731673582298,120.41978052507294,125.63616838487968,92.50617283950612,-29.94954390111065,24.44803790039769,42.33893636007208,-3.4859623546925356,68.38461644698329,77.66942146506825,-5.478431372744548,-52.71698113207779
16.77495359131802,115.64543784445806,-73.38692718829405,-124.27731673582298,120.41978052507294,125.63616838487968,92.50617283950612,50.88013121926713,35.25406751332885,40.34364118566881,-24.40359981823581,126.99999986976832,68.22314046700214,-66.23921568646017,-10.783018867926234
33.1690703984007,86.40355174525413,-53.7799877332866,-126.85361917934534,125.11237671898877,124.70876288659792,115.18043684710346,61.27408311708609,35.06366931556691,40.34027637592939,-24.403578797457183,126.99999876731832,68.22314046071114,-66.239215686404,-10.78301886792639
33.1690703984007,86.40355174525413,-53.7799877332866,-126.85361917934534,125.11237671898877,124.70876288659792,115.18043684710346,31.196264259440092,11.974505287770473,-15.432426611701782,8.467020665338406,14.910929957546166,-12.595041357277985,42.33333333325119,2.396226415092446
33.1690703984007,86.40355174525413,-53.7799877332866,-126.85361917934534,125.11237671898877,124.70876288659792,115.18043684710346,14.634419519498028,26.154093589591824,44.32177910041479,43.329748649713686,106.4331960944283,-4.198347142544388,6.474509803806818,-33.54716981132328
43.759960017135526,53.58420085731781,-24.291684920704462,-127.0,127.00000000000001,120.3990549828178,126.5175688509022,14.941642699536326,26.03800232905528,44.31807824589132,43.32971249355292,106.43319516559258,-4.198347142721993,6.474509803801569,-33.54716981132324
43.759960017135526,53.58420085731781,-24.291684920704462,-127.0,127.00000000000001,120.3990549828178,126.5175688509022,-13.401389977814631,-6.791035605232864,-29.380819517420218,-32.372261892712665,-124.9433216728531,-1.0495868125737005,-91.14117647070559,-71.88679245283302
43.759960017135526,53.58420085731781,-24.291684920704462,-127.0,127.00000000000001,120.3990549828178,126.5175688509022,17.898679367876063,38.07753457080196,40.33337380001961,47.3140166233261,-22.109313577591138,-11.545454580770102,34.36470588230256,-28.75471698113411
54.45966014565188,15.009797917942436,1.0571278366774735,-125.68257261410787,125.99444367273234,114.34364261168383,127.0,12.066186341029193,37.85975929506503,40.33000941649763,47.31397710383569,-22.109313421338015,-11.545454580327501,34.36470588227377,-28.754716981134113
54.45966014565188,15.009797917942436,1.0571278366774735,-125.68257261410787,125.99444367273234,114.34364261168383,127.0,35.70443484703021,8.200861655201322,-4.488001689171421,6.474734065481405,-19.024293052956757,-90.26446283803237,30.3803921567551,-9.584905660379214
54.45966014565188,15.009797917942436,1.0571278366774735,-125.68257261410787,125.99444367273234,114.34364261168383,127.0,0.7476693186897965,16.956666348657635,-4.487582772252903,-13.446833671790372,-34.44939398338643,-9.446281019246666,-7.470588235424123,-51.51886792453074
63.27331143795518,-35.074709124311084,18.99491807587838,-121.49608114338406,120.71968328934575,101.90549828178689,114.21557454890785,-10.365974511205806,16.915045586183094,-4.487163873965896,-13.446821900180653,-34.44939372296478,-9.446281018981267,-7.470588235417606,-51.51886792453054
63.27331143795518,-35.074709124311084,18.99491807587838,-121.49608114338406,120.71968328934575,101.90549828178689,114.21557454890785,31.790479527389415,15.78304364372546,-11.457912284148028,-4.482106917114316,-5.655871482680552,-74.52066117878442,-49.30588235305477,-8.386792452831802
63.27331143795518,-35.074709124311084,18.99491807587838,-121.49608114338406,120.71968328934575,101.90549828178689,114.21557454890785,12.046579169817814,21.20295715526884,10.452477957233047,-36.356603020467645,-2.570851253190664,-20.991735557485505,-67.23529411771739,-40.73584905660587
64.68784806511496,-60.11696264543785,35.219048453517914,-115.28953434762565,113.80427837199613,88.15807560137455,94.35549224438114,6.032219601288362,21.12470001093712,10.451635768582776,-36.35657190961578,-2.5708512618710406,-20.991735556245473,-67.23529411766049,-40.73584905660576
64.68784806511496,-60.11696264543785,35.219048453517914,-115.28953434762565,113.80427837199613,88.15807560137455,94.35549224438114,31.734299497794527,36.312872191037954,33.35605756679907,24.40422541224041,16.96761007292676,-50.38016530471383,12.450980392193866,2.3962264150928902
64.68784806511496,-60.11696264543785,35.219048453517914,-115.28953434762565,113.80427837199613,88.15807560137455,94.35549224438114,10.396184734127973,25.201940715402998,5.46861274534825,-12.450685748451788,-127.0,-19.94214877450928,-47.3137254901646,-44.33018867924745
80.68299300299873,-60.11696264543785,46.25768860071848,-107.73628400184418,105.00125017363524,71.19201030927832,73.61095283317502,11.445195759185447,25.088369071501354,5.468191077591089,-12.450674817708649,-126.99999895831444,-19.942148773357836,-47.31372549012452,-44.330188679247314
80.68299300299873,-60.11696264543785,46.25768860071848,-107.73628400184418,105.00125017363524,71.19201030927832,73.61095283317502,-55.868487322459316,-16.46135268434212,-25.404542856722454,-50.30163300203018,126.99999954858737,-1.049586790250995,-25.399999999890117,-49.12264150943591
80.68299300299873,-60.11696264543785,46.25768860071848,-107.73628400184418,105.00125017363524,71.19201030927832,73.61095283317502,-10.971860890605065,15.398714980466968,22.399931576097188,25.400348110634585,-62.214574564388116,2.099173539631545,38.34901960796946,-41.933962264152626
104.00471226617167,-42.85180649112064,55.89424340664155,-98.45573997233748,94.01069592999029,49.53436426116832,54.87654320987656,-9.815307500374516,15.368121011958014,22.3980807088769,25.40032708953965,-62.21457406958734,2.099173538922381,38.34901960793728,-41.9339622641525
104.00471226617167,-42.85180649112064,55.89424340664155,-98.45573997233748,94.01069592999029,49.53436426116832,54.87654320987656,40.8758752896481,25.15165869978687,14.429181587729905,11.455212183957768,7.712551233451112,-25.190082657944572,13.4470588235934,-27.55660377358619
104.00471226617167,-42.85180649112064,55.89424340664155,-98.45573997233748,94.01069592999029,49.53436426116832,54.87654320987656,14.412137681575622,5.410677435109253,2.477430914914089,25.400296819096123,119.80161884528574,75.57024791407865,4.482352941230027,-45.528301886793905
111.62144795087822,-18.742804654011024,64.2177341627968,-86.77455048409405,81.82053062925408,26.02190721649481,36.383349161126944,17.66216789428964,5.463858182567966,2.4772615928191986,25.400275798022825,119.80161780360075,75.57024790716746,4.482352941226434,-45.52830188679374
111.62144795087822,-18.742804654011024,64.2177341627968,-86.77455048409405,81.82053062925408,26.02190721649481,36.383349161126944,30.947407661109857,31.68743545043845,6.460616442742936,13.44731716167628,-92.03643780421606,-10.49586779531825,122.0196078431741,32.34905660377322
111.62144795087822,-18.742804654011024,64.2177341627968,-86.77455048409405,81.82053062925408,26.02190721649481,36.383349161126944,22.95533907897716,26.067205929691305,24.385969610432166,85.16493192235896,119.80161750845711,-2.7211133790672193e-08,-111.06274509808625,-17.971698113208912
118.7666714265315,19.83159828536435,75.32314027862962,-71.60949746426923,68.4307542714266,0.2727663230240296,18.292181069958815,29.325882642195655,25.946042492294147,24.383950846155305,85.16486045108053,119.80161646677209,-2.7743015884595934e-08,-111.06274509799232,-17.971698113208983
118.7666714265315,19.83159828536435,75.32314027862962,-71.60949746426923,68.4307542714266,0.2727663230240296,18.292181069958815,18.934146812667496,43.272600098032925,12.43135966961169,101.10203913354171,105.4048544351558,-20.991735563780892,40.34117647071677,-26.358490566039322
118.7666714265315,19.83159828536435,75.32314027862962,-71.60949746426923,68.4307542714266,0.2727663230240296,18.292181069958815,-1.213802342788565,-7.154638825199434,-46.326631563382215,-9.462718732430048,-115.68826168751544,-88.16528927615995,64.24705882362213,31.150943396225394
127.00000000000003,50.62890385793018,89.0991851397529,-52.697095435684645,53.59438810945966,-26.403780068728565,0.9246597024374523,4.50870136102375,-6.996840674521316,-46.322681354152614,-9.46271032408546,-115.68826074131763,-88.1652892692494,64.24705882356803,31.15094339622491
127.00000000000003,50.62890385793018,89.0991851397529,-52.697095435684645,53.59438810945966,-26.403780068728565,0.9246597024374523,-86.80507706045678,-55.90928488231491,-58.269303809242096,-18.427405127206015,0.5141681950398063,-52.47933885197867,-127.0,-124.60377358490916
127.00000000000003,50.62890385793018,89.0991851397529,-52.697095435684645,53.59438810945966,-26.403780068728565,0.9246597024374523,48.76817119355061,43.89173083281874,32.360829637529534,-76.19992095853132,38.56275077656422,-1.049586786090873,29.384313725584825,-88.66037735849287
108.7198343567043,75.51561543172076,104.14378340488916,-30.769248501613646,39.16377274621477,-46.6975945017183,-21.267173156062086,52.99942656347803,43.62272794258794,32.35813800254312,-76.19985621411325,38.562750420655384,-1.0495867865341886,29.384313725560133,-88.66037735849235
108.7198343567043,75.51561543172076,104.14378340488916,-30.769248501613646,39.16377274621477,-46.6975945017183,-21.267173156062086,20.44602755587409,22.636641423711787,40.32249481154761,123.0158354516462,-27.251014460653618,53.528925605338074,59.26666666670948,-122.20754716981288
108.7198343567043,75.51561543172076,104.14378340488916,-30.769248501613646,39.16377274621477,-46.6975945017183,-21.267173156062086,-81.71165127828654,-19.982021304585537,-53.29368702636221,-63.250879142895066,-31.364374543834487,-46.18181819336593,44.325490196072536,28.75471698113278
