Gyro 0,Gyro 1,Gyro 2,Orientation 0,Orientation 1,Orientation 2,Orientation 3,Sensor 0,Sensor 1,Sensor 2,Sensor 3,Sensor 4,Sensor 5,Sensor 6,Sensor 7
10.066683442375444,-38.67147225862822,-18.162867647058825,125.38172698929102,-127.0,120.31045490822024,-66.12063492063493,-2.6286725605210677,-3.1311526366961466,-4.315055096699911,13.422668863731058,20.419609471666096,-12.473214295169683,8.19354838687659,4.8638297872520955
10.066683442375444,-38.67147225862822,-18.162867647058825,125.38172698929102,-127.0,120.31045490822024,-66.12063492063493,4.802268050940281,13.590716938852507,17.20994943487505,17.5527439655349,12.450982001744165,-18.142857152081188,-7.169354838921732,4.863829787252085
10.066683442375444,-38.67147225862822,-18.162867647058825,125.38172698929102,-127.0,120.31045490822024,-66.12063492063493,-4.553623415284577,-7.007764690866644,5.370864425939627,-12.390350813842469,-9.462743395917114,-21.544642866097913,-5.120967742147743,-1.6212765957265884
10.290387518872675,-40.77981651376147,-18.653125000000003,125.41615832994441,-126.98316542948038,120.71588188347963,-66.3222222222222,-2.9245668203932027,-6.977356475202043,5.370791749343043,-12.39034802472133,-9.462743362283629,-21.54464286594476,-5.120967742147048,-1.621276595726577
10.290387518872675,-40.77981651376147,-18.653125000000003,125.41615832994441,-126.98316542948038,120.71588188347963,-66.3222222222222,-11.046475828330955,-5.6620380761263185,3.218244058914953,2.0649383647847417,8.466668327323472,-21.544642865791605,-5.120967742146352,-1.6212765957265662
10.290387518872675,-40.77981651376147,-18.653125000000003,125.41615832994441,-126.98316542948038,120.71588188347963,-66.3222222222222,-8.553719080619938,-5.636074976514123,3.218244065054144,2.064936272946829,8.466668300416675,-21.54464286563845,-5.120967742145655,-1.6212765957265556
10.290387518872675,-40.77981651376147,-18.653125000000003,125.41615832994441,-126.98316542948038,120.71588188347963,-66.3222222222222,-7.200617625991748,-10.75001031440434,-9.69660601916577,-9.29278864776498,2.4901977215186744,-15.875000008726943,-1.0241935485997535,-1.6212765957265454
10.290387518872675,-40.77981651376147,-18.653125000000003,125.41615832994441,-126.98316542948038,120.71588188347963,-66.3222222222222,-4.35152256745194,5.997725697159396,4.294917666536763,-8.26026664739329,-11.454900239854169,-10.205357152006872,-1.02419354860044,2.702127659592573
11.121288374433822,-39.00436871996505,-19.306801470588237,125.55388369255795,-126.94949628844114,120.8679169992019,-66.72539682539684,-7.752667239164677,5.984463210426341,4.2948813251764655,-8.260265252832147,-11.454900199493979,-10.205357152236598,-1.024193548601127,2.702127659592568
11.121288374433822,-39.00436871996505,-19.306801470588237,125.55388369255795,-126.94949628844114,120.8679169992019,-66.72539682539684,-18.876034548732793,-15.87314820158517,-9.69624261346128,13.42266154230688,-30.380390240439265,-19.27678572327969,-14.338709677623731,-1.621276595726545
11.121288374433822,-39.00436871996505,-19.306801470588237,125.55388369255795,-126.94949628844114,120.8679169992019,-66.72539682539684,-0.0006203529955688403,0.8918956921795269,-1.0859064715458642,3.0974530437265217,47.31372703971021,-4.53571429563139,-18.435483871165125,1.621276595762796
11.504781077000507,-35.00961118392311,-19.750367647058827,125.62274637386471,-126.84848886532345,120.61452513966478,-67.04793650793653,0.8507504547822311,0.8959097457554537,-1.085761118349243,3.097450603249678,47.313726881632775,-4.535714296052552,-18.43548387115993,1.621276595762795
11.504781077000507,-35.00961118392311,-19.750367647058827,125.62274637386471,-126.84848886532345,120.61452513966478,-67.04793650793653,-0.5657520312592803,-2.9549797738901233,-8.619278320320372,-10.325315180441773,12.450981836939963,-13.60714286728708,-3.0725806453602185,-1.6212765957265365
11.504781077000507,-35.00961118392311,-19.750367647058827,125.62274637386471,-126.84848886532345,120.61452513966478,-67.04793650793653,7.159588395490683,17.621421962021685,11.829634052005924,-5.162711802747619,-13.447057262048833,-18.142857152808624,-10.241935484064317,-1.6212765957265258
11.217161550075494,-37.56181738750546,-20.870955882352945,125.55388369255795,-126.76431601272535,120.10774142059054,-67.08825396825398,4.694917344471204,17.56896302853572,11.829343311863106,-5.162711454105074,-13.44705721496201,-18.142857152770333,-10.24193548406189,-1.6212765957265143
11.217161550075494,-37.56181738750546,-20.870955882352945,125.55388369255795,-126.76431601272535,120.10774142059054,-67.08825396825398,-7.622449243318102,-8.182666756825547,-17.229360126686554,-8.260271876973746,2.490197637434692,-22.678571438138725,1.024193548189852,2.7021276595926054
11.217161550075494,-37.56181738750546,-20.870955882352945,125.55388369255795,-126.76431601272535,120.10774142059054,-67.08825396825398,1.0510801087575459,5.9864054703163,-4.31381958290186,-27.878155368649058,-10.458821898606342,-27.21428572335396,-9.217741935674539,0.5404255319330489
11.153246099647713,-42.555264307557884,-21.291176470588237,125.41615832994441,-126.7306468716861,119.7529928172386,-66.92698412698411,0.8534846867526649,5.973097469027994,-4.313565222811746,-27.878147349929836,-10.45882186160956,-27.214285723009365,-9.217741935672457,0.5404255319330538
11.153246099647713,-42.555264307557884,-21.291176470588237,125.41615832994441,-126.7306468716861,119.7529928172386,-66.92698412698411,-2.1652090501303682,7.244769428956075,1.0678766706262581,-10.325294959315396,-10.458821824612771,-18.142857151851395,11.266129032055652,-5.944680851045603
11.153246099647713,-42.555264307557884,-21.291176470588237,125.41615832994441,-126.7306468716861,119.7529928172386,-66.92698412698411,0.6289214631000246,-4.337506166842484,-1.0845256936452996,10.325112275931147,-7.47058651162037,-17.008928580461426,-5.120967742130005,2.7021276595926382
10.194514343231004,-43.8868501529052,-21.501286764705885,125.0718449234106,-126.66330858960765,119.49960095770149,-66.7657142857143,-1.0700192539099989,-4.316043263954907,-1.0843803638144314,10.32510739497232,-7.470586484713617,-17.008928580461415,-5.120967742129306,2.702127659592633
10.194514343231004,-43.8868501529052,-21.501286764705885,125.0718449234106,-126.66330858960765,119.49960095770149,-66.7657142857143,4.315249266751019,8.555004666306207,10.75437754638338,-14.455383658074956,0.49804094484807715,-6.803571438296366,-1.0241935485834013,18.914893617039283
10.194514343231004,-43.8868501529052,-21.501286764705885,125.0718449234106,-126.66330858960765,119.49960095770149,-66.7657142857143,-1.6024456837687056,7.248033491711779,29.050160757767177,-8.260258628653066,0.4980409448480383,-18.14285715215766,-6.145161290515593,4.8638297872521115
7.925515853044795,-39.33726518130188,-21.407904411764708,124.41764945099632,-126.427624602333,119.44892258579407,-67.00761904761902,1.0086347024868192,7.23039637409809,29.04928856306197,-8.260257234093272,0.4980409448479994,-18.142857152119365,-6.145161290514547,4.863829787252088
7.925515853044795,-39.33726518130188,-21.407904411764708,124.41764945099632,-126.427624602333,119.44892258579407,-67.00761904761902,-1.2110645429362645,13.63759875030673,12.904853770128089,-10.325296353874485,-22.41176283778498,-45.35714286452118,-3.0725806453545985,-1.621276595726596
7.925515853044795,-39.33726518130188,-21.407904411764708,124.41764945099632,-126.427624602333,119.44892258579407,-67.00761904761902,-4.4968407979184315,-3.1061935900054385,-22.611311041534297,-16.520415805057752,-5.478429529786241,-22.678571436530557,-19.459677419535414,-4.863829787215927
8.277050830397588,-37.33988641328091,-21.24448529411765,123.83231665988885,-126.19194061505834,119.34756584197922,-67.3301587301587,-5.492113875064261,-3.0890021639666116,-22.610438874590994,-16.520411621379864,-5.478429509606175,-22.678571436339116,-19.459677419529868,-4.863829787215917
8.277050830397588,-37.33988641328091,-21.24448529411765,123.83231665988885,-126.19194061505834,119.34756584197922,-67.3301587301587,6.765723512980829,4.637933813845725,7.525083488464128,9.29259899155697,11.454903741215638,-14.741071436685976,-6.14516129050241,4.863829787252085
8.277050830397588,-37.33988641328091,-21.24448529411765,123.83231665988885,-126.19194061505834,119.34756584197922,-67.3301587301587,-2.937150503811688,9.768879984077445,9.67741311710887,3.097472916214504,11.454903704218767,-10.205357151355862,-2.0483870969561595,0.5404255319329518
10.258429793658784,-40.114023591087815,-20.917647058823533,123.59129727531516,-126.09093319194062,119.0941739824421,-67.37047619047621,-2.7637559572167545,9.742633433744277,9.677195052863256,3.0974704757343066,11.454903667221888,-10.205357151585588,-2.048387096956498,0.5404255319329423
10.258429793658784,-40.114023591087815,-20.917647058823533,123.59129727531516,-126.09093319194062,119.0941739824421,-67.37047619047621,-6.489268602431819,-4.418158833582132,-0.009160575476743205,1.0324275209137488,0.4980409515744691,-46.49107143506879,-1.0241935485705356,0.5404255319329334
10.258429793658784,-40.114023591087815,-20.917647058823533,123.59129727531516,-126.09093319194062,119.0941739824421,-67.37047619047621,-11.55226175274533,-19.816143229344938,-5.3902391087674495,3.0974662920548814,3.4862762275700296,-34.01785714920492,22.532258064313712,1.6212765957627018
9.874937091092102,-40.44692005242464,-21.01102941176471,123.28141520943473,-125.97309119830331,118.99281723862725,-67.53174603174602,-6.617532338222742,-19.742549103095065,-5.389948405558272,3.0974638515758013,3.4862762174799404,-34.0178571486306,22.53225806430506,1.6212765957626891
9.874937091092102,-40.44692005242464,-21.01102941176471,123.28141520943473,-125.97309119830331,118.99281723862725,-67.53174603174602,-3.0681694740492738,-1.679608102998548,-1.0847076771442064,-19.61798424665136,-37.3529392312167,-19.27678572048455,-1.0241935485885216,-4.863829787215984
9.874937091092102,-40.44692005242464,-21.01102941176471,123.28141520943473,-125.97309119830331,118.99281723862725,-67.53174603174602,-4.91337818060245,-1.6670203280691758,2.1441501782666927,-19.617979017052583,-4.48235106745785,-24.946428577166323,-9.217741935679628,2.702127659592465
9.363613487669857,-39.448230668414155,-21.01102941176471,122.97153314355427,-125.8047454931071,118.94213886671983,-67.7736507936508,-11.630504090874041,-1.654463072038125,2.1441864882071817,-19.617973787454687,-4.482351050641132,-24.9464285768983,-9.217741935677557,2.702127659592449
9.363613487669857,-39.448230668414155,-21.01102941176471,122.97153314355427,-125.8047454931071,118.94213886671983,-67.7736507936508,-9.96939854886307,3.4979138052900076,29.05016048577715,7.227558128572362,22.41176645013601,-11.339285720410226,-4.096774193743978,1.6212765957626558
9.363613487669857,-39.448230668414155,-21.01102941176471,122.97153314355427,-125.8047454931071,118.94213886671983,-67.7736507936508,-8.759071730880363,6.062978909053156,-0.009124412315985264,-40.268377536305756,-37.352939143769724,-6.803571435194977,23.5564516126865,-4.863829787216017
10.929542023150482,-37.89471384884229,-20.310661764705884,123.07482716551442,-125.73740721102862,118.99281723862725,-68.1768253968254,-0.9966393312684574,6.049439625414101,-0.009015408619652554,-40.2683653339117,-37.35293901596248,-6.803571435539569,23.5564516126775,-4.863829787216005
10.929542023150482,-37.89471384884229,-20.310661764705884,123.07482716551442,-125.73740721102862,118.99281723862725,-68.1768253968254,-4.025849916675423,-9.383637921926322,3.219806115820838,-9.292745416408128,32.37255088507548,-12.47321429264252,-5.12096774214794,2.7021276595924424
10.929542023150482,-37.89471384884229,-20.310661764705884,123.07482716551442,-125.73740721102862,118.99281723862725,-68.1768253968254,-1.070866729005425,-13.19997257203632,-3.2376189497731094,-2.065101873021442,12.450982270810933,-17.008928578202365,1.0241935481705493,0.5404255319328704
12.94287871162557,-36.11926605504587,-19.61029411764706,123.59129727531516,-125.75424178154825,118.84078212290501,-68.57999999999998,-5.7081307524154035,-13.148479672653668,-3.2374009293578316,-2.0651025703068093,12.450982230450709,-17.008928578202372,1.0241935481691558,0.5404255319328606
12.94287871162557,-36.11926605504587,-19.61029411764706,123.59129727531516,-125.75424178154825,118.84078212290501,-68.57999999999998,-0.1188941702950923,2.322464090377363,6.448954655139587,-11.357785582125533,-0.4980373392237948,-11.339285721444025,1.0241935481677622,-0.5404255318969255
12.94287871162557,-36.11926605504587,-19.61029411764706,123.59129727531516,-125.75424178154825,118.84078212290501,-68.57999999999998,-13.092433908526328,3.6066504494665477,-0.008579438255291283,-1.0325805699480162,-9.46274316384729,-17.008928578393824,-15.362903226014453,0.5404255319328464
12.94287871162557,-37.67278287461774,-20.053860294117648,124.00447336315574,-125.78791092258749,118.53671189146047,-68.74126984126985,-10.042411347612116,3.6015211018101,-0.00847044380162254,-1.0325816158734225,-9.462743130213832,-17.008928578393835,-15.362903226010312,0.5404255319328382
12.94287871162557,-37.67278287461774,-20.053860294117648,124.00447336315574,-125.78791092258749,118.53671189146047,-68.74126984126985,-0.4060590805152695,3.5963851285814874,-2.160836466256729,3.097498366882893,-15.439213648571574,-13.607142864338828,-9.217741935688366,1.6212765957626076
12.94287871162557,-37.67278287461774,-20.053860294117648,124.00447336315574,-125.78791092258749,118.53671189146047,-68.74126984126985,5.325431092322344,2.306280125730103,-9.694317347933167,-6.484511277715654e-05,-7.470586192103077,-20.410714292563725,-13.31451612923151,0.5404255319328195
10.705837946653249,-38.33857579729139,-20.660845588235297,124.00447336315574,-125.68690349946979,118.53671189146047,-69.14444444444445,5.944440879707848,2.3054704134131123,-9.693881299002813,-6.623967727925617e-05,-7.470586165196311,-20.410714292448873,-13.314516129228068,0.5404255319328122
10.705837946653249,-38.33857579729139,-20.660845588235297,124.00447336315574,-125.68690349946979,118.53671189146047,-69.14444444444445,6.024212594426496,-0.2652781031959055,1.0689298178535136,-12.390310720286179,-4.4823508622939405,-15.87500000692733,-3.0725806453616156,5.9446808510816895
10.705837946653249,-38.33857579729139,-20.660845588235297,124.00447336315574,-125.68690349946979,118.53671189146047,-69.14444444444445,6.639132977153814,3.597450773939527,3.2214774657016707,11.357657983747048,-4.482350845477219,-18.142857149668966,-9.217741935679443,3.782978723422109
12.048062405636642,-35.45347313237222,-20.520772058823532,124.27992408838281,-125.60273064687169,118.33399840383078,-69.58793650793649,3.795122099740376,3.592246958266279,3.2214774169706484,11.357652754144024,-4.482350828660494,-18.142857149630686,-9.217741935677388,3.7829787234220893
12.048062405636642,-35.45347313237222,-20.520772058823532,124.27992408838281,-125.60273064687169,118.33399840383078,-69.58793650793649,-0.18335264384407202,10.011850543842066,10.75513992093649,-9.292757618865839,-10.458821363834973,-9.071428578779035,-4.096774193743825,1.6212765957625157
12.048062405636642,-35.45347313237222,-20.520772058823532,124.27992408838281,-125.60273064687169,118.33399840383078,-69.58793650793649,2.1050533953202013,8.699978906822972,17.212310536385054,-8.260235618499411,12.450982455794799,-12.473214293102068,-7.169354838902403,1.6212765957625037
12.367639657775545,-33.67802533857579,-20.28731617647059,124.55537481360986,-125.50172322375397,117.92857142857139,-70.07174603174604,3.4032981859263556,8.677441430517012,17.211838070101678,-8.260234223943531,12.45098241543459,-12.473214293255229,-7.169354838901038,1.6212765957624917
12.367639657775545,-33.67802533857579,-20.28731617647059,124.55537481360986,-125.50172322375397,117.92857142857139,-70.07174603174604,-8.393217221315023,-5.4796590643992005,-9.694572076466471,8.26009128533829,2.4901981217557045,-45.357142862606864,-6.145161290513372,1.6212765957624797
12.367639657775545,-33.67802533857579,-20.28731617647059,124.55537481360986,-125.50172322375397,117.92857142857139,-70.07174603174604,5.5018096738524545,4.825284444697968,10.754376619734707,-7.49557072277085e-05,-7.470586138289688,-20.41071429191294,-7.169354838898655,0.5404255319326907
12.399597382989434,-34.01092179991262,-20.590808823529414,124.72753151687678,-125.43438494167552,117.16839584996006,-70.1926984126984,0.6993332423937395,4.815761562177784,10.754122202848489,-7.635027003249917e-05,-7.470586111382915,-20.410714291798115,-7.1693548388972905,0.5404255319326832
12.399597382989434,-34.01092179991262,-20.590808823529414,124.72753151687678,-125.43438494167552,117.16839584996006,-70.1926984126984,0.11109202325176204,-4.1884955371060375,-6.465932330232251,-41.30088803164804,-14.44313506179921,-9.071428578166573,7.169354838512291,2.7021276595922297
12.399597382989434,-34.01092179991262,-20.590808823529414,124.72753151687678,-125.43438494167552,117.16839584996006,-70.1926984126984,-16.331247407078486,-1.5977127011280885,5.373007286512003,-11.357788022674598,-19.423527138008325,-26.080357148709687,-11.266129032444614,-22.157446808492658
10.769753397081029,-35.675404106596766,-21.291176470588237,124.65866883557001,-125.29970837751856,116.8136472466081,-70.55555555555554,-9.488262127679832,-1.5855806230711211,5.372934573363819,-11.357785582200549,-19.42352707074135,-26.080357148403422,-11.26612903244187,-22.157446808492587
10.769753397081029,-35.675404106596766,-21.291176470588237,124.65866883557001,-125.29970837751856,116.8136472466081,-70.55555555555554,10.190916997827845,8.706219198270993,-4.313275706336524,-16.520384427578847,-10.458821175487568,-1.1339285783603916,-5.120967742121319,-0.5404255318969882
10.769753397081029,-35.675404106596766,-21.291176470588237,124.65866883557001,-125.29970837751856,116.8136472466081,-70.55555555555554,9.689039829913728,7.398611182883467,12.90677876468542,-27.878103072780547,5.478433666819149,-6.803571435654808,6.145161290128662,11.348936170230544
13.550075490689485,-34.23285277413718,-22.621875000000003,124.8308255388369,-125.16503181336162,115.64804469273739,-70.67650793650796,3.419565761237319,7.380330930531202,12.9064516686959,-27.878095054070197,5.478433650002403,-6.803571435999428,6.145161290125522,11.348936170230488
13.550075490689485,-34.23285277413718,-22.621875000000003,124.8308255388369,-125.16503181336162,115.64804469273739,-70.67650793650796,-23.890158845882144,-9.342444297879199,-12.923575602500751,-12.390283177805399,11.45490418517686,-32.883928577432485,-16.387096774376253,-8.106382978705549
13.550075490689485,-34.23285277413718,-22.621875000000003,124.8308255388369,-125.16503181336162,115.64804469273739,-70.67650793650796,0.9403696374915866,0.9754204093212038,8.601719626479717,-11.35776013152533,1.4941198948613361,-22.678571434731452,-13.31451612921288,0.5404255319326849
15.30775037745345,-34.121887287024904,-23.882536764705886,125.0718449234106,-125.04718981972428,113.92498004788504,-70.67650793650796,2.7040244571780523,0.9787964330280488,8.601537892863623,-11.357757691055983,1.4941198914979763,-22.678571434540054,-13.314516129209451,0.5404255319326741
15.30775037745345,-34.121887287024904,-23.882536764705886,125.0718449234106,-125.04718981972428,113.92498004788504,-70.67650793650796,-4.228983121771238,3.552079452298183,-1.0847814054632305,68.1463045515327,28.38823737209503,1.1339285640364416,-1.8410739599517e-10,-4.86382978721622
15.30775037745345,-34.121887287024904,-23.882536764705886,125.0718449234106,-125.04718981972428,113.92498004788504,-70.67650793650796,-9.898827640337203,-6.732960183587455,-6.465823609357338,22.715388831234648,17.431374599270704,-11.339285721444583,-31.75000000016052,29.723404255336646
14.860342224458986,-38.11664482306684,-24.97977941176471,124.93411956079706,-124.91251325556735,111.79648842777331,-70.1120634920635,-11.960901280982293,-6.703592218161031,-6.465496577368281,22.71537976659178,17.43137454209374,-11.339285721636061,-31.750000000150877,29.723404255336526
14.860342224458986,-38.11664482306684,-24.97977941176471,124.93411956079706,-124.91251325556735,111.79648842777331,-70.1120634920635,6.7219344207763125,11.315189049400546,-1.0839820132611537,-6.19519649882037,14.443139208921162,-13.607142864530886,2.048387096606696,9.18723404257065
14.860342224458986,-38.11664482306684,-24.97977941176471,124.93411956079706,-124.91251325556735,111.79648842777331,-70.1120634920635,-5.967225525931317,4.858872241483375,5.373588352146793,32.008053713760326,41.33725664579464,1.1339285629259308,1.024193548218606,-8.106382978705822
13.99748364368395,-38.67147225862822,-26.07702205882353,124.21106140707604,-124.57582184517497,109.61731843575416,-69.78952380952381,-2.82875279656456,4.849102399157842,5.373515629073435,32.00804151136163,41.33725650789727,1.1339285623132724,1.0241935482171636,-8.106382978705803
13.99748364368395,-38.67147225862822,-26.07702205882353,124.21106140707604,-124.57582184517497,109.61731843575416,-69.78952380952381,-2.7218988438260983,-5.440365443673511,7.525917922275921,2.064941851023799,0.4980409313933399,-12.473214294519455,-5.120967742102087,2.7021276595919854
13.99748364368395,-38.67147225862822,-26.07702205882353,124.21106140707604,-124.57582184517497,109.61731843575416,-69.78952380952381,6.671062120738675,-0.2755677136599881,-0.007890031354330862,15.487703102400332,11.454903610043814,-6.803571437914323,19.459677419169775,8.10638297874085
18.247861097131356,-42.44429882044561,-25.376654411764708,124.62423749491663,-124.65999469777307,107.18475658419788,-68.82190476190476,6.174654666686344,-0.26803218735631296,-0.007781048856527306,15.487696478243954,11.454903573046906,-6.803571438258992,19.4596774191621,8.106382978740815
18.247861097131356,-42.44429882044561,-25.376654411764708,124.62423749491663,-124.65999469777307,107.18475658419788,-68.82190476190476,1.8491044695148169,7.44925211469144,17.21212805227048,-68.14645097671257,-11.454900246582952,-12.47321429536202,13.314516128836622,1.6212765957621145
18.247861097131356,-42.44429882044561,-25.376654411764708,124.62423749491663,-124.65999469777307,107.18475658419788,-68.82190476190476,-12.584087300000814,-10.55877690431062,-9.6942820994131,-22.715538045540644,-22.41176288487337,-22.678571437680297,-11.266129032440205,-5.94468085104634
25.949672873678914,-51.654434250764524,-24.349448529411767,126.10478514301207,-125.148197242842,104.29608938547483,-67.04793650793653,-13.12660698415839,-10.516568862298012,-9.693846051400042,-22.71553177002341,-22.411762807516403,-22.67857143748894,-11.2661290324375,-5.944680851046331
25.949672873678914,-51.654434250764524,-24.349448529411767,126.10478514301207,-125.148197242842,104.29608938547483,-67.04793650793653,-4.870727044625272,8.799991180161499,9.678865124779382,-7.983675874800866e-05,12.450982156455918,-20.41071429459424,-12.290322580821094,1.6212765957621125
25.949672873678914,-51.654434250764524,-24.349448529411767,126.10478514301207,-125.148197242842,104.29608938547483,-67.04793650793653,-10.60915010971804,-9.212536914206737,-20.45600317530482,-1.0326014884910513,-3.4862726892142124,-34.01785715069951,-21.508064516294752,-2.702127659557016
18.695269250125822,-46.6609873307121,-21.851470588235298,127.0,-125.48488865323438,102.77573822825215,-65.9190476190476,-7.6399575757951474,-9.17482328839554,-20.455203736983425,-1.0326025344128666,-3.4862726757608784,-34.017857150125266,-21.508064516288588,-2.7021276595570196
18.695269250125822,-46.6609873307121,-21.851470588235298,127.0,-125.48488865323438,102.77573822825215,-65.9190476190476,3.947218060193892,2.4274711407757437,-0.005891669106679487,3.097477448347039,0.49804103901992536,-27.214285721440994,-7.1693548388742006,-0.5404255318974682
18.695269250125822,-46.6609873307121,-21.851470588235298,127.0,-125.48488865323438,102.77573822825215,-65.9190476190476,-5.127315410379859,2.425968233149262,2.146692294596556,-46.46349733631242,-10.458821639630676,-10.205357150821404,-1.687618933488011e-10,1.621276595762077
6.966784096628086,-41.1127129750983,-20.030514705882354,126.48352989019926,-125.35021208907742,103.28252194732639,-66.20126984126983,-4.169322233807581,2.4244473656237684,2.146728561100097,-46.46348304207943,-10.458821602633893,-10.205357151051196,-1.6985435280503225e-10,1.6212765957620607
6.966784096628086,-41.1127129750983,-20.030514705882354,126.48352989019926,-125.35021208907742,103.28252194732639,-66.20126984126983,-3.867019674078101,-4.001904735209237,5.375477349559535,2.0649833391592836,-2.4901941629821667,-7.937500008577645,-12.290322580806563,-1.621276595727286
6.966784096628086,-41.1127129750983,-20.030514705882354,126.48352989019926,-125.35021208907742,103.28252194732639,-66.20126984126983,-2.345636922984595,2.443045674934136,16.137779669677727,-36.1382682679905,-36.35686061417565,-30.616071435917437,-20.483870967893917,1.6212765957620385
2.6844489179667868,-38.893403232852776,-18.58308823529412,125.58831503321133,-125.08085896076352,104.75219473264164,-67.04793650793653,-3.5049996194900053,2.4414334380315594,16.13734351431114,-36.13825746016064,-36.35686048973176,-30.616071435458053,-20.483870967888098,1.6212765957620212
2.6844489179667868,-38.893403232852776,-18.58308823529412,125.58831503321133,-125.08085896076352,104.75219473264164,-67.04793650793653,-0.4363412921590819,10.149578789956408,32.280469979240664,-1.032557908539462,16.435296177301097,-1.1339285798552137,-9.217741935632962,1.6212765957620041
2.6844489179667868,-38.893403232852776,-18.58308823529412,125.58831503321133,-125.08085896076352,104.75219473264164,-67.04793650793653,0.5978222871926855,24.25648706434767,79.63393906780308,41.30077158951718,42.33333518211602,-15.875000007963031,7.169354838549877,0.5404255319322098
3.4194765978862645,-39.00436871996505,-17.695955882352944,124.89968822014367,-124.86200954400849,106.47525937749398,-67.97523809523807,0.7589687578519473,24.181107970710638,79.63135887547898,41.300756249353725,42.333335040855296,-15.875000008001383,7.16935483854636,0.5404255319321967
3.4194765978862645,-39.00436871996505,-17.695955882352944,124.89968822014367,-124.86200954400849,106.47525937749398,-67.97523809523807,-10.875722632350916,-15.728001055729255,-19.38507196604353,-17.55291374951917,-91.14117409487568,-70.30357143291995,-13.314516129183184,-5.944680851046478
3.4194765978862645,-39.00436871996505,-17.695955882352944,124.89968822014367,-124.86200954400849,106.47525937749398,-67.97523809523807,3.2066649588152174,-1.534061540731508,-15.07935874830359,-29.943152303249803,18.427453001057746,-27.214285719756994,-5.120967742089379,-3.7829787233869148
8.117262204328135,-38.560506771515946,-17.415808823529414,125.00298224210383,-124.81150583244963,107.74221867517954,-68.82190476190476,1.7317091505360658,-1.5225537413255998,-15.078740934117224,-29.9431435872582,18.42745294051737,-27.21428571941247,-5.120967742088751,-3.782978723386913
8.117262204328135,-38.560506771515946,-17.415808823529414,125.00298224210383,-124.81150583244963,107.74221867517954,-68.82190476190476,2.5760255396201677,6.198694784420541,8.599102035305272,10.325155158377008,51.29804091592861,-21.54464286230958,15.362903225637904,8.106382978740635
8.117262204328135,-38.560506771515946,-17.415808823529414,125.00298224210383,-124.81150583244963,107.74221867517954,-68.82190476190476,10.261889600315143,30.5983901752663,-9.697117282433084,-22.715497952041407,4.482354753799933,-23.812500004859828,6.145161290154892,5.944680851081039
10.705837946653249,-36.341197029270425,-17.71930147058824,125.24400162667752,-124.71049840933193,108.50239425379087,-69.74920634920636,6.377374066945478,30.50136915510904,-9.696681186723561,-22.715491676530956,4.482354740346434,-23.81250000463016,6.145161290151709,5.944680851081003
10.705837946653249,-36.341197029270425,-17.71930147058824,125.24400162667752,-124.71049840933193,108.50239425379087,-69.74920634920636,-5.705315802345643,18.839839571751497,17.20969258987628,-18.58540437234003,-8.46666480242134,-23.812500004400487,-48.13709677432544,-3.7829787233870285
10.705837946653249,-36.341197029270425,-17.71930147058824,125.24400162667752,-124.71049840933193,108.50239425379087,-69.74920634920636,-17.311998127035963,-17.196772561371677,-16.154142566048318,-21.682960262902323,86.16078563437608,-27.214285718225828,23.556451612730783,-2.702127659557256
10.73779567186714,-39.115334207077325,-17.27573529411765,125.55388369255795,-124.72733297985155,109.31324820430962,-70.35396825396828,-9.020729753469045,-17.132850482068644,-16.153488436249802,-21.68295433603469,86.1607853451279,-27.21428571788129,23.55645161272171,-2.7021276595572647
10.73779567186714,-39.115334207077325,-17.27573529411765,125.55388369255795,-124.72733297985155,109.31324820430962,-70.35396825396828,-15.43542538933884,-23.49385716356884,-54.897384588579875,-80.53660306788004,-31.376469133280633,-74.83928571430694,-11.26612903242161,-8.106382978706158
10.73779567186714,-39.115334207077325,-17.27573529411765,125.55388369255795,-124.72733297985155,109.31324820430962,-70.35396825396828,17.898201908026305,29.274994473147654,44.1184284568967,20.65040793415579,-48.30980225629536,-10.205357145309073,-14.338709677577826,5.9446808510809515
10.066683442375444,-41.667540410659676,-17.27573529411765,125.79490307713161,-124.74416755037117,110.47885075818033,-70.99904761904759,0.7207072312804583,29.182330548330896,44.11704748366225,20.650399566782674,-48.30980209149141,-10.205357145538855,-14.338709677574107,5.94468085108091
10.066683442375444,-41.667540410659676,-17.27573529411765,125.79490307713161,-124.74416755037117,110.47885075818033,-70.99904761904759,-11.189958671336088,4.675525642882735,3.2186412475962345,32.00811402828521,4.482354615901518,-5.669642860361952,-1.6216983311778677e-10,4.863829787251092
10.066683442375444,-41.667540410659676,-17.27573529411765,125.79490307713161,-124.74416755037117,110.47885075818033,-70.99904761904759,-25.503838469736937,-23.603577914603843,-25.839771457036246,33.04062208304677,10.458825154439175,-22.678571431019954,-15.362903225957812,-2.7021276595573838
13.550075490689485,-42.333333333333336,-16.832169117647062,126.48352989019926,-124.94618239660659,110.93495610534714,-71.12,-6.292489832991846,-23.518037956593265,-25.838790274601767,33.040609532000154,10.45882512080553,-22.678571430828576,-15.362903225953746,-2.7021276595573926
13.550075490689485,-42.333333333333336,-16.832169117647062,126.48352989019926,-124.94618239660659,110.93495610534714,-71.12,20.56915161989214,11.261340093942582,-7.541771480728816,20.650353894911003,6.474511385844405,-2.2678571463071204,11.266129032094156,-1.621276595727624
13.550075490689485,-42.333333333333336,-16.832169117647062,126.48352989019926,-124.94618239660659,110.93495610534714,-71.12,-5.98292590171993,-17.03975592982258,-16.15130817404936,-17.552903987757325,-45.32156675159295,-47.625000000871765,-2.0483870969326836,0.5404255319319171
10.450176144942127,-48.214504150283965,-18.046139705882354,126.44909854954588,-125.03035524920466,111.74581005586589,-71.12,-14.67889757262578,-16.976177721786765,-16.15065409216413,-17.552899455444958,-45.32156659687902,-47.62499999983807,-2.04838709693311,0.5404255319318971
10.450176144942127,-48.214504150283965,-18.046139705882354,126.44909854954588,-125.03035524920466,111.74581005586589,-71.12,0.29755256292760945,8.786531593821703,25.82326277233423,-11.357773380111038,16.435295928410667,1.1339285693174972,9.217741935315777,9.187234042570092
10.450176144942127,-48.214504150283965,-18.046139705882354,126.44909854954588,-125.03035524920466,111.74581005586589,-71.12,-19.64417152540022,-7.941426672618643,-17.22700073452977,-3.097608882276301,-11.454900034695344,-13.6071428588669,21.508064515947158,0.5404255319318287
9.267740312028186,-42.555264307557884,-17.742647058823533,126.44909854954588,-125.03035524920466,112.7086991221069,-71.5231746031746,-12.094124499995234,-7.908442654040387,-17.22631032175534,-3.097609230923985,-11.45489999433529,-13.607142858981836,21.50806451593878,0.5404255319318108
9.267740312028186,-42.555264307557884,-17.742647058823533,126.44909854954588,-125.03035524920466,112.7086991221069,-71.5231746031746,-5.117457390980459,-4.020644306901076,20.44269284289557,5.162552477791479,-4.482350976652156,-17.008928573151785,16.387096773998888,0.5404255319317928
9.267740312028186,-42.555264307557884,-17.742647058823533,126.44909854954588,-125.03035524920466,112.7086991221069,-71.5231746031746,10.208926222874558,-4.0008252735868215,-7.540063868334858,-14.45533554621234,-32.37254686912782,-21.544642858558543,-15.362903225983109,-0.540425531898002
8.62858580775038,-44.10878112712975,-18.46636029411765,126.27694184627896,-124.99668610816545,113.6209098164405,-71.84571428571428,8.331924824342058,-3.9810600199465194,-7.539700530366899,-14.45533205982086,-32.37254675813738,-21.544642858405464,-15.362903225979045,-0.5404255318980153
8.62858580775038,-44.10878112712975,-18.46636029411765,126.27694184627896,-124.99668610816545,113.6209098164405,-71.84571428571428,2.145664100240241,2.463463970640406,3.223037876746192,29.943042484896637,29.384315723428827,3.4017857114843792,-6.145161290498269,0.5404255319317486
8.62858580775038,-44.10878112712975,-18.46636029411765,126.27694184627896,-124.99668610816545,113.6209098164405,-71.84571428571428,-3.6801458834129455,2.461425599079099,4.299275308540551,3.0975042933427206,-8.46666453671935,-19.2767857162383,-6.145161290497317,0.5404255319317319
9.459486663311528,-48.214504150283965,-19.423529411764708,126.07035380235868,-125.04718981972428,114.27972865123701,-71.76507936507937,-5.713274125512907,2.4593690539816677,4.299238892644738,3.0975018528572713,-8.466664506449298,-19.276785716161804,-6.145161290496365,0.5404255319317155
9.459486663311528,-48.214504150283965,-19.423529411764708,126.07035380235868,-125.04718981972428,114.27972865123701,-71.76507936507937,-1.8543359487194324,10.167070569868379,3.222964969811632,-13.422824702353944,-6.474507625515509,-13.607142859326949,-10.241935484040617,4.863829787250808
9.459486663311528,-48.214504150283965,-19.423529411764708,126.07035380235868,-125.04718981972428,114.27972865123701,-71.76507936507937,-4.2942166786147995,-3.9956434338965288,-0.005747627349578011,-1.0325784785560912,17.431374605992662,-24.9464285729586,1.0241935482110307,1.6212765957614452
10.929542023150482,-50.32284840541721,-19.93713235294118,126.0359224617053,-125.148197242842,114.73583399840379,-71.5231746031746,-0.5955720808181515,-3.9760142325104555,-0.00563868152400504,-1.0325795244817786,17.431374548815626,-24.946428572690667,1.0241935482095572,1.6212765957614257
10.929542023150482,-50.32284840541721,-19.93713235294118,126.0359224617053,-125.148197242842,114.73583399840379,-71.5231746031746,5.139302156655078,-0.10155152622486607,7.528132815149986,-7.227702113429605,-11.45489984298556,-14.741071430257694,-4.096774193723425,3.7829787234209595
10.929542023150482,-50.32284840541721,-19.93713235294118,126.0359224617053,-125.148197242842,114.73583399840379,-71.5231746031746,12.353744446603793,12.754578477011428,10.756699898867533,2.0649812470177276,5.478433428016274,6.8035714253474,9.217741935298747,2.7021276595911554
9.938852541519882,-44.99650502402796,-19.470220588235296,125.82933441778499,-125.11452810180276,115.24261771747803,-71.68444444444447,6.574678958790711,12.717661502989104,10.75644544201111,2.064979155172627,5.478433411199429,6.803571424543282,9.217741935294503,2.702127659591132
9.938852541519882,-44.99650502402796,-19.470220588235296,125.82933441778499,-125.11452810180276,115.24261771747803,-71.68444444444447,-8.900696874272029,1.1161233143753317,-2.158659100930569,-21.682988851591006,24.40392347568806,11.339285709145852,-2.048387096959053,3.782978723420885
9.938852541519882,-44.99650502402796,-19.470220588235296,125.82933441778499,-125.11452810180276,115.24261771747803,-71.68444444444447,7.546037256258002,4.973230162076164,-30.140652663347446,24.780428647948856,4.482354888330234,-10.205357147493167,-7.169354838890997,7.025531914910187
6.998741821841977,-40.22498907820009,-19.49356617647059,125.24400162667752,-124.92934782608697,115.74940143655223,-72.0473015873016,9.278581816780198,4.962410610352597,-30.139526189453967,24.780418886026414,4.4823548748767355,-10.205357147722967,-7.169354838889705,7.0255319149101485
6.998741821841977,-40.22498907820009,-19.49356617647059,125.24400162667752,-124.92934782608697,115.74940143655223,-72.0473015873016,2.0716853562844424,1.096703612202354,33.35961320966638,72.27634095394342,0.49804116009576477,-51.02678571661293,-1.0241935485706049,10.268085106399441
6.998741821841977,-40.22498907820009,-19.49356617647059,125.24400162667752,-124.92934782608697,115.74940143655223,-72.0473015873016,10.502996937800049,6.238752590778559,27.977408039603844,55.75599103986434,-14.443135219882349,-19.27678571761757,-17.41129032275221,-2.7021276595579335
-1.278309008555608,-37.67278287461774,-20.33400735294118,123.45357191270162,-124.42431071049842,117.11771747805264,-72.81333333333333,3.715240355167209,6.223574902414663,27.976572125043276,55.75597081875363,-14.44313516943221,-19.276785717541056,-17.411290322747462,-2.702127659557939
-1.278309008555608,-37.67278287461774,-20.33400735294118,123.45357191270162,-124.42431071049842,117.11771747805264,-72.81333333333333,-13.961149018572042,-2.7863322050555848,-3.235151493797261,-8.260305346917592,0.4980412609959397,1.1339285668655386,-1.0241935485618905,-1.6212765957281645
-1.278309008555608,-37.67278287461774,-20.33400735294118,123.45357191270162,-124.42431071049842,117.11771747805264,-72.81333333333333,-8.273492045458822,19.07324590594967,26.89971669470555,-16.520466009712926,-55.28235055758872,3.401785708956208,-9.217741935653088,-1.6212765957281716
-5.880221439355811,-35.23154215814766,-20.707536764705885,120.76792734173782,-123.5657476139979,118.99281723862725,-74.22444444444443,-3.56713503507948,19.01465816599128,26.898917144771925,-16.52046182602649,-55.28235036924124,3.4017857082669494,-9.217741935651107,-1.6212765957281783
-5.880221439355811,-35.23154215814766,-20.707536764705885,120.76792734173782,-123.5657476139979,118.99281723862725,-74.22444444444443,-11.77514154360214,-1.6032457536917697,13.983267517962615,18.58523110145236,18.42745329366441,-14.741071434049053,-10.241935484035427,-7.025531914877071
-5.880221439355811,-35.23154215814766,-20.707536764705885,120.76792734173782,-123.5657476139979,118.99281723862725,-74.22444444444443,-8.354151852836353,3.5476124071682538,22.59280413691262,-80.53672125697507,27.392159061110846,-21.54464286223574,-21.508064516282417,-0.5404255318983973
2.077252138902871,-50.98864132809087,-19.727022058823533,119.32181103429576,-123.34689819724284,120.51316839584993,-74.30507936507934,-13.20797542421561,3.5412350977683467,22.592149980636563,-80.5366954576171,27.392158970300322,-21.544642862082675,-21.508064516276292,-0.5404255318984084
2.077252138902871,-50.98864132809087,-19.727022058823533,119.32181103429576,-123.34689819724284,120.51316839584993,-74.30507936507934,-19.143524713322698,-0.3200301434866972,-6.46691686791211,-49.56106194315191,15.439217775507384,-12.473214291116243,-2.0483870969304387,-4.863829787217527
2.077252138902871,-50.98864132809087,-19.727022058823533,119.32181103429576,-123.34689819724284,120.51316839584993,-74.30507936507934,-33.90965473707908,-31.15249513287531,-46.287377596963864,-45.43096557431706,-45.32156622018686,-37.41964286100625,-7.16935483886239,4.863829787250468
7.126572722697537,-60.08781127129751,-18.886580882352945,118.59875288057475,-123.3974019088017,122.08419792498,-73.98253968253965,-26.402109774884195,-31.041749479117207,-46.28570596778407,-45.43095162872579,-45.321566065472894,-37.419642860317154,-7.169354838861104,4.863829787250436
7.126572722697537,-60.08781127129751,-18.886580882352945,118.59875288057475,-123.3974019088017,122.08419792498,-73.98253968253965,16.46185405665762,6.332707969073976,1.0704159644796336,-64.01630231220386,5.478433781166315,-28.34821428881468,38.91935483852374,2.7021276595908517
7.126572722697537,-60.08781127129751,-18.886580882352945,118.59875288057475,-123.3974019088017,122.08419792498,-73.98253968253965,-4.086063880640527,14.026990806994165,26.900188751775215,-29.94311360447703,105.0862762975362,48.75892856348176,19.459677419169743,-5.944680851047387
12.591343734272776,-60.198776758409785,-17.462500000000002,118.77090958384167,-123.70042417815483,123.24980047885072,-73.53904761904761,-3.2017385357781385,13.985470946824044,26.89938919376323,-29.94310488849191,105.08627594438444,48.75892856126103,19.459677419162052,-5.944680851047382
12.591343734272776,-60.198776758409785,-17.462500000000002,118.77090958384167,-123.70042417815483,123.24980047885072,-73.53904761904761,-37.2922706450789,-41.309391946337534,-40.9043733251602,-75.37398748800526,4.48235463271407,-45.3571428631484,-70.66935483884016,-24.319148936153585
12.591343734272776,-60.198776758409785,-17.462500000000002,118.77090958384167,-123.70042417815483,123.24980047885072,-73.53904761904761,5.101702222200503,-9.040174933494944,-59.19892105545153,-21.68291005900895,-39.3450960953416,-57.83035714705962,102.41935483846751,23.238297872356668
13.00679416205335,-56.53691568370468,-17.95275735294118,119.04636030906872,-123.93610816542949,124.26336791699916,-73.29714285714283,0.01917472350392524,-9.003764617194811,-59.196813400546084,-21.68290413214974,-39.34509596080773,-57.83035714568129,102.41935483843183,23.23829787235657
13.00679416205335,-56.53691568370468,-17.95275735294118,119.04636030906872,-123.93610816542949,124.26336791699916,-73.29714285714283,-23.492866623949663,-29.526845363610537,-47.35609319843034,28.910594396057384,-56.27842905691557,-52.160714287544586,-2.339932692052571e-10,4.8638297872502605
13.00679416205335,-56.53691568370468,-17.95275735294118,119.04636030906872,-123.93610816542949,124.26336791699916,-73.29714285714283,-6.3857656770165185,12.982574316103687,66.72679044188166,17.55286041068697,-17.431370277261916,-11.339285717697514,-3.0725806453939932,-21.076595744664417
13.869652742828388,-56.86981214504151,-17.812683823529415,119.8382811440965,-124.4074761399788,125.17557861133278,-72.69238095238097,-8.992180543576964,12.944835118617064,66.72464620037485,17.552853089231185,-17.431370216721696,-11.339285717888963,-3.072580645394052,-21.07659574466436
13.869652742828388,-56.86981214504151,-17.812683823529415,119.8382811440965,-124.4074761399788,125.17557861133278,-72.69238095238097,21.095623968971765,16.76201756401649,-10.766598547131075,1.0325216530504564,-86.1607815040803,-70.30357142836732,-9.217741935711919,12.429787234058782
13.869652742828388,-56.86981214504151,-17.812683823529415,119.8382811440965,-124.4074761399788,125.17557861133278,-72.69238095238097,9.705089736232988,5.146667280373429,25.82594902974032,25.813006081924243,77.19608054295726,-35.15178571466599,-44.04032258084415,2.7021276595907335
18.215903371917467,-60.64263870685889,-19.960477941176475,120.97451538565812,-125.03035524920466,124.97286512370309,-71.32158730158727,15.677044276680856,5.135089577747532,25.825185777853257,25.812995971352308,77.19608028397927,-35.1517857140534,-44.04032258083036,2.70212765959071
18.215903371917467,-60.64263870685889,-19.960477941176475,120.97451538565812,-125.03035524920466,124.97286512370309,-71.32158730158727,28.457282238524627,47.52727424681733,101.16104806593066,15.487783289078212,21.415688206416725,51.0267857092862,-12.290322580841256,8.106382978739571
18.215903371917467,-60.64263870685889,-19.960477941176475,120.97451538565812,-125.03035524920466,124.97286512370309,-71.32158730158727,12.573942475730835,29.383030929139984,43.04091562340696,-8.260189250010555,-60.26274274142683,-45.35714285790311,88.08064516101932,1.6212765957608684
19.781831907398093,-56.093053735255566,-20.45073529411765,122.11074962721972,-125.55222693531283,124.16201117318434,-70.07174603174604,11.964084696890778,29.289254270731952,43.039571010850224,-8.26018785546243,-60.26274253626264,-45.35714285694593,88.0806451609885,1.621276595760849
19.781831907398093,-56.093053735255566,-20.45073529411765,122.11074962721972,-125.55222693531283,124.16201117318434,-70.07174603174604,36.34410685659842,38.190364252841015,30.123376330636003,22.715421254197047,35.36078650076079,-23.812500000307,-59.40322580666971,0.5404255319310531
19.781831907398093,-56.093053735255566,-20.45073529411765,122.11074962721972,-125.55222693531283,124.16201117318434,-70.07174603174604,14.529611382522784,32.926666341967035,75.32444316142423,15.487770389356047,75.20392339631813,1.1339285696594672,-68.62096774212745,1.6212765957608148
18.056114745848014,-50.766710353866316,-21.431250000000002,122.90267046224753,-125.8889183457052,123.19912210694329,-69.22507936507935,10.87211175198853,32.820384281804664,75.32200840545862,15.487763765188337,75.20392314406679,1.1339285690468373,-68.62096774210535,1.621276595760796
18.056114745848014,-50.766710353866316,-21.431250000000002,122.90267046224753,-125.8889183457052,123.19912210694329,-69.22507936507935,-34.00389118661202,0.590220944739575,-19.389326972018708,4.130034312147492,-54.28627240132731,-38.55357142887429,3.0725806449578332,-4.863829787217884
18.056114745848014,-50.766710353866316,-21.431250000000002,122.90267046224753,-125.8889183457052,123.19912210694329,-69.22507936507935,4.813531248949424,5.732633228334762,-41.98955137159618,14.455234094724396,18.42745283288305,-32.88392857138851,-52.23387096790456,-9.18723404253699
17.48087569199799,-45.107470511140235,-22.014889705882354,123.69459129727531,-126.09093319194062,122.13487629688743,-68.74126984126985,4.56998314878039,5.717844700359847,-41.98802498297823,14.455227819199255,18.4274527723426,-32.88392857085252,-52.23387096788797,-9.187234042536975
17.48087569199799,-45.107470511140235,-22.014889705882354,123.69459129727531,-126.09093319194062,122.13487629688743,-68.74126984126985,-7.803163374290088,-25.1360129940796,-24.766698499629314,6.19505948631209,54.28627602374935,-1.1180638637142692e-09,-19.45967741950972,1.621276595760803
17.48087569199799,-45.107470511140235,-22.014889705882354,123.69459129727531,-126.09093319194062,122.13487629688743,-68.74126984126985,-13.360882729157154,-17.336825984313464,-39.83307871016519,-34.07323402973706,8.466668276862418,-40.82142857035258,-60.42741935495623,7.0255319149096565
16.522143935581283,-43.55395369156837,-22.365073529411767,124.27992408838281,-126.19194061505834,121.17198723064641,-68.49936507936508,-19.326132984905506,-17.27359410575613,-39.831625069276804,-34.073223919185835,8.466668249955433,-40.82142856954859,-60.42741935493686,7.025531914909607
16.522143935581283,-43.55395369156837,-22.365073529411767,124.27992408838281,-126.19194061505834,121.17198723064641,-68.49936507936508,-0.8590653573929976,5.918860733848735,7.524278878393107,3.097515449497587,41.33725625900006,2.2678571426189187,50.18548387080304,5.944680851079782
16.522143935581283,-43.55395369156837,-22.365073529411767,124.27992408838281,-126.19194061505834,121.17198723064641,-68.49936507936508,-29.616531386746924,-10.800732063239872,-7.543191601349061,2.0649927518398803,44.32549139709815,5.669642856023003,-17.411290322710848,-9.187234042537142
16.010820332159035,-42.77719528178244,-21.15110294117647,124.79639419818352,-126.27611346765642,120.41181165203508,-68.37841269841272,-14.702063093532933,-10.759380652468987,-7.5428282112713045,2.0649906599928363,44.325491249110584,5.669642855257205,-17.411290322706023,-9.18723404253714
16.010820332159035,-42.77719528178244,-21.15110294117647,124.79639419818352,-126.27611346765642,120.41181165203508,-68.37841269841272,-2.571615675773903,4.701450712978671,-5.389989812274102,-10.32525451789849,-14.443135993457147,-15.875000001190362,-1.024193548520377,7.025531914909511
16.010820332159035,-42.77719528178244,-21.15110294117647,124.79639419818352,-126.27611346765642,120.41181165203508,-68.37841269841272,-16.52098598867207,-26.14851272434431,-44.134249385840114,-16.520373969088762,-14.44313594300711,-23.812500000690413,-54.28225806460876,-13.510638297856312
14.189229994967292,-40.77981651376147,-20.33400735294118,125.0718449234106,-126.29294803817604,119.90502793296088,-68.37841269841272,-22.589818892613657,-26.05522765781521,-44.13265044823321,-16.520369785417884,-14.443135892557072,-23.812500000460748,-54.2822580645915,-13.510638297856307
14.189229994967292,-40.77981651376147,-20.33400735294118,125.0718449234106,-126.29294803817604,119.90502793296088,-68.37841269841272,1.765338381339479,-14.397445701177634,-1.0815512364381874,-18.585406116088485,-77.19607663801467,-23.812500000231083,15.362903225694254,1.621276595760565
14.189229994967292,-40.77981651376147,-20.33400735294118,125.0718449234106,-126.29294803817604,119.90502793296088,-68.37841269841272,-17.572985005331418,-9.203696904701996,-41.978431244574125,-8.260198663435423,-42.333331489058246,-15.875000000539716,4.096774193438675,10.268085106398722
11.664569703069958,-41.667540410659676,-19.727022058823533,125.14070760471736,-126.2592788971368,119.95570630486827,-68.53968253968253,-11.190852066335525,-9.167260689186058,-41.97690504376021,-8.260197268885697,-42.33333134443436,-15.875000000578062,4.096774193436216,10.268085106398631
11.664569703069958,-41.667540410659676,-19.727022058823533,125.14070760471736,-126.2592788971368,119.95570630486827,-68.53968253968253,-2.2211242250782477,-7.8459408149591585,-21.526866225677928,-19.617918703210453,49.305883930721315,7.93749999776869,11.266129032137865,8.10638297873899
11.664569703069958,-41.667540410659676,-19.727022058823533,125.14070760471736,-126.2592788971368,119.95570630486827,-68.53968253968253,8.106847823490842,2.465698450210725,5.379907149132023,-21.682953987963458,-59.26666459525646,5.669642854222964,69.64516129015217,13.510638297887795
10.386260694514347,-40.89078200087374,-18.90992647058824,125.10627626406398,-126.17510604453872,120.56384676775735,-69.10412698412699,8.695407403007778,2.462852109810674,5.379834318057904,-21.68294806109684,-59.26666439345562,5.669642853457148,69.64516129012759,13.510638297887692
10.386260694514347,-40.89078200087374,-18.90992647058824,125.10627626406398,-126.17510604453872,120.56384676775735,-69.10412698412699,31.18318572456232,64.13819942457133,102.24113716587576,4.130064295028436,13.447060857571534,3.4017857099879834,-19.459677419505194,0.5404255319302735
10.386260694514347,-40.89078200087374,-18.90992647058824,125.10627626406398,-126.17510604453872,120.56384676775735,-69.10412698412699,-5.129823985033153,-0.32106751109357745,4.3001805394196975,-16.52034363751128,-14.44313509544439,-20.410714289086375,-13.314516129181852,-1.6212765957293276
12.367639657775545,-36.11926605504587,-19.003308823529416,125.48502101125118,-126.14143690349948,120.6652035115722,-69.70888888888891,-4.293121952118766,-0.31491368154810706,4.300144107284728,-16.520339453845516,-14.443135044994255,-20.410714288971597,-13.314516129178395,-1.6212765957293676
12.367639657775545,-36.11926605504587,-19.003308823529416,125.48502101125118,-126.14143690349948,120.6652035115722,-69.70888888888891,-6.881837759891169,-5.448630347171369,-44.13058016311486,-27.87805809905471,7.470590362756961,-11.339285718043447,2.048387096619577,0.5404255319301459
12.367639657775545,-36.11926605504587,-19.003308823529416,125.48502101125118,-126.14143690349948,120.6652035115722,-69.70888888888891,10.747380776988804,-0.2853108471349808,-8.613143539321644,-1.0325233939218004,12.45098246587275,-7.937500004179958,6.145161290163047,3.7829787234194288
11.82435832913941,-36.78505897771953,-18.839889705882356,125.79490307713161,-126.10776776246024,120.81723862729447,-70.1120634920635,9.0544994495678,-0.2792476417281118,-8.612743915642527,-1.0325244398567701,12.450982425512459,-7.937500004486353,6.145161290159924,3.782978723419369
11.82435832913941,-36.78505897771953,-18.839889705882356,125.79490307713161,-126.10776776246024,120.81723862729447,-70.1120634920635,-17.596838033096525,-9.267944490515196,-2.154919253567326,-5.162606514473106,30.38039404112577,-20.410714289661136,-25.60483870981854,-9.187234042538016
11.82435832913941,-36.78505897771953,-18.839889705882356,125.79490307713161,-126.10776776246024,120.81723862729447,-70.1120634920635,0.7889164174029917,1.0481481266071329,31.208625049138885,2.0650356343444436,24.40392338823397,4.5357142801903905,17.41129032241371,12.429787234057505
9.5553598389532,-40.33595456531236,-19.09669117647059,125.69160905517148,-126.04042948038176,121.27334397446126,-70.47492063492064,-4.019260396787671,1.0497545426232557,31.207680070996055,2.0650335424901805,24.40392330751346,4.535714279462827,17.41129032240678,12.429787234057404
9.5553598389532,-40.33595456531236,-19.09669117647059,125.69160905517148,-126.04042948038176,121.27334397446126,-70.47492063492064,-14.89949616806234,-6.658430882407091,4.300797420523045,14.455274536680903,-19.423527487809224,-38.55357143262823,-22.532258064665893,-8.106382978708456
9.5553598389532,-40.33595456531236,-19.09669117647059,125.69160905517148,-126.04042948038176,121.27334397446126,-70.47492063492064,-1.2874733079504066,10.073690938295803,21.520561098185983,13.422748003978587,-28.388233248529176,-27.214285718384154,-40.96774193561277,-1.6212765957298219
8.66054353296427,-41.44560943643513,-18.74650735294118,125.51945235190456,-125.97309119830331,122.03351955307261,-70.91841269841268,-0.01491467781405964,10.04483333999165,21.51994321372806,13.422742077087573,-28.38823315099218,-27.214285718039662,-40.96774193559999,-1.6212765957298716
8.66054353296427,-41.44560943643513,-18.74650735294118,125.51945235190456,-125.97309119830331,122.03351955307261,-70.91841269841268,11.70615531140218,12.585937594492984,23.67180035473679,15.487776664538327,11.454903959819507,-3.401785719310068,14.338709677273052,7.025531914908292
8.66054353296427,-41.44560943643513,-18.74650735294118,125.51945235190456,-125.97309119830331,122.03351955307261,-70.91841269841268,-15.97565524167133,-17.005664581005256,-18.302152982856036,-2.0650743315269997,-58.27058585040817,-54.4285714305948,-26.629032258184914,2.7021276595891033
8.340966280825368,-40.66885102664919,-18.559742647058826,125.27843296733087,-125.85524920466597,122.89505187549878,-71.44253968253969,-11.430980325706278,-16.943280706566934,-18.30142624971194,-2.065075028816936,-58.27058565197067,-54.42857142933139,-26.629032258177,2.7021276595890376
8.340966280825368,-40.66885102664919,-18.559742647058826,125.27843296733087,-125.85524920466597,122.89505187549878,-71.44253968253969,-15.559451603214098,-23.305829618286563,-20.45317454392286,-9.292717526299459,18.427453297020605,-21.544642858869516,-8.193548387215658,-4.863829787219467
8.340966280825368,-40.66885102664919,-18.559742647058826,125.27843296733087,-125.85524920466597,122.89505187549878,-71.44253968253969,8.871359777008314,16.611849076995775,41.96940028165022,10.325169103127232,46.317649145772506,-21.544642858716454,25.604838709533972,-3.782978723389731
9.74710619023654,-38.11664482306684,-18.46636029411765,125.34729564863764,-125.77107635206787,123.50319233838783,-72.08761904761906,0.8127483645720885,16.561022054543564,41.9680919288831,10.325164222158866,46.31764899105833,-21.544642858563392,25.604838709524245,-3.7829787233897774
9.74710619023654,-38.11664482306684,-18.46636029411765,125.34729564863764,-125.77107635206787,123.50319233838783,-72.08761904761906,-9.362487482771957,-1.4792127193517346,1.0697583120404652,16.520280884213637,-14.443135108899767,-13.607142858948633,3.0725806450158846,-0.5404255319004942
9.74710619023654,-38.11664482306684,-18.46636029411765,125.34729564863764,-125.77107635206787,123.50319233838783,-72.08761904761906,-14.026697317183254,-9.17893221427454,-20.454919221902426,86.731651398994,23.407845104161293,-24.946428572580295,-15.36290322593966,1.6212765957590012
9.299698037242077,-36.23023154215815,-17.83602941176471,125.34729564863764,-125.63639978791093,124.41540303272143,-73.05523809523811,-6.264787129249967,-9.142875855396648,-20.454119803707048,86.73162071867844,23.40784502680412,-24.946428572312374,-15.362903225935552,1.621276595758935
9.299698037242077,-36.23023154215815,-17.83602941176471,125.34729564863764,-125.63639978791093,124.41540303272143,-73.05523809523811,-6.908635506966672,-9.106898119104365,-20.453320399032762,33.04053666550799,39.34509975475682,-15.875000001231083,4.09677419340828,2.702127659588646
9.299698037242077,-36.23023154215815,-17.83602941176471,125.34729564863764,-125.63639978791093,124.41540303272143,-73.05523809523811,-0.6381994190717504,-10.355963317182702,-30.13865857565397,-45.431015430473586,-1.4941158150205256,-12.47321428721445,23.556451612745537,-5.94468085104964
11.217161550075494,-29.683267802533855,-17.299080882352943,125.89819709909176,-125.56906150583245,124.7701516360734,-73.90190476190475,-6.956434362928218,-10.315809030149504,-30.13753213678148,-45.43100148487399,-1.4941158082940036,-12.473214287367693,23.556451612736502,-5.94468085104968
11.217161550075494,-29.683267802533855,-17.299080882352943,125.89819709909176,-125.56906150583245,124.7701516360734,-73.90190476190475,-3.4923246063769597,-5.135895170829044,4.303194523996572,-37.17082548191364,18.427452705069857,1.133928568699119,15.362903225637055,11.348936170226708
11.217161550075494,-29.683267802533855,-17.299080882352943,125.89819709909176,-125.56906150583245,124.7701516360734,-73.90190476190475,-14.089928763367713,-5.113279734076516,-9.687929557591142,-32.008213039585705,10.45882524187445,-6.803571431375277,-26.62903225820757,0.5404255319288336
10.67388022143936,-40.89078200087374,-18.653125000000003,125.82933441778499,-125.55222693531283,124.92218675179566,-73.98253968253965,-7.852122048848511,-5.0907284800957155,-9.687493618905682,-32.00820362631093,10.458825208240768,-6.8035714317199645,-26.62903225819966,0.5404255319287687
10.67388022143936,-40.89078200087374,-18.653125000000003,125.82933441778499,-125.55222693531283,124.92218675179566,-73.98253968253965,5.365660446757887,12.921235121286132,33.362442613577535,-18.585430869822726,-47.31372349464121,-55.56250000018653,-21.508064516260244,-4.86382978722018
10.67388022143936,-40.89078200087374,-18.653125000000003,125.82933441778499,-125.55222693531283,124.92218675179566,-73.98253968253965,9.229520922747923,-3.8216013615911937,5.379249736105793,17.55278301209414,-9.46274317058967,-10.20535714481801,15.362903225652797,0.5404255319286608
7.254403623553099,-41.44560943643513,-19.890441176470592,125.48502101125118,-125.4175503711559,125.78371907422184,-74.46634920634921,6.003313739780204,-3.803480149516794,5.379176915174789,17.55277569065139,-9.462743136956343,-10.205357145047849,15.362903225646537,0.5404255319285969
7.254403623553099,-41.44560943643513,-19.890441176470592,125.48502101125118,-125.4175503711559,125.78371907422184,-74.46634920634921,-2.5456591267828403,11.634135661309962,8.607816618022856,-6.195197545709012,2.4901980006593956,-20.41071428744273,21.508064515958086,-0.5404255319012434
7.254403623553099,-41.44560943643513,-19.890441176470592,125.48502101125118,-125.4175503711559,125.78371907422184,-74.46634920634921,-4.016035012704666,2.605338015402939,8.60763477905267,26.845451381019952,-4.482350983390534,-30.616071429493022,14.338709677245646,-0.5404255319013025
11.728485153497738,-40.66885102664919,-19.70367647058824,125.72604039582484,-125.43438494167552,125.9357541899441,-74.70825396825398,-2.3694916256612935,2.601682609737298,8.60745294311344,26.84544092182076,-4.482350966573947,-30.61607142903368,14.33870967723973,-0.5404255319013602
11.728485153497738,-40.66885102664919,-19.70367647058824,125.72604039582484,-125.43438494167552,125.9357541899441,-74.70825396825398,4.205589701443967,7.737858784441401,1.0736085574955414,17.55274814808985,-4.482350949757358,-27.214285714519324,-28.677419354990853,-1.621276595731194
11.728485153497738,-40.66885102664919,-19.70367647058824,125.72604039582484,-125.43438494167552,125.9357541899441,-74.70825396825398,15.397469705972217,10.286735985697588,16.141006214015356,-2.065144059584371,-21.415684163582508,11.339285711781983,-6.145161290483619,8.106382978736747
10.897584297936591,-41.5565749235474,-20.56746323529412,125.6571777145181,-125.36704665959704,125.9357541899441,-74.8695238095238,10.340376651868713,10.25702243887982,16.14057000190399,-2.0651447568625927,-21.41568408958897,11.339285710824697,-6.14516129048263,8.10638297873666
10.897584297936591,-41.5565749235474,-20.56746323529412,125.6571777145181,-125.36704665959704,125.9357541899441,-74.8695238095238,-9.582387831660132,1.2325985012575247,-1.079666323358694,-100.15456988532738,8.466668744360588,-7.937500003110994,-2.048387096936433,3.782978723417463
10.897584297936591,-41.5565749235474,-20.56746323529412,125.6571777145181,-125.36704665959704,125.9357541899441,-74.8695238095238,0.8061424027559396,2.5182766620095123,5.377903966597329,1.0324477408796513,11.454903993449252,-15.875000002879085,-17.411290322731347,4.863829787247166
10.80171112229492,-40.77981651376147,-20.40404411764706,125.58831503321133,-125.28287380699894,126.03711093375895,-75.19206349206348,3.3900015542510573,2.5146312863397426,5.377831168051598,1.032445997676625,11.454903956452265,-15.875000002917467,-17.41129032272655,4.86382978724709
10.80171112229492,-40.77981651376147,-20.40404411764706,125.58831503321133,-125.28287380699894,126.03711093375895,-75.19206349206348,-16.30136288936336,-32.18302089938997,-44.12916697568206,-75.37405477613467,-17.43137041516887,-4.0324543704173266e-09,-25.604838709812174,-8.106382978710313
10.80171112229492,-40.77981651376147,-20.40404411764706,125.58831503321133,-125.28287380699894,126.03711093375895,-75.19206349206348,1.5629239853552948,1.3394792362078993,3.2268822058839266,-55.75614583374975,17.43137453198662,-11.339285718123577,6.145161290170714,0.5404255319278697
13.709864116758936,-38.560506771515946,-19.960477941176475,125.82933441778499,-125.26603923647932,125.4796488427773,-75.27269841269839,-5.861999073033912,1.3399234710402994,3.2268820629684645,-55.75612840176366,17.43137447480953,-11.33928571831511,6.145161290167536,0.5404255319278068
13.709864116758936,-38.560506771515946,-19.960477941176475,125.82933441778499,-125.26603923647932,125.4796488427773,-75.27269841269839,-14.33569158797654,-7.654397914035295,-11.840443185407207,-3.0975778540908294,-30.380389998297197,-29.482142860133386,32.77419354820819,1.6212765957575213
13.709864116758936,-38.560506771515946,-19.960477941176475,125.82933441778499,-125.26603923647932,125.4796488427773,-75.27269841269839,-0.1311698053104977,7.795915623746882,20.447190659448097,-38.20326694653687,23.407845073887298,7.937499994892818,-16.387096774346436,-1.6212765957318749
11.504781077000507,-40.33595456531236,-20.56746323529412,125.51945235190456,-125.13136267232238,125.07422186751793,-75.35333333333335,0.9938097487805968,7.774532543749747,20.44660906559643,-38.20325544143434,23.407844996530102,7.937499994050391,-16.387096774341998,-1.62127659573193
11.504781077000507,-40.33595456531236,-20.56746323529412,125.51945235190456,-125.13136267232238,125.07422186751793,-75.35333333333335,-18.74593085744948,-11.52128055444241,-19.37476029708867,43.365856380126736,26.396080195168498,-26.080357147342173,-82.95967741944715,-13.510638297859531
11.504781077000507,-40.33595456531236,-20.56746323529412,125.51945235190456,-125.13136267232238,125.07422186751793,-75.35333333333335,8.505885244342112,7.796878303136411,-3.230434673282236,-32.008138430762145,9.462746877079498,-22.67857143298096,9.2177419353469,8.10638297873599
10.67388022143936,-43.99781564001747,-20.380698529411767,125.27843296733087,-125.08085896076352,125.07422186751793,-75.27269841269839,6.469863069913382,7.775414378317262,-3.230216777438965,-32.008129017499996,9.462746846809171,-22.678571432789624,9.217741935342705,8.106382978735894
10.67388022143936,-43.99781564001747,-20.380698529411767,125.27843296733087,-125.08085896076352,125.07422186751793,-75.27269841269839,9.947112137482208,6.468998203621951,-1.0775238702580943,127.0,31.376472173839918,-10.205357147729906,-1.3820189437296904e-10,5.944680851076248
10.73779567186714,-45.773263433813895,-19.77371323529412,125.10627626406398,-125.04718981972428,125.37829209896245,-75.3936507936508,1.874711451019973,6.451894941761542,-1.077378662139095,126.99995572271982,31.376472069575893,-10.205357147959733,-1.3928325159895394e-10,5.94468085107616
10.73779567186714,-45.773263433813895,-19.77371323529412,125.10627626406398,-125.04718981972428,125.37829209896245,-75.3936507936508,-6.465353195829293,1.2949459797954046,3.2277165736031734,-73.30901844560778,23.407844562656933,-19.27678571900293,-12.29032258077598,1.621276595756965
10.73779567186714,-45.773263433813895,-19.77371323529412,125.10627626406398,-125.04718981972428,125.37829209896245,-75.3936507936508,-9.85403148071778,6.435059122819855,-20.44950874949038,-101.18704203033964,31.376471887954636,-3.40178572000306,44.04032258047367,-0.5404255319026605
10.80171112229492,-45.440366972477065,-19.26011029411765,124.96855090145044,-125.04718981972428,125.73304070231441,-75.3936507936508,-2.8309669381746696,6.417943051789212,-20.448709423905786,-101.18700925819864,31.376471783690608,-3.401785720462616,44.04032258045771,-0.540425531902724
10.80171112229492,-45.440366972477065,-19.26011029411765,124.96855090145044,-125.04718981972428,125.73304070231441,-75.3936507936508,13.159587496968356,11.540684617025056,4.305552561323655,-8.260153340728479,0.49804049413868684,-3.4017857209221702,13.314516128852706,4.863829787246097
10.80171112229492,-45.440366972477065,-19.26011029411765,124.96855090145044,-125.04718981972428,125.73304070231441,-75.3936507936508,-6.967364749158427,7.651340508777472,43.05006630769455,-22.715435546571822,25.400001127435154,-2.2678571500300517,-51.20967741948987,-9.187234042541087
10.993457473578262,-44.774574049803405,-19.563602941176473,124.96855090145044,-125.04718981972428,126.08778930566638,-75.51460317460317,-8.118875776350844,7.629939814338859,43.04872153853897,-22.71542927107189,25.400001043351207,-2.2678571505278935,-51.209677419473664,-9.187234042541126
10.993457473578262,-44.774574049803405,-19.563602941176473,124.96855090145044,-125.04718981972428,126.08778930566638,-75.51460317460317,-0.3566555674945211,28.167960090072036,47.35232682216359,20.650427805583206,8.466667728625513,-48.75892857644425,-102.41935483877249,-9.187234042541172
10.993457473578262,-44.774574049803405,-19.563602941176473,124.96855090145044,-125.04718981972428,126.08778930566638,-75.51460317460317,4.00871074794037,21.652364326781726,11.834998989285634,34.07318278142172,-19.423528207573785,-15.875000006173845,15.362903225685727,11.34893617022454
10.226472068444895,-43.11009174311926,-19.61029411764706,124.89968822014367,-125.03035524920466,126.44253790901831,-75.63555555555553,2.2508389550716927,21.58341803865881,11.834708154617594,34.07316988172838,-19.42352814030702,-15.875000006212247,15.36290322567951,11.348936170224418
10.226472068444895,-43.11009174311926,-19.61029411764706,124.89968822014367,-125.03035524920466,126.44253790901831,-75.63555555555553,-25.437734227803332,-11.894449116156341,-50.58735811191484,2.065029009755251,-12.450979095717186,-9.071428578140623,-3.072580645280128,-1.6212765957330282
10.226472068444895,-43.11009174311926,-19.61029411764706,124.89968822014367,-125.03035524920466,126.44253790901831,-75.63555555555553,20.85498011327597,15.133847630183766,16.141184258108847,14.455270003946712,17.43137370796215,-1.1339285789470548,14.33870967728701,2.7021276595860044
11.185203824861604,-47.54871122761031,-20.263970588235296,124.89968822014367,-125.11452810180276,126.645251396648,-75.43396825396826,14.77372836693836,15.086732357062294,16.140748041927196,14.45526372841552,17.43137365078498,-1.1339285794832001,14.338709677281138,2.702127659585914
11.185203824861604,-47.54871122761031,-20.263970588235296,124.89968822014367,-125.11452810180276,126.645251396648,-75.43396825396826,1.6702175047276233,31.744207129780452,37.66506198367589,29.94306131044116,-27.392155546326205,-43.08928572003118,-73.74193548394663,0.5404255319262694
11.185203824861604,-47.54871122761031,-20.263970588235296,124.89968822014367,-125.11452810180276,126.645251396648,-75.43396825396826,-15.688365737825864,-21.04262818491125,-15.071738889600798,-6.1951591956494045,-17.431371198833986,-48.75892857590903,-7.169354838813165,12.429787234053734
10.833668847508811,-48.32546963739624,-20.310661764705884,124.8308255388369,-125.16503181336162,126.99999999999997,-75.35333333333335,-10.18266891963649,-20.967928305250176,-15.071121207479973,-6.195158498379245,-17.43137113829392,-48.758928574837086,-7.169354838811738,12.429787234053606
10.833668847508811,-48.32546963739624,-20.310661764705884,124.8308255388369,-125.16503181336162,126.99999999999997,-75.35333333333335,-4.3306928997979925,4.805895817651898,7.53048412231079,15.48776759946891,25.40000121151643,-10.205357147808343,29.70161290309653,2.7021276595854884
10.833668847508811,-48.32546963739624,-20.310661764705884,124.8308255388369,-125.16503181336162,126.99999999999997,-75.35333333333335,-10.803092350210093,-4.20117893983033,12.911526178235256,2.064997632086646,25.40000112743247,-30.61607143236828,-27.653225806547372,-3.782978723393266
12.111977856064422,-43.66491917868065,-21.59466911764706,124.8308255388369,-125.18186638388124,126.54389465283316,-75.07111111111112,-13.813372773685318,-4.1831274880766705,12.911198998236335,2.064995540238769,25.40000104334851,-30.616071431908956,-27.65322580653903,-3.782978723393337
12.111977856064422,-43.66491917868065,-21.59466911764706,124.8308255388369,-125.18186638388124,126.54389465283316,-75.07111111111112,-12.364558936549853,-14.444813692101757,-11.842590849462123,-10.325249637653389,-47.31372408996175,-27.214285717394613,82.95967741918986,0.5404255319256963
12.111977856064422,-43.66491917868065,-21.59466911764706,124.8308255388369,-125.18186638388124,126.54389465283316,-75.07111111111112,-13.00728586579455,-11.822200619679203,5.377717925204635,-44.39841603244492,-21.415684869892658,-22.678571431643462,22.532258064369053,7.025531914904267
11.376950176144945,-42.222367846221054,-21.501286764705885,124.62423749491663,-125.09769353128314,126.1384676775738,-74.99047619047616,-10.155958907344866,-11.778289236217468,5.377645128542769,-44.39840243549852,-21.415684795899185,-22.678571431452145,22.532258064360445,7.025531914904152
11.376950176144945,-42.222367846221054,-21.501286764705885,124.62423749491663,-125.09769353128314,126.1384676775738,-74.99047619047616,-16.763247543825933,-13.019426614854915,-17.223415325054386,21.682907620350296,51.2980403273206,-6.803571432337433,-4.096774193692009,-9.187234042542618
11.376950176144945,-42.222367846221054,-21.501286764705885,124.62423749491663,-125.09769353128314,126.1384676775738,-74.99047619047616,11.976658469516051,-6.546537312689475,-34.44252509688395,-16.520350610963522,-26.396077020096058,3.401785709482894,3.0725806450124784,4.863829787244423
11.88827377956719,-45.32940148536479,-21.501286764705885,124.48651213230309,-125.08085896076352,125.83439744612926,-74.82920634920634,7.422653091381989,-6.5202525556911795,-34.44125331769999,-16.520346427296577,-26.396076929285815,3.4017857087935894,3.072580645010434,4.863829787244314
11.88827377956719,-45.32940148536479,-21.501286764705885,124.48651213230309,-125.08085896076352,125.83439744612926,-74.82920634920634,23.725859150345126,38.47966430198682,57.0402065800229,12.390224957140475,-19.42352786115249,-43.08928571731424,-16.387096774331333,12.429787234052645
11.88827377956719,-45.32940148536479,-21.501286764705885,124.48651213230309,-125.08085896076352,125.83439744612926,-74.82920634920634,-20.518503708704664,19.07953034958942,6.45522655043163,21.682901693423283,35.36078559936702,-12.473214289938635,-45.06451612914325,-10.268085106372807
13.550075490689485,-39.781127129750985,-21.454595588235296,124.6931001762234,-125.08085896076352,125.02354349561051,-74.70825396825398,-10.889602621974525,19.019120523905016,6.455117391934326,21.68289297741477,35.36078548164962,-12.473214290091917,-45.06451612912905,-10.26808510637286
13.550075490689485,-39.781127129750985,-21.454595588235296,124.6931001762234,-125.08085896076352,125.02354349561051,-74.70825396825398,0.6953571861383496,-15.73518666193516,-24.755879483131054,-7.227682939363082,21.41568740928609,19.276785707601583,12.29032258051803,-0.5404255319049214
13.550075490689485,-39.781127129750985,-21.454595588235296,124.6931001762234,-125.08085896076352,125.02354349561051,-74.70825396825398,12.132577430397575,7.451069163879504,9.684665466975632,-5.162641379111659,-42.33333188258391,35.151785705299616,57.35483870951013,27.56170212766919
13.518117765475594,-32.568370467453036,-22.15496323529412,124.76196285753016,-124.89567868504773,123.8579409417398,-74.99047619047616,3.8166893081051994,7.429794801722774,9.68444727567427,-5.162641030480915,-42.33333173796005,35.15178570353825,57.354838709489755,27.561702127669
13.518117765475594,-32.568370467453036,-22.15496323529412,124.76196285753016,-124.89567868504773,123.8579409417398,-74.99047619047616,-21.739092094561098,-17.005741059587777,-30.136558690597774,-32.00816736828027,-65.24313537596912,-36.28571429337839,-51.20967741947859,-4.863829787224497
13.518117765475594,-32.568370467453036,-22.15496323529412,124.76196285753016,-124.89567868504773,123.8579409417398,-74.99047619047616,19.052402703238975,51.15850151286418,58.1160433279974,-1.0325502399015583,-44.32548822201896,-66.90178571922277,-47.11290322591711,-7.025531914884132
12.623301459486667,-32.12450851900393,-22.761948529411768,124.62423749491663,-124.65999469777307,122.64166001596166,-75.31301587301584,14.819016772488297,50.98965799733207,58.11418981865553,-1.032551285831973,-44.32548807066835,-66.90178571753826,-47.11290322590222,-7.025531914884205
12.623301459486667,-32.12450851900393,-22.761948529411768,124.62423749491663,-124.65999469777307,122.64166001596166,-75.31301587301584,-49.58627053185622,-73.82027668821765,-81.79853963833581,-37.170761332725725,10.458825473934963,13.607142850114894,-19.45967741945718,-14.591489361692716
12.623301459486667,-32.12450851900393,-22.761948529411768,124.62423749491663,-124.65999469777307,122.64166001596166,-75.31301587301584,124.50254156300619,126.8864958190947,54.88649458924976,32.00810705415536,-51.29803693027439,-24.946428576875835,93.20161290304152,28.642553191498322
12.783090085556118,-31.90257754477938,-23.018750000000004,124.62423749491663,-124.44114528101804,121.47605746209095,-75.67587301587304,89.26578442868728,126.46181840737027,54.88475011433636,32.00809485174773,-51.2980367553803,-24.94642857660797,93.201612903009,28.642553191498134
12.783090085556118,-31.90257754477938,-23.018750000000004,124.62423749491663,-124.44114528101804,121.47605746209095,-75.67587301587304,-25.845132349590106,19.385982653366543,93.62755593992755,-20.65045046634754,16.435296342080775,-10.205357148768385,9.217741935299772,2.7021276595832955
12.783090085556118,-31.90257754477938,-23.018750000000004,124.62423749491663,-124.44114528101804,121.47605746209095,-75.67587301587304,-27.752423168076458,0.04848421484092191,5.373027661393973,-70.21141723229647,-3.486272218370217,-39.68750000414171,-14.338709677589337,3.7829787234129726
10.609964771011578,-16.589340323285278,-24.396139705882355,124.48651213230309,-123.90243902439025,119.90502793296088,-76.88539682539681,-1.3548905834040121,0.05065583901314552,5.3729549432662544,-70.2113949193543,-3.4862722049168777,-39.68750000337611,-14.338709677585564,3.7829787234128696
10.609964771011578,-16.589340323285278,-24.396139705882355,124.48651213230309,-123.90243902439025,119.90502793296088,-76.88539682539681,-47.793280327445295,-46.205791133819744,48.422382527559755,-59.88617003471202,101.10196246838251,30.616071421193112,28.67741935464286,-15.672340425523213
10.609964771011578,-16.589340323285278,-24.396139705882355,124.48651213230309,-123.90243902439025,119.90502793296088,-76.88539682539681,-29.040360354533632,-127.0,-74.27021965212194,-17.552820664190193,1.4941195954974362,1.1339285644414545,-36.87096774209118,-16.753191489353014
8.43683945646704,-9.709480122324159,-25.77352941176471,123.55686593466177,-123.04387592788973,117.77653631284915,-78.37714285714287,-63.63266126284304,-126.5684604792331,-74.2676031717492,-17.552816131891834,1.494119592134001,1.1339285638287144,-36.87096774207982,-16.75319148935302
8.43683945646704,-9.709480122324159,-25.77352941176471,123.55686593466177,-123.04387592788973,117.77653631284915,-78.37714285714287,24.762547198427303,127.0,13.98648888189453,-44.39833828602426,55.282354556691395,48.758928559986146,23.556451612723333,18.91489361702962
8.43683945646704,-9.709480122324159,-25.77352941176471,123.55686593466177,-123.04387592788973,117.77653631284915,-78.37714285714287,-127.0,-95.72319928602472,-106.55247546090706,30.975654084347255,90.14509925832243,-9.071428581169908,-10.24193548403365,-22.157446808502026
4.569954705586314,-16.700305810397552,-28.645036764705885,121.04337806696489,-121.74761399787911,115.59736632082999,-79.86888888888888,-68.03227085240569,-95.3965235731856,-106.54876885865173,30.975642230568134,90.14509895562085,-9.071428581438063,-10.241935484031274,-22.157446808502012
4.569954705586314,-16.700305810397552,-28.645036764705885,121.04337806696489,-121.74761399787911,115.59736632082999,-79.86888888888888,-46.66356663033824,-96.35537444751458,-2.1500240886114073,88.79676477833263,-24.40392026024548,-73.70535714875149,-11.266129032415199,-22.157446808502
4.569954705586314,-16.700305810397552,-28.645036764705885,121.04337806696489,-121.74761399787911,115.59736632082999,-79.86888888888888,71.51520424622092,41.46550342376646,-2.1498426051281783,75.37397005751006,-28.388233877489395,3.401785705076392,6.145161290154647,18.914893617029527
-1.5339708102667302,-11.59589340323285,-32.216911764705884,117.60024400162666,-120.09782608695653,113.51955307262565,-81.72349206349207,26.95462138233842,41.33053289691913,-2.1496611247734734,75.37394321222607,-28.388233779952433,3.4017857043870556,6.145161290151487,18.914893617029385
-1.5339708102667302,-11.59589340323285,-32.216911764705884,117.60024400162666,-120.09782608695653,113.51955307262565,-81.72349206349207,-16.062625249975127,-2.4929683462537424,-53.80888000899148,-65.04883860822594,-70.22352754635388,-37.419642864962455,6.145161290148328,-1.6212765957365187
-1.5339708102667302,-11.59589340323285,-32.216911764705884,117.60024400162666,-120.09782608695653,113.51955307262565,-81.72349206349207,-80.91125158953116,-47.45371005549925,-20.44359147478827,1.0324784204254556,-87.15686053819798,-69.16964286212021,-29.701612903375377,-9.187234042545025
3.739053850025167,-3.495412844036693,-40.154411764705884,113.26189507930053,-118.11134676564157,107.23543495610531,-82.0057142857143,-49.72765309396256,-47.288950583509944,-20.44279225092219,1.0324766772173053,-87.15686024222333,-69.16964286035915,-29.701612903366424,-9.187234042545068
3.739053850025167,-3.495412844036693,-40.154411764705884,113.26189507930053,-118.11134676564157,107.23543495610531,-82.0057142857143,54.012458438704115,-0.8658493989780487,-72.10139340207425,-29.943132781102133,26.396080541584205,-37.41964286075128,2.0483870966178817,15.672340425539755
3.739053850025167,-3.495412844036693,-40.154411764705884,113.26189507930053,-118.11134676564157,107.23543495610531,-82.0057142857143,-21.380070833927142,-5.997770510108307,51.668463487272334,-8.26019866453565,46.31764896077441,-13.60714286167715,-10.24193548401949,-12.42978723403458
5.464771011575243,-3.939274792485797,-49.65606617647059,106.20347024535718,-115.2663043478261,96.74501197126892,-80.59460317460315,-12.961565222840251,-5.972540961023556,51.66682785162172,-8.260197269985918,46.31764880606027,-13.60714286179215,-10.241935484017095,-12.429787234034617
5.464771011575243,-3.939274792485797,-49.65606617647059,106.20347024535718,-115.2663043478261,96.74501197126892,-80.59460317460315,66.18702674723032,45.45111013109267,54.8939047660913,109.44711344198758,-66.23921341115488,-43.0892857170506,-16.387096774332512,9.187234042560881
5.464771011575243,-3.939274792485797,-49.65606617647059,106.20347024535718,-115.2663043478261,96.74501197126892,-80.59460317460315,0.622094522349502,17.033440974008776,4.308997311177945,-74.34153068473645,12.45098241540693,1.133928566545059,2.0483870966253805,0.5404255319225533
8.884247609461504,31.347750109217998,-52.901102941176475,98.21539921377254,-111.34384941675503,82.5550678371907,-79.58666666666664,-1.580399786524922,16.980619976075936,4.308960726101668,-74.3415069772293,12.45098237504665,1.1339285659323224,2.048387096623623,0.5404255319224713
8.884247609461504,31.347750109217998,-52.901102941176475,98.21539921377254,-111.34384941675503,82.5550678371907,-79.58666666666664,-4.2904413343695404,23.352669428931648,127.0,-34.07319324008108,33.368629266655574,-63.500000001725674,-69.64516129041922,-12.429787234034933
8.884247609461504,31.347750109217998,-52.901102941176475,98.21539921377254,-111.34384941675503,82.5550678371907,-79.58666666666664,30.31956275771548,18.138421014828495,37.66810751516614,-9.292696957447387,2.490197970377052,5.669642852295919,-45.06451612912553,2.702127659581909
4.410166079516863,57.091743119266056,-63.87352941176471,91.94889521485698,-107.53923647932132,67.35155626496405,-78.6593650793651,35.19946402029132,18.081478588332853,37.666944457392006,-9.292695214261428,2.490197963650239,5.669642851530014,-45.064516129111354,2.702127659581821
4.410166079516863,57.091743119266056,-63.87352941176471,91.94889521485698,-107.53923647932132,67.35155626496405,-78.6593650793651,-3.5480981653201615,-21.80923332061692,-69.95796933379442,102.21949430332593,8.466668508914626,-31.750000003841045,-36.87096774200677,1.6212765957519557
4.410166079516863,57.091743119266056,-63.87352941176471,91.94889521485698,-107.53923647932132,67.35155626496405,-78.6593650793651,-24.5003011894677,1.397801707100241,9.686077218759618,103.25197865057628,20.41960958599011,-14.741071433068397,20.483870967637518,-2.7021276595672354
-9.363613487669852,60.97553516819572,-79.86525735294117,83.51321675477834,-102.84239130434784,50.67837190742216,-76.56285714285713,-31.573578949187812,1.3972542943811677,9.685859002022287,103.25194239202246,20.419609518722996,-14.741071433145134,20.483870967629557,-2.702127659567301
-9.363613487669852,60.97553516819572,-79.86525735294117,83.51321675477834,-102.84239130434784,50.67837190742216,-76.56285714285713,6.936001458924453,34.80571274788176,38.74405349223203,81.56898073289668,-38.349017643124284,-51.02678571647535,-5.120967742035941,17.834042553198397
-9.363613487669852,60.97553516819572,-79.86525735294117,83.51321675477834,-102.84239130434784,50.67837190742216,-76.56285714285713,-48.40798437677225,-21.84604584754014,-24.75515884526317,48.52830356633989,14.443139030635178,-26.08035714559012,11.266129032145557,5.944680851070714
-23.712632108706586,51.21057230231543,-95.62352941176471,71.39338484478787,-96.78194591728527,32.535514764564994,-72.49079365079365,-31.07878397995674,-21.76836907477596,-24.75421415006857,48.528285785716015,14.443138983548174,-26.080357145283983,11.266129032140695,5.9446808510706175
-23.712632108706586,51.21057230231543,-95.62352941176471,71.39338484478787,-96.78194591728527,32.535514764564994,-72.49079365079365,16.673319516042145,-31.970549418322044,21.52494335292045,-34.07335256853572,27.392158465775438,-1.1339285752410753,22.53225806438515,8.106382978730075
-23.712632108706586,51.21057230231543,-95.62352941176471,71.39338484478787,-96.78194591728527,32.535514764564994,-72.49079365079365,12.44035921581489,6.690402291403184,33.36293797296364,56.7884401730296,23.40784467363742,-39.68750000173408,-36.87096774202901,-22.15744680850378
-49.023150478107695,36.56312800349498,-112.10551470588236,54.24657719940353,-88.66768292682929,14.798084596967271,-66.7657142857143,6.412499507188297,6.672089063588392,33.36192027903195,56.78841960329111,23.407844596280274,-39.6875000009685,-36.870967742017626,-22.157446808503778
-49.023150478107695,36.56312800349498,-112.10551470588236,54.24657719940353,-88.66768292682929,14.798084596967271,-66.7657142857143,8.65720514824904,-1.0560000002742558,-39.823247909803946,-28.910782311585958,-22.41176304634277,-2.267857145597766,29.701612903103346,10.268085106389522
-49.023150478107695,36.56312800349498,-112.10551470588236,54.24657719940353,-88.66768292682929,14.798084596967271,-66.7657142857143,10.573086663905329,-25.46257054495559,-71.0326821583642,-71.24410448819454,-3.486272887680372,-22.678571430425755,-2.0483870968830997,3.782978723410734
-74.10996477101158,16.589340323285278,-122.30753676470589,33.243459400840436,-78.66794803817604,-0.4054269752593882,-59.91174603174602,14.500248048673107,-25.37245879863102,-71.03017484910718,-71.24408182658425,-3.4862728742270823,-22.678571430234488,-2.048387096883482,3.78297872341063
-74.10996477101158,16.589340323285278,-122.30753676470589,33.243459400840436,-78.66794803817604,-0.4054269752593882,-59.91174603174602,18.801337973661376,24.831008265793443,-2.148467100320845,-42.33349196420701,-65.24313523134957,-23.81250000139489,-5.120967742042769,-3.7829787233979113
-74.10996477101158,16.589340323285278,-122.30753676470589,33.243459400840436,-78.66794803817604,-0.4054269752593882,-59.91174603174602,30.454621874841408,11.901901977722568,-4.300760659827447,-90.86193115152878,-21.415684294766443,-32.8839285719787,3.072580645048296,1.6212765957508941
-85.42299949672874,12.59458278724334,-127.0,11.345126745289406,-67.35511664899258,-13.987230646448552,-52.09015873015875,23.200900567948953,11.865910132234369,-4.300506527131634,-90.86190186577089,-21.415684220772835,-32.88392857144285,3.072580645046182,1.6212765957507962
-85.42299949672874,12.59458278724334,-127.0,11.345126745289406,-67.35511664899258,-13.987230646448552,-52.09015873015875,-8.080144769788426,-8.729456359700064,-18.291339996691068,8.260072108339147,9.462747038508658,-2.2678571444118774,-3.07258064527374,5.944680851069806
-85.42299949672874,12.59458278724334,-127.0,11.345126745289406,-67.35511664899258,-13.987230646448552,-52.09015873015875,22.43544913707683,20.858170678095963,55.969774568657705,7.227547667489748,0.4980411802516412,-14.741071429778174,3.072580645044029,3.782978723410139
-99.38852541519879,21.249890782000875,-126.97665441176471,-10.51877456960824,-54.61134676564157,-24.93375897845175,-44.712063492063464,17.096204265290083,20.791775858381015,55.96799363248886,7.227543832451312,0.49804118025157174,-14.741071429854923,3.0725806450419153,3.782978723410033
-99.38852541519879,21.249890782000875,-126.97665441176471,-10.51877456960824,-54.61134676564157,-24.93375897845175,-44.712063492063464,-9.446473267166247,-21.678303413843828,-21.52288781584247,-70.21147929036545,10.458825433570174,-4.535714287766632,-2.0483870968917053,2.7021276595801504
-99.38852541519879,21.249890782000875,-126.97665441176471,-10.51877456960824,-54.61134676564157,-24.93375897845175,-44.712063492063464,14.61145180174326,5.382865874851722,18.29873557662868,-52.658612605516176,5.478433273277276,-3.401785716836301,2.0483870966531166,5.944680851069379
-112.74685455460492,41.33464394932285,-122.54099264705883,-31.31530432425103,-40.53764581124072,-32.99162011173189,-38.98698412698411,13.656765678032485,5.368544654998081,18.298226591167143,-52.65859621944493,5.478433256460459,-3.401785717295926,2.04838709665135,5.944680851069267
-112.74685455460492,41.33464394932285,-122.54099264705883,-31.31530432425103,-40.53764581124072,-32.99162011173189,-38.98698412698411,-0.7177416828934278,4.069255983408496,-7.531982566483546,-53.691100090546826,-20.41960581898491,-17.008928573975606,-3.072580645281925,-0.5404255319095084
-112.74685455460492,41.33464394932285,-122.54099264705883,-31.31530432425103,-40.53764581124072,-32.99162011173189,-38.98698412698411,-8.452484638632704,-1.0805860053233922,-18.293994446840347,-68.14636695622663,-20.419605748354638,-18.14285714532745,-4.096774193668265,3.78297872340951
-121.43935581278308,60.97553516819572,-117.28823529411765,-50.21811034295786,-25.470705196182394,-38.667597765363155,-34.552063492063496,-11.354912748936073,-1.073233337589369,-18.29326785669944,-68.14634534056577,-20.419605677724366,-18.142857145289337,-4.096774193667959,3.782978723409405
-121.43935581278308,60.97553516819572,-117.28823529411765,-50.21811034295786,-25.470705196182394,-38.667597765363155,-34.552063492063496,-1.2739870488188343,11.783705332446418,54.89160923315265,42.33334379232276,-5.478429227116089,-20.410714287954566,-3.072580645281351,-1.6212765957395838
-121.43935581278308,60.97553516819572,-117.28823529411765,-50.21811034295786,-25.470705196182394,-38.667597765363155,-34.552063492063496,-21.19815801329715,-13.95166424766879,8.611651845372474,13.422760902739977,-3.4862723562723175,-36.28571428676327,-11.2661290323718,-11.348936170207663
-127.0,78.84097859327217,-118.59558823529412,-66.2631150874339,-10.336426299045598,-43.3806863527534,-30.278412698412694,-13.742868904423968,-13.900971279954575,8.611469936763704,13.422754975846868,-3.4862723428189772,-36.28571428611256,-11.266129032369072,-11.348936170207713
-127.0,78.84097859327217,-118.59558823529412,-66.2631150874339,-10.336426299045598,-43.3806863527534,-30.278412698412694,2.0819222461792997,-9.995506126407303,0.0013879709272082152,84.66664679371138,-10.458821306688705,-17.008928572483434,2.048387096655574,1.6212765957495558
-127.0,78.84097859327217,-118.59558823529412,-66.2631150874339,-10.336426299045598,-43.3806863527534,-30.278412698412694,8.411802676272195,1.606600924812954,12.916346879818448,-6.195165820324433,-22.41176237367432,-36.28571428546202,-6.145161290436604,4.863829787238785
-125.6577755410166,94.37614678899082,-115.70073529411765,-79.9323573268266,5.067205726405092,-47.384277733439774,-25.84349206349208,1.9405371454993956,1.6048982490902313,12.916019614784032,-6.195165123053087,-22.411762296317335,-36.28571428481131,-6.145161290435606,4.8638297872386715
-125.6577755410166,94.37614678899082,-115.70073529411765,-79.9323573268266,5.067205726405092,-47.384277733439774,-25.84349206349208,-34.47058185404218,-33.090827018581635,-68.87835821706642,-56.788657027130775,49.3058844049341,-13.607142857127174,1.0241935482695022,-8.106382978718765
-125.6577755410166,94.37614678899082,-115.70073529411765,-79.9323573268266,5.067205726405092,-47.384277733439774,-25.84349206349208,1.5591493477269056,1.718546893137998,-37.66503590221856,-34.0731935887578,-2.490193877127165,-14.741071428593887,-1.024193548504523,1.6212765957491642
-121.18369401107196,105.47269550021845,-108.46360294117648,-90.81266097329535,20.150980911983034,-50.47565841979252,-21.89238095238096,-0.026227986662963332,1.7165476791232595,-37.663655210952435,-34.07318347821336,-2.4901938670371675,-14.74107142867064,-1.0241935485052545,1.6212765957490642
-121.18369401107196,105.47269550021845,-108.46360294117648,-90.81266097329535,20.150980911983034,-50.47565841979252,-21.89238095238096,-7.388505330847285,0.429550670383382,-6.451386824702038,-40.26829491069293,14.443139373694573,-17.008928571450735,-8.193548387210097,0.5404255319191875
-121.18369401107196,105.47269550021845,-108.46360294117648,-90.81266097329535,20.150980911983034,-50.47565841979252,-21.89238095238096,2.2878362079915036,10.711521592610271,18.302402628940257,15.487811178888158,53.29019791455045,-5.669642857934205,-16.38709677429882,1.621276595748869
-114.31278309008555,121.0078636959371,-104.4014705882353,-99.31720211468075,34.98223753976671,-53.41500399042303,-17.578412698412706,0.1321135860957794,10.679039324320366,18.30189358059136,15.487804554713627,53.290197736292875,-5.669642858317264,-16.387096774294363,1.6212765957487696
-114.31278309008555,121.0078636959371,-104.4014705882353,-99.31720211468075,34.98223753976671,-53.41500399042303,-17.578412698412706,-1.9835512928204948,11.93153868494259,29.063759616058267,-3.0975666985267347,-5.478429536544867,-7.93750000140367,16.387096774071733,2.702127659578447
-114.31278309008555,121.0078636959371,-104.4014705882353,-99.31720211468075,34.98223753976671,-53.41500399042303,-17.578412698412706,5.228752082809783,19.604533393098723,39.82526225865188,-11.357729104544548,7.470590012949439,-13.60714285846852,-1.1570744362643381e-10,5.944680851067675
-102.6162556618017,114.01703800786369,-106.15238970588236,-106.58221499254438,49.358960763520685,-56.252992817238635,-10.60349206349207,5.22132162349287,19.541749876235563,39.824026439211906,-11.357726664080294,7.470589989405934,-13.607142858583575,-1.1679635036898617e-10,5.9446808510675595
-102.6162556618017,114.01703800786369,-106.15238970588236,-106.58221499254438,49.358960763520685,-56.252992817238635,-10.60349206349207,8.948599445132052,7.914379977841349,18.298040489970617,-6.195122937764522,56.27843280712391,9.071428568334785,33.79838709663006,9.187234042556774
-102.6162556618017,114.01703800786369,-106.15238970588236,-106.58221499254438,49.358960763520685,-56.252992817238635,-10.60349206349207,-9.162989797117955,-7.528748938444442,22.602481545038575,-12.390243783522733,6.474511352182918,-46.4910714287779,8.193548386960018,-5.944680851060225
-89.96099647710115,105.69462647444298,-107.76323529411765,-112.77985631015315,63.129639448568405,-58.73623304070236,-0.9676190476190527,-5.976901306198561,-7.500246338446084,22.601827217965763,-12.390240994419552,6.474511332002742,-46.491071427782614,8.193548386956165,-5.944680851060294
-89.96099647710115,105.69462647444298,-107.76323529411765,-112.77985631015315,63.129639448568405,-58.73623304070236,-0.9676190476190527,16.06430675786918,23.367285187471747,30.134835454596875,13.422768223942807,40.34117777310605,-12.47321428623718,-21.50806451625043,13.51063829787562
-89.96099647710115,105.69462647444298,-107.76323529411765,-112.77985631015315,63.129639448568405,-58.73623304070236,-0.9676190476190527,-25.96252253645454,-10.117522309445409,-21.525473592902845,-87.76422290564942,-36.35686111198181,4.535714283884552,32.77419354822972,-10.26808510637961
-71.64921992954201,120.78593272171254,-106.50257352941176,-117.18706791378611,75.87340933191942,-62.94253790901837,11.00666666666666,-21.294442279014707,-10.08038858719639,-21.52463793698701,-87.76419466583602,-36.35686098753799,4.535714283156917,32.77419354821756,-10.268085106379663
-71.64921992954201,120.78593272171254,-106.50257352941176,-117.18706791378611,75.87340933191942,-62.94253790901837,11.00666666666666,5.533600952340455,5.376207917255881,10.763322930669151,21.68298083403351,-61.258821496390844,-24.94642857271417,-38.91935483883568,-8.106382978720164
-71.64921992954201,120.78593272171254,-106.50257352941176,-117.18706791378611,75.87340933191942,-62.94253790901837,11.00666666666666,8.848146016799305,9.215985082859216,-12.914156811576493,-13.422716625781455,-1.4941157679512502,-55.562499998941455,-53.25806451623182,-0.5404255319117874
-51.89934574735782,127.00000000000001,-108.69705882352942,-120.49247661651077,87.55660127253448,-68.66919393455709,26.448253968253965,4.471068929664587,9.1878573033839,-12.913611900856537,-13.422713488046412,-1.4941157612246363,-55.56249999763984,-53.258064516214894,-0.5404255319118767
-51.89934574735782,127.00000000000001,-108.69705882352942,-120.49247661651077,87.55660127253448,-68.66919393455709,26.448253968253965,6.368785726433899,10.44471514715801,7.535445643676653,56.788667137274366,-5.47842945582549,-60.0982142817449,-59.40322580651577,27.561702127662237
-51.89934574735782,127.00000000000001,-108.69705882352942,-120.49247661651077,87.55660127253448,-68.66919393455709,26.448253968253965,6.077007926989994,10.412296036800091,38.74618779160728,109.44717968318723,106.08235420152364,97.51785713759216,103.44354838692513,10.268085106385621
-28.47433316557624,117.45696810834427,-104.96176470588236,-122.79937644028735,97.28698303287382,-75.10534716679973,44.10730158730158,11.68557472267725,10.379910448176444,38.744988359531405,109.44714133278076,106.0823538450085,97.51785713372495,103.44354838688912,10.268085106385493
-28.47433316557624,117.45696810834427,-104.96176470588236,-122.79937644028735,97.28698303287382,-75.10534716679973,44.10730158730158,-12.375682415839368,-3.7870294249073275,-0.0007613234272034752,20.650360865727574,73.2117654525417,11.339285707130717,41.991935483675064,13.510638297874697
-28.47433316557624,117.45696810834427,-104.96176470588236,-122.79937644028735,97.28698303287382,-75.10534716679973,44.10730158730158,23.965664905715794,6.508084005870312,2.1518225449692396,16.520271469680896,89.14902001232693,-45.35714286141021,-97.29838709687711,-1.6212765957423168
-21.411675893306487,110.91000436871998,-99.33547794117648,-124.27992408838281,106.39448568398728,-80.5786113328013,61.846984126984125,8.641340754114973,6.488740909234993,2.1518587161417786,16.520264496876653,89.14901971298868,-45.35714286045318,-97.29838709684527,-1.6212765957424011
-21.411675893306487,110.91000436871998,-99.33547794117648,-124.27992408838281,106.39448568398728,-80.5786113328013,61.846984126984125,6.794101214090782,21.888964928754074,3.228132394185866,-86.731768192965,-4.482352567545142,-6.803571433539343,101.39516129012897,26.48085106383171
-21.411675893306487,110.91000436871998,-99.33547794117648,-124.27992408838281,106.39448568398728,-80.5786113328013,61.846984126984125,-85.90096110279056,-41.14558271538394,-24.754042971879684,-12.390281785512624,25.40000020922738,-4.535714291180769,-62.47580645171451,4.863829787235991
-4.697785606441869,92.93359545653125,-94.96985294117647,-125.51945235190453,113.97004241781549,-85.342378292099,80.83650793650793,-55.50338072728003,-41.00425464645789,-24.75309829859234,-12.390278996403017,25.400000125143407,-4.535714291602112,-62.47580645169444,4.8638297872358836
-4.697785606441869,92.93359545653125,-94.96985294117647,-125.51945235190453,113.97004241781549,-85.342378292099,80.83650793650793,43.97639938857824,5.395467507047906,-9.684828535887839,-16.520357235975425,69.22745075566158,32.8839285625817,53.25806451597767,56.74468085106506
-4.697785606441869,92.93359545653125,-94.96985294117647,-125.51945235190453,113.97004241781549,-85.342378292099,80.83650793650793,-39.535165399408946,-1.0447418211600503,33.36510764464301,-69.17888616799699,29.384313510315476,-7.937500007763271,-64.52419354846597,-38.3702127659556
5.656517362858584,67.18960244648318,-82.22316176470588,-126.2425105056256,119.8789766702015,-89.04189944134083,98.01174603174601,-44.56106956784106,-1.0384445141145942,33.36408991098816,-69.17886420369648,29.384313412778017,-7.937500008069728,-64.52419354844517,-38.37021276595557
5.656517362858584,67.18960244648318,-82.22316176470588,-126.2425105056256,119.8789766702015,-89.04189944134083,98.01174603174601,-3.022177441113052,13.102404712296364,-5.381478076618906,-3.09754578049496,16.43529378592627,-30.616071435409616,-105.49193548387642,-27.56170212765777
5.656517362858584,67.18960244648318,-82.22316176470588,-126.2425105056256,119.8789766702015,-89.04189944134083,98.01174603174601,-3.987531184332423,9.206013172877054,-6.457425038531486,-15.487789215197854,38.34901908941342,-103.18750000145728,34.822580645081544,32.965957446809725
11.664569703069958,40.66885102664919,-66.34816176470588,-126.62125525281277,124.25596500530224,-91.62649640861935,111.96158730158729,5.153284635504294,9.17757197987829,-6.457098157731727,-15.487785380177675,38.34901896160577,-103.1874999985476,34.82258064506882,32.96595744680948
11.664569703069958,40.66885102664919,-66.34816176470588,-126.62125525281277,124.25596500530224,-91.62649640861935,111.96158730158729,29.63217921773507,20.713820316060723,-19.37162137286479,39.23579208487233,68.23137159375412,34.01785713791431,92.17741935468896,15.672340425532823
11.664569703069958,40.66885102664919,-66.34816176470588,-126.62125525281277,124.25596500530224,-91.62649640861935,111.96158730158729,15.501096500216654,2.65690575295545,9.68755428177029,14.455291269889099,-127.0,-20.410714288689018,-21.50806451622258,15.672340425532655
24.3517866129844,11.92878986456968,-44.21654411764706,-126.62125525281277,125.08085896076354,-94.7178770949721,120.02507936507935,16.583047247866244,2.6503075049850184,9.687336036397593,14.455284994354368,-126.99999956949166,-20.410714288574322,-21.50806451621629,15.67234042553248
24.3517866129844,11.92878986456968,-44.21654411764706,-126.62125525281277,125.08085896076354,-94.7178770949721,120.02507936507935,-56.92127104175961,-34.620214969520596,-48.4297076119706,10.325197690139143,-126.0039207136514,-80.5089285700982,-50.18548387102643,-45.936170212764985
24.3517866129844,11.92878986456968,-44.21654411764706,-126.62125525281277,125.08085896076354,-94.7178770949721,120.02507936507935,-0.7267913404087032,-2.3769369471911297,-22.598263301853613,1.0325104946324997,71.21960792920335,43.08928570937787,49.161290322460765,-3.7829787234036294
31.414443885254155,-19.474442988204455,-17.065625000000004,-127.0,127.00000000000001,-95.02194732641664,126.99999999999999,-17.23230055858373,-2.366420448061345,-22.59739136531105,1.0325087514189422,71.21960769040524,43.089285707348445,49.16129032244319,-3.7829787234037333
31.414443885254155,-19.474442988204455,-17.065625000000004,-127.0,127.00000000000001,-95.02194732641664,126.99999999999999,-24.30430122034395,5.353830397354869,27.98664341035286,59.88616166691769,-4.482352873614831,-17.008928576319555,-48.13709677427299,-26.48085106382915
31.414443885254155,-19.474442988204455,-17.065625000000004,-127.0,127.00000000000001,-95.02194732641664,126.99999999999999,-50.59458943873088,-24.215910658684653,-36.58844312103356,-43.365885665806196,-66.23921522737422,-44.22321428875985,47.112903225668326,-24.31914893616961
27.707347760442882,-42.888160768894714,9.268198529411762,-126.58682391215939,126.93266171792155,-95.63008778930572,125.91142857142856,-33.610877260825504,-24.131716867459446,-36.587098778222526,-43.36587241750135,-66.23921500203019,-44.22321428784113,47.11290322565146,-24.319148936169643
27.707347760442882,-42.888160768894714,9.268198529411762,-126.58682391215939,126.93266171792155,-95.63008778930572,125.91142857142856,-46.894243609647546,-26.61761997857557,-26.899616890416418,-127.0,-37.35294044206199,-73.70535714206585,-14.338709677543488,-31.88510638297811
27.707347760442882,-42.888160768894714,9.268198529411762,-126.58682391215939,126.93266171792155,-95.63008778930572,125.91142857142856,38.723895816107955,13.308747319914934,17.22713815431819,17.552877491983494,67.23529434559102,-35.151785714194816,-47.112903225901235,2.7021276595747477
32.660795168595875,-67.0786369593709,30.489338235294113,-125.45058967059776,122.50516967126194,-97.91061452513969,115.99333333333333,18.28000057342012,13.26657779644377,17.226665427353396,17.552870170524823,67.23529412024627,-35.1517857135824,-47.112903225886285,2.702127659574621
32.660795168595875,-67.0786369593709,30.489338235294113,-125.45058967059776,122.50516967126194,-97.91061452513969,115.99333333333333,-0.04919138311694171,-6.04999358474832,12.921242678165065,-52.658514638518874,54.28627436558723,63.4999999946254,-37.895161290394626,-0.5404255319148361
32.660795168595875,-67.0786369593709,30.489338235294113,-125.45058967059776,122.50516967126194,-97.91061452513969,115.99333333333333,22.313567324766893,27.38202566718543,34.44566547815371,24.780521035314695,15.439215596023178,58.96428570650008,-58.37903225810882,7.02553191489349
42.28007045797685,-101.36697247706422,43.796323529411765,-124.48651213230312,116.14170201484625,-99.0762170790104,103.33365079365078,27.3650925090254,27.29213736296014,34.44461133020535,24.780511273376675,15.439215545572566,58.96428570393455,-58.379032258090106,7.025531914893351
42.28007045797685,-101.36697247706422,43.796323529411765,-124.48651213230312,116.14170201484625,-99.0762170790104,103.33365079365078,10.618886193840206,0.21815861834153094,12.918807049379165,66.08131179825577,17.431372345785686,12.473214275950543,-55.306451612912504,9.187234042552767
42.28007045797685,-101.36697247706422,43.796323529411765,-124.48651213230312,116.14170201484625,-99.0762170790104,103.33365079365078,52.238199191250416,20.779041649881062,25.83332983002541,12.390234717866399,22.411764415267715,34.01785713063659,-58.37903225805375,-13.510638297872687
53.848766985405135,-124.00393184796854,54.11507352941176,-123.14368984682119,107.80858960763521,-99.83639265762173,89.06126984126982,42.50208038265635,20.711076886598377,25.832566444099445,12.3902291396141,22.411764341273656,34.01785712891343,-58.379032258035075,-13.510638297872749
53.848766985405135,-124.00393184796854,54.11507352941176,-123.14368984682119,107.80858960763521,-99.83639265762173,89.06126984126982,30.663328904317737,-3.771082312399728,1.078340397806624,-42.33335006866771,74.20784238453668,-7.937500012821564,52.23387096770413,55.66382978723292
53.848766985405135,-124.00393184796854,54.11507352941176,-123.14368984682119,107.80858960763521,-99.83639265762173,89.06126984126982,-13.501643186945902,15.518024449789433,2.1546503682627307,50.593485976329475,-126.99999978138874,-91.84821429315176,28.677419354800513,-19.995744680851757
60.33618520382486,-127.0,62.70625,-120.59577063847092,98.33072640509015,-100.8499600957702,73.61968253968254,-7.722013632915488,15.46756862301712,2.1546864897643165,50.593467498401914,-126.99999935088036,-91.84821429062498,28.677419354789773,-19.99574468085178
60.33618520382486,-127.0,62.70625,-120.59577063847092,98.33072640509015,-100.8499600957702,73.61968253968254,-12.30625448972974,-1.2873300043469995,-7.5314149571766364,114.60970496504143,-24.40392111118959,-127.0,-2.048387096810006,-13.510638297873133
60.33618520382486,-127.0,62.70625,-120.59577063847092,98.33072640509015,-100.8499600957702,73.61968253968254,-2.0519232825356784,6.428539744870988,51.662011138386504,106.3495028140854,40.34117661946524,5.669642851859209,-87.05645161287339,-87.00851063829799
90.37644690488173,-117.90083005679337,73.98216911764706,-116.15412769418464,85.57012195121952,-104.34676775738228,58.94412698412697,-7.48594760529196,6.408578959688149,51.66037560594983,106.34946550961814,40.34117648493098,5.6696428510932435,-87.05645161284504,-87.00851063829776
90.37644690488173,-117.90083005679337,73.98216911764706,-116.15412769418464,85.57012195121952,-104.34676775738228,58.94412698412697,13.85829496364872,21.808193700940002,7.53300229234104,-100.15462322892004,-118.03529327737016,-11.3392857199478,3.0725806451778412,16.753191489361026
90.37644690488173,-117.90083005679337,73.98216911764706,-116.15412769418464,85.57012195121952,-104.34676775738228,58.94412698412697,-1.8663382808614093,15.311403104685331,29.057606911337377,126.99986577208324,-33.368626723923185,-61.23214285961299,98.3225806451018,62.148936170211506
99.26069451434323,-83.16863259065093,90.67426470588235,-108.02833129998646,70.92404559915165,-109.21189146049483,41.32539682539681,1.1084066953605558,15.26123660360156,29.056734579361223,126.99982149482582,-33.36862660956959,-61.23214285812,98.32258064506755,62.14893617021122
99.26069451434323,-83.16863259065093,90.67426470588235,-108.02833129998646,70.92404559915165,-109.21189146049483,41.32539682539681,-67.05922347195798,-6.633212885326758,32.28457478466248,114.60953413153123,83.17254926861249,61.232142849353494,-27.65322580648173,-127.0
99.26069451434323,-83.16863259065093,90.67426470588235,-108.02833129998646,70.92404559915165,-109.21189146049483,41.32539682539681,28.902808857493298,-1.4696033966570088,-38.74808203533694,-41.30106479476113,-13.447058267736894,-94.11607142846752,-76.81451612901586,-29.723404255319625
91.463009562154,-42.44429882044561,108.74374999999999,-95.42646062084856,55.739262990456,-113.77294493216283,18.787936507936507,16.21840899465136,-1.4632418320320202,-38.746664892635444,-41.301052243698834,-13.447058220650282,-94.11607142586419,-76.81451612899089,-29.723404255319508
91.463009562154,-42.44429882044561,108.74374999999999,-95.42646062084856,55.739262990456,-113.77294493216283,18.787936507936507,1.3134888846110444,3.6829575583358034,24.752765170371013,-33.04087763527555,-50.30195991084275,-82.77678570974415,61.45161290318475,92.41276595744537
91.463009562154,-42.44429882044561,108.74374999999999,-95.42646062084856,55.739262990456,-113.77294493216283,18.787936507936507,65.3448104198605,65.35014700836076,55.96292591529364,64.01603630067989,69.22745130051186,-103.18749999185378,120.85483870956851,103.22127659574278
90.24861600402618,-26.909130624726956,126.99999999999999,-78.41737833807781,39.61174443266172,-116.10415003990425,-7.257142857142867,44.23832235116957,65.13088822374073,55.96114509004235,64.01601329047007,69.22745106844046,-103.18749998894417,120.85483870952672,103.22127659574234
90.24861600402618,-26.909130624726956,126.99999999999999,-78.41737833807781,39.61174443266172,-116.10415003990425,-7.257142857142867,-26.51916115259603,-1.9060449205383736,-27.98716129251924,-97.05716983831611,32.37254909908992,-48.75892856115436,-127.0,74.03829787233795
90.24861600402618,-26.909130624726956,126.99999999999999,-78.41737833807781,39.61174443266172,-116.10415003990425,-7.257142857142867,-26.57538974022235,-1.8989116294261037,-11.842544913892375,-112.544942318255,86.16078395938321,-52.16071427413759,-51.209677419371815,-44.85531914893785
92.45369904378461,-34.45478374836173,124.89889705882352,-60.237630473092054,24.292285259809127,-115.34397446129293,-30.439682539682565,5.068554068752386,-1.891770089414912,-11.842036268127037,-112.54490571104546,86.16078367013476,-52.16071427295093,-51.2096774193555,-44.855319148937774
92.45369904378461,-34.45478374836173,124.89889705882352,-60.237630473092054,24.292285259809127,-115.34397446129293,-30.439682539682565,79.68618412010024,28.954483733194426,10.759460027147481,11.357561756604238,77.1960775528995,36.285714293666054,-66.5725806451337,51.34042553191244
92.45369904378461,-34.45478374836173,124.89889705882352,-60.237630473092054,24.292285259809127,-115.34397446129293,-30.439682539682565,-89.37986940805254,-57.234987015769875,-33.366532295987724,-98.08959073304331,-2.4901967326282657,126.99999999999997,-94.22580645154234,-8.106382978725547
78.74383492702567,-58.7562254259502,109.91102941176472,-42.987528805747615,10.90880169671263,-110.73224261771753,-50.35650793650791,-99.04768388278842,-57.04107531944936,-33.36529686042502,-98.08955900680331,-2.4901967225387223,126.99999999513716,-94.22580645151156,-8.106382978725598
78.74383492702567,-58.7562254259502,109.91102941176472,-42.987528805747615,10.90880169671263,-110.73224261771753,-50.35650793650791,-115.01156924902415,-51.70762960134301,-48.43138655118518,-27.878149792982462,-84.16862758966228,-62.3660714254547,58.379032258078105,-16.753191489363864
78.74383492702567,-58.7562254259502,109.91102941176472,-42.987528805747615,10.90880169671263,-110.73224261771753,-50.35650793650791,-23.086125233197045,-2.703133327913963,-16.142517169582867,-99.12203951902067,-36.35686288784843,46.49107142583699,-37.89516129025499,-15.672340425534102
50.493205837946654,-100.36828309305373,77.18051470588235,-30.867696895757092,1.262592788971375,-102.11691939345576,-65.07238095238097,-21.95389277316898,-2.6923932221299065,-16.141863247561886,-99.12200744415294,-36.35686276340496,46.49107142369264,-37.89516129024323,-15.672340425534117
50.493205837946654,-100.36828309305373,77.18051470588235,-30.867696895757092,1.262592788971375,-102.11691939345576,-65.07238095238097,41.79662361360967,16.59276513757967,29.0607659796209,27.87801626266686,-28.38823523630653,2.2678571388331292,-49.161290322480795,16.753191489359175
50.493205837946654,-100.36828309305373,77.18051470588235,-30.867696895757092,1.262592788971375,-102.11691939345576,-65.07238095238097,-6.10091862553075,-19.44057433832789,30.136131101125166,-23.74800740369891,-43.32941151874784,-53.29464285804987,25.604838709734775,21.076595744678155
59.69703069954706,-75.06815203145479,34.364705882352936,-22.156567710451384,-5.7069194061505755,-100.29249800478851,-69.99111111111108,12.498996751309774,-19.373383614479152,30.1352223896325,-23.748000779550313,-43.3294113707609,-53.29464285682489,25.604838709725104,21.076595744678013
59.69703069954706,-75.06815203145479,34.364705882352936,-22.156567710451384,-5.7069194061505755,-100.29249800478851,-69.99111111111108,-61.4706742151243,-55.28526736044501,13.990751080478956,-19.617913126721284,-15.439215313481647,-86.17857142479838,-10.24193548380512,-71.87659574468294
59.69703069954706,-75.06815203145479,34.364705882352936,-22.156567710451384,-5.7069194061505755,-100.29249800478851,-69.99111111111108,90.31256512804646,-7.5532162565604395,-32.28782532213581,-74.34148152716485,-79.18823448090794,-114.52678570625487,-26.62903225798351,-14.591489361704532
127.0,-107.35910878112713,16.80882352941176,-11.86159685509017,-15.875,-107.28611332801279,-62.613015873015854,45.59484523825043,-7.525655347135341,-32.286626268885215,-74.34145781966598,-79.18823421184037,-114.52678570296239,-26.629032257975553,-14.591489361704486
127.0,-107.35910878112713,16.80882352941176,-11.86159685509017,-15.875,-107.28611332801279,-62.613015873015854,-41.8683531253699,-96.16058484638329,-21.523052160633714,58.853679062808716,39.34509867171941,49.89285714632237,30.72580645166527,-63.229787234044394
127.0,-107.35910878112713,16.80882352941176,-11.86159685509017,-15.875,-107.28611332801279,-62.613015873015854,83.26991928267947,45.51210788899333,30.137183812064116,-101.18698206565281,100.10588248579232,86.17857142731657,126.99999999996616,69.7148936170184
106.22747861097132,-51.87636522498908,-24.81636029411765,-5.250779449640788,-21.51458112407211,-120.46249002394256,-50.033968253968226,74.6236340650711,45.36105495444335,30.13627508246946,-101.1869492935218,100.10588214945705,86.17857142383207,126.99999999992225,69.71489361701818
106.22747861097132,-51.87636522498908,-24.81636029411765,-5.250779449640788,-21.51458112407211,-120.46249002394256,-50.033968253968226,-86.1741389359504,-38.312341800058505,-68.87848432460639,-110.47959883592979,60.262744799847056,62.36607142196246,46.08870967736052,8.10638297872066
106.22747861097132,-51.87636522498908,-24.81636029411765,-5.250779449640788,-21.51458112407211,-120.46249002394256,-50.033968253968226,16.802567316408453,-4.7718824969047375,86.1021513534992,44.39847564950686,9.462744906120482,71.43749999009539,71.69354838700146,43.774468085103294
58.482637141419225,-84.16732197466143,-40.48125,-1.9109394062626848,-25.538043478260875,-124.77015163607342,-42.73650793650796,19.965239731872543,-4.753510787574103,86.09935292607125,44.39845926339979,9.462744875849948,71.43749998710861,71.69354838697625,43.774468085103166
58.482637141419225,-84.16732197466143,-40.48125,-1.9109394062626848,-25.538043478260875,-124.77015163607342,-42.73650793650796,94.83796515809517,85.21218911738785,52.73319181241087,15.487875676524705,-0.49803940773925914,29.482142844109994,35.84677419343049,-15.672340425534678
58.482637141419225,-84.16732197466143,-40.48125,-1.9109394062626848,-25.538043478260875,-124.77015163607342,-42.73650793650796,-64.61734733024085,1.4041592164028582,85.01864524960929,17.552909566680178,62.25490139153133,14.74107141496814,-43.01612903232782,-16.75319148936434
16.841721187720182,-31.125819134993446,-25.633455882352944,-0.15494103294020078,-26.396606574761392,-125.27693535514766,-43.260634920634914,-69.97721862809469,1.4011925394241187,85.01588328493172,17.552902245216277,62.25490118300328,14.741071413895764,-43.016129032314296,-16.75319148936422
16.841721187720182,-31.125819134993446,-25.633455882352944,-0.15494103294020078,-26.396606574761392,-125.27693535514766,-43.260634920634914,-21.442316098136672,63.07642556528241,44.11609608073204,21.682975952435147,-59.26666691601257,-73.70535715260696,43.016129032148534,55.663829787230966
16.841721187720182,-31.125819134993446,-25.633455882352944,-0.15494103294020078,-26.396606574761392,-125.27693535514766,-43.260634920634914,73.21135478483336,119.40354230263142,43.03847762706365,-11.357680993038112,-27.392157103592243,9.071428557979079,-45.064516129088915,-52.421276595746846
43.87795671867137,6.158584534731325,-12.489889705882355,3.976819845465627,-28.147401908801697,-127.0,-44.470158730158744,76.70064414573181,119.00175761774803,43.037133044386756,-11.357678552581856,-27.392157009418842,9.07142855709813,-45.064516129074676,-52.42127659574659
43.87795671867137,6.158584534731325,-12.489889705882355,3.976819845465627,-28.147401908801697,-127.0,-44.470158730158744,50.96606975825667,32.50817862790689,-11.852324399608545,-41.30076357006721,23.40784277667979,126.99999997679097,-48.137096774219344,2.702127659572298
43.87795671867137,6.158584534731325,-12.489889705882355,3.976819845465627,-28.147401908801697,-127.0,-44.470158730158744,-100.92524170453082,-60.11879748107477,-100.10329120722128,5.162660553611678,17.431372147331174,-89.58035715624106,60.42741935474386,57.82553191489099
8.149219929542026,46.55002184359982,5.976470588235291,7.316659888843731,-27.57502651113468,-126.18914604948128,-51.888571428571424,-67.96952913500088,-59.91584425227601,-100.09980251453933,5.162657415827152,17.431372090153854,-89.58035715379094,60.42741935472245,57.82553191489086
8.149219929542026,46.55002184359982,5.976470588235291,7.316659888843731,-27.57502651113468,-126.18914604948128,-51.888571428571424,-30.624765438121386,-44.29365316393605,-36.59830093649298,-17.552791379705333,-20.419608129634412,-79.37500000917575,63.49999999985994,13.510638297869868
8.149219929542026,46.55002184359982,5.976470588235291,7.316659888843731,-27.57502651113468,-126.18914604948128,-51.888571428571424,-58.702372960867976,-23.583999442378417,-75.34150670093537,21.682982925062902,76.19999919818665,-55.56250000868509,50.185483870815546,-56.744680851065624
-41.928535480624056,-1.6089995631280019,25.119852941176468,9.554697031313538,-26.935312831389183,-114.68515562649645,-67.3301587301587,-96.8454222634164,-23.50340918763549,-75.33885397201703,21.682974209040832,76.19999894257171,-55.562500007383576,50.185483870797555,-56.744680851065375
-41.928535480624056,-1.6089995631280019,25.119852941176468,9.554697031313538,-26.935312831389183,-114.68515562649645,-67.3301587301587,-43.79745165588924,-6.7184304134499,-33.36293849425784,-50.59345250890679,8.466665764389784,-108.8571428596106,-68.62096774203138,87.00851063829522
-41.928535480624056,-1.6089995631280019,25.119852941176468,9.554697031313538,-26.935312831389183,-114.68515562649645,-67.3301587301587,-33.70512723335773,15.14986611521343,20.450172256063443,25.813062210473195,-49.305882931765716,-78.24107143001444,-91.15322580650788,-51.340425531916516
-39.49974836436839,-2.718654434250766,23.018749999999997,11.896028195743554,-26.24509544008484,-102.82641660015963,-82.32825396825399,11.94988001309928,15.100005072687377,20.449590602008215,25.81305209989196,-49.30588276359866,-78.24107142794719,-91.15322580647812,-51.3404255319163
-39.49974836436839,-2.718654434250766,23.018749999999997,11.896028195743554,-26.24509544008484,-102.82641660015963,-82.32825396825399,71.11801571156339,42.03445488342321,75.33712184175165,2.0650760743935503,94.12941065235725,-124.73214285129845,-93.2016129032209,-26.48085106383123
-39.49974836436839,-2.718654434250766,23.018749999999997,11.896028195743554,-26.24509544008484,-102.82641660015963,-82.32825396825399,13.508690787512087,-0.5100953623077475,36.59013658905374,15.487837325747638,-56.278431888909935,70.30357142482607,-124.95161290316577,-30.80425531915023
-12.495470558631098,17.588029707295767,11.649448529411764,15.029280195201295,-25.841065747613996,-93.90702314445332,-94.62507936507939,10.078803402859565,-0.5074405005712124,36.589009893519666,15.487830701568814,-56.27843169719945,70.30357142187765,-124.95161290312453,-30.8042553191501
-12.495470558631098,17.588029707295767,11.649448529411764,15.029280195201295,-25.841065747613996,-93.90702314445332,-94.62507936507939,18.315707571060987,4.635079527978801,-3.232904561637768,-14.455263380550093,52.294116855684564,-3.4017857189294407,59.40322580645099,45.93617021276419
-12.495470558631098,17.588029707295767,11.649448529411764,15.029280195201295,-25.841065747613996,-93.90702314445332,-94.62507936507939,-107.83766870474662,-54.48787475792965,-127.0,2.0650642205555716,-105.08627452164502,-124.73214285401802,-22.5322580644741,-53.50212765957541
