,Gyro 0,Gyro 1,Gyro 2,Label,Orientation 0,Orientation 1,Orientation 2,Orientation 3,Sensor 0,Sensor 1,Sensor 2,Sensor 3,Sensor 4,Sensor 5,Sensor 6,Sensor 7,Timestamp
0,-225.0,-537.0,-66.0,1.0,-4206.0,-8974.0,-6050.0,-11561.0,5.0,17.0,23.0,-3.0,-31.0,14.0,7.0,2.0,2.1457672119140625e-06
1,-225.0,-537.0,-66.0,1.0,-4206.0,-8974.0,-6050.0,-11561.0,-4.0,-10.0,-17.0,15.0,21.0,11.0,1.0,-9.0,0.002539396286010742
2,-225.0,-537.0,-66.0,1.0,-4206.0,-8974.0,-6050.0,-11561.0,-4.0,-10.0,-25.0,-98.0,-22.0,45.0,12.0,1.0,0.005316019058227539
3,-608.0,-417.0,-62.0,1.0,-4315.0,-8985.0,-5976.0,-11550.0,-4.0,-10.0,-25.0,-98.0,-22.0,45.0,12.0,1.0,0.00847315788269043
4,-608.0,-417.0,-62.0,1.0,-4315.0,-8985.0,-5976.0,-11550.0,-13.0,-7.0,-3.0,30.0,13.0,-41.0,-13.0,-6.0,0.010840892791748047
5,-704.0,-324.0,51.0,1.0,-4404.0,-8993.0,-5873.0,-11563.0,-13.0,-7.0,-3.0,30.0,13.0,-41.0,-13.0,-6.0,0.013055801391601562
6,-704.0,-324.0,51.0,1.0,-4404.0,-8993.0,-5873.0,-11563.0,-1.0,0.0,0.0,44.0,0.0,-53.0,-16.0,-22.0,0.01523900032043457
7,-704.0,-324.0,51.0,1.0,-4404.0,-8993.0,-5873.0,-11563.0,15.0,-1.0,-5.0,28.0,11.0,-36.0,9.0,13.0,0.017322301864624023
8,-642.0,-337.0,163.0,1.0,-4460.0,-9016.0,-5748.0,-11586.0,15.0,-1.0,-5.0,28.0,11.0,-36.0,9.0,13.0,0.0204465389251709
9,-642.0,-337.0,163.0,1.0,-4460.0,-9016.0,-5748.0,-11586.0,-6.0,-11.0,1.0,-11.0,-4.0,-5.0,3.0,-5.0,0.02259540557861328
10,-642.0,-337.0,163.0,1.0,-4460.0,-9016.0,-5748.0,-11586.0,-1.0,-2.0,-13.0,41.0,-12.0,23.0,2.0,7.0,0.02463078498840332
11,-242.0,-344.0,72.0,1.0,-4479.0,-9060.0,-5671.0,-11583.0,-1.0,-2.0,-13.0,41.0,-12.0,23.0,2.0,7.0,0.02646017074584961
12,-242.0,-344.0,72.0,1.0,-4479.0,-9060.0,-5671.0,-11583.0,6.0,5.0,13.0,20.0,-14.0,-22.0,-6.0,16.0,0.02835249900817871
13,-242.0,-344.0,72.0,1.0,-4479.0,-9060.0,-5671.0,-11583.0,-10.0,-13.0,-8.0,-14.0,15.0,20.0,-6.0,-4.0,0.030145645141601562
14,195.0,-316.0,-12.0,1.0,-4471.0,-9122.0,-5679.0,-11534.0,-10.0,-13.0,-8.0,-14.0,15.0,20.0,-6.0,-4.0,0.03217172622680664
15,195.0,-316.0,-12.0,1.0,-4471.0,-9122.0,-5679.0,-11534.0,-14.0,-1.0,-7.0,22.0,10.0,80.0,33.0,32.0,0.03432154655456543
16,195.0,-316.0,-12.0,1.0,-4471.0,-9122.0,-5679.0,-11534.0,6.0,17.0,1.0,0.0,1.0,13.0,1.0,6.0,0.03632092475891113
17,124.0,-219.0,-72.0,1.0,-4471.0,-9161.0,-5685.0,-11500.0,6.0,17.0,1.0,0.0,1.0,13.0,1.0,6.0,0.03813910484313965
18,124.0,-219.0,-72.0,1.0,-4471.0,-9161.0,-5685.0,-11500.0,-16.0,-10.0,-16.0,-31.0,-25.0,-78.0,-14.0,-15.0,0.040041446685791016
19,124.0,-219.0,-72.0,1.0,-4471.0,-9161.0,-5685.0,-11500.0,-16.0,-10.0,-16.0,-31.0,-25.0,-78.0,-14.0,-15.0,0.04182577133178711
20,124.0,-219.0,-72.0,1.0,-4471.0,-9161.0,-5685.0,-11500.0,-8.0,-3.0,3.0,-5.0,7.0,2.0,6.0,18.0,0.043456077575683594
21,362.0,-93.0,-65.0,1.0,-4445.0,-9189.0,-5730.0,-11465.0,-8.0,-3.0,3.0,-5.0,7.0,2.0,6.0,18.0,0.04522085189819336
22,362.0,-93.0,-65.0,1.0,-4445.0,-9189.0,-5730.0,-11465.0,8.0,-15.0,-19.0,-16.0,-3.0,41.0,0.0,9.0,0.04725193977355957
23,362.0,-93.0,-65.0,1.0,-4445.0,-9189.0,-5730.0,-11465.0,21.0,4.0,15.0,29.0,10.0,-13.0,-32.0,-59.0,0.04917407035827637
24,249.0,-56.0,2.0,1.0,-4428.0,-9201.0,-5757.0,-11448.0,21.0,4.0,15.0,29.0,10.0,-13.0,-32.0,-59.0,0.051239967346191406
25,249.0,-56.0,2.0,1.0,-4428.0,-9201.0,-5757.0,-11448.0,-8.0,-3.0,22.0,71.0,2.0,-27.0,-3.0,-2.0,0.05341696739196777
26,249.0,-56.0,2.0,1.0,-4428.0,-9201.0,-5757.0,-11448.0,-21.0,-6.0,9.0,27.0,4.0,25.0,14.0,-3.0,0.056116580963134766
27,272.0,47.0,-77.0,1.0,-4404.0,-9208.0,-5802.0,-11429.0,-21.0,-6.0,9.0,27.0,4.0,25.0,14.0,-3.0,0.0592494010925293
28,272.0,47.0,-77.0,1.0,-4404.0,-9208.0,-5802.0,-11429.0,21.0,13.0,3.0,8.0,-12.0,-16.0,-25.0,-8.0,0.06118440628051758
29,272.0,47.0,-77.0,1.0,-4404.0,-9208.0,-5802.0,-11429.0,20.0,0.0,5.0,-5.0,12.0,-8.0,-5.0,13.0,0.06298303604125977
30,375.0,106.0,-131.0,1.0,-4382.0,-9203.0,-5876.0,-11404.0,20.0,0.0,5.0,-5.0,12.0,-8.0,-5.0,13.0,0.06477069854736328
31,375.0,106.0,-131.0,1.0,-4382.0,-9203.0,-5876.0,-11404.0,-2.0,-7.0,-5.0,-6.0,15.0,35.0,9.0,-4.0,0.0666191577911377
32,375.0,106.0,-131.0,1.0,-4382.0,-9203.0,-5876.0,-11404.0,9.0,-1.0,-9.0,-11.0,-4.0,-21.0,-6.0,1.0,0.0684053897857666
33,262.0,144.0,-171.0,1.0,-4375.0,-9183.0,-5943.0,-11388.0,9.0,-1.0,-9.0,-11.0,-4.0,-21.0,-6.0,1.0,0.07017183303833008
34,262.0,144.0,-171.0,1.0,-4375.0,-9183.0,-5943.0,-11388.0,0.0,10.0,16.0,-21.0,3.0,23.0,4.0,3.0,0.07202458381652832
35,262.0,144.0,-171.0,1.0,-4375.0,-9183.0,-5943.0,-11388.0,-12.0,-8.0,-2.0,1.0,-4.0,-31.0,-8.0,3.0,0.07384490966796875
36,165.0,61.0,-172.0,1.0,-4376.0,-9176.0,-5990.0,-11368.0,-12.0,-8.0,-2.0,1.0,-4.0,-31.0,-8.0,3.0,0.07564878463745117
37,165.0,61.0,-172.0,1.0,-4376.0,-9176.0,-5990.0,-11368.0,72.0,1.0,-6.0,-15.0,-8.0,3.0,-3.0,25.0,0.07756257057189941
38,165.0,61.0,-172.0,1.0,-4376.0,-9176.0,-5990.0,-11368.0,-16.0,-3.0,1.0,0.0,1.0,12.0,2.0,-12.0,0.07946181297302246
39,295.0,-13.0,-123.0,1.0,-4372.0,-9182.0,-6054.0,-11330.0,-16.0,-3.0,1.0,0.0,1.0,12.0,2.0,-12.0,0.08206963539123535
40,295.0,-13.0,-123.0,1.0,-4372.0,-9182.0,-6054.0,-11330.0,-26.0,-5.0,-2.0,-9.0,6.0,-5.0,0.0,-19.0,0.08424615859985352
41,295.0,-13.0,-123.0,1.0,-4372.0,-9182.0,-6054.0,-11330.0,-2.0,2.0,-2.0,-5.0,-2.0,0.0,4.0,6.0,0.08608436584472656
42,219.0,-78.0,-60.0,1.0,-4373.0,-9196.0,-6099.0,-11295.0,-2.0,2.0,-2.0,-5.0,-2.0,0.0,4.0,6.0,0.0879526138305664
43,219.0,-78.0,-60.0,1.0,-4373.0,-9196.0,-6099.0,-11295.0,-3.0,1.0,-2.0,-5.0,3.0,1.0,5.0,-2.0,0.08984255790710449
44,219.0,-78.0,-60.0,1.0,-4373.0,-9196.0,-6099.0,-11295.0,-17.0,-1.0,1.0,-3.0,-2.0,-29.0,-12.0,-13.0,0.09222602844238281
45,204.0,-124.0,-19.0,1.0,-4379.0,-9212.0,-6141.0,-11256.0,-17.0,-1.0,1.0,-3.0,-2.0,-29.0,-12.0,-13.0,0.09503507614135742
46,204.0,-124.0,-19.0,1.0,-4379.0,-9212.0,-6141.0,-11256.0,-2.0,-1.0,-3.0,-8.0,-3.0,1.0,0.0,8.0,0.09813499450683594
47,204.0,-124.0,-19.0,1.0,-4379.0,-9212.0,-6141.0,-11256.0,9.0,0.0,0.0,2.0,5.0,13.0,5.0,4.0,0.10030865669250488
48,98.0,-113.0,-51.0,1.0,-4398.0,-9214.0,-6161.0,-11237.0,9.0,0.0,0.0,2.0,5.0,13.0,5.0,4.0,0.10214114189147949
49,98.0,-113.0,-51.0,1.0,-4398.0,-9214.0,-6161.0,-11237.0,-15.0,0.0,1.0,0.0,2.0,-5.0,-2.0,-7.0,0.10424304008483887
50,98.0,-113.0,-51.0,1.0,-4398.0,-9214.0,-6161.0,-11237.0,-3.0,-2.0,0.0,-2.0,-3.0,-5.0,0.0,-1.0,0.10615849494934082
51,44.0,97.0,-33.0,1.0,-4400.0,-9181.0,-6164.0,-11261.0,-3.0,-2.0,0.0,-2.0,-3.0,-5.0,0.0,-1.0,0.10801815986633301
52,44.0,97.0,-33.0,1.0,-4400.0,-9181.0,-6164.0,-11261.0,-12.0,-1.0,2.0,4.0,2.0,9.0,2.0,-4.0,0.10993432998657227
53,44.0,97.0,-33.0,1.0,-4400.0,-9181.0,-6164.0,-11261.0,-12.0,-1.0,2.0,4.0,2.0,9.0,2.0,-4.0,0.11252903938293457
54,44.0,97.0,-33.0,1.0,-4400.0,-9181.0,-6164.0,-11261.0,8.0,4.0,1.0,2.0,-3.0,6.0,-7.0,2.0,0.11469388008117676
55,309.0,283.0,-4.0,1.0,-4363.0,-9139.0,-6208.0,-11286.0,8.0,4.0,1.0,2.0,-3.0,6.0,-7.0,2.0,0.1165156364440918
56,309.0,283.0,-4.0,1.0,-4363.0,-9139.0,-6208.0,-11286.0,-8.0,-3.0,-2.0,15.0,16.0,7.0,0.0,-5.0,0.11887121200561523
57,309.0,283.0,-4.0,1.0,-4363.0,-9139.0,-6208.0,-11286.0,-6.0,-5.0,-18.0,-58.0,-32.0,-8.0,-2.0,-2.0,0.1209862232208252
58,390.0,230.0,-53.0,1.0,-4345.0,-9105.0,-6301.0,-11268.0,-6.0,-5.0,-18.0,-58.0,-32.0,-8.0,-2.0,-2.0,0.1228799819946289
59,390.0,230.0,-53.0,1.0,-4345.0,-9105.0,-6301.0,-11268.0,0.0,-1.0,1.0,7.0,-6.0,1.0,-1.0,1.0,0.12479448318481445
60,390.0,230.0,-53.0,1.0,-4345.0,-9105.0,-6301.0,-11268.0,1.0,2.0,5.0,14.0,12.0,8.0,3.0,-1.0,0.12668609619140625
61,229.0,87.0,9.0,1.0,-4331.0,-9105.0,-6361.0,-11241.0,1.0,2.0,5.0,14.0,12.0,8.0,3.0,-1.0,0.1284940242767334
62,229.0,87.0,9.0,1.0,-4331.0,-9105.0,-6361.0,-11241.0,-8.0,-4.0,-12.0,-11.0,-7.0,-13.0,0.0,-2.0,0.1304011344909668
63,229.0,87.0,9.0,1.0,-4331.0,-9105.0,-6361.0,-11241.0,11.0,-6.0,-4.0,10.0,5.0,-5.0,5.0,6.0,0.13220500946044922
64,-227.0,-45.0,21.0,1.0,-4372.0,-9101.0,-6365.0,-11226.0,11.0,-6.0,-4.0,10.0,5.0,-5.0,5.0,6.0,0.13399887084960938
65,-227.0,-45.0,21.0,1.0,-4372.0,-9101.0,-6365.0,-11226.0,-6.0,-6.0,-13.0,25.0,6.0,-11.0,-8.0,-7.0,0.13589024543762207
66,-227.0,-45.0,21.0,1.0,-4372.0,-9101.0,-6365.0,-11226.0,-3.0,1.0,-15.0,-7.0,-6.0,1.0,0.0,-3.0,0.13767457008361816
67,-347.0,-86.0,25.0,1.0,-4423.0,-9100.0,-6347.0,-11217.0,-3.0,1.0,-15.0,-7.0,-6.0,1.0,0.0,-3.0,0.13946819305419922
68,-347.0,-86.0,25.0,1.0,-4423.0,-9100.0,-6347.0,-11217.0,-5.0,3.0,7.0,-3.0,-1.0,-27.0,-7.0,-6.0,0.14177513122558594
69,-347.0,-86.0,25.0,1.0,-4423.0,-9100.0,-6347.0,-11217.0,4.0,-6.0,0.0,10.0,1.0,1.0,2.0,8.0,0.14392781257629395
70,-296.0,-155.0,75.0,1.0,-4463.0,-9110.0,-6316.0,-11210.0,4.0,-6.0,0.0,10.0,1.0,1.0,2.0,8.0,0.14589166641235352
71,-296.0,-155.0,75.0,1.0,-4463.0,-9110.0,-6316.0,-11210.0,2.0,2.0,0.0,-8.0,-6.0,7.0,-2.0,2.0,0.14779186248779297
72,-296.0,-155.0,75.0,1.0,-4463.0,-9110.0,-6316.0,-11210.0,-5.0,5.0,13.0,1.0,-14.0,-10.0,2.0,2.0,0.14958834648132324
73,-118.0,-168.0,2.0,1.0,-4495.0,-9124.0,-6308.0,-11190.0,-5.0,5.0,13.0,1.0,-14.0,-10.0,2.0,2.0,0.1514143943786621
74,-118.0,-168.0,2.0,1.0,-4495.0,-9124.0,-6308.0,-11190.0,4.0,4.0,14.0,0.0,1.0,1.0,0.0,1.0,0.15332531929016113
75,-118.0,-168.0,2.0,1.0,-4495.0,-9124.0,-6308.0,-11190.0,-6.0,-5.0,-11.0,-52.0,5.0,11.0,2.0,-3.0,0.15512394905090332
76,99.0,-127.0,-22.0,1.0,-4505.0,-9142.0,-6331.0,-11159.0,-6.0,-5.0,-11.0,-52.0,5.0,11.0,2.0,-3.0,0.15698552131652832
77,99.0,-127.0,-22.0,1.0,-4505.0,-9142.0,-6331.0,-11159.0,8.0,0.0,-8.0,-14.0,-21.0,16.0,-1.0,5.0,0.1606760025024414
78,99.0,-127.0,-22.0,1.0,-4505.0,-9142.0,-6331.0,-11159.0,-5.0,-5.0,9.0,27.0,13.0,6.0,-2.0,1.0,0.16283035278320312
79,103.0,-157.0,33.0,1.0,-4511.0,-9162.0,-6343.0,-11133.0,-5.0,-5.0,9.0,27.0,13.0,6.0,-2.0,1.0,0.16466665267944336
80,103.0,-157.0,33.0,1.0,-4511.0,-9162.0,-6343.0,-11133.0,-5.0,-1.0,-10.0,-18.0,-3.0,-9.0,-14.0,-11.0,0.1665511131286621
81,103.0,-157.0,33.0,1.0,-4511.0,-9162.0,-6343.0,-11133.0,6.0,18.0,9.0,4.0,2.0,10.0,5.0,0.0,0.16839265823364258
82,39.0,-129.0,118.0,1.0,-4510.0,-9179.0,-6333.0,-11125.0,6.0,18.0,9.0,4.0,2.0,10.0,5.0,0.0,0.17019009590148926
83,39.0,-129.0,118.0,1.0,-4510.0,-9179.0,-6333.0,-11125.0,4.0,4.0,-1.0,2.0,0.0,-6.0,5.0,6.0,0.1725327968597412
84,39.0,-129.0,118.0,1.0,-4510.0,-9179.0,-6333.0,-11125.0,-4.0,-7.0,-3.0,11.0,-1.0,-12.0,-2.0,-2.0,0.17464542388916016
85,0.0,-118.0,196.0,1.0,-4500.0,-9199.0,-6307.0,-11127.0,-4.0,-7.0,-3.0,11.0,-1.0,-12.0,-2.0,-2.0,0.17669987678527832
86,0.0,-118.0,196.0,1.0,-4500.0,-9199.0,-6307.0,-11127.0,-5.0,-2.0,-4.0,-6.0,4.0,-3.0,2.0,-2.0,0.1786022186279297
87,0.0,-118.0,196.0,1.0,-4500.0,-9199.0,-6307.0,-11127.0,-3.0,2.0,9.0,8.0,-1.0,-9.0,0.0,2.0,0.1804184913635254
88,51.0,-145.0,218.0,1.0,-4480.0,-9228.0,-6278.0,-11128.0,-3.0,2.0,9.0,8.0,-1.0,-9.0,0.0,2.0,0.1825695037841797
89,51.0,-145.0,218.0,1.0,-4480.0,-9228.0,-6278.0,-11128.0,-2.0,2.0,9.0,-8.0,-25.0,3.0,1.0,-1.0,0.1847550868988037
90,51.0,-145.0,218.0,1.0,-4480.0,-9228.0,-6278.0,-11128.0,-4.0,-7.0,-11.0,-2.0,-19.0,-7.0,-1.0,-3.0,0.18663263320922852
91,145.0,-93.0,216.0,1.0,-4444.0,-9258.0,-6263.0,-11126.0,-4.0,-7.0,-11.0,-2.0,-19.0,-7.0,-1.0,-3.0,0.18847393989562988
92,145.0,-93.0,216.0,1.0,-4444.0,-9258.0,-6263.0,-11126.0,-2.0,-3.0,2.0,10.0,7.0,20.0,5.0,1.0,0.19034790992736816
93,145.0,-93.0,216.0,1.0,-4444.0,-9258.0,-6263.0,-11126.0,-1.0,1.0,5.0,1.0,2.0,-1.0,-3.0,0.0,0.19219303131103516
94,126.0,-133.0,185.0,1.0,-4423.0,-9288.0,-6256.0,-11113.0,-1.0,1.0,5.0,1.0,2.0,-1.0,-3.0,0.0,0.1939685344696045
95,126.0,-133.0,185.0,1.0,-4423.0,-9288.0,-6256.0,-11113.0,1.0,2.0,3.0,3.0,3.0,-1.0,4.0,3.0,0.19585919380187988
96,126.0,-133.0,185.0,1.0,-4423.0,-9288.0,-6256.0,-11113.0,2.0,-2.0,-3.0,1.0,7.0,0.0,-1.0,-3.0,0.19770169258117676
97,33.0,-58.0,141.0,1.0,-4414.0,-9298.0,-6246.0,-11113.0,2.0,-2.0,-3.0,1.0,7.0,0.0,-1.0,-3.0,0.19954609870910645
98,33.0,-58.0,141.0,1.0,-4414.0,-9298.0,-6246.0,-11113.0,-3.0,-2.0,-1.0,-11.0,-2.0,-13.0,4.0,1.0,0.20141839981079102
99,33.0,-58.0,141.0,1.0,-4414.0,-9298.0,-6246.0,-11113.0,-5.0,-13.0,-8.0,5.0,-8.0,1.0,-6.0,-2.0,0.20351648330688477
100,55.0,45.0,107.0,1.0,-4405.0,-9290.0,-6249.0,-11122.0,-5.0,-13.0,-8.0,5.0,-8.0,1.0,-6.0,-2.0,0.20602750778198242
101,55.0,45.0,107.0,1.0,-4405.0,-9290.0,-6249.0,-11122.0,-2.0,-2.0,1.0,0.0,1.0,0.0,-1.0,-2.0,0.20823907852172852
102,55.0,45.0,107.0,1.0,-4405.0,-9290.0,-6249.0,-11122.0,-3.0,2.0,-9.0,-2.0,5.0,0.0,1.0,1.0,0.21006321907043457
103,185.0,65.0,96.0,1.0,-4384.0,-9288.0,-6277.0,-11117.0,-3.0,2.0,-9.0,-2.0,5.0,0.0,1.0,1.0,0.21189427375793457
104,185.0,65.0,96.0,1.0,-4384.0,-9288.0,-6277.0,-11117.0,-1.0,-4.0,1.0,5.0,32.0,4.0,-1.0,-4.0,0.213759183883667
105,185.0,65.0,96.0,1.0,-4384.0,-9288.0,-6277.0,-11117.0,-1.0,-4.0,-11.0,8.0,1.0,20.0,2.0,0.0,0.21557378768920898
106,188.0,56.0,72.0,1.0,-4368.0,-9284.0,-6309.0,-11108.0,-1.0,-4.0,-11.0,8.0,1.0,20.0,2.0,0.0,0.21737289428710938
107,188.0,56.0,72.0,1.0,-4368.0,-9284.0,-6309.0,-11108.0,2.0,12.0,-8.0,-17.0,1.0,5.0,3.0,3.0,0.21922087669372559
108,188.0,56.0,72.0,1.0,-4368.0,-9284.0,-6309.0,-11108.0,2.0,0.0,1.0,-1.0,5.0,3.0,-9.0,-14.0,0.22155499458312988
109,43.0,99.0,69.0,1.0,-4360.0,-9274.0,-6326.0,-11110.0,2.0,0.0,1.0,-1.0,5.0,3.0,-9.0,-14.0,0.2249739170074463
110,43.0,99.0,69.0,1.0,-4360.0,-9274.0,-6326.0,-11110.0,1.0,-3.0,2.0,2.0,-8.0,8.0,-2.0,-1.0,0.2269287109375
111,43.0,99.0,69.0,1.0,-4360.0,-9274.0,-6326.0,-11110.0,-7.0,2.0,6.0,-6.0,-5.0,-8.0,3.0,7.0,0.22874140739440918
112,-42.0,92.0,80.0,1.0,-4355.0,-9259.0,-6319.0,-11128.0,-7.0,2.0,6.0,-6.0,-5.0,-8.0,3.0,7.0,0.23052668571472168
113,-42.0,92.0,80.0,1.0,-4355.0,-9259.0,-6319.0,-11128.0,0.0,-3.0,2.0,3.0,-2.0,10.0,0.0,8.0,0.23241162300109863
114,-42.0,92.0,80.0,1.0,-4355.0,-9259.0,-6319.0,-11128.0,-5.0,-2.0,-1.0,0.0,4.0,-11.0,-12.0,-6.0,0.23432302474975586
115,4.0,106.0,60.0,1.0,-4344.0,-9242.0,-6315.0,-11149.0,-5.0,-2.0,-1.0,0.0,4.0,-11.0,-12.0,-6.0,0.23638510704040527
116,4.0,106.0,60.0,1.0,-4344.0,-9242.0,-6315.0,-11149.0,-4.0,3.0,0.0,-9.0,-10.0,-18.0,-4.0,-1.0,0.23848271369934082
117,4.0,106.0,60.0,1.0,-4344.0,-9242.0,-6315.0,-11149.0,9.0,7.0,15.0,9.0,3.0,6.0,6.0,8.0,0.24036288261413574
118,62.0,132.0,86.0,1.0,-4320.0,-9229.0,-6316.0,-11168.0,9.0,7.0,15.0,9.0,3.0,6.0,6.0,8.0,0.24217438697814941
119,62.0,132.0,86.0,1.0,-4320.0,-9229.0,-6316.0,-11168.0,12.0,7.0,-22.0,-11.0,-7.0,6.0,4.0,6.0,0.24410223960876465
120,62.0,132.0,86.0,1.0,-4320.0,-9229.0,-6316.0,-11168.0,3.0,0.0,-16.0,-20.0,-4.0,-11.0,-2.0,-5.0,0.24625754356384277
121,84.0,178.0,79.0,1.0,-4293.0,-9214.0,-6329.0,-11184.0,3.0,0.0,-16.0,-20.0,-4.0,-11.0,-2.0,-5.0,0.2483043670654297
122,84.0,178.0,79.0,1.0,-4293.0,-9214.0,-6329.0,-11184.0,-6.0,-5.0,13.0,14.0,1.0,1.0,-2.0,-9.0,0.2502617835998535
123,84.0,178.0,79.0,1.0,-4293.0,-9214.0,-6329.0,-11184.0,3.0,-2.0,-4.0,-3.0,-2.0,-3.0,0.0,1.0,0.25211524963378906
124,-28.0,115.0,93.0,1.0,-4283.0,-9199.0,-6325.0,-11202.0,3.0,-2.0,-4.0,-3.0,-2.0,-3.0,0.0,1.0,0.2539088726043701
125,-28.0,115.0,93.0,1.0,-4283.0,-9199.0,-6325.0,-11202.0,-4.0,-5.0,-1.0,-3.0,-3.0,-1.0,-1.0,0.0,0.25582408905029297
126,-28.0,115.0,93.0,1.0,-4283.0,-9199.0,-6325.0,-11202.0,-1.0,-1.0,4.0,5.0,-1.0,-3.0,-1.0,-1.0,0.25760602951049805
127,-79.0,89.0,76.0,1.0,-4280.0,-9187.0,-6318.0,-11217.0,-1.0,-1.0,4.0,5.0,-1.0,-3.0,-1.0,-1.0,0.2593693733215332
128,-79.0,89.0,76.0,1.0,-4280.0,-9187.0,-6318.0,-11217.0,-3.0,-6.0,-4.0,4.0,-1.0,-6.0,-1.0,-5.0,0.2612276077270508
129,-79.0,89.0,76.0,1.0,-4280.0,-9187.0,-6318.0,-11217.0,-1.0,0.0,-6.0,0.0,2.0,1.0,3.0,0.0,0.2630012035369873
130,-84.0,75.0,76.0,1.0,-4282.0,-9174.0,-6311.0,-11231.0,-1.0,0.0,-6.0,0.0,2.0,1.0,3.0,0.0,0.264894962310791
131,-84.0,75.0,76.0,1.0,-4282.0,-9174.0,-6311.0,-11231.0,-1.0,6.0,17.0,-4.0,-6.0,-3.0,-4.0,-1.0,0.26700806617736816
132,-84.0,75.0,76.0,1.0,-4282.0,-9174.0,-6311.0,-11231.0,-2.0,-2.0,3.0,1.0,1.0,6.0,4.0,0.0,0.26901674270629883
133,-98.0,85.0,81.0,1.0,-4283.0,-9163.0,-6306.0,-11242.0,-2.0,-2.0,3.0,1.0,1.0,6.0,4.0,0.0,0.27081966400146484
134,-98.0,85.0,81.0,1.0,-4283.0,-9163.0,-6306.0,-11242.0,-2.0,-8.0,-2.0,3.0,0.0,-18.0,-5.0,-3.0,0.2726900577545166
135,-98.0,85.0,81.0,1.0,-4283.0,-9163.0,-6306.0,-11242.0,1.0,1.0,0.0,-1.0,-1.0,0.0,0.0,-1.0,0.27446722984313965
136,-145.0,68.0,76.0,1.0,-4292.0,-9148.0,-6293.0,-11258.0,1.0,1.0,0.0,-1.0,-1.0,0.0,0.0,-1.0,0.2762486934661865
137,-145.0,68.0,76.0,1.0,-4292.0,-9148.0,-6293.0,-11258.0,1.0,2.0,-2.0,-3.0,-1.0,2.0,0.0,-1.0,0.278087854385376
138,-145.0,68.0,76.0,1.0,-4292.0,-9148.0,-6293.0,-11258.0,-1.0,-1.0,6.0,5.0,2.0,-5.0,-2.0,-1.0,0.27986979484558105
139,-202.0,95.0,106.0,1.0,-4300.0,-9127.0,-6267.0,-11287.0,-1.0,-1.0,6.0,5.0,2.0,-5.0,-2.0,-1.0,0.281635046005249
140,-202.0,95.0,106.0,1.0,-4300.0,-9127.0,-6267.0,-11287.0,-2.0,-1.0,1.0,4.0,3.0,0.0,0.0,-3.0,0.28348350524902344
141,-202.0,95.0,106.0,1.0,-4300.0,-9127.0,-6267.0,-11287.0,-1.0,0.0,0.0,-1.0,-3.0,1.0,0.0,-1.0,0.2863917350769043
142,-294.0,110.0,157.0,1.0,-4319.0,-9090.0,-6223.0,-11334.0,-1.0,0.0,0.0,-1.0,-3.0,1.0,0.0,-1.0,0.2892942428588867
143,-294.0,110.0,157.0,1.0,-4319.0,-9090.0,-6223.0,-11334.0,-1.0,-3.0,-4.0,-3.0,0.0,4.0,-1.0,-1.0,0.29118824005126953
144,-294.0,110.0,157.0,1.0,-4319.0,-9090.0,-6223.0,-11334.0,1.0,0.0,0.0,0.0,-2.0,-2.0,-2.0,-2.0,0.29303646087646484
145,-460.0,23.0,246.0,1.0,-4356.0,-9056.0,-6151.0,-11386.0,1.0,0.0,0.0,0.0,-2.0,-2.0,-2.0,-2.0,0.2948143482208252
146,-460.0,23.0,246.0,1.0,-4356.0,-9056.0,-6151.0,-11386.0,-1.0,-1.0,-3.0,-1.0,0.0,0.0,0.0,-2.0,0.2970411777496338
147,-460.0,23.0,246.0,1.0,-4356.0,-9056.0,-6151.0,-11386.0,0.0,0.0,2.0,0.0,0.0,-2.0,-3.0,0.0,0.29941368103027344
148,-740.0,-41.0,391.0,1.0,-4403.0,-9029.0,-6024.0,-11458.0,0.0,0.0,2.0,0.0,0.0,-2.0,-3.0,0.0,0.30143165588378906
149,-740.0,-41.0,391.0,1.0,-4403.0,-9029.0,-6024.0,-11458.0,-3.0,-5.0,-5.0,-2.0,-3.0,-2.0,0.0,-1.0,0.30338525772094727
150,-740.0,-41.0,391.0,1.0,-4403.0,-9029.0,-6024.0,-11458.0,0.0,0.0,-16.0,-5.0,-4.0,5.0,0.0,0.0,0.3052542209625244
151,-951.0,-43.0,532.0,1.0,-4443.0,-9011.0,-5855.0,-11543.0,0.0,0.0,-16.0,-5.0,-4.0,5.0,0.0,0.0,0.30707526206970215
152,-951.0,-43.0,532.0,1.0,-4443.0,-9011.0,-5855.0,-11543.0,0.0,-1.0,7.0,2.0,1.0,0.0,2.0,0.0,0.3099701404571533
153,-951.0,-43.0,532.0,1.0,-4443.0,-9011.0,-5855.0,-11543.0,-2.0,-4.0,2.0,4.0,-1.0,-1.0,0.0,-1.0,0.3129231929779053
154,-1050.0,26.0,621.0,1.0,-4466.0,-8995.0,-5664.0,-11641.0,-2.0,-4.0,2.0,4.0,-1.0,-1.0,0.0,-1.0,0.3147757053375244
155,-1050.0,26.0,621.0,1.0,-4466.0,-8995.0,-5664.0,-11641.0,1.0,0.0,-4.0,-3.0,-2.0,5.0,-1.0,0.0,0.31673336029052734
156,-1050.0,26.0,621.0,1.0,-4466.0,-8995.0,-5664.0,-11641.0,-1.0,1.0,1.0,0.0,0.0,-2.0,0.0,-1.0,0.31853508949279785
157,-975.0,116.0,663.0,1.0,-4464.0,-8980.0,-5476.0,-11744.0,-1.0,1.0,1.0,0.0,0.0,-2.0,0.0,-1.0,0.3203704357147217
158,-975.0,116.0,663.0,1.0,-4464.0,-8980.0,-5476.0,-11744.0,1.0,0.0,0.0,1.0,3.0,-1.0,0.0,0.0,0.3222804069519043
159,-975.0,116.0,663.0,1.0,-4464.0,-8980.0,-5476.0,-11744.0,-1.0,0.0,-1.0,-2.0,0.0,-4.0,0.0,-1.0,0.3241267204284668
160,-729.0,166.0,638.0,1.0,-4432.0,-8975.0,-5324.0,-11829.0,-1.0,0.0,-1.0,-2.0,0.0,-4.0,0.0,-1.0,0.3264942169189453
161,-729.0,166.0,638.0,1.0,-4432.0,-8975.0,-5324.0,-11829.0,2.0,-2.0,1.0,3.0,-1.0,-1.0,-1.0,1.0,0.3287374973297119
162,-729.0,166.0,638.0,1.0,-4432.0,-8975.0,-5324.0,-11829.0,-2.0,-1.0,1.0,1.0,27.0,4.0,1.0,-2.0,0.3306889533996582
163,-513.0,263.0,578.0,1.0,-4380.0,-8965.0,-5209.0,-11908.0,-2.0,-1.0,1.0,1.0,27.0,4.0,1.0,-2.0,0.33277153968811035
164,-513.0,263.0,578.0,1.0,-4380.0,-8965.0,-5209.0,-11908.0,-2.0,-1.0,-3.0,-2.0,6.0,-7.0,-3.0,-3.0,0.33492207527160645
165,-513.0,263.0,578.0,1.0,-4380.0,-8965.0,-5209.0,-11908.0,-3.0,-2.0,1.0,-3.0,-15.0,-5.0,-1.0,0.0,0.3369297981262207
166,-285.0,302.0,480.0,1.0,-4314.0,-8956.0,-5133.0,-11971.0,-3.0,-2.0,1.0,-3.0,-15.0,-5.0,-1.0,0.0,0.33874940872192383
167,-285.0,302.0,480.0,1.0,-4314.0,-8956.0,-5133.0,-11971.0,-1.0,-1.0,-3.0,-1.0,1.0,-1.0,-1.0,0.0,0.340625524520874
168,-285.0,302.0,480.0,1.0,-4314.0,-8956.0,-5133.0,-11971.0,2.0,1.0,1.0,3.0,9.0,4.0,0.0,0.0,0.34241175651550293
169,-68.0,387.0,295.0,1.0,-4236.0,-8944.0,-5097.0,-12023.0,2.0,1.0,1.0,3.0,9.0,4.0,0.0,0.0,0.34423160552978516
170,-68.0,387.0,295.0,1.0,-4236.0,-8944.0,-5097.0,-12023.0,1.0,0.0,-1.0,1.0,1.0,-11.0,-1.0,-1.0,0.34609198570251465
171,-68.0,387.0,295.0,1.0,-4236.0,-8944.0,-5097.0,-12023.0,-1.0,-1.0,-1.0,-3.0,-4.0,-5.0,-1.0,-1.0,0.34788084030151367
172,258.0,462.0,160.0,1.0,-4136.0,-8933.0,-5118.0,-12056.0,-1.0,-1.0,-1.0,-3.0,-4.0,-5.0,-1.0,-1.0,0.3497161865234375
173,258.0,462.0,160.0,1.0,-4136.0,-8933.0,-5118.0,-12056.0,0.0,1.0,-4.0,-11.0,-7.0,2.0,-1.0,0.0,0.3516273498535156
174,258.0,462.0,160.0,1.0,-4136.0,-8933.0,-5118.0,-12056.0,-4.0,-2.0,0.0,0.0,-8.0,-14.0,-11.0,-23.0,0.35340356826782227
175,621.0,463.0,21.0,1.0,-4023.0,-8932.0,-5209.0,-12057.0,-4.0,-2.0,0.0,0.0,-8.0,-14.0,-11.0,-23.0,0.3552227020263672
176,621.0,463.0,21.0,1.0,-4023.0,-8932.0,-5209.0,-12057.0,-3.0,-8.0,-5.0,5.0,1.0,-2.0,-2.0,-5.0,0.3572096824645996
177,621.0,463.0,21.0,1.0,-4023.0,-8932.0,-5209.0,-12057.0,0.0,-4.0,-16.0,-1.0,6.0,-6.0,-1.0,-1.0,0.3592567443847656
178,-79.0,-469.0,174.0,1.0,-3410.0,-9588.0,-5258.0,-11716.0,0.0,-4.0,-16.0,-1.0,6.0,-6.0,-1.0,-1.0,0.3612630367279053
179,-79.0,-469.0,174.0,1.0,-3410.0,-9588.0,-5258.0,-11716.0,3.0,4.0,-1.0,-33.0,47.0,13.0,6.0,3.0,0.3654139041900635
180,-79.0,-469.0,174.0,1.0,-3410.0,-9588.0,-5258.0,-11716.0,-7.0,1.0,10.0,25.0,-25.0,-29.0,-7.0,-5.0,0.36721062660217285
181,0.0,-472.0,106.0,1.0,-3417.0,-9662.0,-5225.0,-11668.0,-7.0,1.0,10.0,25.0,-25.0,-29.0,-7.0,-5.0,0.38103628158569336
182,0.0,-472.0,106.0,1.0,-3417.0,-9662.0,-5225.0,-11668.0,1.0,1.0,-12.0,-58.0,-24.0,-6.0,0.0,-1.0,0.38991427421569824
183,0.0,-472.0,106.0,1.0,-3417.0,-9662.0,-5225.0,-11668.0,5.0,9.0,-10.0,-43.0,33.0,15.0,2.0,3.0,0.3933272361755371
184,-46.0,-564.0,47.0,1.0,-3447.0,-9738.0,-5195.0,-11609.0,5.0,9.0,-10.0,-43.0,33.0,15.0,2.0,3.0,0.4041426181793213
185,-46.0,-564.0,47.0,1.0,-3447.0,-9738.0,-5195.0,-11609.0,-2.0,0.0,-17.0,-50.0,-12.0,-7.0,-3.0,-3.0,0.4060542583465576
186,-46.0,-564.0,47.0,1.0,-3447.0,-9738.0,-5195.0,-11609.0,0.0,2.0,-1.0,-6.0,54.0,5.0,-1.0,0.0,0.40788888931274414
187,-175.0,-398.0,58.0,1.0,-3471.0,-9784.0,-5137.0,-11589.0,0.0,2.0,-1.0,-6.0,54.0,5.0,-1.0,0.0,0.42752909660339355
188,-175.0,-398.0,58.0,1.0,-3471.0,-9784.0,-5137.0,-11589.0,-6.0,-10.0,-25.0,-27.0,-16.0,-8.0,-4.0,-5.0,0.43087339401245117
189,-175.0,-398.0,58.0,1.0,-3471.0,-9784.0,-5137.0,-11589.0,-4.0,-12.0,-8.0,3.0,35.0,10.0,3.0,-1.0,0.4338493347167969
190,-80.0,-362.0,95.0,1.0,-3473.0,-9830.0,-5079.0,-11574.0,-4.0,-12.0,-8.0,3.0,35.0,10.0,3.0,-1.0,0.4410092830657959
191,-80.0,-362.0,95.0,1.0,-3473.0,-9830.0,-5079.0,-11574.0,2.0,3.0,4.0,13.0,12.0,1.0,-2.0,0.0,0.4428861141204834
192,-80.0,-362.0,95.0,1.0,-3473.0,-9830.0,-5079.0,-11574.0,0.0,1.0,9.0,25.0,-10.0,10.0,4.0,1.0,0.44775843620300293
193,-63.0,-487.0,80.0,1.0,-3484.0,-9888.0,-5020.0,-11548.0,0.0,1.0,9.0,25.0,-10.0,10.0,4.0,1.0,0.465576171875
194,-63.0,-487.0,80.0,1.0,-3484.0,-9888.0,-5020.0,-11548.0,0.0,3.0,12.0,5.0,-61.0,-2.0,1.0,-1.0,0.46887898445129395
195,-63.0,-487.0,80.0,1.0,-3484.0,-9888.0,-5020.0,-11548.0,-4.0,-9.0,-4.0,-11.0,-37.0,-8.0,-4.0,-2.0,0.47202634811401367
196,35.0,-282.0,106.0,1.0,-3486.0,-9922.0,-5000.0,-11527.0,-4.0,-9.0,-4.0,-11.0,-37.0,-8.0,-4.0,-2.0,0.4785761833190918
197,35.0,-282.0,106.0,1.0,-3486.0,-9922.0,-5000.0,-11527.0,0.0,0.0,17.0,31.0,10.0,2.0,1.0,3.0,0.48519349098205566
198,35.0,-282.0,106.0,1.0,-3486.0,-9922.0,-5000.0,-11527.0,1.0,6.0,19.0,-19.0,-48.0,-16.0,-6.0,-3.0,0.49327683448791504
199,-524.0,-162.0,234.0,1.0,-3525.0,-9919.0,-4892.0,-11564.0,1.0,6.0,19.0,-19.0,-48.0,-16.0,-6.0,-3.0,0.5108451843261719
200,-524.0,-162.0,234.0,1.0,-3525.0,-9919.0,-4892.0,-11564.0,-1.0,0.0,0.0,17.0,-1.0,-1.0,-1.0,-1.0,0.5158042907714844
201,-524.0,-162.0,234.0,1.0,-3525.0,-9919.0,-4892.0,-11564.0,2.0,-1.0,-20.0,-7.0,12.0,19.0,7.0,4.0,0.5192394256591797
202,-470.0,-223.0,143.0,1.0,-3543.0,-9942.0,-4774.0,-11588.0,2.0,-1.0,-20.0,-7.0,12.0,19.0,7.0,4.0,0.5241782665252686
203,-470.0,-223.0,143.0,1.0,-3543.0,-9942.0,-4774.0,-11588.0,0.0,3.0,9.0,24.0,-13.0,-10.0,-3.0,0.0,0.5263395309448242
204,-470.0,-223.0,143.0,1.0,-3543.0,-9942.0,-4774.0,-11588.0,3.0,4.0,-10.0,-74.0,-13.0,0.0,-3.0,1.0,0.5282585620880127
205,80.0,-114.0,127.0,1.0,-3511.0,-9970.0,-4750.0,-11583.0,3.0,4.0,-10.0,-74.0,-13.0,0.0,-3.0,1.0,0.537700891494751
206,80.0,-114.0,127.0,1.0,-3511.0,-9970.0,-4750.0,-11583.0,-1.0,-2.0,8.0,38.0,9.0,9.0,-1.0,-1.0,0.5469973087310791
207,80.0,-114.0,127.0,1.0,-3511.0,-9970.0,-4750.0,-11583.0,-1.0,-2.0,-4.0,-29.0,-12.0,0.0,4.0,-1.0,0.5490286350250244
208,-45.0,-14.0,54.0,1.0,-3494.0,-9986.0,-4726.0,-11585.0,-1.0,-2.0,-4.0,-29.0,-12.0,0.0,4.0,-1.0,0.5617389678955078
209,-45.0,-14.0,54.0,1.0,-3494.0,-9986.0,-4726.0,-11585.0,-3.0,-2.0,-21.0,-57.0,9.0,-14.0,-7.0,-3.0,0.5656933784484863
210,-45.0,-14.0,54.0,1.0,-3494.0,-9986.0,-4726.0,-11585.0,-2.0,-6.0,-12.0,4.0,34.0,5.0,-3.0,-1.0,0.569209098815918
211,-124.0,119.0,-24.0,1.0,-3494.0,-9972.0,-4709.0,-11604.0,-2.0,-6.0,-12.0,4.0,34.0,5.0,-3.0,-1.0,0.592860221862793
212,-124.0,119.0,-24.0,1.0,-3494.0,-9972.0,-4709.0,-11604.0,-2.0,-6.0,-11.0,33.0,-5.0,-5.0,-1.0,-1.0,0.596423864364624
213,-124.0,119.0,-24.0,1.0,-3494.0,-9972.0,-4709.0,-11604.0,1.0,5.0,-4.0,32.0,-57.0,0.0,1.0,1.0,0.5998015403747559
214,-9.0,150.0,-55.0,1.0,-3479.0,-9959.0,-4706.0,-11620.0,1.0,5.0,-4.0,32.0,-57.0,0.0,1.0,1.0,0.6031832695007324
215,-9.0,150.0,-55.0,1.0,-3479.0,-9959.0,-4706.0,-11620.0,1.0,3.0,11.0,76.0,24.0,-14.0,-10.0,-4.0,0.6066164970397949
216,-9.0,150.0,-55.0,1.0,-3479.0,-9959.0,-4706.0,-11620.0,-3.0,-8.0,1.0,53.0,27.0,8.0,0.0,-1.0,0.6086814403533936
217,84.0,198.0,-86.0,1.0,-3460.0,-9939.0,-4724.0,-11636.0,-3.0,-8.0,1.0,53.0,27.0,8.0,0.0,-1.0,0.6208131313323975
218,84.0,198.0,-86.0,1.0,-3460.0,-9939.0,-4724.0,-11636.0,8.0,18.0,42.0,-9.0,4.0,14.0,6.0,6.0,0.622673749923706
219,84.0,198.0,-86.0,1.0,-3460.0,-9939.0,-4724.0,-11636.0,-3.0,-4.0,-10.0,-101.0,27.0,1.0,1.0,-1.0,0.6352541446685791
220,74.0,236.0,-106.0,1.0,-3442.0,-9912.0,-4741.0,-11658.0,-3.0,-4.0,-10.0,-101.0,27.0,1.0,1.0,-1.0,0.6435151100158691
221,74.0,236.0,-106.0,1.0,-3442.0,-9912.0,-4741.0,-11658.0,-3.0,-7.0,-8.0,-9.0,21.0,-4.0,1.0,-1.0,0.6465842723846436
222,74.0,236.0,-106.0,1.0,-3442.0,-9912.0,-4741.0,-11658.0,-2.0,2.0,-19.0,21.0,1.0,-9.0,-3.0,-1.0,0.6588590145111084
223,169.0,228.0,-158.0,1.0,-3422.0,-9888.0,-4779.0,-11668.0,-2.0,2.0,-19.0,21.0,1.0,-9.0,-3.0,-1.0,0.6765191555023193
224,169.0,228.0,-158.0,1.0,-3422.0,-9888.0,-4779.0,-11668.0,-3.0,-7.0,-18.0,-99.0,-28.0,-4.0,-1.0,-3.0,0.6823585033416748
225,169.0,228.0,-158.0,1.0,-3422.0,-9888.0,-4779.0,-11668.0,0.0,-7.0,6.0,24.0,-10.0,-4.0,0.0,0.0,0.6865787506103516
226,143.0,208.0,-239.0,1.0,-3419.0,-9860.0,-4826.0,-11673.0,0.0,-7.0,6.0,24.0,-10.0,-4.0,0.0,0.0,0.6894001960754395
227,143.0,208.0,-239.0,1.0,-3419.0,-9860.0,-4826.0,-11673.0,1.0,3.0,2.0,21.0,0.0,3.0,1.0,1.0,0.6912527084350586
228,143.0,208.0,-239.0,1.0,-3419.0,-9860.0,-4826.0,-11673.0,0.0,4.0,1.0,5.0,-31.0,-9.0,-4.0,0.0,0.693030834197998
229,225.0,236.0,-291.0,1.0,-3407.0,-9831.0,-4884.0,-11677.0,0.0,4.0,1.0,5.0,-31.0,-9.0,-4.0,0.0,0.7032110691070557
230,225.0,236.0,-291.0,1.0,-3407.0,-9831.0,-4884.0,-11677.0,-3.0,-3.0,-8.0,-46.0,-35.0,-2.0,-3.0,-2.0,0.7051846981048584
231,225.0,236.0,-291.0,1.0,-3407.0,-9831.0,-4884.0,-11677.0,0.0,0.0,16.0,44.0,3.0,3.0,-2.0,-1.0,0.710158109664917
232,392.0,229.0,-324.0,1.0,-3388.0,-9805.0,-4975.0,-11666.0,0.0,0.0,16.0,44.0,3.0,3.0,-2.0,-1.0,0.7179281711578369
233,392.0,229.0,-324.0,1.0,-3388.0,-9805.0,-4975.0,-11666.0,-2.0,-4.0,-3.0,103.0,22.0,1.0,12.0,2.0,0.7259423732757568
234,392.0,229.0,-324.0,1.0,-3388.0,-9805.0,-4975.0,-11666.0,1.0,1.0,4.0,48.0,10.0,-3.0,-6.0,0.0,0.7280919551849365
235,438.0,243.0,-342.0,1.0,-3377.0,-9775.0,-5087.0,-11646.0,1.0,1.0,4.0,48.0,10.0,-3.0,-6.0,0.0,0.7436978816986084
236,438.0,243.0,-342.0,1.0,-3377.0,-9775.0,-5087.0,-11646.0,-6.0,-10.0,-31.0,-73.0,-59.0,-26.0,3.0,-5.0,0.7468738555908203
237,438.0,243.0,-342.0,1.0,-3377.0,-9775.0,-5087.0,-11646.0,-3.0,-2.0,0.0,9.0,-8.0,4.0,-8.0,-6.0,0.749863862991333
238,303.0,248.0,-317.0,1.0,-3380.0,-9737.0,-5183.0,-11635.0,-3.0,-2.0,0.0,9.0,-8.0,4.0,-8.0,-6.0,0.7628777027130127
239,303.0,248.0,-317.0,1.0,-3380.0,-9737.0,-5183.0,-11635.0,4.0,4.0,3.0,4.0,14.0,12.0,15.0,11.0,0.7657196521759033
240,303.0,248.0,-317.0,1.0,-3380.0,-9737.0,-5183.0,-11635.0,-2.0,-5.0,-17.0,-66.0,8.0,-5.0,30.0,5.0,0.7708337306976318
241,81.0,219.0,-293.0,1.0,-3405.0,-9689.0,-5239.0,-11643.0,-2.0,-5.0,-17.0,-66.0,8.0,-5.0,30.0,5.0,0.7959105968475342
242,81.0,219.0,-293.0,1.0,-3405.0,-9689.0,-5239.0,-11643.0,-2.0,-4.0,-10.0,-77.0,-19.0,-8.0,-23.0,-9.0,0.8002493381500244
243,81.0,219.0,-293.0,1.0,-3405.0,-9689.0,-5239.0,-11643.0,-2.0,0.0,-3.0,-25.0,-13.0,2.0,0.0,-1.0,0.8044521808624268
244,117.0,180.0,-247.0,1.0,-3418.0,-9651.0,-5288.0,-11648.0,-2.0,0.0,-3.0,-25.0,-13.0,2.0,0.0,-1.0,0.8066768646240234
245,117.0,180.0,-247.0,1.0,-3418.0,-9651.0,-5288.0,-11648.0,1.0,1.0,3.0,61.0,11.0,9.0,6.0,3.0,0.8087234497070312
246,117.0,180.0,-247.0,1.0,-3418.0,-9651.0,-5288.0,-11648.0,1.0,2.0,11.0,39.0,9.0,0.0,0.0,-2.0,0.8105237483978271
247,136.0,73.0,-269.0,1.0,-3441.0,-9623.0,-5341.0,-11640.0,1.0,2.0,11.0,39.0,9.0,0.0,0.0,-2.0,0.8311285972595215
248,136.0,73.0,-269.0,1.0,-3441.0,-9623.0,-5341.0,-11640.0,-3.0,-4.0,3.0,84.0,22.0,4.0,-12.0,-5.0,0.8330526351928711
249,136.0,73.0,-269.0,1.0,-3441.0,-9623.0,-5341.0,-11640.0,0.0,-3.0,-3.0,24.0,-14.0,-2.0,-10.0,-3.0,0.8348486423492432
250,-68.0,-33.0,-250.0,1.0,-3495.0,-9602.0,-5370.0,-11629.0,0.0,-3.0,-3.0,24.0,-14.0,-2.0,-10.0,-3.0,0.846393346786499
251,-68.0,-33.0,-250.0,1.0,-3495.0,-9602.0,-5370.0,-11629.0,0.0,4.0,-4.0,6.0,3.0,2.0,3.0,0.0,0.8488211631774902
252,-68.0,-33.0,-250.0,1.0,-3495.0,-9602.0,-5370.0,-11629.0,-1.0,-1.0,7.0,6.0,12.0,7.0,2.0,5.0,0.8518106937408447
253,-266.0,-26.0,-117.0,1.0,-3552.0,-9576.0,-5356.0,-11639.0,-1.0,-1.0,7.0,6.0,12.0,7.0,2.0,5.0,0.8612830638885498
254,-266.0,-26.0,-117.0,1.0,-3552.0,-9576.0,-5356.0,-11639.0,3.0,11.0,30.0,0.0,5.0,-20.0,-5.0,6.0,0.8694782257080078
255,-266.0,-26.0,-117.0,1.0,-3552.0,-9576.0,-5356.0,-11639.0,-2.0,1.0,-1.0,-18.0,-15.0,-37.0,-6.0,-8.0,0.8723368644714355
256,-373.0,37.0,-44.0,1.0,-3600.0,-9551.0,-5321.0,-11660.0,-2.0,1.0,-1.0,-18.0,-15.0,-37.0,-6.0,-8.0,0.8841097354888916
257,-373.0,37.0,-44.0,1.0,-3600.0,-9551.0,-5321.0,-11660.0,-3.0,-8.0,-14.0,-12.0,6.0,37.0,-5.0,5.0,0.888592004776001
258,-373.0,37.0,-44.0,1.0,-3600.0,-9551.0,-5321.0,-11660.0,2.0,-4.0,8.0,12.0,1.0,44.0,22.0,6.0,0.8983709812164307
259,-353.0,21.0,-8.0,1.0,-3626.0,-9541.0,-5268.0,-11685.0,2.0,-4.0,8.0,12.0,1.0,44.0,22.0,6.0,0.9077868461608887
260,-353.0,21.0,-8.0,1.0,-3626.0,-9541.0,-5268.0,-11685.0,-9.0,-6.0,-1.0,-21.0,-7.0,21.0,-19.0,-33.0,0.9113013744354248
261,-353.0,21.0,-8.0,1.0,-3626.0,-9541.0,-5268.0,-11685.0,6.0,8.0,24.0,-4.0,5.0,-14.0,-9.0,1.0,0.9151852130889893
262,-186.0,-14.0,-8.0,1.0,-3631.0,-9545.0,-5228.0,-11698.0,6.0,8.0,24.0,-4.0,5.0,-14.0,-9.0,1.0,0.9203438758850098
263,-186.0,-14.0,-8.0,1.0,-3631.0,-9545.0,-5228.0,-11698.0,0.0,1.0,-3.0,1.0,0.0,24.0,15.0,23.0,0.9303703308105469
264,-186.0,-14.0,-8.0,1.0,-3631.0,-9545.0,-5228.0,-11698.0,0.0,-7.0,-9.0,6.0,5.0,18.0,-2.0,-17.0,0.9341309070587158
265,24.0,-82.0,-68.0,1.0,-3623.0,-9566.0,-5220.0,-11686.0,0.0,-7.0,-9.0,6.0,5.0,18.0,-2.0,-17.0,0.9432249069213867
266,24.0,-82.0,-68.0,1.0,-3623.0,-9566.0,-5220.0,-11686.0,1.0,6.0,12.0,5.0,-6.0,-9.0,1.0,-7.0,0.9458417892456055
267,24.0,-82.0,-68.0,1.0,-3623.0,-9566.0,-5220.0,-11686.0,0.0,-1.0,-4.0,-4.0,-12.0,-10.0,4.0,-4.0,0.9497895240783691
268,277.0,-167.0,-125.0,1.0,-3608.0,-9608.0,-5261.0,-11638.0,0.0,-1.0,-4.0,-4.0,-12.0,-10.0,4.0,-4.0,0.9665353298187256
269,277.0,-167.0,-125.0,1.0,-3608.0,-9608.0,-5261.0,-11638.0,0.0,-7.0,-7.0,4.0,16.0,10.0,22.0,-19.0,0.9684042930603027
270,277.0,-167.0,-125.0,1.0,-3608.0,-9608.0,-5261.0,-11638.0,-9.0,-2.0,-12.0,-16.0,-19.0,-17.0,-16.0,-7.0,0.9701817035675049
271,298.0,-112.0,-161.0,1.0,-3602.0,-9639.0,-5324.0,-11586.0,-9.0,-2.0,-12.0,-16.0,-19.0,-17.0,-16.0,-7.0,0.9799356460571289
272,298.0,-112.0,-161.0,1.0,-3602.0,-9639.0,-5324.0,-11586.0,2.0,1.0,5.0,4.0,1.0,-46.0,-1.0,11.0,0.9887831211090088
273,298.0,-112.0,-161.0,1.0,-3602.0,-9639.0,-5324.0,-11586.0,-1.0,0.0,-7.0,-27.0,-4.0,-17.0,-11.0,-4.0,0.9917500019073486
274,144.0,-23.0,-134.0,1.0,-3606.0,-9649.0,-5367.0,-11557.0,-1.0,0.0,-7.0,-27.0,-4.0,-17.0,-11.0,-4.0,1.004324197769165
275,144.0,-23.0,-134.0,1.0,-3606.0,-9649.0,-5367.0,-11557.0,0.0,-7.0,-9.0,-25.0,-5.0,9.0,1.0,4.0,1.0080702304840088
276,144.0,-23.0,-134.0,1.0,-3606.0,-9649.0,-5367.0,-11557.0,-1.0,2.0,4.0,0.0,-5.0,0.0,-3.0,6.0,1.01214599609375
277,210.0,10.0,-148.0,1.0,-3608.0,-9651.0,-5422.0,-11529.0,-1.0,2.0,4.0,0.0,-5.0,0.0,-3.0,6.0,1.0283949375152588
278,210.0,10.0,-148.0,1.0,-3608.0,-9651.0,-5422.0,-11529.0,-3.0,-1.0,4.0,12.0,4.0,-6.0,-2.0,0.0,1.0326590538024902
279,210.0,10.0,-148.0,1.0,-3608.0,-9651.0,-5422.0,-11529.0,-1.0,0.0,2.0,-1.0,-7.0,4.0,0.0,5.0,1.035834550857544
280,249.0,-4.0,-152.0,1.0,-3611.0,-9649.0,-5482.0,-11501.0,-1.0,0.0,2.0,-1.0,-7.0,4.0,0.0,5.0,1.0404913425445557
281,249.0,-4.0,-152.0,1.0,-3611.0,-9649.0,-5482.0,-11501.0,7.0,12.0,-4.0,14.0,-2.0,-22.0,-9.0,-2.0,1.048274040222168
282,249.0,-4.0,-152.0,1.0,-3611.0,-9649.0,-5482.0,-11501.0,3.0,7.0,7.0,5.0,4.0,24.0,8.0,4.0,1.0502383708953857
283,232.0,-43.0,-103.0,1.0,-3619.0,-9646.0,-5535.0,-11475.0,3.0,7.0,7.0,5.0,4.0,24.0,8.0,4.0,1.0633089542388916
284,232.0,-43.0,-103.0,1.0,-3619.0,-9646.0,-5535.0,-11475.0,-5.0,-7.0,-26.0,-6.0,-1.0,-20.0,-16.0,-7.0,1.06520414352417
285,232.0,-43.0,-103.0,1.0,-3619.0,-9646.0,-5535.0,-11475.0,5.0,4.0,9.0,8.0,7.0,12.0,2.0,0.0,1.0699632167816162
286,74.0,-120.0,-65.0,1.0,-3642.0,-9648.0,-5559.0,-11455.0,5.0,4.0,9.0,8.0,7.0,12.0,2.0,0.0,1.0873081684112549
287,74.0,-120.0,-65.0,1.0,-3642.0,-9648.0,-5559.0,-11455.0,-3.0,-9.0,-5.0,10.0,1.0,10.0,6.0,2.0,1.0904645919799805
288,74.0,-120.0,-65.0,1.0,-3642.0,-9648.0,-5559.0,-11455.0,3.0,1.0,-1.0,18.0,10.0,-14.0,1.0,0.0,1.093050241470337
289,17.0,-136.0,-45.0,1.0,-3666.0,-9651.0,-5565.0,-11442.0,3.0,1.0,-1.0,18.0,10.0,-14.0,1.0,0.0,1.1008801460266113
290,17.0,-136.0,-45.0,1.0,-3666.0,-9651.0,-5565.0,-11442.0,2.0,-4.0,-2.0,-1.0,1.0,3.0,-2.0,3.0,1.1029033660888672
291,17.0,-136.0,-45.0,1.0,-3666.0,-9651.0,-5565.0,-11442.0,-3.0,-10.0,-9.0,5.0,-12.0,0.0,-10.0,-5.0,1.107227087020874
292,-18.0,-195.0,-36.0,1.0,-3696.0,-9657.0,-5562.0,-11428.0,-3.0,-10.0,-9.0,5.0,-12.0,0.0,-10.0,-5.0,1.1233255863189697
293,-18.0,-195.0,-36.0,1.0,-3696.0,-9657.0,-5562.0,-11428.0,0.0,0.0,3.0,10.0,-6.0,-27.0,-1.0,1.0,1.1266436576843262
294,-18.0,-195.0,-36.0,1.0,-3696.0,-9657.0,-5562.0,-11428.0,-5.0,5.0,-14.0,-21.0,4.0,12.0,1.0,7.0,1.132450819015503
295,18.0,-221.0,-47.0,1.0,-3730.0,-9664.0,-5566.0,-11410.0,-5.0,5.0,-14.0,-21.0,4.0,12.0,1.0,7.0,1.154714584350586
296,18.0,-221.0,-47.0,1.0,-3730.0,-9664.0,-5566.0,-11410.0,6.0,-2.0,-4.0,22.0,-16.0,3.0,5.0,5.0,1.1649181842803955
297,18.0,-221.0,-47.0,1.0,-3730.0,-9664.0,-5566.0,-11410.0,-13.0,-13.0,-5.0,-1.0,-8.0,-4.0,-9.0,-3.0,1.1688101291656494
298,-64.0,-219.0,-52.0,1.0,-3770.0,-9669.0,-5559.0,-11396.0,-13.0,-13.0,-5.0,-1.0,-8.0,-4.0,-9.0,-3.0,1.1727213859558105
299,-64.0,-219.0,-52.0,1.0,-3770.0,-9669.0,-5559.0,-11396.0,12.0,14.0,17.0,4.0,12.0,17.0,-2.0,-7.0,1.1763355731964111
300,-64.0,-219.0,-52.0,1.0,-3770.0,-9669.0,-5559.0,-11396.0,-1.0,-1.0,4.0,2.0,2.0,-10.0,0.0,1.0,1.1783783435821533
301,-120.0,-157.0,-24.0,1.0,-3809.0,-9664.0,-5542.0,-11396.0,-1.0,-1.0,4.0,2.0,2.0,-10.0,0.0,1.0,1.183598279953003
302,-120.0,-157.0,-24.0,1.0,-3809.0,-9664.0,-5542.0,-11396.0,-19.0,-14.0,-11.0,-31.0,-2.0,26.0,-3.0,-10.0,1.1855003833770752
303,-120.0,-157.0,-24.0,1.0,-3809.0,-9664.0,-5542.0,-11396.0,9.0,26.0,26.0,-2.0,6.0,-5.0,6.0,1.0,1.1902706623077393
304,-167.0,-129.0,20.0,1.0,-3851.0,-9647.0,-5516.0,-11408.0,9.0,26.0,26.0,-2.0,6.0,-5.0,6.0,1.0,1.2058262825012207
305,-167.0,-129.0,20.0,1.0,-3851.0,-9647.0,-5516.0,-11408.0,13.0,16.0,19.0,-4.0,-6.0,5.0,6.0,1.0,1.2135701179504395
306,-167.0,-129.0,20.0,1.0,-3851.0,-9647.0,-5516.0,-11408.0,-4.0,-25.0,-26.0,-8.0,-6.0,41.0,8.0,1.0,1.215378999710083
307,-218.0,-181.0,-56.0,1.0,-3913.0,-9629.0,-5490.0,-11415.0,-4.0,-25.0,-26.0,-8.0,-6.0,41.0,8.0,1.0,1.2217226028442383
308,-218.0,-181.0,-56.0,1.0,-3913.0,-9629.0,-5490.0,-11415.0,24.0,8.0,-5.0,6.0,-7.0,-47.0,-19.0,-13.0,1.2246689796447754
309,-218.0,-181.0,-56.0,1.0,-3913.0,-9629.0,-5490.0,-11415.0,24.0,8.0,-5.0,6.0,-7.0,-47.0,-19.0,-13.0,1.2269561290740967
310,-218.0,-181.0,-56.0,1.0,-3913.0,-9629.0,-5490.0,-11415.0,10.0,-6.0,19.0,-60.0,-4.0,-7.0,-2.0,6.0,1.2436432838439941
311,-232.0,-100.0,-123.0,1.0,-3990.0,-9583.0,-5475.0,-11434.0,10.0,-6.0,19.0,-60.0,-4.0,-7.0,-2.0,6.0,1.2456140518188477
312,-232.0,-100.0,-123.0,1.0,-3990.0,-9583.0,-5475.0,-11434.0,-8.0,-5.0,-39.0,-71.0,-16.0,-4.0,2.0,-3.0,1.2477264404296875
313,-232.0,-100.0,-123.0,1.0,-3990.0,-9583.0,-5475.0,-11434.0,-25.0,-25.0,-26.0,-11.0,-9.0,-58.0,-11.0,-14.0,1.2497882843017578
314,-333.0,70.0,-170.0,1.0,-4083.0,-9499.0,-5464.0,-11477.0,-25.0,-25.0,-26.0,-11.0,-9.0,-58.0,-11.0,-14.0,1.2671873569488525
315,-333.0,70.0,-170.0,1.0,-4083.0,-9499.0,-5464.0,-11477.0,7.0,7.0,41.0,21.0,6.0,6.0,-2.0,2.0,1.2703278064727783
316,-333.0,70.0,-170.0,1.0,-4083.0,-9499.0,-5464.0,-11477.0,23.0,29.0,0.0,5.0,-5.0,-7.0,-2.0,5.0,1.2731528282165527
317,-414.0,239.0,-331.0,1.0,-4208.0,-9372.0,-5484.0,-11527.0,23.0,29.0,0.0,5.0,-5.0,-7.0,-2.0,5.0,1.2801704406738281
318,-414.0,239.0,-331.0,1.0,-4208.0,-9372.0,-5484.0,-11527.0,-35.0,-26.0,-41.0,18.0,14.0,19.0,7.0,-3.0,1.2883479595184326
319,-414.0,239.0,-331.0,1.0,-4208.0,-9372.0,-5484.0,-11527.0,9.0,5.0,6.0,15.0,5.0,-75.0,-16.0,3.0,1.2901382446289062
320,-422.0,448.0,-496.0,1.0,-4346.0,-9218.0,-5552.0,-11566.0,9.0,5.0,6.0,15.0,5.0,-75.0,-16.0,3.0,1.3033840656280518
321,-422.0,448.0,-496.0,1.0,-4346.0,-9218.0,-5552.0,-11566.0,6.0,9.0,10.0,0.0,-1.0,-13.0,-3.0,8.0,1.30531644821167
322,-422.0,448.0,-496.0,1.0,-4346.0,-9218.0,-5552.0,-11566.0,-6.0,36.0,25.0,39.0,9.0,64.0,24.0,15.0,1.3104314804077148
323,-588.0,818.0,-619.0,1.0,-4478.0,-9021.0,-5629.0,-11634.0,-6.0,36.0,25.0,39.0,9.0,64.0,24.0,15.0,1.3272302150726318
324,-588.0,818.0,-619.0,1.0,-4478.0,-9021.0,-5629.0,-11634.0,-36.0,-36.0,0.0,21.0,11.0,17.0,-11.0,-15.0,1.3304286003112793
325,-588.0,818.0,-619.0,1.0,-4478.0,-9021.0,-5629.0,-11634.0,0.0,-17.0,-26.0,21.0,-2.0,-23.0,-17.0,-16.0,1.3329546451568604
326,-651.0,1018.0,-980.0,1.0,-4636.0,-8760.0,-5705.0,-11734.0,0.0,-17.0,-26.0,21.0,-2.0,-23.0,-17.0,-16.0,1.3402695655822754
327,-651.0,1018.0,-980.0,1.0,-4636.0,-8760.0,-5705.0,-11734.0,-6.0,21.0,8.0,-21.0,-2.0,-40.0,-1.0,7.0,1.3497836589813232
328,-651.0,1018.0,-980.0,1.0,-4636.0,-8760.0,-5705.0,-11734.0,-15.0,-9.0,-5.0,-31.0,-21.0,18.0,0.0,-11.0,1.3530848026275635
329,-361.0,948.0,-1631.0,1.0,-4828.0,-8505.0,-5863.0,-11767.0,-15.0,-9.0,-5.0,-31.0,-21.0,18.0,0.0,-11.0,1.372419834136963
330,-361.0,948.0,-1631.0,1.0,-4828.0,-8505.0,-5863.0,-11767.0,43.0,-15.0,-17.0,13.0,3.0,4.0,0.0,4.0,1.3756041526794434
331,-361.0,948.0,-1631.0,1.0,-4828.0,-8505.0,-5863.0,-11767.0,7.0,-17.0,-26.0,14.0,10.0,-8.0,-1.0,8.0,1.379626750946045
332,-513.0,953.0,-2226.0,1.0,-5115.0,-8189.0,-6058.0,-11770.0,7.0,-17.0,-26.0,14.0,10.0,-8.0,-1.0,8.0,1.386125087738037
333,-513.0,953.0,-2226.0,1.0,-5115.0,-8189.0,-6058.0,-11770.0,-11.0,-2.0,-5.0,-8.0,-5.0,10.0,5.0,5.0,1.3880743980407715
334,-513.0,953.0,-2226.0,1.0,-5115.0,-8189.0,-6058.0,-11770.0,11.0,8.0,6.0,15.0,-8.0,18.0,2.0,-1.0,1.3898472785949707
335,-878.0,1209.0,-2654.0,1.0,-5468.0,-7782.0,-6249.0,-11788.0,11.0,8.0,6.0,15.0,-8.0,18.0,2.0,-1.0,1.4005241394042969
336,-878.0,1209.0,-2654.0,1.0,-5468.0,-7782.0,-6249.0,-11788.0,32.0,24.0,-71.0,-22.0,13.0,12.0,6.0,12.0,1.4096901416778564
337,-878.0,1209.0,-2654.0,1.0,-5468.0,-7782.0,-6249.0,-11788.0,-20.0,-22.0,20.0,27.0,15.0,30.0,9.0,-7.0,1.412768840789795
338,-1291.0,1449.0,-3011.0,1.0,-5878.0,-7286.0,-6424.0,-11814.0,-20.0,-22.0,20.0,27.0,15.0,30.0,9.0,-7.0,1.4235730171203613
339,-1291.0,1449.0,-3011.0,1.0,-5878.0,-7286.0,-6424.0,-11814.0,-21.0,4.0,-8.0,-5.0,-35.0,-16.0,-5.0,-5.0,1.4270977973937988
340,-1291.0,1449.0,-3011.0,1.0,-5878.0,-7286.0,-6424.0,-11814.0,-1.0,-5.0,-5.0,-26.0,-12.0,-8.0,-2.0,3.0,1.4309933185577393
341,-1790.0,1591.0,-3277.0,1.0,-6324.0,-6730.0,-6549.0,-11845.0,-1.0,-5.0,-5.0,-26.0,-12.0,-8.0,-2.0,3.0,1.455599069595337
342,-1790.0,1591.0,-3277.0,1.0,-6324.0,-6730.0,-6549.0,-11845.0,-5.0,-3.0,50.0,10.0,16.0,8.0,-2.0,-2.0,1.459423303604126
343,-2527.0,1677.0,-3420.0,1.0,-6823.0,-6087.0,-6581.0,-11897.0,-5.0,-3.0,50.0,10.0,16.0,8.0,-2.0,-2.0,1.4631168842315674
344,-2527.0,1677.0,-3420.0,1.0,-6823.0,-6087.0,-6581.0,-11897.0,3.0,5.0,-41.0,-24.0,-3.0,11.0,0.0,-1.0,1.4701123237609863
345,-2527.0,1677.0,-3420.0,1.0,-6823.0,-6087.0,-6581.0,-11897.0,19.0,17.0,53.0,11.0,-8.0,2.0,-2.0,-5.0,1.472330093383789
346,-3126.0,1984.0,-3915.0,1.0,-7384.0,-5306.0,-6572.0,-11942.0,19.0,17.0,53.0,11.0,-8.0,2.0,-2.0,-5.0,1.4741897583007812
347,-3126.0,1984.0,-3915.0,1.0,-7384.0,-5306.0,-6572.0,-11942.0,14.0,-63.0,20.0,-23.0,14.0,-2.0,3.0,13.0,1.4834284782409668
348,-3126.0,1984.0,-3915.0,1.0,-7384.0,-5306.0,-6572.0,-11942.0,-26.0,-7.0,102.0,52.0,13.0,4.0,4.0,1.0,1.490433692932129
349,-3452.0,2379.0,-4592.0,1.0,-7993.0,-4379.0,-6564.0,-11929.0,-26.0,-7.0,102.0,52.0,13.0,4.0,4.0,1.0,1.4923090934753418
350,-3452.0,2379.0,-4592.0,1.0,-7993.0,-4379.0,-6564.0,-11929.0,-23.0,4.0,-7.0,-10.0,6.0,-8.0,-3.0,-3.0,1.505662441253662
351,-3452.0,2379.0,-4592.0,1.0,-7993.0,-4379.0,-6564.0,-11929.0,-17.0,-12.0,-40.0,-13.0,-1.0,13.0,2.0,-1.0,1.5074872970581055
352,-3573.0,2754.0,-5451.0,1.0,-8650.0,-3309.0,-6581.0,-11807.0,-17.0,-12.0,-40.0,-13.0,-1.0,13.0,2.0,-1.0,1.512535810470581
353,-3573.0,2754.0,-5451.0,1.0,-8650.0,-3309.0,-6581.0,-11807.0,3.0,5.0,-9.0,12.0,5.0,-10.0,-6.0,-3.0,1.5202605724334717
354,-3573.0,2754.0,-5451.0,1.0,-8650.0,-3309.0,-6581.0,-11807.0,12.0,8.0,-17.0,5.0,-14.0,1.0,1.0,1.0,1.5282008647918701
355,-4105.0,2914.0,-6250.0,1.0,-9358.0,-2090.0,-6528.0,-11572.0,12.0,8.0,-17.0,5.0,-14.0,1.0,1.0,1.0,1.530043363571167
356,-4105.0,2914.0,-6250.0,1.0,-9358.0,-2090.0,-6528.0,-11572.0,-3.0,-1.0,-11.0,13.0,-3.0,-4.0,0.0,-5.0,1.5434651374816895
357,-4105.0,2914.0,-6250.0,1.0,-9358.0,-2090.0,-6528.0,-11572.0,-10.0,-7.0,-10.0,-6.0,1.0,0.0,-2.0,-3.0,1.545274257659912
358,-4815.0,2758.0,-6738.0,1.0,-10076.0,-767.0,-6326.0,-11240.0,-10.0,-7.0,-10.0,-6.0,1.0,0.0,-2.0,-3.0,1.5512137413024902
359,-4815.0,2758.0,-6738.0,1.0,-10076.0,-767.0,-6326.0,-11240.0,15.0,45.0,35.0,-53.0,13.0,7.0,5.0,5.0,1.558563232421875
360,-4815.0,2758.0,-6738.0,1.0,-10076.0,-767.0,-6326.0,-11240.0,-8.0,-11.0,-16.0,-10.0,15.0,7.0,5.0,7.0,1.5653283596038818
361,-5724.0,2599.0,-6811.0,1.0,-10725.0,647.0,-5937.0,-10853.0,-8.0,-11.0,-16.0,-10.0,15.0,7.0,5.0,7.0,1.573669195175171
362,-5724.0,2599.0,-6811.0,1.0,-10725.0,647.0,-5937.0,-10853.0,-20.0,3.0,-21.0,8.0,-14.0,-7.0,-3.0,-4.0,1.5813238620758057
363,-5724.0,2599.0,-6811.0,1.0,-10725.0,647.0,-5937.0,-10853.0,11.0,-4.0,-26.0,-16.0,8.0,3.0,8.0,13.0,1.605773687362671
364,-6408.0,2531.0,-6573.0,1.0,-11233.0,2111.0,-5399.0,-10425.0,11.0,-4.0,-26.0,-16.0,8.0,3.0,8.0,13.0,1.609473466873169
365,-6408.0,2531.0,-6573.0,1.0,-11233.0,2111.0,-5399.0,-10425.0,-11.0,0.0,7.0,15.0,-14.0,3.0,-3.0,-14.0,1.6137816905975342
366,-6408.0,2531.0,-6573.0,1.0,-11233.0,2111.0,-5399.0,-10425.0,-22.0,-10.0,3.0,5.0,-2.0,22.0,4.0,-1.0,1.617232084274292
367,-6582.0,2658.0,-6294.0,1.0,-11579.0,3571.0,-4806.0,-9927.0,-22.0,-10.0,3.0,5.0,-2.0,22.0,4.0,-1.0,1.6190853118896484
368,-6582.0,2658.0,-6294.0,1.0,-11579.0,3571.0,-4806.0,-9927.0,1.0,-2.0,-1.0,2.0,-5.0,-37.0,-9.0,-3.0,1.6209721565246582
369,-6582.0,2658.0,-6294.0,1.0,-11579.0,3571.0,-4806.0,-9927.0,4.0,2.0,-3.0,-5.0,11.0,-14.0,0.0,-1.0,1.6255028247833252
370,-6393.0,3021.0,-6208.0,1.0,-11775.0,4967.0,-4254.0,-9329.0,4.0,2.0,-3.0,-5.0,11.0,-14.0,0.0,-1.0,1.6429576873779297
371,-6393.0,3021.0,-6208.0,1.0,-11775.0,4967.0,-4254.0,-9329.0,23.0,22.0,30.0,16.0,12.0,12.0,-1.0,5.0,1.6463074684143066
372,-6393.0,3021.0,-6208.0,1.0,-11775.0,4967.0,-4254.0,-9329.0,14.0,4.0,-2.0,-6.0,-3.0,1.0,-5.0,-12.0,1.6643052101135254
373,-5813.0,3071.0,-5908.0,1.0,-11858.0,6259.0,-3737.0,-8643.0,14.0,4.0,-2.0,-6.0,-3.0,1.0,-5.0,-12.0,1.6731810569763184
374,-5813.0,3071.0,-5908.0,1.0,-11858.0,6259.0,-3737.0,-8643.0,2.0,-14.0,-12.0,-1.0,-8.0,4.0,4.0,1.0,1.676361322402954
375,-5813.0,3071.0,-5908.0,1.0,-11858.0,6259.0,-3737.0,-8643.0,4.0,1.0,1.0,-6.0,7.0,4.0,-1.0,2.0,1.679337978363037
376,-4860.0,2702.0,-4956.0,1.0,-11836.0,7333.0,-3288.0,-7986.0,4.0,1.0,1.0,-6.0,7.0,4.0,-1.0,2.0,1.682504653930664
377,-4860.0,2702.0,-4956.0,1.0,-11836.0,7333.0,-3288.0,-7986.0,-2.0,-2.0,0.0,4.0,2.0,8.0,-12.0,1.0,1.6846458911895752
378,-4860.0,2702.0,-4956.0,1.0,-11836.0,7333.0,-3288.0,-7986.0,-3.0,-3.0,-8.0,-5.0,-5.0,-31.0,6.0,12.0,1.687243938446045
379,-3228.0,2060.0,-3884.0,1.0,-11822.0,8054.0,-2957.0,-7422.0,-3.0,-3.0,-8.0,-5.0,-5.0,-31.0,6.0,12.0,1.6926400661468506
380,-3228.0,2060.0,-3884.0,1.0,-11822.0,8054.0,-2957.0,-7422.0,-8.0,1.0,3.0,5.0,-40.0,52.0,8.0,28.0,1.700700283050537
381,-3228.0,2060.0,-3884.0,1.0,-11822.0,8054.0,-2957.0,-7422.0,-23.0,-1.0,2.0,7.0,14.0,-21.0,8.0,-37.0,1.7091937065124512
382,-883.0,2001.0,-2911.0,1.0,-11906.0,8417.0,-2886.0,-6894.0,-23.0,-1.0,2.0,7.0,14.0,-21.0,8.0,-37.0,1.7119901180267334
383,-883.0,2001.0,-2911.0,1.0,-11906.0,8417.0,-2886.0,-6894.0,-23.0,-1.0,2.0,7.0,14.0,-21.0,8.0,-37.0,1.7329471111297607
384,-883.0,2001.0,-2911.0,1.0,-11906.0,8417.0,-2886.0,-6894.0,-10.0,-6.0,-12.0,-1.0,74.0,27.0,27.0,23.0,1.7357943058013916
385,-883.0,2001.0,-2911.0,1.0,-11906.0,8417.0,-2886.0,-6894.0,12.0,5.0,9.0,10.0,58.0,-49.0,-24.0,7.0,1.7389161586761475
386,1970.0,2432.0,-2453.0,1.0,-12183.0,8413.0,-3122.0,-6284.0,12.0,5.0,9.0,10.0,58.0,-49.0,-24.0,7.0,1.7420649528503418
387,1970.0,2432.0,-2453.0,1.0,-12183.0,8413.0,-3122.0,-6284.0,0.0,-1.0,-3.0,-5.0,-22.0,-9.0,21.0,-21.0,1.7449467182159424
388,1970.0,2432.0,-2453.0,1.0,-12183.0,8413.0,-3122.0,-6284.0,9.0,1.0,-1.0,-2.0,12.0,76.0,19.0,-1.0,1.753432035446167
389,2231.0,3063.0,-748.0,1.0,-12324.0,8345.0,-3610.0,-5822.0,9.0,1.0,-1.0,-2.0,12.0,76.0,19.0,-1.0,1.7552435398101807
390,2231.0,3063.0,-748.0,1.0,-12324.0,8345.0,-3610.0,-5822.0,-2.0,-1.0,1.0,3.0,13.0,0.0,-7.0,53.0,1.7943220138549805
391,2231.0,3063.0,-748.0,1.0,-12324.0,8345.0,-3610.0,-5822.0,-1.0,-2.0,-5.0,-6.0,-21.0,90.0,9.0,18.0,1.7977395057678223
392,1911.0,3348.0,1835.0,1.0,-12236.0,8219.0,-4344.0,-5683.0,-1.0,-2.0,-5.0,-6.0,-21.0,90.0,9.0,18.0,1.8009374141693115
393,1911.0,3348.0,1835.0,1.0,-12236.0,8219.0,-4344.0,-5683.0,7.0,0.0,-5.0,-6.0,-19.0,15.0,-13.0,-24.0,1.8044533729553223
394,1911.0,3348.0,1835.0,1.0,-12236.0,8219.0,-4344.0,-5683.0,-3.0,-6.0,-9.0,-13.0,-39.0,-109.0,-59.0,17.0,1.8076343536376953
395,1512.0,2697.0,3882.0,1.0,-11986.0,7989.0,-5138.0,-5879.0,-3.0,-6.0,-9.0,-13.0,-39.0,-109.0,-59.0,17.0,1.8105497360229492
396,1512.0,2697.0,3882.0,1.0,-11986.0,7989.0,-5138.0,-5879.0,10.0,3.0,8.0,6.0,-73.0,62.0,35.0,-29.0,1.8131375312805176
397,1512.0,2697.0,3882.0,1.0,-11986.0,7989.0,-5138.0,-5879.0,4.0,2.0,4.0,6.0,-7.0,14.0,55.0,-12.0,1.8149645328521729
398,2232.0,1414.0,6188.0,1.0,-11696.0,7419.0,-5955.0,-6414.0,4.0,2.0,4.0,6.0,-7.0,14.0,55.0,-12.0,1.8168325424194336
399,2232.0,1414.0,6188.0,1.0,-11696.0,7419.0,-5955.0,-6414.0,12.0,2.0,-7.0,-18.0,-70.0,-33.0,6.0,56.0,1.8201258182525635
400,2232.0,1414.0,6188.0,1.0,-11696.0,7419.0,-5955.0,-6414.0,-49.0,-8.0,6.0,-1.0,-96.0,120.0,72.0,-118.0,1.8286478519439697
401,2543.0,146.0,8262.0,1.0,-11264.0,6499.0,-6799.0,-7288.0,-49.0,-8.0,6.0,-1.0,-96.0,120.0,72.0,-118.0,1.830716609954834
402,2543.0,146.0,8262.0,1.0,-11264.0,6499.0,-6799.0,-7288.0,3.0,0.0,-9.0,-4.0,44.0,-64.0,-105.0,-82.0,1.8523406982421875
403,2543.0,146.0,8262.0,1.0,-11264.0,6499.0,-6799.0,-7288.0,48.0,13.0,13.0,43.0,84.0,51.0,-70.0,123.0,1.8557677268981934
404,3028.0,-681.0,10622.0,1.0,-10608.0,5247.0,-7653.0,-8356.0,48.0,13.0,13.0,43.0,84.0,51.0,-70.0,123.0,1.8590452671051025
405,3028.0,-681.0,10622.0,1.0,-10608.0,5247.0,-7653.0,-8356.0,-45.0,-4.0,4.0,0.0,-68.0,54.0,-125.0,65.0,1.8675270080566406
406,3028.0,-681.0,10622.0,1.0,-10608.0,5247.0,-7653.0,-8356.0,-30.0,-18.0,-19.0,-19.0,107.0,7.0,14.0,-39.0,1.869974136352539
407,3197.0,-1625.0,12606.0,1.0,-9679.0,3639.0,-8393.0,-9544.0,-30.0,-18.0,-19.0,-19.0,107.0,7.0,14.0,-39.0,1.8810455799102783
408,3197.0,-1625.0,12606.0,1.0,-9679.0,3639.0,-8393.0,-9544.0,13.0,3.0,7.0,29.0,112.0,-122.0,-59.0,-41.0,1.8829095363616943
409,3197.0,-1625.0,12606.0,1.0,-9679.0,3639.0,-8393.0,-9544.0,-37.0,23.0,49.0,9.0,35.0,121.0,55.0,74.0,1.8893513679504395
410,3188.0,-2494.0,12429.0,1.0,-8652.0,1886.0,-8866.0,-10557.0,-37.0,23.0,49.0,9.0,35.0,121.0,55.0,74.0,1.8926489353179932
411,3188.0,-2494.0,12429.0,1.0,-8652.0,1886.0,-8866.0,-10557.0,-29.0,-55.0,-70.0,-19.0,17.0,56.0,-3.0,-51.0,1.9052929878234863
412,3188.0,-2494.0,12429.0,1.0,-8652.0,1886.0,-8866.0,-10557.0,56.0,63.0,20.0,-118.0,31.0,14.0,9.0,-3.0,1.9084761142730713
413,4874.0,-2899.0,13972.0,1.0,-7326.0,-255.0,-9316.0,-11312.0,56.0,63.0,20.0,-118.0,31.0,14.0,9.0,-3.0,1.9114620685577393
414,4874.0,-2899.0,13972.0,1.0,-7326.0,-255.0,-9316.0,-11312.0,40.0,11.0,-109.0,124.0,127.0,13.0,-19.0,7.0,1.9440226554870605
415,4874.0,-2899.0,13972.0,1.0,-7326.0,-255.0,-9316.0,-11312.0,11.0,-97.0,63.0,121.0,-128.0,16.0,-20.0,15.0,1.947033166885376
416,5996.0,-854.0,10404.0,1.0,-6060.0,-1881.0,-9874.0,-11433.0,11.0,-97.0,63.0,121.0,-128.0,16.0,-20.0,15.0,1.949997901916504
417,5996.0,-854.0,10404.0,1.0,-6060.0,-1881.0,-9874.0,-11433.0,38.0,-72.0,-65.0,9.0,-96.0,-24.0,71.0,20.0,1.9531023502349854
418,5996.0,-854.0,10404.0,1.0,-6060.0,-1881.0,-9874.0,-11433.0,-50.0,-43.0,71.0,84.0,84.0,-128.0,-103.0,-108.0,1.9560015201568604
419,1317.0,-344.0,4780.0,1.0,-5466.0,-2522.0,-9903.0,-11583.0,-50.0,-43.0,71.0,84.0,84.0,-128.0,-103.0,-108.0,1.9580395221710205
420,1317.0,-344.0,4780.0,1.0,-5466.0,-2522.0,-9903.0,-11583.0,32.0,62.0,114.0,88.0,25.0,50.0,44.0,-100.0,1.9730608463287354
421,1317.0,-344.0,4780.0,1.0,-5466.0,-2522.0,-9903.0,-11583.0,13.0,4.0,49.0,95.0,92.0,-75.0,10.0,-19.0,1.9763867855072021
422,-1509.0,-778.0,3388.0,1.0,-5160.0,-2888.0,-9598.0,-11890.0,13.0,4.0,49.0,95.0,92.0,-75.0,10.0,-19.0,1.9864232540130615
423,-1509.0,-778.0,3388.0,1.0,-5160.0,-2888.0,-9598.0,-11890.0,-66.0,-8.0,79.0,-73.0,-78.0,-88.0,-86.0,-117.0,1.9883582592010498
424,-1509.0,-778.0,3388.0,1.0,-5160.0,-2888.0,-9598.0,-11890.0,35.0,-109.0,58.0,7.0,-113.0,103.0,99.0,6.0,1.99015474319458
425,-4369.0,-340.0,5355.0,1.0,-4625.0,-3238.0,-8818.0,-12603.0,35.0,-109.0,58.0,7.0,-113.0,103.0,99.0,6.0,1.992023229598999
426,-4369.0,-340.0,5355.0,1.0,-4625.0,-3238.0,-8818.0,-12603.0,35.0,-109.0,58.0,7.0,-113.0,103.0,99.0,6.0,2.0093021392822266
427,-4369.0,-340.0,5355.0,1.0,-4625.0,-3238.0,-8818.0,-12603.0,-97.0,12.0,47.0,-128.0,-113.0,11.0,0.0,-54.0,2.0109400749206543
428,-4369.0,-340.0,5355.0,1.0,-4625.0,-3238.0,-8818.0,-12603.0,65.0,82.0,-122.0,-30.0,-41.0,-3.0,31.0,-100.0,2.0127663612365723
429,-1624.0,-1288.0,2528.0,1.0,-4483.0,-3531.0,-8403.0,-12856.0,65.0,82.0,-122.0,-30.0,-41.0,-3.0,31.0,-100.0,2.014543056488037
430,-1624.0,-1288.0,2528.0,1.0,-4483.0,-3531.0,-8403.0,-12856.0,-24.0,89.0,-6.0,-4.0,127.0,122.0,71.0,21.0,2.023681402206421
431,-1624.0,-1288.0,2528.0,1.0,-4483.0,-3531.0,-8403.0,-12856.0,-45.0,127.0,-115.0,-81.0,-5.0,-39.0,-118.0,-54.0,2.025618076324463
432,3038.0,-750.0,-272.0,1.0,-4470.0,-3757.0,-8798.0,-12528.0,-45.0,127.0,-115.0,-81.0,-5.0,-39.0,-118.0,-54.0,2.0295417308807373
433,3038.0,-750.0,-272.0,1.0,-4470.0,-3757.0,-8798.0,-12528.0,76.0,120.0,-4.0,44.0,127.0,0.0,84.0,127.0,2.0376784801483154
434,3038.0,-750.0,-272.0,1.0,-4470.0,-3757.0,-8798.0,-12528.0,13.0,-40.0,-15.0,11.0,46.0,22.0,38.0,41.0,2.045408010482788
435,2479.0,-325.0,-647.0,1.0,-4487.0,-3859.0,-9144.0,-12241.0,13.0,-40.0,-15.0,11.0,46.0,22.0,38.0,41.0,2.0625762939453125
436,2479.0,-325.0,-647.0,1.0,-4487.0,-3859.0,-9144.0,-12241.0,1.0,-128.0,28.0,81.0,-128.0,-39.0,11.0,13.0,2.067211389541626
437,2479.0,-325.0,-647.0,1.0,-4487.0,-3859.0,-9144.0,-12241.0,-4.0,-95.0,78.0,80.0,-86.0,47.0,-14.0,127.0,2.0765411853790283
438,932.0,70.0,237.0,1.0,-4408.0,-3919.0,-9261.0,-12162.0,-4.0,-95.0,78.0,80.0,-86.0,47.0,-14.0,127.0,2.0840539932250977
439,932.0,70.0,237.0,1.0,-4408.0,-3919.0,-9261.0,-12162.0,36.0,-85.0,0.0,-71.0,29.0,78.0,43.0,30.0,2.085918426513672
440,932.0,70.0,237.0,1.0,-4408.0,-3919.0,-9261.0,-12162.0,1.0,-53.0,-6.0,-96.0,-96.0,-91.0,-55.0,65.0,2.0878610610961914
441,316.0,218.0,328.0,1.0,-4292.0,-3979.0,-9194.0,-12234.0,1.0,-53.0,-6.0,-96.0,-96.0,-91.0,-55.0,65.0,2.0899500846862793
442,316.0,218.0,328.0,1.0,-4292.0,-3979.0,-9194.0,-12234.0,19.0,-25.0,-74.0,31.0,-102.0,-18.0,56.0,96.0,2.097444772720337
443,316.0,218.0,328.0,1.0,-4292.0,-3979.0,-9194.0,-12234.0,6.0,21.0,-54.0,-92.0,-11.0,6.0,14.0,68.0,2.1061041355133057
444,417.0,435.0,-53.0,1.0,-4187.0,-3995.0,-9210.0,-12253.0,6.0,21.0,-54.0,-92.0,-11.0,6.0,14.0,68.0,2.113297462463379
445,417.0,435.0,-53.0,1.0,-4187.0,-3995.0,-9210.0,-12253.0,-15.0,-1.0,-29.0,81.0,89.0,-112.0,-44.0,30.0,2.12086820602417
446,417.0,435.0,-53.0,1.0,-4187.0,-3995.0,-9210.0,-12253.0,-15.0,11.0,-15.0,30.0,-28.0,127.0,6.0,-10.0,2.128178119659424
447,-18.0,623.0,443.0,1.0,-4037.0,-3993.0,-9218.0,-12299.0,-15.0,11.0,-15.0,30.0,-28.0,127.0,6.0,-10.0,2.130023956298828
448,-18.0,623.0,443.0,1.0,-4037.0,-3993.0,-9218.0,-12299.0,6.0,-13.0,42.0,83.0,74.0,-32.0,-28.0,-3.0,2.1436901092529297
449,-18.0,623.0,443.0,1.0,-4037.0,-3993.0,-9218.0,-12299.0,-7.0,23.0,-5.0,-67.0,-34.0,-79.0,-31.0,-54.0,2.1466879844665527
450,-665.0,489.0,312.0,1.0,-3963.0,-3946.0,-9158.0,-12382.0,-7.0,23.0,-5.0,-67.0,-34.0,-79.0,-31.0,-54.0,2.151296377182007
451,-665.0,489.0,312.0,1.0,-3963.0,-3946.0,-9158.0,-12382.0,-24.0,13.0,-9.0,-97.0,29.0,127.0,94.0,78.0,2.174889087677002
452,-665.0,489.0,312.0,1.0,-3963.0,-3946.0,-9158.0,-12382.0,-40.0,22.0,-51.0,-12.0,15.0,-2.0,-72.0,-29.0,2.1783623695373535
453,-686.0,232.0,43.0,1.0,-3938.0,-3924.0,-9087.0,-12449.0,-40.0,22.0,-51.0,-12.0,15.0,-2.0,-72.0,-29.0,2.183584451675415
454,-686.0,232.0,43.0,1.0,-3938.0,-3924.0,-9087.0,-12449.0,-8.0,0.0,64.0,26.0,-83.0,20.0,-26.0,6.0,2.1894474029541016
455,-686.0,232.0,43.0,1.0,-3938.0,-3924.0,-9087.0,-12449.0,-16.0,-9.0,-76.0,-41.0,109.0,40.0,88.0,-79.0,2.191993236541748
456,-243.0,154.0,-33.0,1.0,-3913.0,-3924.0,-9076.0,-12465.0,-16.0,-9.0,-76.0,-41.0,109.0,40.0,88.0,-79.0,2.1938529014587402
457,-243.0,154.0,-33.0,1.0,-3913.0,-3924.0,-9076.0,-12465.0,-11.0,12.0,47.0,-33.0,32.0,-5.0,-75.0,-7.0,2.22074294090271
458,-243.0,154.0,-33.0,1.0,-3913.0,-3924.0,-9076.0,-12465.0,30.0,-19.0,15.0,30.0,-39.0,30.0,18.0,79.0,2.223940849304199
459,438.0,36.0,-58.0,1.0,-3883.0,-3954.0,-9164.0,-12400.0,30.0,-19.0,15.0,30.0,-39.0,30.0,18.0,79.0,2.2259864807128906
460,438.0,36.0,-58.0,1.0,-3883.0,-3954.0,-9164.0,-12400.0,-10.0,-7.0,-51.0,-9.0,-87.0,19.0,0.0,-113.0,2.227870464324951
461,438.0,36.0,-58.0,1.0,-3883.0,-3954.0,-9164.0,-12400.0,1.0,22.0,42.0,54.0,-26.0,26.0,22.0,-33.0,2.2296559810638428
462,308.0,-88.0,-127.0,1.0,-3901.0,-3961.0,-9213.0,-12357.0,1.0,22.0,42.0,54.0,-26.0,26.0,22.0,-33.0,2.232072591781616
463,308.0,-88.0,-127.0,1.0,-3901.0,-3961.0,-9213.0,-12357.0,26.0,-5.0,-13.0,-48.0,-20.0,20.0,-66.0,81.0,2.248018264770508
464,308.0,-88.0,-127.0,1.0,-3901.0,-3961.0,-9213.0,-12357.0,10.0,-8.0,-21.0,8.0,109.0,72.0,15.0,107.0,2.2563295364379883
465,145.0,-69.0,-96.0,1.0,-3915.0,-3964.0,-9215.0,-12349.0,10.0,-8.0,-21.0,8.0,109.0,72.0,15.0,107.0,2.2593064308166504
466,145.0,-69.0,-96.0,1.0,-3915.0,-3964.0,-9215.0,-12349.0,24.0,19.0,4.0,-66.0,41.0,-6.0,-30.0,-107.0,2.264115810394287
467,145.0,-69.0,-96.0,1.0,-3915.0,-3964.0,-9215.0,-12349.0,6.0,30.0,14.0,73.0,-51.0,-89.0,-19.0,-18.0,2.2673065662384033
468,45.0,113.0,-81.0,1.0,-3907.0,-3947.0,-9202.0,-12367.0,6.0,30.0,14.0,73.0,-51.0,-89.0,-19.0,-18.0,2.269709587097168
469,45.0,113.0,-81.0,1.0,-3907.0,-3947.0,-9202.0,-12367.0,7.0,-2.0,18.0,111.0,17.0,41.0,41.0,25.0,2.2870869636535645
470,45.0,113.0,-81.0,1.0,-3907.0,-3947.0,-9202.0,-12367.0,-16.0,-17.0,-36.0,34.0,11.0,-30.0,5.0,-27.0,2.2905991077423096
471,-53.0,173.0,-28.0,1.0,-3886.0,-3928.0,-9179.0,-12397.0,-16.0,-17.0,-36.0,34.0,11.0,-30.0,5.0,-27.0,2.293294668197632
472,-53.0,173.0,-28.0,1.0,-3886.0,-3928.0,-9179.0,-12397.0,18.0,10.0,-15.0,-36.0,-12.0,31.0,48.0,97.0,2.3003594875335693
473,-53.0,173.0,-28.0,1.0,-3886.0,-3928.0,-9179.0,-12397.0,-5.0,-7.0,1.0,-9.0,-48.0,7.0,-15.0,-80.0,2.308126926422119
474,-129.0,186.0,23.0,1.0,-3866.0,-3905.0,-9171.0,-12417.0,-5.0,-7.0,1.0,-9.0,-48.0,7.0,-15.0,-80.0,2.3099570274353027
475,-129.0,186.0,23.0,1.0,-3866.0,-3905.0,-9171.0,-12417.0,8.0,-3.0,-16.0,-7.0,90.0,123.0,26.0,-36.0,2.3231875896453857
476,-129.0,186.0,23.0,1.0,-3866.0,-3905.0,-9171.0,-12417.0,9.0,-2.0,-39.0,7.0,87.0,53.0,-64.0,-8.0,2.340512752532959
477,-436.0,196.0,-37.0,1.0,-3867.0,-3861.0,-9126.0,-12463.0,9.0,-2.0,-39.0,7.0,87.0,53.0,-64.0,-8.0,2.343961477279663
478,-436.0,196.0,-37.0,1.0,-3867.0,-3861.0,-9126.0,-12463.0,12.0,14.0,8.0,-73.0,-41.0,15.0,6.0,-57.0,2.347602128982544
479,-436.0,196.0,-37.0,1.0,-3867.0,-3861.0,-9126.0,-12463.0,9.0,-6.0,23.0,-48.0,18.0,-100.0,-2.0,-10.0,2.350123405456543
480,-357.0,175.0,-73.0,1.0,-3868.0,-3823.0,-9091.0,-12500.0,9.0,-6.0,23.0,-48.0,18.0,-100.0,-2.0,-10.0,2.352198600769043
481,-357.0,175.0,-73.0,1.0,-3868.0,-3823.0,-9091.0,-12500.0,-2.0,-7.0,5.0,38.0,85.0,16.0,34.0,-2.0,2.3698339462280273
482,-357.0,175.0,-73.0,1.0,-3868.0,-3823.0,-9091.0,-12500.0,-3.0,-15.0,-39.0,-62.0,-65.0,-68.0,4.0,43.0,2.386331796646118
483,-19.0,142.0,-54.0,1.0,-3861.0,-3801.0,-9116.0,-12490.0,-3.0,-15.0,-39.0,-62.0,-65.0,-68.0,4.0,43.0,2.3904566764831543
484,-19.0,142.0,-54.0,1.0,-3861.0,-3801.0,-9116.0,-12490.0,-12.0,2.0,-4.0,73.0,-22.0,-128.0,-70.0,-109.0,2.3943135738372803
485,-19.0,142.0,-54.0,1.0,-3861.0,-3801.0,-9116.0,-12490.0,33.0,9.0,30.0,-12.0,-12.0,56.0,-4.0,-23.0,2.399768114089966
486,4.0,35.0,-61.0,1.0,-3868.0,-3789.0,-9147.0,-12469.0,33.0,9.0,30.0,-12.0,-12.0,56.0,-4.0,-23.0,2.4016218185424805
487,4.0,35.0,-61.0,1.0,-3868.0,-3789.0,-9147.0,-12469.0,-10.0,-12.0,-20.0,-44.0,-50.0,-7.0,35.0,66.0,2.4035232067108154
488,4.0,35.0,-61.0,1.0,-3868.0,-3789.0,-9147.0,-12469.0,4.0,9.0,30.0,7.0,-9.0,-6.0,-15.0,-91.0,2.4053101539611816
489,-204.0,8.0,-32.0,1.0,-3881.0,-3776.0,-9138.0,-12475.0,4.0,9.0,30.0,7.0,-9.0,-6.0,-15.0,-91.0,2.431398391723633
490,-204.0,8.0,-32.0,1.0,-3881.0,-3776.0,-9138.0,-12475.0,-20.0,-16.0,-24.0,16.0,-6.0,-101.0,-38.0,-41.0,2.434657096862793
491,-204.0,8.0,-32.0,1.0,-3881.0,-3776.0,-9138.0,-12475.0,10.0,-2.0,17.0,18.0,77.0,79.0,60.0,71.0,2.438469886779785
492,-202.0,1.0,28.0,1.0,-3890.0,-3765.0,-9111.0,-12496.0,10.0,-2.0,17.0,18.0,77.0,79.0,60.0,71.0,2.4422037601470947
493,-202.0,1.0,28.0,1.0,-3890.0,-3765.0,-9111.0,-12496.0,-4.0,1.0,-5.0,-44.0,26.0,-11.0,-3.0,32.0,2.445247173309326
494,-202.0,1.0,28.0,1.0,-3890.0,-3765.0,-9111.0,-12496.0,-2.0,-1.0,-17.0,9.0,-34.0,6.0,-52.0,-52.0,2.4470744132995605
495,21.0,-42.0,52.0,1.0,-3888.0,-3773.0,-9113.0,-12492.0,-2.0,-1.0,-17.0,9.0,-34.0,6.0,-52.0,-52.0,2.449737071990967
496,21.0,-42.0,52.0,1.0,-3888.0,-3773.0,-9113.0,-12492.0,-8.0,3.0,10.0,96.0,-20.0,-91.0,-26.0,41.0,2.4580013751983643
497,21.0,-42.0,52.0,1.0,-3888.0,-3773.0,-9113.0,-12492.0,0.0,4.0,-17.0,-21.0,25.0,59.0,3.0,-24.0,2.4732837677001953
498,13.0,-28.0,69.0,1.0,-3883.0,-3782.0,-9119.0,-12487.0,0.0,4.0,-17.0,-21.0,25.0,59.0,3.0,-24.0,2.4751813411712646
499,13.0,-28.0,69.0,1.0,-3883.0,-3782.0,-9119.0,-12487.0,-8.0,-12.0,-17.0,-71.0,-65.0,98.0,-2.0,-35.0,2.4798219203948975
500,13.0,-28.0,69.0,1.0,-3883.0,-3782.0,-9119.0,-12487.0,-59.0,5.0,46.0,115.0,50.0,28.0,8.0,36.0,2.497201919555664
501,-70.0,27.0,46.0,1.0,-3879.0,-3777.0,-9103.0,-12501.0,-59.0,5.0,46.0,115.0,50.0,28.0,8.0,36.0,2.5004289150238037
502,-70.0,27.0,46.0,1.0,-3879.0,-3777.0,-9103.0,-12501.0,-30.0,-3.0,-28.0,-66.0,-16.0,6.0,36.0,-30.0,2.505201816558838
503,-70.0,27.0,46.0,1.0,-3879.0,-3777.0,-9103.0,-12501.0,-19.0,-14.0,-30.0,12.0,-5.0,60.0,27.0,24.0,2.5115609169006348
504,-7.0,47.0,6.0,1.0,-3874.0,-3771.0,-9102.0,-12506.0,-19.0,-14.0,-30.0,12.0,-5.0,60.0,27.0,24.0,2.5136470794677734
505,-7.0,47.0,6.0,1.0,-3874.0,-3771.0,-9102.0,-12506.0,7.0,4.0,1.0,-5.0,-69.0,-34.0,-2.0,12.0,2.517881155014038
506,-7.0,47.0,6.0,1.0,-3874.0,-3771.0,-9102.0,-12506.0,-8.0,-1.0,32.0,40.0,42.0,-55.0,-11.0,55.0,2.525165557861328
507,-49.0,26.0,-28.0,1.0,-3878.0,-3761.0,-9099.0,-12510.0,-8.0,-1.0,32.0,40.0,42.0,-55.0,-11.0,55.0,2.532494068145752
508,-49.0,26.0,-28.0,1.0,-3878.0,-3761.0,-9099.0,-12510.0,-9.0,14.0,-28.0,42.0,70.0,62.0,5.0,-22.0,2.540771245956421
509,-49.0,26.0,-28.0,1.0,-3878.0,-3761.0,-9099.0,-12510.0,27.0,51.0,80.0,-11.0,-59.0,-91.0,-6.0,104.0,2.547590970993042
510,-63.0,-48.0,-86.0,1.0,-3898.0,-3755.0,-9089.0,-12513.0,27.0,51.0,80.0,-11.0,-59.0,-91.0,-6.0,104.0,2.5555787086486816
511,-63.0,-48.0,-86.0,1.0,-3898.0,-3755.0,-9089.0,-12513.0,43.0,66.0,57.0,67.0,59.0,82.0,15.0,24.0,2.5638210773468018
512,-63.0,-48.0,-86.0,1.0,-3898.0,-3755.0,-9089.0,-12513.0,7.0,-16.0,-37.0,-49.0,-3.0,-32.0,57.0,23.0,2.5659005641937256
513,-36.0,-54.0,-127.0,1.0,-3923.0,-3747.0,-9082.0,-12512.0,7.0,-16.0,-37.0,-49.0,-3.0,-32.0,57.0,23.0,2.5784308910369873
514,-36.0,-54.0,-127.0,1.0,-3923.0,-3747.0,-9082.0,-12512.0,-10.0,-26.0,-6.0,-65.0,-21.0,-59.0,-2.0,38.0,2.5813863277435303
515,-36.0,-54.0,-127.0,1.0,-3923.0,-3747.0,-9082.0,-12512.0,10.0,-36.0,-12.0,36.0,21.0,-19.0,-7.0,-9.0,2.5941050052642822
516,46.0,-91.0,-141.0,1.0,-3951.0,-3744.0,-9090.0,-12498.0,10.0,-36.0,-12.0,36.0,21.0,-19.0,-7.0,-9.0,2.5971076488494873
517,46.0,-91.0,-141.0,1.0,-3951.0,-3744.0,-9090.0,-12498.0,9.0,25.0,29.0,-32.0,-6.0,15.0,9.0,-68.0,2.6010520458221436
518,46.0,-91.0,-141.0,1.0,-3951.0,-3744.0,-9090.0,-12498.0,-7.0,4.0,-53.0,-62.0,-108.0,14.0,-7.0,-24.0,2.6172947883605957
519,36.0,-120.0,-84.0,1.0,-3974.0,-3753.0,-9100.0,-12481.0,-7.0,4.0,-53.0,-62.0,-108.0,14.0,-7.0,-24.0,2.6202964782714844
520,36.0,-120.0,-84.0,1.0,-3974.0,-3753.0,-9100.0,-12481.0,-7.0,-22.0,7.0,45.0,65.0,29.0,25.0,-40.0,2.623908758163452
521,36.0,-120.0,-84.0,1.0,-3974.0,-3753.0,-9100.0,-12481.0,-11.0,-9.0,-12.0,21.0,-5.0,65.0,-17.0,-15.0,2.627185106277466
522,36.0,-105.0,-43.0,1.0,-3988.0,-3766.0,-9110.0,-12465.0,-11.0,-9.0,-12.0,21.0,-5.0,65.0,-17.0,-15.0,2.6325929164886475
523,36.0,-105.0,-43.0,1.0,-3988.0,-3766.0,-9110.0,-12465.0,-12.0,12.0,14.0,-55.0,-2.0,-39.0,-4.0,-28.0,2.6386964321136475
524,36.0,-105.0,-43.0,1.0,-3988.0,-3766.0,-9110.0,-12465.0,3.0,0.0,-41.0,52.0,36.0,22.0,3.0,-39.0,2.6454739570617676
525,50.0,-66.0,-40.0,1.0,-3998.0,-3774.0,-9128.0,-12447.0,3.0,0.0,-41.0,52.0,36.0,22.0,3.0,-39.0,2.6560957431793213
526,50.0,-66.0,-40.0,1.0,-3998.0,-3774.0,-9128.0,-12447.0,0.0,-13.0,-25.0,48.0,-27.0,22.0,-16.0,12.0,2.661297559738159
527,50.0,-66.0,-40.0,1.0,-3998.0,-3774.0,-9128.0,-12447.0,-9.0,-16.0,-11.0,-28.0,-5.0,31.0,-25.0,-42.0,2.667828321456909
528,-25.0,-28.0,-5.0,1.0,-4002.0,-3777.0,-9131.0,-12442.0,-9.0,-16.0,-11.0,-28.0,-5.0,31.0,-25.0,-42.0,2.6845641136169434
529,-25.0,-28.0,-5.0,1.0,-4002.0,-3777.0,-9131.0,-12442.0,2.0,-19.0,5.0,40.0,-82.0,-55.0,-18.0,52.0,2.68800687789917
530,-25.0,-28.0,-5.0,1.0,-4002.0,-3777.0,-9131.0,-12442.0,12.0,10.0,22.0,52.0,-68.0,9.0,18.0,-61.0,2.6909587383270264
531,58.0,-28.0,20.0,1.0,-4004.0,-3780.0,-9144.0,-12431.0,12.0,10.0,22.0,52.0,-68.0,9.0,18.0,-61.0,2.696201801300049
532,58.0,-28.0,20.0,1.0,-4004.0,-3780.0,-9144.0,-12431.0,9.0,-1.0,0.0,46.0,-6.0,21.0,9.0,-52.0,2.698352813720703
533,58.0,-28.0,20.0,1.0,-4004.0,-3780.0,-9144.0,-12431.0,16.0,6.0,-4.0,10.0,46.0,-36.0,-9.0,15.0,2.705437183380127
534,62.0,-32.0,21.0,1.0,-4006.0,-3784.0,-9160.0,-12417.0,16.0,6.0,-4.0,10.0,46.0,-36.0,-9.0,15.0,2.7219910621643066
535,62.0,-32.0,21.0,1.0,-4006.0,-3784.0,-9160.0,-12417.0,10.0,-9.0,3.0,22.0,15.0,-3.0,-6.0,-17.0,2.7251157760620117
536,62.0,-32.0,21.0,1.0,-4006.0,-3784.0,-9160.0,-12417.0,7.0,8.0,39.0,54.0,42.0,23.0,13.0,-9.0,2.738041400909424
537,-17.0,-32.0,9.0,1.0,-4012.0,-3784.0,-9159.0,-12416.0,7.0,8.0,39.0,54.0,42.0,23.0,13.0,-9.0,2.7422924041748047
538,-17.0,-32.0,9.0,1.0,-4012.0,-3784.0,-9159.0,-12416.0,5.0,-12.0,-24.0,-11.0,44.0,48.0,11.0,13.0,2.7464725971221924
539,-17.0,-32.0,9.0,1.0,-4012.0,-3784.0,-9159.0,-12416.0,-8.0,-3.0,5.0,-16.0,-2.0,14.0,12.0,-37.0,2.7696073055267334
540,-4.0,-39.0,-3.0,1.0,-4018.0,-3787.0,-9155.0,-12416.0,-8.0,-3.0,5.0,-16.0,-2.0,14.0,12.0,-37.0,2.7727010250091553
541,-4.0,-39.0,-3.0,1.0,-4018.0,-3787.0,-9155.0,-12416.0,-14.0,-13.0,-90.0,-120.0,-93.0,-18.0,1.0,4.0,2.774611473083496
542,-4.0,-39.0,-3.0,1.0,-4018.0,-3787.0,-9155.0,-12416.0,-3.0,8.0,22.0,-74.0,17.0,-6.0,0.0,22.0,2.7830374240875244
543,41.0,-6.0,-16.0,1.0,-4021.0,-3785.0,-9164.0,-12409.0,-3.0,8.0,22.0,-74.0,17.0,-6.0,0.0,22.0,2.7849864959716797
544,41.0,-6.0,-16.0,1.0,-4021.0,-3785.0,-9164.0,-12409.0,6.0,-2.0,20.0,88.0,17.0,54.0,32.0,34.0,2.786848306655884
545,41.0,-6.0,-16.0,1.0,-4021.0,-3785.0,-9164.0,-12409.0,-11.0,-2.0,-17.0,-81.0,85.0,-27.0,-10.0,-28.0,2.7886404991149902
546,-30.0,-16.0,-11.0,1.0,-4029.0,-3780.0,-9162.0,-12410.0,-11.0,-2.0,-17.0,-81.0,85.0,-27.0,-10.0,-28.0,2.795427083969116
547,-30.0,-16.0,-11.0,1.0,-4029.0,-3780.0,-9162.0,-12410.0,6.0,1.0,-25.0,29.0,62.0,-45.0,-71.0,-66.0,2.8126003742218018
548,-30.0,-16.0,-11.0,1.0,-4029.0,-3780.0,-9162.0,-12410.0,17.0,26.0,4.0,-16.0,-18.0,25.0,11.0,9.0,2.815613269805908
549,-81.0,-16.0,-1.0,1.0,-4039.0,-3772.0,-9149.0,-12419.0,17.0,26.0,4.0,-16.0,-18.0,25.0,11.0,9.0,2.818578004837036
550,-81.0,-16.0,-1.0,1.0,-4039.0,-3772.0,-9149.0,-12419.0,-1.0,-1.0,11.0,24.0,12.0,28.0,26.0,58.0,2.8271706104278564
551,-81.0,-16.0,-1.0,1.0,-4039.0,-3772.0,-9149.0,-12419.0,-6.0,-2.0,-5.0,-12.0,-121.0,24.0,0.0,-66.0,2.829896926879883
552,-16.0,-23.0,6.0,1.0,-4043.0,-3773.0,-9147.0,-12419.0,-6.0,-2.0,-5.0,-12.0,-121.0,24.0,0.0,-66.0,2.8319759368896484
553,-16.0,-23.0,6.0,1.0,-4043.0,-3773.0,-9147.0,-12419.0,0.0,-2.0,7.0,-63.0,-11.0,-62.0,-34.0,-46.0,2.8573012351989746
554,-16.0,-23.0,6.0,1.0,-4043.0,-3773.0,-9147.0,-12419.0,-14.0,-5.0,-8.0,74.0,29.0,5.0,-39.0,-37.0,2.860395669937134
555,9.0,-14.0,18.0,1.0,-4044.0,-3774.0,-9152.0,-12414.0,-14.0,-5.0,-8.0,74.0,29.0,5.0,-39.0,-37.0,2.8635659217834473
556,9.0,-14.0,18.0,1.0,-4044.0,-3774.0,-9152.0,-12414.0,3.0,0.0,13.0,-7.0,19.0,66.0,40.0,49.0,2.867151975631714
557,9.0,-14.0,18.0,1.0,-4044.0,-3774.0,-9152.0,-12414.0,5.0,-11.0,-3.0,38.0,0.0,-53.0,13.0,23.0,2.871628522872925
558,-60.0,-1.0,31.0,1.0,-4046.0,-3770.0,-9149.0,-12417.0,5.0,-11.0,-3.0,38.0,0.0,-53.0,13.0,23.0,2.873558282852173
559,-60.0,-1.0,31.0,1.0,-4046.0,-3770.0,-9149.0,-12417.0,-4.0,-7.0,13.0,-9.0,-38.0,21.0,16.0,19.0,2.8778414726257324
560,-60.0,-1.0,31.0,1.0,-4046.0,-3770.0,-9149.0,-12417.0,2.0,4.0,32.0,9.0,46.0,15.0,5.0,32.0,2.8941140174865723
561,-45.0,5.0,29.0,1.0,-4046.0,-3767.0,-9147.0,-12420.0,2.0,4.0,32.0,9.0,46.0,15.0,5.0,32.0,2.8976292610168457
562,-45.0,5.0,29.0,1.0,-4046.0,-3767.0,-9147.0,-12420.0,-5.0,-5.0,-2.0,-2.0,21.0,-35.0,-5.0,10.0,2.901214599609375
563,-45.0,5.0,29.0,1.0,-4046.0,-3767.0,-9147.0,-12420.0,-1.0,-6.0,-3.0,-4.0,-32.0,47.0,27.0,78.0,2.907935380935669
564,23.0,2.0,18.0,1.0,-4045.0,-3766.0,-9155.0,-12414.0,-1.0,-6.0,-3.0,-4.0,-32.0,47.0,27.0,78.0,2.9404430389404297
565,23.0,2.0,18.0,1.0,-4045.0,-3766.0,-9155.0,-12414.0,-9.0,8.0,-9.0,32.0,-20.0,3.0,3.0,-31.0,2.942384958267212
566,23.0,2.0,18.0,1.0,-4045.0,-3766.0,-9155.0,-12414.0,-8.0,-8.0,-11.0,-12.0,38.0,-88.0,-35.0,33.0,2.9442484378814697
567,26.0,7.0,12.0,1.0,-4044.0,-3764.0,-9162.0,-12410.0,-8.0,-8.0,-11.0,-12.0,38.0,-88.0,-35.0,33.0,2.946232795715332
568,26.0,7.0,12.0,1.0,-4044.0,-3764.0,-9162.0,-12410.0,-2.0,6.0,21.0,13.0,-51.0,-78.0,-16.0,4.0,2.9486119747161865
569,26.0,7.0,12.0,1.0,-4044.0,-3764.0,-9162.0,-12410.0,-1.0,-7.0,-23.0,-17.0,-75.0,-54.0,13.0,-10.0,2.95078444480896
570,37.0,7.0,0.0,1.0,-4045.0,-3760.0,-9172.0,-12403.0,-1.0,-7.0,-23.0,-17.0,-75.0,-54.0,13.0,-10.0,2.95292329788208
571,37.0,7.0,0.0,1.0,-4045.0,-3760.0,-9172.0,-12403.0,20.0,-1.0,-21.0,-46.0,-2.0,31.0,24.0,94.0,2.961503505706787
572,37.0,7.0,0.0,1.0,-4045.0,-3760.0,-9172.0,-12403.0,-14.0,-7.0,5.0,11.0,-79.0,32.0,-4.0,-51.0,2.9770193099975586
573,-13.0,28.0,8.0,1.0,-4046.0,-3752.0,-9175.0,-12403.0,-14.0,-7.0,5.0,11.0,-79.0,32.0,-4.0,-51.0,2.9800708293914795
574,-13.0,28.0,8.0,1.0,-4046.0,-3752.0,-9175.0,-12403.0,-16.0,-5.0,17.0,27.0,4.0,-15.0,-4.0,-38.0,2.982374906539917
575,-13.0,28.0,8.0,1.0,-4046.0,-3752.0,-9175.0,-12403.0,4.0,0.0,-8.0,-72.0,29.0,-1.0,21.0,-8.0,2.990988254547119
576,15.0,68.0,7.0,1.0,-4040.0,-3741.0,-9181.0,-12404.0,4.0,0.0,-8.0,-72.0,29.0,-1.0,21.0,-8.0,2.9929089546203613
577,15.0,68.0,7.0,1.0,-4040.0,-3741.0,-9181.0,-12404.0,2.0,5.0,11.0,10.0,9.0,13.0,-23.0,74.0,2.999091625213623
578,15.0,68.0,7.0,1.0,-4040.0,-3741.0,-9181.0,-12404.0,-5.0,-2.0,-10.0,-55.0,48.0,2.0,-26.0,-43.0,3.0056142807006836
579,44.0,89.0,15.0,1.0,-4030.0,-3729.0,-9194.0,-12401.0,-5.0,-2.0,-10.0,-55.0,48.0,2.0,-26.0,-43.0,3.012901782989502
580,44.0,89.0,15.0,1.0,-4030.0,-3729.0,-9194.0,-12401.0,-8.0,-4.0,3.0,75.0,90.0,0.0,5.0,39.0,3.0207576751708984
581,44.0,89.0,15.0,1.0,-4030.0,-3729.0,-9194.0,-12401.0,2.0,-1.0,18.0,59.0,81.0,-18.0,-12.0,10.0,3.0284595489501953
582,-42.0,59.0,12.0,1.0,-4028.0,-3715.0,-9193.0,-12407.0,2.0,-1.0,18.0,59.0,81.0,-18.0,-12.0,10.0,3.0352063179016113
583,-42.0,59.0,12.0,1.0,-4028.0,-3715.0,-9193.0,-12407.0,-5.0,-2.0,10.0,-8.0,-11.0,58.0,16.0,-86.0,3.060194730758667
584,-42.0,59.0,12.0,1.0,-4028.0,-3715.0,-9193.0,-12407.0,7.0,0.0,-9.0,-4.0,-8.0,-6.0,8.0,70.0,3.0622079372406006
585,-62.0,73.0,15.0,1.0,-4022.0,-3703.0,-9188.0,-12416.0,7.0,0.0,-9.0,-4.0,-8.0,-6.0,8.0,70.0,3.064478874206543
586,-62.0,73.0,15.0,1.0,-4022.0,-3703.0,-9188.0,-12416.0,-2.0,0.0,33.0,64.0,5.0,-45.0,-8.0,0.0,3.0666754245758057
587,-62.0,73.0,15.0,1.0,-4022.0,-3703.0,-9188.0,-12416.0,-2.0,-8.0,-12.0,16.0,-25.0,46.0,10.0,-5.0,3.06881046295166
588,-22.0,52.0,37.0,1.0,-4014.0,-3696.0,-9187.0,-12421.0,-2.0,-8.0,-12.0,16.0,-25.0,46.0,10.0,-5.0,3.072113513946533
589,-22.0,52.0,37.0,1.0,-4014.0,-3696.0,-9187.0,-12421.0,1.0,6.0,0.0,-75.0,-26.0,22.0,5.0,-67.0,3.088427782058716
590,-22.0,52.0,37.0,1.0,-4014.0,-3696.0,-9187.0,-12421.0,-14.0,-8.0,-19.0,19.0,71.0,-3.0,-18.0,-84.0,3.090238332748413
591,39.0,23.0,42.0,1.0,-4006.0,-3697.0,-9199.0,-12414.0,-14.0,-8.0,-19.0,19.0,71.0,-3.0,-18.0,-84.0,3.0960371494293213
592,39.0,23.0,42.0,1.0,-4006.0,-3697.0,-9199.0,-12414.0,-2.0,-12.0,0.0,24.0,20.0,55.0,10.0,-16.0,3.1035609245300293
593,39.0,23.0,42.0,1.0,-4006.0,-3697.0,-9199.0,-12414.0,3.0,6.0,-2.0,-32.0,-58.0,-21.0,-3.0,-1.0,3.1183009147644043
594,-7.0,29.0,47.0,1.0,-3998.0,-3697.0,-9206.0,-12412.0,3.0,6.0,-2.0,-32.0,-58.0,-21.0,-3.0,-1.0,3.1370460987091064
595,-7.0,29.0,47.0,1.0,-3998.0,-3697.0,-9206.0,-12412.0,1.0,4.0,0.0,-20.0,-45.0,-2.0,-19.0,12.0,3.1407928466796875
596,-7.0,29.0,47.0,1.0,-3998.0,-3697.0,-9206.0,-12412.0,1.0,7.0,-12.0,57.0,-76.0,-2.0,21.0,50.0,3.142695665359497
597,-45.0,29.0,52.0,1.0,-3992.0,-3695.0,-9205.0,-12416.0,1.0,7.0,-12.0,57.0,-76.0,-2.0,21.0,50.0,3.144535541534424
598,-45.0,29.0,52.0,1.0,-3992.0,-3695.0,-9205.0,-12416.0,0.0,-4.0,-9.0,-34.0,-27.0,-10.0,-4.0,13.0,3.1468803882598877
599,-45.0,29.0,52.0,1.0,-3992.0,-3695.0,-9205.0,-12416.0,5.0,7.0,-14.0,-17.0,-17.0,-2.0,-7.0,-9.0,3.1742210388183594
600,-22.0,34.0,48.0,1.0,-3983.0,-3693.0,-9204.0,-12419.0,5.0,7.0,-14.0,-17.0,-17.0,-2.0,-7.0,-9.0,3.177665948867798
601,-22.0,34.0,48.0,1.0,-3983.0,-3693.0,-9204.0,-12419.0,-2.0,0.0,-7.0,-2.0,2.0,-6.0,-3.0,22.0,3.1812491416931152
602,-22.0,34.0,48.0,1.0,-3983.0,-3693.0,-9204.0,-12419.0,-14.0,-10.0,8.0,-15.0,1.0,13.0,8.0,-37.0,3.184431791305542
603,-13.0,35.0,46.0,1.0,-3977.0,-3688.0,-9204.0,-12423.0,-14.0,-10.0,8.0,-15.0,1.0,13.0,8.0,-37.0,3.1869120597839355
604,-13.0,35.0,46.0,1.0,-3977.0,-3688.0,-9204.0,-12423.0,5.0,6.0,6.0,-3.0,-39.0,-27.0,11.0,22.0,3.1891627311706543
605,-13.0,35.0,46.0,1.0,-3977.0,-3688.0,-9204.0,-12423.0,2.0,-3.0,-2.0,1.0,51.0,2.0,-15.0,23.0,3.20114803314209
606,-24.0,20.0,51.0,1.0,-3972.0,-3686.0,-9202.0,-12427.0,2.0,-3.0,-2.0,1.0,51.0,2.0,-15.0,23.0,3.2031517028808594
607,-24.0,20.0,51.0,1.0,-3972.0,-3686.0,-9202.0,-12427.0,1.0,-12.0,-5.0,26.0,66.0,12.0,4.0,9.0,3.205198287963867
608,-24.0,20.0,51.0,1.0,-3972.0,-3686.0,-9202.0,-12427.0,1.0,2.0,-5.0,-102.0,-9.0,-22.0,-22.0,-73.0,3.207031726837158
609,-27.0,57.0,47.0,1.0,-3962.0,-3680.0,-9200.0,-12433.0,1.0,2.0,-5.0,-102.0,-9.0,-22.0,-22.0,-73.0,3.241384267807007
610,-27.0,57.0,47.0,1.0,-3962.0,-3680.0,-9200.0,-12433.0,-3.0,8.0,8.0,-13.0,-15.0,-16.0,-12.0,-20.0,3.2450459003448486
611,-27.0,57.0,47.0,1.0,-3962.0,-3680.0,-9200.0,-12433.0,6.0,-1.0,-4.0,28.0,29.0,46.0,24.0,29.0,3.2552459239959717
612,-28.0,50.0,32.0,1.0,-3956.0,-3673.0,-9199.0,-12438.0,6.0,-1.0,-4.0,28.0,29.0,46.0,24.0,29.0,3.2571985721588135
613,-28.0,50.0,32.0,1.0,-3956.0,-3673.0,-9199.0,-12438.0,-3.0,-7.0,-8.0,-23.0,-26.0,-6.0,-1.0,-10.0,3.259369134902954
614,-28.0,50.0,32.0,1.0,-3956.0,-3673.0,-9199.0,-12438.0,-1.0,-6.0,2.0,29.0,-71.0,-20.0,2.0,21.0,3.261801242828369
615,-88.0,28.0,26.0,1.0,-3955.0,-3665.0,-9188.0,-12449.0,-1.0,-6.0,2.0,29.0,-71.0,-20.0,2.0,21.0,3.2636542320251465
616,-88.0,28.0,26.0,1.0,-3955.0,-3665.0,-9188.0,-12449.0,3.0,1.0,-1.0,77.0,-10.0,-73.0,5.0,40.0,3.2655410766601562
617,-88.0,28.0,26.0,1.0,-3955.0,-3665.0,-9188.0,-12449.0,1.0,5.0,7.0,82.0,24.0,-17.0,-13.0,-45.0,3.268934965133667
618,-53.0,23.0,11.0,1.0,-3954.0,-3660.0,-9184.0,-12454.0,1.0,5.0,7.0,82.0,24.0,-17.0,-13.0,-45.0,3.2760088443756104
619,-53.0,23.0,11.0,1.0,-3954.0,-3660.0,-9184.0,-12454.0,-1.0,3.0,-26.0,-19.0,33.0,32.0,-3.0,-29.0,3.291968584060669
620,-53.0,23.0,11.0,1.0,-3954.0,-3660.0,-9184.0,-12454.0,-2.0,-4.0,5.0,7.0,5.0,4.0,4.0,21.0,3.2939045429229736
621,-49.0,31.0,-4.0,1.0,-3955.0,-3652.0,-9182.0,-12457.0,-2.0,-4.0,5.0,7.0,5.0,4.0,4.0,21.0,3.2957334518432617
622,-49.0,31.0,-4.0,1.0,-3955.0,-3652.0,-9182.0,-12457.0,2.0,-3.0,-14.0,-1.0,-27.0,32.0,13.0,0.0,3.297609567642212
623,-49.0,31.0,-4.0,1.0,-3955.0,-3652.0,-9182.0,-12457.0,-2.0,7.0,17.0,-12.0,27.0,-66.0,-10.0,5.0,3.305767297744751
624,-70.0,26.0,0.0,1.0,-3956.0,-3643.0,-9176.0,-12463.0,-2.0,7.0,17.0,-12.0,27.0,-66.0,-10.0,5.0,3.3215229511260986
625,-70.0,26.0,0.0,1.0,-3956.0,-3643.0,-9176.0,-12463.0,-6.0,-5.0,-21.0,-105.0,2.0,-34.0,-31.0,-30.0,3.32883882522583
626,-70.0,26.0,0.0,1.0,-3956.0,-3643.0,-9176.0,-12463.0,1.0,-2.0,-9.0,15.0,7.0,22.0,5.0,25.0,3.3309340476989746
627,-50.0,29.0,-14.0,1.0,-3958.0,-3635.0,-9175.0,-12466.0,1.0,-2.0,-9.0,15.0,7.0,22.0,5.0,25.0,3.336361885070801
628,-50.0,29.0,-14.0,1.0,-3958.0,-3635.0,-9175.0,-12466.0,2.0,5.0,-8.0,-1.0,61.0,39.0,12.0,-18.0,3.3428902626037598
629,-50.0,29.0,-14.0,1.0,-3958.0,-3635.0,-9175.0,-12466.0,-1.0,0.0,-5.0,51.0,27.0,12.0,8.0,24.0,3.3602585792541504
630,-53.0,26.0,-25.0,1.0,-3962.0,-3626.0,-9174.0,-12468.0,-1.0,0.0,-5.0,51.0,27.0,12.0,8.0,24.0,3.363142490386963
631,-53.0,26.0,-25.0,1.0,-3962.0,-3626.0,-9174.0,-12468.0,-1.0,3.0,8.0,-20.0,-38.0,25.0,6.0,0.0,3.365285873413086
632,-53.0,26.0,-25.0,1.0,-3962.0,-3626.0,-9174.0,-12468.0,-5.0,-1.0,2.0,76.0,23.0,-15.0,-8.0,-20.0,3.3733973503112793
633,-7.0,17.0,-23.0,1.0,-3965.0,-3619.0,-9180.0,-12465.0,-5.0,-1.0,2.0,76.0,23.0,-15.0,-8.0,-20.0,3.3752262592315674
634,-7.0,17.0,-23.0,1.0,-3965.0,-3619.0,-9180.0,-12465.0,-2.0,-1.0,8.0,32.0,-57.0,17.0,-3.0,14.0,3.3805992603302
635,-7.0,17.0,-23.0,1.0,-3965.0,-3619.0,-9180.0,-12465.0,3.0,2.0,-6.0,-33.0,3.0,32.0,10.0,5.0,3.4053902626037598
636,15.0,19.0,-30.0,1.0,-3967.0,-3614.0,-9189.0,-12459.0,3.0,2.0,-6.0,-33.0,3.0,32.0,10.0,5.0,3.408379316329956
637,15.0,19.0,-30.0,1.0,-3967.0,-3614.0,-9189.0,-12459.0,3.0,-1.0,18.0,37.0,-35.0,-39.0,5.0,30.0,3.410289764404297
638,15.0,19.0,-30.0,1.0,-3967.0,-3614.0,-9189.0,-12459.0,-1.0,1.0,-12.0,-33.0,7.0,1.0,-19.0,-18.0,3.4123382568359375
639,-6.0,14.0,-23.0,1.0,-3969.0,-3609.0,-9195.0,-12456.0,-1.0,1.0,-12.0,-33.0,7.0,1.0,-19.0,-18.0,3.414564371109009
640,-6.0,14.0,-23.0,1.0,-3969.0,-3609.0,-9195.0,-12456.0,0.0,-3.0,-13.0,18.0,44.0,-6.0,-19.0,35.0,3.4170546531677246
641,-6.0,14.0,-23.0,1.0,-3969.0,-3609.0,-9195.0,-12456.0,1.0,-2.0,4.0,-25.0,-30.0,10.0,15.0,22.0,3.434069871902466
642,-24.0,6.0,-9.0,1.0,-3971.0,-3606.0,-9193.0,-12457.0,1.0,-2.0,4.0,-25.0,-30.0,10.0,15.0,22.0,3.437169313430786
643,-24.0,6.0,-9.0,1.0,-3971.0,-3606.0,-9193.0,-12457.0,-2.0,-7.0,-6.0,7.0,67.0,-26.0,-6.0,-12.0,3.448594570159912
644,-24.0,6.0,-9.0,1.0,-3971.0,-3606.0,-9193.0,-12457.0,6.0,5.0,8.0,72.0,22.0,-1.0,-10.0,-2.0,3.451913595199585
645,-40.0,14.0,3.0,1.0,-3971.0,-3602.0,-9187.0,-12463.0,6.0,5.0,8.0,72.0,22.0,-1.0,-10.0,-2.0,3.455749034881592
646,-40.0,14.0,3.0,1.0,-3971.0,-3602.0,-9187.0,-12463.0,-6.0,-8.0,-30.0,6.0,-59.0,-23.0,-9.0,-41.0,3.462855339050293
647,-40.0,14.0,3.0,1.0,-3971.0,-3602.0,-9187.0,-12463.0,-5.0,-7.0,-5.0,-23.0,-9.0,8.0,-6.0,-11.0,3.4700493812561035
648,-78.0,33.0,8.0,1.0,-3970.0,-3594.0,-9178.0,-12472.0,-5.0,-7.0,-5.0,-23.0,-9.0,8.0,-6.0,-11.0,3.4875073432922363
649,-78.0,33.0,8.0,1.0,-3970.0,-3594.0,-9178.0,-12472.0,4.0,-1.0,9.0,-21.0,-2.0,10.0,12.0,20.0,3.491579294204712
650,-78.0,33.0,8.0,1.0,-3970.0,-3594.0,-9178.0,-12472.0,-5.0,-3.0,1.0,-45.0,-48.0,-49.0,-14.0,2.0,3.4953196048736572
651,-100.0,27.0,19.0,1.0,-3968.0,-3588.0,-9162.0,-12486.0,-5.0,-3.0,1.0,-45.0,-48.0,-49.0,-14.0,2.0,3.4976401329040527
652,-100.0,27.0,19.0,1.0,-3968.0,-3588.0,-9162.0,-12486.0,-1.0,2.0,-13.0,-12.0,-14.0,16.0,2.0,-2.0,3.4995875358581543
653,-100.0,27.0,19.0,1.0,-3968.0,-3588.0,-9162.0,-12486.0,-1.0,5.0,17.0,4.0,-26.0,-5.0,15.0,37.0,3.5073769092559814
654,-45.0,17.0,26.0,1.0,-3965.0,-3586.0,-9153.0,-12495.0,-1.0,5.0,17.0,4.0,-26.0,-5.0,15.0,37.0,3.5150146484375
655,-45.0,17.0,26.0,1.0,-3965.0,-3586.0,-9153.0,-12495.0,1.0,-1.0,2.0,4.0,4.0,-21.0,7.0,8.0,3.5324440002441406
656,-45.0,17.0,26.0,1.0,-3965.0,-3586.0,-9153.0,-12495.0,1.0,2.0,19.0,36.0,8.0,11.0,18.0,12.0,3.534534454345703
657,-9.0,16.0,38.0,1.0,-3957.0,-3589.0,-9149.0,-12499.0,1.0,2.0,19.0,36.0,8.0,11.0,18.0,12.0,3.538740873336792
658,-9.0,16.0,38.0,1.0,-3957.0,-3589.0,-9149.0,-12499.0,-5.0,0.0,12.0,-61.0,19.0,-16.0,-34.0,-43.0,3.541189193725586
659,-9.0,16.0,38.0,1.0,-3957.0,-3589.0,-9149.0,-12499.0,0.0,0.0,-8.0,-20.0,33.0,19.0,-1.0,2.0,3.5550529956817627
660,-10.0,-1.0,50.0,1.0,-3946.0,-3599.0,-9143.0,-12504.0,0.0,0.0,-8.0,-20.0,33.0,19.0,-1.0,2.0,3.5576295852661133
661,-10.0,-1.0,50.0,1.0,-3946.0,-3599.0,-9143.0,-12504.0,-1.0,-1.0,9.0,-6.0,0.0,6.0,5.0,-5.0,3.569244623184204
662,-10.0,-1.0,50.0,1.0,-3946.0,-3599.0,-9143.0,-12504.0,3.0,-1.0,-11.0,-18.0,16.0,7.0,-5.0,2.0,3.575991630554199
663,-27.0,-16.0,77.0,1.0,-3934.0,-3613.0,-9133.0,-12511.0,3.0,-1.0,-11.0,-18.0,16.0,7.0,-5.0,2.0,3.5777971744537354
664,-27.0,-16.0,77.0,1.0,-3934.0,-3613.0,-9133.0,-12511.0,-4.0,0.0,1.0,45.0,9.0,-11.0,-9.0,-2.0,3.582773208618164
665,-27.0,-16.0,77.0,1.0,-3934.0,-3613.0,-9133.0,-12511.0,1.0,0.0,4.0,-12.0,-13.0,6.0,-5.0,22.0,3.6002120971679688
666,-42.0,-28.0,89.0,1.0,-3925.0,-3626.0,-9120.0,-12519.0,1.0,0.0,4.0,-12.0,-13.0,6.0,-5.0,22.0,3.602114200592041
667,-42.0,-28.0,89.0,1.0,-3925.0,-3626.0,-9120.0,-12519.0,1.0,5.0,19.0,-7.0,-9.0,12.0,-10.0,8.0,3.606289863586426
668,-42.0,-28.0,89.0,1.0,-3925.0,-3626.0,-9120.0,-12519.0,1.0,-2.0,-41.0,-61.0,-16.0,46.0,17.0,-5.0,3.6082253456115723
669,-23.0,-49.0,106.0,1.0,-3913.0,-3646.0,-9111.0,-12524.0,1.0,-2.0,-41.0,-61.0,-16.0,46.0,17.0,-5.0,3.612900972366333
670,-23.0,-49.0,106.0,1.0,-3913.0,-3646.0,-9111.0,-12524.0,-6.0,-1.0,7.0,19.0,9.0,15.0,-2.0,-29.0,3.6216957569122314
671,-23.0,-49.0,106.0,1.0,-3913.0,-3646.0,-9111.0,-12524.0,2.0,-8.0,5.0,-38.0,-30.0,-7.0,-3.0,4.0,3.6290173530578613
672,11.0,-30.0,120.0,1.0,-3897.0,-3666.0,-9107.0,-12526.0,2.0,-8.0,5.0,-38.0,-30.0,-7.0,-3.0,4.0,3.6365559101104736
673,11.0,-30.0,120.0,1.0,-3897.0,-3666.0,-9107.0,-12526.0,2.0,6.0,7.0,56.0,39.0,14.0,11.0,10.0,3.650606393814087
674,11.0,-30.0,120.0,1.0,-3897.0,-3666.0,-9107.0,-12526.0,-2.0,2.0,26.0,-59.0,1.0,-10.0,-1.0,12.0,3.6591968536376953
675,-2.0,-26.0,111.0,1.0,-3884.0,-3681.0,-9102.0,-12529.0,-2.0,2.0,26.0,-59.0,1.0,-10.0,-1.0,12.0,3.6614270210266113
676,-2.0,-26.0,111.0,1.0,-3884.0,-3681.0,-9102.0,-12529.0,-4.0,-4.0,-19.0,-7.0,-74.0,-55.0,-12.0,-19.0,3.663496971130371
677,-2.0,-26.0,111.0,1.0,-3884.0,-3681.0,-9102.0,-12529.0,-3.0,-2.0,-1.0,27.0,8.0,-2.0,5.0,-13.0,3.673663377761841
678,12.0,-21.0,102.0,1.0,-3871.0,-3695.0,-9100.0,-12531.0,-3.0,-2.0,-1.0,27.0,8.0,-2.0,5.0,-13.0,3.677332639694214
679,12.0,-21.0,102.0,1.0,-3871.0,-3695.0,-9100.0,-12531.0,4.0,6.0,32.0,11.0,19.0,25.0,15.0,18.0,3.6886913776397705
680,12.0,-21.0,102.0,1.0,-3871.0,-3695.0,-9100.0,-12531.0,-5.0,-5.0,-6.0,4.0,-43.0,-19.0,-5.0,-32.0,3.6912360191345215
681,4.0,-13.0,95.0,1.0,-3858.0,-3708.0,-9097.0,-12533.0,-5.0,-5.0,-6.0,4.0,-43.0,-19.0,-5.0,-32.0,3.6956024169921875
682,4.0,-13.0,95.0,1.0,-3858.0,-3708.0,-9097.0,-12533.0,1.0,-5.0,-16.0,-41.0,46.0,17.0,17.0,14.0,3.704624891281128
683,4.0,-13.0,95.0,1.0,-3858.0,-3708.0,-9097.0,-12533.0,5.0,-1.0,6.0,63.0,33.0,-2.0,10.0,29.0,3.709937810897827
684,2.0,5.0,84.0,1.0,-3844.0,-3718.0,-9095.0,-12536.0,5.0,-1.0,6.0,63.0,33.0,-2.0,10.0,29.0,3.7255859375
685,2.0,5.0,84.0,1.0,-3844.0,-3718.0,-9095.0,-12536.0,0.0,5.0,-24.0,-13.0,0.0,-3.0,2.0,3.0,3.727595806121826
686,2.0,5.0,84.0,1.0,-3844.0,-3718.0,-9095.0,-12536.0,-8.0,-9.0,-12.0,-9.0,28.0,-1.0,-31.0,-39.0,3.7336955070495605
687,-44.0,25.0,74.0,1.0,-3832.0,-3721.0,-9089.0,-12543.0,-8.0,-9.0,-12.0,-9.0,28.0,-1.0,-31.0,-39.0,3.7358720302581787
688,-44.0,25.0,74.0,1.0,-3832.0,-3721.0,-9089.0,-12543.0,2.0,-5.0,-9.0,0.0,-16.0,15.0,15.0,18.0,3.7404086589813232
689,-44.0,25.0,74.0,1.0,-3832.0,-3721.0,-9089.0,-12543.0,0.0,1.0,2.0,1.0,-4.0,7.0,2.0,13.0,3.755513906478882
690,-76.0,25.0,66.0,1.0,-3824.0,-3721.0,-9079.0,-12553.0,0.0,1.0,2.0,1.0,-4.0,7.0,2.0,13.0,3.7578811645507812
691,-76.0,25.0,66.0,1.0,-3824.0,-3721.0,-9079.0,-12553.0,4.0,-1.0,20.0,14.0,-8.0,16.0,11.0,18.0,3.7625362873077393
692,-76.0,25.0,66.0,1.0,-3824.0,-3721.0,-9079.0,-12553.0,2.0,-1.0,-12.0,-17.0,12.0,-35.0,7.0,6.0,3.7701406478881836
693,-129.0,21.0,56.0,1.0,-3821.0,-3717.0,-9061.0,-12568.0,2.0,-1.0,-12.0,-17.0,12.0,-35.0,7.0,6.0,3.7785487174987793
694,-129.0,21.0,56.0,1.0,-3821.0,-3717.0,-9061.0,-12568.0,2.0,2.0,0.0,-48.0,-5.0,-19.0,-10.0,-1.0,3.7807607650756836
695,-129.0,21.0,56.0,1.0,-3821.0,-3717.0,-9061.0,-12568.0,6.0,4.0,5.0,42.0,24.0,21.0,16.0,24.0,3.8166167736053467
696,-173.0,28.0,57.0,1.0,-3818.0,-3709.0,-9035.0,-12590.0,6.0,4.0,5.0,42.0,24.0,21.0,16.0,24.0,3.8199331760406494
697,-173.0,28.0,57.0,1.0,-3818.0,-3709.0,-9035.0,-12590.0,-5.0,-8.0,-9.0,15.0,33.0,20.0,-10.0,-8.0,3.8258347511291504
698,-173.0,28.0,57.0,1.0,-3818.0,-3709.0,-9035.0,-12590.0,-2.0,-2.0,-6.0,13.0,18.0,-17.0,-21.0,-5.0,3.828892946243286
699,-183.0,6.0,61.0,1.0,-3818.0,-3705.0,-9007.0,-12611.0,-2.0,-2.0,-6.0,13.0,18.0,-17.0,-21.0,-5.0,3.830756425857544
