,Gyro 0,Gyro 1,Gyro 2,Label,Orientation 0,Orientation 1,Orientation 2,Orientation 3,Sensor 0,Sensor 1,Sensor 2,Sensor 3,Sensor 4,Sensor 5,Sensor 6,Sensor 7,Timestamp
0,-8.0,-91.0,-33.0,1.0,-11562.0,-10192.0,4494.0,-3271.0,-7.0,-7.0,-9.0,-5.0,1.0,4.0,0.0,-4.0,2.1457672119140625e-06
1,-8.0,-91.0,-33.0,1.0,-11562.0,-10192.0,4494.0,-3271.0,0.0,9.0,-4.0,11.0,-2.0,-2.0,-2.0,-11.0,0.002387523651123047
2,-8.0,-91.0,-33.0,1.0,-11562.0,-10192.0,4494.0,-3271.0,13.0,6.0,9.0,2.0,-1.0,0.0,-1.0,-1.0,0.005231618881225586
3,-8.0,-91.0,-33.0,1.0,-11562.0,-10192.0,4494.0,-3271.0,-5.0,-12.0,-6.0,4.0,0.0,2.0,0.0,2.0,0.008100032806396484
4,-8.0,-91.0,-33.0,1.0,-11562.0,-10192.0,4494.0,-3271.0,3.0,3.0,11.0,8.0,-1.0,-1.0,0.0,2.0,0.010257482528686523
5,6.0,-91.0,-63.0,1.0,-11563.0,-10205.0,4493.0,-3227.0,3.0,3.0,11.0,8.0,-1.0,-1.0,0.0,2.0,0.012396097183227539
6,6.0,-91.0,-63.0,1.0,-11563.0,-10205.0,4493.0,-3227.0,1.0,0.0,1.0,3.0,-1.0,10.0,2.0,1.0,0.014560699462890625
7,6.0,-91.0,-63.0,1.0,-11563.0,-10205.0,4493.0,-3227.0,-3.0,-3.0,2.0,-4.0,-1.0,11.0,-2.0,-2.0,0.016559362411499023
8,-66.0,-49.0,-101.0,1.0,-11573.0,-10209.0,4482.0,-3196.0,-3.0,-3.0,2.0,-4.0,-1.0,11.0,-2.0,-2.0,0.019145488739013672
9,-66.0,-49.0,-101.0,1.0,-11573.0,-10209.0,4482.0,-3196.0,3.0,5.0,0.0,-6.0,-1.0,-3.0,1.0,0.0,0.021480798721313477
10,-66.0,-49.0,-101.0,1.0,-11573.0,-10209.0,4482.0,-3196.0,3.0,8.0,-3.0,-6.0,2.0,-1.0,1.0,3.0,0.02353668212890625
11,-122.0,-32.0,-129.0,1.0,-11589.0,-10207.0,4469.0,-3163.0,3.0,8.0,-3.0,-6.0,2.0,-1.0,1.0,3.0,0.02540421485900879
12,-122.0,-32.0,-129.0,1.0,-11589.0,-10207.0,4469.0,-3163.0,0.0,2.0,0.0,6.0,4.0,0.0,-2.0,0.0,0.02725958824157715
13,-122.0,-32.0,-129.0,1.0,-11589.0,-10207.0,4469.0,-3163.0,-4.0,-5.0,-5.0,-18.0,-6.0,-2.0,-2.0,-1.0,0.029033660888671875
14,-100.0,-36.0,-136.0,1.0,-11602.0,-10207.0,4457.0,-3130.0,-4.0,-5.0,-5.0,-18.0,-6.0,-2.0,-2.0,-1.0,0.030849933624267578
15,-100.0,-36.0,-136.0,1.0,-11602.0,-10207.0,4457.0,-3130.0,-3.0,0.0,5.0,12.0,0.0,-1.0,-1.0,1.0,0.033193111419677734
16,-100.0,-36.0,-136.0,1.0,-11602.0,-10207.0,4457.0,-3130.0,1.0,-4.0,-2.0,4.0,2.0,8.0,0.0,1.0,0.03534984588623047
17,-121.0,-31.0,-120.0,1.0,-11618.0,-10202.0,4449.0,-3102.0,1.0,-4.0,-2.0,4.0,2.0,8.0,0.0,1.0,0.03726649284362793
18,-121.0,-31.0,-120.0,1.0,-11618.0,-10202.0,4449.0,-3102.0,-3.0,-1.0,-1.0,-7.0,-7.0,-16.0,-3.0,-1.0,0.03911852836608887
19,-121.0,-31.0,-120.0,1.0,-11618.0,-10202.0,4449.0,-3102.0,0.0,0.0,-9.0,-8.0,3.0,-15.0,1.0,0.0,0.040882110595703125
20,-128.0,-16.0,-81.0,1.0,-11634.0,-10192.0,4442.0,-3079.0,0.0,0.0,-9.0,-8.0,3.0,-15.0,1.0,0.0,0.04267168045043945
21,-128.0,-16.0,-81.0,1.0,-11634.0,-10192.0,4442.0,-3079.0,0.0,-2.0,1.0,1.0,-2.0,-5.0,1.0,1.0,0.04475045204162598
22,-128.0,-16.0,-81.0,1.0,-11634.0,-10192.0,4442.0,-3079.0,0.0,-2.0,-6.0,-11.0,8.0,8.0,3.0,0.0,0.04684925079345703
23,-134.0,-13.0,-49.0,1.0,-11653.0,-10177.0,4439.0,-3063.0,0.0,-2.0,-6.0,-11.0,8.0,8.0,3.0,0.0,0.04863119125366211
24,-134.0,-13.0,-49.0,1.0,-11653.0,-10177.0,4439.0,-3063.0,-1.0,1.0,-1.0,-12.0,9.0,-21.0,-5.0,-2.0,0.051223039627075195
25,-134.0,-13.0,-49.0,1.0,-11653.0,-10177.0,4439.0,-3063.0,1.0,-4.0,-1.0,6.0,-8.0,-2.0,-1.0,-1.0,0.0539703369140625
26,-130.0,-8.0,-21.0,1.0,-11673.0,-10159.0,4437.0,-3051.0,1.0,-4.0,-1.0,6.0,-8.0,-2.0,-1.0,-1.0,0.05584573745727539
27,-130.0,-8.0,-21.0,1.0,-11673.0,-10159.0,4437.0,-3051.0,-2.0,-2.0,0.0,2.0,-10.0,13.0,-2.0,-2.0,0.05775761604309082
28,-130.0,-8.0,-21.0,1.0,-11673.0,-10159.0,4437.0,-3051.0,0.0,1.0,4.0,5.0,12.0,0.0,-1.0,0.0,0.059530019760131836
29,-169.0,-4.0,4.0,1.0,-11694.0,-10138.0,4439.0,-3040.0,0.0,1.0,4.0,5.0,12.0,0.0,-1.0,0.0,0.06133580207824707
30,-169.0,-4.0,4.0,1.0,-11694.0,-10138.0,4439.0,-3040.0,-1.0,0.0,-6.0,-3.0,-13.0,-14.0,-3.0,-1.0,0.06318140029907227
31,-169.0,-4.0,4.0,1.0,-11694.0,-10138.0,4439.0,-3040.0,-4.0,-3.0,-2.0,-4.0,-8.0,-8.0,0.0,-1.0,0.064971923828125
32,-234.0,13.0,10.0,1.0,-11725.0,-10103.0,4440.0,-3029.0,-4.0,-3.0,-2.0,-4.0,-8.0,-8.0,0.0,-1.0,0.06674361228942871
33,-234.0,13.0,10.0,1.0,-11725.0,-10103.0,4440.0,-3029.0,-5.0,-3.0,-5.0,-12.0,0.0,-5.0,1.0,-3.0,0.06858468055725098
34,-234.0,13.0,10.0,1.0,-11725.0,-10103.0,4440.0,-3029.0,0.0,1.0,2.0,4.0,-1.0,-5.0,-4.0,-1.0,0.07039642333984375
35,-227.0,43.0,28.0,1.0,-11756.0,-10067.0,4442.0,-3027.0,0.0,1.0,2.0,4.0,-1.0,-5.0,-4.0,-1.0,0.07266807556152344
36,-227.0,43.0,28.0,1.0,-11756.0,-10067.0,4442.0,-3027.0,4.0,1.0,-1.0,5.0,-2.0,8.0,0.0,2.0,0.07487773895263672
37,-227.0,43.0,28.0,1.0,-11756.0,-10067.0,4442.0,-3027.0,1.0,6.0,6.0,0.0,-17.0,6.0,1.0,0.0,0.07676815986633301
38,-143.0,77.0,36.0,1.0,-11780.0,-10039.0,4437.0,-3034.0,1.0,6.0,6.0,0.0,-17.0,6.0,1.0,0.0,0.07858633995056152
39,-143.0,77.0,36.0,1.0,-11780.0,-10039.0,4437.0,-3034.0,-1.0,-3.0,-8.0,-18.0,4.0,10.0,0.0,1.0,0.08054900169372559
40,-143.0,77.0,36.0,1.0,-11780.0,-10039.0,4437.0,-3034.0,-1.0,-2.0,4.0,20.0,7.0,3.0,0.0,-1.0,0.08338475227355957
41,-62.0,114.0,52.0,1.0,-11793.0,-10024.0,4427.0,-3048.0,-1.0,-2.0,4.0,20.0,7.0,3.0,0.0,-1.0,0.08598899841308594
42,-62.0,114.0,52.0,1.0,-11793.0,-10024.0,4427.0,-3048.0,2.0,-3.0,-2.0,5.0,-3.0,5.0,2.0,-2.0,0.08800816535949707
43,-62.0,114.0,52.0,1.0,-11793.0,-10024.0,4427.0,-3048.0,0.0,3.0,10.0,-4.0,0.0,1.0,-1.0,-1.0,0.0898294448852539
44,-62.0,110.0,61.0,1.0,-11803.0,-10012.0,4419.0,-3062.0,0.0,3.0,10.0,-4.0,0.0,1.0,-1.0,-1.0,0.09160637855529785
45,-62.0,110.0,61.0,1.0,-11803.0,-10012.0,4419.0,-3062.0,-1.0,-4.0,0.0,5.0,4.0,1.0,0.0,1.0,0.09347224235534668
46,-62.0,110.0,61.0,1.0,-11803.0,-10012.0,4419.0,-3062.0,3.0,-2.0,-3.0,4.0,-6.0,-5.0,-1.0,1.0,0.0956261157989502
47,-104.0,86.0,61.0,1.0,-11816.0,-9996.0,4415.0,-3070.0,3.0,-2.0,-3.0,4.0,-6.0,-5.0,-1.0,1.0,0.0977480411529541
48,-104.0,86.0,61.0,1.0,-11816.0,-9996.0,4415.0,-3070.0,0.0,5.0,-9.0,-6.0,8.0,3.0,-3.0,-2.0,0.09980630874633789
49,-104.0,86.0,61.0,1.0,-11816.0,-9996.0,4415.0,-3070.0,-6.0,-11.0,-11.0,-5.0,-4.0,-3.0,0.0,1.0,0.10164642333984375
50,-93.0,86.0,68.0,1.0,-11828.0,-9982.0,4410.0,-3079.0,-6.0,-11.0,-11.0,-5.0,-4.0,-3.0,0.0,1.0,0.10345005989074707
51,-93.0,86.0,68.0,1.0,-11828.0,-9982.0,4410.0,-3079.0,-2.0,-5.0,3.0,2.0,1.0,5.0,-1.0,-5.0,0.10541200637817383
52,-93.0,86.0,68.0,1.0,-11828.0,-9982.0,4410.0,-3079.0,2.0,7.0,14.0,5.0,3.0,-9.0,0.0,-1.0,0.1072378158569336
53,-80.0,70.0,88.0,1.0,-11838.0,-9968.0,4407.0,-3088.0,2.0,7.0,14.0,5.0,3.0,-9.0,0.0,-1.0,0.10901379585266113
54,-80.0,70.0,88.0,1.0,-11838.0,-9968.0,4407.0,-3088.0,-1.0,1.0,-2.0,8.0,-1.0,-13.0,0.0,-1.0,0.11134719848632812
55,-80.0,70.0,88.0,1.0,-11838.0,-9968.0,4407.0,-3088.0,-4.0,-3.0,-13.0,-9.0,-2.0,0.0,-1.0,-2.0,0.11346769332885742
56,-40.0,79.0,84.0,1.0,-11846.0,-9957.0,4401.0,-3101.0,-4.0,-3.0,-13.0,-9.0,-2.0,0.0,-1.0,-2.0,0.11541366577148438
57,-40.0,79.0,84.0,1.0,-11846.0,-9957.0,4401.0,-3101.0,1.0,1.0,8.0,10.0,-3.0,1.0,-4.0,1.0,0.11769676208496094
58,-40.0,79.0,84.0,1.0,-11846.0,-9957.0,4401.0,-3101.0,-3.0,-3.0,-2.0,-9.0,2.0,2.0,-1.0,-3.0,0.11975431442260742
59,12.0,62.0,100.0,1.0,-11847.0,-9953.0,4396.0,-3115.0,-3.0,-3.0,-2.0,-9.0,2.0,2.0,-1.0,-3.0,0.1218254566192627
60,12.0,62.0,100.0,1.0,-11847.0,-9953.0,4396.0,-3115.0,-1.0,-1.0,2.0,-4.0,-3.0,2.0,0.0,3.0,0.12369871139526367
61,12.0,62.0,100.0,1.0,-11847.0,-9953.0,4396.0,-3115.0,-3.0,-4.0,-9.0,-20.0,-3.0,-2.0,-3.0,-2.0,0.12550711631774902
62,28.0,25.0,106.0,1.0,-11844.0,-9955.0,4394.0,-3125.0,-3.0,-4.0,-9.0,-20.0,-3.0,-2.0,-3.0,-2.0,0.12727570533752441
63,28.0,25.0,106.0,1.0,-11844.0,-9955.0,4394.0,-3125.0,-1.0,-7.0,-3.0,4.0,-6.0,-5.0,-1.0,-2.0,0.12913179397583008
64,28.0,25.0,106.0,1.0,-11844.0,-9955.0,4394.0,-3125.0,-4.0,-6.0,-7.0,2.0,-2.0,1.0,0.0,-2.0,0.13092494010925293
65,3.0,19.0,154.0,1.0,-11841.0,-9952.0,4400.0,-3139.0,-4.0,-6.0,-7.0,2.0,-2.0,1.0,0.0,-2.0,0.13272786140441895
66,3.0,19.0,154.0,1.0,-11841.0,-9952.0,4400.0,-3139.0,1.0,8.0,8.0,-1.0,1.0,-1.0,0.0,2.0,0.13458561897277832
67,3.0,19.0,154.0,1.0,-11841.0,-9952.0,4400.0,-3139.0,-3.0,-3.0,-3.0,-3.0,1.0,0.0,-1.0,0.0,0.1364145278930664
68,-29.0,21.0,186.0,1.0,-11840.0,-9942.0,4410.0,-3156.0,-3.0,-3.0,-3.0,-3.0,1.0,0.0,-1.0,0.0,0.13820195198059082
69,-29.0,21.0,186.0,1.0,-11840.0,-9942.0,4410.0,-3156.0,3.0,7.0,9.0,5.0,2.0,-9.0,0.0,0.0,0.14006996154785156
70,-29.0,21.0,186.0,1.0,-11840.0,-9942.0,4410.0,-3156.0,2.0,1.0,1.0,7.0,0.0,-8.0,1.0,2.0,0.1419510841369629
71,2.0,4.0,199.0,1.0,-11835.0,-9936.0,4424.0,-3175.0,2.0,1.0,1.0,7.0,0.0,-8.0,1.0,2.0,0.14481258392333984
72,2.0,4.0,199.0,1.0,-11835.0,-9936.0,4424.0,-3175.0,-3.0,-4.0,-7.0,-6.0,-4.0,2.0,-2.0,-4.0,0.14696311950683594
73,2.0,4.0,199.0,1.0,-11835.0,-9936.0,4424.0,-3175.0,8.0,-3.0,-1.0,-4.0,0.0,2.0,-1.0,-2.0,0.14893126487731934
74,46.0,-30.0,202.0,1.0,-11822.0,-9938.0,4442.0,-3194.0,8.0,-3.0,-1.0,-4.0,0.0,2.0,-1.0,-2.0,0.15070605278015137
75,46.0,-30.0,202.0,1.0,-11822.0,-9938.0,4442.0,-3194.0,-1.0,-8.0,-8.0,6.0,1.0,-1.0,-1.0,-2.0,0.1525590419769287
76,46.0,-30.0,202.0,1.0,-11822.0,-9938.0,4442.0,-3194.0,-4.0,-1.0,5.0,7.0,-2.0,0.0,-3.0,-5.0,0.15432977676391602
77,53.0,-76.0,196.0,1.0,-11801.0,-9945.0,4469.0,-3208.0,-4.0,-1.0,5.0,7.0,-2.0,0.0,-3.0,-5.0,0.15610766410827637
78,53.0,-76.0,196.0,1.0,-11801.0,-9945.0,4469.0,-3208.0,-5.0,-10.0,-9.0,-10.0,-3.0,0.0,2.0,1.0,0.15842843055725098
79,53.0,-76.0,196.0,1.0,-11801.0,-9945.0,4469.0,-3208.0,0.0,4.0,2.0,2.0,-2.0,-1.0,-1.0,1.0,0.16047024726867676
80,8.0,-110.0,191.0,1.0,-11787.0,-9948.0,4499.0,-3214.0,0.0,4.0,2.0,2.0,-2.0,-1.0,-1.0,1.0,0.16238021850585938
81,8.0,-110.0,191.0,1.0,-11787.0,-9948.0,4499.0,-3214.0,-1.0,1.0,4.0,-2.0,0.0,1.0,-2.0,0.0,0.16422462463378906
82,8.0,-110.0,191.0,1.0,-11787.0,-9948.0,4499.0,-3214.0,-1.0,0.0,-7.0,2.0,1.0,0.0,-1.0,1.0,0.16600513458251953
83,-37.0,-154.0,154.0,1.0,-11777.0,-9945.0,4534.0,-3211.0,-1.0,0.0,-7.0,2.0,1.0,0.0,-1.0,1.0,0.16777706146240234
84,-37.0,-154.0,154.0,1.0,-11777.0,-9945.0,4534.0,-3211.0,0.0,4.0,-1.0,0.0,0.0,1.0,1.0,2.0,0.16971445083618164
85,-37.0,-154.0,154.0,1.0,-11777.0,-9945.0,4534.0,-3211.0,-2.0,-2.0,-2.0,-2.0,-1.0,0.0,-2.0,-2.0,0.17148327827453613
86,-33.0,-183.0,137.0,1.0,-11767.0,-9940.0,4572.0,-3206.0,-2.0,-2.0,-2.0,-2.0,-1.0,0.0,-2.0,-2.0,0.17397570610046387
87,-33.0,-183.0,137.0,1.0,-11767.0,-9940.0,4572.0,-3206.0,5.0,-1.0,-3.0,0.0,2.0,-1.0,-2.0,0.0,0.17637968063354492
88,-33.0,-183.0,137.0,1.0,-11767.0,-9940.0,4572.0,-3206.0,-1.0,1.0,3.0,5.0,0.0,0.0,1.0,2.0,0.17819476127624512
89,-5.0,-181.0,119.0,1.0,-11755.0,-9941.0,4606.0,-3200.0,-1.0,1.0,3.0,5.0,0.0,0.0,1.0,2.0,0.1803264617919922
90,-5.0,-181.0,119.0,1.0,-11755.0,-9941.0,4606.0,-3200.0,3.0,1.0,3.0,15.0,-1.0,-1.0,-2.0,1.0,0.18256592750549316
91,-5.0,-181.0,119.0,1.0,-11755.0,-9941.0,4606.0,-3200.0,-1.0,-2.0,-4.0,-13.0,-2.0,-6.0,0.0,-3.0,0.18460893630981445
92,-13.0,-159.0,109.0,1.0,-11746.0,-9940.0,4635.0,-3193.0,-1.0,-2.0,-4.0,-13.0,-2.0,-6.0,0.0,-3.0,0.1864025592803955
93,-13.0,-159.0,109.0,1.0,-11746.0,-9940.0,4635.0,-3193.0,-3.0,-1.0,6.0,2.0,-2.0,0.0,1.0,-2.0,0.1882483959197998
94,-13.0,-159.0,109.0,1.0,-11746.0,-9940.0,4635.0,-3193.0,4.0,3.0,-3.0,-4.0,-3.0,-3.0,-3.0,1.0,0.19002962112426758
95,-42.0,-128.0,129.0,1.0,-11740.0,-9935.0,4663.0,-3190.0,4.0,3.0,-3.0,-4.0,-3.0,-3.0,-3.0,1.0,0.19179272651672363
96,-42.0,-128.0,129.0,1.0,-11740.0,-9935.0,4663.0,-3190.0,1.0,2.0,-4.0,-7.0,1.0,0.0,0.0,-1.0,0.1936664581298828
97,-42.0,-128.0,129.0,1.0,-11740.0,-9935.0,4663.0,-3190.0,-2.0,-4.0,-2.0,1.0,0.0,0.0,-2.0,-4.0,0.19546985626220703
98,-81.0,-88.0,183.0,1.0,-11737.0,-9920.0,4697.0,-3199.0,-2.0,-4.0,-2.0,1.0,0.0,0.0,-2.0,-4.0,0.19725680351257324
99,-81.0,-88.0,183.0,1.0,-11737.0,-9920.0,4697.0,-3199.0,-6.0,-2.0,3.0,6.0,7.0,1.0,0.0,0.0,0.19910311698913574
100,-81.0,-88.0,183.0,1.0,-11737.0,-9920.0,4697.0,-3199.0,-11.0,2.0,3.0,7.0,-4.0,0.0,2.0,-3.0,0.20093250274658203
101,-109.0,-82.0,228.0,1.0,-11733.0,-9901.0,4737.0,-3212.0,-11.0,2.0,3.0,7.0,-4.0,0.0,2.0,-3.0,0.20283007621765137
102,-109.0,-82.0,228.0,1.0,-11733.0,-9901.0,4737.0,-3212.0,2.0,1.0,-3.0,-14.0,3.0,13.0,2.0,0.0,0.2058713436126709
103,-109.0,-82.0,228.0,1.0,-11733.0,-9901.0,4737.0,-3212.0,-1.0,-3.0,-10.0,-22.0,3.0,-13.0,-4.0,1.0,0.20787358283996582
104,-251.0,-106.0,278.0,1.0,-11740.0,-9860.0,4796.0,-3227.0,-1.0,-3.0,-10.0,-22.0,3.0,-13.0,-4.0,1.0,0.21012520790100098
105,-251.0,-106.0,278.0,1.0,-11740.0,-9860.0,4796.0,-3227.0,-3.0,1.0,5.0,4.0,-1.0,-4.0,0.0,-2.0,0.21204543113708496
106,-251.0,-106.0,278.0,1.0,-11740.0,-9860.0,4796.0,-3227.0,2.0,0.0,6.0,-3.0,10.0,-4.0,1.0,1.0,0.2138535976409912
107,-378.0,-136.0,293.0,1.0,-11756.0,-9806.0,4863.0,-3230.0,2.0,0.0,6.0,-3.0,10.0,-4.0,1.0,1.0,0.21561551094055176
108,-378.0,-136.0,293.0,1.0,-11756.0,-9806.0,4863.0,-3230.0,-11.0,-6.0,-5.0,-9.0,18.0,2.0,0.0,0.0,0.21748805046081543
109,-378.0,-136.0,293.0,1.0,-11756.0,-9806.0,4863.0,-3230.0,1.0,-6.0,-7.0,-15.0,0.0,-6.0,1.0,-1.0,0.21947979927062988
110,-446.0,-153.0,288.0,1.0,-11778.0,-9745.0,4935.0,-3227.0,1.0,-6.0,-7.0,-15.0,0.0,-6.0,1.0,-1.0,0.22164225578308105
111,-446.0,-153.0,288.0,1.0,-11778.0,-9745.0,4935.0,-3227.0,2.0,9.0,14.0,19.0,-21.0,5.0,-4.0,-3.0,0.2237863540649414
112,-446.0,-153.0,288.0,1.0,-11778.0,-9745.0,4935.0,-3227.0,2.0,-2.0,-1.0,4.0,-12.0,-4.0,-4.0,0.0,0.22564315795898438
113,-468.0,-129.0,286.0,1.0,-11800.0,-9678.0,5012.0,-3232.0,2.0,-2.0,-1.0,4.0,-12.0,-4.0,-4.0,0.0,0.22745895385742188
114,-468.0,-129.0,286.0,1.0,-11800.0,-9678.0,5012.0,-3232.0,0.0,-8.0,-7.0,-8.0,-4.0,-17.0,1.0,0.0,0.22935104370117188
115,-468.0,-129.0,286.0,1.0,-11800.0,-9678.0,5012.0,-3232.0,1.0,2.0,4.0,-10.0,-8.0,2.0,2.0,-1.0,0.2311387062072754
116,-377.0,-103.0,266.0,1.0,-11813.0,-9622.0,5080.0,-3241.0,1.0,2.0,4.0,-10.0,-8.0,2.0,2.0,-1.0,0.23293757438659668
117,-377.0,-103.0,266.0,1.0,-11813.0,-9622.0,5080.0,-3241.0,2.0,-1.0,-12.0,-10.0,-30.0,-3.0,0.0,1.0,0.2357635498046875
118,-377.0,-103.0,266.0,1.0,-11813.0,-9622.0,5080.0,-3241.0,0.0,4.0,9.0,26.0,-11.0,19.0,7.0,6.0,0.23808550834655762
119,-308.0,-21.0,233.0,1.0,-11823.0,-9574.0,5135.0,-3261.0,0.0,4.0,9.0,26.0,-11.0,19.0,7.0,6.0,0.23986577987670898
120,-308.0,-21.0,233.0,1.0,-11823.0,-9574.0,5135.0,-3261.0,4.0,-7.0,-7.0,-16.0,-7.0,5.0,-1.0,-2.0,0.24187445640563965
121,-308.0,-21.0,233.0,1.0,-11823.0,-9574.0,5135.0,-3261.0,-2.0,-2.0,-1.0,37.0,-1.0,17.0,0.0,-4.0,0.24413704872131348
122,-184.0,8.0,185.0,1.0,-11823.0,-9541.0,5181.0,-3288.0,-2.0,-2.0,-1.0,37.0,-1.0,17.0,0.0,-4.0,0.2462303638458252
123,-184.0,8.0,185.0,1.0,-11823.0,-9541.0,5181.0,-3288.0,-1.0,-10.0,-20.0,-62.0,6.0,-3.0,0.0,-4.0,0.24823594093322754
124,-184.0,8.0,185.0,1.0,-11823.0,-9541.0,5181.0,-3288.0,4.0,1.0,1.0,13.0,4.0,11.0,-3.0,-8.0,0.2500345706939697
125,0.0,11.0,92.0,1.0,-11805.0,-9537.0,5212.0,-3314.0,4.0,1.0,1.0,13.0,4.0,11.0,-3.0,-8.0,0.2518177032470703
126,0.0,11.0,92.0,1.0,-11805.0,-9537.0,5212.0,-3314.0,-5.0,-4.0,4.0,-9.0,-15.0,-6.0,-3.0,-5.0,0.25368499755859375
127,0.0,11.0,92.0,1.0,-11805.0,-9537.0,5212.0,-3314.0,-4.0,-5.0,-11.0,-13.0,5.0,-15.0,0.0,2.0,0.2554740905761719
128,25.0,7.0,39.0,1.0,-11787.0,-9539.0,5235.0,-3334.0,-4.0,-5.0,-11.0,-13.0,5.0,-15.0,0.0,2.0,0.25726842880249023
129,25.0,7.0,39.0,1.0,-11787.0,-9539.0,5235.0,-3334.0,1.0,7.0,-2.0,10.0,1.0,9.0,3.0,3.0,0.2591581344604492
130,25.0,7.0,39.0,1.0,-11787.0,-9539.0,5235.0,-3334.0,2.0,0.0,1.0,6.0,3.0,-3.0,2.0,3.0,0.2609436511993408
131,-15.0,46.0,-34.0,1.0,-11783.0,-9534.0,5245.0,-3348.0,2.0,0.0,1.0,6.0,3.0,-3.0,2.0,3.0,0.26274585723876953
132,-15.0,46.0,-34.0,1.0,-11783.0,-9534.0,5245.0,-3348.0,0.0,1.0,13.0,36.0,-6.0,-6.0,-5.0,-9.0,0.2650890350341797
133,-15.0,46.0,-34.0,1.0,-11783.0,-9534.0,5245.0,-3348.0,-4.0,-3.0,-1.0,4.0,11.0,-7.0,-3.0,-2.0,0.2672159671783447
134,-89.0,59.0,-41.0,1.0,-11793.0,-9512.0,5254.0,-3362.0,-4.0,-3.0,-1.0,4.0,11.0,-7.0,-3.0,-2.0,0.26921677589416504
135,-89.0,59.0,-41.0,1.0,-11793.0,-9512.0,5254.0,-3362.0,1.0,4.0,10.0,5.0,6.0,-2.0,0.0,5.0,0.27108120918273926
136,-89.0,59.0,-41.0,1.0,-11793.0,-9512.0,5254.0,-3362.0,7.0,21.0,0.0,-28.0,-23.0,-3.0,3.0,12.0,0.27284979820251465
137,-17.0,54.0,-59.0,1.0,-11798.0,-9499.0,5257.0,-3376.0,7.0,21.0,0.0,-28.0,-23.0,-3.0,3.0,12.0,0.27463603019714355
138,-17.0,54.0,-59.0,1.0,-11798.0,-9499.0,5257.0,-3376.0,0.0,1.0,1.0,13.0,-6.0,-2.0,0.0,4.0,0.2765164375305176
139,-17.0,54.0,-59.0,1.0,-11798.0,-9499.0,5257.0,-3376.0,3.0,3.0,17.0,21.0,6.0,-8.0,-9.0,-4.0,0.27829813957214355
140,24.0,68.0,-38.0,1.0,-11796.0,-9496.0,5257.0,-3392.0,3.0,3.0,17.0,21.0,6.0,-8.0,-9.0,-4.0,0.28007984161376953
141,24.0,68.0,-38.0,1.0,-11796.0,-9496.0,5257.0,-3392.0,1.0,2.0,9.0,17.0,11.0,4.0,-1.0,-1.0,0.2819814682006836
142,24.0,68.0,-38.0,1.0,-11796.0,-9496.0,5257.0,-3392.0,-2.0,-14.0,-16.0,-31.0,13.0,17.0,2.0,-3.0,0.28531360626220703
143,-55.0,58.0,-28.0,1.0,-11801.0,-9483.0,5262.0,-3403.0,-2.0,-14.0,-16.0,-31.0,13.0,17.0,2.0,-3.0,0.28780055046081543
144,-55.0,58.0,-28.0,1.0,-11801.0,-9483.0,5262.0,-3403.0,-2.0,-7.0,-4.0,1.0,22.0,5.0,-3.0,-5.0,0.28968310356140137
145,-55.0,58.0,-28.0,1.0,-11801.0,-9483.0,5262.0,-3403.0,-3.0,-2.0,3.0,5.0,5.0,0.0,-3.0,-1.0,0.29148364067077637
146,-129.0,40.0,-14.0,1.0,-11808.0,-9462.0,5278.0,-3412.0,-3.0,-2.0,3.0,5.0,5.0,0.0,-3.0,-1.0,0.29326319694519043
147,-129.0,40.0,-14.0,1.0,-11808.0,-9462.0,5278.0,-3412.0,5.0,2.0,-2.0,7.0,-2.0,2.0,1.0,2.0,0.2952284812927246
148,-129.0,40.0,-14.0,1.0,-11808.0,-9462.0,5278.0,-3412.0,-2.0,2.0,2.0,3.0,10.0,-4.0,1.0,-1.0,0.29729604721069336
149,-149.0,33.0,-9.0,1.0,-11816.0,-9436.0,5299.0,-3422.0,-2.0,2.0,2.0,3.0,10.0,-4.0,1.0,-1.0,0.29930758476257324
150,-149.0,33.0,-9.0,1.0,-11816.0,-9436.0,5299.0,-3422.0,-2.0,0.0,-13.0,-27.0,-8.0,-10.0,-4.0,-3.0,0.3011901378631592
151,-149.0,33.0,-9.0,1.0,-11816.0,-9436.0,5299.0,-3422.0,-4.0,-4.0,-2.0,-11.0,-12.0,-20.0,-7.0,-10.0,0.3029634952545166
152,-74.0,31.0,-9.0,1.0,-11818.0,-9421.0,5314.0,-3433.0,-4.0,-4.0,-2.0,-11.0,-12.0,-20.0,-7.0,-10.0,0.30477118492126465
153,-74.0,31.0,-9.0,1.0,-11818.0,-9421.0,5314.0,-3433.0,2.0,-3.0,5.0,17.0,6.0,-2.0,0.0,0.0,0.307697057723999
154,-74.0,31.0,-9.0,1.0,-11818.0,-9421.0,5314.0,-3433.0,-2.0,-5.0,-5.0,14.0,1.0,8.0,1.0,1.0,0.31076550483703613
155,-34.0,17.0,-4.0,1.0,-11818.0,-9412.0,5325.0,-3443.0,-2.0,-5.0,-5.0,14.0,1.0,8.0,1.0,1.0,0.3125936985015869
156,-34.0,17.0,-4.0,1.0,-11818.0,-9412.0,5325.0,-3443.0,-2.0,-5.0,-5.0,14.0,1.0,8.0,1.0,1.0,0.31447410583496094
157,-34.0,17.0,-4.0,1.0,-11818.0,-9412.0,5325.0,-3443.0,-3.0,-1.0,-12.0,-13.0,3.0,2.0,0.0,-6.0,0.31606101989746094
158,-34.0,17.0,-4.0,1.0,-11818.0,-9412.0,5325.0,-3443.0,0.0,-5.0,-14.0,-43.0,9.0,3.0,-2.0,-1.0,0.3180248737335205
159,-113.0,1.0,13.0,1.0,-11826.0,-9393.0,5339.0,-3446.0,0.0,-5.0,-14.0,-43.0,9.0,3.0,-2.0,-1.0,0.31986284255981445
160,-113.0,1.0,13.0,1.0,-11826.0,-9393.0,5339.0,-3446.0,0.0,-5.0,-14.0,-43.0,9.0,3.0,-2.0,-1.0,0.3217780590057373
161,-113.0,1.0,13.0,1.0,-11826.0,-9393.0,5339.0,-3446.0,-2.0,-3.0,-2.0,13.0,12.0,-9.0,2.0,3.0,0.3234403133392334
162,-113.0,1.0,13.0,1.0,-11826.0,-9393.0,5339.0,-3446.0,-2.0,0.0,1.0,12.0,32.0,-11.0,-6.0,-1.0,0.32534313201904297
163,-139.0,-22.0,47.0,1.0,-11833.0,-9372.0,5359.0,-3447.0,-2.0,0.0,1.0,12.0,32.0,-11.0,-6.0,-1.0,0.32777976989746094
164,-139.0,-22.0,47.0,1.0,-11833.0,-9372.0,5359.0,-3447.0,-1.0,1.0,8.0,-1.0,14.0,6.0,0.0,3.0,0.33057594299316406
165,-139.0,-22.0,47.0,1.0,-11833.0,-9372.0,5359.0,-3447.0,-2.0,-3.0,0.0,-7.0,-22.0,16.0,0.0,1.0,0.3324575424194336
166,-165.0,-32.0,78.0,1.0,-11840.0,-9349.0,5383.0,-3447.0,-2.0,-3.0,0.0,-7.0,-22.0,16.0,0.0,1.0,0.334247350692749
167,-165.0,-32.0,78.0,1.0,-11840.0,-9349.0,5383.0,-3447.0,-1.0,2.0,4.0,8.0,-8.0,6.0,3.0,0.0,0.3361392021179199
168,-165.0,-32.0,78.0,1.0,-11840.0,-9349.0,5383.0,-3447.0,-4.0,-4.0,13.0,13.0,5.0,0.0,0.0,-2.0,0.3379182815551758
169,-192.0,-40.0,82.0,1.0,-11848.0,-9324.0,5411.0,-3445.0,-4.0,-4.0,13.0,13.0,5.0,0.0,0.0,-2.0,0.33968448638916016
170,-192.0,-40.0,82.0,1.0,-11848.0,-9324.0,5411.0,-3445.0,0.0,0.0,7.0,6.0,-23.0,-19.0,-2.0,-1.0,0.34156107902526855
171,-192.0,-40.0,82.0,1.0,-11848.0,-9324.0,5411.0,-3445.0,-2.0,-1.0,-15.0,-23.0,-62.0,-18.0,-3.0,-2.0,0.3433704376220703
172,-173.0,-69.0,79.0,1.0,-11852.0,-9302.0,5443.0,-3441.0,-2.0,-1.0,-15.0,-23.0,-62.0,-18.0,-3.0,-2.0,0.34518885612487793
173,-173.0,-69.0,79.0,1.0,-11852.0,-9302.0,5443.0,-3441.0,-3.0,-8.0,-11.0,-11.0,-24.0,1.0,-1.0,3.0,0.34748172760009766
174,-173.0,-69.0,79.0,1.0,-11852.0,-9302.0,5443.0,-3441.0,0.0,4.0,7.0,6.0,19.0,6.0,1.0,0.0,0.34953904151916504
175,-139.0,-84.0,51.0,1.0,-11852.0,-9289.0,5470.0,-3432.0,0.0,4.0,7.0,6.0,19.0,6.0,1.0,0.0,0.35151052474975586
176,-19.0,-80.0,-36.0,1.0,-11806.0,-9361.0,5608.0,-3165.0,0.0,4.0,7.0,6.0,19.0,6.0,1.0,0.0,0.35338544845581055
177,-19.0,-80.0,-36.0,1.0,-11806.0,-9361.0,5608.0,-3165.0,3.0,1.0,3.0,3.0,7.0,-13.0,0.0,2.0,0.35524940490722656
178,-19.0,-80.0,-36.0,1.0,-11806.0,-9361.0,5608.0,-3165.0,-6.0,-4.0,4.0,12.0,4.0,3.0,0.0,-4.0,0.35759544372558594
179,-14.0,-50.0,-27.0,1.0,-11805.0,-9365.0,5609.0,-3152.0,-6.0,-4.0,4.0,12.0,4.0,3.0,0.0,-4.0,0.35973334312438965
180,-14.0,-50.0,-27.0,1.0,-11805.0,-9365.0,5609.0,-3152.0,-2.0,1.0,2.0,-3.0,-7.0,6.0,-1.0,0.0,0.3618278503417969
181,-14.0,-50.0,-27.0,1.0,-11805.0,-9365.0,5609.0,-3152.0,-8.0,-8.0,-1.0,12.0,5.0,-4.0,-3.0,-3.0,0.3636925220489502
182,-8.0,-53.0,-29.0,1.0,-11803.0,-9371.0,5610.0,-3138.0,-8.0,-8.0,-1.0,12.0,5.0,-4.0,-3.0,-3.0,0.3683788776397705
183,-8.0,-53.0,-29.0,1.0,-11803.0,-9371.0,5610.0,-3138.0,4.0,4.0,18.0,8.0,6.0,11.0,0.0,1.0,0.3706841468811035
184,-8.0,-53.0,-29.0,1.0,-11803.0,-9371.0,5610.0,-3138.0,-3.0,0.0,14.0,8.0,6.0,-17.0,-4.0,-8.0,0.38295769691467285
185,-25.0,-34.0,-30.0,1.0,-11806.0,-9373.0,5608.0,-3126.0,-3.0,0.0,14.0,8.0,6.0,-17.0,-4.0,-8.0,0.38475537300109863
186,-25.0,-34.0,-30.0,1.0,-11806.0,-9373.0,5608.0,-3126.0,-4.0,-7.0,-10.0,0.0,10.0,7.0,-3.0,-1.0,0.3906693458557129
187,-25.0,-34.0,-30.0,1.0,-11806.0,-9373.0,5608.0,-3126.0,-5.0,-3.0,0.0,0.0,-8.0,9.0,1.0,-1.0,0.39699220657348633
188,-12.0,-16.0,-33.0,1.0,-11810.0,-9376.0,5601.0,-3114.0,-5.0,-3.0,0.0,0.0,-8.0,9.0,1.0,-1.0,0.4140198230743408
189,-12.0,-16.0,-33.0,1.0,-11810.0,-9376.0,5601.0,-3114.0,-2.0,6.0,0.0,-3.0,-3.0,-11.0,-1.0,-3.0,0.4174344539642334
190,-12.0,-16.0,-33.0,1.0,-11810.0,-9376.0,5601.0,-3114.0,0.0,-3.0,-10.0,-1.0,21.0,14.0,-4.0,1.0,0.4216301441192627
191,-31.0,-30.0,-34.0,1.0,-11813.0,-9381.0,5596.0,-3097.0,0.0,-3.0,-10.0,-1.0,21.0,14.0,-4.0,1.0,0.42811107635498047
192,-31.0,-30.0,-34.0,1.0,-11813.0,-9381.0,5596.0,-3097.0,0.0,8.0,-4.0,-13.0,-8.0,2.0,6.0,3.0,0.43001484870910645
193,-31.0,-30.0,-34.0,1.0,-11813.0,-9381.0,5596.0,-3097.0,-12.0,-1.0,-5.0,8.0,2.0,-3.0,-4.0,-5.0,0.4439353942871094
194,-56.0,-21.0,-19.0,1.0,-11818.0,-9381.0,5593.0,-3082.0,-12.0,-1.0,-5.0,8.0,2.0,-3.0,-4.0,-5.0,0.44717979431152344
195,-56.0,-21.0,-19.0,1.0,-11818.0,-9381.0,5593.0,-3082.0,2.0,-2.0,-6.0,-19.0,-14.0,-3.0,-2.0,4.0,0.45121121406555176
196,-56.0,-21.0,-19.0,1.0,-11818.0,-9381.0,5593.0,-3082.0,2.0,1.0,-6.0,7.0,-8.0,-6.0,0.0,1.0,0.4575340747833252
197,-80.0,-17.0,-3.0,1.0,-11824.0,-9376.0,5595.0,-3071.0,2.0,1.0,-6.0,7.0,-8.0,-6.0,0.0,1.0,0.4654223918914795
198,-80.0,-17.0,-3.0,1.0,-11824.0,-9376.0,5595.0,-3071.0,0.0,-1.0,-1.0,1.0,3.0,-3.0,1.0,-1.0,0.4672882556915283
199,-80.0,-17.0,-3.0,1.0,-11824.0,-9376.0,5595.0,-3071.0,0.0,-11.0,-3.0,-3.0,-9.0,5.0,2.0,-1.0,0.47978663444519043
200,-56.0,-23.0,2.0,1.0,-11825.0,-9374.0,5600.0,-3063.0,0.0,-11.0,-3.0,-3.0,-9.0,5.0,2.0,-1.0,0.48822903633117676
201,-56.0,-23.0,2.0,1.0,-11825.0,-9374.0,5600.0,-3063.0,-1.0,-8.0,-6.0,-23.0,-5.0,-2.0,-3.0,-1.0,0.49012207984924316
202,-56.0,-23.0,2.0,1.0,-11825.0,-9374.0,5600.0,-3063.0,-1.0,0.0,-19.0,-27.0,-5.0,-2.0,0.0,3.0,0.5026214122772217
203,-33.0,-13.0,3.0,1.0,-11824.0,-9374.0,5606.0,-3059.0,-1.0,0.0,-19.0,-27.0,-5.0,-2.0,0.0,3.0,0.5044527053833008
204,-33.0,-13.0,3.0,1.0,-11824.0,-9374.0,5606.0,-3059.0,0.0,2.0,13.0,11.0,1.0,3.0,-1.0,-1.0,0.5100388526916504
205,-33.0,-13.0,3.0,1.0,-11824.0,-9374.0,5606.0,-3059.0,-1.0,-4.0,-7.0,4.0,-1.0,-4.0,1.0,0.0,0.5174088478088379
206,3.0,-18.0,5.0,1.0,-11818.0,-9378.0,5612.0,-3058.0,-1.0,-4.0,-7.0,4.0,-1.0,-4.0,1.0,0.0,0.525749683380127
207,3.0,-18.0,5.0,1.0,-11818.0,-9378.0,5612.0,-3058.0,8.0,20.0,27.0,22.0,-2.0,-2.0,2.0,3.0,0.527641773223877
208,3.0,-18.0,5.0,1.0,-11818.0,-9378.0,5612.0,-3058.0,0.0,-4.0,-2.0,-15.0,-3.0,-6.0,1.0,0.0,0.5398859977722168
209,25.0,-10.0,-13.0,1.0,-11811.0,-9386.0,5614.0,-3057.0,0.0,-4.0,-2.0,-15.0,-3.0,-6.0,1.0,0.0,0.5478882789611816
210,25.0,-10.0,-13.0,1.0,-11811.0,-9386.0,5614.0,-3057.0,-7.0,-6.0,-9.0,0.0,-6.0,-1.0,-1.0,-3.0,0.5497591495513916
211,25.0,-10.0,-13.0,1.0,-11811.0,-9386.0,5614.0,-3057.0,2.0,1.0,-1.0,-10.0,-2.0,-3.0,-2.0,0.0,0.5633401870727539
212,51.0,-10.0,-23.0,1.0,-11805.0,-9396.0,5611.0,-3055.0,2.0,1.0,-1.0,-10.0,-2.0,-3.0,-2.0,0.0,0.565436840057373
213,51.0,-10.0,-23.0,1.0,-11805.0,-9396.0,5611.0,-3055.0,-3.0,-9.0,-13.0,-4.0,-2.0,0.0,-2.0,-3.0,0.5697774887084961
214,77.0,0.0,-37.0,1.0,-11798.0,-9411.0,5603.0,-3052.0,-3.0,-9.0,-13.0,-4.0,-2.0,0.0,-2.0,-3.0,0.5783722400665283
215,77.0,0.0,-37.0,1.0,-11798.0,-9411.0,5603.0,-3052.0,1.0,3.0,4.0,0.0,-11.0,-1.0,1.0,-2.0,0.5859165191650391
216,77.0,0.0,-37.0,1.0,-11798.0,-9411.0,5603.0,-3052.0,1.0,-1.0,6.0,13.0,0.0,-26.0,-8.0,-10.0,0.5880234241485596
217,74.0,15.0,-37.0,1.0,-11794.0,-9424.0,5590.0,-3050.0,1.0,-1.0,6.0,13.0,0.0,-26.0,-8.0,-10.0,0.599968671798706
218,74.0,15.0,-37.0,1.0,-11794.0,-9424.0,5590.0,-3050.0,-5.0,-6.0,-7.0,4.0,16.0,-1.0,-4.0,-1.0,0.608649730682373
219,74.0,15.0,-37.0,1.0,-11794.0,-9424.0,5590.0,-3050.0,-2.0,-7.0,-13.0,-10.0,1.0,12.0,3.0,2.0,0.610522985458374
220,77.0,26.0,-36.0,1.0,-11790.0,-9437.0,5576.0,-3048.0,-2.0,-7.0,-13.0,-10.0,1.0,12.0,3.0,2.0,0.6231515407562256
221,77.0,26.0,-36.0,1.0,-11790.0,-9437.0,5576.0,-3048.0,1.0,8.0,-4.0,1.0,-7.0,-2.0,0.0,-1.0,0.6317124366760254
222,77.0,26.0,-36.0,1.0,-11790.0,-9437.0,5576.0,-3048.0,1.0,6.0,-10.0,-8.0,-9.0,-2.0,0.0,0.0,0.6345281600952148
223,75.0,38.0,-30.0,1.0,-11789.0,-9449.0,5559.0,-3048.0,1.0,6.0,-10.0,-8.0,-9.0,-2.0,0.0,0.0,0.6376750469207764
224,75.0,38.0,-30.0,1.0,-11789.0,-9449.0,5559.0,-3048.0,-1.0,0.0,3.0,-11.0,2.0,-3.0,0.0,1.0,0.6458919048309326
225,75.0,38.0,-30.0,1.0,-11789.0,-9449.0,5559.0,-3048.0,-3.0,-4.0,2.0,9.0,7.0,-4.0,-4.0,0.0,0.6477727890014648
226,81.0,45.0,-19.0,1.0,-11788.0,-9458.0,5543.0,-3052.0,-3.0,-4.0,2.0,9.0,7.0,-4.0,-4.0,0.0,0.6685061454772949
227,81.0,45.0,-19.0,1.0,-11788.0,-9458.0,5543.0,-3052.0,-3.0,-10.0,-8.0,11.0,-6.0,4.0,0.0,-1.0,0.6705722808837891
228,81.0,45.0,-19.0,1.0,-11788.0,-9458.0,5543.0,-3052.0,2.0,-3.0,-12.0,-30.0,4.0,0.0,1.0,1.0,0.6741302013397217
229,98.0,67.0,-15.0,1.0,-11786.0,-9470.0,5523.0,-3058.0,2.0,-3.0,-12.0,-30.0,4.0,0.0,1.0,1.0,0.6821625232696533
230,98.0,67.0,-15.0,1.0,-11786.0,-9470.0,5523.0,-3058.0,-2.0,0.0,1.0,6.0,3.0,-12.0,0.0,-2.0,0.6906702518463135
231,98.0,67.0,-15.0,1.0,-11786.0,-9470.0,5523.0,-3058.0,-3.0,-1.0,2.0,5.0,-1.0,8.0,1.0,-1.0,0.6925969123840332
232,84.0,52.0,3.0,1.0,-11782.0,-9481.0,5509.0,-3065.0,-3.0,-1.0,2.0,5.0,-1.0,8.0,1.0,-1.0,0.6976194381713867
233,84.0,52.0,3.0,1.0,-11782.0,-9481.0,5509.0,-3065.0,4.0,3.0,14.0,4.0,-2.0,4.0,2.0,1.0,0.7059972286224365
234,84.0,52.0,3.0,1.0,-11782.0,-9481.0,5509.0,-3065.0,-7.0,-15.0,-12.0,11.0,-1.0,9.0,2.0,-2.0,0.7077679634094238
235,50.0,59.0,8.0,1.0,-11784.0,-9483.0,5497.0,-3074.0,-7.0,-15.0,-12.0,11.0,-1.0,9.0,2.0,-2.0,0.7205617427825928
236,50.0,59.0,8.0,1.0,-11784.0,-9483.0,5497.0,-3074.0,0.0,-4.0,-7.0,-12.0,5.0,-8.0,-5.0,-1.0,0.7292361259460449
237,50.0,59.0,8.0,1.0,-11784.0,-9483.0,5497.0,-3074.0,-5.0,-8.0,-1.0,-2.0,-1.0,2.0,-1.0,-1.0,0.731398344039917
238,51.0,43.0,28.0,1.0,-11781.0,-9487.0,5490.0,-3084.0,-5.0,-8.0,-1.0,-2.0,-1.0,2.0,-1.0,-1.0,0.7432470321655273
239,51.0,43.0,28.0,1.0,-11781.0,-9487.0,5490.0,-3084.0,1.0,6.0,11.0,4.0,-1.0,10.0,0.0,-1.0,0.7596216201782227
240,51.0,43.0,28.0,1.0,-11781.0,-9487.0,5490.0,-3084.0,-3.0,-4.0,-6.0,1.0,3.0,0.0,-1.0,-2.0,0.7628285884857178
241,40.0,31.0,31.0,1.0,-11778.0,-9491.0,5486.0,-3091.0,-3.0,-4.0,-6.0,1.0,3.0,0.0,-1.0,-2.0,0.7658436298370361
242,40.0,31.0,31.0,1.0,-11778.0,-9491.0,5486.0,-3091.0,5.0,3.0,4.0,2.0,0.0,-3.0,-2.0,1.0,0.7689175605773926
243,40.0,31.0,31.0,1.0,-11778.0,-9491.0,5486.0,-3091.0,0.0,5.0,-1.0,-4.0,-3.0,-3.0,-2.0,0.0,0.7709951400756836
244,16.0,32.0,44.0,1.0,-11778.0,-9489.0,5484.0,-3100.0,0.0,5.0,-1.0,-4.0,-3.0,-3.0,-2.0,0.0,0.7887496948242188
245,16.0,32.0,44.0,1.0,-11778.0,-9489.0,5484.0,-3100.0,1.0,4.0,15.0,-2.0,-7.0,-12.0,-1.0,-1.0,0.7922031879425049
246,16.0,32.0,44.0,1.0,-11778.0,-9489.0,5484.0,-3100.0,-1.0,0.0,8.0,6.0,-2.0,-8.0,-3.0,2.0,0.7954466342926025
247,35.0,18.0,42.0,1.0,-11773.0,-9493.0,5484.0,-3108.0,-1.0,0.0,8.0,6.0,-2.0,-8.0,-3.0,2.0,0.8038938045501709
248,35.0,18.0,42.0,1.0,-11773.0,-9493.0,5484.0,-3108.0,-4.0,0.0,-9.0,2.0,-1.0,5.0,1.0,1.0,0.8107955455780029
249,35.0,18.0,42.0,1.0,-11773.0,-9493.0,5484.0,-3108.0,-1.0,-1.0,-7.0,-1.0,5.0,0.0,0.0,-3.0,0.8125793933868408
250,18.0,10.0,37.0,1.0,-11772.0,-9493.0,5483.0,-3112.0,-1.0,-1.0,-7.0,-1.0,5.0,0.0,0.0,-3.0,0.8174059391021729
251,18.0,10.0,37.0,1.0,-11772.0,-9493.0,5483.0,-3112.0,6.0,8.0,-2.0,-10.0,1.0,4.0,2.0,4.0,0.8264191150665283
252,18.0,10.0,37.0,1.0,-11772.0,-9493.0,5483.0,-3112.0,-1.0,-3.0,-4.0,6.0,-5.0,7.0,-2.0,1.0,0.8296620845794678
253,36.0,12.0,45.0,1.0,-11768.0,-9496.0,5482.0,-3119.0,-1.0,-3.0,-4.0,6.0,-5.0,7.0,-2.0,1.0,0.8401563167572021
254,36.0,12.0,45.0,1.0,-11768.0,-9496.0,5482.0,-3119.0,-2.0,-3.0,2.0,14.0,3.0,1.0,-2.0,-3.0,0.8496785163879395
255,36.0,12.0,45.0,1.0,-11768.0,-9496.0,5482.0,-3119.0,5.0,0.0,3.0,7.0,-10.0,0.0,2.0,3.0,0.8541347980499268
256,57.0,-9.0,39.0,1.0,-11762.0,-9503.0,5481.0,-3123.0,5.0,0.0,3.0,7.0,-10.0,0.0,2.0,3.0,0.863255500793457
257,57.0,-9.0,39.0,1.0,-11762.0,-9503.0,5481.0,-3123.0,0.0,1.0,2.0,-3.0,-13.0,-1.0,-2.0,0.0,0.8714644908905029
258,57.0,-9.0,39.0,1.0,-11762.0,-9503.0,5481.0,-3123.0,-2.0,-3.0,3.0,5.0,5.0,1.0,-1.0,0.0,0.874464750289917
259,26.0,-8.0,31.0,1.0,-11759.0,-9509.0,5478.0,-3121.0,-2.0,-3.0,3.0,5.0,5.0,1.0,-1.0,0.0,0.8865888118743896
260,26.0,-8.0,31.0,1.0,-11759.0,-9509.0,5478.0,-3121.0,3.0,5.0,8.0,-1.0,9.0,-8.0,-3.0,-2.0,0.8900213241577148
261,26.0,-8.0,31.0,1.0,-11759.0,-9509.0,5478.0,-3121.0,5.0,8.0,-7.0,-2.0,-13.0,5.0,0.0,0.0,0.8930611610412598
262,4.0,-17.0,35.0,1.0,-11758.0,-9511.0,5478.0,-3119.0,5.0,8.0,-7.0,-2.0,-13.0,5.0,0.0,0.0,0.9095087051391602
263,4.0,-17.0,35.0,1.0,-11758.0,-9511.0,5478.0,-3119.0,-4.0,-5.0,0.0,12.0,1.0,8.0,1.0,-1.0,0.9126296043395996
264,4.0,-17.0,35.0,1.0,-11758.0,-9511.0,5478.0,-3119.0,-4.0,-3.0,2.0,6.0,3.0,-2.0,-3.0,-3.0,0.9150960445404053
265,-8.0,-28.0,35.0,1.0,-11758.0,-9511.0,5480.0,-3115.0,-4.0,-3.0,2.0,6.0,3.0,-2.0,-3.0,-3.0,0.9223384857177734
266,-8.0,-28.0,35.0,1.0,-11758.0,-9511.0,5480.0,-3115.0,-5.0,-7.0,2.0,3.0,-4.0,-3.0,0.0,-3.0,0.9309494495391846
267,-8.0,-28.0,35.0,1.0,-11758.0,-9511.0,5480.0,-3115.0,10.0,23.0,17.0,-13.0,-7.0,-10.0,2.0,7.0,0.9332964420318604
268,-38.0,-26.0,34.0,1.0,-11762.0,-9507.0,5482.0,-3110.0,10.0,23.0,17.0,-13.0,-7.0,-10.0,2.0,7.0,0.9375948905944824
269,-38.0,-26.0,34.0,1.0,-11762.0,-9507.0,5482.0,-3110.0,-1.0,1.0,-4.0,-6.0,6.0,0.0,-2.0,-1.0,0.9455962181091309
270,-38.0,-26.0,34.0,1.0,-11762.0,-9507.0,5482.0,-3110.0,-5.0,-6.0,2.0,13.0,9.0,5.0,-1.0,-4.0,0.9475219249725342
271,-32.0,-34.0,34.0,1.0,-11764.0,-9503.0,5488.0,-3106.0,-5.0,-6.0,2.0,13.0,9.0,5.0,-1.0,-4.0,0.9689085483551025
272,-32.0,-34.0,34.0,1.0,-11764.0,-9503.0,5488.0,-3106.0,-1.0,1.0,-4.0,3.0,-4.0,2.0,3.0,1.0,0.9708259105682373
273,-32.0,-34.0,34.0,1.0,-11764.0,-9503.0,5488.0,-3106.0,0.0,-2.0,3.0,-9.0,3.0,-3.0,-3.0,-3.0,0.9725968837738037
274,-17.0,-38.0,29.0,1.0,-11764.0,-9502.0,5492.0,-3101.0,0.0,-2.0,3.0,-9.0,3.0,-3.0,-3.0,-3.0,0.9824542999267578
275,-17.0,-38.0,29.0,1.0,-11764.0,-9502.0,5492.0,-3101.0,-1.0,-4.0,15.0,-1.0,-5.0,-5.0,1.0,2.0,0.9923205375671387
276,-17.0,-38.0,29.0,1.0,-11764.0,-9502.0,5492.0,-3101.0,-5.0,-3.0,2.0,-9.0,-5.0,3.0,-6.0,-7.0,0.9947443008422852
277,-37.0,-32.0,41.0,1.0,-11764.0,-9498.0,5499.0,-3098.0,-5.0,-3.0,2.0,-9.0,-5.0,3.0,-6.0,-7.0,0.9965500831604004
278,-37.0,-32.0,41.0,1.0,-11764.0,-9498.0,5499.0,-3098.0,-3.0,2.0,-13.0,-15.0,-2.0,5.0,-1.0,-1.0,1.005901575088501
279,-37.0,-32.0,41.0,1.0,-11764.0,-9498.0,5499.0,-3098.0,0.0,2.0,6.0,2.0,3.0,-5.0,1.0,-1.0,1.0079898834228516
280,-45.0,-45.0,38.0,1.0,-11764.0,-9496.0,5507.0,-3091.0,0.0,2.0,6.0,2.0,3.0,-5.0,1.0,-1.0,1.020615816116333
281,-45.0,-45.0,38.0,1.0,-11764.0,-9496.0,5507.0,-3091.0,-4.0,-5.0,-8.0,-12.0,-1.0,6.0,0.0,-3.0,1.0288965702056885
282,-45.0,-45.0,38.0,1.0,-11764.0,-9496.0,5507.0,-3091.0,-4.0,-9.0,-23.0,-3.0,6.0,5.0,0.0,-2.0,1.031067132949829
283,-73.0,-44.0,40.0,1.0,-11768.0,-9488.0,5517.0,-3084.0,-4.0,-9.0,-23.0,-3.0,6.0,5.0,0.0,-2.0,1.0432629585266113
284,-73.0,-44.0,40.0,1.0,-11768.0,-9488.0,5517.0,-3084.0,7.0,1.0,7.0,-6.0,2.0,4.0,-3.0,0.0,1.0516908168792725
285,-73.0,-44.0,40.0,1.0,-11768.0,-9488.0,5517.0,-3084.0,3.0,1.0,8.0,13.0,-4.0,2.0,2.0,2.0,1.0556917190551758
286,-58.0,-40.0,38.0,1.0,-11770.0,-9481.0,5526.0,-3080.0,3.0,1.0,8.0,13.0,-4.0,2.0,2.0,2.0,1.0671253204345703
287,-58.0,-40.0,38.0,1.0,-11770.0,-9481.0,5526.0,-3080.0,-4.0,-3.0,1.0,16.0,2.0,-1.0,-3.0,-2.0,1.0704388618469238
288,-58.0,-40.0,38.0,1.0,-11770.0,-9481.0,5526.0,-3080.0,-1.0,-2.0,-10.0,-11.0,2.0,-7.0,1.0,0.0,1.0734305381774902
289,-27.0,-50.0,31.0,1.0,-11769.0,-9479.0,5536.0,-3075.0,-1.0,-2.0,-10.0,-11.0,2.0,-7.0,1.0,0.0,1.0812406539916992
290,-27.0,-50.0,31.0,1.0,-11769.0,-9479.0,5536.0,-3075.0,-2.0,-2.0,-7.0,4.0,-3.0,-14.0,-3.0,-4.0,1.088399887084961
291,-27.0,-50.0,31.0,1.0,-11769.0,-9479.0,5536.0,-3075.0,-4.0,-4.0,1.0,-18.0,-10.0,-6.0,1.0,-3.0,1.0902535915374756
292,-44.0,-50.0,28.0,1.0,-11769.0,-9476.0,5544.0,-3068.0,-4.0,-4.0,1.0,-18.0,-10.0,-6.0,1.0,-3.0,1.1051051616668701
293,-44.0,-50.0,28.0,1.0,-11769.0,-9476.0,5544.0,-3068.0,-2.0,-5.0,-14.0,-12.0,-4.0,-5.0,-2.0,-3.0,1.1108982563018799
294,-44.0,-50.0,28.0,1.0,-11769.0,-9476.0,5544.0,-3068.0,0.0,1.0,-1.0,1.0,2.0,6.0,1.0,1.0,1.1127631664276123
295,-39.0,-46.0,29.0,1.0,-11770.0,-9471.0,5552.0,-3063.0,0.0,1.0,-1.0,1.0,2.0,6.0,1.0,1.0,1.12693190574646
296,-39.0,-46.0,29.0,1.0,-11770.0,-9471.0,5552.0,-3063.0,-1.0,-4.0,0.0,21.0,4.0,-3.0,-2.0,2.0,1.1313085556030273
297,-39.0,-46.0,29.0,1.0,-11770.0,-9471.0,5552.0,-3063.0,-4.0,-2.0,0.0,3.0,0.0,-3.0,-3.0,-2.0,1.1343564987182617
298,-43.0,-60.0,30.0,1.0,-11770.0,-9468.0,5563.0,-3056.0,-4.0,-2.0,0.0,3.0,0.0,-3.0,-3.0,-2.0,1.141129732131958
299,-43.0,-60.0,30.0,1.0,-11770.0,-9468.0,5563.0,-3056.0,-4.0,-1.0,3.0,18.0,-16.0,-14.0,-3.0,-2.0,1.148815631866455
300,-43.0,-60.0,30.0,1.0,-11770.0,-9468.0,5563.0,-3056.0,2.0,0.0,-4.0,1.0,2.0,-1.0,-1.0,-4.0,1.1506609916687012
301,-62.0,-53.0,31.0,1.0,-11770.0,-9463.0,5574.0,-3048.0,2.0,0.0,-4.0,1.0,2.0,-1.0,-1.0,-4.0,1.162532091140747
302,-62.0,-53.0,31.0,1.0,-11770.0,-9463.0,5574.0,-3048.0,3.0,1.0,-5.0,-15.0,2.0,9.0,0.0,-1.0,1.1702589988708496
303,-62.0,-53.0,31.0,1.0,-11770.0,-9463.0,5574.0,-3048.0,-2.0,-4.0,-1.0,-6.0,-10.0,-1.0,-1.0,-1.0,1.1720726490020752
304,-66.0,-52.0,28.0,1.0,-11771.0,-9458.0,5586.0,-3040.0,-2.0,-4.0,-1.0,-6.0,-10.0,-1.0,-1.0,-1.0,1.1865684986114502
305,-66.0,-52.0,28.0,1.0,-11771.0,-9458.0,5586.0,-3040.0,2.0,-1.0,6.0,-3.0,-46.0,8.0,2.0,0.0,1.189598560333252
306,-66.0,-52.0,28.0,1.0,-11771.0,-9458.0,5586.0,-3040.0,-2.0,-7.0,-6.0,-4.0,-3.0,-12.0,-5.0,-1.0,1.1935384273529053
307,-78.0,-40.0,20.0,1.0,-11772.0,-9452.0,5597.0,-3033.0,-2.0,-7.0,-6.0,-4.0,-3.0,-12.0,-5.0,-1.0,1.2006382942199707
308,-78.0,-40.0,20.0,1.0,-11772.0,-9452.0,5597.0,-3033.0,0.0,-2.0,-17.0,-16.0,21.0,2.0,4.0,0.0,1.2094190120697021
309,-78.0,-40.0,20.0,1.0,-11772.0,-9452.0,5597.0,-3033.0,1.0,9.0,20.0,-2.0,-5.0,-3.0,1.0,3.0,1.2112722396850586
310,-66.0,-23.0,9.0,1.0,-11775.0,-9447.0,5604.0,-3027.0,1.0,9.0,20.0,-2.0,-5.0,-3.0,1.0,3.0,1.2324161529541016
311,-66.0,-23.0,9.0,1.0,-11775.0,-9447.0,5604.0,-3027.0,1.0,-1.0,-6.0,4.0,8.0,3.0,0.0,2.0,1.23622727394104
312,-66.0,-23.0,9.0,1.0,-11775.0,-9447.0,5604.0,-3027.0,0.0,1.0,-4.0,1.0,1.0,-3.0,-2.0,-1.0,1.2397217750549316
313,-55.0,-14.0,6.0,1.0,-11776.0,-9441.0,5612.0,-3024.0,0.0,1.0,-4.0,1.0,1.0,-3.0,-2.0,-1.0,1.2477703094482422
314,-55.0,-14.0,6.0,1.0,-11776.0,-9441.0,5612.0,-3024.0,0.0,2.0,2.0,1.0,9.0,7.0,-1.0,-1.0,1.2507195472717285
315,-55.0,-14.0,6.0,1.0,-11776.0,-9441.0,5612.0,-3024.0,1.0,4.0,2.0,0.0,5.0,-1.0,1.0,-2.0,1.253310203552246
316,-21.0,-8.0,-8.0,1.0,-11775.0,-9442.0,5616.0,-3021.0,1.0,4.0,2.0,0.0,5.0,-1.0,1.0,-2.0,1.2598748207092285
317,-21.0,-8.0,-8.0,1.0,-11775.0,-9442.0,5616.0,-3021.0,-7.0,-4.0,-12.0,-19.0,-17.0,-11.0,-1.0,-5.0,1.2684483528137207
318,-21.0,-8.0,-8.0,1.0,-11775.0,-9442.0,5616.0,-3021.0,2.0,-1.0,-12.0,-20.0,9.0,5.0,0.0,3.0,1.270827293395996
319,-30.0,14.0,-13.0,1.0,-11776.0,-9439.0,5617.0,-3021.0,2.0,-1.0,-12.0,-20.0,9.0,5.0,0.0,3.0,1.284334659576416
320,-30.0,14.0,-13.0,1.0,-11776.0,-9439.0,5617.0,-3021.0,1.0,2.0,12.0,1.0,18.0,-5.0,0.0,1.0,1.291874885559082
321,-30.0,14.0,-13.0,1.0,-11776.0,-9439.0,5617.0,-3021.0,-2.0,3.0,2.0,19.0,19.0,0.0,1.0,0.0,1.296982765197754
322,-9.0,22.0,-24.0,1.0,-11777.0,-9439.0,5616.0,-3022.0,-2.0,3.0,2.0,19.0,19.0,0.0,1.0,0.0,1.3067903518676758
323,-9.0,22.0,-24.0,1.0,-11777.0,-9439.0,5616.0,-3022.0,2.0,0.0,8.0,4.0,-3.0,-6.0,1.0,1.0,1.310072898864746
324,-9.0,22.0,-24.0,1.0,-11777.0,-9439.0,5616.0,-3022.0,-4.0,-8.0,-8.0,7.0,2.0,-3.0,-1.0,-2.0,1.314117193222046
325,-8.0,24.0,-30.0,1.0,-11778.0,-9438.0,5614.0,-3024.0,-4.0,-8.0,-8.0,7.0,2.0,-3.0,-1.0,-2.0,1.3207213878631592
326,-8.0,24.0,-30.0,1.0,-11778.0,-9438.0,5614.0,-3024.0,0.0,4.0,11.0,-10.0,-5.0,0.0,1.0,0.0,1.3282577991485596
327,-8.0,24.0,-30.0,1.0,-11778.0,-9438.0,5614.0,-3024.0,-2.0,-1.0,-7.0,1.0,0.0,4.0,1.0,-1.0,1.330075740814209
328,-12.0,43.0,-32.0,1.0,-11779.0,-9438.0,5610.0,-3026.0,-2.0,-1.0,-7.0,1.0,0.0,4.0,1.0,-1.0,1.3436408042907715
329,-12.0,43.0,-32.0,1.0,-11779.0,-9438.0,5610.0,-3026.0,-1.0,-7.0,-21.0,-15.0,-11.0,-3.0,-2.0,-6.0,1.351818561553955
330,-12.0,43.0,-32.0,1.0,-11779.0,-9438.0,5610.0,-3026.0,-1.0,-11.0,-10.0,7.0,-5.0,-4.0,0.0,-1.0,1.354752779006958
331,-20.0,40.0,-36.0,1.0,-11781.0,-9437.0,5607.0,-3027.0,-1.0,-11.0,-10.0,7.0,-5.0,-4.0,0.0,-1.0,1.3663005828857422
332,-20.0,40.0,-36.0,1.0,-11781.0,-9437.0,5607.0,-3027.0,-3.0,-1.0,2.0,15.0,21.0,8.0,-1.0,2.0,1.3681724071502686
333,-20.0,40.0,-36.0,1.0,-11781.0,-9437.0,5607.0,-3027.0,0.0,-4.0,2.0,6.0,1.0,7.0,0.0,-2.0,1.3699991703033447
334,-20.0,45.0,-33.0,1.0,-11783.0,-9435.0,5605.0,-3030.0,0.0,-4.0,2.0,6.0,1.0,7.0,0.0,-2.0,1.3809442520141602
335,-20.0,45.0,-33.0,1.0,-11783.0,-9435.0,5605.0,-3030.0,-1.0,2.0,-9.0,-2.0,2.0,-8.0,-1.0,-1.0,1.3956670761108398
336,-20.0,45.0,-33.0,1.0,-11783.0,-9435.0,5605.0,-3030.0,0.0,0.0,8.0,-1.0,0.0,-5.0,0.0,0.0,1.3978862762451172
337,10.0,58.0,-28.0,1.0,-11783.0,-9435.0,5600.0,-3037.0,0.0,0.0,8.0,-1.0,0.0,-5.0,0.0,0.0,1.4033503532409668
338,10.0,58.0,-28.0,1.0,-11783.0,-9435.0,5600.0,-3037.0,0.0,-3.0,3.0,0.0,2.0,10.0,1.0,2.0,1.4117019176483154
339,10.0,58.0,-28.0,1.0,-11783.0,-9435.0,5600.0,-3037.0,-5.0,-4.0,0.0,-3.0,-5.0,-1.0,-11.0,-8.0,1.4149131774902344
340,42.0,65.0,-27.0,1.0,-11781.0,-9440.0,5592.0,-3047.0,-5.0,-4.0,0.0,-3.0,-5.0,-1.0,-11.0,-8.0,1.4272282123565674
341,42.0,65.0,-27.0,1.0,-11781.0,-9440.0,5592.0,-3047.0,4.0,8.0,7.0,-7.0,-12.0,-8.0,-3.0,3.0,1.43062424659729
342,42.0,65.0,-27.0,1.0,-11781.0,-9440.0,5592.0,-3047.0,-2.0,2.0,1.0,2.0,-11.0,2.0,2.0,3.0,1.433807134628296
343,56.0,61.0,-28.0,1.0,-11776.0,-9447.0,5584.0,-3056.0,-2.0,2.0,1.0,2.0,-11.0,2.0,2.0,3.0,1.441047191619873
344,56.0,61.0,-28.0,1.0,-11776.0,-9447.0,5584.0,-3056.0,-2.0,-6.0,0.0,15.0,15.0,3.0,1.0,-1.0,1.4480664730072021
345,56.0,61.0,-28.0,1.0,-11776.0,-9447.0,5584.0,-3056.0,1.0,5.0,-12.0,-8.0,2.0,5.0,4.0,0.0,1.45003342628479
346,41.0,57.0,-20.0,1.0,-11773.0,-9453.0,5577.0,-3063.0,1.0,5.0,-12.0,-8.0,2.0,5.0,4.0,0.0,1.4624440670013428
347,41.0,57.0,-20.0,1.0,-11773.0,-9453.0,5577.0,-3063.0,-5.0,-5.0,1.0,11.0,-18.0,-4.0,-3.0,-2.0,1.4713835716247559
348,41.0,57.0,-20.0,1.0,-11773.0,-9453.0,5577.0,-3063.0,2.0,5.0,8.0,-5.0,0.0,-10.0,0.0,1.0,1.474393606185913
349,29.0,54.0,-18.0,1.0,-11772.0,-9457.0,5570.0,-3070.0,2.0,5.0,8.0,-5.0,0.0,-10.0,0.0,1.0,1.4873900413513184
350,29.0,54.0,-18.0,1.0,-11772.0,-9457.0,5570.0,-3070.0,-3.0,0.0,8.0,1.0,1.0,-8.0,-2.0,-2.0,1.4909336566925049
351,29.0,54.0,-18.0,1.0,-11772.0,-9457.0,5570.0,-3070.0,-4.0,-2.0,1.0,9.0,-4.0,3.0,1.0,3.0,1.4942257404327393
352,20.0,52.0,-19.0,1.0,-11771.0,-9459.0,5563.0,-3075.0,-4.0,-2.0,1.0,9.0,-4.0,3.0,1.0,3.0,1.5017669200897217
353,20.0,52.0,-19.0,1.0,-11771.0,-9459.0,5563.0,-3075.0,4.0,8.0,31.0,16.0,-7.0,-7.0,0.0,-1.0,1.508385419845581
354,20.0,52.0,-19.0,1.0,-11771.0,-9459.0,5563.0,-3075.0,3.0,10.0,24.0,12.0,2.0,0.0,4.0,2.0,1.5105299949645996
355,49.0,39.0,-8.0,1.0,-11767.0,-9467.0,5557.0,-3081.0,3.0,10.0,24.0,12.0,2.0,0.0,4.0,2.0,1.5229017734527588
356,49.0,39.0,-8.0,1.0,-11767.0,-9467.0,5557.0,-3081.0,-2.0,1.0,-8.0,-7.0,-2.0,5.0,-2.0,-4.0,1.5319139957427979
357,49.0,39.0,-8.0,1.0,-11767.0,-9467.0,5557.0,-3081.0,0.0,-6.0,-13.0,-13.0,-2.0,-9.0,-4.0,-2.0,1.5346112251281738
358,41.0,34.0,-11.0,1.0,-11762.0,-9475.0,5552.0,-3084.0,0.0,-6.0,-13.0,-13.0,-2.0,-9.0,-4.0,-2.0,1.5470421314239502
359,41.0,34.0,-11.0,1.0,-11762.0,-9475.0,5552.0,-3084.0,1.0,2.0,4.0,8.0,-3.0,2.0,1.0,0.0,1.551192045211792
360,41.0,34.0,-11.0,1.0,-11762.0,-9475.0,5552.0,-3084.0,0.0,-5.0,-4.0,13.0,7.0,2.0,1.0,2.0,1.5551347732543945
361,17.0,32.0,-13.0,1.0,-11761.0,-9480.0,5546.0,-3086.0,0.0,-5.0,-4.0,13.0,7.0,2.0,1.0,2.0,1.560474157333374
362,17.0,32.0,-13.0,1.0,-11761.0,-9480.0,5546.0,-3086.0,-2.0,-7.0,-21.0,-10.0,5.0,-3.0,0.0,-1.0,1.5682778358459473
363,17.0,32.0,-13.0,1.0,-11761.0,-9480.0,5546.0,-3086.0,7.0,3.0,-1.0,-2.0,-8.0,2.0,-3.0,2.0,1.5701167583465576
364,32.0,24.0,-19.0,1.0,-11757.0,-9486.0,5541.0,-3087.0,7.0,3.0,-1.0,-2.0,-8.0,2.0,-3.0,2.0,1.582284927368164
365,32.0,24.0,-19.0,1.0,-11757.0,-9486.0,5541.0,-3087.0,-1.0,1.0,-11.0,-13.0,19.0,3.0,0.0,0.0,1.5990710258483887
366,32.0,24.0,-19.0,1.0,-11757.0,-9486.0,5541.0,-3087.0,-7.0,-8.0,-3.0,-16.0,10.0,3.0,-2.0,-6.0,1.6023027896881104
367,46.0,19.0,-24.0,1.0,-11752.0,-9495.0,5536.0,-3088.0,-7.0,-8.0,-3.0,-16.0,10.0,3.0,-2.0,-6.0,1.6069483757019043
368,46.0,19.0,-24.0,1.0,-11752.0,-9495.0,5536.0,-3088.0,-2.0,-4.0,2.0,9.0,4.0,5.0,-4.0,-2.0,1.6088199615478516
369,46.0,19.0,-24.0,1.0,-11752.0,-9495.0,5536.0,-3088.0,1.0,1.0,3.0,-8.0,-2.0,-4.0,1.0,2.0,1.6125121116638184
370,44.0,20.0,-27.0,1.0,-11747.0,-9504.0,5530.0,-3089.0,1.0,1.0,3.0,-8.0,-2.0,-4.0,1.0,2.0,1.6198298931121826
371,44.0,20.0,-27.0,1.0,-11747.0,-9504.0,5530.0,-3089.0,-2.0,-3.0,9.0,6.0,1.0,-10.0,-1.0,-2.0,1.6281712055206299
372,44.0,20.0,-27.0,1.0,-11747.0,-9504.0,5530.0,-3089.0,-2.0,-1.0,-2.0,2.0,-24.0,-2.0,-3.0,-5.0,1.629991054534912
373,48.0,11.0,-23.0,1.0,-11742.0,-9513.0,5526.0,-3090.0,-2.0,-1.0,-2.0,2.0,-24.0,-2.0,-3.0,-5.0,1.641876459121704
374,48.0,11.0,-23.0,1.0,-11742.0,-9513.0,5526.0,-3090.0,1.0,-1.0,4.0,11.0,-4.0,1.0,0.0,0.0,1.6506609916687012
375,48.0,11.0,-23.0,1.0,-11742.0,-9513.0,5526.0,-3090.0,-5.0,-10.0,-2.0,-4.0,-8.0,-7.0,-1.0,-1.0,1.6535587310791016
376,46.0,7.0,-12.0,1.0,-11737.0,-9521.0,5522.0,-3091.0,-5.0,-10.0,-2.0,-4.0,-8.0,-7.0,-1.0,-1.0,1.6744744777679443
377,46.0,7.0,-12.0,1.0,-11737.0,-9521.0,5522.0,-3091.0,-5.0,-8.0,-3.0,2.0,1.0,2.0,0.0,1.0,1.6777150630950928
378,46.0,7.0,-12.0,1.0,-11737.0,-9521.0,5522.0,-3091.0,1.0,4.0,11.0,-12.0,5.0,0.0,0.0,-1.0,1.679743766784668
379,43.0,-3.0,-1.0,1.0,-11732.0,-9528.0,5520.0,-3092.0,1.0,4.0,11.0,-12.0,5.0,0.0,0.0,-1.0,1.6816604137420654
380,43.0,-3.0,-1.0,1.0,-11732.0,-9528.0,5520.0,-3092.0,1.0,2.0,-15.0,-15.0,-16.0,-8.0,0.0,2.0,1.688297986984253
381,43.0,-3.0,-1.0,1.0,-11732.0,-9528.0,5520.0,-3092.0,-1.0,-2.0,-7.0,0.0,5.0,4.0,-1.0,0.0,1.6901648044586182
382,36.0,-6.0,25.0,1.0,-11727.0,-9532.0,5521.0,-3096.0,-1.0,-2.0,-7.0,0.0,5.0,4.0,-1.0,0.0,1.705260992050171
383,36.0,-6.0,25.0,1.0,-11727.0,-9532.0,5521.0,-3096.0,0.0,-1.0,-9.0,-13.0,0.0,1.0,-2.0,1.0,1.7117068767547607
384,36.0,-6.0,25.0,1.0,-11727.0,-9532.0,5521.0,-3096.0,5.0,3.0,-2.0,4.0,17.0,-2.0,-2.0,-1.0,1.7153828144073486
385,4.0,-7.0,42.0,1.0,-11725.0,-9532.0,5524.0,-3099.0,5.0,3.0,-2.0,4.0,17.0,-2.0,-2.0,-1.0,1.7273485660552979
386,4.0,-7.0,42.0,1.0,-11725.0,-9532.0,5524.0,-3099.0,1.0,0.0,-14.0,-12.0,-1.0,-7.0,-3.0,0.0,1.7311456203460693
387,4.0,-7.0,42.0,1.0,-11725.0,-9532.0,5524.0,-3099.0,0.0,-2.0,-8.0,-16.0,3.0,8.0,1.0,1.0,1.7345588207244873
388,-43.0,-10.0,48.0,1.0,-11727.0,-9524.0,5532.0,-3101.0,0.0,-2.0,-8.0,-16.0,3.0,8.0,1.0,1.0,1.7410714626312256
389,-43.0,-10.0,48.0,1.0,-11727.0,-9524.0,5532.0,-3101.0,3.0,-3.0,2.0,3.0,-4.0,5.0,6.0,6.0,1.7477574348449707
390,-43.0,-10.0,48.0,1.0,-11727.0,-9524.0,5532.0,-3101.0,-5.0,-4.0,0.0,5.0,9.0,-6.0,-3.0,1.0,1.7499792575836182
391,-63.0,-12.0,42.0,1.0,-11731.0,-9514.0,5541.0,-3102.0,-5.0,-4.0,0.0,5.0,9.0,-6.0,-3.0,1.0,1.76263427734375
392,-63.0,-12.0,42.0,1.0,-11731.0,-9514.0,5541.0,-3102.0,1.0,6.0,-9.0,-7.0,-3.0,1.0,-1.0,-3.0,1.7716550827026367
393,-63.0,-12.0,42.0,1.0,-11731.0,-9514.0,5541.0,-3102.0,-7.0,-8.0,-12.0,-13.0,-2.0,5.0,2.0,-2.0,1.7747459411621094
394,-54.0,2.0,32.0,1.0,-11733.0,-9506.0,5548.0,-3105.0,-7.0,-8.0,-12.0,-13.0,-2.0,5.0,2.0,-2.0,1.7863354682922363
395,-54.0,2.0,32.0,1.0,-11733.0,-9506.0,5548.0,-3105.0,1.0,-1.0,-8.0,13.0,21.0,-7.0,0.0,1.0,1.7898025512695312
396,-54.0,2.0,32.0,1.0,-11733.0,-9506.0,5548.0,-3105.0,0.0,-2.0,6.0,9.0,-2.0,2.0,0.0,-3.0,1.7929840087890625
397,-32.0,4.0,24.0,1.0,-11734.0,-9502.0,5554.0,-3107.0,0.0,-2.0,6.0,9.0,-2.0,2.0,0.0,-3.0,1.800508975982666
398,-32.0,4.0,24.0,1.0,-11734.0,-9502.0,5554.0,-3107.0,-1.0,-1.0,2.0,0.0,4.0,-10.0,-3.0,-4.0,1.808183193206787
399,-32.0,4.0,24.0,1.0,-11734.0,-9502.0,5554.0,-3107.0,-1.0,0.0,1.0,8.0,-5.0,-2.0,0.0,2.0,1.810065746307373
400,-18.0,2.0,13.0,1.0,-11733.0,-9501.0,5557.0,-3107.0,-1.0,0.0,1.0,8.0,-5.0,-2.0,0.0,2.0,1.8229897022247314
401,-18.0,2.0,13.0,1.0,-11733.0,-9501.0,5557.0,-3107.0,2.0,1.0,11.0,4.0,0.0,8.0,1.0,0.0,1.8397746086120605
402,-18.0,2.0,13.0,1.0,-11733.0,-9501.0,5557.0,-3107.0,-1.0,-5.0,-3.0,4.0,2.0,0.0,1.0,1.0,1.8463325500488281
403,-18.0,5.0,17.0,1.0,-11733.0,-9499.0,5559.0,-3109.0,-1.0,-5.0,-3.0,4.0,2.0,0.0,1.0,1.0,1.8556113243103027
404,-18.0,5.0,17.0,1.0,-11733.0,-9499.0,5559.0,-3109.0,-4.0,2.0,-4.0,-10.0,-11.0,0.0,1.0,-2.0,1.8579034805297852
405,-18.0,5.0,17.0,1.0,-11733.0,-9499.0,5559.0,-3109.0,0.0,4.0,-3.0,-19.0,-8.0,3.0,-1.0,-2.0,1.8597242832183838
406,-8.0,2.0,11.0,1.0,-11733.0,-9499.0,5559.0,-3108.0,0.0,4.0,-3.0,-19.0,-8.0,3.0,-1.0,-2.0,1.8615379333496094
407,-8.0,2.0,11.0,1.0,-11733.0,-9499.0,5559.0,-3108.0,-1.0,-3.0,4.0,1.0,-13.0,-1.0,-3.0,-3.0,1.8682763576507568
408,-8.0,2.0,11.0,1.0,-11733.0,-9499.0,5559.0,-3108.0,-1.0,-2.0,-13.0,-1.0,0.0,-1.0,0.0,-2.0,1.8702995777130127
409,3.0,-3.0,6.0,1.0,-11732.0,-9500.0,5559.0,-3108.0,-1.0,-2.0,-13.0,-1.0,0.0,-1.0,0.0,-2.0,1.8828833103179932
410,3.0,-3.0,6.0,1.0,-11732.0,-9500.0,5559.0,-3108.0,0.0,1.0,0.0,3.0,1.0,7.0,-1.0,-3.0,1.8915114402770996
411,3.0,-3.0,6.0,1.0,-11732.0,-9500.0,5559.0,-3108.0,-2.0,1.0,-5.0,-1.0,-9.0,0.0,-3.0,-2.0,1.8942539691925049
412,2.0,-3.0,-2.0,1.0,-11732.0,-9500.0,5559.0,-3107.0,-2.0,1.0,-5.0,-1.0,-9.0,0.0,-3.0,-2.0,1.9061486721038818
413,2.0,-3.0,-2.0,1.0,-11732.0,-9500.0,5559.0,-3107.0,-4.0,-4.0,5.0,10.0,-3.0,5.0,-1.0,0.0,1.9095008373260498
414,2.0,-3.0,-2.0,1.0,-11732.0,-9500.0,5559.0,-3107.0,-3.0,-2.0,6.0,-2.0,-6.0,-2.0,1.0,-1.0,1.9128901958465576
415,5.0,-9.0,-9.0,1.0,-11732.0,-9501.0,5559.0,-3107.0,-3.0,-2.0,6.0,-2.0,-6.0,-2.0,1.0,-1.0,1.9205880165100098
416,5.0,-9.0,-9.0,1.0,-11732.0,-9501.0,5559.0,-3107.0,-4.0,-8.0,1.0,-2.0,2.0,-3.0,0.0,-1.0,1.9282176494598389
417,5.0,-9.0,-9.0,1.0,-11732.0,-9501.0,5559.0,-3107.0,3.0,9.0,-7.0,-23.0,12.0,0.0,1.0,1.0,1.9303820133209229
418,17.0,-8.0,-15.0,1.0,-11729.0,-9506.0,5557.0,-3104.0,3.0,9.0,-7.0,-23.0,12.0,0.0,1.0,1.0,1.9447860717773438
419,17.0,-8.0,-15.0,1.0,-11729.0,-9506.0,5557.0,-3104.0,-1.0,-3.0,0.0,3.0,3.0,5.0,0.0,-1.0,1.9516949653625488
420,17.0,-8.0,-15.0,1.0,-11729.0,-9506.0,5557.0,-3104.0,1.0,6.0,10.0,9.0,-12.0,-7.0,-7.0,-6.0,1.9545049667358398
421,29.0,-11.0,-20.0,1.0,-11725.0,-9514.0,5554.0,-3099.0,1.0,6.0,10.0,9.0,-12.0,-7.0,-7.0,-6.0,1.9736876487731934
422,29.0,-11.0,-20.0,1.0,-11725.0,-9514.0,5554.0,-3099.0,6.0,7.0,17.0,-7.0,6.0,0.0,1.0,3.0,1.9756238460540771
423,29.0,-11.0,-20.0,1.0,-11725.0,-9514.0,5554.0,-3099.0,-2.0,-3.0,4.0,-5.0,-4.0,12.0,3.0,1.0,1.9774653911590576
424,9.0,-4.0,-19.0,1.0,-11725.0,-9519.0,5550.0,-3095.0,-2.0,-3.0,4.0,-5.0,-4.0,12.0,3.0,1.0,1.9896762371063232
425,9.0,-4.0,-19.0,1.0,-11725.0,-9519.0,5550.0,-3095.0,-2.0,-7.0,-11.0,-13.0,-5.0,-20.0,-5.0,-4.0,1.9929425716400146
426,9.0,-4.0,-19.0,1.0,-11725.0,-9519.0,5550.0,-3095.0,-2.0,-7.0,4.0,9.0,-6.0,0.0,-1.0,0.0,1.994802474975586
427,6.0,-11.0,-23.0,1.0,-11724.0,-9522.0,5548.0,-3090.0,-2.0,-7.0,4.0,9.0,-6.0,0.0,-1.0,0.0,2.0022192001342773
428,6.0,-11.0,-23.0,1.0,-11724.0,-9522.0,5548.0,-3090.0,-2.0,0.0,0.0,7.0,12.0,7.0,2.0,0.0,2.0189104080200195
429,6.0,-11.0,-23.0,1.0,-11724.0,-9522.0,5548.0,-3090.0,0.0,-2.0,-12.0,2.0,-9.0,-5.0,0.0,-2.0,2.0229671001434326
430,2.0,-10.0,-24.0,1.0,-11724.0,-9525.0,5545.0,-3086.0,0.0,-2.0,-12.0,2.0,-9.0,-5.0,0.0,-2.0,2.0261058807373047
431,2.0,-10.0,-24.0,1.0,-11724.0,-9525.0,5545.0,-3086.0,2.0,11.0,21.0,7.0,4.0,5.0,2.0,2.0,2.029399871826172
432,2.0,-10.0,-24.0,1.0,-11724.0,-9525.0,5545.0,-3086.0,-2.0,-2.0,5.0,14.0,-13.0,-14.0,-3.0,-8.0,2.031808853149414
433,24.0,2.0,-14.0,1.0,-11723.0,-9529.0,5541.0,-3084.0,-2.0,-2.0,5.0,14.0,-13.0,-14.0,-3.0,-8.0,2.0489494800567627
434,24.0,2.0,-14.0,1.0,-11723.0,-9529.0,5541.0,-3084.0,-4.0,-4.0,-12.0,-14.0,2.0,0.0,0.0,-2.0,2.0523579120635986
435,24.0,2.0,-14.0,1.0,-11723.0,-9529.0,5541.0,-3084.0,1.0,1.0,13.0,19.0,15.0,1.0,1.0,4.0,2.055803060531616
436,17.0,-4.0,-10.0,1.0,-11723.0,-9533.0,5538.0,-3082.0,1.0,1.0,13.0,19.0,15.0,1.0,1.0,4.0,2.062864303588867
437,17.0,-4.0,-10.0,1.0,-11723.0,-9533.0,5538.0,-3082.0,-3.0,1.0,-11.0,-2.0,-7.0,1.0,-1.0,-4.0,2.079360246658325
438,17.0,-4.0,-10.0,1.0,-11723.0,-9533.0,5538.0,-3082.0,-1.0,-5.0,-16.0,-6.0,10.0,-3.0,-1.0,2.0,2.0836386680603027
439,-12.0,4.0,-2.0,1.0,-11723.0,-9533.0,5537.0,-3081.0,-1.0,-5.0,-16.0,-6.0,10.0,-3.0,-1.0,2.0,2.087893486022949
440,-12.0,4.0,-2.0,1.0,-11723.0,-9533.0,5537.0,-3081.0,-3.0,-4.0,-10.0,-16.0,-21.0,-4.0,-4.0,-3.0,2.091015100479126
441,-12.0,4.0,-2.0,1.0,-11723.0,-9533.0,5537.0,-3081.0,1.0,5.0,9.0,5.0,5.0,12.0,2.0,0.0,2.093259572982788
442,-15.0,7.0,1.0,1.0,-11723.0,-9533.0,5537.0,-3081.0,1.0,5.0,9.0,5.0,5.0,12.0,2.0,0.0,2.1093640327453613
443,-15.0,7.0,1.0,1.0,-11723.0,-9533.0,5537.0,-3081.0,0.0,-1.0,-1.0,3.0,8.0,2.0,1.0,0.0,2.1112658977508545
444,-15.0,7.0,1.0,1.0,-11723.0,-9533.0,5537.0,-3081.0,-1.0,-1.0,6.0,5.0,8.0,-1.0,4.0,3.0,2.115668535232544
445,-14.0,6.0,-3.0,1.0,-11723.0,-9533.0,5536.0,-3080.0,-1.0,-1.0,6.0,5.0,8.0,-1.0,4.0,3.0,2.1223013401031494
446,-14.0,6.0,-3.0,1.0,-11723.0,-9533.0,5536.0,-3080.0,0.0,1.0,0.0,4.0,-1.0,-14.0,-3.0,-2.0,2.131040096282959
447,-14.0,6.0,-3.0,1.0,-11723.0,-9533.0,5536.0,-3080.0,0.0,-3.0,-4.0,-9.0,0.0,-3.0,4.0,2.0,2.1332316398620605
448,0.0,10.0,-4.0,1.0,-11724.0,-9533.0,5535.0,-3080.0,0.0,-3.0,-4.0,-9.0,0.0,-3.0,4.0,2.0,2.147071361541748
449,0.0,10.0,-4.0,1.0,-11724.0,-9533.0,5535.0,-3080.0,4.0,4.0,5.0,-4.0,5.0,7.0,0.0,-1.0,2.150303602218628
450,0.0,10.0,-4.0,1.0,-11724.0,-9533.0,5535.0,-3080.0,-3.0,-7.0,-18.0,-6.0,-6.0,-3.0,0.0,-1.0,2.153294086456299
451,12.0,25.0,-5.0,1.0,-11728.0,-9534.0,5526.0,-3079.0,-3.0,-7.0,-18.0,-6.0,-6.0,-3.0,0.0,-1.0,2.1696884632110596
452,12.0,25.0,-5.0,1.0,-11728.0,-9534.0,5526.0,-3079.0,-3.0,-7.0,2.0,-2.0,-14.0,6.0,-1.0,-4.0,2.1728386878967285
453,12.0,25.0,-5.0,1.0,-11728.0,-9534.0,5526.0,-3079.0,5.0,-2.0,-19.0,-7.0,-12.0,-11.0,-7.0,-1.0,2.177187204360962
454,-17.0,46.0,-25.0,1.0,-11741.0,-9529.0,5508.0,-3076.0,5.0,-2.0,-19.0,-7.0,-12.0,-11.0,-7.0,-1.0,2.1828019618988037
455,-17.0,46.0,-25.0,1.0,-11741.0,-9529.0,5508.0,-3076.0,-2.0,6.0,1.0,1.0,-3.0,4.0,2.0,1.0,2.190894603729248
456,-17.0,46.0,-25.0,1.0,-11741.0,-9529.0,5508.0,-3076.0,3.0,4.0,18.0,21.0,2.0,7.0,-5.0,6.0,2.1927173137664795
457,-33.0,72.0,-56.0,1.0,-11764.0,-9521.0,5478.0,-3066.0,3.0,4.0,18.0,21.0,2.0,7.0,-5.0,6.0,2.214606523513794
458,-33.0,72.0,-56.0,1.0,-11764.0,-9521.0,5478.0,-3066.0,1.0,-2.0,0.0,0.0,13.0,4.0,0.0,1.0,2.2181828022003174
459,-33.0,72.0,-56.0,1.0,-11764.0,-9521.0,5478.0,-3066.0,-5.0,6.0,-3.0,-12.0,-14.0,-22.0,-5.0,-5.0,2.2219951152801514
460,-54.0,121.0,-78.0,1.0,-11799.0,-9509.0,5432.0,-3054.0,-5.0,6.0,-3.0,-12.0,-14.0,-22.0,-5.0,-5.0,2.2298192977905273
461,-54.0,121.0,-78.0,1.0,-11799.0,-9509.0,5432.0,-3054.0,-4.0,-4.0,0.0,-5.0,0.0,8.0,2.0,3.0,2.231858253479004
462,-54.0,121.0,-78.0,1.0,-11799.0,-9509.0,5432.0,-3054.0,-1.0,-8.0,-9.0,1.0,-15.0,2.0,4.0,2.0,2.2336626052856445
463,-119.0,177.0,-100.0,1.0,-11850.0,-9484.0,5371.0,-3039.0,-1.0,-8.0,-9.0,1.0,-15.0,2.0,4.0,2.0,2.2426862716674805
464,-119.0,177.0,-100.0,1.0,-11850.0,-9484.0,5371.0,-3039.0,-6.0,-2.0,13.0,7.0,-5.0,-6.0,-6.0,-9.0,2.2588956356048584
465,-119.0,177.0,-100.0,1.0,-11850.0,-9484.0,5371.0,-3039.0,6.0,9.0,6.0,10.0,3.0,-7.0,-2.0,6.0,2.262131690979004
466,-227.0,242.0,-104.0,1.0,-11920.0,-9441.0,5302.0,-3022.0,6.0,9.0,6.0,10.0,3.0,-7.0,-2.0,6.0,2.2669124603271484
467,-227.0,242.0,-104.0,1.0,-11920.0,-9441.0,5302.0,-3022.0,-2.0,-2.0,-17.0,-17.0,1.0,-3.0,1.0,2.0,2.270822525024414
468,-227.0,242.0,-104.0,1.0,-11920.0,-9441.0,5302.0,-3022.0,7.0,-3.0,-17.0,-13.0,3.0,10.0,6.0,2.0,2.2726476192474365
469,-347.0,331.0,-132.0,1.0,-12011.0,-9376.0,5221.0,-3006.0,7.0,-3.0,-17.0,-13.0,3.0,10.0,6.0,2.0,2.2887701988220215
470,-347.0,331.0,-132.0,1.0,-12011.0,-9376.0,5221.0,-3006.0,12.0,17.0,12.0,21.0,6.0,-4.0,-3.0,6.0,2.290710926055908
471,-347.0,331.0,-132.0,1.0,-12011.0,-9376.0,5221.0,-3006.0,-3.0,-2.0,25.0,8.0,4.0,12.0,3.0,0.0,2.2944657802581787
472,-424.0,438.0,-254.0,1.0,-12118.0,-9300.0,5119.0,-2985.0,-3.0,-2.0,25.0,8.0,4.0,12.0,3.0,0.0,2.312525749206543
473,-424.0,438.0,-254.0,1.0,-12118.0,-9300.0,5119.0,-2985.0,-3.0,-3.0,-29.0,-18.0,-48.0,-41.0,-10.0,-1.0,2.3161849975585938
474,-424.0,438.0,-254.0,1.0,-12118.0,-9300.0,5119.0,-2985.0,18.0,20.0,22.0,15.0,5.0,-13.0,-2.0,5.0,2.319080352783203
475,-556.0,662.0,-548.0,1.0,-12253.0,-9212.0,4975.0,-2950.0,18.0,20.0,22.0,15.0,5.0,-13.0,-2.0,5.0,2.3257768154144287
476,-556.0,662.0,-548.0,1.0,-12253.0,-9212.0,4975.0,-2950.0,-5.0,-11.0,-12.0,25.0,9.0,15.0,7.0,-1.0,2.3278744220733643
477,-556.0,662.0,-548.0,1.0,-12253.0,-9212.0,4975.0,-2950.0,-14.0,-17.0,2.0,15.0,-3.0,-6.0,-11.0,-12.0,2.3401224613189697
478,-661.0,891.0,-880.0,1.0,-12421.0,-9109.0,4777.0,-2896.0,-14.0,-17.0,2.0,15.0,-3.0,-6.0,-11.0,-12.0,2.3497769832611084
479,-661.0,891.0,-880.0,1.0,-12421.0,-9109.0,4777.0,-2896.0,8.0,3.0,20.0,-17.0,-3.0,-3.0,-9.0,-5.0,2.3532235622406006
480,-661.0,891.0,-880.0,1.0,-12421.0,-9109.0,4777.0,-2896.0,-2.0,6.0,-3.0,-28.0,3.0,5.0,1.0,-4.0,2.356233596801758
481,-581.0,1115.0,-1187.0,1.0,-12603.0,-9015.0,4513.0,-2828.0,-2.0,6.0,-3.0,-28.0,3.0,5.0,1.0,-4.0,2.3631584644317627
482,-581.0,1115.0,-1187.0,1.0,-12603.0,-9015.0,4513.0,-2828.0,-9.0,-9.0,2.0,12.0,12.0,-3.0,-3.0,-2.0,2.3712873458862305
483,-581.0,1115.0,-1187.0,1.0,-12603.0,-9015.0,4513.0,-2828.0,-8.0,-9.0,7.0,13.0,-21.0,-5.0,-4.0,-7.0,2.374994993209839
484,-592.0,1272.0,-1442.0,1.0,-12795.0,-8926.0,4196.0,-2732.0,-8.0,-9.0,7.0,13.0,-21.0,-5.0,-4.0,-7.0,2.385572910308838
485,-592.0,1272.0,-1442.0,1.0,-12795.0,-8926.0,4196.0,-2732.0,14.0,-3.0,20.0,20.0,20.0,-1.0,0.0,3.0,2.38742995262146
486,-592.0,1272.0,-1442.0,1.0,-12795.0,-8926.0,4196.0,-2732.0,17.0,2.0,-7.0,9.0,-4.0,-1.0,3.0,13.0,2.392764091491699
487,-696.0,1448.0,-1751.0,1.0,-12982.0,-8856.0,3840.0,-2597.0,17.0,2.0,-7.0,9.0,-4.0,-1.0,3.0,13.0,2.4175524711608887
488,-696.0,1448.0,-1751.0,1.0,-12982.0,-8856.0,3840.0,-2597.0,-8.0,6.0,8.0,-11.0,18.0,9.0,-2.0,-7.0,2.4217348098754883
489,-696.0,1448.0,-1751.0,1.0,-12982.0,-8856.0,3840.0,-2597.0,40.0,12.0,28.0,44.0,-1.0,7.0,8.0,19.0,2.426065444946289
490,-885.0,1650.0,-2075.0,1.0,-13193.0,-8764.0,3425.0,-2423.0,40.0,12.0,28.0,44.0,-1.0,7.0,8.0,19.0,2.4298095703125
491,-885.0,1650.0,-2075.0,1.0,-13193.0,-8764.0,3425.0,-2423.0,6.0,1.0,1.0,2.0,-6.0,2.0,4.0,3.0,2.432129383087158
492,-885.0,1650.0,-2075.0,1.0,-13193.0,-8764.0,3425.0,-2423.0,-17.0,2.0,-21.0,-47.0,39.0,9.0,0.0,-15.0,2.4343974590301514
493,-1138.0,1890.0,-2341.0,1.0,-13426.0,-8632.0,2955.0,-2222.0,-17.0,2.0,-21.0,-47.0,39.0,9.0,0.0,-15.0,2.445596218109131
494,-1138.0,1890.0,-2341.0,1.0,-13426.0,-8632.0,2955.0,-2222.0,-3.0,-19.0,-21.0,73.0,25.0,6.0,4.0,3.0,2.4475796222686768
495,-1138.0,1890.0,-2341.0,1.0,-13426.0,-8632.0,2955.0,-2222.0,-8.0,-4.0,26.0,-5.0,-40.0,-7.0,-7.0,-4.0,2.452641725540161
496,-1348.0,2129.0,-2655.0,1.0,-13674.0,-8464.0,2424.0,-1988.0,-8.0,-4.0,26.0,-5.0,-40.0,-7.0,-7.0,-4.0,2.4688632488250732
497,-1348.0,2129.0,-2655.0,1.0,-13674.0,-8464.0,2424.0,-1988.0,-7.0,-1.0,-19.0,-59.0,3.0,3.0,1.0,-2.0,2.4708938598632812
498,-1348.0,2129.0,-2655.0,1.0,-13674.0,-8464.0,2424.0,-1988.0,-18.0,-29.0,-21.0,-57.0,-39.0,0.0,-1.0,-3.0,2.47268009185791
499,-1493.0,2300.0,-3002.0,1.0,-13921.0,-8268.0,1835.0,-1711.0,-18.0,-29.0,-21.0,-57.0,-39.0,0.0,-1.0,-3.0,2.4823973178863525
500,-1493.0,2300.0,-3002.0,1.0,-13921.0,-8268.0,1835.0,-1711.0,-4.0,7.0,12.0,42.0,-12.0,-3.0,0.0,1.0,2.4907195568084717
501,-1493.0,2300.0,-3002.0,1.0,-13921.0,-8268.0,1835.0,-1711.0,-15.0,1.0,-6.0,79.0,52.0,7.0,-5.0,0.0,2.4925403594970703
502,-1522.0,2371.0,-3344.0,1.0,-14147.0,-8059.0,1202.0,-1385.0,-15.0,1.0,-6.0,79.0,52.0,7.0,-5.0,0.0,2.50616455078125
503,-1522.0,2371.0,-3344.0,1.0,-14147.0,-8059.0,1202.0,-1385.0,-3.0,3.0,-6.0,-16.0,-4.0,2.0,8.0,8.0,2.5093038082122803
504,-1522.0,2371.0,-3344.0,1.0,-14147.0,-8059.0,1202.0,-1385.0,-2.0,-6.0,-15.0,105.0,20.0,-3.0,0.0,-3.0,2.5134127140045166
505,-1913.0,2425.0,-3709.0,1.0,-14376.0,-7779.0,534.0,-1000.0,-2.0,-6.0,-15.0,105.0,20.0,-3.0,0.0,-3.0,2.5285756587982178
506,-1913.0,2425.0,-3709.0,1.0,-14376.0,-7779.0,534.0,-1000.0,4.0,-6.0,-6.0,-34.0,-12.0,-1.0,-2.0,4.0,2.5305001735687256
507,-1913.0,2425.0,-3709.0,1.0,-14376.0,-7779.0,534.0,-1000.0,-10.0,15.0,-7.0,-4.0,4.0,-3.0,-7.0,-8.0,2.5322818756103516
508,-2154.0,2450.0,-4029.0,1.0,-14583.0,-7446.0,-159.0,-568.0,-10.0,15.0,-7.0,-4.0,4.0,-3.0,-7.0,-8.0,2.5425806045532227
509,-2154.0,2450.0,-4029.0,1.0,-14583.0,-7446.0,-159.0,-568.0,40.0,72.0,22.0,1.0,-12.0,2.0,1.0,3.0,2.550443649291992
510,-2154.0,2450.0,-4029.0,1.0,-14583.0,-7446.0,-159.0,-568.0,0.0,-7.0,-6.0,-50.0,8.0,-3.0,-3.0,-2.0,2.5522449016571045
511,-2721.0,2464.0,-4295.0,1.0,-14791.0,-6995.0,-865.0,-98.0,0.0,-7.0,-6.0,-50.0,8.0,-3.0,-3.0,-2.0,2.565506935119629
512,-2721.0,2464.0,-4295.0,1.0,-14791.0,-6995.0,-865.0,-98.0,-9.0,-26.0,-14.0,-6.0,-6.0,9.0,-1.0,-4.0,2.569135904312134
513,-2721.0,2464.0,-4295.0,1.0,-14791.0,-6995.0,-865.0,-98.0,4.0,-5.0,-3.0,-58.0,-3.0,-19.0,-6.0,-9.0,2.5734190940856934
514,-3106.0,2296.0,-4468.0,1.0,-14974.0,-6455.0,-1552.0,408.0,4.0,-5.0,-3.0,-58.0,-3.0,-19.0,-6.0,-9.0,2.5919125080108643
515,-3106.0,2296.0,-4468.0,1.0,-14974.0,-6455.0,-1552.0,408.0,-11.0,-25.0,-20.0,-17.0,-9.0,-3.0,-6.0,-5.0,2.5959126949310303
516,-3106.0,2296.0,-4468.0,1.0,-14974.0,-6455.0,-1552.0,408.0,-1.0,-10.0,-20.0,-13.0,3.0,-18.0,5.0,-1.0,2.59934401512146
517,-3604.0,2115.0,-4606.0,1.0,-15132.0,-5805.0,-2216.0,938.0,-1.0,-10.0,-20.0,-13.0,3.0,-18.0,5.0,-1.0,2.602781295776367
518,-3604.0,2115.0,-4606.0,1.0,-15132.0,-5805.0,-2216.0,938.0,-2.0,-1.0,22.0,0.0,12.0,-43.0,-21.0,-9.0,2.6116771697998047
519,-3604.0,2115.0,-4606.0,1.0,-15132.0,-5805.0,-2216.0,938.0,10.0,15.0,6.0,-9.0,-39.0,-1.0,3.0,3.0,2.6135709285736084
520,-4141.0,1931.0,-4471.0,1.0,-15261.0,-5044.0,-2837.0,1440.0,10.0,15.0,6.0,-9.0,-39.0,-1.0,3.0,3.0,2.634493589401245
521,-4141.0,1931.0,-4471.0,1.0,-15261.0,-5044.0,-2837.0,1440.0,-16.0,-17.0,-1.0,7.0,1.0,35.0,-2.0,-11.0,2.6376793384552
522,-4141.0,1931.0,-4471.0,1.0,-15261.0,-5044.0,-2837.0,1440.0,5.0,4.0,20.0,4.0,-12.0,30.0,-1.0,3.0,2.6407992839813232
523,-4529.0,1741.0,-4305.0,1.0,-15347.0,-4201.0,-3413.0,1906.0,5.0,4.0,20.0,4.0,-12.0,30.0,-1.0,3.0,2.649514675140381
524,-4529.0,1741.0,-4305.0,1.0,-15347.0,-4201.0,-3413.0,1906.0,47.0,16.0,15.0,-4.0,-5.0,-76.0,-15.0,-1.0,2.6519811153411865
525,-4529.0,1741.0,-4305.0,1.0,-15347.0,-4201.0,-3413.0,1906.0,-7.0,9.0,12.0,5.0,6.0,27.0,4.0,-2.0,2.6540510654449463
526,-4902.0,1607.0,-4112.0,1.0,-15385.0,-3284.0,-3948.0,2321.0,-7.0,9.0,12.0,5.0,6.0,27.0,4.0,-2.0,2.662219762802124
527,-4902.0,1607.0,-4112.0,1.0,-15385.0,-3284.0,-3948.0,2321.0,-11.0,-14.0,-46.0,-13.0,-32.0,38.0,7.0,0.0,2.671098232269287
528,-4902.0,1607.0,-4112.0,1.0,-15385.0,-3284.0,-3948.0,2321.0,7.0,10.0,-2.0,-3.0,9.0,-8.0,3.0,-4.0,2.6734423637390137
529,-4912.0,1572.0,-3856.0,1.0,-15358.0,-2362.0,-4451.0,2682.0,7.0,10.0,-2.0,-3.0,9.0,-8.0,3.0,-4.0,2.685560703277588
530,-4912.0,1572.0,-3856.0,1.0,-15358.0,-2362.0,-4451.0,2682.0,11.0,9.0,10.0,-8.0,34.0,-40.0,1.0,5.0,2.6874334812164307
531,-4912.0,1572.0,-3856.0,1.0,-15358.0,-2362.0,-4451.0,2682.0,-23.0,-8.0,-1.0,-7.0,-31.0,-3.0,1.0,-1.0,2.693392038345337
532,-5025.0,1655.0,-3722.0,1.0,-15264.0,-1415.0,-4945.0,3000.0,-23.0,-8.0,-1.0,-7.0,-31.0,-3.0,1.0,-1.0,2.7098255157470703
533,-5025.0,1655.0,-3722.0,1.0,-15264.0,-1415.0,-4945.0,3000.0,-17.0,13.0,10.0,38.0,-5.0,-36.0,-8.0,0.0,2.713385581970215
534,-5025.0,1655.0,-3722.0,1.0,-15264.0,-1415.0,-4945.0,3000.0,-11.0,-19.0,-11.0,6.0,11.0,18.0,4.0,0.0,2.715789318084717
535,-4739.0,1777.0,-3531.0,1.0,-15096.0,-521.0,-5428.0,3288.0,-11.0,-19.0,-11.0,6.0,11.0,18.0,4.0,0.0,2.722306728363037
536,-4739.0,1777.0,-3531.0,1.0,-15096.0,-521.0,-5428.0,3288.0,-27.0,-5.0,18.0,15.0,-4.0,-19.0,0.0,-9.0,2.731548547744751
537,-4739.0,1777.0,-3531.0,1.0,-15096.0,-521.0,-5428.0,3288.0,9.0,17.0,20.0,13.0,9.0,-1.0,-15.0,-13.0,2.7358529567718506
538,-4484.0,1977.0,-3438.0,1.0,-14854.0,328.0,-5916.0,3563.0,9.0,17.0,20.0,13.0,9.0,-1.0,-15.0,-13.0,2.746129035949707
539,-4484.0,1977.0,-3438.0,1.0,-14854.0,328.0,-5916.0,3563.0,-19.0,-23.0,-29.0,-7.0,-42.0,12.0,13.0,1.0,2.7480785846710205
540,-4484.0,1977.0,-3438.0,1.0,-14854.0,328.0,-5916.0,3563.0,4.0,-10.0,-15.0,-14.0,15.0,-5.0,5.0,1.0,2.752403974533081
541,-4208.0,2177.0,-3462.0,1.0,-14536.0,1135.0,-6409.0,3848.0,4.0,-10.0,-15.0,-14.0,15.0,-5.0,5.0,1.0,2.767451524734497
542,-4208.0,2177.0,-3462.0,1.0,-14536.0,1135.0,-6409.0,3848.0,3.0,-2.0,1.0,-13.0,-16.0,-2.0,-2.0,28.0,2.775564193725586
543,-4208.0,2177.0,-3462.0,1.0,-14536.0,1135.0,-6409.0,3848.0,-4.0,1.0,1.0,0.0,12.0,-41.0,-12.0,22.0,2.777909755706787
544,-3816.0,2369.0,-3666.0,1.0,-14137.0,1896.0,-6894.0,4182.0,-4.0,1.0,1.0,0.0,12.0,-41.0,-12.0,22.0,2.7818398475646973
545,-3816.0,2369.0,-3666.0,1.0,-14137.0,1896.0,-6894.0,4182.0,-4.0,-7.0,-1.0,-10.0,-1.0,40.0,14.0,17.0,2.791748523712158
546,-3816.0,2369.0,-3666.0,1.0,-14137.0,1896.0,-6894.0,4182.0,-9.0,-4.0,-7.0,2.0,-65.0,39.0,1.0,-32.0,2.7955141067504883
547,-3466.0,2453.0,-3868.0,1.0,-13667.0,2620.0,-7348.0,4562.0,-9.0,-4.0,-7.0,2.0,-65.0,39.0,1.0,-32.0,2.815316915512085
548,-3466.0,2453.0,-3868.0,1.0,-13667.0,2620.0,-7348.0,4562.0,5.0,5.0,1.0,2.0,20.0,10.0,18.0,7.0,2.819052219390869
549,-3466.0,2453.0,-3868.0,1.0,-13667.0,2620.0,-7348.0,4562.0,-12.0,-13.0,-11.0,-14.0,-35.0,13.0,25.0,-26.0,2.822744607925415
550,-2979.0,2432.0,-3969.0,1.0,-13146.0,3282.0,-7751.0,4979.0,-12.0,-13.0,-11.0,-14.0,-35.0,13.0,25.0,-26.0,2.837574005126953
551,-2979.0,2432.0,-3969.0,1.0,-13146.0,3282.0,-7751.0,4979.0,-13.0,-3.0,-6.0,-23.0,-18.0,48.0,-35.0,-98.0,2.8396987915039062
552,-2979.0,2432.0,-3969.0,1.0,-13146.0,3282.0,-7751.0,4979.0,26.0,9.0,5.0,14.0,64.0,52.0,30.0,87.0,2.8420355319976807
553,-2442.0,2328.0,-3814.0,1.0,-12602.0,3859.0,-8103.0,5394.0,26.0,9.0,5.0,14.0,64.0,52.0,30.0,87.0,2.844120502471924
554,-2442.0,2328.0,-3814.0,1.0,-12602.0,3859.0,-8103.0,5394.0,-5.0,-1.0,1.0,2.0,21.0,-96.0,-51.0,-24.0,2.8506524562835693
555,-2442.0,2328.0,-3814.0,1.0,-12602.0,3859.0,-8103.0,5394.0,-10.0,-3.0,-2.0,4.0,28.0,-47.0,-37.0,-36.0,2.8524513244628906
556,-1790.0,2168.0,-3114.0,1.0,-12139.0,4248.0,-8366.0,5749.0,-10.0,-3.0,-2.0,4.0,28.0,-47.0,-37.0,-36.0,2.865067720413208
557,-1790.0,2168.0,-3114.0,1.0,-12139.0,4248.0,-8366.0,5749.0,-9.0,-2.0,-7.0,-14.0,53.0,81.0,90.0,-14.0,2.873337984085083
558,-1790.0,2168.0,-3114.0,1.0,-12139.0,4248.0,-8366.0,5749.0,4.0,-7.0,-10.0,-11.0,-70.0,-12.0,6.0,-89.0,2.875136137008667
559,-754.0,2106.0,-2006.0,1.0,-11780.0,4396.0,-8595.0,6040.0,4.0,-7.0,-10.0,-11.0,-70.0,-12.0,6.0,-89.0,2.896761894226074
560,-754.0,2106.0,-2006.0,1.0,-11780.0,4396.0,-8595.0,6040.0,21.0,2.0,5.0,13.0,7.0,3.0,7.0,104.0,2.898646116256714
561,-754.0,2106.0,-2006.0,1.0,-11780.0,4396.0,-8595.0,6040.0,-3.0,1.0,-6.0,-12.0,19.0,3.0,28.0,-41.0,2.9004526138305664
562,386.0,2298.0,-1134.0,1.0,-11503.0,4300.0,-8807.0,6330.0,-3.0,1.0,-6.0,-12.0,19.0,3.0,28.0,-41.0,2.911144256591797
563,386.0,2298.0,-1134.0,1.0,-11503.0,4300.0,-8807.0,6330.0,-3.0,5.0,7.0,2.0,-8.0,27.0,-16.0,-19.0,2.913083553314209
564,386.0,2298.0,-1134.0,1.0,-11503.0,4300.0,-8807.0,6330.0,-3.0,5.0,7.0,2.0,-8.0,27.0,-16.0,-19.0,2.9148828983306885
565,386.0,2298.0,-1134.0,1.0,-11503.0,4300.0,-8807.0,6330.0,17.0,2.0,2.0,6.0,30.0,8.0,-6.0,65.0,2.925126552581787
566,1159.0,2227.0,-270.0,1.0,-11321.0,4025.0,-8990.0,6577.0,17.0,2.0,2.0,6.0,30.0,8.0,-6.0,65.0,2.9270591735839844
567,1159.0,2227.0,-270.0,1.0,-11321.0,4025.0,-8990.0,6577.0,-3.0,-6.0,-9.0,-9.0,41.0,-8.0,-10.0,-13.0,2.9327540397644043
568,1159.0,2227.0,-270.0,1.0,-11321.0,4025.0,-8990.0,6577.0,-7.0,-2.0,-3.0,-8.0,36.0,-31.0,-29.0,-2.0,2.9347028732299805
569,1523.0,1577.0,788.0,1.0,-11286.0,3645.0,-9107.0,6696.0,-7.0,-2.0,-3.0,-8.0,36.0,-31.0,-29.0,-2.0,2.948282241821289
570,1523.0,1577.0,788.0,1.0,-11286.0,3645.0,-9107.0,6696.0,6.0,1.0,-1.0,-4.0,-46.0,-2.0,3.0,30.0,2.9511120319366455
571,1523.0,1577.0,788.0,1.0,-11286.0,3645.0,-9107.0,6696.0,-8.0,-4.0,-1.0,-10.0,-51.0,-8.0,2.0,4.0,2.954807996749878
572,2321.0,635.0,1936.0,1.0,-11450.0,3119.0,-9088.0,6710.0,-8.0,-4.0,-1.0,-10.0,-51.0,-8.0,2.0,4.0,2.971086263656616
573,2321.0,635.0,1936.0,1.0,-11450.0,3119.0,-9088.0,6710.0,6.0,-1.0,5.0,14.0,8.0,18.0,-1.0,-4.0,2.9731059074401855
574,2321.0,635.0,1936.0,1.0,-11450.0,3119.0,-9088.0,6710.0,-7.0,-8.0,-3.0,-3.0,-16.0,8.0,5.0,20.0,2.9749033451080322
575,3425.0,-103.0,3255.0,1.0,-11800.0,2373.0,-8923.0,6631.0,-7.0,-8.0,-3.0,-3.0,-16.0,8.0,5.0,20.0,2.9860310554504395
576,3425.0,-103.0,3255.0,1.0,-11800.0,2373.0,-8923.0,6631.0,-4.0,-2.0,-7.0,-7.0,-64.0,-43.0,-21.0,-22.0,2.9891602993011475
577,3425.0,-103.0,3255.0,1.0,-11800.0,2373.0,-8923.0,6631.0,8.0,4.0,3.0,-2.0,18.0,-48.0,-10.0,48.0,2.9929957389831543
578,4451.0,-474.0,4549.0,1.0,-12248.0,1409.0,-8646.0,6458.0,8.0,4.0,3.0,-2.0,18.0,-48.0,-10.0,48.0,3.0087883472442627
579,4451.0,-474.0,4549.0,1.0,-12248.0,1409.0,-8646.0,6458.0,-18.0,-11.0,-8.0,-2.0,22.0,29.0,5.0,-14.0,3.0133516788482666
580,4451.0,-474.0,4549.0,1.0,-12248.0,1409.0,-8646.0,6458.0,11.0,6.0,2.0,2.0,23.0,65.0,6.0,-18.0,3.0233407020568848
581,5131.0,-456.0,6095.0,1.0,-12755.0,164.0,-8286.0,6089.0,11.0,6.0,2.0,2.0,23.0,65.0,6.0,-18.0,3.03226375579834
582,5131.0,-456.0,6095.0,1.0,-12755.0,164.0,-8286.0,6089.0,14.0,5.0,2.0,-7.0,-8.0,-20.0,5.0,20.0,3.0349345207214355
583,5131.0,-456.0,6095.0,1.0,-12755.0,164.0,-8286.0,6089.0,-16.0,-9.0,-7.0,0.0,18.0,-8.0,13.0,-25.0,3.036801815032959
584,5592.0,-3.0,7882.0,1.0,-13215.0,-1319.0,-7885.0,5467.0,-16.0,-9.0,-7.0,0.0,18.0,-8.0,13.0,-25.0,3.046211004257202
585,5592.0,-3.0,7882.0,1.0,-13215.0,-1319.0,-7885.0,5467.0,-3.0,0.0,-3.0,-16.0,-76.0,51.0,25.0,39.0,3.0616538524627686
586,5592.0,-3.0,7882.0,1.0,-13215.0,-1319.0,-7885.0,5467.0,-9.0,6.0,0.0,-14.0,7.0,-46.0,45.0,-39.0,3.069674253463745
587,6085.0,525.0,9627.0,1.0,-13553.0,-3032.0,-7402.0,4560.0,-9.0,6.0,0.0,-14.0,7.0,-46.0,45.0,-39.0,3.0737364292144775
588,6085.0,525.0,9627.0,1.0,-13553.0,-3032.0,-7402.0,4560.0,23.0,-13.0,-14.0,-5.0,-27.0,-46.0,-62.0,88.0,3.077115774154663
589,6085.0,525.0,9627.0,1.0,-13553.0,-3032.0,-7402.0,4560.0,36.0,17.0,21.0,34.0,50.0,-30.0,-7.0,80.0,3.0821027755737305
590,6089.0,261.0,11262.0,1.0,-13757.0,-4808.0,-6700.0,3346.0,36.0,17.0,21.0,34.0,50.0,-30.0,-7.0,80.0,3.0913455486297607
591,6089.0,261.0,11262.0,1.0,-13757.0,-4808.0,-6700.0,3346.0,-11.0,6.0,4.0,-10.0,87.0,102.0,-29.0,-111.0,3.0932464599609375
592,6089.0,261.0,11262.0,1.0,-13757.0,-4808.0,-6700.0,3346.0,-48.0,-86.0,42.0,29.0,-111.0,17.0,-113.0,-18.0,3.095043897628784
593,5184.0,901.0,13072.0,1.0,-13735.0,-6498.0,-5892.0,1696.0,-48.0,-86.0,42.0,29.0,-111.0,17.0,-113.0,-18.0,3.1055095195770264
594,5184.0,901.0,13072.0,1.0,-13735.0,-6498.0,-5892.0,1696.0,60.0,64.0,-21.0,3.0,26.0,-18.0,-2.0,1.0,3.1074345111846924
595,5184.0,901.0,13072.0,1.0,-13735.0,-6498.0,-5892.0,1696.0,-80.0,-35.0,-119.0,14.0,21.0,64.0,57.0,28.0,3.112592935562134
596,6028.0,-480.0,14914.0,1.0,-13409.0,-8225.0,-4581.0,-115.0,-80.0,-35.0,-119.0,14.0,21.0,64.0,57.0,28.0,3.128251075744629
597,6028.0,-480.0,14914.0,1.0,-13409.0,-8225.0,-4581.0,-115.0,51.0,87.0,80.0,37.0,77.0,51.0,76.0,37.0,3.1302525997161865
598,6028.0,-480.0,14914.0,1.0,-13409.0,-8225.0,-4581.0,-115.0,-36.0,-70.0,5.0,51.0,-12.0,-102.0,0.0,25.0,3.1357789039611816
599,1194.0,-2028.0,12469.0,1.0,-13240.0,-8961.0,-3188.0,-1649.0,-36.0,-70.0,5.0,51.0,-12.0,-102.0,0.0,25.0,3.151341676712036
600,1194.0,-2028.0,12469.0,1.0,-13240.0,-8961.0,-3188.0,-1649.0,32.0,69.0,59.0,-100.0,-41.0,63.0,16.0,-45.0,3.153272867202759
601,1194.0,-2028.0,12469.0,1.0,-13240.0,-8961.0,-3188.0,-1649.0,28.0,-3.0,27.0,-104.0,-22.0,-2.0,-32.0,-51.0,3.1550772190093994
602,4182.0,-2618.0,6945.0,1.0,-12742.0,-9811.0,-2197.0,-2242.0,28.0,-3.0,27.0,-104.0,-22.0,-2.0,-32.0,-51.0,3.167088508605957
603,4182.0,-2618.0,6945.0,1.0,-12742.0,-9811.0,-2197.0,-2242.0,-46.0,47.0,-127.0,41.0,26.0,-36.0,-18.0,0.0,3.1705992221832275
604,4182.0,-2618.0,6945.0,1.0,-12742.0,-9811.0,-2197.0,-2242.0,-5.0,-41.0,-111.0,-98.0,66.0,115.0,17.0,9.0,3.173632860183716
605,-81.0,-598.0,1732.0,1.0,-12720.0,-9853.0,-1954.0,-2398.0,-5.0,-41.0,-111.0,-98.0,66.0,115.0,17.0,9.0,3.1894044876098633
606,-81.0,-598.0,1732.0,1.0,-12720.0,-9853.0,-1954.0,-2398.0,-128.0,-128.0,-128.0,-19.0,-23.0,78.0,-13.0,-15.0,3.1925389766693115
607,-81.0,-598.0,1732.0,1.0,-12720.0,-9853.0,-1954.0,-2398.0,15.0,-50.0,-64.0,-82.0,-3.0,61.0,-102.0,-105.0,3.194965124130249
608,-260.0,-252.0,7106.0,1.0,-12561.0,-9903.0,-1130.0,-3369.0,15.0,-50.0,-64.0,-82.0,-3.0,61.0,-102.0,-105.0,3.21299147605896
609,-260.0,-252.0,7106.0,1.0,-12561.0,-9903.0,-1130.0,-3369.0,24.0,-119.0,127.0,-17.0,-36.0,13.0,-3.0,101.0,3.216125011444092
610,-260.0,-252.0,7106.0,1.0,-12561.0,-9903.0,-1130.0,-3369.0,-80.0,92.0,-59.0,23.0,127.0,-31.0,39.0,-77.0,3.218592405319214
611,-1312.0,-101.0,3761.0,1.0,-12553.0,-9764.0,-661.0,-3886.0,-80.0,92.0,-59.0,23.0,127.0,-31.0,39.0,-77.0,3.2249913215637207
612,-1312.0,-101.0,3761.0,1.0,-12553.0,-9764.0,-661.0,-3886.0,92.0,106.0,70.0,-71.0,-21.0,-128.0,-71.0,-19.0,3.234112501144409
613,-1312.0,-101.0,3761.0,1.0,-12553.0,-9764.0,-661.0,-3886.0,-66.0,127.0,91.0,48.0,-36.0,28.0,107.0,74.0,3.237722396850586
614,1219.0,-678.0,-161.0,1.0,-12402.0,-10016.0,-707.0,-3720.0,-66.0,127.0,91.0,48.0,-36.0,28.0,107.0,74.0,3.2482054233551025
615,1219.0,-678.0,-161.0,1.0,-12402.0,-10016.0,-707.0,-3720.0,51.0,106.0,-24.0,62.0,66.0,-12.0,26.0,-76.0,3.25011944770813
616,1219.0,-678.0,-161.0,1.0,-12402.0,-10016.0,-707.0,-3720.0,63.0,-73.0,27.0,-28.0,1.0,-60.0,-11.0,-48.0,3.2625021934509277
617,1889.0,-462.0,-1074.0,1.0,-12239.0,-10279.0,-839.0,-3509.0,63.0,-73.0,27.0,-28.0,1.0,-60.0,-11.0,-48.0,3.2725934982299805
618,1889.0,-462.0,-1074.0,1.0,-12239.0,-10279.0,-839.0,-3509.0,2.0,-82.0,33.0,41.0,-37.0,100.0,-24.0,-41.0,3.2767882347106934
619,1889.0,-462.0,-1074.0,1.0,-12239.0,-10279.0,-839.0,-3509.0,35.0,-98.0,48.0,77.0,-128.0,121.0,27.0,93.0,3.2805404663085938
620,1239.0,278.0,428.0,1.0,-12019.0,-10510.0,-867.0,-3579.0,35.0,-98.0,48.0,77.0,-128.0,121.0,27.0,93.0,3.2864785194396973
621,1239.0,278.0,428.0,1.0,-12019.0,-10510.0,-867.0,-3579.0,-99.0,-128.0,-89.0,-32.0,35.0,62.0,-1.0,24.0,3.2933247089385986
622,1239.0,278.0,428.0,1.0,-12019.0,-10510.0,-867.0,-3579.0,23.0,47.0,97.0,21.0,-3.0,24.0,-11.0,10.0,3.295745372772217
623,342.0,177.0,201.0,1.0,-11996.0,-10512.0,-858.0,-3648.0,23.0,47.0,97.0,21.0,-3.0,24.0,-11.0,10.0,3.30815052986145
624,342.0,177.0,201.0,1.0,-11996.0,-10512.0,-858.0,-3648.0,-2.0,-22.0,12.0,127.0,63.0,-19.0,65.0,3.0,3.3110170364379883
625,342.0,177.0,201.0,1.0,-11996.0,-10512.0,-858.0,-3648.0,-15.0,36.0,-58.0,27.0,18.0,-5.0,-17.0,-83.0,3.3160784244537354
626,2.0,177.0,-548.0,1.0,-12078.0,-10419.0,-922.0,-3628.0,-15.0,36.0,-58.0,27.0,18.0,-5.0,-17.0,-83.0,3.3325278759002686
627,2.0,177.0,-548.0,1.0,-12078.0,-10419.0,-922.0,-3628.0,0.0,32.0,84.0,113.0,28.0,12.0,10.0,-34.0,3.3360931873321533
628,2.0,177.0,-548.0,1.0,-12078.0,-10419.0,-922.0,-3628.0,52.0,-2.0,-15.0,-10.0,5.0,51.0,14.0,67.0,3.338862657546997
629,205.0,331.0,-204.0,1.0,-12074.0,-10407.0,-967.0,-3665.0,52.0,-2.0,-15.0,-10.0,5.0,51.0,14.0,67.0,3.3450145721435547
630,205.0,331.0,-204.0,1.0,-12074.0,-10407.0,-967.0,-3665.0,28.0,24.0,-85.0,7.0,-6.0,-44.0,-29.0,49.0,3.352898120880127
631,205.0,331.0,-204.0,1.0,-12074.0,-10407.0,-967.0,-3665.0,-52.0,-7.0,17.0,28.0,22.0,-95.0,-8.0,28.0,3.354722738265991
632,-118.0,300.0,-198.0,1.0,-12077.0,-10396.0,-1021.0,-3674.0,-52.0,-7.0,17.0,28.0,22.0,-95.0,-8.0,28.0,3.3679792881011963
633,-118.0,300.0,-198.0,1.0,-12077.0,-10396.0,-1021.0,-3674.0,-53.0,-43.0,12.0,-88.0,40.0,-39.0,20.0,60.0,3.3698601722717285
634,-118.0,300.0,-198.0,1.0,-12077.0,-10396.0,-1021.0,-3674.0,19.0,1.0,-20.0,35.0,88.0,-5.0,11.0,-63.0,3.3751049041748047
635,-613.0,158.0,-121.0,1.0,-12120.0,-10347.0,-1049.0,-3663.0,19.0,1.0,-20.0,35.0,88.0,-5.0,11.0,-63.0,3.391988754272461
636,-613.0,158.0,-121.0,1.0,-12120.0,-10347.0,-1049.0,-3663.0,5.0,6.0,-128.0,-78.0,-52.0,20.0,19.0,-47.0,3.395081043243408
637,-613.0,158.0,-121.0,1.0,-12120.0,-10347.0,-1049.0,-3663.0,-20.0,-1.0,63.0,-55.0,-10.0,-71.0,-30.0,-42.0,3.398195743560791
638,-754.0,112.0,-230.0,1.0,-12176.0,-10284.0,-1051.0,-3653.0,-20.0,-1.0,63.0,-55.0,-10.0,-71.0,-30.0,-42.0,3.404745101928711
639,-754.0,112.0,-230.0,1.0,-12176.0,-10284.0,-1051.0,-3653.0,-34.0,-37.0,-11.0,42.0,-90.0,31.0,12.0,12.0,3.4151768684387207
640,-754.0,112.0,-230.0,1.0,-12176.0,-10284.0,-1051.0,-3653.0,63.0,34.0,-78.0,-6.0,16.0,-9.0,8.0,74.0,3.418616771697998
641,-245.0,107.0,-356.0,1.0,-12189.0,-10272.0,-1073.0,-3634.0,63.0,34.0,-78.0,-6.0,16.0,-9.0,8.0,74.0,3.4293434619903564
642,-245.0,107.0,-356.0,1.0,-12189.0,-10272.0,-1073.0,-3634.0,-5.0,-11.0,44.0,-54.0,-13.0,-44.0,-27.0,-47.0,3.4317896366119385
643,-245.0,107.0,-356.0,1.0,-12189.0,-10272.0,-1073.0,-3634.0,-24.0,-15.0,-45.0,45.0,-115.0,-59.0,-40.0,36.0,3.434579610824585
644,118.0,147.0,-244.0,1.0,-12171.0,-10294.0,-1116.0,-3622.0,-24.0,-15.0,-45.0,45.0,-115.0,-59.0,-40.0,36.0,3.451326608657837
645,118.0,147.0,-244.0,1.0,-12171.0,-10294.0,-1116.0,-3622.0,-3.0,45.0,3.0,-28.0,26.0,-39.0,-11.0,5.0,3.4532690048217773
646,118.0,147.0,-244.0,1.0,-12171.0,-10294.0,-1116.0,-3622.0,-17.0,0.0,62.0,-1.0,23.0,64.0,-9.0,-29.0,3.4550626277923584
647,64.0,161.0,-154.0,1.0,-12170.0,-10291.0,-1154.0,-3622.0,-17.0,0.0,62.0,-1.0,23.0,64.0,-9.0,-29.0,3.4648897647857666
648,64.0,161.0,-154.0,1.0,-12170.0,-10291.0,-1154.0,-3622.0,-3.0,2.0,13.0,-44.0,41.0,14.0,28.0,58.0,3.4739878177642822
649,64.0,161.0,-154.0,1.0,-12170.0,-10291.0,-1154.0,-3622.0,28.0,3.0,34.0,-7.0,116.0,63.0,30.0,39.0,3.4763927459716797
650,-130.0,160.0,-78.0,1.0,-12190.0,-10259.0,-1167.0,-3642.0,28.0,3.0,34.0,-7.0,116.0,63.0,30.0,39.0,3.4962575435638428
651,-130.0,160.0,-78.0,1.0,-12190.0,-10259.0,-1167.0,-3642.0,-12.0,-19.0,-34.0,-30.0,-101.0,-63.0,-63.0,5.0,3.499000310897827
652,-130.0,160.0,-78.0,1.0,-12190.0,-10259.0,-1167.0,-3642.0,-43.0,-65.0,-50.0,-58.0,-13.0,25.0,-2.0,50.0,3.5022566318511963
653,-214.0,193.0,-10.0,1.0,-12214.0,-10218.0,-1174.0,-3674.0,-43.0,-65.0,-50.0,-58.0,-13.0,25.0,-2.0,50.0,3.5124096870422363
654,-214.0,193.0,-10.0,1.0,-12214.0,-10218.0,-1174.0,-3674.0,-6.0,3.0,-26.0,-35.0,-26.0,92.0,5.0,-44.0,3.515146493911743
655,-214.0,193.0,-10.0,1.0,-12214.0,-10218.0,-1174.0,-3674.0,1.0,-9.0,20.0,69.0,-46.0,-76.0,-5.0,70.0,3.5169570446014404
656,-242.0,234.0,62.0,1.0,-12235.0,-10177.0,-1188.0,-3712.0,1.0,-9.0,20.0,69.0,-46.0,-76.0,-5.0,70.0,3.5248990058898926
657,-242.0,234.0,62.0,1.0,-12235.0,-10177.0,-1188.0,-3712.0,14.0,-6.0,20.0,41.0,75.0,27.0,20.0,47.0,3.533538579940796
658,-242.0,234.0,62.0,1.0,-12235.0,-10177.0,-1188.0,-3712.0,13.0,7.0,-8.0,32.0,46.0,67.0,18.0,62.0,3.5362820625305176
659,-229.0,204.0,141.0,1.0,-12246.0,-10150.0,-1200.0,-3748.0,13.0,7.0,-8.0,32.0,46.0,67.0,18.0,62.0,3.5481274127960205
660,-229.0,204.0,141.0,1.0,-12246.0,-10150.0,-1200.0,-3748.0,-18.0,15.0,-2.0,-10.0,-38.0,-6.0,-4.0,-118.0,3.5512301921844482
661,-229.0,204.0,141.0,1.0,-12246.0,-10150.0,-1200.0,-3748.0,26.0,46.0,-5.0,-63.0,4.0,-12.0,13.0,-35.0,3.555649995803833
662,-240.0,147.0,153.0,1.0,-12253.0,-10128.0,-1197.0,-3782.0,26.0,46.0,-5.0,-63.0,4.0,-12.0,13.0,-35.0,3.572030782699585
663,-240.0,147.0,153.0,1.0,-12253.0,-10128.0,-1197.0,-3782.0,-31.0,1.0,-23.0,30.0,-6.0,6.0,-14.0,-62.0,3.576092481613159
664,-240.0,147.0,153.0,1.0,-12253.0,-10128.0,-1197.0,-3782.0,-11.0,-6.0,-38.0,-24.0,-73.0,60.0,5.0,-22.0,3.5800857543945312
665,-108.0,101.0,92.0,1.0,-12251.0,-10122.0,-1192.0,-3810.0,-11.0,-6.0,-38.0,-24.0,-73.0,60.0,5.0,-22.0,3.5860960483551025
666,-108.0,101.0,92.0,1.0,-12251.0,-10122.0,-1192.0,-3810.0,1.0,-21.0,-8.0,35.0,94.0,21.0,4.0,46.0,3.593665838241577
667,-108.0,101.0,92.0,1.0,-12251.0,-10122.0,-1192.0,-3810.0,7.0,2.0,-13.0,8.0,-70.0,16.0,-31.0,-55.0,3.5975897312164307
668,-23.0,118.0,101.0,1.0,-12240.0,-10125.0,-1194.0,-3836.0,7.0,2.0,-13.0,8.0,-70.0,16.0,-31.0,-55.0,3.607769727706909
669,-23.0,118.0,101.0,1.0,-12240.0,-10125.0,-1194.0,-3836.0,-4.0,-8.0,-57.0,-31.0,-1.0,14.0,12.0,67.0,3.6162803173065186
670,-23.0,118.0,101.0,1.0,-12240.0,-10125.0,-1194.0,-3836.0,0.0,2.0,38.0,-81.0,-50.0,-15.0,3.0,14.0,3.6194565296173096
671,-71.0,151.0,173.0,1.0,-12234.0,-10116.0,-1194.0,-3875.0,0.0,2.0,38.0,-81.0,-50.0,-15.0,3.0,14.0,3.630760431289673
672,-71.0,151.0,173.0,1.0,-12234.0,-10116.0,-1194.0,-3875.0,9.0,-24.0,17.0,28.0,-54.0,-15.0,-3.0,42.0,3.6326773166656494
673,-71.0,151.0,173.0,1.0,-12234.0,-10116.0,-1194.0,-3875.0,-3.0,3.0,-10.0,-11.0,-35.0,-19.0,11.0,-38.0,3.634483814239502
674,-122.0,128.0,204.0,1.0,-12233.0,-10104.0,-1185.0,-3915.0,-3.0,3.0,-10.0,-11.0,-35.0,-19.0,11.0,-38.0,3.6449642181396484
675,-122.0,128.0,204.0,1.0,-12233.0,-10104.0,-1185.0,-3915.0,7.0,5.0,65.0,110.0,42.0,30.0,-7.0,-80.0,3.653245687484741
676,-122.0,128.0,204.0,1.0,-12233.0,-10104.0,-1185.0,-3915.0,27.0,4.0,-13.0,-18.0,4.0,-8.0,-1.0,22.0,3.6550452709198
677,-110.0,165.0,188.0,1.0,-12233.0,-10087.0,-1182.0,-3960.0,27.0,4.0,-13.0,-18.0,4.0,-8.0,-1.0,22.0,3.668294906616211
678,-110.0,165.0,188.0,1.0,-12233.0,-10087.0,-1182.0,-3960.0,8.0,-8.0,38.0,7.0,-35.0,-11.0,33.0,-22.0,3.6701881885528564
679,-110.0,165.0,188.0,1.0,-12233.0,-10087.0,-1182.0,-3960.0,11.0,-40.0,11.0,60.0,78.0,-12.0,-3.0,18.0,3.6748311519622803
680,-5.0,170.0,215.0,1.0,-12220.0,-10085.0,-1187.0,-4002.0,11.0,-40.0,11.0,60.0,78.0,-12.0,-3.0,18.0,3.690645217895508
681,-5.0,170.0,215.0,1.0,-12220.0,-10085.0,-1187.0,-4002.0,28.0,3.0,-37.0,-56.0,-46.0,26.0,26.0,90.0,3.6925740242004395
682,-5.0,170.0,215.0,1.0,-12220.0,-10085.0,-1187.0,-4002.0,44.0,17.0,-34.0,-20.0,-19.0,-35.0,-24.0,-11.0,3.6976945400238037
683,1.0,109.0,223.0,1.0,-12208.0,-10087.0,-1190.0,-4033.0,44.0,17.0,-34.0,-20.0,-19.0,-35.0,-24.0,-11.0,3.7046360969543457
684,1.0,109.0,223.0,1.0,-12208.0,-10087.0,-1190.0,-4033.0,-24.0,-1.0,27.0,-19.0,55.0,-33.0,-15.0,-27.0,3.713390350341797
685,1.0,109.0,223.0,1.0,-12208.0,-10087.0,-1190.0,-4033.0,-11.0,-18.0,-15.0,25.0,-3.0,41.0,26.0,-2.0,3.7151825428009033
686,-40.0,89.0,203.0,1.0,-12198.0,-10088.0,-1191.0,-4059.0,-11.0,-18.0,-15.0,25.0,-3.0,41.0,26.0,-2.0,3.7276413440704346
687,-40.0,89.0,203.0,1.0,-12198.0,-10088.0,-1191.0,-4059.0,30.0,17.0,37.0,-1.0,12.0,-27.0,0.0,43.0,3.7442595958709717
688,-40.0,89.0,203.0,1.0,-12198.0,-10088.0,-1191.0,-4059.0,-18.0,25.0,44.0,54.0,88.0,-15.0,-13.0,-11.0,3.74743914604187
689,-36.0,49.0,164.0,1.0,-12191.0,-10090.0,-1191.0,-4076.0,-18.0,25.0,44.0,54.0,88.0,-15.0,-13.0,-11.0,3.750383138656616
690,-36.0,49.0,164.0,1.0,-12191.0,-10090.0,-1191.0,-4076.0,28.0,8.0,36.0,66.0,19.0,-56.0,-9.0,-3.0,3.7526421546936035
691,-36.0,49.0,164.0,1.0,-12191.0,-10090.0,-1191.0,-4076.0,38.0,0.0,-24.0,20.0,-21.0,-17.0,7.0,5.0,3.7573699951171875
692,0.0,2.0,103.0,1.0,-12185.0,-10094.0,-1186.0,-4085.0,38.0,0.0,-24.0,20.0,-21.0,-17.0,7.0,5.0,3.7659780979156494
693,0.0,2.0,103.0,1.0,-12185.0,-10094.0,-1186.0,-4085.0,-41.0,-14.0,-23.0,9.0,-3.0,3.0,-12.0,-31.0,3.78088116645813
694,0.0,2.0,103.0,1.0,-12185.0,-10094.0,-1186.0,-4085.0,-19.0,0.0,-21.0,-91.0,-33.0,-66.0,-47.0,-14.0,3.7829606533050537
695,70.0,-28.0,53.0,1.0,-12172.0,-10111.0,-1185.0,-4083.0,-19.0,0.0,-21.0,-91.0,-33.0,-66.0,-47.0,-14.0,3.7904884815216064
696,70.0,-28.0,53.0,1.0,-12172.0,-10111.0,-1185.0,-4083.0,30.0,-1.0,-15.0,-52.0,-15.0,4.0,-14.0,38.0,3.794480562210083
697,70.0,-28.0,53.0,1.0,-12172.0,-10111.0,-1185.0,-4083.0,-6.0,-9.0,7.0,65.0,95.0,52.0,17.0,-13.0,3.7962987422943115
698,-30.0,-9.0,33.0,1.0,-12169.0,-10115.0,-1184.0,-4081.0,-6.0,-9.0,7.0,65.0,95.0,52.0,17.0,-13.0,3.811885118484497
699,-30.0,-9.0,33.0,1.0,-12169.0,-10115.0,-1184.0,-4081.0,-8.0,-7.0,-25.0,-17.0,-75.0,33.0,30.0,87.0,3.8161137104034424
