,Gyro 0,Gyro 1,Gyro 2,Label,Orientation 0,Orientation 1,Orientation 2,Orientation 3,Sensor 0,Sensor 1,Sensor 2,Sensor 3,Sensor 4,Sensor 5,Sensor 6,Sensor 7,Timestamp
0,-59.0,11.0,6.0,0.0,1551.0,-5686.0,-9432.0,-12032.0,1.0,-2.0,-4.0,-26.0,-5.0,-3.0,-1.0,-1.0,2.384185791015625e-06
1,-59.0,11.0,6.0,0.0,1551.0,-5686.0,-9432.0,-12032.0,0.0,1.0,4.0,71.0,21.0,3.0,-3.0,-4.0,0.002128124237060547
2,-59.0,11.0,6.0,0.0,1551.0,-5686.0,-9432.0,-12032.0,0.0,2.0,2.0,-14.0,-42.0,-3.0,-8.0,-1.0,0.004857301712036133
3,-270.0,4.0,-91.0,0.0,1509.0,-5667.0,-9410.0,-12064.0,0.0,2.0,2.0,-14.0,-42.0,-3.0,-8.0,-1.0,0.006936073303222656
4,-270.0,4.0,-91.0,0.0,1509.0,-5667.0,-9410.0,-12064.0,-2.0,-1.0,-5.0,24.0,19.0,5.0,4.0,-2.0,0.010688304901123047
5,-592.0,-85.0,-174.0,0.0,1434.0,-5660.0,-9344.0,-12127.0,-2.0,-1.0,-5.0,24.0,19.0,5.0,4.0,-2.0,0.013260126113891602
6,-592.0,-85.0,-174.0,0.0,1434.0,-5660.0,-9344.0,-12127.0,-2.0,0.0,7.0,10.0,0.0,-1.0,3.0,1.0,0.01519918441772461
7,-592.0,-85.0,-174.0,0.0,1434.0,-5660.0,-9344.0,-12127.0,0.0,-2.0,1.0,5.0,10.0,-1.0,-3.0,0.0,0.017110347747802734
8,-590.0,-37.0,-215.0,0.0,1360.0,-5644.0,-9280.0,-12192.0,0.0,-2.0,1.0,5.0,10.0,-1.0,-3.0,0.0,0.019015073776245117
9,-590.0,-37.0,-215.0,0.0,1360.0,-5644.0,-9280.0,-12192.0,-2.0,-1.0,-4.0,-11.0,-9.0,-4.0,3.0,-1.0,0.02126336097717285
10,-590.0,-37.0,-215.0,0.0,1360.0,-5644.0,-9280.0,-12192.0,-3.0,-4.0,-5.0,3.0,5.0,0.0,2.0,-1.0,0.023293018341064453
11,-522.0,-20.0,-162.0,0.0,1300.0,-5633.0,-9222.0,-12247.0,-3.0,-4.0,-5.0,3.0,5.0,0.0,2.0,-1.0,0.02515888214111328
12,-522.0,-20.0,-162.0,0.0,1300.0,-5633.0,-9222.0,-12247.0,0.0,-4.0,-2.0,-8.0,-4.0,-3.0,2.0,-2.0,0.027032136917114258
13,-522.0,-20.0,-162.0,0.0,1300.0,-5633.0,-9222.0,-12247.0,0.0,2.0,3.0,19.0,2.0,2.0,1.0,0.0,0.02886795997619629
14,-359.0,-73.0,-130.0,0.0,1258.0,-5642.0,-9185.0,-12275.0,0.0,2.0,3.0,19.0,2.0,2.0,1.0,0.0,0.030716657638549805
15,-359.0,-73.0,-130.0,0.0,1258.0,-5642.0,-9185.0,-12275.0,0.0,1.0,10.0,-14.0,-7.0,-2.0,-1.0,0.0,0.033017873764038086
16,-359.0,-73.0,-130.0,0.0,1258.0,-5642.0,-9185.0,-12275.0,-1.0,0.0,6.0,-5.0,-3.0,-3.0,-2.0,1.0,0.03509235382080078
17,-121.0,-83.0,-112.0,0.0,1240.0,-5663.0,-9179.0,-12272.0,-1.0,0.0,6.0,-5.0,-3.0,-3.0,-2.0,1.0,0.03705310821533203
18,-121.0,-83.0,-112.0,0.0,1240.0,-5663.0,-9179.0,-12272.0,4.0,10.0,20.0,-8.0,-6.0,-2.0,2.0,1.0,0.03899645805358887
19,-121.0,-83.0,-112.0,0.0,1240.0,-5663.0,-9179.0,-12272.0,-2.0,-6.0,-3.0,-12.0,-2.0,-1.0,2.0,-1.0,0.04084467887878418
20,101.0,68.0,-78.0,0.0,1255.0,-5668.0,-9202.0,-12251.0,-2.0,-6.0,-3.0,-12.0,-2.0,-1.0,2.0,-1.0,0.04265928268432617
21,101.0,68.0,-78.0,0.0,1255.0,-5668.0,-9202.0,-12251.0,-1.0,4.0,-5.0,6.0,-4.0,-3.0,-1.0,0.0,0.044533729553222656
22,101.0,68.0,-78.0,0.0,1255.0,-5668.0,-9202.0,-12251.0,-1.0,1.0,-2.0,-105.0,-1.0,-1.0,-3.0,-1.0,0.046343088150024414
23,99.0,132.0,-63.0,0.0,1274.0,-5663.0,-9228.0,-12232.0,-1.0,1.0,-2.0,-105.0,-1.0,-1.0,-3.0,-1.0,0.048384904861450195
24,99.0,132.0,-63.0,0.0,1274.0,-5663.0,-9228.0,-12232.0,-1.0,-4.0,-2.0,6.0,4.0,0.0,0.0,-1.0,0.050417184829711914
25,99.0,132.0,-63.0,0.0,1274.0,-5663.0,-9228.0,-12232.0,0.0,2.0,-2.0,29.0,0.0,-1.0,-2.0,-3.0,0.05258822441101074
26,254.0,218.0,-96.0,0.0,1302.0,-5638.0,-9283.0,-12198.0,0.0,2.0,-2.0,29.0,0.0,-1.0,-2.0,-3.0,0.05467867851257324
27,254.0,218.0,-96.0,0.0,1302.0,-5638.0,-9283.0,-12198.0,-2.0,-2.0,-6.0,-19.0,-1.0,-1.0,0.0,-2.0,0.056632280349731445
28,254.0,218.0,-96.0,0.0,1302.0,-5638.0,-9283.0,-12198.0,1.0,1.0,7.0,33.0,12.0,1.0,0.0,0.0,0.05841994285583496
29,354.0,186.0,-165.0,0.0,1316.0,-5601.0,-9360.0,-12155.0,1.0,1.0,7.0,33.0,12.0,1.0,0.0,0.0,0.06025195121765137
30,354.0,186.0,-165.0,0.0,1316.0,-5601.0,-9360.0,-12155.0,0.0,-4.0,-8.0,-6.0,-15.0,-5.0,-2.0,-1.0,0.06209230422973633
31,354.0,186.0,-165.0,0.0,1316.0,-5601.0,-9360.0,-12155.0,-1.0,-2.0,-1.0,0.0,-1.0,-1.0,0.0,-1.0,0.06389474868774414
32,383.0,148.0,-244.0,0.0,1312.0,-5553.0,-9445.0,-12112.0,-1.0,-2.0,-1.0,0.0,-1.0,-1.0,0.0,-1.0,0.06563949584960938
33,383.0,148.0,-244.0,0.0,1312.0,-5553.0,-9445.0,-12112.0,0.0,-1.0,-5.0,-7.0,0.0,3.0,0.0,-2.0,0.06755280494689941
34,383.0,148.0,-244.0,0.0,1312.0,-5553.0,-9445.0,-12112.0,-1.0,-1.0,-3.0,13.0,0.0,-2.0,1.0,1.0,0.06933784484863281
35,336.0,97.0,-252.0,0.0,1298.0,-5505.0,-9519.0,-12077.0,-1.0,-1.0,-3.0,13.0,0.0,-2.0,1.0,1.0,0.07118749618530273
36,336.0,97.0,-252.0,0.0,1298.0,-5505.0,-9519.0,-12077.0,-4.0,-6.0,-13.0,3.0,-2.0,-1.0,-1.0,-1.0,0.07483768463134766
37,336.0,97.0,-252.0,0.0,1298.0,-5505.0,-9519.0,-12077.0,5.0,3.0,7.0,13.0,-3.0,0.0,1.0,2.0,0.07715177536010742
38,295.0,86.0,-217.0,0.0,1283.0,-5456.0,-9579.0,-12054.0,5.0,3.0,7.0,13.0,-3.0,0.0,1.0,2.0,0.07894635200500488
39,295.0,86.0,-217.0,0.0,1283.0,-5456.0,-9579.0,-12054.0,-2.0,-6.0,-2.0,-5.0,-2.0,1.0,2.0,-1.0,0.08096194267272949
40,295.0,86.0,-217.0,0.0,1283.0,-5456.0,-9579.0,-12054.0,-4.0,-4.0,-2.0,8.0,-3.0,1.0,0.0,-4.0,0.08372831344604492
41,269.0,112.0,-167.0,0.0,1278.0,-5409.0,-9628.0,-12037.0,-4.0,-4.0,-2.0,8.0,-3.0,1.0,0.0,-4.0,0.08582305908203125
42,269.0,112.0,-167.0,0.0,1278.0,-5409.0,-9628.0,-12037.0,-1.0,-3.0,-10.0,-8.0,1.0,-4.0,-1.0,0.0,0.08777332305908203
43,269.0,112.0,-167.0,0.0,1278.0,-5409.0,-9628.0,-12037.0,0.0,3.0,16.0,3.0,-1.0,3.0,-1.0,2.0,0.08961200714111328
44,260.0,153.0,-132.0,0.0,1282.0,-5360.0,-9670.0,-12024.0,0.0,3.0,16.0,3.0,-1.0,3.0,-1.0,2.0,0.0915229320526123
45,260.0,153.0,-132.0,0.0,1282.0,-5360.0,-9670.0,-12024.0,0.0,1.0,0.0,7.0,0.0,-14.0,-1.0,0.0,0.09340023994445801
46,260.0,153.0,-132.0,0.0,1282.0,-5360.0,-9670.0,-12024.0,-5.0,-4.0,-9.0,-6.0,-2.0,5.0,0.0,-3.0,0.09552669525146484
47,228.0,140.0,-61.0,0.0,1293.0,-5325.0,-9709.0,-12008.0,-5.0,-4.0,-9.0,-6.0,-2.0,5.0,0.0,-3.0,0.09763121604919434
48,228.0,140.0,-61.0,0.0,1293.0,-5325.0,-9709.0,-12008.0,5.0,4.0,0.0,4.0,1.0,-1.0,-2.0,1.0,0.0997629165649414
49,228.0,140.0,-61.0,0.0,1293.0,-5325.0,-9709.0,-12008.0,0.0,-1.0,-8.0,-10.0,-6.0,-4.0,-3.0,-2.0,0.10159516334533691
50,149.0,21.0,-23.0,0.0,1294.0,-5311.0,-9733.0,-11994.0,0.0,-1.0,-8.0,-10.0,-6.0,-4.0,-3.0,-2.0,0.10356712341308594
51,149.0,21.0,-23.0,0.0,1294.0,-5311.0,-9733.0,-11994.0,-6.0,-5.0,-3.0,0.0,2.0,6.0,-3.0,-6.0,0.10546159744262695
52,149.0,21.0,-23.0,0.0,1294.0,-5311.0,-9733.0,-11994.0,0.0,0.0,-4.0,4.0,0.0,-2.0,2.0,1.0,0.10728120803833008
53,87.0,-70.0,13.0,0.0,1291.0,-5320.0,-9749.0,-11977.0,0.0,0.0,-4.0,4.0,0.0,-2.0,2.0,1.0,0.1090843677520752
54,87.0,-70.0,13.0,0.0,1291.0,-5320.0,-9749.0,-11977.0,2.0,7.0,5.0,0.0,-3.0,15.0,7.0,5.0,0.11104893684387207
55,87.0,-70.0,13.0,0.0,1291.0,-5320.0,-9749.0,-11977.0,2.0,7.0,15.0,11.0,-1.0,-27.0,-7.0,-4.0,0.11394119262695312
56,4.0,-102.0,53.0,0.0,1287.0,-5342.0,-9753.0,-11964.0,2.0,7.0,15.0,11.0,-1.0,-27.0,-7.0,-4.0,0.11605381965637207
57,4.0,-102.0,53.0,0.0,1287.0,-5342.0,-9753.0,-11964.0,3.0,12.0,25.0,10.0,0.0,1.0,-1.0,2.0,0.11802458763122559
58,4.0,-102.0,53.0,0.0,1287.0,-5342.0,-9753.0,-11964.0,-3.0,-5.0,-11.0,-3.0,-1.0,4.0,0.0,0.0,0.12026619911193848
59,-33.0,-75.0,127.0,0.0,1294.0,-5370.0,-9750.0,-11953.0,-3.0,-5.0,-11.0,-3.0,-1.0,4.0,0.0,0.0,0.12239384651184082
60,-33.0,-75.0,127.0,0.0,1294.0,-5370.0,-9750.0,-11953.0,-2.0,-5.0,-2.0,3.0,1.0,2.0,0.0,-1.0,0.12436270713806152
61,-33.0,-75.0,127.0,0.0,1294.0,-5370.0,-9750.0,-11953.0,0.0,-1.0,-6.0,-2.0,-1.0,-1.0,-2.0,-1.0,0.12616276741027832
62,-106.0,-135.0,188.0,0.0,1298.0,-5414.0,-9733.0,-11947.0,0.0,-1.0,-6.0,-2.0,-1.0,-1.0,-2.0,-1.0,0.1279759407043457
63,-106.0,-135.0,188.0,0.0,1298.0,-5414.0,-9733.0,-11947.0,-2.0,-2.0,-8.0,-5.0,1.0,1.0,-3.0,1.0,0.12992334365844727
64,-106.0,-135.0,188.0,0.0,1298.0,-5414.0,-9733.0,-11947.0,0.0,0.0,-10.0,-5.0,1.0,-2.0,-1.0,0.0,0.1317434310913086
65,-121.0,-108.0,215.0,0.0,1310.0,-5459.0,-9712.0,-11943.0,0.0,0.0,-10.0,-5.0,1.0,-2.0,-1.0,0.0,0.1335132122039795
66,-121.0,-108.0,215.0,0.0,1310.0,-5459.0,-9712.0,-11943.0,-3.0,-1.0,4.0,-5.0,3.0,-10.0,-4.0,-4.0,0.13537311553955078
67,-121.0,-108.0,215.0,0.0,1310.0,-5459.0,-9712.0,-11943.0,0.0,-2.0,-1.0,1.0,1.0,5.0,1.0,1.0,0.13716959953308105
68,-107.0,-61.0,215.0,0.0,1327.0,-5495.0,-9688.0,-11943.0,0.0,-2.0,-1.0,1.0,1.0,5.0,1.0,1.0,0.13895773887634277
69,-107.0,-61.0,215.0,0.0,1327.0,-5495.0,-9688.0,-11943.0,1.0,-4.0,-4.0,-3.0,-3.0,-2.0,-1.0,-1.0,0.14086627960205078
70,-107.0,-61.0,215.0,0.0,1327.0,-5495.0,-9688.0,-11943.0,1.0,-4.0,-7.0,0.0,0.0,4.0,0.0,-1.0,0.14269495010375977
71,7.0,-59.0,191.0,0.0,1346.0,-5525.0,-9681.0,-11933.0,1.0,-4.0,-7.0,0.0,0.0,4.0,0.0,-1.0,0.1448228359222412
72,7.0,-59.0,191.0,0.0,1346.0,-5525.0,-9681.0,-11933.0,3.0,2.0,-5.0,-6.0,-1.0,-3.0,-1.0,2.0,0.1469275951385498
73,7.0,-59.0,191.0,0.0,1346.0,-5525.0,-9681.0,-11933.0,-3.0,-3.0,1.0,-1.0,-5.0,0.0,-3.0,-1.0,0.1487870216369629
74,109.0,-44.0,147.0,0.0,1364.0,-5543.0,-9690.0,-11915.0,-3.0,-3.0,1.0,-1.0,-5.0,0.0,-3.0,-1.0,0.15061378479003906
75,109.0,-44.0,147.0,0.0,1364.0,-5543.0,-9690.0,-11915.0,-4.0,-7.0,-5.0,9.0,1.0,2.0,-2.0,-3.0,0.1525869369506836
76,109.0,-44.0,147.0,0.0,1364.0,-5543.0,-9690.0,-11915.0,2.0,2.0,-1.0,-5.0,-4.0,0.0,-1.0,-1.0,0.15441107749938965
77,115.0,-14.0,133.0,0.0,1381.0,-5553.0,-9702.0,-11899.0,2.0,2.0,-1.0,-5.0,-4.0,0.0,-1.0,-1.0,0.1562345027923584
78,115.0,-14.0,133.0,0.0,1381.0,-5553.0,-9702.0,-11899.0,-2.0,-1.0,-3.0,-3.0,-1.0,-1.0,0.0,-1.0,0.15828800201416016
79,115.0,-14.0,133.0,0.0,1381.0,-5553.0,-9702.0,-11899.0,-5.0,-4.0,-8.0,2.0,0.0,0.0,-1.0,-1.0,0.16039299964904785
80,85.0,21.0,112.0,0.0,1396.0,-5554.0,-9709.0,-11891.0,-5.0,-4.0,-8.0,2.0,0.0,0.0,-1.0,-1.0,0.1623992919921875
81,85.0,21.0,112.0,0.0,1396.0,-5554.0,-9709.0,-11891.0,1.0,2.0,10.0,4.0,0.0,2.0,-1.0,-1.0,0.16434931755065918
82,85.0,21.0,112.0,0.0,1396.0,-5554.0,-9709.0,-11891.0,1.0,-4.0,4.0,-3.0,0.0,3.0,2.0,1.0,0.16616463661193848
83,65.0,26.0,95.0,0.0,1410.0,-5553.0,-9713.0,-11887.0,1.0,-4.0,4.0,-3.0,0.0,3.0,2.0,1.0,0.1679835319519043
84,65.0,26.0,95.0,0.0,1410.0,-5553.0,-9713.0,-11887.0,-2.0,-1.0,-3.0,-3.0,-2.0,-4.0,-3.0,-3.0,0.16984224319458008
85,65.0,26.0,95.0,0.0,1410.0,-5553.0,-9713.0,-11887.0,-2.0,-2.0,1.0,0.0,0.0,2.0,0.0,0.0,0.171644926071167
86,89.0,47.0,98.0,0.0,1428.0,-5551.0,-9721.0,-11879.0,-2.0,-2.0,1.0,0.0,0.0,2.0,0.0,0.0,0.17343497276306152
87,89.0,47.0,98.0,0.0,1428.0,-5551.0,-9721.0,-11879.0,-2.0,-10.0,-5.0,12.0,-1.0,-4.0,0.0,-3.0,0.17560863494873047
88,89.0,47.0,98.0,0.0,1428.0,-5551.0,-9721.0,-11879.0,-1.0,-6.0,-8.0,-32.0,0.0,-1.0,-1.0,0.0,0.17766189575195312
89,82.0,41.0,109.0,0.0,1448.0,-5553.0,-9726.0,-11872.0,-1.0,-6.0,-8.0,-32.0,0.0,-1.0,-1.0,0.0,0.17950844764709473
90,82.0,41.0,109.0,0.0,1448.0,-5553.0,-9726.0,-11872.0,1.0,-5.0,-7.0,-11.0,-1.0,0.0,-2.0,0.0,0.18222403526306152
91,82.0,41.0,109.0,0.0,1448.0,-5553.0,-9726.0,-11872.0,-1.0,-2.0,-10.0,10.0,-5.0,-6.0,-2.0,-3.0,0.18535494804382324
92,35.0,51.0,150.0,0.0,1472.0,-5560.0,-9724.0,-11867.0,-1.0,-2.0,-10.0,10.0,-5.0,-6.0,-2.0,-3.0,0.1872086524963379
93,35.0,51.0,150.0,0.0,1472.0,-5560.0,-9724.0,-11867.0,-1.0,0.0,-9.0,-9.0,1.0,1.0,1.0,-1.0,0.18909454345703125
94,35.0,51.0,150.0,0.0,1472.0,-5560.0,-9724.0,-11867.0,0.0,2.0,1.0,6.0,3.0,-1.0,0.0,-1.0,0.1909008026123047
95,-46.0,49.0,157.0,0.0,1496.0,-5574.0,-9709.0,-11870.0,0.0,2.0,1.0,6.0,3.0,-1.0,0.0,-1.0,0.19269633293151855
96,-46.0,49.0,157.0,0.0,1496.0,-5574.0,-9709.0,-11870.0,-2.0,-1.0,-1.0,3.0,-12.0,-5.0,-1.0,-1.0,0.1945648193359375
97,-46.0,49.0,157.0,0.0,1496.0,-5574.0,-9709.0,-11870.0,-1.0,-2.0,-3.0,1.0,-1.0,-1.0,-2.0,-1.0,0.19636249542236328
98,-85.0,19.0,145.0,0.0,1518.0,-5593.0,-9684.0,-11878.0,-1.0,-2.0,-3.0,1.0,-1.0,-1.0,-2.0,-1.0,0.1981525421142578
99,-85.0,19.0,145.0,0.0,1518.0,-5593.0,-9684.0,-11878.0,-2.0,2.0,0.0,-1.0,11.0,3.0,-1.0,1.0,0.20002412796020508
100,-85.0,19.0,145.0,0.0,1518.0,-5593.0,-9684.0,-11878.0,-1.0,1.0,6.0,10.0,0.0,0.0,0.0,-2.0,0.20181941986083984
101,-62.0,-4.0,83.0,0.0,1534.0,-5611.0,-9665.0,-11883.0,-1.0,1.0,6.0,10.0,0.0,0.0,0.0,-2.0,0.20369267463684082
102,-62.0,-4.0,83.0,0.0,1534.0,-5611.0,-9665.0,-11883.0,0.0,0.0,2.0,-1.0,-4.0,-2.0,-2.0,0.0,0.20586347579956055
103,-62.0,-4.0,83.0,0.0,1534.0,-5611.0,-9665.0,-11883.0,0.0,1.0,6.0,21.0,1.0,0.0,0.0,0.0,0.20793461799621582
104,-41.0,-20.0,34.0,0.0,1541.0,-5622.0,-9651.0,-11889.0,0.0,1.0,6.0,21.0,1.0,0.0,0.0,0.0,0.20994162559509277
105,-41.0,-20.0,34.0,0.0,1541.0,-5622.0,-9651.0,-11889.0,0.0,1.0,-4.0,-8.0,0.0,-2.0,-1.0,-2.0,0.2118830680847168
106,-41.0,-20.0,34.0,0.0,1541.0,-5622.0,-9651.0,-11889.0,-2.0,-3.0,0.0,-1.0,-1.0,1.0,0.0,0.0,0.21370172500610352
107,-43.0,-23.0,37.0,0.0,1545.0,-5631.0,-9639.0,-11894.0,-2.0,-3.0,0.0,-1.0,-1.0,1.0,0.0,0.0,0.21550655364990234
108,-43.0,-23.0,37.0,0.0,1545.0,-5631.0,-9639.0,-11894.0,2.0,3.0,2.0,-6.0,-1.0,-3.0,1.0,2.0,0.21735477447509766
109,-43.0,-23.0,37.0,0.0,1545.0,-5631.0,-9639.0,-11894.0,1.0,2.0,-1.0,-4.0,-4.0,-4.0,0.0,0.0,0.2191176414489746
110,-75.0,-15.0,60.0,0.0,1547.0,-5641.0,-9624.0,-11900.0,1.0,2.0,-1.0,-4.0,-4.0,-4.0,0.0,0.0,0.22098183631896973
111,-75.0,-15.0,60.0,0.0,1547.0,-5641.0,-9624.0,-11900.0,-2.0,0.0,5.0,9.0,0.0,1.0,1.0,0.0,0.2232065200805664
112,-75.0,-15.0,60.0,0.0,1547.0,-5641.0,-9624.0,-11900.0,-1.0,-6.0,-8.0,-6.0,-1.0,-2.0,-2.0,-3.0,0.22526240348815918
113,-143.0,-2.0,91.0,0.0,1551.0,-5653.0,-9599.0,-11914.0,-1.0,-6.0,-8.0,-6.0,-1.0,-2.0,-2.0,-3.0,0.2272014617919922
114,-143.0,-2.0,91.0,0.0,1551.0,-5653.0,-9599.0,-11914.0,-2.0,-4.0,-1.0,1.0,1.0,-2.0,-1.0,-1.0,0.22919607162475586
115,-143.0,-2.0,91.0,0.0,1551.0,-5653.0,-9599.0,-11914.0,-1.0,-1.0,1.0,-1.0,-1.0,-1.0,-1.0,-2.0,0.2317357063293457
116,-125.0,24.0,96.0,0.0,1558.0,-5664.0,-9578.0,-11925.0,-1.0,-1.0,1.0,-1.0,-1.0,-1.0,-1.0,-2.0,0.23384380340576172
117,-125.0,24.0,96.0,0.0,1558.0,-5664.0,-9578.0,-11925.0,1.0,1.0,0.0,4.0,-4.0,0.0,-1.0,-1.0,0.23590683937072754
118,-125.0,24.0,96.0,0.0,1558.0,-5664.0,-9578.0,-11925.0,-3.0,-4.0,-8.0,-5.0,0.0,1.0,-1.0,-1.0,0.23882198333740234
119,-93.0,26.0,84.0,0.0,1565.0,-5671.0,-9564.0,-11932.0,-3.0,-4.0,-8.0,-5.0,0.0,1.0,-1.0,-1.0,0.24074363708496094
120,-93.0,26.0,84.0,0.0,1565.0,-5671.0,-9564.0,-11932.0,0.0,2.0,-3.0,-5.0,2.0,-1.0,2.0,1.0,0.24265837669372559
121,-93.0,26.0,84.0,0.0,1565.0,-5671.0,-9564.0,-11932.0,-1.0,3.0,3.0,-2.0,-2.0,-12.0,-6.0,-3.0,0.24472498893737793
122,-39.0,30.0,54.0,0.0,1572.0,-5674.0,-9557.0,-11936.0,-1.0,3.0,3.0,-2.0,-2.0,-12.0,-6.0,-3.0,0.2469789981842041
123,-39.0,30.0,54.0,0.0,1572.0,-5674.0,-9557.0,-11936.0,0.0,-4.0,-3.0,-2.0,-2.0,-1.0,-2.0,-2.0,0.24918699264526367
124,-39.0,30.0,54.0,0.0,1572.0,-5674.0,-9557.0,-11936.0,-2.0,0.0,0.0,1.0,1.0,5.0,2.0,1.0,0.25102972984313965
125,1.0,15.0,32.0,0.0,1576.0,-5676.0,-9558.0,-11934.0,-2.0,0.0,0.0,1.0,1.0,5.0,2.0,1.0,0.2528958320617676
126,1.0,15.0,32.0,0.0,1576.0,-5676.0,-9558.0,-11934.0,0.0,0.0,2.0,-1.0,-1.0,-2.0,0.0,0.0,0.25484395027160645
127,1.0,15.0,32.0,0.0,1576.0,-5676.0,-9558.0,-11934.0,-1.0,1.0,2.0,-1.0,-2.0,0.0,-1.0,0.0,0.2567722797393799
128,-3.0,8.0,12.0,0.0,1576.0,-5675.0,-9558.0,-11934.0,-1.0,1.0,2.0,-1.0,-2.0,0.0,-1.0,0.0,0.25856637954711914
129,-3.0,8.0,12.0,0.0,1576.0,-5675.0,-9558.0,-11934.0,-2.0,1.0,13.0,0.0,-2.0,2.0,-2.0,-1.0,0.2609419822692871
130,-3.0,8.0,12.0,0.0,1576.0,-5675.0,-9558.0,-11934.0,0.0,1.0,-2.0,1.0,0.0,1.0,-1.0,0.0,0.262859582901001
131,19.0,3.0,2.0,0.0,1575.0,-5672.0,-9562.0,-11933.0,0.0,1.0,-2.0,1.0,0.0,1.0,-1.0,0.0,0.2646975517272949
132,19.0,3.0,2.0,0.0,1575.0,-5672.0,-9562.0,-11933.0,-2.0,-1.0,-10.0,-11.0,-1.0,1.0,-1.0,-2.0,0.26665759086608887
133,19.0,3.0,2.0,0.0,1575.0,-5672.0,-9562.0,-11933.0,2.0,2.0,5.0,3.0,-1.0,1.0,0.0,2.0,0.2694675922393799
134,34.0,-14.0,0.0,0.0,1571.0,-5669.0,-9569.0,-11929.0,2.0,2.0,5.0,3.0,-1.0,1.0,0.0,2.0,0.2716195583343506
135,34.0,-14.0,0.0,0.0,1571.0,-5669.0,-9569.0,-11929.0,0.0,-1.0,-1.0,1.0,-1.0,-3.0,-2.0,-1.0,0.27349162101745605
136,34.0,-14.0,0.0,0.0,1571.0,-5669.0,-9569.0,-11929.0,0.0,1.0,-1.0,1.0,0.0,0.0,1.0,-3.0,0.27526426315307617
137,40.0,-40.0,10.0,0.0,1566.0,-5670.0,-9576.0,-11923.0,0.0,1.0,-1.0,1.0,0.0,0.0,1.0,-3.0,0.27704930305480957
138,40.0,-40.0,10.0,0.0,1566.0,-5670.0,-9576.0,-11923.0,-1.0,-3.0,-2.0,5.0,2.0,-2.0,-2.0,-2.0,0.2788820266723633
139,40.0,-40.0,10.0,0.0,1566.0,-5670.0,-9576.0,-11923.0,-1.0,0.0,-3.0,-5.0,0.0,0.0,-1.0,-1.0,0.2807469367980957
140,6.0,-67.0,37.0,0.0,1559.0,-5678.0,-9580.0,-11917.0,-1.0,0.0,-3.0,-5.0,0.0,0.0,-1.0,-1.0,0.2825334072113037
141,6.0,-67.0,37.0,0.0,1559.0,-5678.0,-9580.0,-11917.0,0.0,-1.0,-4.0,-4.0,-1.0,0.0,-1.0,0.0,0.2846095561981201
142,6.0,-67.0,37.0,0.0,1559.0,-5678.0,-9580.0,-11917.0,0.0,-1.0,-9.0,-19.0,-2.0,0.0,0.0,-2.0,0.2867610454559326
143,-29.0,-95.0,53.0,0.0,1550.0,-5694.0,-9578.0,-11912.0,0.0,-1.0,-9.0,-19.0,-2.0,0.0,0.0,-2.0,0.2888603210449219
144,-29.0,-95.0,53.0,0.0,1550.0,-5694.0,-9578.0,-11912.0,-3.0,0.0,0.0,-2.0,0.0,1.0,-1.0,1.0,0.29075098037719727
145,-29.0,-95.0,53.0,0.0,1550.0,-5694.0,-9578.0,-11912.0,1.0,1.0,11.0,7.0,-2.0,1.0,0.0,-1.0,0.2926185131072998
146,-41.0,-113.0,98.0,0.0,1546.0,-5718.0,-9572.0,-11907.0,1.0,1.0,11.0,7.0,-2.0,1.0,0.0,-1.0,0.29442477226257324
147,-41.0,-113.0,98.0,0.0,1546.0,-5718.0,-9572.0,-11907.0,1.0,-2.0,5.0,-3.0,-2.0,0.0,1.0,1.0,0.29634952545166016
148,-41.0,-113.0,98.0,0.0,1546.0,-5718.0,-9572.0,-11907.0,-2.0,0.0,-5.0,-4.0,-1.0,0.0,0.0,-1.0,0.2990245819091797
149,-13.0,-111.0,124.0,0.0,1547.0,-5743.0,-9567.0,-11898.0,-2.0,0.0,-5.0,-4.0,-1.0,0.0,0.0,-1.0,0.30117201805114746
150,-13.0,-111.0,124.0,0.0,1547.0,-5743.0,-9567.0,-11898.0,-1.0,-2.0,-4.0,0.0,0.0,-1.0,-1.0,-4.0,0.3032567501068115
151,-13.0,-111.0,124.0,0.0,1547.0,-5743.0,-9567.0,-11898.0,-1.0,5.0,5.0,4.0,0.0,-2.0,-1.0,0.0,0.3050825595855713
152,-13.0,-107.0,136.0,0.0,1550.0,-5771.0,-9562.0,-11888.0,-1.0,5.0,5.0,4.0,0.0,-2.0,-1.0,0.0,0.30687427520751953
153,-13.0,-107.0,136.0,0.0,1550.0,-5771.0,-9562.0,-11888.0,-3.0,-3.0,-2.0,0.0,0.0,-1.0,-1.0,-2.0,0.31012582778930664
154,-13.0,-107.0,136.0,0.0,1550.0,-5771.0,-9562.0,-11888.0,-1.0,-3.0,-1.0,-1.0,-3.0,0.0,0.0,0.0,0.3127262592315674
155,-5.0,-106.0,128.0,0.0,1555.0,-5800.0,-9558.0,-11877.0,-1.0,-3.0,-1.0,-1.0,-3.0,0.0,0.0,0.0,0.31453371047973633
156,-5.0,-106.0,128.0,0.0,1555.0,-5800.0,-9558.0,-11877.0,0.0,-3.0,-1.0,-4.0,-2.0,-6.0,-2.0,-1.0,0.31641721725463867
157,-5.0,-106.0,128.0,0.0,1555.0,-5800.0,-9558.0,-11877.0,1.0,3.0,2.0,0.0,0.0,0.0,-1.0,0.0,0.3182203769683838
158,51.0,-113.0,117.0,0.0,1561.0,-5827.0,-9561.0,-11859.0,1.0,3.0,2.0,0.0,0.0,0.0,-1.0,0.0,0.32002711296081543
159,51.0,-113.0,117.0,0.0,1561.0,-5827.0,-9561.0,-11859.0,1.0,3.0,7.0,12.0,0.0,3.0,0.0,0.0,0.3219010829925537
160,51.0,-113.0,117.0,0.0,1561.0,-5827.0,-9561.0,-11859.0,-2.0,-3.0,0.0,7.0,1.0,-2.0,-2.0,-1.0,0.3237757682800293
161,62.0,-94.0,91.0,0.0,1567.0,-5850.0,-9568.0,-11842.0,-2.0,-3.0,0.0,7.0,1.0,-2.0,-2.0,-1.0,0.32555198669433594
162,62.0,-94.0,91.0,0.0,1567.0,-5850.0,-9568.0,-11842.0,-1.0,2.0,0.0,1.0,1.0,3.0,0.0,-2.0,0.3274078369140625
163,62.0,-94.0,91.0,0.0,1567.0,-5850.0,-9568.0,-11842.0,-1.0,-2.0,-1.0,0.0,-1.0,1.0,-2.0,-2.0,0.32953834533691406
164,26.0,-78.0,77.0,0.0,1569.0,-5868.0,-9572.0,-11830.0,-1.0,-2.0,-1.0,0.0,-1.0,1.0,-2.0,-2.0,0.3316316604614258
165,26.0,-78.0,77.0,0.0,1569.0,-5868.0,-9572.0,-11830.0,0.0,0.0,-2.0,-5.0,-2.0,-3.0,-1.0,0.0,0.333723783493042
166,26.0,-78.0,77.0,0.0,1569.0,-5868.0,-9572.0,-11830.0,-1.0,-2.0,0.0,-1.0,1.0,2.0,-1.0,-1.0,0.3356189727783203
167,28.0,-77.0,63.0,0.0,1571.0,-5885.0,-9574.0,-11819.0,-1.0,-2.0,0.0,-1.0,1.0,2.0,-1.0,-1.0,0.3374049663543701
168,28.0,-77.0,63.0,0.0,1571.0,-5885.0,-9574.0,-11819.0,-2.0,1.0,-4.0,-12.0,-1.0,1.0,1.0,-1.0,0.3392608165740967
169,28.0,-77.0,63.0,0.0,1571.0,-5885.0,-9574.0,-11819.0,-2.0,-4.0,1.0,2.0,0.0,-4.0,-2.0,0.0,0.3410677909851074
170,28.0,-74.0,64.0,0.0,1574.0,-5900.0,-9574.0,-11811.0,-2.0,-4.0,1.0,2.0,0.0,-4.0,-2.0,0.0,0.34284090995788574
171,28.0,-74.0,64.0,0.0,1574.0,-5900.0,-9574.0,-11811.0,-2.0,-3.0,-3.0,1.0,-1.0,1.0,0.0,0.0,0.34473729133605957
172,28.0,-74.0,64.0,0.0,1574.0,-5900.0,-9574.0,-11811.0,-1.0,0.0,5.0,4.0,1.0,-2.0,2.0,0.0,0.34653711318969727
173,-14.0,-76.0,68.0,0.0,1573.0,-5914.0,-9566.0,-11811.0,-1.0,0.0,5.0,4.0,1.0,-2.0,2.0,0.0,0.34960269927978516
174,-14.0,-76.0,68.0,0.0,1573.0,-5914.0,-9566.0,-11811.0,-1.0,0.0,1.0,3.0,-3.0,-2.0,-1.0,-2.0,0.35241055488586426
175,-14.0,-76.0,68.0,0.0,1573.0,-5914.0,-9566.0,-11811.0,5.0,6.0,3.0,0.0,-2.0,2.0,0.0,2.0,0.3542490005493164
176,14.0,-81.0,87.0,0.0,1578.0,-5931.0,-9558.0,-11809.0,5.0,6.0,3.0,0.0,-2.0,2.0,0.0,2.0,0.3560669422149658
177,14.0,-81.0,87.0,0.0,1578.0,-5931.0,-9558.0,-11809.0,-2.0,-4.0,-5.0,3.0,-1.0,-7.0,-1.0,0.0,0.3579432964324951
178,14.0,-81.0,87.0,0.0,1578.0,-5931.0,-9558.0,-11809.0,-3.0,-2.0,-6.0,-8.0,-3.0,-1.0,-2.0,-1.0,0.3600187301635742
179,72.0,-80.0,118.0,0.0,1589.0,-5949.0,-9560.0,-11796.0,-3.0,-2.0,-6.0,-8.0,-3.0,-1.0,-2.0,-1.0,0.362105131149292
180,72.0,-80.0,118.0,0.0,1589.0,-5949.0,-9560.0,-11796.0,3.0,8.0,3.0,-2.0,-2.0,2.0,3.0,10.0,0.36406588554382324
181,72.0,-80.0,118.0,0.0,1589.0,-5949.0,-9560.0,-11796.0,-4.0,-2.0,-3.0,-3.0,-2.0,-7.0,-3.0,-7.0,0.36585116386413574
182,123.0,-67.0,241.0,0.0,1771.0,-6222.0,-9601.0,-11595.0,-4.0,-2.0,-3.0,-3.0,-2.0,-7.0,-3.0,-7.0,0.3676619529724121
183,123.0,-67.0,241.0,0.0,1771.0,-6222.0,-9601.0,-11595.0,-6.0,-8.0,-1.0,0.0,0.0,1.0,-1.0,-7.0,0.3695516586303711
184,123.0,-67.0,241.0,0.0,1771.0,-6222.0,-9601.0,-11595.0,-1.0,-4.0,-2.0,-3.0,-1.0,3.0,1.0,4.0,0.3725757598876953
185,178.0,-38.0,239.0,0.0,1816.0,-6257.0,-9609.0,-11562.0,-1.0,-4.0,-2.0,-3.0,-1.0,3.0,1.0,4.0,0.3787822723388672
186,178.0,-38.0,239.0,0.0,1816.0,-6257.0,-9609.0,-11562.0,0.0,-4.0,-9.0,2.0,-2.0,-2.0,-2.0,0.0,0.3806953430175781
187,178.0,-38.0,239.0,0.0,1816.0,-6257.0,-9609.0,-11562.0,1.0,-3.0,-6.0,-2.0,0.0,0.0,0.0,-3.0,0.3824491500854492
188,192.0,13.0,238.0,0.0,1867.0,-6286.0,-9616.0,-11532.0,1.0,-3.0,-6.0,-2.0,0.0,0.0,0.0,-3.0,0.39328432083129883
189,192.0,13.0,238.0,0.0,1867.0,-6286.0,-9616.0,-11532.0,-1.0,-4.0,-2.0,-2.0,0.0,0.0,-1.0,-5.0,0.39655256271362305
190,192.0,13.0,238.0,0.0,1867.0,-6286.0,-9616.0,-11532.0,-2.0,2.0,2.0,2.0,0.0,0.0,0.0,1.0,0.4169914722442627
191,210.0,22.0,240.0,0.0,1921.0,-6315.0,-9627.0,-11498.0,-2.0,2.0,2.0,2.0,0.0,0.0,0.0,1.0,0.41999173164367676
192,210.0,22.0,240.0,0.0,1921.0,-6315.0,-9627.0,-11498.0,-3.0,-5.0,-2.0,-1.0,-2.0,0.0,0.0,-3.0,0.42325639724731445
193,210.0,22.0,240.0,0.0,1921.0,-6315.0,-9627.0,-11498.0,3.0,-2.0,-7.0,-3.0,1.0,-2.0,-1.0,6.0,0.42626142501831055
194,218.0,16.0,225.0,0.0,1972.0,-6341.0,-9640.0,-11464.0,3.0,-2.0,-7.0,-3.0,1.0,-2.0,-1.0,6.0,0.44625353813171387
195,218.0,16.0,225.0,0.0,1972.0,-6341.0,-9640.0,-11464.0,3.0,2.0,0.0,-1.0,0.0,4.0,-2.0,-1.0,0.44873571395874023
196,218.0,16.0,225.0,0.0,1972.0,-6341.0,-9640.0,-11464.0,-5.0,-6.0,-3.0,-2.0,-1.0,-5.0,-3.0,-4.0,0.452556848526001
197,271.0,16.0,214.0,0.0,2024.0,-6363.0,-9660.0,-11427.0,-5.0,-6.0,-3.0,-2.0,-1.0,-5.0,-3.0,-4.0,0.46393275260925293
198,271.0,16.0,214.0,0.0,2024.0,-6363.0,-9660.0,-11427.0,0.0,0.0,3.0,2.0,0.0,1.0,0.0,-2.0,0.46723294258117676
199,271.0,16.0,214.0,0.0,2024.0,-6363.0,-9660.0,-11427.0,-2.0,-1.0,-1.0,-4.0,-1.0,1.0,-1.0,-1.0,0.47036314010620117
200,286.0,-3.0,221.0,0.0,2073.0,-6385.0,-9683.0,-11386.0,-2.0,-1.0,-1.0,-4.0,-1.0,1.0,-1.0,-1.0,0.48499560356140137
201,286.0,-3.0,221.0,0.0,2073.0,-6385.0,-9683.0,-11386.0,1.0,1.0,11.0,5.0,0.0,-2.0,-1.0,1.0,0.48812198638916016
202,286.0,-3.0,221.0,0.0,2073.0,-6385.0,-9683.0,-11386.0,0.0,3.0,9.0,1.0,-1.0,2.0,0.0,0.0,0.4911351203918457
203,280.0,14.0,221.0,0.0,2120.0,-6402.0,-9705.0,-11349.0,0.0,3.0,9.0,1.0,-1.0,2.0,0.0,0.0,0.499251127243042
204,280.0,14.0,221.0,0.0,2120.0,-6402.0,-9705.0,-11349.0,-3.0,-6.0,-6.0,-3.0,-2.0,-7.0,-2.0,-3.0,0.5059568881988525
205,280.0,14.0,221.0,0.0,2120.0,-6402.0,-9705.0,-11349.0,-1.0,-2.0,-11.0,-2.0,-2.0,-1.0,-1.0,-1.0,0.5077898502349854
206,276.0,-8.0,251.0,0.0,2166.0,-6423.0,-9727.0,-11309.0,-1.0,-2.0,-11.0,-2.0,-2.0,-1.0,-1.0,-1.0,0.5132255554199219
207,276.0,-8.0,251.0,0.0,2166.0,-6423.0,-9727.0,-11309.0,0.0,-2.0,-6.0,0.0,-2.0,-3.0,-1.0,2.0,0.5294036865234375
208,276.0,-8.0,251.0,0.0,2166.0,-6423.0,-9727.0,-11309.0,0.0,-1.0,-3.0,1.0,0.0,1.0,0.0,-2.0,0.532562255859375
209,253.0,-26.0,266.0,0.0,2207.0,-6446.0,-9748.0,-11271.0,0.0,-1.0,-3.0,1.0,0.0,1.0,0.0,-2.0,0.5364077091217041
210,253.0,-26.0,266.0,0.0,2207.0,-6446.0,-9748.0,-11271.0,-1.0,-2.0,-6.0,-4.0,-1.0,-5.0,-1.0,0.0,0.5383198261260986
211,253.0,-26.0,266.0,0.0,2207.0,-6446.0,-9748.0,-11271.0,-1.0,1.0,8.0,0.0,2.0,2.0,-7.0,-5.0,0.5427303314208984
212,169.0,-62.0,277.0,0.0,2237.0,-6475.0,-9760.0,-11238.0,-1.0,1.0,8.0,0.0,2.0,2.0,-7.0,-5.0,0.5673558712005615
213,169.0,-62.0,277.0,0.0,2237.0,-6475.0,-9760.0,-11238.0,-1.0,2.0,6.0,-4.0,-1.0,1.0,1.0,1.0,0.5692124366760254
214,169.0,-62.0,277.0,0.0,2237.0,-6475.0,-9760.0,-11238.0,2.0,1.0,3.0,1.0,0.0,-2.0,2.0,1.0,0.571030855178833
215,106.0,-105.0,268.0,0.0,2259.0,-6509.0,-9762.0,-11211.0,2.0,1.0,3.0,1.0,0.0,-2.0,2.0,1.0,0.5729761123657227
216,106.0,-105.0,268.0,0.0,2259.0,-6509.0,-9762.0,-11211.0,0.0,3.0,-2.0,4.0,1.0,6.0,-1.0,2.0,0.5811553001403809
217,106.0,-105.0,268.0,0.0,2259.0,-6509.0,-9762.0,-11211.0,-2.0,-3.0,-3.0,-2.0,-2.0,-19.0,-5.0,-1.0,0.5829486846923828
218,136.0,-135.0,248.0,0.0,2277.0,-6545.0,-9770.0,-11180.0,-2.0,-3.0,-3.0,-2.0,-2.0,-19.0,-5.0,-1.0,0.5965421199798584
219,136.0,-135.0,248.0,0.0,2277.0,-6545.0,-9770.0,-11180.0,1.0,-3.0,-4.0,0.0,0.0,1.0,0.0,-3.0,0.5995810031890869
220,136.0,-135.0,248.0,0.0,2277.0,-6545.0,-9770.0,-11180.0,-1.0,-1.0,0.0,-1.0,-1.0,5.0,2.0,1.0,0.6029918193817139
221,108.0,-167.0,219.0,0.0,2286.0,-6580.0,-9777.0,-11151.0,-1.0,-1.0,0.0,-1.0,-1.0,5.0,2.0,1.0,0.6202976703643799
222,108.0,-167.0,219.0,0.0,2286.0,-6580.0,-9777.0,-11151.0,1.0,2.0,7.0,2.0,0.0,-2.0,0.0,0.0,0.6240653991699219
223,108.0,-167.0,219.0,0.0,2286.0,-6580.0,-9777.0,-11151.0,-1.0,0.0,1.0,-3.0,0.0,-2.0,1.0,0.0,0.6275146007537842
224,75.0,-174.0,191.0,0.0,2290.0,-6612.0,-9779.0,-11130.0,-1.0,0.0,1.0,-3.0,0.0,-2.0,1.0,0.0,0.6429378986358643
225,75.0,-174.0,191.0,0.0,2290.0,-6612.0,-9779.0,-11130.0,0.0,-2.0,-3.0,-4.0,0.0,5.0,0.0,-1.0,0.6456212997436523
226,75.0,-174.0,191.0,0.0,2290.0,-6612.0,-9779.0,-11130.0,-3.0,-3.0,1.0,1.0,-4.0,-4.0,-1.0,-3.0,0.6473891735076904
227,55.0,-174.0,166.0,0.0,2286.0,-6642.0,-9782.0,-11110.0,-3.0,-3.0,1.0,1.0,-4.0,-4.0,-1.0,-3.0,0.6564972400665283
228,55.0,-174.0,166.0,0.0,2286.0,-6642.0,-9782.0,-11110.0,-2.0,1.0,-2.0,2.0,-1.0,-1.0,0.0,0.0,0.6585986614227295
229,55.0,-174.0,166.0,0.0,2286.0,-6642.0,-9782.0,-11110.0,-3.0,-3.0,-5.0,-5.0,0.0,1.0,0.0,1.0,0.669529914855957
230,-19.0,-134.0,130.0,0.0,2280.0,-6665.0,-9775.0,-11104.0,-3.0,-3.0,-5.0,-5.0,0.0,1.0,0.0,1.0,0.6784472465515137
231,-19.0,-134.0,130.0,0.0,2280.0,-6665.0,-9775.0,-11104.0,0.0,-2.0,-3.0,-3.0,0.0,2.0,-2.0,0.0,0.6804702281951904
232,-19.0,-134.0,130.0,0.0,2280.0,-6665.0,-9775.0,-11104.0,0.0,4.0,2.0,0.0,-3.0,2.0,0.0,-1.0,0.6822679042816162
233,-44.0,-107.0,83.0,0.0,2271.0,-6681.0,-9765.0,-11104.0,0.0,4.0,2.0,0.0,-3.0,2.0,0.0,-1.0,0.6926252841949463
234,-44.0,-107.0,83.0,0.0,2271.0,-6681.0,-9765.0,-11104.0,-3.0,-5.0,-4.0,-1.0,-2.0,-2.0,-1.0,-2.0,0.701209545135498
235,-44.0,-107.0,83.0,0.0,2271.0,-6681.0,-9765.0,-11104.0,4.0,9.0,12.0,5.0,1.0,-2.0,1.0,2.0,0.7042236328125
236,-45.0,-94.0,19.0,0.0,2257.0,-6689.0,-9760.0,-11107.0,4.0,9.0,12.0,5.0,1.0,-2.0,1.0,2.0,0.7169818878173828
237,-45.0,-94.0,19.0,0.0,2257.0,-6689.0,-9760.0,-11107.0,-1.0,-2.0,0.0,-3.0,-2.0,-2.0,-1.0,-4.0,0.7207326889038086
238,-45.0,-94.0,19.0,0.0,2257.0,-6689.0,-9760.0,-11107.0,-1.0,-3.0,-4.0,-10.0,-1.0,0.0,1.0,-1.0,0.7257978916168213
239,-79.0,-83.0,-39.0,0.0,2235.0,-6693.0,-9754.0,-11114.0,-1.0,-3.0,-4.0,-10.0,-1.0,0.0,1.0,-1.0,0.7381088733673096
240,-79.0,-83.0,-39.0,0.0,2235.0,-6693.0,-9754.0,-11114.0,3.0,-4.0,-2.0,-2.0,-1.0,-9.0,-3.0,1.0,0.7465951442718506
241,-79.0,-83.0,-39.0,0.0,2235.0,-6693.0,-9754.0,-11114.0,0.0,-4.0,0.0,4.0,2.0,2.0,-1.0,1.0,0.7537679672241211
242,-130.0,-61.0,-103.0,0.0,2205.0,-6689.0,-9746.0,-11130.0,0.0,-4.0,0.0,4.0,2.0,2.0,-1.0,1.0,0.7631070613861084
243,-130.0,-61.0,-103.0,0.0,2205.0,-6689.0,-9746.0,-11130.0,-1.0,-1.0,-2.0,-3.0,-1.0,-4.0,-1.0,-2.0,0.7672693729400635
244,-130.0,-61.0,-103.0,0.0,2205.0,-6689.0,-9746.0,-11130.0,-2.0,-1.0,-4.0,0.0,-2.0,2.0,-2.0,-2.0,0.7718648910522461
245,-170.0,-31.0,-156.0,0.0,2171.0,-6678.0,-9736.0,-11152.0,-2.0,-1.0,-4.0,0.0,-2.0,2.0,-2.0,-2.0,0.7754960060119629
246,-170.0,-31.0,-156.0,0.0,2171.0,-6678.0,-9736.0,-11152.0,-1.0,-1.0,-1.0,0.0,1.0,1.0,1.0,-1.0,0.7774045467376709
247,-170.0,-31.0,-156.0,0.0,2171.0,-6678.0,-9736.0,-11152.0,1.0,2.0,1.0,2.0,0.0,-4.0,-1.0,0.0,0.781914234161377
248,-196.0,-13.0,-200.0,0.0,2131.0,-6663.0,-9726.0,-11177.0,1.0,2.0,1.0,2.0,0.0,-4.0,-1.0,0.0,0.7987549304962158
249,-196.0,-13.0,-200.0,0.0,2131.0,-6663.0,-9726.0,-11177.0,-4.0,0.0,2.0,3.0,0.0,-1.0,-1.0,-1.0,0.8020853996276855
250,-196.0,-13.0,-200.0,0.0,2131.0,-6663.0,-9726.0,-11177.0,2.0,-3.0,-4.0,9.0,0.0,-1.0,2.0,-1.0,0.8055179119110107
251,-202.0,5.0,-230.0,0.0,2091.0,-6643.0,-9717.0,-11204.0,2.0,-3.0,-4.0,9.0,0.0,-1.0,2.0,-1.0,0.8126368522644043
252,-202.0,5.0,-230.0,0.0,2091.0,-6643.0,-9717.0,-11204.0,1.0,0.0,-2.0,2.0,-2.0,-8.0,-3.0,-1.0,0.8213369846343994
253,-202.0,5.0,-230.0,0.0,2091.0,-6643.0,-9717.0,-11204.0,-3.0,-3.0,-5.0,-3.0,-3.0,4.0,-1.0,-5.0,0.8235507011413574
254,-206.0,37.0,-235.0,0.0,2053.0,-6621.0,-9708.0,-11232.0,-3.0,-3.0,-5.0,-3.0,-3.0,4.0,-1.0,-5.0,0.8369178771972656
255,-206.0,37.0,-235.0,0.0,2053.0,-6621.0,-9708.0,-11232.0,1.0,1.0,4.0,-3.0,-1.0,0.0,0.0,-1.0,0.8433032035827637
256,-206.0,37.0,-235.0,0.0,2053.0,-6621.0,-9708.0,-11232.0,-2.0,-1.0,1.0,-2.0,0.0,0.0,1.0,0.0,0.8450989723205566
257,-224.0,40.0,-235.0,0.0,2015.0,-6600.0,-9696.0,-11262.0,-2.0,-1.0,1.0,-2.0,0.0,0.0,1.0,0.0,0.858832597732544
258,-224.0,40.0,-235.0,0.0,2015.0,-6600.0,-9696.0,-11262.0,-1.0,3.0,1.0,-4.0,-1.0,1.0,-2.0,-1.0,0.860715389251709
259,-224.0,40.0,-235.0,0.0,2015.0,-6600.0,-9696.0,-11262.0,1.0,-1.0,-1.0,0.0,-2.0,-6.0,-1.0,2.0,0.8624863624572754
260,-219.0,66.0,-230.0,0.0,1983.0,-6576.0,-9683.0,-11293.0,1.0,-1.0,-1.0,0.0,-2.0,-6.0,-1.0,2.0,0.8811995983123779
261,-219.0,66.0,-230.0,0.0,1983.0,-6576.0,-9683.0,-11293.0,-2.0,-2.0,0.0,-1.0,1.0,-1.0,-3.0,-1.0,0.8894424438476562
262,-219.0,66.0,-230.0,0.0,1983.0,-6576.0,-9683.0,-11293.0,1.0,1.0,-2.0,5.0,-1.0,0.0,-2.0,-1.0,0.892561674118042
263,-197.0,98.0,-209.0,0.0,1957.0,-6551.0,-9670.0,-11323.0,1.0,1.0,-2.0,5.0,-1.0,0.0,-2.0,-1.0,0.8948795795440674
264,-197.0,98.0,-209.0,0.0,1957.0,-6551.0,-9670.0,-11323.0,-1.0,0.0,-2.0,1.0,1.0,0.0,1.0,1.0,0.9036376476287842
265,-197.0,98.0,-209.0,0.0,1957.0,-6551.0,-9670.0,-11323.0,-2.0,-4.0,-4.0,-6.0,0.0,-2.0,0.0,-1.0,0.9056687355041504
266,-156.0,114.0,-200.0,0.0,1937.0,-6522.0,-9661.0,-11351.0,-2.0,-4.0,-4.0,-6.0,0.0,-2.0,0.0,-1.0,0.918203592300415
267,-156.0,114.0,-200.0,0.0,1937.0,-6522.0,-9661.0,-11351.0,-1.0,0.0,-4.0,-1.0,-1.0,1.0,1.0,-1.0,0.9200999736785889
268,-156.0,114.0,-200.0,0.0,1937.0,-6522.0,-9661.0,-11351.0,-3.0,-4.0,-1.0,1.0,3.0,4.0,-1.0,-1.0,0.9251863956451416
269,-96.0,110.0,-181.0,0.0,1923.0,-6493.0,-9657.0,-11373.0,-3.0,-4.0,-1.0,1.0,3.0,4.0,-1.0,-1.0,0.9325227737426758
270,-96.0,110.0,-181.0,0.0,1923.0,-6493.0,-9657.0,-11373.0,-1.0,-1.0,5.0,0.0,7.0,-2.0,-2.0,0.0,0.9407229423522949
271,-96.0,110.0,-181.0,0.0,1923.0,-6493.0,-9657.0,-11373.0,0.0,1.0,-1.0,-1.0,16.0,3.0,1.0,1.0,0.9472320079803467
272,-33.0,112.0,-175.0,0.0,1909.0,-6460.0,-9664.0,-11388.0,0.0,1.0,-1.0,-1.0,16.0,3.0,1.0,1.0,0.9555819034576416
273,-33.0,112.0,-175.0,0.0,1909.0,-6460.0,-9664.0,-11388.0,-3.0,-2.0,-4.0,6.0,15.0,0.0,1.0,-2.0,0.9577467441558838
274,-33.0,112.0,-175.0,0.0,1909.0,-6460.0,-9664.0,-11388.0,-1.0,-1.0,0.0,14.0,3.0,-5.0,-2.0,-1.0,0.9625144004821777
275,3.0,142.0,-171.0,0.0,1898.0,-6421.0,-9677.0,-11401.0,-1.0,-1.0,0.0,14.0,3.0,-5.0,-2.0,-1.0,0.9800915718078613
276,3.0,142.0,-171.0,0.0,1898.0,-6421.0,-9677.0,-11401.0,1.0,1.0,0.0,-12.0,-22.0,-7.0,-16.0,-2.0,0.9836292266845703
277,3.0,142.0,-171.0,0.0,1898.0,-6421.0,-9677.0,-11401.0,1.0,-4.0,-4.0,3.0,-16.0,2.0,10.0,1.0,0.9869673252105713
278,23.0,167.0,-169.0,0.0,1891.0,-6378.0,-9693.0,-11413.0,1.0,-4.0,-4.0,3.0,-16.0,2.0,10.0,1.0,0.9933168888092041
279,23.0,167.0,-169.0,0.0,1891.0,-6378.0,-9693.0,-11413.0,-1.0,-2.0,-1.0,8.0,2.0,5.0,9.0,2.0,1.000220537185669
280,23.0,167.0,-169.0,0.0,1891.0,-6378.0,-9693.0,-11413.0,-4.0,-1.0,-2.0,-35.0,-20.0,-2.0,0.0,0.0,1.0021886825561523
281,-69.0,120.0,-200.0,0.0,1870.0,-6342.0,-9700.0,-11431.0,-4.0,-1.0,-2.0,-35.0,-20.0,-2.0,0.0,0.0,1.0165691375732422
282,-69.0,120.0,-200.0,0.0,1870.0,-6342.0,-9700.0,-11431.0,0.0,-1.0,-1.0,-2.0,-30.0,-5.0,-1.0,0.0,1.0199837684631348
283,-69.0,120.0,-200.0,0.0,1870.0,-6342.0,-9700.0,-11431.0,-4.0,0.0,-1.0,-2.0,7.0,-2.0,3.0,-5.0,1.0231142044067383
284,-143.0,96.0,-243.0,0.0,1838.0,-6305.0,-9698.0,-11458.0,-4.0,0.0,-1.0,-2.0,7.0,-2.0,3.0,-5.0,1.0400831699371338
285,-143.0,96.0,-243.0,0.0,1838.0,-6305.0,-9698.0,-11458.0,0.0,1.0,3.0,-18.0,-2.0,2.0,-3.0,-2.0,1.0443525314331055
286,-143.0,96.0,-243.0,0.0,1838.0,-6305.0,-9698.0,-11458.0,-4.0,-5.0,-7.0,-8.0,16.0,3.0,-6.0,-3.0,1.0480456352233887
287,-156.0,113.0,-276.0,0.0,1806.0,-6262.0,-9690.0,-11493.0,-4.0,-5.0,-7.0,-8.0,16.0,3.0,-6.0,-3.0,1.0632529258728027
288,-156.0,113.0,-276.0,0.0,1806.0,-6262.0,-9690.0,-11493.0,3.0,2.0,5.0,100.0,42.0,-1.0,-6.0,4.0,1.0665395259857178
289,-156.0,113.0,-276.0,0.0,1806.0,-6262.0,-9690.0,-11493.0,-1.0,-1.0,-2.0,2.0,11.0,2.0,-2.0,2.0,1.070767879486084
290,-19.0,4.0,-247.0,0.0,1775.0,-6236.0,-9704.0,-11500.0,-1.0,-1.0,-2.0,2.0,11.0,2.0,-2.0,2.0,1.0756747722625732
291,-19.0,4.0,-247.0,0.0,1775.0,-6236.0,-9704.0,-11500.0,-4.0,-7.0,-10.0,-9.0,-5.0,-1.0,10.0,-1.0,1.0775420665740967
292,-19.0,4.0,-247.0,0.0,1775.0,-6236.0,-9704.0,-11500.0,0.0,1.0,6.0,14.0,1.0,-4.0,6.0,0.0,1.0825903415679932
293,-74.0,-131.0,-170.0,0.0,1736.0,-6237.0,-9708.0,-11502.0,0.0,1.0,6.0,14.0,1.0,-4.0,6.0,0.0,1.1074965000152588
294,-74.0,-131.0,-170.0,0.0,1736.0,-6237.0,-9708.0,-11502.0,4.0,3.0,3.0,10.0,-3.0,8.0,-7.0,-5.0,1.1109864711761475
295,-74.0,-131.0,-170.0,0.0,1736.0,-6237.0,-9708.0,-11502.0,-2.0,-2.0,-3.0,-13.0,-13.0,-12.0,-3.0,-2.0,1.1144826412200928
296,-101.0,-179.0,-231.0,0.0,1684.0,-6244.0,-9718.0,-11498.0,-2.0,-2.0,-3.0,-13.0,-13.0,-12.0,-3.0,-2.0,1.11799955368042
297,-101.0,-179.0,-231.0,0.0,1684.0,-6244.0,-9718.0,-11498.0,1.0,0.0,-2.0,-37.0,-29.0,26.0,3.0,1.0,1.1210477352142334
298,-101.0,-179.0,-231.0,0.0,1684.0,-6244.0,-9718.0,-11498.0,-6.0,-8.0,-15.0,-13.0,-15.0,42.0,8.0,1.0,1.1229491233825684
299,-272.0,-132.0,-311.0,0.0,1618.0,-6238.0,-9706.0,-11521.0,-6.0,-8.0,-15.0,-13.0,-15.0,42.0,8.0,1.0,1.1358156204223633
300,-272.0,-132.0,-311.0,0.0,1618.0,-6238.0,-9706.0,-11521.0,-2.0,-7.0,-19.0,-14.0,8.0,-45.0,-6.0,11.0,1.1388347148895264
301,-272.0,-132.0,-311.0,0.0,1618.0,-6238.0,-9706.0,-11521.0,-5.0,1.0,9.0,20.0,8.0,70.0,-3.0,2.0,1.1433026790618896
302,-227.0,-68.0,-247.0,0.0,1566.0,-6223.0,-9692.0,-11548.0,-5.0,1.0,9.0,20.0,8.0,70.0,-3.0,2.0,1.1579749584197998
303,-227.0,-68.0,-247.0,0.0,1566.0,-6223.0,-9692.0,-11548.0,-2.0,-5.0,5.0,-9.0,8.0,58.0,8.0,-16.0,1.160311222076416
304,-227.0,-68.0,-247.0,0.0,1566.0,-6223.0,-9692.0,-11548.0,-3.0,-12.0,-10.0,-7.0,9.0,31.0,-10.0,-8.0,1.1654891967773438
305,-230.0,6.0,-197.0,0.0,1529.0,-6208.0,-9676.0,-11574.0,-3.0,-12.0,-10.0,-7.0,9.0,31.0,-10.0,-8.0,1.1825671195983887
306,-230.0,6.0,-197.0,0.0,1529.0,-6208.0,-9676.0,-11574.0,3.0,6.0,4.0,-15.0,-17.0,-3.0,7.0,16.0,1.1861250400543213
307,-230.0,6.0,-197.0,0.0,1529.0,-6208.0,-9676.0,-11574.0,5.0,-1.0,-7.0,7.0,16.0,-7.0,2.0,-2.0,1.189526081085205
308,-301.0,56.0,-230.0,0.0,1498.0,-6188.0,-9640.0,-11619.0,5.0,-1.0,-7.0,7.0,16.0,-7.0,2.0,-2.0,1.1964573860168457
309,-301.0,56.0,-230.0,0.0,1498.0,-6188.0,-9640.0,-11619.0,-5.0,-4.0,0.0,8.0,13.0,27.0,1.0,-9.0,1.1985254287719727
310,-301.0,56.0,-230.0,0.0,1498.0,-6188.0,-9640.0,-11619.0,-5.0,2.0,-25.0,-29.0,-20.0,-128.0,-18.0,-11.0,1.2027623653411865
311,-164.0,127.0,-318.0,0.0,1471.0,-6141.0,-9621.0,-11663.0,-5.0,2.0,-25.0,-29.0,-20.0,-128.0,-18.0,-11.0,1.218080759048462
312,-164.0,127.0,-318.0,0.0,1471.0,-6141.0,-9621.0,-11663.0,4.0,6.0,8.0,-19.0,-23.0,-85.0,-11.0,-9.0,1.22048020362854
313,-164.0,127.0,-318.0,0.0,1471.0,-6141.0,-9621.0,-11663.0,4.0,-5.0,1.0,-10.0,-30.0,-28.0,0.0,5.0,1.2255268096923828
314,45.0,153.0,-399.0,0.0,1439.0,-6067.0,-9636.0,-11693.0,4.0,-5.0,1.0,-10.0,-30.0,-28.0,0.0,5.0,1.2425060272216797
315,45.0,153.0,-399.0,0.0,1439.0,-6067.0,-9636.0,-11693.0,-2.0,6.0,-10.0,60.0,14.0,54.0,14.0,-2.0,1.2465765476226807
316,45.0,153.0,-399.0,0.0,1439.0,-6067.0,-9636.0,-11693.0,13.0,10.0,32.0,36.0,24.0,-41.0,-9.0,0.0,1.2504022121429443
317,-5.0,220.0,-540.0,0.0,1379.0,-5951.0,-9652.0,-11747.0,13.0,10.0,32.0,36.0,24.0,-41.0,-9.0,0.0,1.2638182640075684
318,-5.0,220.0,-540.0,0.0,1379.0,-5951.0,-9652.0,-11747.0,-10.0,-4.0,-9.0,-20.0,-39.0,-30.0,-8.0,9.0,1.2656753063201904
319,-5.0,220.0,-540.0,0.0,1379.0,-5951.0,-9652.0,-11747.0,-7.0,-4.0,-5.0,-12.0,2.0,39.0,3.0,-2.0,1.2674627304077148
320,-318.0,303.0,-766.0,0.0,1276.0,-5802.0,-9640.0,-11843.0,-7.0,-4.0,-5.0,-12.0,2.0,39.0,3.0,-2.0,1.2777249813079834
321,-318.0,303.0,-766.0,0.0,1276.0,-5802.0,-9640.0,-11843.0,-1.0,-13.0,13.0,-10.0,24.0,40.0,4.0,0.0,1.279646873474121
322,-318.0,303.0,-766.0,0.0,1276.0,-5802.0,-9640.0,-11843.0,-14.0,-6.0,3.0,1.0,-4.0,2.0,-4.0,5.0,1.285278558731079
323,-521.0,504.0,-1277.0,0.0,1119.0,-5571.0,-9614.0,-11989.0,-14.0,-6.0,3.0,1.0,-4.0,2.0,-4.0,5.0,1.3035225868225098
324,-521.0,504.0,-1277.0,0.0,1119.0,-5571.0,-9614.0,-11989.0,32.0,20.0,1.0,-42.0,3.0,21.0,0.0,-1.0,1.3070666790008545
325,-521.0,504.0,-1277.0,0.0,1119.0,-5571.0,-9614.0,-11989.0,-14.0,-2.0,9.0,5.0,-11.0,15.0,-4.0,-8.0,1.310513973236084
326,-869.0,710.0,-1821.0,0.0,896.0,-5282.0,-9591.0,-12156.0,-14.0,-2.0,9.0,5.0,-11.0,15.0,-4.0,-8.0,1.316208839416504
327,-869.0,710.0,-1821.0,0.0,896.0,-5282.0,-9591.0,-12156.0,-16.0,-17.0,-3.0,-11.0,-3.0,-12.0,4.0,-1.0,1.3249778747558594
328,-869.0,710.0,-1821.0,0.0,896.0,-5282.0,-9591.0,-12156.0,0.0,12.0,9.0,-12.0,-13.0,3.0,0.0,-1.0,1.3303534984588623
329,-1487.0,814.0,-2207.0,0.0,598.0,-4944.0,-9500.0,-12386.0,0.0,12.0,9.0,-12.0,-13.0,3.0,0.0,-1.0,1.338804006576538
330,-1487.0,814.0,-2207.0,0.0,598.0,-4944.0,-9500.0,-12386.0,-1.0,1.0,-2.0,-15.0,-26.0,-4.0,-3.0,-7.0,1.341292381286621
331,-1685.0,1056.0,-2362.0,0.0,296.0,-4558.0,-9378.0,-12635.0,-1.0,1.0,-2.0,-15.0,-26.0,-4.0,-3.0,-7.0,1.3451225757598877
332,-1685.0,1056.0,-2362.0,0.0,296.0,-4558.0,-9378.0,-12635.0,21.0,12.0,-8.0,19.0,2.0,-6.0,4.0,16.0,1.3527569770812988
333,-1685.0,1056.0,-2362.0,0.0,296.0,-4558.0,-9378.0,-12635.0,0.0,-3.0,-16.0,-12.0,9.0,-12.0,0.0,3.0,1.3608214855194092
334,-1923.0,1225.0,-2591.0,0.0,-35.0,-4120.0,-9227.0,-12898.0,0.0,-3.0,-16.0,-12.0,9.0,-12.0,0.0,3.0,1.364443302154541
335,-1923.0,1225.0,-2591.0,0.0,-35.0,-4120.0,-9227.0,-12898.0,5.0,-2.0,-13.0,-14.0,-1.0,1.0,-1.0,-7.0,1.3750503063201904
336,-1923.0,1225.0,-2591.0,0.0,-35.0,-4120.0,-9227.0,-12898.0,-14.0,15.0,4.0,-2.0,5.0,-20.0,-6.0,-8.0,1.3833203315734863
337,-2430.0,1456.0,-2942.0,0.0,-413.0,-3611.0,-9005.0,-13197.0,-14.0,15.0,4.0,-2.0,5.0,-20.0,-6.0,-8.0,1.3876643180847168
338,-2430.0,1456.0,-2942.0,0.0,-413.0,-3611.0,-9005.0,-13197.0,22.0,21.0,27.0,13.0,10.0,17.0,5.0,17.0,1.398313045501709
339,-2430.0,1456.0,-2942.0,0.0,-413.0,-3611.0,-9005.0,-13197.0,-7.0,-4.0,3.0,23.0,-3.0,-15.0,-6.0,-5.0,1.4006407260894775
340,-2765.0,1719.0,-3351.0,0.0,-834.0,-3017.0,-8733.0,-13505.0,-7.0,-4.0,3.0,23.0,-3.0,-15.0,-6.0,-5.0,1.4056921005249023
341,-2765.0,1719.0,-3351.0,0.0,-834.0,-3017.0,-8733.0,-13505.0,1.0,6.0,-6.0,5.0,-8.0,-1.0,2.0,1.0,1.4129140377044678
342,-2765.0,1719.0,-3351.0,0.0,-834.0,-3017.0,-8733.0,-13505.0,17.0,-1.0,-2.0,16.0,17.0,0.0,-2.0,4.0,1.4307291507720947
343,-3202.0,1887.0,-3844.0,0.0,-1323.0,-2342.0,-8392.0,-13813.0,17.0,-1.0,-2.0,16.0,17.0,0.0,-2.0,4.0,1.4344472885131836
344,-3202.0,1887.0,-3844.0,0.0,-1323.0,-2342.0,-8392.0,-13813.0,-8.0,-18.0,-10.0,-7.0,-10.0,-14.0,-4.0,-10.0,1.4382858276367188
345,-3202.0,1887.0,-3844.0,0.0,-1323.0,-2342.0,-8392.0,-13813.0,-12.0,-5.0,-9.0,0.0,3.0,0.0,-4.0,-4.0,1.4427170753479004
346,-3718.0,1881.0,-4210.0,0.0,-1872.0,-1623.0,-7958.0,-14107.0,-12.0,-5.0,-9.0,0.0,3.0,0.0,-4.0,-4.0,1.4445323944091797
347,-3718.0,1881.0,-4210.0,0.0,-1872.0,-1623.0,-7958.0,-14107.0,-4.0,-7.0,-4.0,4.0,-4.0,-4.0,-2.0,-3.0,1.459606409072876
348,-3718.0,1881.0,-4210.0,0.0,-1872.0,-1623.0,-7958.0,-14107.0,-2.0,3.0,7.0,2.0,-2.0,5.0,5.0,3.0,1.4625742435455322
349,-4342.0,1825.0,-4338.0,0.0,-2445.0,-888.0,-7400.0,-14385.0,-2.0,3.0,7.0,2.0,-2.0,5.0,5.0,3.0,1.465512990951538
350,-4342.0,1825.0,-4338.0,0.0,-2445.0,-888.0,-7400.0,-14385.0,-4.0,3.0,-5.0,-7.0,-10.0,-2.0,0.0,-2.0,1.4723880290985107
351,-4342.0,1825.0,-4338.0,0.0,-2445.0,-888.0,-7400.0,-14385.0,-2.0,-7.0,-3.0,-4.0,-6.0,-4.0,0.0,1.0,1.4891815185546875
352,-4755.0,1863.0,-4269.0,0.0,-2990.0,-146.0,-6753.0,-14625.0,-2.0,-7.0,-3.0,-4.0,-6.0,-4.0,0.0,1.0,1.4935686588287354
353,-4755.0,1863.0,-4269.0,0.0,-2990.0,-146.0,-6753.0,-14625.0,-3.0,-5.0,-1.0,2.0,9.0,5.0,0.0,-3.0,1.5038509368896484
354,-4755.0,1863.0,-4269.0,0.0,-2990.0,-146.0,-6753.0,-14625.0,0.0,-2.0,-2.0,-1.0,-14.0,-5.0,-2.0,1.0,1.5057287216186523
355,-5223.0,1928.0,-4174.0,0.0,-3496.0,606.0,-6010.0,-14824.0,0.0,-2.0,-2.0,-1.0,-14.0,-5.0,-2.0,1.0,1.5075592994689941
356,-5223.0,1928.0,-4174.0,0.0,-3496.0,606.0,-6010.0,-14824.0,-4.0,-2.0,1.0,0.0,19.0,7.0,0.0,-3.0,1.5183641910552979
357,-5223.0,1928.0,-4174.0,0.0,-3496.0,606.0,-6010.0,-14824.0,0.0,1.0,-7.0,-4.0,4.0,-6.0,-3.0,-1.0,1.520200490951538
358,-5850.0,1971.0,-4009.0,0.0,-3946.0,1372.0,-5137.0,-14987.0,0.0,1.0,-7.0,-4.0,4.0,-6.0,-3.0,-1.0,1.524921178817749
359,-5850.0,1971.0,-4009.0,0.0,-3946.0,1372.0,-5137.0,-14987.0,-1.0,-1.0,3.0,-1.0,-1.0,-1.0,2.0,1.0,1.5428574085235596
360,-5850.0,1971.0,-4009.0,0.0,-3946.0,1372.0,-5137.0,-14987.0,-3.0,0.0,-1.0,-10.0,7.0,-3.0,0.0,-1.0,1.5459847450256348
361,-6145.0,1977.0,-3790.0,0.0,-4333.0,2135.0,-4189.0,-15085.0,-3.0,0.0,-1.0,-10.0,7.0,-3.0,0.0,-1.0,1.5489671230316162
362,-6145.0,1977.0,-3790.0,0.0,-4333.0,2135.0,-4189.0,-15085.0,3.0,-2.0,0.0,0.0,5.0,-1.0,-1.0,-2.0,1.555826187133789
363,-6145.0,1977.0,-3790.0,0.0,-4333.0,2135.0,-4189.0,-15085.0,-2.0,-2.0,0.0,0.0,-2.0,-2.0,-4.0,-2.0,1.562877893447876
364,-6315.0,2028.0,-3542.0,0.0,-4648.0,2892.0,-3190.0,-15110.0,-2.0,-2.0,0.0,0.0,-2.0,-2.0,-4.0,-2.0,1.5696210861206055
365,-6315.0,2028.0,-3542.0,0.0,-4648.0,2892.0,-3190.0,-15110.0,0.0,3.0,2.0,1.0,-1.0,-2.0,0.0,2.0,1.580786943435669
366,-6315.0,2028.0,-3542.0,0.0,-4648.0,2892.0,-3190.0,-15110.0,-2.0,-7.0,0.0,4.0,1.0,-2.0,0.0,-2.0,1.626786708831787
367,-6304.0,2054.0,-3318.0,0.0,-4899.0,3632.0,-2177.0,-15051.0,-2.0,-7.0,0.0,4.0,1.0,-2.0,0.0,-2.0,1.6297276020050049
368,-6304.0,2054.0,-3318.0,0.0,-4899.0,3632.0,-2177.0,-15051.0,8.0,6.0,5.0,2.0,1.0,-6.0,-2.0,-2.0,1.6316874027252197
369,-6304.0,2054.0,-3318.0,0.0,-4899.0,3632.0,-2177.0,-15051.0,5.0,4.0,13.0,6.0,7.0,2.0,1.0,2.0,1.6335301399230957
370,-5983.0,2031.0,-2990.0,0.0,-5082.0,4329.0,-1208.0,-14914.0,5.0,4.0,13.0,6.0,7.0,2.0,1.0,2.0,1.6353089809417725
371,-5983.0,2031.0,-2990.0,0.0,-5082.0,4329.0,-1208.0,-14914.0,-7.0,-4.0,1.0,-5.0,-6.0,-1.0,-1.0,-4.0,1.6372385025024414
372,-5565.0,2211.0,-2720.0,0.0,-5214.0,5008.0,-316.0,-14700.0,-7.0,-4.0,1.0,-5.0,-6.0,-1.0,-1.0,-4.0,1.6398580074310303
373,-5565.0,2211.0,-2720.0,0.0,-5214.0,5008.0,-316.0,-14700.0,0.0,2.0,1.0,-4.0,-4.0,-2.0,0.0,-2.0,1.6419167518615723
374,-5565.0,2211.0,-2720.0,0.0,-5214.0,5008.0,-316.0,-14700.0,-4.0,-6.0,-7.0,-3.0,-3.0,-1.0,0.0,0.0,1.643833875656128
375,-5151.0,2514.0,-2569.0,0.0,-5320.0,5693.0,493.0,-14404.0,-4.0,-6.0,-7.0,-3.0,-3.0,-1.0,0.0,0.0,1.6456384658813477
376,-5151.0,2514.0,-2569.0,0.0,-5320.0,5693.0,493.0,-14404.0,-4.0,-6.0,-9.0,-6.0,2.0,4.0,-2.0,-3.0,1.662503957748413
377,-5151.0,2514.0,-2569.0,0.0,-5320.0,5693.0,493.0,-14404.0,-1.0,-5.0,-16.0,-7.0,0.0,-2.0,-6.0,-8.0,1.6645889282226562
378,-4759.0,2709.0,-2502.0,0.0,-5419.0,6366.0,1231.0,-14037.0,-1.0,-5.0,-16.0,-7.0,0.0,-2.0,-6.0,-8.0,1.6664223670959473
379,-4759.0,2709.0,-2502.0,0.0,-5419.0,6366.0,1231.0,-14037.0,-3.0,-12.0,3.0,9.0,-2.0,-5.0,-2.0,-2.0,1.6750011444091797
380,-4759.0,2709.0,-2502.0,0.0,-5419.0,6366.0,1231.0,-14037.0,4.0,-3.0,0.0,4.0,0.0,-4.0,1.0,4.0,1.6832082271575928
381,-4231.0,2823.0,-2453.0,0.0,-5528.0,7006.0,1881.0,-13611.0,4.0,-3.0,0.0,4.0,0.0,-4.0,1.0,4.0,1.7097489833831787
382,-4231.0,2823.0,-2453.0,0.0,-5528.0,7006.0,1881.0,-13611.0,-3.0,-13.0,-23.0,5.0,5.0,0.0,1.0,-8.0,1.713172435760498
383,-4231.0,2823.0,-2453.0,0.0,-5528.0,7006.0,1881.0,-13611.0,-6.0,-7.0,2.0,4.0,12.0,8.0,-3.0,0.0,1.716827154159546
384,-3746.0,2895.0,-2486.0,0.0,-5661.0,7607.0,2457.0,-13134.0,-6.0,-7.0,2.0,4.0,12.0,8.0,-3.0,0.0,1.7188663482666016
385,-3746.0,2895.0,-2486.0,0.0,-5661.0,7607.0,2457.0,-13134.0,-5.0,-10.0,-50.0,-6.0,-5.0,-10.0,0.0,-1.0,1.7291474342346191
386,-3746.0,2895.0,-2486.0,0.0,-5661.0,7607.0,2457.0,-13134.0,3.0,-2.0,-6.0,-11.0,4.0,4.0,6.0,18.0,1.7313125133514404
387,-3318.0,2744.0,-2666.0,0.0,-5828.0,8140.0,2988.0,-12621.0,3.0,-2.0,-6.0,-11.0,4.0,4.0,6.0,18.0,1.7334167957305908
388,-3318.0,2744.0,-2666.0,0.0,-5828.0,8140.0,2988.0,-12621.0,-6.0,-5.0,6.0,13.0,6.0,1.0,-4.0,-15.0,1.7353012561798096
389,-3318.0,2744.0,-2666.0,0.0,-5828.0,8140.0,2988.0,-12621.0,-6.0,-10.0,-12.0,7.0,5.0,2.0,13.0,3.0,1.7506422996520996
390,-2989.0,2522.0,-2747.0,0.0,-6006.0,8606.0,3492.0,-12088.0,-6.0,-10.0,-12.0,7.0,5.0,2.0,13.0,3.0,1.8637104034423828
391,-2989.0,2522.0,-2747.0,0.0,-6006.0,8606.0,3492.0,-12088.0,4.0,2.0,8.0,-11.0,-33.0,26.0,-6.0,-35.0,1.872816562652588
392,-2989.0,2522.0,-2747.0,0.0,-6006.0,8606.0,3492.0,-12088.0,-8.0,1.0,14.0,9.0,-33.0,-37.0,-22.0,-19.0,1.8765099048614502
393,-2682.0,2431.0,-2531.0,0.0,-6166.0,9031.0,3950.0,-11544.0,-8.0,1.0,14.0,9.0,-33.0,-37.0,-22.0,-19.0,1.879709243774414
394,-2682.0,2431.0,-2531.0,0.0,-6166.0,9031.0,3950.0,-11544.0,5.0,9.0,16.0,6.0,24.0,-14.0,-13.0,19.0,1.8816473484039307
395,-2682.0,2431.0,-2531.0,0.0,-6166.0,9031.0,3950.0,-11544.0,-6.0,8.0,-10.0,-24.0,-46.0,11.0,-25.0,-31.0,1.883927345275879
396,-55.0,958.0,-602.0,0.0,-7276.0,9982.0,4606.0,-9728.0,-6.0,8.0,-10.0,-24.0,-46.0,11.0,-25.0,-31.0,1.885984182357788
397,-55.0,958.0,-602.0,0.0,-7276.0,9982.0,4606.0,-9728.0,-25.0,-6.0,2.0,-5.0,-14.0,-42.0,-19.0,1.0,1.8880972862243652
398,-55.0,958.0,-602.0,0.0,-7276.0,9982.0,4606.0,-9728.0,6.0,4.0,4.0,3.0,4.0,32.0,23.0,3.0,1.8900232315063477
399,699.0,452.0,526.0,0.0,-7319.0,10001.0,4438.0,-9755.0,6.0,4.0,4.0,3.0,4.0,32.0,23.0,3.0,1.892946481704712
400,699.0,452.0,526.0,0.0,-7319.0,10001.0,4438.0,-9755.0,-7.0,-1.0,-1.0,-8.0,-17.0,-93.0,-27.0,-7.0,1.9155364036560059
401,699.0,452.0,526.0,0.0,-7319.0,10001.0,4438.0,-9755.0,-5.0,-1.0,-1.0,2.0,9.0,6.0,-4.0,0.0,1.9257848262786865
402,1547.0,145.0,1475.0,0.0,-7335.0,9961.0,4100.0,-9929.0,-5.0,-1.0,-1.0,2.0,9.0,6.0,-4.0,0.0,1.9292006492614746
403,1547.0,145.0,1475.0,0.0,-7335.0,9961.0,4100.0,-9929.0,8.0,1.0,1.0,0.0,5.0,34.0,3.0,10.0,1.932929515838623
404,1547.0,145.0,1475.0,0.0,-7335.0,9961.0,4100.0,-9929.0,-11.0,-8.0,-4.0,-4.0,-5.0,-15.0,-9.0,-12.0,1.9359545707702637
405,2627.0,-180.0,2516.0,0.0,-7334.0,9836.0,3554.0,-10260.0,-11.0,-8.0,-4.0,-4.0,-5.0,-15.0,-9.0,-12.0,1.93780517578125
406,2627.0,-180.0,2516.0,0.0,-7334.0,9836.0,3554.0,-10260.0,19.0,20.0,19.0,6.0,3.0,19.0,-4.0,5.0,1.9396727085113525
407,2627.0,-180.0,2516.0,0.0,-7334.0,9836.0,3554.0,-10260.0,-5.0,-6.0,-4.0,-3.0,1.0,-4.0,-12.0,-12.0,1.9414386749267578
408,4166.0,-695.0,3863.0,0.0,-7308.0,9557.0,2723.0,-10784.0,-5.0,-6.0,-4.0,-3.0,1.0,-4.0,-12.0,-12.0,1.9539196491241455
409,4166.0,-695.0,3863.0,0.0,-7308.0,9557.0,2723.0,-10784.0,22.0,9.0,1.0,2.0,1.0,81.0,50.0,6.0,1.9560647010803223
410,4166.0,-695.0,3863.0,0.0,-7308.0,9557.0,2723.0,-10784.0,-42.0,-15.0,-6.0,-3.0,-11.0,-2.0,-30.0,-57.0,1.9682600498199463
411,5654.0,-1393.0,5039.0,0.0,-7238.0,9060.0,1638.0,-11458.0,-42.0,-15.0,-6.0,-3.0,-11.0,-2.0,-30.0,-57.0,1.970423698425293
412,5654.0,-1393.0,5039.0,0.0,-7238.0,9060.0,1638.0,-11458.0,0.0,-7.0,-11.0,-12.0,-37.0,87.0,14.0,11.0,1.9841535091400146
413,5654.0,-1393.0,5039.0,0.0,-7238.0,9060.0,1638.0,-11458.0,44.0,4.0,8.0,12.0,106.0,-14.0,31.0,-9.0,1.9861681461334229
414,6929.0,-1702.0,6263.0,0.0,-7072.0,8367.0,285.0,-12180.0,44.0,4.0,8.0,12.0,106.0,-14.0,31.0,-9.0,1.9880115985870361
415,6929.0,-1702.0,6263.0,0.0,-7072.0,8367.0,285.0,-12180.0,-27.0,-7.0,-9.0,-7.0,73.0,-103.0,-4.0,-59.0,2.0055339336395264
416,6929.0,-1702.0,6263.0,0.0,-7072.0,8367.0,285.0,-12180.0,113.0,44.0,15.0,22.0,101.0,-67.0,-7.0,100.0,2.0237977504730225
417,7772.0,-1065.0,7602.0,0.0,-6720.0,7596.0,-1349.0,-12797.0,113.0,44.0,15.0,22.0,101.0,-67.0,-7.0,100.0,2.027806282043457
418,7772.0,-1065.0,7602.0,0.0,-6720.0,7596.0,-1349.0,-12797.0,-17.0,-37.0,-22.0,-39.0,22.0,-128.0,-34.0,-99.0,2.0318121910095215
419,7772.0,-1065.0,7602.0,0.0,-6720.0,7596.0,-1349.0,-12797.0,0.0,-7.0,4.0,24.0,-32.0,54.0,-65.0,-46.0,2.0344338417053223
420,7805.0,-1060.0,9282.0,0.0,-6034.0,6681.0,-3103.0,-13333.0,0.0,-7.0,4.0,24.0,-32.0,54.0,-65.0,-46.0,2.036494493484497
421,7805.0,-1060.0,9282.0,0.0,-6034.0,6681.0,-3103.0,-13333.0,-101.0,-7.0,-1.0,-49.0,-96.0,-102.0,9.0,-115.0,2.051591157913208
422,7805.0,-1060.0,9282.0,0.0,-6034.0,6681.0,-3103.0,-13333.0,-14.0,-18.0,-41.0,-1.0,-31.0,127.0,48.0,109.0,2.053619623184204
423,8701.0,-334.0,9855.0,0.0,-5193.0,5668.0,-5014.0,-13573.0,-14.0,-18.0,-41.0,-1.0,-31.0,127.0,48.0,109.0,2.0555808544158936
424,8701.0,-334.0,9855.0,0.0,-5193.0,5668.0,-5014.0,-13573.0,70.0,21.0,14.0,61.0,-22.0,127.0,-60.0,127.0,2.059309482574463
425,8701.0,-334.0,9855.0,0.0,-5193.0,5668.0,-5014.0,-13573.0,-90.0,-101.0,-99.0,-105.0,-112.0,-23.0,-52.0,-88.0,2.0618631839752197
426,8848.0,1017.0,9372.0,0.0,-4255.0,4758.0,-6893.0,-13424.0,-90.0,-101.0,-99.0,-105.0,-112.0,-23.0,-52.0,-88.0,2.0733084678649902
427,8848.0,1017.0,9372.0,0.0,-4255.0,4758.0,-6893.0,-13424.0,47.0,98.0,86.0,16.0,-35.0,127.0,71.0,58.0,2.0761611461639404
428,8848.0,1017.0,9372.0,0.0,-4255.0,4758.0,-6893.0,-13424.0,39.0,8.0,4.0,-43.0,-82.0,90.0,14.0,-36.0,2.0798187255859375
429,7811.0,1046.0,8614.0,0.0,-3293.0,3870.0,-8464.0,-13077.0,39.0,8.0,4.0,-43.0,-82.0,90.0,14.0,-36.0,2.0875473022460938
430,7811.0,1046.0,8614.0,0.0,-3293.0,3870.0,-8464.0,-13077.0,39.0,8.0,4.0,-43.0,-82.0,90.0,14.0,-36.0,2.0950496196746826
431,7811.0,1046.0,8614.0,0.0,-3293.0,3870.0,-8464.0,-13077.0,-2.0,-37.0,-23.0,1.0,54.0,43.0,-39.0,-17.0,2.10359525680542
432,7811.0,1046.0,8614.0,0.0,-3293.0,3870.0,-8464.0,-13077.0,-20.0,-14.0,-80.0,-41.0,-115.0,-128.0,-21.0,-34.0,2.1061363220214844
433,6234.0,1946.0,5947.0,0.0,-2517.0,3359.0,-9630.0,-12574.0,-20.0,-14.0,-80.0,-41.0,-115.0,-128.0,-21.0,-34.0,2.108330726623535
434,6234.0,1946.0,5947.0,0.0,-2517.0,3359.0,-9630.0,-12574.0,27.0,25.0,45.0,35.0,71.0,102.0,-11.0,15.0,2.118272304534912
435,6234.0,1946.0,5947.0,0.0,-2517.0,3359.0,-9630.0,-12574.0,-71.0,-31.0,-23.0,-5.0,127.0,-96.0,29.0,6.0,2.1205270290374756
436,1869.0,4096.0,5792.0,0.0,-1356.0,3250.0,-10178.0,-12347.0,-71.0,-31.0,-23.0,-5.0,127.0,-96.0,29.0,6.0,2.1244866847991943
437,1869.0,4096.0,5792.0,0.0,-1356.0,3250.0,-10178.0,-12347.0,-2.0,55.0,60.0,80.0,100.0,-127.0,-71.0,-19.0,2.132645845413208
438,1869.0,4096.0,5792.0,0.0,-1356.0,3250.0,-10178.0,-12347.0,53.0,-39.0,-60.0,-9.0,-103.0,-15.0,16.0,15.0,2.140263795852661
439,5806.0,-2193.0,8125.0,0.0,-707.0,1955.0,-11147.0,-11827.0,53.0,-39.0,-60.0,-9.0,-103.0,-15.0,16.0,15.0,2.1479480266571045
440,5806.0,-2193.0,8125.0,0.0,-707.0,1955.0,-11147.0,-11827.0,23.0,42.0,55.0,21.0,57.0,-19.0,40.0,6.0,2.155128002166748
441,5806.0,-2193.0,8125.0,0.0,-707.0,1955.0,-11147.0,-11827.0,1.0,6.0,16.0,82.0,-23.0,-18.0,4.0,25.0,2.1631014347076416
442,-2075.0,-3808.0,3833.0,0.0,-630.0,1012.0,-10910.0,-12166.0,1.0,6.0,16.0,82.0,-23.0,-18.0,4.0,25.0,2.1649160385131836
443,-2075.0,-3808.0,3833.0,0.0,-630.0,1012.0,-10910.0,-12166.0,26.0,-101.0,-104.0,-95.0,-90.0,-18.0,23.0,55.0,2.1877386569976807
444,-2075.0,-3808.0,3833.0,0.0,-630.0,1012.0,-10910.0,-12166.0,26.0,-101.0,-104.0,-95.0,-90.0,-18.0,23.0,55.0,2.1895618438720703
445,-2075.0,-3808.0,3833.0,0.0,-630.0,1012.0,-10910.0,-12166.0,0.0,58.0,18.0,-97.0,127.0,-35.0,61.0,7.0,2.191041946411133
446,-5035.0,-397.0,6723.0,0.0,234.0,237.0,-10292.0,-12744.0,0.0,58.0,18.0,-97.0,127.0,-35.0,61.0,7.0,2.1928398609161377
447,-5035.0,-397.0,6723.0,0.0,234.0,237.0,-10292.0,-12744.0,-24.0,0.0,-28.0,4.0,30.0,-45.0,-7.0,-51.0,2.2116310596466064
448,-5035.0,-397.0,6723.0,0.0,234.0,237.0,-10292.0,-12744.0,48.0,19.0,47.0,35.0,-38.0,42.0,23.0,24.0,2.214794635772705
449,-623.0,-1125.0,4604.0,0.0,748.0,-437.0,-10207.0,-12788.0,48.0,19.0,47.0,35.0,-38.0,42.0,23.0,24.0,2.2179596424102783
450,-623.0,-1125.0,4604.0,0.0,748.0,-437.0,-10207.0,-12788.0,-45.0,-18.0,-15.0,27.0,-126.0,50.0,-12.0,8.0,2.2208850383758545
451,-623.0,-1125.0,4604.0,0.0,748.0,-437.0,-10207.0,-12788.0,-13.0,12.0,44.0,58.0,-53.0,27.0,29.0,2.0,2.222729206085205
452,3179.0,-1432.0,2886.0,0.0,1006.0,-931.0,-10635.0,-12388.0,-13.0,12.0,44.0,58.0,-53.0,27.0,29.0,2.0,2.2245235443115234
453,3179.0,-1432.0,2886.0,0.0,1006.0,-931.0,-10635.0,-12388.0,2.0,-2.0,-43.0,-11.0,-128.0,7.0,57.0,73.0,2.238272190093994
454,3179.0,-1432.0,2886.0,0.0,1006.0,-931.0,-10635.0,-12388.0,-32.0,13.0,32.0,-6.0,104.0,72.0,-29.0,-29.0,2.240090847015381
455,4238.0,-616.0,1987.0,0.0,1244.0,-1197.0,-11180.0,-11853.0,-32.0,13.0,32.0,-6.0,104.0,72.0,-29.0,-29.0,2.244898557662964
456,4238.0,-616.0,1987.0,0.0,1244.0,-1197.0,-11180.0,-11853.0,9.0,-22.0,-36.0,-31.0,56.0,-25.0,0.0,-6.0,2.252810478210449
457,4238.0,-616.0,1987.0,0.0,1244.0,-1197.0,-11180.0,-11853.0,9.0,17.0,31.0,48.0,79.0,-12.0,-19.0,-4.0,2.260237216949463
458,1687.0,-78.0,131.0,0.0,1273.0,-1200.0,-11395.0,-11642.0,9.0,17.0,31.0,48.0,79.0,-12.0,-19.0,-4.0,2.2675793170928955
459,1687.0,-78.0,131.0,0.0,1273.0,-1200.0,-11395.0,-11642.0,-15.0,-18.0,-7.0,31.0,100.0,-28.0,1.0,-28.0,2.275578498840332
460,1687.0,-78.0,131.0,0.0,1273.0,-1200.0,-11395.0,-11642.0,-17.0,10.0,4.0,12.0,100.0,41.0,-9.0,-57.0,2.283464193344116
461,-456.0,523.0,77.0,0.0,1299.0,-1114.0,-11377.0,-11666.0,-17.0,10.0,4.0,12.0,100.0,41.0,-9.0,-57.0,2.2852823734283447
462,-456.0,523.0,77.0,0.0,1299.0,-1114.0,-11377.0,-11666.0,10.0,-2.0,-28.0,-74.0,59.0,-36.0,-31.0,-22.0,2.2989048957824707
463,-456.0,523.0,77.0,0.0,1299.0,-1114.0,-11377.0,-11666.0,-20.0,-2.0,-5.0,14.0,40.0,90.0,53.0,49.0,2.3018507957458496
464,-709.0,897.0,102.0,0.0,1345.0,-963.0,-11341.0,-11709.0,-20.0,-2.0,-5.0,14.0,40.0,90.0,53.0,49.0,2.3132824897766113
465,-709.0,897.0,102.0,0.0,1345.0,-963.0,-11341.0,-11709.0,-1.0,3.0,11.0,43.0,11.0,67.0,5.0,-15.0,2.315349578857422
466,-709.0,897.0,102.0,0.0,1345.0,-963.0,-11341.0,-11709.0,13.0,12.0,8.0,-32.0,33.0,28.0,-8.0,-2.0,2.32004451751709
467,-564.0,804.0,-239.0,0.0,1395.0,-834.0,-11303.0,-11749.0,13.0,12.0,8.0,-32.0,33.0,28.0,-8.0,-2.0,2.327418327331543
468,-564.0,804.0,-239.0,0.0,1395.0,-834.0,-11303.0,-11749.0,-10.0,-11.0,7.0,-3.0,17.0,1.0,-12.0,-8.0,2.3354849815368652
469,-564.0,804.0,-239.0,0.0,1395.0,-834.0,-11303.0,-11749.0,-3.0,-2.0,27.0,51.0,3.0,23.0,31.0,6.0,2.3431859016418457
470,-90.0,513.0,-502.0,0.0,1404.0,-722.0,-11307.0,-11752.0,-3.0,-2.0,27.0,51.0,3.0,23.0,31.0,6.0,2.3450043201446533
471,-90.0,513.0,-502.0,0.0,1404.0,-722.0,-11307.0,-11752.0,-30.0,-6.0,7.0,28.0,-13.0,114.0,-31.0,-77.0,2.3582770824432373
472,-90.0,513.0,-502.0,0.0,1404.0,-722.0,-11307.0,-11752.0,-5.0,10.0,16.0,4.0,-38.0,-62.0,-40.0,-36.0,2.3608968257904053
473,-186.0,301.0,-276.0,0.0,1427.0,-677.0,-11281.0,-11777.0,-5.0,10.0,16.0,4.0,-38.0,-62.0,-40.0,-36.0,2.364894151687622
474,-186.0,301.0,-276.0,0.0,1427.0,-677.0,-11281.0,-11777.0,-16.0,-27.0,-47.0,117.0,-22.0,-58.0,-22.0,2.0,2.372514009475708
475,-186.0,301.0,-276.0,0.0,1427.0,-677.0,-11281.0,-11777.0,5.0,-2.0,31.0,29.0,-34.0,-13.0,-20.0,14.0,2.38018798828125
476,-206.0,211.0,-70.0,0.0,1470.0,-674.0,-11258.0,-11794.0,5.0,-2.0,31.0,29.0,-34.0,-13.0,-20.0,14.0,2.3871212005615234
477,-206.0,211.0,-70.0,0.0,1470.0,-674.0,-11258.0,-11794.0,10.0,24.0,27.0,28.0,-11.0,-53.0,1.0,0.0,2.395551919937134
478,-206.0,211.0,-70.0,0.0,1470.0,-674.0,-11258.0,-11794.0,6.0,-13.0,-8.0,-4.0,55.0,-41.0,-19.0,41.0,2.4031364917755127
479,66.0,151.0,197.0,0.0,1542.0,-709.0,-11273.0,-11768.0,6.0,-13.0,-8.0,-4.0,55.0,-41.0,-19.0,41.0,2.404956579208374
480,66.0,151.0,197.0,0.0,1542.0,-709.0,-11273.0,-11768.0,-20.0,-4.0,-21.0,-45.0,-3.0,-31.0,-80.0,-67.0,2.4179575443267822
481,66.0,151.0,197.0,0.0,1542.0,-709.0,-11273.0,-11768.0,27.0,17.0,-5.0,11.0,65.0,35.0,28.0,-4.0,2.420128345489502
482,111.0,115.0,36.0,0.0,1565.0,-702.0,-11292.0,-11748.0,27.0,17.0,-5.0,11.0,65.0,35.0,28.0,-4.0,2.424959182739258
483,111.0,115.0,36.0,0.0,1565.0,-702.0,-11292.0,-11748.0,1.0,2.0,-13.0,-113.0,-61.0,67.0,51.0,29.0,2.432253360748291
484,111.0,115.0,36.0,0.0,1565.0,-702.0,-11292.0,-11748.0,-2.0,-9.0,-2.0,-1.0,-31.0,38.0,-16.0,35.0,2.439842700958252
485,18.0,57.0,-63.0,0.0,1553.0,-675.0,-11292.0,-11751.0,-2.0,-9.0,-2.0,-1.0,-31.0,38.0,-16.0,35.0,2.447296142578125
486,18.0,57.0,-63.0,0.0,1553.0,-675.0,-11292.0,-11751.0,0.0,2.0,30.0,52.0,-17.0,-65.0,3.0,-22.0,2.455007791519165
487,18.0,57.0,-63.0,0.0,1553.0,-675.0,-11292.0,-11751.0,18.0,12.0,16.0,57.0,6.0,-8.0,5.0,19.0,2.464933395385742
488,74.0,-16.0,-73.0,0.0,1545.0,-669.0,-11301.0,-11744.0,18.0,12.0,16.0,57.0,6.0,-8.0,5.0,19.0,2.4679408073425293
489,74.0,-16.0,-73.0,0.0,1545.0,-669.0,-11301.0,-11744.0,-6.0,-25.0,-8.0,40.0,-36.0,6.0,22.0,-12.0,2.479992628097534
490,74.0,-16.0,-73.0,0.0,1545.0,-669.0,-11301.0,-11744.0,-5.0,-6.0,-9.0,33.0,-16.0,-31.0,2.0,0.0,2.48199462890625
491,115.0,18.0,-249.0,0.0,1519.0,-637.0,-11320.0,-11730.0,-5.0,-6.0,-9.0,33.0,-16.0,-31.0,2.0,0.0,2.493474245071411
492,115.0,18.0,-249.0,0.0,1519.0,-637.0,-11320.0,-11730.0,13.0,10.0,24.0,37.0,43.0,22.0,-11.0,-4.0,2.4954755306243896
493,115.0,18.0,-249.0,0.0,1519.0,-637.0,-11320.0,-11730.0,-19.0,-1.0,-7.0,-34.0,-111.0,-79.0,-28.0,-54.0,2.500105857849121
494,-73.0,11.0,-265.0,0.0,1488.0,-606.0,-11308.0,-11747.0,-19.0,-1.0,-7.0,-34.0,-111.0,-79.0,-28.0,-54.0,2.5079636573791504
495,-73.0,11.0,-265.0,0.0,1488.0,-606.0,-11308.0,-11747.0,1.0,1.0,1.0,-56.0,44.0,12.0,32.0,39.0,2.515275239944458
496,-73.0,11.0,-265.0,0.0,1488.0,-606.0,-11308.0,-11747.0,-2.0,14.0,-1.0,-95.0,45.0,33.0,11.0,-11.0,2.5232152938842773
497,-134.0,-11.0,-119.0,0.0,1473.0,-597.0,-11289.0,-11768.0,-2.0,14.0,-1.0,-95.0,45.0,33.0,11.0,-11.0,2.5264620780944824
498,-134.0,-11.0,-119.0,0.0,1473.0,-597.0,-11289.0,-11768.0,14.0,3.0,-4.0,-35.0,43.0,-16.0,49.0,68.0,2.5392751693725586
499,-134.0,-11.0,-119.0,0.0,1473.0,-597.0,-11289.0,-11768.0,-4.0,-2.0,-17.0,36.0,11.0,-30.0,-4.0,-14.0,2.5436582565307617
500,-119.0,-30.0,-29.0,0.0,1477.0,-613.0,-11278.0,-11777.0,-4.0,-2.0,-17.0,36.0,11.0,-30.0,-4.0,-14.0,2.5469934940338135
501,-119.0,-30.0,-29.0,0.0,1477.0,-613.0,-11278.0,-11777.0,16.0,8.0,11.0,-8.0,-10.0,-60.0,15.0,33.0,2.5530807971954346
502,-119.0,-30.0,-29.0,0.0,1477.0,-613.0,-11278.0,-11777.0,-10.0,-9.0,8.0,17.0,29.0,7.0,-1.0,-44.0,2.559378147125244
503,5.0,-54.0,-23.0,0.0,1480.0,-632.0,-11286.0,-11769.0,-10.0,-9.0,8.0,17.0,29.0,7.0,-1.0,-44.0,2.567545175552368
504,5.0,-54.0,-23.0,0.0,1480.0,-632.0,-11286.0,-11769.0,1.0,3.0,-8.0,-38.0,31.0,44.0,3.0,10.0,2.5744621753692627
505,5.0,-54.0,-23.0,0.0,1480.0,-632.0,-11286.0,-11769.0,-9.0,-17.0,-15.0,-5.0,-9.0,-13.0,-26.0,-25.0,2.583527088165283
506,32.0,-54.0,-49.0,0.0,1476.0,-642.0,-11294.0,-11761.0,-9.0,-17.0,-15.0,-5.0,-9.0,-13.0,-26.0,-25.0,2.5864999294281006
507,32.0,-54.0,-49.0,0.0,1476.0,-642.0,-11294.0,-11761.0,10.0,-5.0,-1.0,38.0,76.0,-54.0,23.0,45.0,2.599578857421875
508,32.0,-54.0,-49.0,0.0,1476.0,-642.0,-11294.0,-11761.0,-1.0,22.0,9.0,3.0,-23.0,26.0,8.0,10.0,2.6047797203063965
509,-24.0,-28.0,-16.0,0.0,1477.0,-650.0,-11289.0,-11765.0,-1.0,22.0,9.0,3.0,-23.0,26.0,8.0,10.0,2.60841965675354
510,-24.0,-28.0,-16.0,0.0,1477.0,-650.0,-11289.0,-11765.0,23.0,2.0,-5.0,-23.0,-59.0,-38.0,-25.0,-33.0,2.6129395961761475
511,-24.0,-28.0,-16.0,0.0,1477.0,-650.0,-11289.0,-11765.0,-9.0,-1.0,5.0,13.0,-34.0,-8.0,12.0,18.0,2.6199705600738525
512,-18.0,-43.0,52.0,0.0,1483.0,-667.0,-11285.0,-11767.0,-9.0,-1.0,5.0,13.0,-34.0,-8.0,12.0,18.0,2.6273539066314697
513,-18.0,-43.0,52.0,0.0,1483.0,-667.0,-11285.0,-11767.0,-12.0,-5.0,-20.0,4.0,55.0,84.0,10.0,40.0,2.644667148590088
514,-18.0,-43.0,52.0,0.0,1483.0,-667.0,-11285.0,-11767.0,10.0,13.0,8.0,-27.0,-45.0,-53.0,-43.0,-38.0,2.648045301437378
515,-56.0,-27.0,59.0,0.0,1493.0,-685.0,-11276.0,-11773.0,10.0,13.0,8.0,-27.0,-45.0,-53.0,-43.0,-38.0,2.651611089706421
516,-56.0,-27.0,59.0,0.0,1493.0,-685.0,-11276.0,-11773.0,-14.0,-15.0,-29.0,-50.0,22.0,-8.0,-3.0,5.0,2.6682584285736084
517,-56.0,-27.0,59.0,0.0,1493.0,-685.0,-11276.0,-11773.0,-5.0,13.0,19.0,-20.0,73.0,34.0,19.0,-1.0,2.6712779998779297
518,-61.0,-14.0,50.0,0.0,1502.0,-698.0,-11268.0,-11779.0,-5.0,13.0,19.0,-20.0,73.0,34.0,19.0,-1.0,2.6743104457855225
519,-61.0,-14.0,50.0,0.0,1502.0,-698.0,-11268.0,-11779.0,-6.0,-12.0,4.0,27.0,-34.0,8.0,2.0,-38.0,2.6810123920440674
520,-61.0,-14.0,50.0,0.0,1502.0,-698.0,-11268.0,-11779.0,-6.0,-13.0,-6.0,-16.0,-32.0,17.0,21.0,6.0,2.682852029800415
521,2.0,17.0,20.0,0.0,1508.0,-700.0,-11270.0,-11776.0,-6.0,-13.0,-6.0,-16.0,-32.0,17.0,21.0,6.0,2.6873838901519775
522,2.0,17.0,20.0,0.0,1508.0,-700.0,-11270.0,-11776.0,-4.0,14.0,23.0,24.0,-62.0,29.0,-5.0,-32.0,2.695711612701416
523,2.0,17.0,20.0,0.0,1508.0,-700.0,-11270.0,-11776.0,-7.0,-8.0,-8.0,41.0,-5.0,56.0,8.0,10.0,2.7027676105499268
524,44.0,26.0,2.0,0.0,1509.0,-694.0,-11280.0,-11767.0,-7.0,-8.0,-8.0,41.0,-5.0,56.0,8.0,10.0,2.7046802043914795
525,44.0,26.0,2.0,0.0,1509.0,-694.0,-11280.0,-11767.0,-7.0,-4.0,-24.0,-62.0,-34.0,-3.0,4.0,29.0,2.7180304527282715
526,44.0,26.0,2.0,0.0,1509.0,-694.0,-11280.0,-11767.0,-3.0,-11.0,-1.0,45.0,-12.0,9.0,19.0,9.0,2.719841957092285
527,60.0,31.0,-10.0,0.0,1508.0,-685.0,-11293.0,-11755.0,-3.0,-11.0,-1.0,45.0,-12.0,9.0,19.0,9.0,2.7254412174224854
528,60.0,31.0,-10.0,0.0,1508.0,-685.0,-11293.0,-11755.0,-2.0,6.0,-1.0,5.0,-20.0,-19.0,-16.0,-21.0,2.7326912879943848
529,60.0,31.0,-10.0,0.0,1508.0,-685.0,-11293.0,-11755.0,-10.0,-13.0,-26.0,-25.0,-11.0,13.0,3.0,11.0,2.740323305130005
530,42.0,25.0,-11.0,0.0,1508.0,-678.0,-11303.0,-11746.0,-10.0,-13.0,-26.0,-25.0,-11.0,13.0,3.0,11.0,2.747375965118408
531,42.0,25.0,-11.0,0.0,1508.0,-678.0,-11303.0,-11746.0,14.0,14.0,2.0,-68.0,23.0,10.0,6.0,13.0,2.755650520324707
532,42.0,25.0,-11.0,0.0,1508.0,-678.0,-11303.0,-11746.0,-5.0,-10.0,-1.0,-6.0,13.0,-14.0,-12.0,-5.0,2.764127254486084
533,131.0,-1.0,1.0,0.0,1507.0,-675.0,-11325.0,-11725.0,-5.0,-10.0,-1.0,-6.0,13.0,-14.0,-12.0,-5.0,2.771155595779419
534,131.0,-1.0,1.0,0.0,1507.0,-675.0,-11325.0,-11725.0,8.0,5.0,12.0,33.0,7.0,15.0,2.0,-13.0,2.7783079147338867
535,131.0,-1.0,1.0,0.0,1507.0,-675.0,-11325.0,-11725.0,5.0,-6.0,-14.0,22.0,-1.0,-10.0,-3.0,-2.0,2.780177116394043
536,123.0,21.0,-13.0,0.0,1511.0,-671.0,-11342.0,-11708.0,5.0,-6.0,-14.0,22.0,-1.0,-10.0,-3.0,-2.0,2.785080909729004
537,123.0,21.0,-13.0,0.0,1511.0,-671.0,-11342.0,-11708.0,-1.0,6.0,23.0,0.0,-17.0,0.0,-3.0,-28.0,2.7925209999084473
538,123.0,21.0,-13.0,0.0,1511.0,-671.0,-11342.0,-11708.0,-12.0,-9.0,-17.0,-109.0,-29.0,-85.0,4.0,4.0,2.8001761436462402
539,138.0,6.0,-27.0,0.0,1510.0,-666.0,-11360.0,-11691.0,-12.0,-9.0,-17.0,-109.0,-29.0,-85.0,4.0,4.0,2.807788372039795
540,138.0,6.0,-27.0,0.0,1510.0,-666.0,-11360.0,-11691.0,-2.0,-9.0,-3.0,53.0,21.0,21.0,-13.0,17.0,2.8155014514923096
541,138.0,6.0,-27.0,0.0,1510.0,-666.0,-11360.0,-11691.0,10.0,13.0,9.0,16.0,24.0,33.0,-1.0,-4.0,2.823040246963501
542,110.0,5.0,-41.0,0.0,1507.0,-659.0,-11372.0,-11680.0,10.0,13.0,9.0,16.0,24.0,33.0,-1.0,-4.0,2.8248677253723145
543,110.0,5.0,-41.0,0.0,1507.0,-659.0,-11372.0,-11680.0,-2.0,4.0,5.0,13.0,21.0,-37.0,-15.0,-13.0,2.8384957313537598
544,110.0,5.0,-41.0,0.0,1507.0,-659.0,-11372.0,-11680.0,3.0,10.0,-3.0,-16.0,-59.0,-2.0,-5.0,18.0,2.841088056564331
545,53.0,8.0,-64.0,0.0,1501.0,-648.0,-11375.0,-11678.0,3.0,10.0,-3.0,-16.0,-59.0,-2.0,-5.0,18.0,2.8457722663879395
546,53.0,8.0,-64.0,0.0,1501.0,-648.0,-11375.0,-11678.0,-13.0,-16.0,-2.0,16.0,7.0,-5.0,-15.0,-25.0,2.8615496158599854
547,53.0,8.0,-64.0,0.0,1501.0,-648.0,-11375.0,-11678.0,-6.0,-5.0,-14.0,-39.0,9.0,1.0,-12.0,-19.0,2.8700311183929443
548,89.0,-10.0,-53.0,0.0,1494.0,-642.0,-11388.0,-11668.0,-6.0,-5.0,-14.0,-39.0,9.0,1.0,-12.0,-19.0,2.8740620613098145
549,89.0,-10.0,-53.0,0.0,1494.0,-642.0,-11388.0,-11668.0,8.0,-4.0,-1.0,38.0,-11.0,3.0,-5.0,38.0,2.8788864612579346
550,89.0,-10.0,-53.0,0.0,1494.0,-642.0,-11388.0,-11668.0,-12.0,0.0,6.0,-45.0,60.0,-16.0,1.0,-16.0,2.8820931911468506
551,102.0,15.0,-21.0,0.0,1495.0,-638.0,-11404.0,-11652.0,-12.0,0.0,6.0,-45.0,60.0,-16.0,1.0,-16.0,2.8911192417144775
552,102.0,15.0,-21.0,0.0,1495.0,-638.0,-11404.0,-11652.0,-8.0,-4.0,-10.0,14.0,15.0,-10.0,10.0,-15.0,2.8982672691345215
553,102.0,15.0,-21.0,0.0,1495.0,-638.0,-11404.0,-11652.0,-4.0,-1.0,6.0,36.0,36.0,29.0,6.0,6.0,2.9002368450164795
554,93.0,35.0,-32.0,0.0,1498.0,-629.0,-11418.0,-11639.0,-4.0,-1.0,6.0,36.0,36.0,29.0,6.0,6.0,2.9051644802093506
555,93.0,35.0,-32.0,0.0,1498.0,-629.0,-11418.0,-11639.0,0.0,3.0,4.0,14.0,-2.0,-9.0,-2.0,-13.0,2.912687301635742
556,93.0,35.0,-32.0,0.0,1498.0,-629.0,-11418.0,-11639.0,6.0,7.0,2.0,36.0,-8.0,-2.0,-2.0,1.0,2.9198169708251953
557,42.0,24.0,-46.0,0.0,1497.0,-622.0,-11422.0,-11635.0,6.0,7.0,2.0,36.0,-8.0,-2.0,-2.0,1.0,2.9278206825256348
558,42.0,24.0,-46.0,0.0,1497.0,-622.0,-11422.0,-11635.0,-1.0,2.0,-1.0,10.0,-3.0,-7.0,1.0,-8.0,2.9432458877563477
559,42.0,24.0,-46.0,0.0,1497.0,-622.0,-11422.0,-11635.0,4.0,3.0,9.0,7.0,-8.0,-20.0,-17.0,-4.0,2.945054531097412
560,46.0,6.0,-37.0,0.0,1494.0,-615.0,-11427.0,-11631.0,4.0,3.0,9.0,7.0,-8.0,-20.0,-17.0,-4.0,2.9500632286071777
561,46.0,6.0,-37.0,0.0,1494.0,-615.0,-11427.0,-11631.0,-12.0,-11.0,-11.0,-2.0,2.0,23.0,-8.0,-8.0,2.957904577255249
562,46.0,6.0,-37.0,0.0,1494.0,-615.0,-11427.0,-11631.0,11.0,2.0,2.0,5.0,4.0,13.0,5.0,18.0,2.9598729610443115
563,89.0,-18.0,-45.0,0.0,1487.0,-612.0,-11440.0,-11619.0,11.0,2.0,2.0,5.0,4.0,13.0,5.0,18.0,2.9809365272521973
564,89.0,-18.0,-45.0,0.0,1487.0,-612.0,-11440.0,-11619.0,0.0,5.0,-13.0,-42.0,26.0,1.0,13.0,12.0,2.989994764328003
565,89.0,-18.0,-45.0,0.0,1487.0,-612.0,-11440.0,-11619.0,-3.0,0.0,1.0,58.0,-40.0,-25.0,-4.0,-2.0,2.9928245544433594
566,41.0,-5.0,-60.0,0.0,1479.0,-604.0,-11447.0,-11614.0,-3.0,0.0,1.0,58.0,-40.0,-25.0,-4.0,-2.0,2.9946672916412354
567,41.0,-5.0,-60.0,0.0,1479.0,-604.0,-11447.0,-11614.0,-1.0,5.0,15.0,2.0,14.0,12.0,-15.0,-10.0,2.996534585952759
568,41.0,-5.0,-60.0,0.0,1479.0,-604.0,-11447.0,-11614.0,-1.0,-7.0,-10.0,4.0,-5.0,30.0,3.0,-2.0,3.00302791595459
569,12.0,10.0,-64.0,0.0,1472.0,-593.0,-11447.0,-11615.0,-1.0,-7.0,-10.0,4.0,-5.0,30.0,3.0,-2.0,3.0102157592773438
570,12.0,10.0,-64.0,0.0,1472.0,-593.0,-11447.0,-11615.0,-3.0,-8.0,-9.0,44.0,-6.0,-18.0,-2.0,0.0,3.018537759780884
571,12.0,10.0,-64.0,0.0,1472.0,-593.0,-11447.0,-11615.0,3.0,-1.0,1.0,5.0,13.0,-7.0,-11.0,0.0,3.026163101196289
572,32.0,3.0,-49.0,0.0,1464.0,-584.0,-11451.0,-11613.0,3.0,-1.0,1.0,5.0,13.0,-7.0,-11.0,0.0,3.028749704360962
573,32.0,3.0,-49.0,0.0,1464.0,-584.0,-11451.0,-11613.0,7.0,3.0,-9.0,-64.0,-95.0,-7.0,-7.0,3.0,3.0331737995147705
574,32.0,3.0,-49.0,0.0,1464.0,-584.0,-11451.0,-11613.0,3.0,5.0,16.0,45.0,-2.0,27.0,1.0,-9.0,3.0488245487213135
575,44.0,-3.0,-52.0,0.0,1456.0,-575.0,-11456.0,-11609.0,3.0,5.0,16.0,45.0,-2.0,27.0,1.0,-9.0,3.051853895187378
576,44.0,-3.0,-52.0,0.0,1456.0,-575.0,-11456.0,-11609.0,-7.0,-10.0,-8.0,48.0,-43.0,21.0,-10.0,-7.0,3.0558719635009766
577,44.0,-3.0,-52.0,0.0,1456.0,-575.0,-11456.0,-11609.0,0.0,2.0,3.0,7.0,6.0,-41.0,-4.0,10.0,3.062706232070923
578,9.0,0.0,-69.0,0.0,1445.0,-564.0,-11456.0,-11611.0,0.0,2.0,3.0,7.0,6.0,-41.0,-4.0,10.0,3.069835901260376
579,9.0,0.0,-69.0,0.0,1445.0,-564.0,-11456.0,-11611.0,5.0,-7.0,-1.0,-6.0,-32.0,-3.0,2.0,0.0,3.0777394771575928
580,9.0,0.0,-69.0,0.0,1445.0,-564.0,-11456.0,-11611.0,12.0,15.0,-24.0,-18.0,6.0,25.0,16.0,29.0,3.0851004123687744
581,26.0,-16.0,-63.0,0.0,1432.0,-554.0,-11459.0,-11610.0,12.0,15.0,-24.0,-18.0,6.0,25.0,16.0,29.0,3.09397554397583
582,26.0,-16.0,-63.0,0.0,1432.0,-554.0,-11459.0,-11610.0,-8.0,-7.0,1.0,-14.0,-22.0,-20.0,10.0,10.0,3.098468065261841
583,26.0,-16.0,-63.0,0.0,1432.0,-554.0,-11459.0,-11610.0,-12.0,-14.0,1.0,14.0,20.0,0.0,1.0,-3.0,3.109302520751953
584,24.0,-18.0,-53.0,0.0,1422.0,-548.0,-11461.0,-11610.0,-12.0,-14.0,1.0,14.0,20.0,0.0,1.0,-3.0,3.1127703189849854
585,24.0,-18.0,-53.0,0.0,1422.0,-548.0,-11461.0,-11610.0,9.0,22.0,32.0,-50.0,39.0,38.0,4.0,3.0,3.1163253784179688
586,24.0,-18.0,-53.0,0.0,1422.0,-548.0,-11461.0,-11610.0,10.0,-6.0,-2.0,-30.0,30.0,0.0,-14.0,10.0,3.1235878467559814
587,-20.0,-5.0,-47.0,0.0,1416.0,-542.0,-11455.0,-11616.0,10.0,-6.0,-2.0,-30.0,30.0,0.0,-14.0,10.0,3.1294167041778564
588,-20.0,-5.0,-47.0,0.0,1416.0,-542.0,-11455.0,-11616.0,-7.0,-8.0,-9.0,12.0,53.0,22.0,15.0,3.0,3.1385934352874756
589,-20.0,-5.0,-47.0,0.0,1416.0,-542.0,-11455.0,-11616.0,-8.0,-13.0,6.0,-13.0,-32.0,12.0,-8.0,-7.0,3.1468095779418945
590,2.0,-15.0,-49.0,0.0,1408.0,-538.0,-11452.0,-11620.0,-8.0,-13.0,6.0,-13.0,-32.0,12.0,-8.0,-7.0,3.1494972705841064
591,2.0,-15.0,-49.0,0.0,1408.0,-538.0,-11452.0,-11620.0,8.0,0.0,2.0,17.0,53.0,17.0,7.0,10.0,3.152038097381592
592,2.0,-15.0,-49.0,0.0,1408.0,-538.0,-11452.0,-11620.0,1.0,-6.0,-11.0,-34.0,7.0,-10.0,-6.0,-6.0,3.1598868370056152
593,51.0,-17.0,-62.0,0.0,1400.0,-533.0,-11457.0,-11616.0,1.0,-6.0,-11.0,-34.0,7.0,-10.0,-6.0,-6.0,3.1676812171936035
594,51.0,-17.0,-62.0,0.0,1400.0,-533.0,-11457.0,-11616.0,-2.0,2.0,4.0,32.0,10.0,-1.0,-3.0,0.0,3.1752402782440186
595,51.0,-17.0,-62.0,0.0,1400.0,-533.0,-11457.0,-11616.0,-3.0,1.0,12.0,62.0,2.0,1.0,-9.0,-30.0,3.19152569770813
596,64.0,-18.0,-92.0,0.0,1386.0,-522.0,-11466.0,-11610.0,-3.0,1.0,12.0,62.0,2.0,1.0,-9.0,-30.0,3.1970818042755127
597,64.0,-18.0,-92.0,0.0,1386.0,-522.0,-11466.0,-11610.0,-4.0,-8.0,-19.0,-42.0,-7.0,2.0,-4.0,-5.0,3.200955867767334
598,64.0,-18.0,-92.0,0.0,1386.0,-522.0,-11466.0,-11610.0,-2.0,4.0,2.0,-11.0,3.0,-20.0,-4.0,-8.0,3.2060840129852295
599,24.0,6.0,-66.0,0.0,1377.0,-510.0,-11466.0,-11612.0,-2.0,4.0,2.0,-11.0,3.0,-20.0,-4.0,-8.0,3.2080206871032715
600,24.0,6.0,-66.0,0.0,1377.0,-510.0,-11466.0,-11612.0,-6.0,-5.0,-2.0,39.0,5.0,-13.0,-1.0,-10.0,3.2127480506896973
601,24.0,6.0,-66.0,0.0,1377.0,-510.0,-11466.0,-11612.0,0.0,6.0,23.0,9.0,-41.0,-3.0,5.0,0.0,3.2205898761749268
602,-12.0,-8.0,-39.0,0.0,1369.0,-504.0,-11462.0,-11616.0,0.0,6.0,23.0,9.0,-41.0,-3.0,5.0,0.0,3.227675437927246
603,-12.0,-8.0,-39.0,0.0,1369.0,-504.0,-11462.0,-11616.0,0.0,4.0,11.0,5.0,39.0,-32.0,-10.0,1.0,3.235037088394165
604,-12.0,-8.0,-39.0,0.0,1369.0,-504.0,-11462.0,-11616.0,-1.0,3.0,-19.0,-6.0,31.0,-10.0,18.0,11.0,3.2418951988220215
605,-18.0,-5.0,-40.0,0.0,1363.0,-500.0,-11459.0,-11621.0,-1.0,3.0,-19.0,-6.0,31.0,-10.0,18.0,11.0,3.2505345344543457
606,-18.0,-5.0,-40.0,0.0,1363.0,-500.0,-11459.0,-11621.0,2.0,2.0,10.0,32.0,-50.0,-7.0,-2.0,-13.0,3.258279800415039
607,-18.0,-5.0,-40.0,0.0,1363.0,-500.0,-11459.0,-11621.0,-8.0,-5.0,-2.0,-7.0,-5.0,13.0,-12.0,-31.0,3.265336275100708
608,-7.0,-9.0,-60.0,0.0,1355.0,-493.0,-11458.0,-11623.0,-8.0,-5.0,-2.0,-7.0,-5.0,13.0,-12.0,-31.0,3.267249345779419
609,-7.0,-9.0,-60.0,0.0,1355.0,-493.0,-11458.0,-11623.0,-3.0,3.0,-11.0,-17.0,-2.0,2.0,4.0,-4.0,3.2727744579315186
610,-7.0,-9.0,-60.0,0.0,1355.0,-493.0,-11458.0,-11623.0,4.0,2.0,-8.0,-28.0,-36.0,-6.0,3.0,7.0,3.2806267738342285
611,35.0,-5.0,-71.0,0.0,1343.0,-482.0,-11462.0,-11621.0,4.0,2.0,-8.0,-28.0,-36.0,-6.0,3.0,7.0,3.3042962551116943
612,35.0,-5.0,-71.0,0.0,1343.0,-482.0,-11462.0,-11621.0,-6.0,-12.0,-11.0,-32.0,32.0,14.0,5.0,6.0,3.3076837062835693
613,35.0,-5.0,-71.0,0.0,1343.0,-482.0,-11462.0,-11621.0,2.0,1.0,-13.0,-108.0,-44.0,-46.0,-21.0,-17.0,3.3115310668945312
614,30.0,2.0,-64.0,0.0,1334.0,-471.0,-11464.0,-11620.0,2.0,1.0,-13.0,-108.0,-44.0,-46.0,-21.0,-17.0,3.315551519393921
615,30.0,2.0,-64.0,0.0,1334.0,-471.0,-11464.0,-11620.0,2.0,1.0,-13.0,-108.0,-44.0,-46.0,-21.0,-17.0,3.317857503890991
616,30.0,2.0,-64.0,0.0,1334.0,-471.0,-11464.0,-11620.0,3.0,-6.0,-2.0,8.0,10.0,-10.0,1.0,10.0,3.326237440109253
617,30.0,2.0,-64.0,0.0,1334.0,-471.0,-11464.0,-11620.0,-1.0,-8.0,1.0,29.0,7.0,-1.0,10.0,30.0,3.328361988067627
618,22.0,7.0,-43.0,0.0,1327.0,-462.0,-11467.0,-11619.0,-1.0,-8.0,1.0,29.0,7.0,-1.0,10.0,30.0,3.3304011821746826
619,22.0,7.0,-43.0,0.0,1327.0,-462.0,-11467.0,-11619.0,-1.0,-2.0,-2.0,-27.0,-14.0,-11.0,-6.0,-7.0,3.3323540687561035
620,22.0,7.0,-43.0,0.0,1327.0,-462.0,-11467.0,-11619.0,-5.0,1.0,14.0,37.0,8.0,21.0,2.0,-9.0,3.3399062156677246
621,23.0,9.0,-43.0,0.0,1321.0,-452.0,-11468.0,-11618.0,-5.0,1.0,14.0,37.0,8.0,21.0,2.0,-9.0,3.3475546836853027
622,23.0,9.0,-43.0,0.0,1321.0,-452.0,-11468.0,-11618.0,-2.0,8.0,11.0,9.0,-13.0,-18.0,4.0,11.0,3.3546390533447266
623,23.0,9.0,-43.0,0.0,1321.0,-452.0,-11468.0,-11618.0,1.0,6.0,6.0,14.0,17.0,2.0,6.0,9.0,3.37131929397583
624,38.0,13.0,-40.0,0.0,1313.0,-440.0,-11473.0,-11615.0,1.0,6.0,6.0,14.0,17.0,2.0,6.0,9.0,3.373833656311035
625,38.0,13.0,-40.0,0.0,1313.0,-440.0,-11473.0,-11615.0,2.0,2.0,-7.0,4.0,-18.0,18.0,2.0,-1.0,3.3864593505859375
626,38.0,13.0,-40.0,0.0,1313.0,-440.0,-11473.0,-11615.0,-1.0,-2.0,-10.0,-18.0,-23.0,-6.0,-2.0,-3.0,3.388580560684204
627,25.0,-1.0,-37.0,0.0,1305.0,-432.0,-11475.0,-11614.0,-1.0,-2.0,-10.0,-18.0,-23.0,-6.0,-2.0,-3.0,3.3907549381256104
628,25.0,-1.0,-37.0,0.0,1305.0,-432.0,-11475.0,-11614.0,2.0,4.0,4.0,29.0,-6.0,-18.0,-6.0,1.0,3.3929858207702637
629,25.0,-1.0,-37.0,0.0,1305.0,-432.0,-11475.0,-11614.0,-2.0,-4.0,-7.0,-5.0,31.0,7.0,-5.0,2.0,3.4005305767059326
630,6.0,9.0,-33.0,0.0,1300.0,-424.0,-11474.0,-11617.0,-2.0,-4.0,-7.0,-5.0,31.0,7.0,-5.0,2.0,3.407285213470459
631,6.0,9.0,-33.0,0.0,1300.0,-424.0,-11474.0,-11617.0,-7.0,-11.0,-3.0,2.0,56.0,22.0,-1.0,-8.0,3.417269229888916
632,6.0,9.0,-33.0,0.0,1300.0,-424.0,-11474.0,-11617.0,0.0,2.0,7.0,-12.0,-1.0,-16.0,-1.0,-1.0,3.4316141605377197
633,46.0,-13.0,-35.0,0.0,1293.0,-419.0,-11476.0,-11615.0,0.0,2.0,7.0,-12.0,-1.0,-16.0,-1.0,-1.0,3.4359281063079834
634,46.0,-13.0,-35.0,0.0,1293.0,-419.0,-11476.0,-11615.0,1.0,2.0,4.0,24.0,11.0,-5.0,1.0,-6.0,3.441551446914673
635,46.0,-13.0,-35.0,0.0,1293.0,-419.0,-11476.0,-11615.0,4.0,3.0,-11.0,33.0,-11.0,15.0,10.0,6.0,3.445371150970459
636,53.0,-2.0,-37.0,0.0,1285.0,-410.0,-11482.0,-11611.0,4.0,3.0,-11.0,33.0,-11.0,15.0,10.0,6.0,3.447211503982544
637,53.0,-2.0,-37.0,0.0,1285.0,-410.0,-11482.0,-11611.0,7.0,13.0,1.0,-11.0,-37.0,-27.0,8.0,4.0,3.4615392684936523
638,53.0,-2.0,-37.0,0.0,1285.0,-410.0,-11482.0,-11611.0,-4.0,-8.0,6.0,48.0,75.0,16.0,-2.0,-13.0,3.464545249938965
639,42.0,15.0,-26.0,0.0,1282.0,-402.0,-11487.0,-11606.0,-4.0,-8.0,6.0,48.0,75.0,16.0,-2.0,-13.0,3.468050479888916
640,42.0,15.0,-26.0,0.0,1282.0,-402.0,-11487.0,-11606.0,1.0,-6.0,-29.0,-20.0,30.0,0.0,-3.0,4.0,3.4760193824768066
641,42.0,15.0,-26.0,0.0,1282.0,-402.0,-11487.0,-11606.0,6.0,9.0,5.0,-11.0,-18.0,0.0,-5.0,1.0,3.482189893722534
642,41.0,15.0,-22.0,0.0,1277.0,-392.0,-11493.0,-11601.0,6.0,9.0,5.0,-11.0,-18.0,0.0,-5.0,1.0,3.489828109741211
643,41.0,15.0,-22.0,0.0,1277.0,-392.0,-11493.0,-11601.0,-6.0,-5.0,-4.0,-66.0,-27.0,-14.0,-3.0,-6.0,3.4982991218566895
644,41.0,15.0,-22.0,0.0,1277.0,-392.0,-11493.0,-11601.0,-8.0,-18.0,-8.0,2.0,-6.0,-15.0,-11.0,0.0,3.5063140392303467
645,66.0,-7.0,-10.0,0.0,1270.0,-386.0,-11504.0,-11591.0,-8.0,-18.0,-8.0,2.0,-6.0,-15.0,-11.0,0.0,3.514324426651001
646,66.0,-7.0,-10.0,0.0,1270.0,-386.0,-11504.0,-11591.0,3.0,6.0,3.0,-30.0,18.0,-1.0,-3.0,0.0,3.51840877532959
647,66.0,-7.0,-10.0,0.0,1270.0,-386.0,-11504.0,-11591.0,2.0,3.0,7.0,-14.0,-41.0,13.0,9.0,8.0,3.528449058532715
648,42.0,5.0,6.0,0.0,1266.0,-380.0,-11511.0,-11585.0,2.0,3.0,7.0,-14.0,-41.0,13.0,9.0,8.0,3.5305542945861816
649,42.0,5.0,6.0,0.0,1266.0,-380.0,-11511.0,-11585.0,-2.0,-8.0,-4.0,13.0,33.0,31.0,-20.0,-9.0,3.535203218460083
650,42.0,5.0,6.0,0.0,1266.0,-380.0,-11511.0,-11585.0,-4.0,-8.0,-24.0,3.0,-46.0,-8.0,-5.0,-12.0,3.5448508262634277
651,13.0,-1.0,0.0,0.0,1265.0,-379.0,-11512.0,-11584.0,-4.0,-8.0,-24.0,3.0,-46.0,-8.0,-5.0,-12.0,3.559375524520874
652,13.0,-1.0,0.0,0.0,1265.0,-379.0,-11512.0,-11584.0,7.0,13.0,8.0,-15.0,0.0,-18.0,3.0,-16.0,3.563530683517456
653,13.0,-1.0,0.0,0.0,1265.0,-379.0,-11512.0,-11584.0,-2.0,-1.0,-3.0,-25.0,-15.0,20.0,1.0,-3.0,3.568861961364746
654,23.0,-10.0,-4.0,0.0,1261.0,-377.0,-11515.0,-11582.0,-2.0,-1.0,-3.0,-25.0,-15.0,20.0,1.0,-3.0,3.570978879928589
655,23.0,-10.0,-4.0,0.0,1261.0,-377.0,-11515.0,-11582.0,-6.0,-14.0,-10.0,-44.0,-14.0,3.0,-5.0,4.0,3.572906255722046
656,23.0,-10.0,-4.0,0.0,1261.0,-377.0,-11515.0,-11582.0,-4.0,0.0,1.0,-24.0,21.0,15.0,9.0,-4.0,3.5800769329071045
657,39.0,-16.0,-4.0,0.0,1257.0,-376.0,-11521.0,-11576.0,-4.0,0.0,1.0,-24.0,21.0,15.0,9.0,-4.0,3.5871429443359375
658,39.0,-16.0,-4.0,0.0,1257.0,-376.0,-11521.0,-11576.0,4.0,6.0,20.0,-23.0,-24.0,10.0,5.0,11.0,3.6045265197753906
659,39.0,-16.0,-4.0,0.0,1257.0,-376.0,-11521.0,-11576.0,0.0,9.0,8.0,-55.0,2.0,5.0,-1.0,15.0,3.6087567806243896
660,40.0,8.0,-12.0,0.0,1252.0,-369.0,-11525.0,-11572.0,0.0,9.0,8.0,-55.0,2.0,5.0,-1.0,15.0,3.619232654571533
661,40.0,8.0,-12.0,0.0,1252.0,-369.0,-11525.0,-11572.0,-4.0,-5.0,1.0,29.0,-4.0,-11.0,-3.0,-11.0,3.623932123184204
662,40.0,8.0,-12.0,0.0,1252.0,-369.0,-11525.0,-11572.0,-1.0,-12.0,-13.0,12.0,-3.0,-6.0,-3.0,3.0,3.627275228500366
663,36.0,2.0,-7.0,0.0,1248.0,-363.0,-11530.0,-11568.0,-1.0,-12.0,-13.0,12.0,-3.0,-6.0,-3.0,3.0,3.6296210289001465
664,36.0,2.0,-7.0,0.0,1248.0,-363.0,-11530.0,-11568.0,0.0,2.0,8.0,27.0,-33.0,-5.0,5.0,18.0,3.632030725479126
665,36.0,2.0,-7.0,0.0,1248.0,-363.0,-11530.0,-11568.0,-2.0,4.0,0.0,50.0,-29.0,-3.0,0.0,-24.0,3.648601770401001
666,-7.0,4.0,-1.0,0.0,1247.0,-362.0,-11530.0,-11568.0,-2.0,4.0,0.0,50.0,-29.0,-3.0,0.0,-24.0,3.650482654571533
667,-7.0,4.0,-1.0,0.0,1247.0,-362.0,-11530.0,-11568.0,1.0,4.0,-12.0,2.0,45.0,8.0,0.0,0.0,3.655243396759033
668,-7.0,4.0,-1.0,0.0,1247.0,-362.0,-11530.0,-11568.0,4.0,0.0,-1.0,-16.0,-9.0,-5.0,7.0,2.0,3.6627418994903564
669,12.0,19.0,5.0,0.0,1248.0,-358.0,-11532.0,-11567.0,4.0,0.0,-1.0,-16.0,-9.0,-5.0,7.0,2.0,3.6701667308807373
670,12.0,19.0,5.0,0.0,1248.0,-358.0,-11532.0,-11567.0,-6.0,-6.0,-3.0,26.0,-37.0,1.0,-1.0,-7.0,3.688563346862793
671,12.0,19.0,5.0,0.0,1248.0,-358.0,-11532.0,-11567.0,0.0,-3.0,-4.0,-6.0,-2.0,12.0,1.0,4.0,3.694319248199463
672,42.0,5.0,3.0,0.0,1246.0,-354.0,-11539.0,-11560.0,0.0,-3.0,-4.0,-6.0,-2.0,12.0,1.0,4.0,3.699660062789917
673,42.0,5.0,3.0,0.0,1246.0,-354.0,-11539.0,-11560.0,-5.0,-5.0,5.0,11.0,-2.0,3.0,-9.0,2.0,3.70208477973938
674,42.0,5.0,3.0,0.0,1246.0,-354.0,-11539.0,-11560.0,3.0,3.0,10.0,11.0,18.0,-2.0,-1.0,-4.0,3.704115390777588
675,22.0,4.0,-3.0,0.0,1243.0,-350.0,-11545.0,-11555.0,3.0,3.0,10.0,11.0,18.0,-2.0,-1.0,-4.0,3.7070772647857666
676,22.0,4.0,-3.0,0.0,1243.0,-350.0,-11545.0,-11555.0,-1.0,-4.0,-10.0,-21.0,-14.0,-1.0,-1.0,-12.0,3.715106248855591
677,22.0,4.0,-3.0,0.0,1243.0,-350.0,-11545.0,-11555.0,-5.0,-12.0,-4.0,1.0,9.0,-12.0,-6.0,-11.0,3.7225492000579834
678,11.0,-3.0,8.0,0.0,1242.0,-349.0,-11545.0,-11555.0,-5.0,-12.0,-4.0,1.0,9.0,-12.0,-6.0,-11.0,3.748382329940796
679,11.0,-3.0,8.0,0.0,1242.0,-349.0,-11545.0,-11555.0,-5.0,-12.0,-4.0,1.0,9.0,-12.0,-6.0,-11.0,3.7515079975128174
680,11.0,-3.0,8.0,0.0,1242.0,-349.0,-11545.0,-11555.0,6.0,5.0,20.0,22.0,16.0,4.0,2.0,9.0,3.7534918785095215
681,11.0,-3.0,8.0,0.0,1242.0,-349.0,-11545.0,-11555.0,6.0,5.0,-16.0,-21.0,26.0,-1.0,-4.0,-9.0,3.75545334815979
682,40.0,-9.0,14.0,0.0,1240.0,-348.0,-11551.0,-11549.0,6.0,5.0,-16.0,-21.0,26.0,-1.0,-4.0,-9.0,3.7613728046417236
683,40.0,-9.0,14.0,0.0,1240.0,-348.0,-11551.0,-11549.0,-4.0,-8.0,-11.0,2.0,-6.0,-3.0,1.0,-4.0,3.7635796070098877
684,40.0,-9.0,14.0,0.0,1240.0,-348.0,-11551.0,-11549.0,0.0,4.0,12.0,30.0,14.0,5.0,4.0,23.0,3.766059637069702
685,47.0,-15.0,14.0,0.0,1236.0,-348.0,-11559.0,-11541.0,0.0,4.0,12.0,30.0,14.0,5.0,4.0,23.0,3.7681639194488525
686,47.0,-15.0,14.0,0.0,1236.0,-348.0,-11559.0,-11541.0,-2.0,5.0,-4.0,21.0,-36.0,-13.0,3.0,-6.0,3.8028833866119385
687,47.0,-15.0,14.0,0.0,1236.0,-348.0,-11559.0,-11541.0,-2.0,-8.0,1.0,21.0,-18.0,3.0,-6.0,2.0,3.8078272342681885
688,60.0,-18.0,12.0,0.0,1232.0,-347.0,-11571.0,-11529.0,-2.0,-8.0,1.0,21.0,-18.0,3.0,-6.0,2.0,3.8116614818573
689,60.0,-18.0,12.0,0.0,1232.0,-347.0,-11571.0,-11529.0,4.0,-1.0,13.0,-16.0,5.0,-5.0,4.0,8.0,3.8169806003570557
690,60.0,-18.0,12.0,0.0,1232.0,-347.0,-11571.0,-11529.0,-4.0,-3.0,0.0,-10.0,-26.0,4.0,-3.0,-7.0,3.8191683292388916
691,46.0,-23.0,6.0,0.0,1227.0,-347.0,-11579.0,-11522.0,-4.0,-3.0,0.0,-10.0,-26.0,4.0,-3.0,-7.0,3.821009397506714
692,46.0,-23.0,6.0,0.0,1227.0,-347.0,-11579.0,-11522.0,2.0,-1.0,-15.0,29.0,-42.0,6.0,-5.0,-9.0,3.8230245113372803
693,46.0,-23.0,6.0,0.0,1227.0,-347.0,-11579.0,-11522.0,3.0,5.0,22.0,3.0,-38.0,-18.0,-9.0,2.0,3.8250534534454346
694,21.0,-26.0,7.0,0.0,1222.0,-349.0,-11583.0,-11518.0,3.0,5.0,22.0,3.0,-38.0,-18.0,-9.0,2.0,3.8367197513580322
695,21.0,-26.0,7.0,0.0,1222.0,-349.0,-11583.0,-11518.0,-3.0,-4.0,0.0,-1.0,28.0,4.0,1.0,10.0,3.839416742324829
696,21.0,-26.0,7.0,0.0,1222.0,-349.0,-11583.0,-11518.0,-2.0,0.0,-6.0,-3.0,29.0,5.0,4.0,2.0,3.841737747192383
697,7.0,-41.0,6.0,0.0,1217.0,-354.0,-11585.0,-11517.0,-2.0,0.0,-6.0,-3.0,29.0,5.0,4.0,2.0,3.8497636318206787
698,7.0,-41.0,6.0,0.0,1217.0,-354.0,-11585.0,-11517.0,-1.0,5.0,6.0,-5.0,22.0,2.0,-3.0,-4.0,3.8573546409606934
699,7.0,-41.0,6.0,0.0,1217.0,-354.0,-11585.0,-11517.0,4.0,3.0,6.0,-8.0,1.0,3.0,7.0,-3.0,3.882836103439331
