,Gyro 0,Gyro 1,Gyro 2,Label,Orientation 0,Orientation 1,Orientation 2,Orientation 3,Sensor 0,Sensor 1,Sensor 2,Sensor 3,Sensor 4,Sensor 5,Sensor 6,Sensor 7,Timestamp
0,824.0,-129.0,2240.0,0.0,-9705.0,-11502.0,5670.0,-3133.0,-4.0,-6.0,-3.0,-8.0,-41.0,5.0,-16.0,-3.0,1.6689300537109375e-06
1,824.0,-129.0,2240.0,0.0,-9705.0,-11502.0,5670.0,-3133.0,-2.0,2.0,0.0,4.0,6.0,-26.0,-17.0,-1.0,0.0028076171875
2,824.0,-129.0,2240.0,0.0,-9705.0,-11502.0,5670.0,-3133.0,0.0,5.0,3.0,-1.0,36.0,8.0,0.0,1.0,0.005686044692993164
3,824.0,-129.0,2240.0,0.0,-9705.0,-11502.0,5670.0,-3133.0,3.0,4.0,-6.0,-14.0,37.0,13.0,-3.0,-3.0,0.008124351501464844
4,49.0,-336.0,2349.0,0.0,-9412.0,-11297.0,6284.0,-3573.0,3.0,4.0,-6.0,-14.0,37.0,13.0,-3.0,-3.0,0.010415315628051758
5,49.0,-336.0,2349.0,0.0,-9412.0,-11297.0,6284.0,-3573.0,-3.0,-2.0,11.0,2.0,-60.0,-12.0,6.0,-2.0,0.0127716064453125
6,49.0,-336.0,2349.0,0.0,-9412.0,-11297.0,6284.0,-3573.0,4.0,5.0,-12.0,-14.0,-27.0,17.0,9.0,4.0,0.015087127685546875
7,-214.0,-361.0,2120.0,0.0,-9330.0,-11144.0,6585.0,-3724.0,4.0,5.0,-12.0,-14.0,-27.0,17.0,9.0,4.0,0.017363548278808594
8,-214.0,-361.0,2120.0,0.0,-9330.0,-11144.0,6585.0,-3724.0,14.0,13.0,21.0,37.0,67.0,15.0,3.0,9.0,0.019870519638061523
9,-214.0,-361.0,2120.0,0.0,-9330.0,-11144.0,6585.0,-3724.0,1.0,11.0,51.0,14.0,1.0,-3.0,-2.0,-5.0,0.02315068244934082
10,-172.0,-285.0,1749.0,0.0,-9262.0,-11012.0,6826.0,-3848.0,1.0,11.0,51.0,14.0,1.0,-3.0,-2.0,-5.0,0.025945186614990234
11,-172.0,-285.0,1749.0,0.0,-9262.0,-11012.0,6826.0,-3848.0,1.0,15.0,53.0,31.0,-27.0,-13.0,10.0,-3.0,0.028470516204833984
12,-172.0,-285.0,1749.0,0.0,-9262.0,-11012.0,6826.0,-3848.0,-1.0,4.0,-15.0,-23.0,15.0,10.0,3.0,2.0,0.030770063400268555
13,-69.0,-316.0,1517.0,0.0,-9186.0,-10917.0,7030.0,-3934.0,-1.0,4.0,-15.0,-23.0,15.0,10.0,3.0,2.0,0.03300952911376953
14,-69.0,-316.0,1517.0,0.0,-9186.0,-10917.0,7030.0,-3934.0,-3.0,-11.0,-71.0,-42.0,62.0,-26.0,5.0,4.0,0.03537249565124512
15,-69.0,-316.0,1517.0,0.0,-9186.0,-10917.0,7030.0,-3934.0,8.0,-4.0,-40.0,-5.0,-72.0,5.0,7.0,4.0,0.03764605522155762
16,96.0,-401.0,1335.0,0.0,-9088.0,-10867.0,7204.0,-3984.0,8.0,-4.0,-40.0,-5.0,-72.0,5.0,7.0,4.0,0.03989911079406738
17,96.0,-401.0,1335.0,0.0,-9088.0,-10867.0,7204.0,-3984.0,-27.0,-47.0,-10.0,-29.0,-83.0,-86.0,-33.0,-12.0,0.04225873947143555
18,96.0,-401.0,1335.0,0.0,-9088.0,-10867.0,7204.0,-3984.0,-15.0,-22.0,-27.0,-77.0,-10.0,-48.0,-2.0,-8.0,0.0444951057434082
19,-215.0,-414.0,1100.0,0.0,-9039.0,-10815.0,7354.0,-3963.0,-15.0,-22.0,-27.0,-77.0,-10.0,-48.0,-2.0,-8.0,0.04676628112792969
20,-215.0,-414.0,1100.0,0.0,-9039.0,-10815.0,7354.0,-3963.0,9.0,38.0,48.0,73.0,30.0,33.0,8.0,5.0,0.049074411392211914
21,-215.0,-414.0,1100.0,0.0,-9039.0,-10815.0,7354.0,-3963.0,-4.0,0.0,15.0,22.0,120.0,46.0,2.0,-1.0,0.05145597457885742
22,-613.0,-453.0,822.0,0.0,-9054.0,-10747.0,7484.0,-3869.0,-4.0,0.0,15.0,22.0,120.0,46.0,2.0,-1.0,0.05431509017944336
23,-613.0,-453.0,822.0,0.0,-9054.0,-10747.0,7484.0,-3869.0,-9.0,-11.0,-29.0,-26.0,-27.0,29.0,20.0,-5.0,0.05694699287414551
24,-613.0,-453.0,822.0,0.0,-9054.0,-10747.0,7484.0,-3869.0,-2.0,-2.0,28.0,36.0,-76.0,-16.0,-16.0,0.0,0.05956673622131348
25,-615.0,-537.0,455.0,0.0,-9088.0,-10682.0,7586.0,-3768.0,-2.0,-2.0,28.0,36.0,-76.0,-16.0,-16.0,0.0,0.06188344955444336
26,-615.0,-537.0,455.0,0.0,-9088.0,-10682.0,7586.0,-3768.0,4.0,7.0,4.0,5.0,-20.0,4.0,-4.0,1.0,0.06423068046569824
27,-615.0,-537.0,455.0,0.0,-9088.0,-10682.0,7586.0,-3768.0,-4.0,0.0,12.0,-5.0,-65.0,-9.0,-20.0,-5.0,0.06649994850158691
28,42.0,-365.0,-47.0,0.0,-9095.0,-10689.0,7590.0,-3724.0,-4.0,0.0,12.0,-5.0,-65.0,-9.0,-20.0,-5.0,0.0687415599822998
29,42.0,-365.0,-47.0,0.0,-9095.0,-10689.0,7590.0,-3724.0,3.0,0.0,-31.0,-9.0,86.0,35.0,0.0,1.0,0.07105493545532227
30,42.0,-365.0,-47.0,0.0,-9095.0,-10689.0,7590.0,-3724.0,0.0,-22.0,-3.0,-1.0,-49.0,-13.0,-6.0,-6.0,0.07331514358520508
31,534.0,-259.0,-92.0,0.0,-9076.0,-10760.0,7529.0,-3690.0,0.0,-22.0,-3.0,-1.0,-49.0,-13.0,-6.0,-6.0,0.0756077766418457
32,534.0,-259.0,-92.0,0.0,-9076.0,-10760.0,7529.0,-3690.0,7.0,9.0,-38.0,-53.0,28.0,-32.0,-6.0,-1.0,0.07792925834655762
33,534.0,-259.0,-92.0,0.0,-9076.0,-10760.0,7529.0,-3690.0,1.0,11.0,32.0,32.0,62.0,14.0,8.0,3.0,0.08015775680541992
34,33.0,-204.0,-63.0,0.0,-9119.0,-10769.0,7491.0,-3634.0,1.0,11.0,32.0,32.0,62.0,14.0,8.0,3.0,0.08255219459533691
35,33.0,-204.0,-63.0,0.0,-9119.0,-10769.0,7491.0,-3634.0,-6.0,-18.0,-17.0,-5.0,25.0,20.0,-8.0,-4.0,0.0851900577545166
36,33.0,-204.0,-63.0,0.0,-9119.0,-10769.0,7491.0,-3634.0,-4.0,-14.0,-5.0,-7.0,-12.0,-8.0,-14.0,0.0,0.08788657188415527
37,-484.0,-118.0,-211.0,0.0,-9216.0,-10735.0,7464.0,-3544.0,-4.0,-14.0,-5.0,-7.0,-12.0,-8.0,-14.0,0.0,0.09054899215698242
38,-484.0,-118.0,-211.0,0.0,-9216.0,-10735.0,7464.0,-3544.0,0.0,9.0,62.0,-24.0,-23.0,13.0,0.0,-1.0,0.09286832809448242
39,-484.0,-118.0,-211.0,0.0,-9216.0,-10735.0,7464.0,-3544.0,0.0,-13.0,-47.0,17.0,-2.0,-3.0,4.0,1.0,0.09511876106262207
40,-677.0,-17.0,-343.0,0.0,-9331.0,-10683.0,7438.0,-3457.0,0.0,-13.0,-47.0,17.0,-2.0,-3.0,4.0,1.0,0.09741735458374023
41,-677.0,-17.0,-343.0,0.0,-9331.0,-10683.0,7438.0,-3457.0,1.0,-9.0,14.0,6.0,21.0,0.0,3.0,2.0,0.09984517097473145
42,-677.0,-17.0,-343.0,0.0,-9331.0,-10683.0,7438.0,-3457.0,5.0,16.0,27.0,7.0,13.0,-17.0,-1.0,-2.0,0.10213875770568848
43,-510.0,43.0,-522.0,0.0,-9425.0,-10656.0,7391.0,-3382.0,5.0,16.0,27.0,7.0,13.0,-17.0,-1.0,-2.0,0.10439515113830566
44,-510.0,43.0,-522.0,0.0,-9425.0,-10656.0,7391.0,-3382.0,7.0,10.0,4.0,10.0,15.0,2.0,9.0,1.0,0.10691118240356445
45,-510.0,43.0,-522.0,0.0,-9425.0,-10656.0,7391.0,-3382.0,-10.0,-11.0,23.0,47.0,-28.0,-6.0,-1.0,-2.0,0.10915875434875488
46,-214.0,55.0,-650.0,0.0,-9481.0,-10675.0,7322.0,-3318.0,-10.0,-11.0,23.0,47.0,-28.0,-6.0,-1.0,-2.0,0.11158227920532227
47,-214.0,55.0,-650.0,0.0,-9481.0,-10675.0,7322.0,-3318.0,-9.0,-5.0,-23.0,-5.0,-45.0,0.0,-6.0,-3.0,0.11389350891113281
48,-214.0,55.0,-650.0,0.0,-9481.0,-10675.0,7322.0,-3318.0,6.0,16.0,18.0,13.0,30.0,3.0,1.0,0.0,0.11619043350219727
49,-47.0,22.0,-792.0,0.0,-9514.0,-10734.0,7230.0,-3234.0,6.0,16.0,18.0,13.0,30.0,3.0,1.0,0.0,0.11899709701538086
50,-47.0,22.0,-792.0,0.0,-9514.0,-10734.0,7230.0,-3234.0,0.0,-1.0,-16.0,6.0,9.0,2.0,2.0,2.0,0.1217184066772461
51,-47.0,22.0,-792.0,0.0,-9514.0,-10734.0,7230.0,-3234.0,8.0,2.0,-22.0,-7.0,11.0,0.0,6.0,3.0,0.1240086555480957
52,-136.0,11.0,-809.0,0.0,-9547.0,-10786.0,7148.0,-3144.0,8.0,2.0,-22.0,-7.0,11.0,0.0,6.0,3.0,0.12625646591186523
53,-136.0,11.0,-809.0,0.0,-9547.0,-10786.0,7148.0,-3144.0,-6.0,-3.0,22.0,14.0,-17.0,-5.0,-3.0,-5.0,0.1286172866821289
54,-136.0,11.0,-809.0,0.0,-9547.0,-10786.0,7148.0,-3144.0,-5.0,-7.0,-62.0,-27.0,20.0,7.0,2.0,-1.0,0.13085699081420898
55,-94.0,-5.0,-845.0,0.0,-9570.0,-10848.0,7063.0,-3051.0,-5.0,-7.0,-62.0,-27.0,20.0,7.0,2.0,-1.0,0.13309907913208008
56,-94.0,-5.0,-845.0,0.0,-9570.0,-10848.0,7063.0,-3051.0,-3.0,0.0,40.0,15.0,-7.0,-9.0,-1.0,-3.0,0.1354832649230957
57,-94.0,-5.0,-845.0,0.0,-9570.0,-10848.0,7063.0,-3051.0,4.0,10.0,1.0,-22.0,-1.0,-15.0,3.0,2.0,0.13772821426391602
58,-164.0,-127.0,-773.0,0.0,-9581.0,-10900.0,7009.0,-2953.0,4.0,10.0,1.0,-22.0,-1.0,-15.0,3.0,2.0,0.13995623588562012
59,-164.0,-127.0,-773.0,0.0,-9581.0,-10900.0,7009.0,-2953.0,-1.0,-2.0,22.0,18.0,10.0,5.0,-1.0,-1.0,0.14228463172912598
60,-164.0,-127.0,-773.0,0.0,-9581.0,-10900.0,7009.0,-2953.0,-3.0,-10.0,-63.0,-28.0,19.0,11.0,-1.0,-3.0,0.14463520050048828
61,-250.0,-152.0,-757.0,0.0,-9595.0,-10935.0,6972.0,-2862.0,-3.0,-10.0,-63.0,-28.0,19.0,11.0,-1.0,-3.0,0.1468973159790039
62,-250.0,-152.0,-757.0,0.0,-9595.0,-10935.0,6972.0,-2862.0,10.0,9.0,3.0,-6.0,15.0,0.0,3.0,3.0,0.14965248107910156
63,-250.0,-152.0,-757.0,0.0,-9595.0,-10935.0,6972.0,-2862.0,-4.0,0.0,-10.0,-9.0,-2.0,0.0,-5.0,-2.0,0.1524503231048584
64,42.0,-187.0,-733.0,0.0,-9575.0,-11000.0,6928.0,-2790.0,-4.0,0.0,-10.0,-9.0,-2.0,0.0,-5.0,-2.0,0.15479469299316406
65,42.0,-187.0,-733.0,0.0,-9575.0,-11000.0,6928.0,-2790.0,-2.0,-14.0,-33.0,-16.0,8.0,11.0,2.0,-1.0,0.15711688995361328
66,42.0,-187.0,-733.0,0.0,-9575.0,-11000.0,6928.0,-2790.0,-13.0,-22.0,10.0,-14.0,-22.0,-20.0,-3.0,-7.0,0.1593937873840332
67,147.0,-168.0,-527.0,0.0,-9539.0,-11060.0,6900.0,-2745.0,-13.0,-22.0,10.0,-14.0,-22.0,-20.0,-3.0,-7.0,0.1618056297302246
68,147.0,-168.0,-527.0,0.0,-9539.0,-11060.0,6900.0,-2745.0,-4.0,4.0,27.0,22.0,-2.0,-1.0,-2.0,-3.0,0.16411900520324707
69,147.0,-168.0,-527.0,0.0,-9539.0,-11060.0,6900.0,-2745.0,10.0,21.0,-19.0,28.0,12.0,36.0,5.0,13.0,0.16644573211669922
70,102.0,-162.0,-438.0,0.0,-9511.0,-11111.0,6875.0,-2698.0,10.0,21.0,-19.0,28.0,12.0,36.0,5.0,13.0,0.1687173843383789
71,102.0,-162.0,-438.0,0.0,-9511.0,-11111.0,6875.0,-2698.0,11.0,23.0,17.0,-1.0,-19.0,17.0,1.0,4.0,0.17103958129882812
72,102.0,-162.0,-438.0,0.0,-9511.0,-11111.0,6875.0,-2698.0,-8.0,-10.0,-61.0,-39.0,-43.0,-2.0,-5.0,-10.0,0.17330217361450195
73,98.0,-131.0,-280.0,0.0,-9486.0,-11154.0,6856.0,-2657.0,-8.0,-10.0,-61.0,-39.0,-43.0,-2.0,-5.0,-10.0,0.1755516529083252
74,98.0,-131.0,-280.0,0.0,-9486.0,-11154.0,6856.0,-2657.0,-4.0,-1.0,17.0,19.0,29.0,-17.0,-3.0,-3.0,0.1778855323791504
75,98.0,-131.0,-280.0,0.0,-9486.0,-11154.0,6856.0,-2657.0,0.0,0.0,52.0,20.0,21.0,-5.0,20.0,1.0,0.18017840385437012
76,74.0,-71.0,-99.0,0.0,-9470.0,-11181.0,6844.0,-2629.0,0.0,0.0,52.0,20.0,21.0,-5.0,20.0,1.0,0.1831049919128418
77,74.0,-71.0,-99.0,0.0,-9470.0,-11181.0,6844.0,-2629.0,-11.0,-26.0,-2.0,20.0,-12.0,8.0,8.0,-2.0,0.18587446212768555
78,74.0,-71.0,-99.0,0.0,-9470.0,-11181.0,6844.0,-2629.0,3.0,2.0,73.0,12.0,-19.0,-5.0,12.0,-2.0,0.18813371658325195
79,85.0,-23.0,18.0,0.0,-9453.0,-11207.0,6834.0,-2606.0,3.0,2.0,73.0,12.0,-19.0,-5.0,12.0,-2.0,0.1904153823852539
80,85.0,-23.0,18.0,0.0,-9453.0,-11207.0,6834.0,-2606.0,1.0,1.0,-37.0,2.0,55.0,4.0,34.0,13.0,0.19272637367248535
81,85.0,-23.0,18.0,0.0,-9453.0,-11207.0,6834.0,-2606.0,1.0,10.0,19.0,12.0,-12.0,-4.0,-5.0,0.0,0.19499468803405762
82,142.0,7.0,73.0,0.0,-9437.0,-11234.0,6819.0,-2590.0,1.0,10.0,19.0,12.0,-12.0,-4.0,-5.0,0.0,0.19724774360656738
83,142.0,7.0,73.0,0.0,-9437.0,-11234.0,6819.0,-2590.0,-1.0,-2.0,-16.0,-22.0,-40.0,-9.0,-20.0,-7.0,0.19958162307739258
84,142.0,7.0,73.0,0.0,-9437.0,-11234.0,6819.0,-2590.0,-4.0,-7.0,15.0,-4.0,37.0,15.0,-6.0,1.0,0.20182180404663086
85,175.0,-2.0,73.0,0.0,-9422.0,-11260.0,6801.0,-2577.0,-4.0,-7.0,15.0,-4.0,37.0,15.0,-6.0,1.0,0.20412921905517578
86,175.0,-2.0,73.0,0.0,-9422.0,-11260.0,6801.0,-2577.0,17.0,19.0,-16.0,-10.0,-21.0,-18.0,-5.0,3.0,0.2066798210144043
87,175.0,-2.0,73.0,0.0,-9422.0,-11260.0,6801.0,-2577.0,-6.0,-5.0,12.0,-3.0,17.0,10.0,-11.0,-7.0,0.20913314819335938
88,252.0,-8.0,82.0,0.0,-9409.0,-11290.0,6774.0,-2565.0,-6.0,-5.0,12.0,-3.0,17.0,10.0,-11.0,-7.0,0.21143865585327148
89,252.0,-8.0,82.0,0.0,-9409.0,-11290.0,6774.0,-2565.0,-3.0,-2.0,-2.0,-14.0,18.0,18.0,1.0,-2.0,0.21412324905395508
90,252.0,-8.0,82.0,0.0,-9409.0,-11290.0,6774.0,-2565.0,-1.0,-2.0,-11.0,-6.0,-36.0,-10.0,-6.0,-1.0,0.21665740013122559
91,200.0,-51.0,210.0,0.0,-9391.0,-11315.0,6765.0,-2544.0,-1.0,-2.0,-11.0,-6.0,-36.0,-10.0,-6.0,-1.0,0.21893072128295898
92,200.0,-51.0,210.0,0.0,-9391.0,-11315.0,6765.0,-2544.0,-3.0,-2.0,12.0,-10.0,-18.0,-4.0,-7.0,-3.0,0.2212834358215332
93,200.0,-51.0,210.0,0.0,-9391.0,-11315.0,6765.0,-2544.0,2.0,3.0,-12.0,3.0,22.0,-1.0,1.0,3.0,0.22353506088256836
94,2.0,-39.0,180.0,0.0,-9398.0,-11319.0,6760.0,-2513.0,2.0,3.0,-12.0,3.0,22.0,-1.0,1.0,3.0,0.2257828712463379
95,2.0,-39.0,180.0,0.0,-9398.0,-11319.0,6760.0,-2513.0,3.0,10.0,9.0,-3.0,-11.0,0.0,-5.0,-2.0,0.22810888290405273
96,2.0,-39.0,180.0,0.0,-9398.0,-11319.0,6760.0,-2513.0,2.0,-8.0,-10.0,4.0,-5.0,7.0,1.0,2.0,0.23042583465576172
97,-109.0,-9.0,116.0,0.0,-9417.0,-11314.0,6754.0,-2479.0,2.0,-8.0,-10.0,4.0,-5.0,7.0,1.0,2.0,0.2326493263244629
98,-109.0,-9.0,116.0,0.0,-9417.0,-11314.0,6754.0,-2479.0,-4.0,-6.0,-13.0,1.0,28.0,0.0,-3.0,-1.0,0.23498106002807617
99,-109.0,-9.0,116.0,0.0,-9417.0,-11314.0,6754.0,-2479.0,4.0,10.0,22.0,8.0,-39.0,-12.0,-5.0,1.0,0.2373192310333252
100,-84.0,-11.0,71.0,0.0,-9434.0,-11308.0,6749.0,-2456.0,4.0,10.0,22.0,8.0,-39.0,-12.0,-5.0,1.0,0.23955345153808594
101,-84.0,-11.0,71.0,0.0,-9434.0,-11308.0,6749.0,-2456.0,-9.0,-16.0,2.0,-2.0,-24.0,-6.0,-5.0,-2.0,0.24186921119689941
102,-84.0,-11.0,71.0,0.0,-9434.0,-11308.0,6749.0,-2456.0,2.0,4.0,16.0,4.0,-5.0,5.0,-1.0,-2.0,0.2442948818206787
103,-96.0,-37.0,25.0,0.0,-9450.0,-11302.0,6746.0,-2430.0,2.0,4.0,16.0,4.0,-5.0,5.0,-1.0,-2.0,0.24682116508483887
104,-96.0,-37.0,25.0,0.0,-9450.0,-11302.0,6746.0,-2430.0,-4.0,-11.0,-45.0,-7.0,-2.0,1.0,-1.0,-2.0,0.2492372989654541
105,-96.0,-37.0,25.0,0.0,-9450.0,-11302.0,6746.0,-2430.0,2.0,17.0,3.0,0.0,13.0,4.0,0.0,-1.0,0.2515120506286621
106,-166.0,-36.0,-11.0,0.0,-9477.0,-11288.0,6742.0,-2401.0,2.0,17.0,3.0,0.0,13.0,4.0,0.0,-1.0,0.2539963722229004
107,-166.0,-36.0,-11.0,0.0,-9477.0,-11288.0,6742.0,-2401.0,-2.0,3.0,16.0,-2.0,-1.0,-2.0,-1.0,-4.0,0.25640177726745605
108,-166.0,-36.0,-11.0,0.0,-9477.0,-11288.0,6742.0,-2401.0,2.0,2.0,-57.0,-28.0,-20.0,-7.0,-3.0,0.0,0.2586679458618164
109,-175.0,23.0,-68.0,0.0,-9504.0,-11275.0,6733.0,-2381.0,2.0,2.0,-57.0,-28.0,-20.0,-7.0,-3.0,0.0,0.26090240478515625
110,-175.0,23.0,-68.0,0.0,-9504.0,-11275.0,6733.0,-2381.0,5.0,9.0,24.0,2.0,7.0,-2.0,1.0,2.0,0.2633049488067627
111,-175.0,23.0,-68.0,0.0,-9504.0,-11275.0,6733.0,-2381.0,-3.0,-9.0,8.0,11.0,18.0,-1.0,0.0,-2.0,0.26558732986450195
112,5.0,55.0,-98.0,0.0,-9510.0,-11281.0,6715.0,-2378.0,-3.0,-9.0,8.0,11.0,18.0,-1.0,0.0,-2.0,0.26781773567199707
113,5.0,55.0,-98.0,0.0,-9510.0,-11281.0,6715.0,-2378.0,0.0,-5.0,-8.0,-9.0,-26.0,-11.0,-3.0,-1.0,0.2702608108520508
114,5.0,55.0,-98.0,0.0,-9510.0,-11281.0,6715.0,-2378.0,-1.0,0.0,13.0,2.0,11.0,-3.0,-1.0,-1.0,0.2725052833557129
115,236.0,43.0,-63.0,0.0,-9488.0,-11310.0,6693.0,-2390.0,-1.0,0.0,13.0,2.0,11.0,-3.0,-1.0,-1.0,0.2747952938079834
116,236.0,43.0,-63.0,0.0,-9488.0,-11310.0,6693.0,-2390.0,-2.0,1.0,8.0,2.0,9.0,4.0,-2.0,-3.0,0.2773854732513428
117,236.0,43.0,-63.0,0.0,-9488.0,-11310.0,6693.0,-2390.0,2.0,0.0,1.0,-3.0,8.0,-15.0,1.0,0.0,0.2800922393798828
118,301.0,52.0,-65.0,0.0,-9463.0,-11347.0,6662.0,-2400.0,2.0,0.0,1.0,-3.0,8.0,-15.0,1.0,0.0,0.2823977470397949
119,301.0,52.0,-65.0,0.0,-9463.0,-11347.0,6662.0,-2400.0,-2.0,-3.0,-13.0,-3.0,1.0,-6.0,-5.0,-4.0,0.2847006320953369
120,301.0,52.0,-65.0,0.0,-9463.0,-11347.0,6662.0,-2400.0,-1.0,-13.0,-30.0,1.0,2.0,14.0,1.0,1.0,0.2869575023651123
121,260.0,76.0,-40.0,0.0,-9449.0,-11378.0,6627.0,-2406.0,-1.0,-13.0,-30.0,1.0,2.0,14.0,1.0,1.0,0.28925204277038574
122,260.0,76.0,-40.0,0.0,-9449.0,-11378.0,6627.0,-2406.0,3.0,5.0,-4.0,-1.0,7.0,-4.0,-5.0,1.0,0.2915670871734619
123,260.0,76.0,-40.0,0.0,-9449.0,-11378.0,6627.0,-2406.0,-5.0,-4.0,-1.0,-1.0,10.0,-3.0,-2.0,-2.0,0.2938060760498047
124,222.0,78.0,4.0,0.0,-9437.0,-11404.0,6597.0,-2412.0,-5.0,-4.0,-1.0,-1.0,10.0,-3.0,-2.0,-2.0,0.29611659049987793
125,222.0,78.0,4.0,0.0,-9437.0,-11404.0,6597.0,-2412.0,-1.0,-1.0,2.0,2.0,-6.0,3.0,3.0,-1.0,0.29842567443847656
126,222.0,78.0,4.0,0.0,-9437.0,-11404.0,6597.0,-2412.0,2.0,9.0,22.0,4.0,-24.0,-19.0,-2.0,0.0,0.30066728591918945
127,176.0,67.0,68.0,0.0,-9430.0,-11422.0,6576.0,-2416.0,2.0,9.0,22.0,4.0,-24.0,-19.0,-2.0,0.0,0.30292558670043945
128,176.0,67.0,68.0,0.0,-9430.0,-11422.0,6576.0,-2416.0,-4.0,-6.0,8.0,1.0,-2.0,1.0,0.0,-2.0,0.30524778366088867
129,176.0,67.0,68.0,0.0,-9430.0,-11422.0,6576.0,-2416.0,3.0,-17.0,-21.0,-2.0,19.0,11.0,1.0,0.0,0.3076925277709961
130,27.0,44.0,88.0,0.0,-9442.0,-11419.0,6564.0,-2414.0,3.0,-17.0,-21.0,-2.0,19.0,11.0,1.0,0.0,0.3105289936065674
131,27.0,44.0,88.0,0.0,-9442.0,-11419.0,6564.0,-2414.0,1.0,8.0,-1.0,-5.0,-1.0,0.0,1.0,1.0,0.3130631446838379
132,27.0,44.0,88.0,0.0,-9442.0,-11419.0,6564.0,-2414.0,-8.0,-9.0,14.0,2.0,19.0,3.0,-1.0,-3.0,0.315319299697876
133,-81.0,-13.0,78.0,0.0,-9462.0,-11407.0,6561.0,-2398.0,-8.0,-9.0,14.0,2.0,19.0,3.0,-1.0,-3.0,0.317699670791626
134,-81.0,-13.0,78.0,0.0,-9462.0,-11407.0,6561.0,-2398.0,0.0,0.0,4.0,6.0,7.0,3.0,0.0,0.0,0.3200507164001465
135,-81.0,-13.0,78.0,0.0,-9462.0,-11407.0,6561.0,-2398.0,-8.0,-10.0,1.0,2.0,12.0,1.0,-2.0,-4.0,0.32231926918029785
136,-82.0,-54.0,84.0,0.0,-9478.0,-11393.0,6568.0,-2384.0,-8.0,-10.0,1.0,2.0,12.0,1.0,-2.0,-4.0,0.3245701789855957
137,-82.0,-54.0,84.0,0.0,-9478.0,-11393.0,6568.0,-2384.0,7.0,-10.0,-42.0,-9.0,-17.0,-2.0,1.0,3.0,0.3269071578979492
138,-82.0,-54.0,84.0,0.0,-9478.0,-11393.0,6568.0,-2384.0,5.0,3.0,14.0,6.0,-8.0,10.0,3.0,4.0,0.329176664352417
139,-136.0,-51.0,80.0,0.0,-9497.0,-11374.0,6578.0,-2368.0,5.0,3.0,14.0,6.0,-8.0,10.0,3.0,4.0,0.3314182758331299
140,-136.0,-51.0,80.0,0.0,-9497.0,-11374.0,6578.0,-2368.0,-1.0,8.0,-6.0,-11.0,-29.0,-13.0,-6.0,-6.0,0.3337364196777344
141,-136.0,-51.0,80.0,0.0,-9497.0,-11374.0,6578.0,-2368.0,-4.0,2.0,14.0,1.0,0.0,-2.0,-2.0,-2.0,0.3359823226928711
142,-165.0,-39.0,82.0,0.0,-9517.0,-11354.0,6590.0,-2353.0,-4.0,2.0,14.0,1.0,0.0,-2.0,-2.0,-2.0,0.33827924728393555
143,-165.0,-39.0,82.0,0.0,-9517.0,-11354.0,6590.0,-2353.0,-1.0,-10.0,-3.0,6.0,14.0,3.0,2.0,1.0,0.34091758728027344
144,-187.0,-46.0,96.0,0.0,-9534.0,-11331.0,6609.0,-2339.0,-1.0,-10.0,-3.0,6.0,14.0,3.0,2.0,1.0,0.3437325954437256
145,-187.0,-46.0,96.0,0.0,-9534.0,-11331.0,6609.0,-2339.0,0.0,6.0,3.0,-2.0,-10.0,-5.0,-1.0,0.0,0.34606409072875977
146,-187.0,-46.0,96.0,0.0,-9534.0,-11331.0,6609.0,-2339.0,-4.0,-6.0,-2.0,-5.0,14.0,-5.0,-1.0,-2.0,0.3482794761657715
147,-166.0,-58.0,87.0,0.0,-9545.0,-11313.0,6630.0,-2325.0,-4.0,-6.0,-2.0,-5.0,14.0,-5.0,-1.0,-2.0,0.3505253791809082
148,-166.0,-58.0,87.0,0.0,-9545.0,-11313.0,6630.0,-2325.0,-2.0,-1.0,-4.0,1.0,3.0,1.0,-2.0,-3.0,0.3528153896331787
149,-166.0,-58.0,87.0,0.0,-9545.0,-11313.0,6630.0,-2325.0,-10.0,-11.0,22.0,7.0,6.0,1.0,-1.0,-2.0,0.35503506660461426
150,-170.0,-68.0,74.0,0.0,-9556.0,-11295.0,6650.0,-2308.0,-10.0,-11.0,22.0,7.0,6.0,1.0,-1.0,-2.0,0.35724782943725586
151,-170.0,-68.0,74.0,0.0,-9556.0,-11295.0,6650.0,-2308.0,4.0,-2.0,-13.0,-4.0,-3.0,0.0,-1.0,-1.0,0.35956716537475586
152,-170.0,-68.0,74.0,0.0,-9556.0,-11295.0,6650.0,-2308.0,-13.0,-16.0,9.0,6.0,8.0,-2.0,-2.0,-4.0,0.3618948459625244
153,-141.0,-81.0,47.0,0.0,-9560.0,-11284.0,6670.0,-2290.0,-13.0,-16.0,9.0,6.0,8.0,-2.0,-2.0,-4.0,0.3641233444213867
154,-141.0,-81.0,47.0,0.0,-9560.0,-11284.0,6670.0,-2290.0,-1.0,13.0,9.0,1.0,-5.0,-7.0,-2.0,-1.0,0.3664531707763672
155,-141.0,-81.0,47.0,0.0,-9560.0,-11284.0,6670.0,-2290.0,1.0,-3.0,-17.0,0.0,5.0,6.0,2.0,2.0,0.3686797618865967
156,-80.0,-97.0,15.0,0.0,-9556.0,-11282.0,6685.0,-2271.0,1.0,-3.0,-17.0,0.0,5.0,6.0,2.0,2.0,0.37107396125793457
157,-80.0,-97.0,15.0,0.0,-9556.0,-11282.0,6685.0,-2271.0,-3.0,-2.0,9.0,-1.0,2.0,-8.0,-1.0,-3.0,0.3738107681274414
158,-80.0,-97.0,15.0,0.0,-9556.0,-11282.0,6685.0,-2271.0,2.0,9.0,6.0,-1.0,-10.0,-3.0,2.0,1.0,0.3762972354888916
159,-57.0,-82.0,-30.0,0.0,-9552.0,-11285.0,6693.0,-2252.0,2.0,9.0,6.0,-1.0,-10.0,-3.0,2.0,1.0,0.3785519599914551
160,-57.0,-82.0,-30.0,0.0,-9552.0,-11285.0,6693.0,-2252.0,-3.0,-2.0,1.0,7.0,5.0,4.0,-3.0,0.0,0.38089871406555176
161,-57.0,-82.0,-30.0,0.0,-9552.0,-11285.0,6693.0,-2252.0,3.0,6.0,3.0,2.0,0.0,7.0,0.0,2.0,0.38315701484680176
162,-40.0,-74.0,-42.0,0.0,-9552.0,-11288.0,6694.0,-2231.0,3.0,6.0,3.0,2.0,0.0,7.0,0.0,2.0,0.38590097427368164
163,-40.0,-74.0,-42.0,0.0,-9552.0,-11288.0,6694.0,-2231.0,-5.0,-9.0,-2.0,-6.0,-12.0,-11.0,-3.0,-4.0,0.3882920742034912
164,-40.0,-74.0,-42.0,0.0,-9552.0,-11288.0,6694.0,-2231.0,12.0,18.0,7.0,-4.0,-1.0,3.0,2.0,5.0,0.39054012298583984
165,-62.0,-60.0,-66.0,0.0,-9559.0,-11288.0,6691.0,-2209.0,12.0,18.0,7.0,-4.0,-1.0,3.0,2.0,5.0,0.3928871154785156
166,-62.0,-60.0,-66.0,0.0,-9559.0,-11288.0,6691.0,-2209.0,1.0,12.0,12.0,-9.0,21.0,-1.0,-2.0,-2.0,0.39572954177856445
167,-62.0,-60.0,-66.0,0.0,-9559.0,-11288.0,6691.0,-2209.0,-2.0,3.0,4.0,-1.0,10.0,-2.0,-2.0,-2.0,0.39812707901000977
168,-121.0,-51.0,-67.0,0.0,-9577.0,-11280.0,6688.0,-2185.0,-2.0,3.0,4.0,-1.0,10.0,-2.0,-2.0,-2.0,0.40038442611694336
169,-121.0,-51.0,-67.0,0.0,-9577.0,-11280.0,6688.0,-2185.0,-2.0,-4.0,1.0,3.0,5.0,5.0,1.0,-1.0,0.40309834480285645
170,-121.0,-51.0,-67.0,0.0,-9577.0,-11280.0,6688.0,-2185.0,7.0,10.0,8.0,2.0,4.0,-7.0,-3.0,0.0,0.4058105945587158
171,-132.0,-52.0,-76.0,0.0,-9599.0,-11268.0,6684.0,-2164.0,7.0,10.0,8.0,2.0,4.0,-7.0,-3.0,0.0,0.40816450119018555
172,-132.0,-52.0,-76.0,0.0,-9599.0,-11268.0,6684.0,-2164.0,-2.0,-5.0,-9.0,-2.0,-5.0,-1.0,0.0,-1.0,0.41060876846313477
173,-132.0,-52.0,-76.0,0.0,-9599.0,-11268.0,6684.0,-2164.0,-2.0,-10.0,-19.0,1.0,1.0,6.0,-3.0,1.0,0.4129025936126709
174,-144.0,-50.0,-77.0,0.0,-9619.0,-11255.0,6683.0,-2143.0,-2.0,-10.0,-19.0,1.0,1.0,6.0,-3.0,1.0,0.41542816162109375
175,-144.0,-50.0,-77.0,0.0,-9619.0,-11255.0,6683.0,-2143.0,0.0,-5.0,-5.0,-4.0,-25.0,1.0,-4.0,-3.0,0.4178178310394287
176,-144.0,-50.0,-77.0,0.0,-9619.0,-11255.0,6683.0,-2143.0,-5.0,-1.0,-5.0,-5.0,-17.0,-6.0,-7.0,-2.0,0.42008304595947266
177,-147.0,-42.0,-81.0,0.0,-9640.0,-11242.0,6681.0,-2123.0,-5.0,-1.0,-5.0,-5.0,-17.0,-6.0,-7.0,-2.0,0.4223647117614746
178,-147.0,-42.0,-81.0,0.0,-9640.0,-11242.0,6681.0,-2123.0,-2.0,5.0,23.0,3.0,-1.0,2.0,3.0,-1.0,0.42478322982788086
179,-147.0,-42.0,-81.0,0.0,-9640.0,-11242.0,6681.0,-2123.0,-9.0,-2.0,7.0,-4.0,3.0,2.0,2.0,-3.0,0.4270613193511963
180,-165.0,-31.0,-78.0,0.0,-9661.0,-11228.0,6680.0,-2103.0,-9.0,-2.0,7.0,-4.0,3.0,2.0,2.0,-3.0,0.4293084144592285
181,-165.0,-31.0,-78.0,0.0,-9661.0,-11228.0,6680.0,-2103.0,-2.0,-6.0,-13.0,-2.0,-3.0,-3.0,-3.0,0.0,0.4316215515136719
182,-165.0,-31.0,-78.0,0.0,-9661.0,-11228.0,6680.0,-2103.0,2.0,0.0,15.0,0.0,0.0,1.0,0.0,1.0,0.43429136276245117
183,-160.0,-38.0,-75.0,0.0,-9679.0,-11215.0,6681.0,-2084.0,2.0,0.0,15.0,0.0,0.0,1.0,0.0,1.0,0.4368453025817871
184,-160.0,-38.0,-75.0,0.0,-9679.0,-11215.0,6681.0,-2084.0,0.0,-2.0,-4.0,0.0,14.0,1.0,0.0,1.0,0.43926191329956055
185,-160.0,-38.0,-75.0,0.0,-9679.0,-11215.0,6681.0,-2084.0,9.0,20.0,-6.0,-4.0,-6.0,-1.0,1.0,3.0,0.44162559509277344
186,-167.0,-23.0,-71.0,0.0,-9699.0,-11201.0,6682.0,-2066.0,9.0,20.0,-6.0,-4.0,-6.0,-1.0,1.0,3.0,0.4439687728881836
187,-167.0,-23.0,-71.0,0.0,-9699.0,-11201.0,6682.0,-2066.0,7.0,0.0,-19.0,-4.0,5.0,2.0,0.0,2.0,0.44626855850219727
188,-167.0,-23.0,-71.0,0.0,-9699.0,-11201.0,6682.0,-2066.0,-1.0,-10.0,-5.0,0.0,-24.0,0.0,-1.0,-2.0,0.4484872817993164
189,-161.0,-27.0,-72.0,0.0,-9717.0,-11189.0,6682.0,-2047.0,-1.0,-10.0,-5.0,0.0,-24.0,0.0,-1.0,-2.0,0.4507415294647217
190,-161.0,-27.0,-72.0,0.0,-9717.0,-11189.0,6682.0,-2047.0,-5.0,-5.0,-9.0,0.0,-8.0,2.0,0.0,-1.0,0.4530301094055176
191,-161.0,-27.0,-72.0,0.0,-9717.0,-11189.0,6682.0,-2047.0,-5.0,-15.0,13.0,10.0,11.0,-22.0,-8.0,-5.0,0.4552741050720215
192,-178.0,-22.0,-73.0,0.0,-9737.0,-11175.0,6681.0,-2026.0,-5.0,-15.0,13.0,10.0,11.0,-22.0,-8.0,-5.0,0.4576411247253418
193,-178.0,-22.0,-73.0,0.0,-9737.0,-11175.0,6681.0,-2026.0,0.0,7.0,13.0,3.0,-7.0,-2.0,-2.0,-2.0,0.46004271507263184
194,-178.0,-22.0,-73.0,0.0,-9737.0,-11175.0,6681.0,-2026.0,-4.0,-1.0,11.0,3.0,10.0,4.0,-1.0,-3.0,0.46228814125061035
195,-161.0,-17.0,-74.0,0.0,-9753.0,-11164.0,6683.0,-2010.0,-4.0,-1.0,11.0,3.0,10.0,4.0,-1.0,-3.0,0.46457409858703613
196,-161.0,-17.0,-74.0,0.0,-9753.0,-11164.0,6683.0,-2010.0,-3.0,-5.0,-9.0,-4.0,5.0,0.0,-1.0,-1.0,0.46748900413513184
197,-161.0,-17.0,-74.0,0.0,-9753.0,-11164.0,6683.0,-2010.0,-4.0,-1.0,-3.0,1.0,0.0,2.0,-1.0,0.0,0.4700334072113037
198,-120.0,-23.0,-78.0,0.0,-9765.0,-11157.0,6682.0,-1993.0,-4.0,-1.0,-3.0,1.0,0.0,2.0,-1.0,0.0,0.4722902774810791
199,-120.0,-23.0,-78.0,0.0,-9765.0,-11157.0,6682.0,-1993.0,3.0,4.0,-10.0,-2.0,-16.0,-1.0,0.0,2.0,0.47478246688842773
200,-120.0,-23.0,-78.0,0.0,-9765.0,-11157.0,6682.0,-1993.0,0.0,-2.0,-5.0,-6.0,-11.0,1.0,2.0,1.0,0.47703027725219727
201,-121.0,-15.0,-81.0,0.0,-9776.0,-11152.0,6679.0,-1976.0,0.0,-2.0,-5.0,-6.0,-11.0,1.0,2.0,1.0,0.4794738292694092
202,-121.0,-15.0,-81.0,0.0,-9776.0,-11152.0,6679.0,-1976.0,-7.0,-5.0,7.0,2.0,10.0,-1.0,-2.0,-2.0,0.48187828063964844
203,-121.0,-15.0,-81.0,0.0,-9776.0,-11152.0,6679.0,-1976.0,0.0,-4.0,-35.0,-8.0,-4.0,-1.0,3.0,1.0,0.48413896560668945
204,-96.0,1.0,-83.0,0.0,-9786.0,-11148.0,6674.0,-1963.0,0.0,-4.0,-35.0,-8.0,-4.0,-1.0,3.0,1.0,0.4864227771759033
205,-96.0,1.0,-83.0,0.0,-9786.0,-11148.0,6674.0,-1963.0,-2.0,-22.0,-38.0,-2.0,-5.0,-7.0,-1.0,1.0,0.4887583255767822
206,-96.0,1.0,-83.0,0.0,-9786.0,-11148.0,6674.0,-1963.0,4.0,12.0,16.0,2.0,2.0,4.0,-1.0,0.0,0.49113035202026367
207,-66.0,8.0,-78.0,0.0,-9793.0,-11148.0,6668.0,-1952.0,4.0,12.0,16.0,2.0,2.0,4.0,-1.0,0.0,0.4933791160583496
208,-66.0,8.0,-78.0,0.0,-9793.0,-11148.0,6668.0,-1952.0,2.0,-5.0,-13.0,-3.0,-5.0,2.0,2.0,0.0,0.495938777923584
209,-66.0,8.0,-78.0,0.0,-9793.0,-11148.0,6668.0,-1952.0,-3.0,-3.0,-5.0,-1.0,8.0,5.0,2.0,-1.0,0.49861645698547363
210,-58.0,15.0,-63.0,0.0,-9800.0,-11147.0,6662.0,-1944.0,-3.0,-3.0,-5.0,-1.0,8.0,5.0,2.0,-1.0,0.5011248588562012
211,-58.0,15.0,-63.0,0.0,-9800.0,-11147.0,6662.0,-1944.0,-7.0,-13.0,10.0,1.0,-17.0,0.0,-1.0,-4.0,0.5052440166473389
212,-58.0,15.0,-63.0,0.0,-9800.0,-11147.0,6662.0,-1944.0,-3.0,-1.0,1.0,2.0,-8.0,-4.0,-2.0,-2.0,0.5076186656951904
213,-43.0,20.0,-58.0,0.0,-9805.0,-11147.0,6655.0,-1938.0,-3.0,-1.0,1.0,2.0,-8.0,-4.0,-2.0,-2.0,0.5212697982788086
214,-43.0,20.0,-58.0,0.0,-9805.0,-11147.0,6655.0,-1938.0,-2.0,1.0,0.0,-3.0,8.0,3.0,1.0,-2.0,0.5254204273223877
215,-43.0,20.0,-58.0,0.0,-9805.0,-11147.0,6655.0,-1938.0,4.0,9.0,18.0,4.0,6.0,4.0,3.0,1.0,0.5296323299407959
216,-49.0,25.0,-46.0,0.0,-9812.0,-11146.0,6649.0,-1933.0,4.0,9.0,18.0,4.0,6.0,4.0,3.0,1.0,0.5454039573669434
217,-49.0,25.0,-46.0,0.0,-9812.0,-11146.0,6649.0,-1933.0,-1.0,11.0,11.0,-2.0,-8.0,-14.0,-4.0,0.0,0.5497696399688721
218,-49.0,25.0,-46.0,0.0,-9812.0,-11146.0,6649.0,-1933.0,-7.0,-13.0,1.0,-6.0,12.0,-2.0,2.0,-4.0,0.5538351535797119
219,-40.0,11.0,-38.0,0.0,-9814.0,-11146.0,6646.0,-1928.0,-7.0,-13.0,1.0,-6.0,12.0,-2.0,2.0,-4.0,0.5570249557495117
220,-40.0,11.0,-38.0,0.0,-9814.0,-11146.0,6646.0,-1928.0,2.0,7.0,6.0,2.0,11.0,5.0,-1.0,-1.0,0.5658342838287354
221,-40.0,11.0,-38.0,0.0,-9814.0,-11146.0,6646.0,-1928.0,2.0,10.0,-7.0,4.0,-14.0,-3.0,-1.0,1.0,0.5728960037231445
222,-71.0,11.0,-36.0,0.0,-9821.0,-11143.0,6645.0,-1921.0,2.0,10.0,-7.0,4.0,-14.0,-3.0,-1.0,1.0,0.5816566944122314
223,-71.0,11.0,-36.0,0.0,-9821.0,-11143.0,6645.0,-1921.0,5.0,10.0,7.0,-1.0,29.0,10.0,2.0,4.0,0.5839776992797852
224,-71.0,11.0,-36.0,0.0,-9821.0,-11143.0,6645.0,-1921.0,1.0,-2.0,-22.0,-6.0,-10.0,0.0,-4.0,-2.0,0.5862240791320801
225,-83.0,13.0,-24.0,0.0,-9829.0,-11136.0,6645.0,-1917.0,1.0,-2.0,-22.0,-6.0,-10.0,0.0,-4.0,-2.0,0.6042072772979736
226,-83.0,13.0,-24.0,0.0,-9829.0,-11136.0,6645.0,-1917.0,-2.0,9.0,11.0,4.0,-1.0,-2.0,-1.0,-4.0,0.6065599918365479
227,-83.0,13.0,-24.0,0.0,-9829.0,-11136.0,6645.0,-1917.0,-2.0,-3.0,9.0,1.0,-2.0,-1.0,0.0,0.0,0.608832836151123
228,-48.0,1.0,-18.0,0.0,-9832.0,-11133.0,6647.0,-1914.0,-2.0,-3.0,9.0,1.0,-2.0,-1.0,0.0,0.0,0.6266815662384033
229,-48.0,1.0,-18.0,0.0,-9832.0,-11133.0,6647.0,-1914.0,-1.0,-6.0,-7.0,-9.0,-1.0,-9.0,-5.0,-1.0,0.6293256282806396
230,-48.0,1.0,-18.0,0.0,-9832.0,-11133.0,6647.0,-1914.0,-2.0,-5.0,-1.0,-3.0,3.0,2.0,1.0,-2.0,0.6315982341766357
231,-47.0,-2.0,-7.0,0.0,-9834.0,-11129.0,6651.0,-1912.0,-2.0,-5.0,-1.0,-3.0,3.0,2.0,1.0,-2.0,0.6416654586791992
232,-47.0,-2.0,-7.0,0.0,-9834.0,-11129.0,6651.0,-1912.0,2.0,-2.0,-21.0,-1.0,-1.0,4.0,5.0,1.0,0.6439952850341797
233,-47.0,-2.0,-7.0,0.0,-9834.0,-11129.0,6651.0,-1912.0,0.0,-6.0,-23.0,-6.0,3.0,2.0,-3.0,0.0,0.6462438106536865
234,-42.0,8.0,-13.0,0.0,-9836.0,-11127.0,6651.0,-1909.0,0.0,-6.0,-23.0,-6.0,3.0,2.0,-3.0,0.0,0.6641347408294678
235,-42.0,8.0,-13.0,0.0,-9836.0,-11127.0,6651.0,-1909.0,-4.0,-10.0,-1.0,-10.0,1.0,-4.0,-2.0,-1.0,0.6665065288543701
236,-42.0,8.0,-13.0,0.0,-9836.0,-11127.0,6651.0,-1909.0,-5.0,-11.0,-4.0,3.0,-2.0,-2.0,-1.0,-2.0,0.6687555313110352
237,-32.0,-1.0,10.0,0.0,-9838.0,-11123.0,6655.0,-1910.0,-5.0,-11.0,-4.0,3.0,-2.0,-2.0,-1.0,-2.0,0.6869394779205322
238,-32.0,-1.0,10.0,0.0,-9838.0,-11123.0,6655.0,-1910.0,0.0,1.0,-2.0,5.0,0.0,0.0,0.0,0.0,0.6896462440490723
239,-32.0,-1.0,10.0,0.0,-9838.0,-11123.0,6655.0,-1910.0,10.0,31.0,4.0,-2.0,13.0,9.0,6.0,2.0,0.6920750141143799
240,-6.0,-2.0,12.0,0.0,-9837.0,-11124.0,6656.0,-1910.0,10.0,31.0,4.0,-2.0,13.0,9.0,6.0,2.0,0.7010505199432373
241,-6.0,-2.0,12.0,0.0,-9837.0,-11124.0,6656.0,-1910.0,1.0,4.0,-10.0,-1.0,-22.0,-5.0,-4.0,0.0,0.7034075260162354
242,-6.0,-2.0,12.0,0.0,-9837.0,-11124.0,6656.0,-1910.0,-5.0,-13.0,-21.0,-2.0,-1.0,-5.0,-1.0,-1.0,0.7078273296356201
243,8.0,-6.0,14.0,0.0,-9836.0,-11124.0,6657.0,-1911.0,-5.0,-13.0,-21.0,-2.0,-1.0,-5.0,-1.0,-1.0,0.7253649234771729
244,8.0,-6.0,14.0,0.0,-9836.0,-11124.0,6657.0,-1911.0,2.0,6.0,4.0,-1.0,-3.0,1.0,2.0,0.0,0.73067307472229
245,8.0,-6.0,14.0,0.0,-9836.0,-11124.0,6657.0,-1911.0,-4.0,-6.0,7.0,-1.0,-7.0,0.0,-2.0,-3.0,0.735706090927124
246,2.0,-20.0,18.0,0.0,-9831.0,-11125.0,6662.0,-1910.0,-4.0,-6.0,7.0,-1.0,-7.0,0.0,-2.0,-3.0,0.7462718486785889
247,2.0,-20.0,18.0,0.0,-9831.0,-11125.0,6662.0,-1910.0,-3.0,-3.0,41.0,6.0,1.0,-1.0,-1.0,-4.0,0.7486016750335693
248,2.0,-20.0,18.0,0.0,-9831.0,-11125.0,6662.0,-1910.0,2.0,10.0,25.0,3.0,12.0,2.0,0.0,0.0,0.751133918762207
249,-7.0,-22.0,18.0,0.0,-9827.0,-11125.0,6669.0,-1909.0,2.0,10.0,25.0,3.0,12.0,2.0,0.0,0.0,0.7605922222137451
250,-7.0,-22.0,18.0,0.0,-9827.0,-11125.0,6669.0,-1909.0,4.0,2.0,-14.0,1.0,-22.0,-12.0,2.0,1.0,0.7629175186157227
251,-7.0,-22.0,18.0,0.0,-9827.0,-11125.0,6669.0,-1909.0,1.0,8.0,16.0,-1.0,11.0,-4.0,-5.0,-4.0,0.7679483890533447
252,14.0,-20.0,19.0,0.0,-9821.0,-11127.0,6674.0,-1909.0,1.0,8.0,16.0,-1.0,11.0,-4.0,-5.0,-4.0,0.7857265472412109
253,14.0,-20.0,19.0,0.0,-9821.0,-11127.0,6674.0,-1909.0,10.0,15.0,2.0,-9.0,-16.0,5.0,9.0,1.0,0.7898867130279541
254,14.0,-20.0,19.0,0.0,-9821.0,-11127.0,6674.0,-1909.0,-5.0,-13.0,13.0,12.0,-2.0,-11.0,-8.0,-1.0,0.7937417030334473
255,32.0,-21.0,12.0,0.0,-9813.0,-11133.0,6677.0,-1908.0,-5.0,-13.0,13.0,12.0,-2.0,-11.0,-8.0,-1.0,0.8071341514587402
256,32.0,-21.0,12.0,0.0,-9813.0,-11133.0,6677.0,-1908.0,-4.0,-13.0,-3.0,4.0,7.0,-1.0,-1.0,1.0,0.8119487762451172
257,32.0,-21.0,12.0,0.0,-9813.0,-11133.0,6677.0,-1908.0,11.0,22.0,29.0,8.0,-14.0,2.0,-11.0,6.0,0.8170971870422363
258,48.0,-25.0,4.0,0.0,-9802.0,-11141.0,6679.0,-1907.0,11.0,22.0,29.0,8.0,-14.0,2.0,-11.0,6.0,0.8206243515014648
259,48.0,-25.0,4.0,0.0,-9802.0,-11141.0,6679.0,-1907.0,-8.0,-16.0,-30.0,12.0,11.0,1.0,6.0,-5.0,0.8229453563690186
260,48.0,-25.0,4.0,0.0,-9802.0,-11141.0,6679.0,-1907.0,-5.0,-4.0,0.0,3.0,-20.0,-2.0,17.0,0.0,0.8276114463806152
261,167.0,-9.0,-25.0,0.0,-9779.0,-11162.0,6676.0,-1917.0,-5.0,-4.0,0.0,3.0,-20.0,-2.0,17.0,0.0,0.8532962799072266
262,167.0,-9.0,-25.0,0.0,-9779.0,-11162.0,6676.0,-1917.0,-1.0,11.0,15.0,-4.0,-24.0,3.0,25.0,5.0,0.8583292961120605
263,167.0,-9.0,-25.0,0.0,-9779.0,-11162.0,6676.0,-1917.0,-5.0,-4.0,9.0,23.0,-16.0,7.0,-32.0,-3.0,0.8629164695739746
264,361.0,4.0,-82.0,0.0,-9733.0,-11206.0,6663.0,-1940.0,-5.0,-4.0,9.0,23.0,-16.0,7.0,-32.0,-3.0,0.8654670715332031
265,361.0,4.0,-82.0,0.0,-9733.0,-11206.0,6663.0,-1940.0,-25.0,-61.0,3.0,4.0,2.0,9.0,-15.0,-3.0,0.8677949905395508
266,361.0,4.0,-82.0,0.0,-9733.0,-11206.0,6663.0,-1940.0,-4.0,-29.0,-49.0,45.0,-21.0,14.0,31.0,1.0,0.8700361251831055
267,570.0,81.0,-280.0,0.0,-9676.0,-11283.0,6608.0,-1963.0,-4.0,-29.0,-49.0,45.0,-21.0,14.0,31.0,1.0,0.8807802200317383
268,570.0,81.0,-280.0,0.0,-9676.0,-11283.0,6608.0,-1963.0,-8.0,17.0,79.0,-36.0,9.0,9.0,-15.0,-12.0,0.8979358673095703
269,570.0,81.0,-280.0,0.0,-9676.0,-11283.0,6608.0,-1963.0,3.0,-1.0,7.0,-25.0,11.0,-14.0,-8.0,2.0,0.9026942253112793
270,612.0,137.0,-506.0,0.0,-9626.0,-11384.0,6509.0,-1960.0,3.0,-1.0,7.0,-25.0,11.0,-14.0,-8.0,2.0,0.906984806060791
271,612.0,137.0,-506.0,0.0,-9626.0,-11384.0,6509.0,-1960.0,7.0,41.0,2.0,25.0,42.0,-7.0,22.0,6.0,0.9097425937652588
272,612.0,137.0,-506.0,0.0,-9626.0,-11384.0,6509.0,-1960.0,21.0,31.0,61.0,18.0,7.0,-4.0,-23.0,6.0,0.9122302532196045
273,349.0,43.0,-746.0,0.0,-9623.0,-11475.0,6375.0,-1879.0,21.0,31.0,61.0,18.0,7.0,-4.0,-23.0,6.0,0.92655348777771
274,349.0,43.0,-746.0,0.0,-9623.0,-11475.0,6375.0,-1879.0,-1.0,1.0,-14.0,6.0,-31.0,0.0,-10.0,-1.0,0.92897629737854
275,349.0,43.0,-746.0,0.0,-9623.0,-11475.0,6375.0,-1879.0,37.0,36.0,-128.0,-38.0,10.0,10.0,18.0,17.0,0.9312241077423096
276,-47.0,-115.0,-1020.0,0.0,-9679.0,-11539.0,6219.0,-1715.0,37.0,36.0,-128.0,-38.0,10.0,10.0,18.0,17.0,0.9403655529022217
277,-47.0,-115.0,-1020.0,0.0,-9679.0,-11539.0,6219.0,-1715.0,5.0,-16.0,-24.0,-4.0,22.0,9.0,-15.0,-1.0,0.9483423233032227
278,-47.0,-115.0,-1020.0,0.0,-9679.0,-11539.0,6219.0,-1715.0,-23.0,-35.0,2.0,-4.0,18.0,-6.0,-2.0,-11.0,0.9506328105926514
279,-381.0,-251.0,-1148.0,0.0,-9775.0,-11572.0,6063.0,-1495.0,-23.0,-35.0,2.0,-4.0,18.0,-6.0,-2.0,-11.0,0.9651956558227539
280,-381.0,-251.0,-1148.0,0.0,-9775.0,-11572.0,6063.0,-1495.0,15.0,1.0,-63.0,-10.0,10.0,-18.0,4.0,6.0,0.9695754051208496
281,-381.0,-251.0,-1148.0,0.0,-9775.0,-11572.0,6063.0,-1495.0,-9.0,-19.0,13.0,-10.0,-7.0,-8.0,0.0,-4.0,0.9742658138275146
282,-581.0,-252.0,-1242.0,0.0,-9903.0,-11582.0,5889.0,-1245.0,-9.0,-19.0,13.0,-10.0,-7.0,-8.0,0.0,-4.0,0.9870240688323975
283,-581.0,-252.0,-1242.0,0.0,-9903.0,-11582.0,5889.0,-1245.0,14.0,9.0,-52.0,-3.0,3.0,6.0,-1.0,4.0,0.9913947582244873
284,-581.0,-252.0,-1242.0,0.0,-9903.0,-11582.0,5889.0,-1245.0,-17.0,-24.0,3.0,-8.0,7.0,0.0,-3.0,-9.0,0.9955582618713379
285,-703.0,-156.0,-1294.0,0.0,-10066.0,-11579.0,5669.0,-959.0,-17.0,-24.0,3.0,-8.0,7.0,0.0,-3.0,-9.0,1.0005171298980713
286,-703.0,-156.0,-1294.0,0.0,-10066.0,-11579.0,5669.0,-959.0,35.0,97.0,0.0,-10.0,5.0,1.0,-1.0,11.0,1.008606195449829
287,-703.0,-156.0,-1294.0,0.0,-10066.0,-11579.0,5669.0,-959.0,-14.0,-2.0,3.0,-9.0,-9.0,12.0,5.0,-6.0,1.010878562927246
288,-1015.0,48.0,-1404.0,0.0,-10280.0,-11547.0,5389.0,-634.0,-14.0,-2.0,3.0,-9.0,-9.0,12.0,5.0,-6.0,1.023909568786621
289,-1015.0,48.0,-1404.0,0.0,-10280.0,-11547.0,5389.0,-634.0,-34.0,-27.0,18.0,-5.0,-16.0,-5.0,-2.0,-3.0,1.02622389793396
290,-1015.0,48.0,-1404.0,0.0,-10280.0,-11547.0,5389.0,-634.0,6.0,-3.0,10.0,-9.0,-5.0,-3.0,1.0,2.0,1.028440237045288
291,-1413.0,149.0,-1924.0,0.0,-10490.0,-11498.0,5108.0,-321.0,6.0,-3.0,10.0,-9.0,-5.0,-3.0,1.0,2.0,1.0470221042633057
292,-1413.0,149.0,-1924.0,0.0,-10490.0,-11498.0,5108.0,-321.0,0.0,-10.0,18.0,6.0,-12.0,-1.0,-7.0,-5.0,1.049360990524292
293,-1413.0,149.0,-1924.0,0.0,-10490.0,-11498.0,5108.0,-321.0,-35.0,-21.0,3.0,7.0,1.0,-8.0,-14.0,-6.0,1.051671028137207
294,-1396.0,170.0,-2593.0,0.0,-10684.0,-11482.0,4739.0,63.0,-35.0,-21.0,3.0,7.0,1.0,-8.0,-14.0,-6.0,1.0599479675292969
295,-1396.0,170.0,-2593.0,0.0,-10684.0,-11482.0,4739.0,63.0,7.0,-21.0,1.0,2.0,7.0,-1.0,-1.0,9.0,1.0689191818237305
296,-1396.0,170.0,-2593.0,0.0,-10684.0,-11482.0,4739.0,63.0,-23.0,30.0,10.0,-11.0,-6.0,-7.0,-3.0,-10.0,1.0712170600891113
297,-1285.0,72.0,-3363.0,0.0,-10838.0,-11505.0,4281.0,540.0,-23.0,30.0,10.0,-11.0,-6.0,-7.0,-3.0,-10.0,1.085655927658081
298,-1285.0,72.0,-3363.0,0.0,-10838.0,-11505.0,4281.0,540.0,-2.0,-16.0,4.0,-17.0,-3.0,-3.0,-4.0,10.0,1.0902247428894043
299,-1285.0,72.0,-3363.0,0.0,-10838.0,-11505.0,4281.0,540.0,-1.0,-5.0,-7.0,-5.0,-2.0,-5.0,-7.0,-3.0,1.0947108268737793
300,-1353.0,-207.0,-4086.0,0.0,-10953.0,-11534.0,3765.0,1131.0,-1.0,-5.0,-7.0,-5.0,-2.0,-5.0,-7.0,-3.0,1.1075060367584229
301,-1353.0,-207.0,-4086.0,0.0,-10953.0,-11534.0,3765.0,1131.0,-1.0,8.0,18.0,30.0,13.0,-1.0,-3.0,-5.0,1.1117913722991943
302,-1353.0,-207.0,-4086.0,0.0,-10953.0,-11534.0,3765.0,1131.0,1.0,-4.0,-5.0,11.0,5.0,-1.0,2.0,-5.0,1.1163442134857178
303,-1771.0,-585.0,-4741.0,0.0,-11076.0,-11493.0,3211.0,1841.0,1.0,-4.0,-5.0,11.0,5.0,-1.0,2.0,-5.0,1.1293485164642334
304,-1771.0,-585.0,-4741.0,0.0,-11076.0,-11493.0,3211.0,1841.0,2.0,-13.0,-2.0,-16.0,-5.0,8.0,-3.0,-10.0,1.1337473392486572
305,-1771.0,-585.0,-4741.0,0.0,-11076.0,-11493.0,3211.0,1841.0,9.0,2.0,-1.0,-8.0,3.0,-11.0,4.0,2.0,1.1377003192901611
306,-2381.0,-1034.0,-5169.0,0.0,-11190.0,-11365.0,2641.0,2667.0,9.0,2.0,-1.0,-8.0,3.0,-11.0,4.0,2.0,1.144399881362915
307,-2381.0,-1034.0,-5169.0,0.0,-11190.0,-11365.0,2641.0,2667.0,-2.0,-6.0,-1.0,-2.0,-5.0,-2.0,-2.0,-6.0,1.1473991870880127
308,-2381.0,-1034.0,-5169.0,0.0,-11190.0,-11365.0,2641.0,2667.0,5.0,-6.0,8.0,2.0,8.0,13.0,5.0,4.0,1.1504347324371338
309,-2915.0,-1400.0,-5284.0,0.0,-11308.0,-11121.0,2081.0,3545.0,5.0,-6.0,8.0,2.0,8.0,13.0,5.0,4.0,1.166572093963623
310,-2915.0,-1400.0,-5284.0,0.0,-11308.0,-11121.0,2081.0,3545.0,-3.0,-2.0,5.0,11.0,8.0,-8.0,-3.0,-4.0,1.1689159870147705
311,-2915.0,-1400.0,-5284.0,0.0,-11308.0,-11121.0,2081.0,3545.0,12.0,0.0,2.0,-8.0,-1.0,23.0,9.0,6.0,1.171151876449585
312,-2978.0,-1654.0,-5324.0,0.0,-11376.0,-10816.0,1542.0,4435.0,12.0,0.0,2.0,-8.0,-1.0,23.0,9.0,6.0,1.1803309917449951
313,-2978.0,-1654.0,-5324.0,0.0,-11376.0,-10816.0,1542.0,4435.0,-5.0,-7.0,3.0,-19.0,-18.0,4.0,-1.0,-6.0,1.1883342266082764
314,-2978.0,-1654.0,-5324.0,0.0,-11376.0,-10816.0,1542.0,4435.0,0.0,-6.0,-11.0,-25.0,7.0,-47.0,-4.0,-2.0,1.1909351348876953
315,-3073.0,-1841.0,-5339.0,0.0,-11400.0,-10446.0,1015.0,5323.0,0.0,-6.0,-11.0,-25.0,7.0,-47.0,-4.0,-2.0,1.204667091369629
316,-3073.0,-1841.0,-5339.0,0.0,-11400.0,-10446.0,1015.0,5323.0,-2.0,-2.0,0.0,0.0,6.0,4.0,0.0,-5.0,1.2087559700012207
317,-3073.0,-1841.0,-5339.0,0.0,-11400.0,-10446.0,1015.0,5323.0,5.0,5.0,0.0,-24.0,-8.0,25.0,16.0,-3.0,1.212630033493042
318,-3223.0,-2011.0,-5338.0,0.0,-11389.0,-10001.0,498.0,6202.0,5.0,5.0,0.0,-24.0,-8.0,25.0,16.0,-3.0,1.2291622161865234
319,-3223.0,-2011.0,-5338.0,0.0,-11389.0,-10001.0,498.0,6202.0,0.0,1.0,15.0,28.0,-21.0,-21.0,-7.0,-4.0,1.2341740131378174
320,-3223.0,-2011.0,-5338.0,0.0,-11389.0,-10001.0,498.0,6202.0,3.0,2.0,4.0,2.0,-4.0,-22.0,-24.0,1.0,1.238640308380127
321,-3377.0,-2223.0,-5308.0,0.0,-11344.0,-9476.0,-2.0,7069.0,3.0,2.0,4.0,2.0,-4.0,-22.0,-24.0,1.0,1.2408828735351562
322,-3377.0,-2223.0,-5308.0,0.0,-11344.0,-9476.0,-2.0,7069.0,2.0,4.0,30.0,14.0,31.0,25.0,16.0,13.0,1.2487576007843018
323,-3377.0,-2223.0,-5308.0,0.0,-11344.0,-9476.0,-2.0,7069.0,-1.0,-2.0,-20.0,-22.0,23.0,-7.0,-8.0,-9.0,1.251122236251831
324,-3462.0,-2297.0,-5210.0,0.0,-11264.0,-8885.0,-490.0,7898.0,-1.0,-2.0,-20.0,-22.0,23.0,-7.0,-8.0,-9.0,1.2655482292175293
325,-3462.0,-2297.0,-5210.0,0.0,-11264.0,-8885.0,-490.0,7898.0,-4.0,-1.0,5.0,-11.0,-16.0,-16.0,-11.0,-14.0,1.269913911819458
326,-3462.0,-2297.0,-5210.0,0.0,-11264.0,-8885.0,-490.0,7898.0,7.0,3.0,33.0,15.0,-12.0,-8.0,3.0,14.0,1.273970127105713
327,-3545.0,-2308.0,-5178.0,0.0,-11145.0,-8232.0,-979.0,8691.0,7.0,3.0,33.0,15.0,-12.0,-8.0,3.0,14.0,1.2880043983459473
328,-3545.0,-2308.0,-5178.0,0.0,-11145.0,-8232.0,-979.0,8691.0,-4.0,-10.0,-66.0,-9.0,27.0,11.0,-10.0,-7.0,1.2932803630828857
329,-3545.0,-2308.0,-5178.0,0.0,-11145.0,-8232.0,-979.0,8691.0,4.0,4.0,20.0,32.0,-8.0,4.0,17.0,-14.0,1.2979481220245361
330,-3568.0,-2313.0,-5071.0,0.0,-10983.0,-7528.0,-1462.0,9434.0,4.0,4.0,20.0,32.0,-8.0,4.0,17.0,-14.0,1.3005197048187256
331,-3568.0,-2313.0,-5071.0,0.0,-10983.0,-7528.0,-1462.0,9434.0,-6.0,-22.0,-79.0,-53.0,-20.0,-14.0,12.0,-3.0,1.3082225322723389
332,-3568.0,-2313.0,-5071.0,0.0,-10983.0,-7528.0,-1462.0,9434.0,-4.0,-13.0,-98.0,-51.0,5.0,27.0,6.0,-2.0,1.3104774951934814
333,-3340.0,-2303.0,-4778.0,0.0,-10781.0,-6813.0,-1900.0,10108.0,-4.0,-13.0,-98.0,-51.0,5.0,27.0,6.0,-2.0,1.3246307373046875
334,-3340.0,-2303.0,-4778.0,0.0,-10781.0,-6813.0,-1900.0,10108.0,0.0,0.0,47.0,47.0,-11.0,-22.0,-5.0,-2.0,1.329077959060669
335,-3340.0,-2303.0,-4778.0,0.0,-10781.0,-6813.0,-1900.0,10108.0,0.0,3.0,37.0,46.0,-84.0,5.0,47.0,12.0,1.333587646484375
336,-2954.0,-2156.0,-4294.0,0.0,-10557.0,-6136.0,-2271.0,10686.0,0.0,3.0,37.0,46.0,-84.0,5.0,47.0,12.0,1.3477983474731445
337,-2954.0,-2156.0,-4294.0,0.0,-10557.0,-6136.0,-2271.0,10686.0,-4.0,1.0,-10.0,-18.0,41.0,12.0,51.0,21.0,1.3533151149749756
338,-2954.0,-2156.0,-4294.0,0.0,-10557.0,-6136.0,-2271.0,10686.0,-2.0,-2.0,18.0,4.0,1.0,-14.0,21.0,2.0,1.358175277709961
339,-2545.0,-1839.0,-3740.0,0.0,-10327.0,-5525.0,-2590.0,11160.0,-2.0,-2.0,18.0,4.0,1.0,-14.0,21.0,2.0,1.3607542514801025
340,-2545.0,-1839.0,-3740.0,0.0,-10327.0,-5525.0,-2590.0,11160.0,-5.0,-5.0,11.0,-42.0,-45.0,-13.0,19.0,-22.0,1.36832857131958
341,-2545.0,-1839.0,-3740.0,0.0,-10327.0,-5525.0,-2590.0,11160.0,1.0,2.0,-11.0,4.0,32.0,36.0,55.0,16.0,1.3705930709838867
342,-2321.0,-1542.0,-3207.0,0.0,-10113.0,-4959.0,-2882.0,11544.0,1.0,2.0,-11.0,4.0,32.0,36.0,55.0,16.0,1.3860223293304443
343,-2321.0,-1542.0,-3207.0,0.0,-10113.0,-4959.0,-2882.0,11544.0,1.0,5.0,18.0,32.0,-33.0,-11.0,-62.0,-8.0,1.3907430171966553
344,-2321.0,-1542.0,-3207.0,0.0,-10113.0,-4959.0,-2882.0,11544.0,-1.0,-1.0,1.0,5.0,-80.0,-19.0,-49.0,-12.0,1.3948514461517334
345,-1501.0,-1040.0,-2597.0,0.0,-9898.0,-4539.0,-3089.0,11846.0,-1.0,-1.0,1.0,5.0,-80.0,-19.0,-49.0,-12.0,1.4086461067199707
346,-1501.0,-1040.0,-2597.0,0.0,-9898.0,-4539.0,-3089.0,11846.0,-2.0,-6.0,14.0,0.0,53.0,10.0,-8.0,4.0,1.4141318798065186
347,-1501.0,-1040.0,-2597.0,0.0,-9898.0,-4539.0,-3089.0,11846.0,4.0,6.0,20.0,8.0,32.0,-6.0,-38.0,2.0,1.4189622402191162
348,-1650.0,139.0,-2287.0,0.0,-9675.0,-4300.0,-3429.0,12025.0,4.0,6.0,20.0,8.0,32.0,-6.0,-38.0,2.0,1.4290003776550293
349,-1650.0,139.0,-2287.0,0.0,-9675.0,-4300.0,-3429.0,12025.0,1.0,4.0,-5.0,-21.0,-8.0,18.0,-3.0,5.0,1.431333065032959
350,-1650.0,139.0,-2287.0,0.0,-9675.0,-4300.0,-3429.0,12025.0,-7.0,-9.0,-14.0,-19.0,51.0,-22.0,-27.0,-5.0,1.4335715770721436
351,513.0,-77.0,306.0,0.0,-9693.0,-4355.0,-3339.0,12015.0,-7.0,-9.0,-14.0,-19.0,51.0,-22.0,-27.0,-5.0,1.4435522556304932
352,513.0,-77.0,306.0,0.0,-9693.0,-4355.0,-3339.0,12015.0,-6.0,2.0,7.0,12.0,45.0,-44.0,-34.0,-32.0,1.4464356899261475
353,513.0,-77.0,306.0,0.0,-9693.0,-4355.0,-3339.0,12015.0,0.0,0.0,9.0,13.0,30.0,14.0,8.0,-7.0,1.4495742321014404
354,974.0,133.0,1825.0,0.0,-9886.0,-4484.0,-3124.0,11868.0,0.0,0.0,9.0,13.0,30.0,14.0,8.0,-7.0,1.4663150310516357
355,974.0,133.0,1825.0,0.0,-9886.0,-4484.0,-3124.0,11868.0,4.0,1.0,6.0,20.0,19.0,21.0,11.0,13.0,1.4686675071716309
356,974.0,133.0,1825.0,0.0,-9886.0,-4484.0,-3124.0,11868.0,0.0,2.0,-4.0,-7.0,5.0,-11.0,-25.0,-5.0,1.4709036350250244
357,-346.0,962.0,1317.0,0.0,-10039.0,-4615.0,-3208.0,11665.0,0.0,2.0,-4.0,-7.0,5.0,-11.0,-25.0,-5.0,1.480853796005249
358,-346.0,962.0,1317.0,0.0,-10039.0,-4615.0,-3208.0,11665.0,1.0,2.0,4.0,1.0,-21.0,11.0,4.0,5.0,1.4884634017944336
359,-346.0,962.0,1317.0,0.0,-10039.0,-4615.0,-3208.0,11665.0,-3.0,-2.0,2.0,-6.0,-21.0,-8.0,-5.0,2.0,1.4907796382904053
360,165.0,1862.0,1808.0,0.0,-10198.0,-4872.0,-3290.0,11397.0,-3.0,-2.0,2.0,-6.0,-21.0,-8.0,-5.0,2.0,1.5045557022094727
361,165.0,1862.0,1808.0,0.0,-10198.0,-4872.0,-3290.0,11397.0,-1.0,-1.0,-1.0,4.0,-21.0,5.0,9.0,1.0,1.5094797611236572
362,165.0,1862.0,1808.0,0.0,-10198.0,-4872.0,-3290.0,11397.0,2.0,-1.0,3.0,3.0,15.0,1.0,-5.0,1.0,1.5140373706817627
363,1544.0,2413.0,2692.0,0.0,-10361.0,-5381.0,-3216.0,11036.0,2.0,-1.0,3.0,3.0,15.0,1.0,-5.0,1.0,1.5275852680206299
364,1544.0,2413.0,2692.0,0.0,-10361.0,-5381.0,-3216.0,11036.0,0.0,-2.0,-3.0,1.0,-4.0,0.0,-12.0,4.0,1.5322291851043701
365,1544.0,2413.0,2692.0,0.0,-10361.0,-5381.0,-3216.0,11036.0,-6.0,-1.0,1.0,-6.0,-19.0,0.0,-21.0,-5.0,1.5366933345794678
366,2598.0,3094.0,3373.0,0.0,-10500.0,-6115.0,-3037.0,10563.0,-6.0,-1.0,1.0,-6.0,-19.0,0.0,-21.0,-5.0,1.5488526821136475
367,2598.0,3094.0,3373.0,0.0,-10500.0,-6115.0,-3037.0,10563.0,1.0,0.0,1.0,1.0,-7.0,17.0,15.0,5.0,1.5525474548339844
368,2598.0,3094.0,3373.0,0.0,-10500.0,-6115.0,-3037.0,10563.0,2.0,1.0,3.0,-1.0,-16.0,-11.0,-15.0,1.0,1.5564563274383545
369,3451.0,3972.0,4371.0,0.0,-10627.0,-7082.0,-2770.0,9883.0,2.0,1.0,3.0,-1.0,-16.0,-11.0,-15.0,1.0,1.5637686252593994
370,3451.0,3972.0,4371.0,0.0,-10627.0,-7082.0,-2770.0,9883.0,7.0,5.0,9.0,19.0,6.0,7.0,-12.0,0.0,1.5662968158721924
371,3451.0,3972.0,4371.0,0.0,-10627.0,-7082.0,-2770.0,9883.0,-5.0,-11.0,-15.0,4.0,-10.0,-49.0,43.0,8.0,1.5693414211273193
372,3861.0,4880.0,5142.0,0.0,-10709.0,-8193.0,-2474.0,8972.0,-5.0,-11.0,-15.0,4.0,-10.0,-49.0,43.0,8.0,1.6013996601104736
373,3861.0,4880.0,5142.0,0.0,-10709.0,-8193.0,-2474.0,8972.0,-6.0,1.0,1.0,4.0,-40.0,-15.0,-75.0,-57.0,1.606062889099121
374,3861.0,4880.0,5142.0,0.0,-10709.0,-8193.0,-2474.0,8972.0,0.0,-5.0,-5.0,-7.0,76.0,29.0,-66.0,14.0,1.61027193069458
375,3574.0,5715.0,5609.0,0.0,-10746.0,-9309.0,-2236.0,7830.0,0.0,-5.0,-5.0,-7.0,76.0,29.0,-66.0,14.0,1.6176340579986572
376,3574.0,5715.0,5609.0,0.0,-10746.0,-9309.0,-2236.0,7830.0,-7.0,2.0,16.0,64.0,101.0,-96.0,-68.0,-37.0,1.6201984882354736
377,3574.0,5715.0,5609.0,0.0,-10746.0,-9309.0,-2236.0,7830.0,8.0,4.0,3.0,14.0,92.0,67.0,-80.0,12.0,1.622481107711792
378,2936.0,6296.0,6294.0,0.0,-10776.0,-10291.0,-2074.0,6491.0,8.0,4.0,3.0,14.0,92.0,67.0,-80.0,12.0,1.639674186706543
379,2936.0,6296.0,6294.0,0.0,-10776.0,-10291.0,-2074.0,6491.0,3.0,0.0,-1.0,4.0,66.0,72.0,57.0,9.0,1.6421661376953125
380,2936.0,6296.0,6294.0,0.0,-10776.0,-10291.0,-2074.0,6491.0,17.0,19.0,31.0,70.0,-24.0,64.0,-38.0,27.0,1.6444740295410156
381,2346.0,6243.0,7305.0,0.0,-10826.0,-11110.0,-1811.0,4955.0,17.0,19.0,31.0,70.0,-24.0,64.0,-38.0,27.0,1.646735429763794
382,2346.0,6243.0,7305.0,0.0,-10826.0,-11110.0,-1811.0,4955.0,11.0,1.0,-2.0,-29.0,-128.0,20.0,123.0,50.0,1.6490774154663086
383,2346.0,6243.0,7305.0,0.0,-10826.0,-11110.0,-1811.0,4955.0,-16.0,1.0,13.0,48.0,-128.0,76.0,120.0,-45.0,1.6513595581054688
384,2310.0,5537.0,8761.0,0.0,-10838.0,-11776.0,-1269.0,3273.0,-16.0,1.0,13.0,48.0,-128.0,76.0,120.0,-45.0,1.6696865558624268
385,2310.0,5537.0,8761.0,0.0,-10838.0,-11776.0,-1269.0,3273.0,-10.0,1.0,29.0,65.0,114.0,34.0,99.0,-21.0,1.674333095550537
386,2310.0,5537.0,8761.0,0.0,-10838.0,-11776.0,-1269.0,3273.0,-25.0,-24.0,-8.0,75.0,-30.0,-21.0,-101.0,-30.0,1.678354263305664
387,1891.0,4092.0,9398.0,0.0,-10804.0,-12197.0,-475.0,1652.0,-25.0,-24.0,-8.0,75.0,-30.0,-21.0,-101.0,-30.0,1.6833040714263916
388,1891.0,4092.0,9398.0,0.0,-10804.0,-12197.0,-475.0,1652.0,-5.0,-9.0,-26.0,-57.0,-28.0,-44.0,-124.0,15.0,1.6911931037902832
389,1891.0,4092.0,9398.0,0.0,-10804.0,-12197.0,-475.0,1652.0,-6.0,-23.0,-31.0,-28.0,127.0,42.0,120.0,5.0,1.693432331085205
390,1211.0,3170.0,8471.0,0.0,-10726.0,-12380.0,299.0,237.0,-6.0,-23.0,-31.0,-28.0,127.0,42.0,120.0,5.0,1.7069389820098877
391,1211.0,3170.0,8471.0,0.0,-10726.0,-12380.0,299.0,237.0,22.0,9.0,17.0,-65.0,-47.0,-63.0,5.0,-34.0,1.7109951972961426
392,1211.0,3170.0,8471.0,0.0,-10726.0,-12380.0,299.0,237.0,36.0,68.0,-67.0,-106.0,-37.0,-29.0,109.0,35.0,1.7149722576141357
393,-908.0,2535.0,7433.0,0.0,-10836.0,-12211.0,1000.0,-968.0,36.0,68.0,-67.0,-106.0,-37.0,-29.0,109.0,35.0,1.730025053024292
394,-908.0,2535.0,7433.0,0.0,-10836.0,-12211.0,1000.0,-968.0,-21.0,-53.0,-57.0,-16.0,-74.0,-39.0,1.0,-22.0,1.7329938411712646
395,-908.0,2535.0,7433.0,0.0,-10836.0,-12211.0,1000.0,-968.0,-23.0,-42.0,90.0,53.0,-85.0,-82.0,-21.0,1.0,1.7355451583862305
396,-1423.0,1614.0,5073.0,0.0,-10970.0,-11949.0,1497.0,-1764.0,-23.0,-42.0,90.0,53.0,-85.0,-82.0,-21.0,1.0,1.74298095703125
397,-1423.0,1614.0,5073.0,0.0,-10970.0,-11949.0,1497.0,-1764.0,-47.0,2.0,97.0,51.0,127.0,63.0,-87.0,2.0,1.7508995532989502
398,-1423.0,1614.0,5073.0,0.0,-10970.0,-11949.0,1497.0,-1764.0,-26.0,-103.0,-113.0,-128.0,-11.0,63.0,36.0,-82.0,1.7531826496124268
399,-88.0,-389.0,3978.0,0.0,-10888.0,-11869.0,2062.0,-2186.0,-26.0,-103.0,-113.0,-128.0,-11.0,63.0,36.0,-82.0,1.768183708190918
400,-88.0,-389.0,3978.0,0.0,-10888.0,-11869.0,2062.0,-2186.0,0.0,19.0,-23.0,-51.0,-90.0,-29.0,-4.0,28.0,1.7724642753601074
401,-88.0,-389.0,3978.0,0.0,-10888.0,-11869.0,2062.0,-2186.0,58.0,-11.0,11.0,-31.0,0.0,-49.0,-63.0,7.0,1.7765307426452637
402,2277.0,-1742.0,673.0,0.0,-10532.0,-12160.0,2300.0,-2091.0,58.0,-11.0,11.0,-31.0,0.0,-49.0,-63.0,7.0,1.787893533706665
403,2277.0,-1742.0,673.0,0.0,-10532.0,-12160.0,2300.0,-2091.0,-15.0,-19.0,-33.0,-20.0,45.0,26.0,66.0,-54.0,1.7979767322540283
404,2277.0,-1742.0,673.0,0.0,-10532.0,-12160.0,2300.0,-2091.0,12.0,13.0,127.0,85.0,127.0,46.0,113.0,69.0,1.8020267486572266
405,1535.0,-1052.0,-487.0,0.0,-10362.0,-12367.0,2206.0,-1806.0,12.0,13.0,127.0,85.0,127.0,46.0,113.0,69.0,1.804581642150879
406,1535.0,-1052.0,-487.0,0.0,-10362.0,-12367.0,2206.0,-1806.0,41.0,71.0,68.0,0.0,-50.0,-48.0,-78.0,-14.0,1.8113272190093994
407,1535.0,-1052.0,-487.0,0.0,-10362.0,-12367.0,2206.0,-1806.0,16.0,50.0,-54.0,29.0,1.0,-73.0,-45.0,-9.0,1.8135812282562256
408,1378.0,-252.0,1835.0,0.0,-10152.0,-12473.0,2425.0,-1983.0,16.0,50.0,-54.0,29.0,1.0,-73.0,-45.0,-9.0,1.834608554840088
409,1378.0,-252.0,1835.0,0.0,-10152.0,-12473.0,2425.0,-1983.0,11.0,-25.0,-27.0,-32.0,-67.0,-53.0,-69.0,31.0,1.8392333984375
410,1378.0,-252.0,1835.0,0.0,-10152.0,-12473.0,2425.0,-1983.0,21.0,12.0,-14.0,4.0,29.0,59.0,-70.0,26.0,1.8436737060546875
411,659.0,-292.0,2063.0,0.0,-10033.0,-12463.0,2742.0,-2226.0,21.0,12.0,-14.0,4.0,29.0,59.0,-70.0,26.0,1.8489768505096436
412,659.0,-292.0,2063.0,0.0,-10033.0,-12463.0,2742.0,-2226.0,-22.0,11.0,-29.0,-18.0,22.0,0.0,-24.0,-29.0,1.8513000011444092
413,659.0,-292.0,2063.0,0.0,-10033.0,-12463.0,2742.0,-2226.0,-53.0,-19.0,-35.0,22.0,14.0,-2.0,-41.0,-33.0,1.8535733222961426
414,432.0,-398.0,927.0,0.0,-10020.0,-12389.0,2961.0,-2410.0,-53.0,-19.0,-35.0,22.0,14.0,-2.0,-41.0,-33.0,1.8631014823913574
415,432.0,-398.0,927.0,0.0,-10020.0,-12389.0,2961.0,-2410.0,5.0,-20.0,2.0,9.0,-11.0,0.0,50.0,31.0,1.8707456588745117
416,432.0,-398.0,927.0,0.0,-10020.0,-12389.0,2961.0,-2410.0,-43.0,-11.0,0.0,-82.0,31.0,-39.0,-28.0,-30.0,1.8729872703552246
417,-556.0,-296.0,1888.0,0.0,-10055.0,-12256.0,3255.0,-2560.0,-43.0,-11.0,0.0,-82.0,31.0,-39.0,-28.0,-30.0,1.887458324432373
418,-556.0,-296.0,1888.0,0.0,-10055.0,-12256.0,3255.0,-2560.0,70.0,66.0,16.0,45.0,27.0,24.0,127.0,83.0,1.8931725025177002
419,-556.0,-296.0,1888.0,0.0,-10055.0,-12256.0,3255.0,-2560.0,0.0,34.0,6.0,9.0,-46.0,-35.0,-16.0,-19.0,1.898042917251587
420,-982.0,-55.0,1903.0,0.0,-10137.0,-12075.0,3534.0,-2720.0,0.0,34.0,6.0,9.0,-46.0,-35.0,-16.0,-19.0,1.9092700481414795
421,-982.0,-55.0,1903.0,0.0,-10137.0,-12075.0,3534.0,-2720.0,-15.0,-68.0,-83.0,-22.0,93.0,61.0,66.0,31.0,1.9132423400878906
422,-982.0,-55.0,1903.0,0.0,-10137.0,-12075.0,3534.0,-2720.0,-15.0,-68.0,-83.0,-22.0,93.0,61.0,66.0,31.0,1.9172239303588867
423,-982.0,-55.0,1903.0,0.0,-10137.0,-12075.0,3534.0,-2720.0,-3.0,10.0,9.0,6.0,42.0,-25.0,83.0,6.0,1.9237151145935059
424,-610.0,159.0,1198.0,0.0,-10174.0,-11960.0,3705.0,-2859.0,-3.0,10.0,9.0,6.0,42.0,-25.0,83.0,6.0,1.9263968467712402
425,-610.0,159.0,1198.0,0.0,-10174.0,-11960.0,3705.0,-2859.0,-12.0,-2.0,26.0,-24.0,-30.0,-3.0,-100.0,-22.0,1.9310905933380127
426,-610.0,159.0,1198.0,0.0,-10174.0,-11960.0,3705.0,-2859.0,5.0,0.0,38.0,13.0,-8.0,-11.0,-20.0,2.0,1.93332839012146
427,-220.0,336.0,890.0,0.0,-10166.0,-11914.0,3786.0,-2972.0,5.0,0.0,38.0,13.0,-8.0,-11.0,-20.0,2.0,1.9477224349975586
428,-220.0,336.0,890.0,0.0,-10166.0,-11914.0,3786.0,-2972.0,-2.0,2.0,24.0,32.0,-7.0,23.0,-58.0,-2.0,1.9527089595794678
429,-220.0,336.0,890.0,0.0,-10166.0,-11914.0,3786.0,-2972.0,5.0,17.0,11.0,-4.0,-74.0,-15.0,-11.0,8.0,1.9587111473083496
430,-375.0,342.0,624.0,0.0,-10197.0,-11862.0,3819.0,-3031.0,5.0,17.0,11.0,-4.0,-74.0,-15.0,-11.0,8.0,1.9692809581756592
431,-375.0,342.0,624.0,0.0,-10197.0,-11862.0,3819.0,-3031.0,-10.0,-20.0,-41.0,-23.0,12.0,27.0,-10.0,-22.0,1.9716501235961914
432,-375.0,342.0,624.0,0.0,-10197.0,-11862.0,3819.0,-3031.0,1.0,-11.0,-37.0,-27.0,-28.0,-9.0,10.0,3.0,1.9738848209381104
433,-478.0,274.0,298.0,0.0,-10247.0,-11803.0,3840.0,-3067.0,1.0,-11.0,-37.0,-27.0,-28.0,-9.0,10.0,3.0,1.9830060005187988
434,-478.0,274.0,298.0,0.0,-10247.0,-11803.0,3840.0,-3067.0,2.0,13.0,17.0,7.0,20.0,-6.0,22.0,0.0,1.9916644096374512
435,-478.0,274.0,298.0,0.0,-10247.0,-11803.0,3840.0,-3067.0,-4.0,-2.0,18.0,-6.0,19.0,1.0,-12.0,-2.0,1.9939475059509277
436,-320.0,207.0,70.0,0.0,-10277.0,-11770.0,3845.0,-3087.0,-4.0,-2.0,18.0,-6.0,19.0,1.0,-12.0,-2.0,2.00710391998291
437,-320.0,207.0,70.0,0.0,-10277.0,-11770.0,3845.0,-3087.0,-2.0,-2.0,8.0,20.0,7.0,24.0,53.0,10.0,2.011413335800171
438,-320.0,207.0,70.0,0.0,-10277.0,-11770.0,3845.0,-3087.0,-4.0,-9.0,-27.0,-20.0,-64.0,-18.0,-2.0,2.0,2.015584945678711
439,-237.0,122.0,-109.0,0.0,-10294.0,-11758.0,3838.0,-3084.0,-4.0,-9.0,-27.0,-20.0,-64.0,-18.0,-2.0,2.0,2.030405282974243
440,-237.0,122.0,-109.0,0.0,-10294.0,-11758.0,3838.0,-3084.0,-5.0,5.0,0.0,5.0,33.0,4.0,6.0,0.0,2.035512685775757
441,-237.0,122.0,-109.0,0.0,-10294.0,-11758.0,3838.0,-3084.0,16.0,-2.0,21.0,42.0,8.0,20.0,15.0,12.0,2.0395071506500244
442,-241.0,71.0,-215.0,0.0,-10311.0,-11750.0,3828.0,-3068.0,16.0,-2.0,21.0,42.0,8.0,20.0,15.0,12.0,2.041745185852051
443,-241.0,71.0,-215.0,0.0,-10311.0,-11750.0,3828.0,-3068.0,6.0,13.0,21.0,-21.0,-71.0,-17.0,3.0,7.0,2.051201581954956
444,-241.0,71.0,-215.0,0.0,-10311.0,-11750.0,3828.0,-3068.0,-3.0,-2.0,16.0,24.0,53.0,3.0,5.0,-2.0,2.0540568828582764
445,-168.0,-1.0,-208.0,0.0,-10308.0,-11759.0,3828.0,-3045.0,-3.0,-2.0,16.0,24.0,53.0,3.0,5.0,-2.0,2.0666675567626953
446,-168.0,-1.0,-208.0,0.0,-10308.0,-11759.0,3828.0,-3045.0,-21.0,-22.0,9.0,22.0,-2.0,1.0,15.0,0.0,2.0690183639526367
447,-168.0,-1.0,-208.0,0.0,-10308.0,-11759.0,3828.0,-3045.0,19.0,38.0,32.0,-9.0,30.0,5.0,-20.0,0.0,2.0712738037109375
448,-75.0,-15.0,-204.0,0.0,-10299.0,-11773.0,3824.0,-3025.0,19.0,38.0,32.0,-9.0,30.0,5.0,-20.0,0.0,2.0893735885620117
449,-75.0,-15.0,-204.0,0.0,-10299.0,-11773.0,3824.0,-3025.0,-5.0,-16.0,-51.0,-13.0,-49.0,-34.0,-8.0,-5.0,2.0917646884918213
450,-75.0,-15.0,-204.0,0.0,-10299.0,-11773.0,3824.0,-3025.0,-14.0,-18.0,-24.0,-20.0,-10.0,-6.0,0.0,-5.0,2.09401535987854
451,66.0,-8.0,-139.0,0.0,-10276.0,-11797.0,3819.0,-3018.0,-14.0,-18.0,-24.0,-20.0,-10.0,-6.0,0.0,-5.0,2.1025843620300293
452,66.0,-8.0,-139.0,0.0,-10276.0,-11797.0,3819.0,-3018.0,9.0,13.0,24.0,9.0,37.0,-6.0,-9.0,2.0,2.1112406253814697
453,66.0,-8.0,-139.0,0.0,-10276.0,-11797.0,3819.0,-3018.0,-2.0,-10.0,-49.0,-18.0,34.0,0.0,5.0,0.0,2.1138572692871094
454,90.0,-35.0,-46.0,0.0,-10252.0,-11816.0,3823.0,-3017.0,-2.0,-10.0,-49.0,-18.0,34.0,0.0,5.0,0.0,2.1270527839660645
455,90.0,-35.0,-46.0,0.0,-10252.0,-11816.0,3823.0,-3017.0,-4.0,-8.0,-2.0,-2.0,-17.0,6.0,-3.0,-4.0,2.1311557292938232
456,90.0,-35.0,-46.0,0.0,-10252.0,-11816.0,3823.0,-3017.0,-4.0,0.0,25.0,30.0,25.0,-2.0,-9.0,-3.0,2.1350579261779785
457,14.0,-57.0,15.0,0.0,-10236.0,-11823.0,3842.0,-3020.0,-4.0,0.0,25.0,30.0,25.0,-2.0,-9.0,-3.0,2.1507043838500977
458,14.0,-57.0,15.0,0.0,-10236.0,-11823.0,3842.0,-3020.0,14.0,-20.0,-49.0,2.0,32.0,3.0,-9.0,13.0,2.153416633605957
459,14.0,-57.0,15.0,0.0,-10236.0,-11823.0,3842.0,-3020.0,-4.0,-5.0,3.0,-15.0,-36.0,-6.0,4.0,-3.0,2.155714988708496
460,-95.0,-60.0,74.0,0.0,-10234.0,-11814.0,3873.0,-3027.0,-4.0,-5.0,3.0,-15.0,-36.0,-6.0,4.0,-3.0,2.1629390716552734
461,-95.0,-60.0,74.0,0.0,-10234.0,-11814.0,3873.0,-3027.0,-7.0,0.0,16.0,12.0,20.0,-1.0,2.0,-4.0,2.1716737747192383
462,-95.0,-60.0,74.0,0.0,-10234.0,-11814.0,3873.0,-3027.0,2.0,3.0,-4.0,-5.0,28.0,10.0,-7.0,5.0,2.1740000247955322
463,-93.0,-56.0,87.0,0.0,-10232.0,-11800.0,3908.0,-3040.0,2.0,3.0,-4.0,-5.0,28.0,10.0,-7.0,5.0,2.187990427017212
464,-93.0,-56.0,87.0,0.0,-10232.0,-11800.0,3908.0,-3040.0,7.0,24.0,16.0,8.0,-11.0,0.0,-7.0,-6.0,2.192720413208008
465,-93.0,-56.0,87.0,0.0,-10232.0,-11800.0,3908.0,-3040.0,6.0,1.0,12.0,-2.0,-7.0,-1.0,2.0,6.0,2.1971681118011475
466,-37.0,-65.0,74.0,0.0,-10227.0,-11789.0,3941.0,-3056.0,6.0,1.0,12.0,-2.0,-7.0,-1.0,2.0,6.0,2.2091050148010254
467,-37.0,-65.0,74.0,0.0,-10227.0,-11789.0,3941.0,-3056.0,0.0,-5.0,7.0,-4.0,13.0,1.0,0.0,-1.0,2.2137885093688965
468,-37.0,-65.0,74.0,0.0,-10227.0,-11789.0,3941.0,-3056.0,-1.0,0.0,11.0,-27.0,-15.0,-1.0,0.0,3.0,2.2177863121032715
469,5.0,-56.0,31.0,0.0,-10221.0,-11783.0,3965.0,-3071.0,-1.0,0.0,11.0,-27.0,-15.0,-1.0,0.0,3.0,2.2233595848083496
470,5.0,-56.0,31.0,0.0,-10221.0,-11783.0,3965.0,-3071.0,-7.0,-6.0,-7.0,-10.0,-22.0,0.0,-8.0,-4.0,2.2306857109069824
471,5.0,-56.0,31.0,0.0,-10221.0,-11783.0,3965.0,-3071.0,5.0,2.0,-19.0,-4.0,-9.0,4.0,-1.0,3.0,2.237645149230957
472,-6.0,-44.0,-8.0,0.0,-10220.0,-11776.0,3981.0,-3081.0,5.0,2.0,-19.0,-4.0,-9.0,4.0,-1.0,3.0,2.246751546859741
473,-6.0,-44.0,-8.0,0.0,-10220.0,-11776.0,3981.0,-3081.0,-2.0,10.0,4.0,-13.0,-40.0,-5.0,-7.0,0.0,2.249091386795044
474,-6.0,-44.0,-8.0,0.0,-10220.0,-11776.0,3981.0,-3081.0,-10.0,5.0,5.0,0.0,-3.0,1.0,21.0,-3.0,2.2513420581817627
475,11.0,-36.0,-37.0,0.0,-10218.0,-11773.0,3990.0,-3087.0,-10.0,5.0,5.0,0.0,-3.0,1.0,21.0,-3.0,2.2693862915039062
476,11.0,-36.0,-37.0,0.0,-10218.0,-11773.0,3990.0,-3087.0,3.0,13.0,14.0,16.0,21.0,1.0,-38.0,5.0,2.2739081382751465
477,11.0,-36.0,-37.0,0.0,-10218.0,-11773.0,3990.0,-3087.0,-6.0,-15.0,-10.0,1.0,12.0,-10.0,-3.0,-9.0,2.2783756256103516
478,13.0,-29.0,-47.0,0.0,-10211.0,-11776.0,3997.0,-3089.0,-6.0,-15.0,-10.0,1.0,12.0,-10.0,-3.0,-9.0,2.2832257747650146
479,13.0,-29.0,-47.0,0.0,-10211.0,-11776.0,3997.0,-3089.0,-2.0,-11.0,-5.0,-2.0,17.0,6.0,25.0,-3.0,2.2911181449890137
480,13.0,-29.0,-47.0,0.0,-10211.0,-11776.0,3997.0,-3089.0,-11.0,-15.0,4.0,1.0,6.0,-1.0,-14.0,-5.0,2.2934017181396484
481,7.0,-21.0,-45.0,0.0,-10202.0,-11781.0,4002.0,-3090.0,-11.0,-15.0,4.0,1.0,6.0,-1.0,-14.0,-5.0,2.308094024658203
482,7.0,-21.0,-45.0,0.0,-10202.0,-11781.0,4002.0,-3090.0,14.0,19.0,49.0,12.0,-2.0,8.0,-2.0,4.0,2.312567710876465
483,7.0,-21.0,-45.0,0.0,-10202.0,-11781.0,4002.0,-3090.0,3.0,-5.0,-6.0,-5.0,-1.0,-19.0,-17.0,0.0,2.3167684078216553
484,0.0,-4.0,-16.0,0.0,-10199.0,-11783.0,4004.0,-3091.0,3.0,-5.0,-6.0,-5.0,-1.0,-19.0,-17.0,0.0,2.3291819095611572
485,0.0,-4.0,-16.0,0.0,-10199.0,-11783.0,4004.0,-3091.0,-14.0,-20.0,-15.0,-1.0,5.0,-3.0,4.0,-8.0,2.3333890438079834
486,0.0,-4.0,-16.0,0.0,-10199.0,-11783.0,4004.0,-3091.0,0.0,-1.0,2.0,10.0,15.0,6.0,8.0,2.0,2.338599681854248
487,-29.0,-15.0,-8.0,0.0,-10192.0,-11787.0,4012.0,-3088.0,0.0,-1.0,2.0,10.0,15.0,6.0,8.0,2.0,2.343294143676758
488,-29.0,-15.0,-8.0,0.0,-10192.0,-11787.0,4012.0,-3088.0,-9.0,-4.0,1.0,2.0,-10.0,-1.0,-11.0,-4.0,2.350904703140259
489,-29.0,-15.0,-8.0,0.0,-10192.0,-11787.0,4012.0,-3088.0,20.0,38.0,2.0,-14.0,-36.0,-10.0,-16.0,5.0,2.353156566619873
490,2.0,-15.0,-30.0,0.0,-10183.0,-11797.0,4014.0,-3082.0,20.0,38.0,2.0,-14.0,-36.0,-10.0,-16.0,5.0,2.367155075073242
491,2.0,-15.0,-30.0,0.0,-10183.0,-11797.0,4014.0,-3082.0,0.0,-4.0,-41.0,-15.0,-4.0,0.0,38.0,1.0,2.3729724884033203
492,2.0,-15.0,-30.0,0.0,-10183.0,-11797.0,4014.0,-3082.0,-5.0,-14.0,-8.0,11.0,-17.0,-5.0,3.0,1.0,2.3775341510772705
493,58.0,-18.0,-26.0,0.0,-10166.0,-11813.0,4012.0,-3076.0,-5.0,-14.0,-8.0,11.0,-17.0,-5.0,3.0,1.0,2.38789963722229
494,58.0,-18.0,-26.0,0.0,-10166.0,-11813.0,4012.0,-3076.0,-1.0,4.0,8.0,-1.0,-6.0,1.0,3.0,3.0,2.3958961963653564
495,58.0,-18.0,-26.0,0.0,-10166.0,-11813.0,4012.0,-3076.0,-11.0,-18.0,1.0,-5.0,10.0,11.0,26.0,-3.0,2.3981783390045166
496,44.0,-26.0,-48.0,0.0,-10155.0,-11827.0,4008.0,-3065.0,-11.0,-18.0,1.0,-5.0,10.0,11.0,26.0,-3.0,2.4036388397216797
497,44.0,-26.0,-48.0,0.0,-10155.0,-11827.0,4008.0,-3065.0,0.0,4.0,22.0,26.0,0.0,-22.0,-2.0,-4.0,2.4115705490112305
498,44.0,-26.0,-48.0,0.0,-10155.0,-11827.0,4008.0,-3065.0,-3.0,-7.0,1.0,4.0,12.0,3.0,-1.0,-7.0,2.4138457775115967
499,61.0,-31.0,-40.0,0.0,-10135.0,-11847.0,4007.0,-3055.0,-3.0,-7.0,1.0,4.0,12.0,3.0,-1.0,-7.0,2.425987482070923
