,Gyro 0,Gyro 1,Gyro 2,Label,Orientation 0,Orientation 1,Orientation 2,Orientation 3,Sensor 0,Sensor 1,Sensor 2,Sensor 3,Sensor 4,Sensor 5,Sensor 6,Sensor 7,Timestamp
0,27.0,-4.0,16.0,1.0,1110.0,10363.0,8269.0,9561.0,-8.0,-2.0,5.0,0.0,-7.0,-1.0,-1.0,-6.0,1.6689300537109375e-06
1,27.0,-4.0,16.0,1.0,1110.0,10363.0,8269.0,9561.0,-3.0,-5.0,-3.0,2.0,7.0,3.0,0.0,-2.0,0.0028154850006103516
2,27.0,-4.0,16.0,1.0,1110.0,10363.0,8269.0,9561.0,-10.0,-13.0,-3.0,3.0,8.0,2.0,-3.0,-7.0,0.005541563034057617
3,36.0,-17.0,15.0,1.0,1109.0,10367.0,8274.0,9552.0,-10.0,-13.0,-3.0,3.0,8.0,2.0,-3.0,-7.0,0.007988452911376953
4,36.0,-17.0,15.0,1.0,1109.0,10367.0,8274.0,9552.0,1.0,-6.0,-17.0,-4.0,-19.0,-5.0,5.0,0.0,0.010385990142822266
5,45.0,0.0,9.0,1.0,1105.0,10368.0,8280.0,9546.0,1.0,-6.0,-17.0,-4.0,-19.0,-5.0,5.0,0.0,0.012678861618041992
6,45.0,0.0,9.0,1.0,1105.0,10368.0,8280.0,9546.0,-18.0,-18.0,13.0,4.0,-15.0,-13.0,-8.0,-9.0,0.015069723129272461
7,45.0,0.0,9.0,1.0,1105.0,10368.0,8280.0,9546.0,8.0,4.0,-8.0,-1.0,3.0,2.0,4.0,5.0,0.017577171325683594
8,69.0,5.0,18.0,1.0,1100.0,10369.0,8290.0,9537.0,8.0,4.0,-8.0,-1.0,3.0,2.0,4.0,5.0,0.020142078399658203
9,69.0,5.0,18.0,1.0,1100.0,10369.0,8290.0,9537.0,4.0,12.0,3.0,-7.0,12.0,7.0,2.0,1.0,0.02311539649963379
10,69.0,5.0,18.0,1.0,1100.0,10369.0,8290.0,9537.0,-3.0,7.0,26.0,3.0,0.0,0.0,-4.0,-1.0,0.025984764099121094
11,67.0,29.0,30.0,1.0,1095.0,10368.0,8301.0,9530.0,-3.0,7.0,26.0,3.0,0.0,0.0,-4.0,-1.0,0.02834630012512207
12,67.0,29.0,30.0,1.0,1095.0,10368.0,8301.0,9530.0,-4.0,-1.0,-2.0,1.0,4.0,0.0,-1.0,-4.0,0.030688762664794922
13,67.0,29.0,30.0,1.0,1095.0,10368.0,8301.0,9530.0,2.0,-4.0,-2.0,-3.0,-5.0,-4.0,-3.0,4.0,0.0329742431640625
14,37.0,59.0,63.0,1.0,1086.0,10367.0,8304.0,9529.0,2.0,-4.0,-2.0,-3.0,-5.0,-4.0,-3.0,4.0,0.035300254821777344
15,37.0,59.0,63.0,1.0,1086.0,10367.0,8304.0,9529.0,-2.0,-3.0,-4.0,1.0,1.0,1.0,1.0,-3.0,0.037638187408447266
16,37.0,59.0,63.0,1.0,1086.0,10367.0,8304.0,9529.0,7.0,15.0,1.0,0.0,14.0,2.0,-7.0,0.0,0.03988957405090332
17,2.0,90.0,105.0,1.0,1070.0,10368.0,8298.0,9534.0,7.0,15.0,1.0,0.0,14.0,2.0,-7.0,0.0,0.04221987724304199
18,2.0,90.0,105.0,1.0,1070.0,10368.0,8298.0,9534.0,-3.0,5.0,9.0,-1.0,-1.0,-9.0,-10.0,0.0,0.0445561408996582
19,2.0,90.0,105.0,1.0,1070.0,10368.0,8298.0,9534.0,-4.0,-10.0,6.0,7.0,-3.0,-2.0,-11.0,-6.0,0.046861886978149414
20,-33.0,92.0,127.0,1.0,1052.0,10373.0,8284.0,9543.0,-4.0,-10.0,6.0,7.0,-3.0,-2.0,-11.0,-6.0,0.049156904220581055
21,-33.0,92.0,127.0,1.0,1052.0,10373.0,8284.0,9543.0,16.0,41.0,27.0,-5.0,0.0,-3.0,7.0,6.0,0.05159568786621094
22,-33.0,92.0,127.0,1.0,1052.0,10373.0,8284.0,9543.0,1.0,11.0,13.0,-4.0,3.0,-5.0,1.0,0.0,0.05446624755859375
23,-30.0,73.0,104.0,1.0,1033.0,10379.0,8270.0,9551.0,1.0,11.0,13.0,-4.0,3.0,-5.0,1.0,0.0,0.0571291446685791
24,-30.0,73.0,104.0,1.0,1033.0,10379.0,8270.0,9551.0,5.0,2.0,-4.0,-8.0,4.0,2.0,8.0,1.0,0.0595705509185791
25,-30.0,73.0,104.0,1.0,1033.0,10379.0,8270.0,9551.0,-1.0,-9.0,-22.0,-1.0,-5.0,-3.0,0.0,-1.0,0.06190085411071777
26,-2.0,58.0,58.0,1.0,1016.0,10383.0,8262.0,9556.0,-1.0,-9.0,-22.0,-1.0,-5.0,-3.0,0.0,-1.0,0.06428980827331543
27,-2.0,58.0,58.0,1.0,1016.0,10383.0,8262.0,9556.0,-7.0,-12.0,11.0,7.0,17.0,3.0,-2.0,-2.0,0.0666203498840332
28,-2.0,58.0,58.0,1.0,1016.0,10383.0,8262.0,9556.0,-5.0,-4.0,11.0,3.0,-17.0,-2.0,0.0,0.0,0.06887269020080566
29,48.0,40.0,7.0,1.0,998.0,10384.0,8263.0,9556.0,-5.0,-4.0,11.0,3.0,-17.0,-2.0,0.0,0.0,0.0712130069732666
30,48.0,40.0,7.0,1.0,998.0,10384.0,8263.0,9556.0,-7.0,-14.0,0.0,6.0,-10.0,-3.0,-11.0,-2.0,0.07354593276977539
31,48.0,40.0,7.0,1.0,998.0,10384.0,8263.0,9556.0,2.0,9.0,-7.0,2.0,1.0,3.0,4.0,-5.0,0.07580423355102539
32,90.0,30.0,-43.0,1.0,981.0,10380.0,8272.0,9553.0,2.0,9.0,-7.0,2.0,1.0,3.0,4.0,-5.0,0.07805752754211426
33,90.0,30.0,-43.0,1.0,981.0,10380.0,8272.0,9553.0,-2.0,2.0,-11.0,-6.0,0.0,-2.0,-3.0,-1.0,0.08040523529052734
34,90.0,30.0,-43.0,1.0,981.0,10380.0,8272.0,9553.0,5.0,9.0,22.0,-2.0,13.0,0.0,6.0,3.0,0.08266043663024902
35,98.0,5.0,-62.0,1.0,970.0,10375.0,8283.0,9551.0,5.0,9.0,22.0,-2.0,13.0,0.0,6.0,3.0,0.08540987968444824
36,98.0,5.0,-62.0,1.0,970.0,10375.0,8283.0,9551.0,-13.0,-17.0,0.0,13.0,-4.0,-1.0,-6.0,-8.0,0.08814287185668945
37,98.0,5.0,-62.0,1.0,970.0,10375.0,8283.0,9551.0,10.0,14.0,-10.0,-17.0,-5.0,1.0,1.0,1.0,0.09042596817016602
38,51.0,-23.0,-42.0,1.0,966.0,10371.0,8285.0,9554.0,10.0,14.0,-10.0,-17.0,-5.0,1.0,1.0,1.0,0.09293055534362793
39,51.0,-23.0,-42.0,1.0,966.0,10371.0,8285.0,9554.0,-6.0,0.0,-7.0,-5.0,-14.0,-6.0,3.0,-2.0,0.09538125991821289
40,51.0,-23.0,-42.0,1.0,966.0,10371.0,8285.0,9554.0,-6.0,-6.0,3.0,0.0,-5.0,4.0,-5.0,-4.0,0.09764242172241211
41,-26.0,-30.0,2.0,1.0,966.0,10368.0,8272.0,9568.0,-6.0,-6.0,3.0,0.0,-5.0,4.0,-5.0,-4.0,0.09988594055175781
42,-26.0,-30.0,2.0,1.0,966.0,10368.0,8272.0,9568.0,5.0,10.0,-10.0,-6.0,-8.0,2.0,5.0,2.0,0.10223865509033203
43,-26.0,-30.0,2.0,1.0,966.0,10368.0,8272.0,9568.0,-6.0,-7.0,-9.0,3.0,31.0,-3.0,-11.0,3.0,0.10449337959289551
44,-75.0,-58.0,31.0,1.0,970.0,10370.0,8246.0,9588.0,-6.0,-7.0,-9.0,3.0,31.0,-3.0,-11.0,3.0,0.10679268836975098
45,-75.0,-58.0,31.0,1.0,970.0,10370.0,8246.0,9588.0,14.0,19.0,-34.0,2.0,4.0,9.0,17.0,8.0,0.10923123359680176
46,-75.0,-58.0,31.0,1.0,970.0,10370.0,8246.0,9588.0,-4.0,-1.0,22.0,0.0,-9.0,-13.0,-2.0,-3.0,0.11150836944580078
47,18.0,-106.0,-1.0,1.0,967.0,10378.0,8234.0,9590.0,-4.0,-1.0,22.0,0.0,-9.0,-13.0,-2.0,-3.0,0.11379671096801758
48,18.0,-106.0,-1.0,1.0,967.0,10378.0,8234.0,9590.0,-13.0,-30.0,15.0,6.0,3.0,1.0,-5.0,-5.0,0.11646008491516113
49,18.0,-106.0,-1.0,1.0,967.0,10378.0,8234.0,9590.0,0.0,-1.0,-20.0,-6.0,-1.0,4.0,5.0,3.0,0.11906886100769043
50,167.0,-187.0,-20.0,1.0,961.0,10395.0,8243.0,9564.0,0.0,-1.0,-20.0,-6.0,-1.0,4.0,5.0,3.0,0.12138032913208008
51,167.0,-187.0,-20.0,1.0,961.0,10395.0,8243.0,9564.0,-4.0,-8.0,2.0,2.0,-6.0,-1.0,-4.0,-8.0,0.12376213073730469
52,167.0,-187.0,-20.0,1.0,961.0,10395.0,8243.0,9564.0,-6.0,-17.0,-19.0,4.0,24.0,3.0,-3.0,-1.0,0.12617230415344238
53,166.0,-231.0,-17.0,1.0,967.0,10415.0,8258.0,9529.0,-6.0,-17.0,-19.0,4.0,24.0,3.0,-3.0,-1.0,0.12842965126037598
54,166.0,-231.0,-17.0,1.0,967.0,10415.0,8258.0,9529.0,1.0,10.0,13.0,4.0,1.0,4.0,-3.0,0.0,0.13077235221862793
55,166.0,-231.0,-17.0,1.0,967.0,10415.0,8258.0,9529.0,0.0,4.0,0.0,5.0,-11.0,-8.0,-14.0,-1.0,0.13308954238891602
56,173.0,-237.0,-25.0,1.0,978.0,10436.0,8280.0,9485.0,0.0,4.0,0.0,5.0,-11.0,-8.0,-14.0,-1.0,0.13535094261169434
57,173.0,-237.0,-25.0,1.0,978.0,10436.0,8280.0,9485.0,4.0,0.0,-32.0,-14.0,4.0,-6.0,-7.0,-3.0,0.13767290115356445
58,173.0,-237.0,-25.0,1.0,978.0,10436.0,8280.0,9485.0,-4.0,-17.0,0.0,5.0,-3.0,3.0,3.0,-6.0,0.13991141319274902
59,-100.0,-235.0,83.0,1.0,1011.0,10464.0,8264.0,9465.0,-4.0,-17.0,0.0,5.0,-3.0,3.0,3.0,-6.0,0.142258882522583
60,-100.0,-235.0,83.0,1.0,1011.0,10464.0,8264.0,9465.0,-7.0,-9.0,-26.0,-13.0,-15.0,-7.0,1.0,-3.0,0.14457201957702637
61,-100.0,-235.0,83.0,1.0,1011.0,10464.0,8264.0,9465.0,2.0,-27.0,-38.0,3.0,-1.0,3.0,0.0,0.0,0.14711713790893555
62,-222.0,-217.0,120.0,1.0,1041.0,10497.0,8225.0,9459.0,2.0,-27.0,-38.0,3.0,-1.0,3.0,0.0,0.0,0.1497793197631836
63,-222.0,-217.0,120.0,1.0,1041.0,10497.0,8225.0,9459.0,1.0,-2.0,25.0,1.0,2.0,0.0,4.0,2.0,0.15221309661865234
64,-222.0,-217.0,120.0,1.0,1041.0,10497.0,8225.0,9459.0,-5.0,2.0,6.0,-5.0,-5.0,4.0,1.0,2.0,0.15450024604797363
65,-194.0,-198.0,182.0,1.0,1056.0,10535.0,8180.0,9455.0,-5.0,2.0,6.0,-5.0,-5.0,4.0,1.0,2.0,0.15697860717773438
66,-194.0,-198.0,182.0,1.0,1056.0,10535.0,8180.0,9455.0,5.0,3.0,-13.0,-2.0,-18.0,3.0,3.0,4.0,0.15934467315673828
67,-194.0,-198.0,182.0,1.0,1056.0,10535.0,8180.0,9455.0,-6.0,-3.0,1.0,-13.0,-53.0,-11.0,-7.0,-1.0,0.16177630424499512
68,-129.0,-197.0,185.0,1.0,1066.0,10572.0,8141.0,9446.0,-6.0,-3.0,1.0,-13.0,-53.0,-11.0,-7.0,-1.0,0.1640782356262207
69,-129.0,-197.0,185.0,1.0,1066.0,10572.0,8141.0,9446.0,5.0,18.0,13.0,8.0,9.0,-6.0,-10.0,0.0,0.16643667221069336
70,-129.0,-197.0,185.0,1.0,1066.0,10572.0,8141.0,9446.0,-3.0,2.0,10.0,6.0,8.0,-5.0,-4.0,0.0,0.16868090629577637
71,-100.0,-167.0,134.0,1.0,1081.0,10601.0,8117.0,9433.0,-3.0,2.0,10.0,6.0,8.0,-5.0,-4.0,0.0,0.17097091674804688
72,-100.0,-167.0,134.0,1.0,1081.0,10601.0,8117.0,9433.0,-9.0,-3.0,23.0,1.0,-5.0,-3.0,-7.0,-3.0,0.17344880104064941
73,-100.0,-167.0,134.0,1.0,1081.0,10601.0,8117.0,9433.0,14.0,13.0,-18.0,15.0,12.0,8.0,9.0,6.0,0.1758100986480713
74,-108.0,-157.0,90.0,1.0,1102.0,10624.0,8098.0,9420.0,14.0,13.0,-18.0,15.0,12.0,8.0,9.0,6.0,0.17839860916137695
75,-108.0,-157.0,90.0,1.0,1102.0,10624.0,8098.0,9420.0,0.0,10.0,37.0,5.0,5.0,-1.0,0.0,1.0,0.18110084533691406
76,-108.0,-157.0,90.0,1.0,1102.0,10624.0,8098.0,9420.0,-1.0,-3.0,-13.0,0.0,-21.0,-16.0,-9.0,-5.0,0.1833646297454834
77,-133.0,-80.0,50.0,1.0,1125.0,10635.0,8083.0,9418.0,-1.0,-3.0,-13.0,0.0,-21.0,-16.0,-9.0,-5.0,0.18562579154968262
78,-133.0,-80.0,50.0,1.0,1125.0,10635.0,8083.0,9418.0,-8.0,-18.0,-23.0,5.0,8.0,4.0,2.0,-6.0,0.18797850608825684
79,-133.0,-80.0,50.0,1.0,1125.0,10635.0,8083.0,9418.0,-2.0,-16.0,-19.0,-8.0,15.0,3.0,7.0,2.0,0.19033527374267578
80,-146.0,-30.0,23.0,1.0,1150.0,10638.0,8072.0,9421.0,-2.0,-16.0,-19.0,-8.0,15.0,3.0,7.0,2.0,0.19265365600585938
81,-146.0,-30.0,23.0,1.0,1150.0,10638.0,8072.0,9421.0,0.0,-1.0,-19.0,-18.0,-6.0,-3.0,1.0,-1.0,0.19501209259033203
82,-146.0,-30.0,23.0,1.0,1150.0,10638.0,8072.0,9421.0,4.0,13.0,22.0,20.0,14.0,3.0,-1.0,0.0,0.19726824760437012
83,-121.0,31.0,1.0,1.0,1168.0,10633.0,8066.0,9429.0,4.0,13.0,22.0,20.0,14.0,3.0,-1.0,0.0,0.19973182678222656
84,-121.0,31.0,1.0,1.0,1168.0,10633.0,8066.0,9429.0,0.0,-1.0,0.0,-2.0,-31.0,-10.0,1.0,2.0,0.20210599899291992
85,-121.0,31.0,1.0,1.0,1168.0,10633.0,8066.0,9429.0,-2.0,-2.0,7.0,-7.0,6.0,8.0,7.0,-3.0,0.20435190200805664
86,-100.0,82.0,-11.0,1.0,1181.0,10621.0,8065.0,9442.0,-2.0,-2.0,7.0,-7.0,6.0,8.0,7.0,-3.0,0.20671558380126953
87,-100.0,82.0,-11.0,1.0,1181.0,10621.0,8065.0,9442.0,3.0,-3.0,-5.0,5.0,12.0,3.0,-2.0,0.0,0.2093651294708252
88,-100.0,82.0,-11.0,1.0,1181.0,10621.0,8065.0,9442.0,-10.0,-4.0,-3.0,-6.0,-13.0,-2.0,-4.0,-3.0,0.21205568313598633
89,-92.0,105.0,-6.0,1.0,1192.0,10606.0,8065.0,9458.0,-10.0,-4.0,-3.0,-6.0,-13.0,-2.0,-4.0,-3.0,0.21439599990844727
90,-92.0,105.0,-6.0,1.0,1192.0,10606.0,8065.0,9458.0,2.0,13.0,6.0,-2.0,-11.0,0.0,2.0,0.0,0.21674537658691406
91,-92.0,105.0,-6.0,1.0,1192.0,10606.0,8065.0,9458.0,-3.0,-6.0,13.0,1.0,14.0,8.0,13.0,-2.0,0.21908831596374512
92,-54.0,114.0,4.0,1.0,1195.0,10595.0,8068.0,9468.0,-3.0,-6.0,13.0,1.0,14.0,8.0,13.0,-2.0,0.22140216827392578
93,-54.0,114.0,4.0,1.0,1195.0,10595.0,8068.0,9468.0,-9.0,-18.0,4.0,9.0,29.0,5.0,0.0,0.0,0.22387051582336426
94,-54.0,114.0,4.0,1.0,1195.0,10595.0,8068.0,9468.0,-5.0,7.0,37.0,-1.0,-7.0,-7.0,-7.0,-3.0,0.22618556022644043
95,-32.0,109.0,12.0,1.0,1197.0,10584.0,8074.0,9474.0,-5.0,7.0,37.0,-1.0,-7.0,-7.0,-7.0,-3.0,0.22846078872680664
96,-32.0,109.0,12.0,1.0,1197.0,10584.0,8074.0,9474.0,3.0,2.0,10.0,-6.0,2.0,3.0,3.0,5.0,0.23080682754516602
97,-32.0,109.0,12.0,1.0,1197.0,10584.0,8074.0,9474.0,3.0,-5.0,-9.0,-12.0,-25.0,-6.0,4.0,0.0,0.23308515548706055
98,-61.0,95.0,16.0,1.0,1204.0,10576.0,8078.0,9479.0,3.0,-5.0,-9.0,-12.0,-25.0,-6.0,4.0,0.0,0.2389214038848877
99,-61.0,95.0,16.0,1.0,1204.0,10576.0,8078.0,9479.0,-6.0,-8.0,-10.0,1.0,-25.0,-15.0,-9.0,-5.0,0.24181032180786133
100,-61.0,95.0,16.0,1.0,1204.0,10576.0,8078.0,9479.0,5.0,21.0,6.0,11.0,13.0,2.0,-5.0,0.0,0.24442076683044434
101,-108.0,83.0,16.0,1.0,1217.0,10568.0,8077.0,9487.0,5.0,21.0,6.0,11.0,13.0,2.0,-5.0,0.0,0.2536334991455078
102,-108.0,83.0,16.0,1.0,1217.0,10568.0,8077.0,9487.0,0.0,2.0,1.0,-8.0,-1.0,6.0,-5.0,1.0,0.2561376094818115
103,-89.0,67.0,6.0,1.0,1231.0,10561.0,8078.0,9493.0,0.0,2.0,1.0,-8.0,-1.0,6.0,-5.0,1.0,0.2584247589111328
104,-89.0,67.0,6.0,1.0,1231.0,10561.0,8078.0,9493.0,-3.0,-2.0,-4.0,-6.0,-15.0,-6.0,-5.0,-3.0,0.26804375648498535
105,-89.0,67.0,6.0,1.0,1231.0,10561.0,8078.0,9493.0,7.0,-1.0,6.0,2.0,13.0,1.0,0.0,1.0,0.2765004634857178
106,-58.0,38.0,-17.0,1.0,1241.0,10557.0,8083.0,9490.0,7.0,-1.0,6.0,2.0,13.0,1.0,0.0,1.0,0.2787973880767822
107,-58.0,38.0,-17.0,1.0,1241.0,10557.0,8083.0,9490.0,-13.0,-22.0,-50.0,-14.0,0.0,1.0,-2.0,1.0,0.28209900856018066
108,-58.0,38.0,-17.0,1.0,1241.0,10557.0,8083.0,9490.0,8.0,51.0,69.0,-9.0,-16.0,3.0,0.0,3.0,0.2982511520385742
109,-13.0,21.0,-32.0,1.0,1249.0,10554.0,8094.0,9484.0,8.0,51.0,69.0,-9.0,-16.0,3.0,0.0,3.0,0.30060672760009766
110,-13.0,21.0,-32.0,1.0,1249.0,10554.0,8094.0,9484.0,8.0,9.0,47.0,10.0,23.0,4.0,5.0,4.0,0.306870698928833
111,-13.0,21.0,-32.0,1.0,1249.0,10554.0,8094.0,9484.0,-11.0,-29.0,-35.0,13.0,16.0,-3.0,4.0,-5.0,0.3132781982421875
112,7.0,24.0,-29.0,1.0,1253.0,10551.0,8104.0,9478.0,-11.0,-29.0,-35.0,13.0,16.0,-3.0,4.0,-5.0,0.31551527976989746
113,7.0,24.0,-29.0,1.0,1253.0,10551.0,8104.0,9478.0,1.0,9.0,16.0,-5.0,-1.0,1.0,-10.0,-8.0,0.3281993865966797
114,7.0,24.0,-29.0,1.0,1253.0,10551.0,8104.0,9478.0,-4.0,-10.0,-22.0,5.0,9.0,1.0,6.0,-4.0,0.33863115310668945
115,44.0,32.0,-40.0,1.0,1252.0,10547.0,8119.0,9470.0,-4.0,-10.0,-22.0,5.0,9.0,1.0,6.0,-4.0,0.3427138328552246
116,44.0,32.0,-40.0,1.0,1252.0,10547.0,8119.0,9470.0,11.0,33.0,-5.0,-9.0,7.0,2.0,0.0,5.0,0.35031867027282715
117,44.0,32.0,-40.0,1.0,1252.0,10547.0,8119.0,9470.0,-5.0,-6.0,7.0,-3.0,-25.0,-4.0,-6.0,-3.0,0.35826611518859863
118,104.0,38.0,-41.0,1.0,1246.0,10540.0,8140.0,9460.0,-5.0,-6.0,7.0,-3.0,-25.0,-4.0,-6.0,-3.0,0.360506534576416
119,104.0,38.0,-41.0,1.0,1246.0,10540.0,8140.0,9460.0,3.0,-10.0,-32.0,-1.0,-7.0,0.0,-2.0,0.0,0.36531901359558105
120,104.0,38.0,-41.0,1.0,1246.0,10540.0,8140.0,9460.0,-7.0,-14.0,11.0,2.0,-1.0,1.0,-7.0,0.0,0.3728034496307373
121,149.0,38.0,-48.0,1.0,1236.0,10533.0,8166.0,9447.0,-7.0,-14.0,11.0,2.0,-1.0,1.0,-7.0,0.0,0.38033151626586914
122,149.0,38.0,-48.0,1.0,1236.0,10533.0,8166.0,9447.0,-4.0,-6.0,30.0,-1.0,-12.0,-2.0,3.0,-7.0,0.389249324798584
123,149.0,38.0,-48.0,1.0,1236.0,10533.0,8166.0,9447.0,-3.0,-4.0,-28.0,-4.0,-19.0,-2.0,0.0,-1.0,0.39715075492858887
124,167.0,51.0,-52.0,1.0,1225.0,10523.0,8195.0,9435.0,-3.0,-4.0,-28.0,-4.0,-19.0,-2.0,0.0,-1.0,0.4005732536315918
125,167.0,51.0,-52.0,1.0,1225.0,10523.0,8195.0,9435.0,-7.0,-13.0,-2.0,20.0,2.0,-1.0,3.0,3.0,0.41031956672668457
126,167.0,51.0,-52.0,1.0,1225.0,10523.0,8195.0,9435.0,4.0,2.0,-5.0,-5.0,21.0,3.0,-5.0,-5.0,0.41847920417785645
127,158.0,52.0,-46.0,1.0,1217.0,10511.0,8222.0,9426.0,4.0,2.0,-5.0,-5.0,21.0,3.0,-5.0,-5.0,0.4208064079284668
128,158.0,52.0,-46.0,1.0,1217.0,10511.0,8222.0,9426.0,-8.0,-17.0,-33.0,-19.0,-26.0,-15.0,16.0,4.0,0.42507266998291016
129,158.0,52.0,-46.0,1.0,1217.0,10511.0,8222.0,9426.0,4.0,-6.0,-22.0,-7.0,11.0,-2.0,0.0,4.0,0.4333779811859131
130,127.0,50.0,-43.0,1.0,1214.0,10498.0,8246.0,9420.0,4.0,-6.0,-22.0,-7.0,11.0,-2.0,0.0,4.0,0.44011354446411133
131,127.0,50.0,-43.0,1.0,1214.0,10498.0,8246.0,9420.0,1.0,-10.0,-24.0,2.0,7.0,10.0,-7.0,-1.0,0.44806814193725586
132,127.0,50.0,-43.0,1.0,1214.0,10498.0,8246.0,9420.0,3.0,14.0,26.0,13.0,9.0,1.0,2.0,10.0,0.4556245803833008
133,95.0,46.0,-30.0,1.0,1212.0,10486.0,8266.0,9416.0,3.0,14.0,26.0,13.0,9.0,1.0,2.0,10.0,0.4580042362213135
134,95.0,46.0,-30.0,1.0,1212.0,10486.0,8266.0,9416.0,1.0,6.0,-1.0,0.0,-4.0,-3.0,0.0,-4.0,0.4716470241546631
135,95.0,46.0,-30.0,1.0,1212.0,10486.0,8266.0,9416.0,-7.0,-7.0,-3.0,3.0,-2.0,-1.0,-3.0,-7.0,0.4801619052886963
136,48.0,30.0,-26.0,1.0,1215.0,10478.0,8279.0,9413.0,-7.0,-7.0,-3.0,3.0,-2.0,-1.0,-3.0,-7.0,0.48331356048583984
137,48.0,30.0,-26.0,1.0,1215.0,10478.0,8279.0,9413.0,8.0,22.0,24.0,-3.0,8.0,3.0,-1.0,2.0,0.4856679439544678
138,48.0,30.0,-26.0,1.0,1215.0,10478.0,8279.0,9413.0,3.0,-6.0,-15.0,-2.0,4.0,0.0,-1.0,3.0,0.4933180809020996
139,18.0,21.0,-28.0,1.0,1221.0,10471.0,8289.0,9411.0,3.0,-6.0,-15.0,-2.0,4.0,0.0,-1.0,3.0,0.5001640319824219
140,18.0,21.0,-28.0,1.0,1221.0,10471.0,8289.0,9411.0,3.0,-10.0,-4.0,-10.0,-20.0,-12.0,-14.0,-5.0,0.507716178894043
141,18.0,21.0,-28.0,1.0,1221.0,10471.0,8289.0,9411.0,2.0,14.0,1.0,-3.0,-12.0,3.0,12.0,0.0,0.5157210826873779
142,-3.0,14.0,-28.0,1.0,1227.0,10466.0,8296.0,9410.0,2.0,14.0,1.0,-3.0,-12.0,3.0,12.0,0.0,0.5180909633636475
143,-3.0,14.0,-28.0,1.0,1227.0,10466.0,8296.0,9410.0,-3.0,-11.0,-6.0,-3.0,2.0,1.0,1.0,-1.0,0.5314435958862305
144,-3.0,14.0,-28.0,1.0,1227.0,10466.0,8296.0,9410.0,-9.0,-12.0,2.0,-10.0,5.0,5.0,2.0,-9.0,0.5399463176727295
145,-9.0,11.0,-33.0,1.0,1231.0,10463.0,8299.0,9410.0,-9.0,-12.0,2.0,-10.0,5.0,5.0,2.0,-9.0,0.5432882308959961
146,-9.0,11.0,-33.0,1.0,1231.0,10463.0,8299.0,9410.0,-2.0,8.0,2.0,2.0,-11.0,-4.0,-6.0,-3.0,0.5456266403198242
147,-9.0,11.0,-33.0,1.0,1231.0,10463.0,8299.0,9410.0,4.0,11.0,-7.0,2.0,3.0,0.0,-1.0,3.0,0.5611786842346191
148,4.0,9.0,-33.0,1.0,1232.0,10460.0,8305.0,9407.0,4.0,11.0,-7.0,2.0,3.0,0.0,-1.0,3.0,0.5634686946868896
149,4.0,9.0,-33.0,1.0,1232.0,10460.0,8305.0,9407.0,-4.0,-22.0,15.0,9.0,9.0,-2.0,-3.0,-2.0,0.5750231742858887
150,4.0,9.0,-33.0,1.0,1232.0,10460.0,8305.0,9407.0,16.0,23.0,10.0,2.0,0.0,-5.0,-2.0,7.0,0.5830566883087158
151,16.0,14.0,-31.0,1.0,1231.0,10457.0,8310.0,9406.0,16.0,23.0,10.0,2.0,0.0,-5.0,-2.0,7.0,0.5853631496429443
152,16.0,14.0,-31.0,1.0,1231.0,10457.0,8310.0,9406.0,0.0,2.0,0.0,4.0,24.0,2.0,-4.0,3.0,0.5909252166748047
153,16.0,14.0,-31.0,1.0,1231.0,10457.0,8310.0,9406.0,-7.0,-17.0,4.0,-4.0,-8.0,1.0,-5.0,-8.0,0.5981588363647461
154,11.0,21.0,-25.0,1.0,1229.0,10454.0,8314.0,9407.0,-7.0,-17.0,4.0,-4.0,-8.0,1.0,-5.0,-8.0,0.6004197597503662
155,11.0,21.0,-25.0,1.0,1229.0,10454.0,8314.0,9407.0,22.0,62.0,56.0,-7.0,8.0,10.0,12.0,13.0,0.6053252220153809
156,11.0,21.0,-25.0,1.0,1229.0,10454.0,8314.0,9407.0,6.0,16.0,-23.0,-26.0,-21.0,-17.0,-13.0,6.0,0.6210768222808838
157,29.0,31.0,-29.0,1.0,1226.0,10448.0,8320.0,9408.0,6.0,16.0,-23.0,-26.0,-21.0,-17.0,-13.0,6.0,0.6237831115722656
158,29.0,31.0,-29.0,1.0,1226.0,10448.0,8320.0,9408.0,-16.0,-24.0,-32.0,-3.0,-6.0,-4.0,-1.0,-9.0,0.6275441646575928
159,29.0,31.0,-29.0,1.0,1226.0,10448.0,8320.0,9408.0,-17.0,-19.0,6.0,7.0,7.0,0.0,-8.0,-17.0,0.6431655883789062
160,20.0,31.0,-19.0,1.0,1223.0,10444.0,8325.0,9409.0,-17.0,-19.0,6.0,7.0,7.0,0.0,-8.0,-17.0,0.6454784870147705
161,20.0,31.0,-19.0,1.0,1223.0,10444.0,8325.0,9409.0,5.0,4.0,5.0,3.0,7.0,1.0,-3.0,1.0,0.650543212890625
162,20.0,31.0,-19.0,1.0,1223.0,10444.0,8325.0,9409.0,-5.0,-9.0,24.0,7.0,-12.0,2.0,3.0,1.0,0.6580886840820312
163,21.0,35.0,-14.0,1.0,1218.0,10439.0,8330.0,9411.0,-5.0,-9.0,24.0,7.0,-12.0,2.0,3.0,1.0,0.6604385375976562
164,21.0,35.0,-14.0,1.0,1218.0,10439.0,8330.0,9411.0,-5.0,0.0,6.0,2.0,18.0,-3.0,4.0,-4.0,0.6653430461883545
165,21.0,35.0,-14.0,1.0,1218.0,10439.0,8330.0,9411.0,-8.0,-1.0,-13.0,2.0,-17.0,-8.0,-8.0,-8.0,0.6807372570037842
166,19.0,23.0,-7.0,1.0,1215.0,10437.0,8333.0,9411.0,-8.0,-1.0,-13.0,2.0,-17.0,-8.0,-8.0,-8.0,0.6834392547607422
167,19.0,23.0,-7.0,1.0,1215.0,10437.0,8333.0,9411.0,8.0,12.0,-5.0,-2.0,9.0,5.0,4.0,3.0,0.6877634525299072
168,19.0,23.0,-7.0,1.0,1215.0,10437.0,8333.0,9411.0,-4.0,-17.0,-7.0,-3.0,12.0,4.0,5.0,6.0,0.7036111354827881
169,6.0,17.0,-3.0,1.0,1213.0,10435.0,8335.0,9412.0,-4.0,-17.0,-7.0,-3.0,12.0,4.0,5.0,6.0,0.7059094905853271
170,6.0,17.0,-3.0,1.0,1213.0,10435.0,8335.0,9412.0,-2.0,-16.0,-35.0,1.0,7.0,5.0,0.0,-9.0,0.7106218338012695
171,6.0,17.0,-3.0,1.0,1213.0,10435.0,8335.0,9412.0,3.0,-7.0,-36.0,-20.0,-28.0,-10.0,5.0,2.0,0.7187619209289551
172,7.0,24.0,10.0,1.0,1210.0,10433.0,8336.0,9413.0,3.0,-7.0,-36.0,-20.0,-28.0,-10.0,5.0,2.0,0.7211203575134277
173,7.0,24.0,10.0,1.0,1210.0,10433.0,8336.0,9413.0,-5.0,6.0,-6.0,-2.0,-18.0,0.0,-7.0,-3.0,0.7254793643951416
174,7.0,24.0,10.0,1.0,1210.0,10433.0,8336.0,9413.0,0.0,-8.0,-13.0,3.0,12.0,-2.0,5.0,-2.0,0.7412302494049072
175,-9.0,24.0,18.0,1.0,1208.0,10431.0,8333.0,9418.0,0.0,-8.0,-13.0,3.0,12.0,-2.0,5.0,-2.0,0.7434906959533691
176,-9.0,24.0,18.0,1.0,1208.0,10431.0,8333.0,9418.0,-3.0,0.0,18.0,1.0,2.0,-2.0,-2.0,-1.0,0.748358964920044
177,-9.0,24.0,18.0,1.0,1208.0,10431.0,8333.0,9418.0,2.0,6.0,11.0,-3.0,-2.0,1.0,-2.0,-1.0,0.7632606029510498
178,-19.0,24.0,26.0,1.0,1207.0,10431.0,8330.0,9422.0,2.0,6.0,11.0,-3.0,-2.0,1.0,-2.0,-1.0,0.7656047344207764
179,-19.0,24.0,26.0,1.0,1207.0,10431.0,8330.0,9422.0,1.0,14.0,6.0,-4.0,-4.0,0.0,-4.0,6.0,0.7700197696685791
180,-19.0,24.0,26.0,1.0,1207.0,10431.0,8330.0,9422.0,-4.0,-4.0,43.0,33.0,20.0,9.0,7.0,-3.0,0.778533935546875
181,-29.0,20.0,38.0,1.0,1206.0,10431.0,8324.0,9427.0,-4.0,-4.0,43.0,33.0,20.0,9.0,7.0,-3.0,0.781224250793457
182,-29.0,20.0,38.0,1.0,1206.0,10431.0,8324.0,9427.0,1.0,-4.0,-24.0,-8.0,-16.0,-3.0,0.0,-2.0,0.7847650051116943
183,-29.0,20.0,38.0,1.0,1206.0,10431.0,8324.0,9427.0,8.0,18.0,-1.0,-2.0,-5.0,6.0,-3.0,-4.0,0.8005826473236084
184,-39.0,19.0,30.0,1.0,1209.0,10431.0,8319.0,9431.0,8.0,18.0,-1.0,-2.0,-5.0,6.0,-3.0,-4.0,0.8029744625091553
185,-39.0,19.0,30.0,1.0,1209.0,10431.0,8319.0,9431.0,0.0,-8.0,-10.0,-4.0,7.0,-2.0,-2.0,6.0,0.8076529502868652
186,-39.0,19.0,30.0,1.0,1209.0,10431.0,8319.0,9431.0,-5.0,-11.0,-13.0,-14.0,-12.0,1.0,-7.0,-2.0,0.8232462406158447
187,-52.0,13.0,37.0,1.0,1211.0,10432.0,8312.0,9435.0,-5.0,-11.0,-13.0,-14.0,-12.0,1.0,-7.0,-2.0,0.825631856918335
188,-52.0,13.0,37.0,1.0,1211.0,10432.0,8312.0,9435.0,-2.0,14.0,14.0,-1.0,10.0,5.0,0.0,-2.0,0.8301296234130859
189,-52.0,13.0,37.0,1.0,1211.0,10432.0,8312.0,9435.0,12.0,2.0,-30.0,18.0,26.0,-6.0,8.0,11.0,0.8382067680358887
190,-57.0,13.0,39.0,1.0,1213.0,10434.0,8303.0,9441.0,12.0,2.0,-30.0,18.0,26.0,-6.0,8.0,11.0,0.8411099910736084
191,-57.0,13.0,39.0,1.0,1213.0,10434.0,8303.0,9441.0,-12.0,-34.0,-15.0,8.0,-1.0,-5.0,-7.0,3.0,0.8448741436004639
192,-57.0,13.0,39.0,1.0,1213.0,10434.0,8303.0,9441.0,-6.0,1.0,21.0,21.0,10.0,-1.0,-5.0,-1.0,0.8701956272125244
193,-47.0,13.0,37.0,1.0,1215.0,10434.0,8295.0,9447.0,-6.0,1.0,21.0,21.0,10.0,-1.0,-5.0,-1.0,0.8746323585510254
194,-47.0,13.0,37.0,1.0,1215.0,10434.0,8295.0,9447.0,-6.0,-14.0,-12.0,-5.0,1.0,9.0,17.0,-7.0,0.8796241283416748
195,-47.0,13.0,37.0,1.0,1215.0,10434.0,8295.0,9447.0,-4.0,2.0,2.0,-11.0,6.0,-16.0,-9.0,-5.0,0.8826894760131836
196,-53.0,6.0,25.0,1.0,1220.0,10435.0,8289.0,9451.0,-4.0,2.0,2.0,-11.0,6.0,-16.0,-9.0,-5.0,0.8849430084228516
197,-53.0,6.0,25.0,1.0,1220.0,10435.0,8289.0,9451.0,-3.0,-19.0,-11.0,20.0,10.0,0.0,-2.0,2.0,0.8902609348297119
198,-53.0,6.0,25.0,1.0,1220.0,10435.0,8289.0,9451.0,-2.0,-7.0,11.0,-6.0,0.0,6.0,4.0,1.0,0.8982205390930176
199,-61.0,-1.0,19.0,1.0,1226.0,10437.0,8282.0,9455.0,-2.0,-7.0,11.0,-6.0,0.0,6.0,4.0,1.0,0.9004921913146973
200,-61.0,-1.0,19.0,1.0,1226.0,10437.0,8282.0,9455.0,4.0,-2.0,-4.0,-4.0,7.0,3.0,-2.0,0.0,0.9079763889312744
201,-61.0,-1.0,19.0,1.0,1226.0,10437.0,8282.0,9455.0,-2.0,-16.0,-17.0,14.0,-12.0,3.0,-1.0,-8.0,0.9208734035491943
202,-58.0,-4.0,6.0,1.0,1232.0,10437.0,8276.0,9459.0,-2.0,-16.0,-17.0,14.0,-12.0,3.0,-1.0,-8.0,0.9248530864715576
203,-58.0,-4.0,6.0,1.0,1232.0,10437.0,8276.0,9459.0,1.0,-13.0,-19.0,-21.0,-22.0,-6.0,-6.0,-2.0,0.9289436340332031
204,-58.0,-4.0,6.0,1.0,1232.0,10437.0,8276.0,9459.0,-12.0,-19.0,-8.0,-16.0,-7.0,-8.0,1.0,-3.0,0.9449203014373779
205,-66.0,-5.0,-6.0,1.0,1242.0,10437.0,8272.0,9461.0,-12.0,-19.0,-8.0,-16.0,-7.0,-8.0,1.0,-3.0,0.9491713047027588
206,-66.0,-5.0,-6.0,1.0,1242.0,10437.0,8272.0,9461.0,5.0,8.0,24.0,19.0,10.0,-3.0,-4.0,7.0,0.9534480571746826
207,-66.0,-5.0,-6.0,1.0,1242.0,10437.0,8272.0,9461.0,-2.0,4.0,14.0,0.0,-14.0,3.0,-4.0,-1.0,0.9688568115234375
208,-61.0,4.0,-8.0,1.0,1250.0,10436.0,8268.0,9465.0,-2.0,4.0,14.0,0.0,-14.0,3.0,-4.0,-1.0,0.9748215675354004
209,-61.0,4.0,-8.0,1.0,1250.0,10436.0,8268.0,9465.0,1.0,3.0,-15.0,-9.0,-38.0,-4.0,-2.0,-2.0,0.979088544845581
210,-61.0,4.0,-8.0,1.0,1250.0,10436.0,8268.0,9465.0,9.0,15.0,11.0,-5.0,13.0,-23.0,1.0,14.0,0.981440544128418
211,-72.0,12.0,-13.0,1.0,1258.0,10433.0,8262.0,9471.0,9.0,15.0,11.0,-5.0,13.0,-23.0,1.0,14.0,0.9837088584899902
212,-72.0,12.0,-13.0,1.0,1258.0,10433.0,8262.0,9471.0,13.0,24.0,15.0,-4.0,18.0,1.0,13.0,12.0,0.9877543449401855
213,-72.0,12.0,-13.0,1.0,1258.0,10433.0,8262.0,9471.0,3.0,13.0,-12.0,-6.0,3.0,21.0,17.0,0.0,1.0054821968078613
214,-35.0,-6.0,-37.0,1.0,1262.0,10432.0,8261.0,9474.0,3.0,13.0,-12.0,-6.0,3.0,21.0,17.0,0.0,1.0095882415771484
215,-35.0,-6.0,-37.0,1.0,1262.0,10432.0,8261.0,9474.0,20.0,-15.0,-48.0,-17.0,-11.0,-21.0,-6.0,25.0,1.0135643482208252
216,-35.0,-6.0,-37.0,1.0,1262.0,10432.0,8261.0,9474.0,-6.0,15.0,45.0,4.0,40.0,1.0,0.0,-37.0,1.0184104442596436
217,105.0,-22.0,-92.0,1.0,1253.0,10431.0,8277.0,9461.0,-6.0,15.0,45.0,4.0,40.0,1.0,0.0,-37.0,1.0207104682922363
218,105.0,-22.0,-92.0,1.0,1253.0,10431.0,8277.0,9461.0,13.0,35.0,63.0,0.0,19.0,2.0,33.0,50.0,1.0253069400787354
219,105.0,-22.0,-92.0,1.0,1253.0,10431.0,8277.0,9461.0,18.0,48.0,-66.0,1.0,-21.0,-2.0,33.0,-14.0,1.0407381057739258
220,184.0,-52.0,-258.0,1.0,1249.0,10421.0,8317.0,9438.0,18.0,48.0,-66.0,1.0,-21.0,-2.0,33.0,-14.0,1.0430908203125
221,184.0,-52.0,-258.0,1.0,1249.0,10421.0,8317.0,9438.0,-18.0,-33.0,-34.0,5.0,101.0,26.0,-15.0,-34.0,1.0478944778442383
222,184.0,-52.0,-258.0,1.0,1249.0,10421.0,8317.0,9438.0,3.0,26.0,-1.0,38.0,-86.0,-5.0,5.0,-1.0,1.064638614654541
223,300.0,-158.0,-574.0,1.0,1280.0,10390.0,8402.0,9394.0,3.0,26.0,-1.0,38.0,-86.0,-5.0,5.0,-1.0,1.0697238445281982
224,300.0,-158.0,-574.0,1.0,1280.0,10390.0,8402.0,9394.0,15.0,51.0,11.0,-13.0,-118.0,-48.0,-56.0,-10.0,1.0741112232208252
225,300.0,-158.0,-574.0,1.0,1280.0,10390.0,8402.0,9394.0,-65.0,-78.0,44.0,-10.0,92.0,0.0,-22.0,-46.0,1.0770130157470703
226,242.0,-271.0,-964.0,1.0,1381.0,10322.0,8526.0,9341.0,-65.0,-78.0,44.0,-10.0,92.0,0.0,-22.0,-46.0,1.0857257843017578
227,242.0,-271.0,-964.0,1.0,1381.0,10322.0,8526.0,9341.0,-16.0,-31.0,20.0,11.0,27.0,21.0,26.0,-7.0,1.0880744457244873
228,242.0,-271.0,-964.0,1.0,1381.0,10322.0,8526.0,9341.0,32.0,9.0,44.0,25.0,45.0,39.0,7.0,42.0,1.1009776592254639
229,-117.0,-391.0,-1458.0,1.0,1580.0,10210.0,8657.0,9313.0,32.0,9.0,44.0,25.0,45.0,39.0,7.0,42.0,1.103348970413208
230,-117.0,-391.0,-1458.0,1.0,1580.0,10210.0,8657.0,9313.0,-6.0,-50.0,-73.0,-28.0,-31.0,-2.0,-1.0,0.0,1.108152151107788
231,-117.0,-391.0,-1458.0,1.0,1580.0,10210.0,8657.0,9313.0,-5.0,-48.0,-113.0,-10.0,-15.0,-7.0,-1.0,-4.0,1.1232616901397705
232,-456.0,-492.0,-1753.0,1.0,1858.0,10078.0,8792.0,9278.0,-5.0,-48.0,-113.0,-10.0,-15.0,-7.0,-1.0,-4.0,1.1255104541778564
233,-456.0,-492.0,-1753.0,1.0,1858.0,10078.0,8792.0,9278.0,0.0,-5.0,-20.0,-5.0,-37.0,-5.0,0.0,-12.0,1.1304402351379395
234,-456.0,-492.0,-1753.0,1.0,1858.0,10078.0,8792.0,9278.0,3.0,-13.0,4.0,-7.0,2.0,3.0,-14.0,21.0,1.1465728282928467
235,-596.0,-610.0,-1860.0,1.0,2184.0,9934.0,8920.0,9240.0,3.0,-13.0,4.0,-7.0,2.0,3.0,-14.0,21.0,1.1488842964172363
236,-596.0,-610.0,-1860.0,1.0,2184.0,9934.0,8920.0,9240.0,-19.0,15.0,30.0,16.0,17.0,8.0,-5.0,-24.0,1.151271104812622
237,-596.0,-610.0,-1860.0,1.0,2184.0,9934.0,8920.0,9240.0,6.0,26.0,43.0,9.0,-10.0,-8.0,-6.0,4.0,1.1611967086791992
238,-636.0,-584.0,-1917.0,1.0,2530.0,9764.0,9046.0,9210.0,6.0,26.0,43.0,9.0,-10.0,-8.0,-6.0,4.0,1.1638174057006836
239,-636.0,-584.0,-1917.0,1.0,2530.0,9764.0,9046.0,9210.0,4.0,2.0,21.0,0.0,1.0,-3.0,3.0,0.0,1.1752986907958984
240,-636.0,-584.0,-1917.0,1.0,2530.0,9764.0,9046.0,9210.0,7.0,12.0,18.0,-7.0,-14.0,-3.0,-8.0,6.0,1.1834385395050049
241,-731.0,-413.0,-2102.0,1.0,2900.0,9543.0,9186.0,9194.0,7.0,12.0,18.0,-7.0,-14.0,-3.0,-8.0,6.0,1.185685634613037
242,-731.0,-413.0,-2102.0,1.0,2900.0,9543.0,9186.0,9194.0,-16.0,20.0,28.0,8.0,11.0,4.0,-1.0,1.0,1.2000272274017334
243,-731.0,-413.0,-2102.0,1.0,2900.0,9543.0,9186.0,9194.0,-12.0,-2.0,-62.0,-41.0,5.0,0.0,-10.0,-5.0,1.2045824527740479
244,-1008.0,-240.0,-2205.0,1.0,3249.0,9311.0,9304.0,9197.0,-12.0,-2.0,-62.0,-41.0,5.0,0.0,-10.0,-5.0,1.2090563774108887
245,-1008.0,-240.0,-2205.0,1.0,3249.0,9311.0,9304.0,9197.0,24.0,28.0,27.0,-18.0,10.0,0.0,4.0,2.0,1.2120976448059082
246,-1008.0,-240.0,-2205.0,1.0,3249.0,9311.0,9304.0,9197.0,11.0,18.0,30.0,4.0,-2.0,2.0,4.0,17.0,1.2207505702972412
247,-1503.0,-72.0,-2476.0,1.0,3655.0,9009.0,9397.0,9250.0,11.0,18.0,30.0,4.0,-2.0,2.0,4.0,17.0,1.223031759262085
248,-1503.0,-72.0,-2476.0,1.0,3655.0,9009.0,9397.0,9250.0,-36.0,-24.0,-20.0,1.0,-6.0,5.0,-4.0,-22.0,1.2281904220581055
249,-1503.0,-72.0,-2476.0,1.0,3655.0,9009.0,9397.0,9250.0,16.0,-7.0,-21.0,-10.0,-12.0,3.0,-2.0,9.0,1.2435588836669922
250,-2084.0,87.0,-2933.0,1.0,4144.0,8610.0,9471.0,9348.0,16.0,-7.0,-21.0,-10.0,-12.0,3.0,-2.0,9.0,1.2458364963531494
251,-2084.0,87.0,-2933.0,1.0,4144.0,8610.0,9471.0,9348.0,27.0,22.0,-25.0,-10.0,4.0,-1.0,3.0,4.0,1.2504994869232178
252,-2084.0,87.0,-2933.0,1.0,4144.0,8610.0,9471.0,9348.0,-2.0,-5.0,6.0,9.0,-2.0,-12.0,-7.0,-1.0,1.257880687713623
253,-2594.0,115.0,-3341.0,1.0,4729.0,8112.0,9516.0,9470.0,-2.0,-5.0,6.0,9.0,-2.0,-12.0,-7.0,-1.0,1.2734448909759521
254,-2594.0,115.0,-3341.0,1.0,4729.0,8112.0,9516.0,9470.0,-8.0,-17.0,13.0,3.0,9.0,15.0,6.0,-2.0,1.2830564975738525
255,-2594.0,115.0,-3341.0,1.0,4729.0,8112.0,9516.0,9470.0,-11.0,-5.0,-5.0,-17.0,-15.0,-8.0,-6.0,-8.0,1.2868366241455078
256,-3050.0,-82.0,-3449.0,1.0,5363.0,7589.0,9485.0,9596.0,-11.0,-5.0,-5.0,-17.0,-15.0,-8.0,-6.0,-8.0,1.2895255088806152
257,-3050.0,-82.0,-3449.0,1.0,5363.0,7589.0,9485.0,9596.0,9.0,-5.0,11.0,6.0,-9.0,-9.0,-1.0,7.0,1.2920806407928467
258,-3050.0,-82.0,-3449.0,1.0,5363.0,7589.0,9485.0,9596.0,3.0,11.0,30.0,1.0,-6.0,-23.0,-2.0,3.0,1.3033454418182373
259,-3518.0,-273.0,-3421.0,1.0,6026.0,7053.0,9363.0,9731.0,3.0,11.0,30.0,1.0,-6.0,-23.0,-2.0,3.0,1.3056201934814453
260,-3518.0,-273.0,-3421.0,1.0,6026.0,7053.0,9363.0,9731.0,-16.0,-9.0,-3.0,0.0,-5.0,2.0,-1.0,-9.0,1.3102853298187256
261,-3518.0,-273.0,-3421.0,1.0,6026.0,7053.0,9363.0,9731.0,-12.0,-14.0,-8.0,-3.0,0.0,9.0,-4.0,-3.0,1.3175134658813477
262,-3811.0,-401.0,-3156.0,1.0,6672.0,6527.0,9158.0,9870.0,-12.0,-14.0,-8.0,-3.0,0.0,9.0,-4.0,-3.0,1.3266193866729736
263,-3811.0,-401.0,-3156.0,1.0,6672.0,6527.0,9158.0,9870.0,12.0,20.0,2.0,6.0,-1.0,-3.0,-1.0,4.0,1.334097146987915
264,-3811.0,-401.0,-3156.0,1.0,6672.0,6527.0,9158.0,9870.0,8.0,3.0,-4.0,0.0,-1.0,3.0,2.0,4.0,1.3417556285858154
265,-4300.0,-314.0,-2925.0,1.0,7295.0,5966.0,8869.0,10046.0,8.0,3.0,-4.0,0.0,-1.0,3.0,2.0,4.0,1.3440618515014648
266,-4300.0,-314.0,-2925.0,1.0,7295.0,5966.0,8869.0,10046.0,-11.0,-17.0,8.0,17.0,17.0,-5.0,-4.0,-7.0,1.346968173980713
267,-4300.0,-314.0,-2925.0,1.0,7295.0,5966.0,8869.0,10046.0,4.0,13.0,16.0,28.0,15.0,11.0,6.0,2.0,1.3634545803070068
268,-4816.0,-182.0,-2815.0,1.0,7897.0,5350.0,8504.0,10252.0,4.0,13.0,16.0,28.0,15.0,11.0,6.0,2.0,1.3657381534576416
269,-4816.0,-182.0,-2815.0,1.0,7897.0,5350.0,8504.0,10252.0,-4.0,8.0,-9.0,-8.0,-7.0,4.0,-2.0,-2.0,1.370270013809204
270,-4816.0,-182.0,-2815.0,1.0,7897.0,5350.0,8504.0,10252.0,8.0,-1.0,6.0,-13.0,51.0,-11.0,-3.0,0.0,1.3881731033325195
271,-5199.0,-177.0,-2555.0,1.0,8458.0,4712.0,8059.0,10474.0,8.0,-1.0,6.0,-13.0,51.0,-11.0,-3.0,0.0,1.3923699855804443
272,-5199.0,-177.0,-2555.0,1.0,8458.0,4712.0,8059.0,10474.0,0.0,-4.0,12.0,-23.0,-22.0,-10.0,-9.0,-5.0,1.3966751098632812
273,-5199.0,-177.0,-2555.0,1.0,8458.0,4712.0,8059.0,10474.0,-9.0,-15.0,-7.0,-16.0,-9.0,11.0,5.0,-1.0,1.4005928039550781
274,-5506.0,-135.0,-2467.0,1.0,8988.0,4035.0,7552.0,10692.0,-9.0,-15.0,-7.0,-16.0,-9.0,11.0,5.0,-1.0,1.402878999710083
275,-5506.0,-135.0,-2467.0,1.0,8988.0,4035.0,7552.0,10692.0,-5.0,-8.0,-5.0,24.0,15.0,-4.0,-6.0,-4.0,1.4082365036010742
276,-5506.0,-135.0,-2467.0,1.0,8988.0,4035.0,7552.0,10692.0,4.0,-2.0,14.0,4.0,25.0,4.0,3.0,6.0,1.4254770278930664
277,-5467.0,-18.0,-2388.0,1.0,9464.0,3336.0,7028.0,10877.0,4.0,-2.0,14.0,4.0,25.0,4.0,3.0,6.0,1.430720567703247
278,-5467.0,-18.0,-2388.0,1.0,9464.0,3336.0,7028.0,10877.0,0.0,-5.0,-7.0,26.0,-47.0,-1.0,14.0,8.0,1.4350218772888184
279,-5467.0,-18.0,-2388.0,1.0,9464.0,3336.0,7028.0,10877.0,-7.0,-3.0,4.0,-1.0,-27.0,-19.0,-21.0,-13.0,1.4373424053192139
280,-5107.0,115.0,-2227.0,1.0,9868.0,2654.0,6530.0,11016.0,-7.0,-3.0,4.0,-1.0,-27.0,-19.0,-21.0,-13.0,1.4462947845458984
281,-5107.0,115.0,-2227.0,1.0,9868.0,2654.0,6530.0,11016.0,0.0,2.0,-8.0,-12.0,19.0,14.0,1.0,-2.0,1.4490625858306885
282,-5107.0,115.0,-2227.0,1.0,9868.0,2654.0,6530.0,11016.0,-1.0,4.0,-8.0,-10.0,-7.0,13.0,24.0,7.0,1.460904598236084
283,-4994.0,356.0,-2136.0,1.0,10209.0,1948.0,6046.0,11128.0,-1.0,4.0,-8.0,-10.0,-7.0,13.0,24.0,7.0,1.4632182121276855
284,-4994.0,356.0,-2136.0,1.0,10209.0,1948.0,6046.0,11128.0,-10.0,-13.0,-5.0,11.0,-31.0,-52.0,-31.0,-18.0,1.4681062698364258
285,-4994.0,356.0,-2136.0,1.0,10209.0,1948.0,6046.0,11128.0,-6.0,-7.0,-9.0,4.0,-74.0,-11.0,-9.0,-7.0,1.4835388660430908
286,-4832.0,662.0,-2210.0,1.0,10506.0,1206.0,5596.0,11192.0,-6.0,-7.0,-9.0,4.0,-74.0,-11.0,-9.0,-7.0,1.4859204292297363
287,-4832.0,662.0,-2210.0,1.0,10506.0,1206.0,5596.0,11192.0,-4.0,-9.0,-5.0,26.0,26.0,38.0,41.0,6.0,1.4900562763214111
288,-4832.0,662.0,-2210.0,1.0,10506.0,1206.0,5596.0,11192.0,6.0,6.0,6.0,65.0,16.0,23.0,16.0,2.0,1.4976763725280762
289,-4722.0,987.0,-2276.0,1.0,10760.0,420.0,5173.0,11212.0,6.0,6.0,6.0,65.0,16.0,23.0,16.0,2.0,1.5059027671813965
290,-4722.0,987.0,-2276.0,1.0,10760.0,420.0,5173.0,11212.0,4.0,5.0,18.0,-13.0,-47.0,19.0,13.0,3.0,1.5083625316619873
291,-4722.0,987.0,-2276.0,1.0,10760.0,420.0,5173.0,11212.0,-1.0,4.0,-3.0,-86.0,29.0,35.0,30.0,-8.0,1.5210332870483398
292,-4509.0,1204.0,-2311.0,1.0,10973.0,-383.0,4782.0,11180.0,-1.0,4.0,-3.0,-86.0,29.0,35.0,30.0,-8.0,1.5253376960754395
293,-4509.0,1204.0,-2311.0,1.0,10973.0,-383.0,4782.0,11180.0,8.0,4.0,-12.0,-97.0,-71.0,-105.0,-6.0,14.0,1.536823034286499
294,-4509.0,1204.0,-2311.0,1.0,10973.0,-383.0,4782.0,11180.0,-5.0,-11.0,-19.0,-64.0,-63.0,23.0,-47.0,-9.0,1.5458288192749023
295,-4265.0,1349.0,-2301.0,1.0,11148.0,-1189.0,4418.0,11100.0,-5.0,-11.0,-19.0,-64.0,-63.0,23.0,-47.0,-9.0,1.5483825206756592
296,-4265.0,1349.0,-2301.0,1.0,11148.0,-1189.0,4418.0,11100.0,-6.0,-5.0,-4.0,-10.0,-45.0,-80.0,60.0,12.0,1.5507771968841553
297,-4265.0,1349.0,-2301.0,1.0,11148.0,-1189.0,4418.0,11100.0,6.0,7.0,13.0,41.0,111.0,30.0,25.0,-3.0,1.5578606128692627
298,-3866.0,2050.0,-2276.0,1.0,11262.0,-2051.0,4160.0,10957.0,6.0,7.0,13.0,41.0,111.0,30.0,25.0,-3.0,1.5660037994384766
299,-3866.0,2050.0,-2276.0,1.0,11262.0,-2051.0,4160.0,10957.0,1.0,-1.0,-8.0,28.0,25.0,-23.0,-45.0,-35.0,1.568359136581421
300,-3866.0,2050.0,-2276.0,1.0,11262.0,-2051.0,4160.0,10957.0,-1.0,0.0,-2.0,-7.0,-80.0,-29.0,-63.0,-32.0,1.5807390213012695
301,-3005.0,2733.0,-2295.0,1.0,11331.0,-2847.0,4080.0,10737.0,-1.0,0.0,-2.0,-7.0,-80.0,-29.0,-63.0,-32.0,1.5846357345581055
302,-3005.0,2733.0,-2295.0,1.0,11331.0,-2847.0,4080.0,10737.0,22.0,12.0,16.0,37.0,31.0,77.0,6.0,67.0,1.5887203216552734
303,-3005.0,2733.0,-2295.0,1.0,11331.0,-2847.0,4080.0,10737.0,-3.0,-3.0,-12.0,32.0,25.0,49.0,-84.0,-14.0,1.6046168804168701
304,-1382.0,2893.0,-1803.0,1.0,11361.0,-3434.0,4216.0,10477.0,-3.0,-3.0,-12.0,32.0,25.0,49.0,-84.0,-14.0,1.609452486038208
305,-1382.0,2893.0,-1803.0,1.0,11361.0,-3434.0,4216.0,10477.0,-10.0,0.0,7.0,19.0,-7.0,17.0,43.0,1.0,1.6136796474456787
306,-1382.0,2893.0,-1803.0,1.0,11361.0,-3434.0,4216.0,10477.0,0.0,3.0,0.0,12.0,12.0,-37.0,-12.0,20.0,1.6280012130737305
307,405.0,2519.0,-1267.0,1.0,11400.0,-3728.0,4525.0,10202.0,0.0,3.0,0.0,12.0,12.0,-37.0,-12.0,20.0,1.6328575611114502
308,405.0,2519.0,-1267.0,1.0,11400.0,-3728.0,4525.0,10202.0,11.0,7.0,14.0,-2.0,53.0,36.0,3.0,-64.0,1.6378474235534668
309,405.0,2519.0,-1267.0,1.0,11400.0,-3728.0,4525.0,10202.0,10.0,3.0,2.0,-24.0,14.0,-60.0,74.0,10.0,1.6407966613769531
310,2308.0,1680.0,-518.0,1.0,11462.0,-3652.0,4967.0,9951.0,10.0,3.0,2.0,-24.0,14.0,-60.0,74.0,10.0,1.6431999206542969
311,2308.0,1680.0,-518.0,1.0,11462.0,-3652.0,4967.0,9951.0,-20.0,-14.0,-7.0,6.0,61.0,-45.0,-63.0,-22.0,1.6478354930877686
312,2308.0,1680.0,-518.0,1.0,11462.0,-3652.0,4967.0,9951.0,-2.0,-4.0,-6.0,-15.0,-29.0,-11.0,-66.0,12.0,1.6650807857513428
313,4453.0,484.0,767.0,1.0,11516.0,-3102.0,5535.0,9774.0,-2.0,-4.0,-6.0,-15.0,-29.0,-11.0,-66.0,12.0,1.6698949337005615
314,4453.0,484.0,767.0,1.0,11516.0,-3102.0,5535.0,9774.0,0.0,0.0,3.0,-11.0,74.0,7.0,-97.0,-72.0,1.6747345924377441
315,4453.0,484.0,767.0,1.0,11516.0,-3102.0,5535.0,9774.0,-2.0,0.0,1.0,20.0,82.0,-11.0,2.0,-13.0,1.6884713172912598
316,5933.0,-33.0,2259.0,1.0,11450.0,-2212.0,6225.0,9677.0,-2.0,0.0,1.0,20.0,82.0,-11.0,2.0,-13.0,1.6932451725006104
317,5933.0,-33.0,2259.0,1.0,11450.0,-2212.0,6225.0,9677.0,20.0,14.0,11.0,9.0,10.0,39.0,-49.0,51.0,1.6978933811187744
318,5933.0,-33.0,2259.0,1.0,11450.0,-2212.0,6225.0,9677.0,7.0,2.0,5.0,37.0,-72.0,6.0,98.0,59.0,1.7002549171447754
319,6550.0,213.0,3960.0,1.0,11137.0,-1143.0,7014.0,9688.0,7.0,2.0,5.0,37.0,-72.0,6.0,98.0,59.0,1.702815055847168
320,6550.0,213.0,3960.0,1.0,11137.0,-1143.0,7014.0,9688.0,-18.0,-13.0,-26.0,-68.0,-110.0,-23.0,-32.0,-21.0,1.7075769901275635
321,6550.0,213.0,3960.0,1.0,11137.0,-1143.0,7014.0,9688.0,18.0,-4.0,8.0,23.0,39.0,-60.0,50.0,94.0,1.7246015071868896
322,7061.0,913.0,5534.0,1.0,10520.0,42.0,7903.0,9762.0,18.0,-4.0,8.0,23.0,39.0,-60.0,50.0,94.0,1.7288765907287598
323,7061.0,913.0,5534.0,1.0,10520.0,42.0,7903.0,9762.0,-28.0,-16.0,-21.0,2.0,12.0,-18.0,127.0,77.0,1.7333974838256836
324,7061.0,913.0,5534.0,1.0,10520.0,42.0,7903.0,9762.0,-14.0,-22.0,-27.0,25.0,71.0,-65.0,79.0,65.0,1.748610019683838
325,7360.0,1801.0,6871.0,1.0,9570.0,1279.0,8835.0,9855.0,-14.0,-22.0,-27.0,25.0,71.0,-65.0,79.0,65.0,1.7541842460632324
326,7360.0,1801.0,6871.0,1.0,9570.0,1279.0,8835.0,9855.0,-3.0,-10.0,-27.0,-77.0,97.0,127.0,117.0,80.0,1.7586989402770996
327,7360.0,1801.0,6871.0,1.0,9570.0,1279.0,8835.0,9855.0,26.0,21.0,16.0,16.0,93.0,49.0,24.0,-20.0,1.7609326839447021
328,6377.0,2835.0,7739.0,1.0,8322.0,2370.0,9647.0,10024.0,26.0,21.0,16.0,16.0,93.0,49.0,24.0,-20.0,1.7631950378417969
329,6377.0,2835.0,7739.0,1.0,8322.0,2370.0,9647.0,10024.0,6.0,22.0,7.0,17.0,-12.0,33.0,-128.0,-23.0,1.7678754329681396
330,6377.0,2835.0,7739.0,1.0,8322.0,2370.0,9647.0,10024.0,66.0,106.0,90.0,-38.0,-84.0,10.0,20.0,-11.0,1.7843611240386963
331,5988.0,3301.0,8263.0,1.0,6869.0,3400.0,10317.0,10160.0,66.0,106.0,90.0,-38.0,-84.0,10.0,20.0,-11.0,1.7883541584014893
332,5988.0,3301.0,8263.0,1.0,6869.0,3400.0,10317.0,10160.0,-35.0,8.0,56.0,6.0,76.0,6.0,-36.0,-51.0,1.7934825420379639
333,5988.0,3301.0,8263.0,1.0,6869.0,3400.0,10317.0,10160.0,3.0,80.0,35.0,27.0,-70.0,62.0,-43.0,-25.0,1.8083453178405762
334,6419.0,4042.0,8478.0,1.0,5196.0,4353.0,10933.0,10145.0,3.0,80.0,35.0,27.0,-70.0,62.0,-43.0,-25.0,1.8135242462158203
335,6419.0,4042.0,8478.0,1.0,5196.0,4353.0,10933.0,10145.0,12.0,97.0,-88.0,19.0,109.0,-6.0,8.0,-87.0,1.8183329105377197
336,6419.0,4042.0,8478.0,1.0,5196.0,4353.0,10933.0,10145.0,15.0,-14.0,-71.0,-62.0,102.0,111.0,6.0,25.0,1.8208844661712646
337,6499.0,3187.0,8773.0,1.0,3510.0,5374.0,11330.0,9942.0,15.0,-14.0,-71.0,-62.0,102.0,111.0,6.0,25.0,1.8231370449066162
338,6499.0,3187.0,8773.0,1.0,3510.0,5374.0,11330.0,9942.0,-1.0,83.0,88.0,23.0,-39.0,20.0,36.0,44.0,1.82808256149292
339,6499.0,3187.0,8773.0,1.0,3510.0,5374.0,11330.0,9942.0,-128.0,-101.0,-46.0,-84.0,41.0,42.0,-21.0,-120.0,1.8449931144714355
340,5435.0,1489.0,5836.0,1.0,2365.0,6118.0,11589.0,9544.0,-128.0,-101.0,-46.0,-84.0,41.0,42.0,-21.0,-120.0,1.8496246337890625
341,5435.0,1489.0,5836.0,1.0,2365.0,6118.0,11589.0,9544.0,45.0,-128.0,39.0,-72.0,-116.0,-120.0,-58.0,49.0,1.8540778160095215
342,5435.0,1489.0,5836.0,1.0,2365.0,6118.0,11589.0,9544.0,-28.0,-128.0,-15.0,-42.0,-115.0,-92.0,30.0,-31.0,1.8678374290466309
343,966.0,382.0,354.0,1.0,2215.0,6148.0,11675.0,9456.0,-28.0,-128.0,-15.0,-42.0,-115.0,-92.0,30.0,-31.0,1.8726680278778076
344,966.0,382.0,354.0,1.0,2215.0,6148.0,11675.0,9456.0,-17.0,-8.0,-30.0,77.0,76.0,14.0,-76.0,-120.0,1.8775367736816406
345,966.0,382.0,354.0,1.0,2215.0,6148.0,11675.0,9456.0,-91.0,-104.0,-78.0,24.0,40.0,5.0,-127.0,-128.0,1.8888628482818604
346,-278.0,-1157.0,3749.0,1.0,2014.0,6705.0,11328.0,9543.0,-91.0,-104.0,-78.0,24.0,40.0,5.0,-127.0,-128.0,1.8935234546661377
347,-278.0,-1157.0,3749.0,1.0,2014.0,6705.0,11328.0,9543.0,103.0,110.0,5.0,80.0,-57.0,-2.0,13.0,8.0,1.897942304611206
348,-278.0,-1157.0,3749.0,1.0,2014.0,6705.0,11328.0,9543.0,-66.0,-73.0,21.0,19.0,-49.0,25.0,94.0,68.0,1.9044008255004883
349,-76.0,759.0,2741.0,1.0,1675.0,6924.0,11116.0,9700.0,-66.0,-73.0,21.0,19.0,-49.0,25.0,94.0,68.0,1.9073004722595215
350,-76.0,759.0,2741.0,1.0,1675.0,6924.0,11116.0,9700.0,-46.0,-43.0,18.0,46.0,95.0,127.0,-24.0,-93.0,1.9096546173095703
351,-76.0,759.0,2741.0,1.0,1675.0,6924.0,11116.0,9700.0,118.0,58.0,23.0,49.0,-106.0,-72.0,-3.0,74.0,1.927072286605835
352,1273.0,807.0,2246.0,1.0,1243.0,7121.0,11069.0,9676.0,118.0,58.0,23.0,49.0,-106.0,-72.0,-3.0,74.0,1.9294674396514893
353,1273.0,807.0,2246.0,1.0,1243.0,7121.0,11069.0,9676.0,22.0,-40.0,95.0,-35.0,-43.0,-71.0,-20.0,32.0,1.9318368434906006
354,1273.0,807.0,2246.0,1.0,1243.0,7121.0,11069.0,9676.0,-34.0,-34.0,1.0,-20.0,120.0,-58.0,-128.0,15.0,1.9406135082244873
355,651.0,861.0,1340.0,1.0,1001.0,7124.0,10985.0,9797.0,-34.0,-34.0,1.0,-20.0,120.0,-58.0,-128.0,15.0,1.942969799041748
356,651.0,861.0,1340.0,1.0,1001.0,7124.0,10985.0,9797.0,-41.0,59.0,-122.0,64.0,127.0,50.0,-54.0,-41.0,1.9477553367614746
357,651.0,861.0,1340.0,1.0,1001.0,7124.0,10985.0,9797.0,54.0,17.0,-98.0,-69.0,22.0,29.0,-80.0,36.0,1.9631266593933105
358,-837.0,769.0,1353.0,1.0,863.0,7174.0,10816.0,9961.0,54.0,17.0,-98.0,-69.0,22.0,29.0,-80.0,36.0,1.9654369354248047
359,-837.0,769.0,1353.0,1.0,863.0,7174.0,10816.0,9961.0,-36.0,-82.0,-40.0,-38.0,40.0,-19.0,113.0,23.0,1.9781606197357178
360,-837.0,769.0,1353.0,1.0,863.0,7174.0,10816.0,9961.0,36.0,72.0,29.0,-6.0,84.0,-15.0,61.0,-26.0,1.9868214130401611
361,-632.0,376.0,859.0,1.0,758.0,7270.0,10731.0,9991.0,36.0,72.0,29.0,-6.0,84.0,-15.0,61.0,-26.0,1.9895174503326416
362,-632.0,376.0,859.0,1.0,758.0,7270.0,10731.0,9991.0,-12.0,-62.0,-86.0,-91.0,-108.0,-6.0,-13.0,13.0,1.991969108581543
363,-632.0,376.0,859.0,1.0,758.0,7270.0,10731.0,9991.0,6.0,1.0,-39.0,7.0,79.0,23.0,-50.0,-36.0,2.00893497467041
364,132.0,613.0,538.0,1.0,620.0,7282.0,10737.0,9985.0,6.0,1.0,-39.0,7.0,79.0,23.0,-50.0,-36.0,2.011223793029785
365,132.0,613.0,538.0,1.0,620.0,7282.0,10737.0,9985.0,-29.0,-30.0,-36.0,-26.0,-19.0,-41.0,47.0,29.0,2.0135977268218994
366,132.0,613.0,538.0,1.0,620.0,7282.0,10737.0,9985.0,17.0,58.0,91.0,88.0,112.0,52.0,6.0,-30.0,2.0234975814819336
367,82.0,575.0,373.0,1.0,542.0,7248.0,10749.0,10002.0,17.0,58.0,91.0,88.0,112.0,52.0,6.0,-30.0,2.0258493423461914
368,82.0,575.0,373.0,1.0,542.0,7248.0,10749.0,10002.0,15.0,36.0,33.0,41.0,-112.0,-51.0,-92.0,-7.0,2.0304336547851562
369,82.0,575.0,373.0,1.0,542.0,7248.0,10749.0,10002.0,13.0,12.0,-13.0,-45.0,-80.0,-1.0,-41.0,-38.0,2.0467488765716553
370,-232.0,283.0,48.0,1.0,518.0,7226.0,10724.0,10046.0,13.0,12.0,-13.0,-45.0,-80.0,-1.0,-41.0,-38.0,2.0491344928741455
371,-232.0,283.0,48.0,1.0,518.0,7226.0,10724.0,10046.0,-5.0,-3.0,6.0,52.0,-85.0,23.0,-14.0,1.0,2.052070140838623
372,-232.0,283.0,48.0,1.0,518.0,7226.0,10724.0,10046.0,-2.0,-43.0,-59.0,17.0,-10.0,-44.0,70.0,16.0,2.0610299110412598
373,-330.0,165.0,35.0,1.0,526.0,7218.0,10708.0,10069.0,-2.0,-43.0,-59.0,17.0,-10.0,-44.0,70.0,16.0,2.0633020401000977
374,-330.0,165.0,35.0,1.0,526.0,7218.0,10708.0,10069.0,-3.0,5.0,39.0,47.0,50.0,18.0,127.0,24.0,2.0678839683532715
375,-330.0,165.0,35.0,1.0,526.0,7218.0,10708.0,10069.0,7.0,28.0,70.0,-7.0,-103.0,14.0,75.0,15.0,2.084272861480713
376,-324.0,72.0,61.0,1.0,540.0,7222.0,10684.0,10091.0,7.0,28.0,70.0,-7.0,-103.0,14.0,75.0,15.0,2.086934804916382
377,-324.0,72.0,61.0,1.0,540.0,7222.0,10684.0,10091.0,30.0,14.0,41.0,44.0,104.0,14.0,10.0,64.0,2.0893313884735107
378,-324.0,72.0,61.0,1.0,540.0,7222.0,10684.0,10091.0,-16.0,-15.0,17.0,127.0,-34.0,8.0,-45.0,-24.0,2.106125831604004
379,-304.0,118.0,83.0,1.0,544.0,7219.0,10653.0,10125.0,-16.0,-15.0,17.0,127.0,-34.0,8.0,-45.0,-24.0,2.1084024906158447
380,-304.0,118.0,83.0,1.0,544.0,7219.0,10653.0,10125.0,2.0,-46.0,-57.0,-62.0,26.0,-2.0,23.0,20.0,2.1131529808044434
381,-304.0,118.0,83.0,1.0,544.0,7219.0,10653.0,10125.0,-8.0,30.0,89.0,-105.0,19.0,-32.0,70.0,21.0,2.1207199096679688
382,-349.0,86.0,138.0,1.0,550.0,7220.0,10605.0,10174.0,-8.0,30.0,89.0,-105.0,19.0,-32.0,70.0,21.0,2.123028516769409
383,-349.0,86.0,138.0,1.0,550.0,7220.0,10605.0,10174.0,19.0,23.0,-24.0,-110.0,-17.0,-62.0,33.0,-7.0,2.1279456615448
384,-349.0,86.0,138.0,1.0,550.0,7220.0,10605.0,10174.0,-34.0,-34.0,-7.0,18.0,64.0,18.0,-51.0,-26.0,2.143669605255127
385,-341.0,37.0,166.0,1.0,542.0,7240.0,10547.0,10220.0,-34.0,-34.0,-7.0,18.0,64.0,18.0,-51.0,-26.0,2.146552801132202
386,-341.0,37.0,166.0,1.0,542.0,7240.0,10547.0,10220.0,-14.0,-24.0,24.0,-21.0,45.0,-26.0,-79.0,-32.0,2.149386405944824
387,-341.0,37.0,166.0,1.0,542.0,7240.0,10547.0,10220.0,26.0,62.0,61.0,43.0,-1.0,12.0,36.0,19.0,2.1663856506347656
388,-165.0,30.0,152.0,1.0,525.0,7255.0,10505.0,10253.0,26.0,62.0,61.0,43.0,-1.0,12.0,36.0,19.0,2.1686930656433105
389,-165.0,30.0,152.0,1.0,525.0,7255.0,10505.0,10253.0,6.0,27.0,3.0,57.0,-17.0,10.0,-88.0,-70.0,2.1710846424102783
390,-165.0,30.0,152.0,1.0,525.0,7255.0,10505.0,10253.0,-15.0,0.0,93.0,99.0,-37.0,24.0,49.0,-1.0,2.1890361309051514
391,-26.0,71.0,121.0,1.0,502.0,7261.0,10487.0,10270.0,-15.0,0.0,93.0,99.0,-37.0,24.0,49.0,-1.0,2.1913366317749023
392,-26.0,71.0,121.0,1.0,502.0,7261.0,10487.0,10270.0,-8.0,-16.0,-5.0,-32.0,-123.0,-12.0,32.0,17.0,2.1937448978424072
393,-26.0,71.0,121.0,1.0,502.0,7261.0,10487.0,10270.0,1.0,-2.0,-10.0,2.0,75.0,3.0,-71.0,-20.0,2.203335762023926
394,-116.0,105.0,110.0,1.0,476.0,7265.0,10458.0,10296.0,1.0,-2.0,-10.0,2.0,75.0,3.0,-71.0,-20.0,2.2056405544281006
395,-116.0,105.0,110.0,1.0,476.0,7265.0,10458.0,10296.0,-2.0,-23.0,-63.0,14.0,16.0,4.0,59.0,32.0,2.2107303142547607
396,-116.0,105.0,110.0,1.0,476.0,7265.0,10458.0,10296.0,8.0,23.0,-42.0,-20.0,27.0,24.0,3.0,6.0,2.226482391357422
397,-131.0,82.0,105.0,1.0,457.0,7273.0,10431.0,10320.0,8.0,23.0,-42.0,-20.0,27.0,24.0,3.0,6.0,2.228769063949585
398,-131.0,82.0,105.0,1.0,457.0,7273.0,10431.0,10320.0,27.0,3.0,18.0,48.0,65.0,16.0,-4.0,46.0,2.231191396713257
399,-131.0,82.0,105.0,1.0,457.0,7273.0,10431.0,10320.0,18.0,-15.0,-29.0,-44.0,21.0,-15.0,-65.0,16.0,2.240551233291626
400,-100.0,63.0,104.0,1.0,437.0,7282.0,10406.0,10340.0,18.0,-15.0,-29.0,-44.0,21.0,-15.0,-65.0,16.0,2.2483747005462646
401,-100.0,63.0,104.0,1.0,437.0,7282.0,10406.0,10340.0,-8.0,7.0,41.0,34.0,26.0,27.0,43.0,31.0,2.250746250152588
402,-100.0,63.0,104.0,1.0,437.0,7282.0,10406.0,10340.0,1.0,-12.0,48.0,28.0,-78.0,-35.0,2.0,-12.0,2.2646422386169434
403,-93.0,83.0,78.0,1.0,422.0,7283.0,10388.0,10357.0,1.0,-12.0,48.0,28.0,-78.0,-35.0,2.0,-12.0,2.26920747756958
404,-93.0,83.0,78.0,1.0,422.0,7283.0,10388.0,10357.0,-11.0,-14.0,-63.0,-77.0,-117.0,-9.0,44.0,-4.0,2.2744295597076416
405,-93.0,83.0,78.0,1.0,422.0,7283.0,10388.0,10357.0,-5.0,39.0,15.0,10.0,-95.0,-1.0,-16.0,-26.0,2.2880783081054688
406,-114.0,87.0,70.0,1.0,413.0,7285.0,10375.0,10369.0,-5.0,39.0,15.0,10.0,-95.0,-1.0,-16.0,-26.0,2.2929635047912598
407,-114.0,87.0,70.0,1.0,413.0,7285.0,10375.0,10369.0,15.0,29.0,54.0,20.0,-5.0,56.0,59.0,-2.0,2.297818422317505
408,-114.0,87.0,70.0,1.0,413.0,7285.0,10375.0,10369.0,-8.0,-23.0,-35.0,2.0,9.0,-43.0,-48.0,-14.0,2.300623655319214
409,-125.0,75.0,69.0,1.0,404.0,7290.0,10363.0,10378.0,-8.0,-23.0,-35.0,2.0,9.0,-43.0,-48.0,-14.0,2.3084418773651123
410,-125.0,75.0,69.0,1.0,404.0,7290.0,10363.0,10378.0,-28.0,-26.0,22.0,31.0,50.0,7.0,-33.0,-71.0,2.3108553886413574
411,-125.0,75.0,69.0,1.0,404.0,7290.0,10363.0,10378.0,18.0,20.0,17.0,2.0,72.0,29.0,60.0,-4.0,2.3239028453826904
412,-160.0,86.0,90.0,1.0,400.0,7293.0,10348.0,10391.0,18.0,20.0,17.0,2.0,72.0,29.0,60.0,-4.0,2.3262176513671875
413,-160.0,86.0,90.0,1.0,400.0,7293.0,10348.0,10391.0,13.0,5.0,10.0,9.0,83.0,41.0,-43.0,47.0,2.3303918838500977
414,-160.0,86.0,90.0,1.0,400.0,7293.0,10348.0,10391.0,-22.0,-36.0,-69.0,-36.0,-25.0,10.0,71.0,-27.0,2.3476200103759766
415,-116.0,73.0,92.0,1.0,394.0,7296.0,10336.0,10402.0,-22.0,-36.0,-69.0,-36.0,-25.0,10.0,71.0,-27.0,2.3515520095825195
416,-116.0,73.0,92.0,1.0,394.0,7296.0,10336.0,10402.0,11.0,27.0,34.0,-7.0,40.0,-19.0,36.0,8.0,2.355609893798828
417,-116.0,73.0,92.0,1.0,394.0,7296.0,10336.0,10402.0,-6.0,-17.0,27.0,19.0,9.0,3.0,-47.0,27.0,2.360381841659546
418,-52.0,66.0,51.0,1.0,390.0,7295.0,10335.0,10403.0,-6.0,-17.0,27.0,19.0,9.0,3.0,-47.0,27.0,2.3684792518615723
419,-52.0,66.0,51.0,1.0,390.0,7295.0,10335.0,10403.0,-1.0,28.0,58.0,-8.0,9.0,-26.0,8.0,-8.0,2.371229648590088
420,-52.0,66.0,51.0,1.0,390.0,7295.0,10335.0,10403.0,0.0,-10.0,-40.0,-79.0,0.0,-13.0,26.0,13.0,2.383220672607422
421,-45.0,50.0,54.0,1.0,388.0,7296.0,10337.0,10400.0,0.0,-10.0,-40.0,-79.0,0.0,-13.0,26.0,13.0,2.385505437850952
422,-45.0,50.0,54.0,1.0,388.0,7296.0,10337.0,10400.0,-2.0,-37.0,-33.0,49.0,105.0,11.0,-20.0,-3.0,2.3902416229248047
423,-45.0,50.0,54.0,1.0,388.0,7296.0,10337.0,10400.0,7.0,4.0,-76.0,-59.0,-29.0,50.0,104.0,35.0,2.4068353176116943
424,-84.0,34.0,62.0,1.0,395.0,7297.0,10337.0,10400.0,7.0,4.0,-76.0,-59.0,-29.0,50.0,104.0,35.0,2.409148931503296
425,-84.0,34.0,62.0,1.0,395.0,7297.0,10337.0,10400.0,-7.0,14.0,41.0,-30.0,-30.0,-8.0,-40.0,-17.0,2.411747932434082
426,-84.0,34.0,62.0,1.0,395.0,7297.0,10337.0,10400.0,15.0,28.0,-37.0,27.0,19.0,-25.0,-6.0,7.0,2.420398473739624
427,-68.0,27.0,54.0,1.0,400.0,7296.0,10333.0,10404.0,15.0,28.0,-37.0,27.0,19.0,-25.0,-6.0,7.0,2.428250789642334
428,-68.0,27.0,54.0,1.0,400.0,7296.0,10333.0,10404.0,1.0,-9.0,69.0,9.0,14.0,-12.0,-21.0,23.0,2.43080997467041
429,-68.0,27.0,54.0,1.0,400.0,7296.0,10333.0,10404.0,20.0,37.0,5.0,-18.0,13.0,-6.0,21.0,26.0,2.4436450004577637
430,-63.0,22.0,40.0,1.0,406.0,7294.0,10329.0,10409.0,20.0,37.0,5.0,-18.0,13.0,-6.0,21.0,26.0,2.4459614753723145
431,-63.0,22.0,40.0,1.0,406.0,7294.0,10329.0,10409.0,-13.0,4.0,-21.0,29.0,69.0,11.0,-5.0,-25.0,2.450202226638794
432,-63.0,22.0,40.0,1.0,406.0,7294.0,10329.0,10409.0,-16.0,-22.0,-29.0,-4.0,55.0,-58.0,-87.0,-39.0,2.4670491218566895
433,-57.0,30.0,40.0,1.0,404.0,7296.0,10323.0,10414.0,-16.0,-22.0,-29.0,-4.0,55.0,-58.0,-87.0,-39.0,2.4695160388946533
434,-57.0,30.0,40.0,1.0,404.0,7296.0,10323.0,10414.0,12.0,8.0,35.0,46.0,-21.0,5.0,23.0,1.0,2.4718775749206543
435,-57.0,30.0,40.0,1.0,404.0,7296.0,10323.0,10414.0,-20.0,-40.0,-32.0,-5.0,-56.0,-15.0,3.0,-60.0,2.480109214782715
436,-87.0,-9.0,26.0,1.0,413.0,7298.0,10316.0,10418.0,-20.0,-40.0,-32.0,-5.0,-56.0,-15.0,3.0,-60.0,2.4882266521453857
437,-87.0,-9.0,26.0,1.0,413.0,7298.0,10316.0,10418.0,5.0,28.0,10.0,-13.0,-76.0,22.0,19.0,12.0,2.4906246662139893
438,-87.0,-9.0,26.0,1.0,413.0,7298.0,10316.0,10418.0,6.0,36.0,92.0,28.0,-5.0,12.0,-33.0,13.0,2.505037784576416
439,-62.0,-13.0,-17.0,1.0,426.0,7297.0,10316.0,10419.0,6.0,36.0,92.0,28.0,-5.0,12.0,-33.0,13.0,2.5098612308502197
440,-62.0,-13.0,-17.0,1.0,426.0,7297.0,10316.0,10419.0,-5.0,-21.0,-82.0,-55.0,-107.0,-49.0,26.0,26.0,2.514387607574463
441,-62.0,-13.0,-17.0,1.0,426.0,7297.0,10316.0,10419.0,-4.0,-14.0,0.0,31.0,-19.0,14.0,-11.0,0.0,2.5295732021331787
442,-64.0,-38.0,-47.0,1.0,444.0,7296.0,10319.0,10416.0,-4.0,-14.0,0.0,31.0,-19.0,14.0,-11.0,0.0,2.535158634185791
443,-64.0,-38.0,-47.0,1.0,444.0,7296.0,10319.0,10416.0,8.0,-6.0,12.0,-22.0,-8.0,-5.0,49.0,27.0,2.5393104553222656
444,-64.0,-38.0,-47.0,1.0,444.0,7296.0,10319.0,10416.0,-24.0,-25.0,-26.0,19.0,-48.0,-19.0,61.0,9.0,2.548884153366089
445,-28.0,-22.0,-72.0,1.0,460.0,7291.0,10326.0,10412.0,-24.0,-25.0,-26.0,19.0,-48.0,-19.0,61.0,9.0,2.5512046813964844
446,-28.0,-22.0,-72.0,1.0,460.0,7291.0,10326.0,10412.0,5.0,-4.0,-30.0,-48.0,64.0,13.0,69.0,6.0,2.553569793701172
447,-28.0,-22.0,-72.0,1.0,460.0,7291.0,10326.0,10412.0,1.0,-5.0,59.0,12.0,57.0,27.0,21.0,-8.0,2.56365704536438
448,15.0,-1.0,-58.0,1.0,470.0,7283.0,10338.0,10405.0,1.0,-5.0,59.0,12.0,57.0,27.0,21.0,-8.0,2.5660929679870605
449,15.0,-1.0,-58.0,1.0,470.0,7283.0,10338.0,10405.0,-9.0,-24.0,0.0,-30.0,-27.0,-11.0,15.0,2.0,2.569871664047241
450,15.0,-1.0,-58.0,1.0,470.0,7283.0,10338.0,10405.0,11.0,18.0,27.0,4.0,-13.0,4.0,13.0,12.0,2.58646297454834
451,13.0,-6.0,-60.0,1.0,479.0,7277.0,10348.0,10399.0,11.0,18.0,27.0,4.0,-13.0,4.0,13.0,12.0,2.588717222213745
452,13.0,-6.0,-60.0,1.0,479.0,7277.0,10348.0,10399.0,-13.0,-7.0,9.0,4.0,-30.0,-17.0,-13.0,-28.0,2.591233253479004
453,13.0,-6.0,-60.0,1.0,479.0,7277.0,10348.0,10399.0,-5.0,-1.0,-9.0,-2.0,-98.0,-34.0,5.0,-7.0,2.608894109725952
454,-27.0,7.0,-63.0,1.0,491.0,7266.0,10351.0,10403.0,-5.0,-1.0,-9.0,-2.0,-98.0,-34.0,5.0,-7.0,2.611175060272217
455,-27.0,7.0,-63.0,1.0,491.0,7266.0,10351.0,10403.0,-5.0,-8.0,-27.0,-37.0,-10.0,25.0,45.0,-8.0,2.6135573387145996
456,-27.0,7.0,-63.0,1.0,491.0,7266.0,10351.0,10403.0,1.0,-4.0,14.0,-116.0,-16.0,13.0,42.0,9.0,2.631359577178955
457,-27.0,15.0,-55.0,1.0,500.0,7257.0,10356.0,10404.0,1.0,-4.0,14.0,-116.0,-16.0,13.0,42.0,9.0,2.6336798667907715
458,-27.0,15.0,-55.0,1.0,500.0,7257.0,10356.0,10404.0,-3.0,-12.0,-55.0,-58.0,41.0,7.0,-28.0,3.0,2.6360089778900146
459,-27.0,15.0,-55.0,1.0,500.0,7257.0,10356.0,10404.0,-7.0,-5.0,-12.0,9.0,16.0,-38.0,-86.0,5.0,2.6464531421661377
460,4.0,37.0,-45.0,1.0,504.0,7247.0,10364.0,10403.0,-7.0,-5.0,-12.0,9.0,16.0,-38.0,-86.0,5.0,2.648731231689453
461,4.0,37.0,-45.0,1.0,504.0,7247.0,10364.0,10403.0,12.0,10.0,8.0,15.0,9.0,7.0,31.0,9.0,2.651078939437866
462,4.0,37.0,-45.0,1.0,504.0,7247.0,10364.0,10403.0,-3.0,6.0,18.0,18.0,-57.0,-20.0,-51.0,-10.0,2.6688919067382812
463,-24.0,52.0,-38.0,1.0,511.0,7234.0,10371.0,10404.0,-3.0,6.0,18.0,18.0,-57.0,-20.0,-51.0,-10.0,2.6731340885162354
464,-24.0,52.0,-38.0,1.0,511.0,7234.0,10371.0,10404.0,7.0,8.0,17.0,7.0,-60.0,-28.0,-22.0,-8.0,2.67750883102417
465,-24.0,52.0,-38.0,1.0,511.0,7234.0,10371.0,10404.0,2.0,1.0,-9.0,44.0,20.0,40.0,9.0,-3.0,2.6847784519195557
466,-50.0,65.0,-41.0,1.0,515.0,7222.0,10374.0,10410.0,2.0,1.0,-9.0,44.0,20.0,40.0,9.0,-3.0,2.6878302097320557
467,-50.0,65.0,-41.0,1.0,515.0,7222.0,10374.0,10410.0,-10.0,-18.0,33.0,2.0,16.0,-16.0,-72.0,-21.0,2.690417528152466
468,-50.0,65.0,-41.0,1.0,515.0,7222.0,10374.0,10410.0,17.0,25.0,-9.0,21.0,89.0,44.0,43.0,23.0,2.7064919471740723
469,-28.0,69.0,-26.0,1.0,516.0,7211.0,10377.0,10415.0,17.0,25.0,-9.0,21.0,89.0,44.0,43.0,23.0,2.708735942840576
470,-28.0,69.0,-26.0,1.0,516.0,7211.0,10377.0,10415.0,3.0,17.0,21.0,47.0,14.0,-7.0,-68.0,-12.0,2.711113691329956
471,-28.0,69.0,-26.0,1.0,516.0,7211.0,10377.0,10415.0,-2.0,-11.0,-76.0,-24.0,-31.0,-2.0,4.0,-1.0,2.729038953781128
472,-40.0,86.0,-12.0,1.0,513.0,7199.0,10379.0,10421.0,-2.0,-11.0,-76.0,-24.0,-31.0,-2.0,4.0,-1.0,2.7329633235931396
473,-40.0,86.0,-12.0,1.0,513.0,7199.0,10379.0,10421.0,-7.0,-2.0,-25.0,-33.0,17.0,-16.0,-96.0,-29.0,2.737013339996338
474,-40.0,86.0,-12.0,1.0,513.0,7199.0,10379.0,10421.0,-3.0,-14.0,-6.0,-3.0,15.0,-26.0,-32.0,-8.0,2.7437140941619873
475,1.0,76.0,-11.0,1.0,508.0,7189.0,10384.0,10423.0,-3.0,-14.0,-6.0,-3.0,15.0,-26.0,-32.0,-8.0,2.7459676265716553
476,1.0,76.0,-11.0,1.0,508.0,7189.0,10384.0,10423.0,-4.0,-2.0,-16.0,19.0,0.0,10.0,-16.0,8.0,2.7504160404205322
477,1.0,76.0,-11.0,1.0,508.0,7189.0,10384.0,10423.0,-2.0,-1.0,50.0,43.0,102.0,29.0,12.0,0.0,2.766495943069458
478,21.0,83.0,-16.0,1.0,500.0,7179.0,10392.0,10422.0,-2.0,-1.0,50.0,43.0,102.0,29.0,12.0,0.0,2.7687489986419678
479,21.0,83.0,-16.0,1.0,500.0,7179.0,10392.0,10422.0,-10.0,-24.0,-52.0,16.0,-24.0,-1.0,-17.0,-5.0,2.771125316619873
480,21.0,83.0,-16.0,1.0,500.0,7179.0,10392.0,10422.0,-3.0,-18.0,-28.0,56.0,-6.0,11.0,-34.0,-2.0,2.7890353202819824
481,-15.0,73.0,-6.0,1.0,499.0,7169.0,10398.0,10424.0,-3.0,-18.0,-28.0,56.0,-6.0,11.0,-34.0,-2.0,2.791278839111328
482,-15.0,73.0,-6.0,1.0,499.0,7169.0,10398.0,10424.0,-9.0,5.0,5.0,-15.0,-90.0,-54.0,38.0,-9.0,2.7936065196990967
483,-15.0,73.0,-6.0,1.0,499.0,7169.0,10398.0,10424.0,7.0,13.0,-12.0,-10.0,80.0,24.0,-37.0,5.0,2.8034160137176514
484,-56.0,94.0,-4.0,1.0,500.0,7154.0,10398.0,10434.0,7.0,13.0,-12.0,-10.0,80.0,24.0,-37.0,5.0,2.805708646774292
485,-56.0,94.0,-4.0,1.0,500.0,7154.0,10398.0,10434.0,5.0,-7.0,-54.0,-61.0,-51.0,30.0,44.0,10.0,2.810196876525879
486,-56.0,94.0,-4.0,1.0,500.0,7154.0,10398.0,10434.0,1.0,1.0,90.0,-3.0,23.0,-4.0,-26.0,-14.0,2.827039957046509
487,-10.0,81.0,12.0,1.0,492.0,7146.0,10399.0,10438.0,1.0,1.0,90.0,-3.0,23.0,-4.0,-26.0,-14.0,2.829355239868164
488,-10.0,81.0,12.0,1.0,492.0,7146.0,10399.0,10438.0,19.0,13.0,19.0,15.0,74.0,25.0,41.0,19.0,2.831691026687622
489,-10.0,81.0,12.0,1.0,492.0,7146.0,10399.0,10438.0,-10.0,-15.0,-63.0,-67.0,-21.0,-9.0,14.0,-2.0,2.8498756885528564
490,-25.0,95.0,21.0,1.0,483.0,7137.0,10399.0,10444.0,-10.0,-15.0,-63.0,-67.0,-21.0,-9.0,14.0,-2.0,2.8538453578948975
491,-25.0,95.0,21.0,1.0,483.0,7137.0,10399.0,10444.0,-5.0,4.0,46.0,31.0,-66.0,-31.0,14.0,7.0,2.8578779697418213
492,-25.0,95.0,21.0,1.0,483.0,7137.0,10399.0,10444.0,2.0,7.0,34.0,-18.0,-26.0,3.0,-23.0,-2.0,2.8635799884796143
493,-5.0,96.0,19.0,1.0,480.0,7123.0,10403.0,10451.0,2.0,7.0,34.0,-18.0,-26.0,3.0,-23.0,-2.0,2.865872621536255
494,-5.0,96.0,19.0,1.0,480.0,7123.0,10403.0,10451.0,-6.0,6.0,13.0,7.0,32.0,3.0,-29.0,-8.0,2.8700287342071533
495,-5.0,96.0,19.0,1.0,480.0,7123.0,10403.0,10451.0,-10.0,-11.0,-1.0,7.0,-18.0,-31.0,20.0,-2.0,2.886376142501831
496,-31.0,93.0,23.0,1.0,474.0,7113.0,10403.0,10458.0,-10.0,-11.0,-1.0,7.0,-18.0,-31.0,20.0,-2.0,2.888646364212036
497,-31.0,93.0,23.0,1.0,474.0,7113.0,10403.0,10458.0,5.0,12.0,33.0,29.0,-48.0,1.0,24.0,12.0,2.890986442565918
498,-31.0,93.0,23.0,1.0,474.0,7113.0,10403.0,10458.0,-4.0,-5.0,-19.0,55.0,27.0,-1.0,19.0,-2.0,2.909064292907715
499,-71.0,92.0,7.0,1.0,472.0,7101.0,10399.0,10470.0,-4.0,-5.0,-19.0,55.0,27.0,-1.0,19.0,-2.0,2.91188645362854
