,Gyro 0,Gyro 1,Gyro 2,Orientation 0,Orientation 1,Orientation 2,Orientation 3,Sensor 0,Sensor 1,Sensor 2,Sensor 3,Sensor 4,Sensor 5,Sensor 6,Sensor 7,Timestamp
0,-16.0,13.0,-1.0,-9668.0,3389.0,7807.0,-10126.0,1.0,-3.0,0.0,2.0,2.0,-3.0,1.0,-2.0,1.1920928955078125e-06
1,-16.0,13.0,-1.0,-9668.0,3389.0,7807.0,-10126.0,0.0,-1.0,1.0,-1.0,-1.0,-3.0,-2.0,-1.0,0.0024056434631347656
2,-16.0,13.0,-1.0,-9668.0,3389.0,7807.0,-10126.0,-1.0,1.0,-2.0,2.0,-2.0,-2.0,-4.0,-1.0,0.004552125930786133
3,-14.0,7.0,0.0,-9668.0,3390.0,7807.0,-10126.0,-1.0,1.0,-2.0,2.0,-2.0,-2.0,-4.0,-1.0,0.0068132877349853516
4,-20.0,10.0,-1.0,-9666.0,3396.0,7810.0,-10124.0,-1.0,1.0,-2.0,2.0,-2.0,-2.0,-4.0,-1.0,0.009243488311767578
5,-20.0,10.0,-1.0,-9666.0,3396.0,7810.0,-10124.0,1.0,-1.0,-3.0,2.0,1.0,-3.0,-2.0,-1.0,0.013533353805541992
6,-20.0,10.0,-1.0,-9666.0,3396.0,7810.0,-10124.0,-2.0,-1.0,-2.0,-1.0,-3.0,-2.0,-2.0,0.0,0.01613163948059082
7,-19.0,13.0,0.0,-9664.0,3402.0,7812.0,-10122.0,-2.0,-1.0,-2.0,-1.0,-3.0,-2.0,-2.0,0.0,0.018930435180664062
8,-19.0,13.0,0.0,-9664.0,3402.0,7812.0,-10122.0,0.0,-3.0,1.0,3.0,2.0,0.0,2.0,1.0,0.02223491668701172
9,-19.0,13.0,0.0,-9664.0,3402.0,7812.0,-10122.0,1.0,-1.0,-3.0,-3.0,-2.0,1.0,0.0,0.0,0.024486541748046875
10,-17.0,15.0,1.0,-9663.0,3408.0,7812.0,-10120.0,1.0,-1.0,-3.0,-3.0,-2.0,1.0,0.0,0.0,0.026491641998291016
11,-17.0,15.0,1.0,-9663.0,3408.0,7812.0,-10120.0,0.0,-1.0,-2.0,1.0,0.0,0.0,0.0,-3.0,0.028531312942504883
12,-17.0,15.0,1.0,-9663.0,3408.0,7812.0,-10120.0,0.0,-2.0,-2.0,-1.0,-4.0,-1.0,-4.0,-1.0,0.030477523803710938
13,-19.0,13.0,1.0,-9662.0,3415.0,7813.0,-10119.0,0.0,-2.0,-2.0,-1.0,-4.0,-1.0,-4.0,-1.0,0.03244638442993164
14,-19.0,13.0,1.0,-9662.0,3415.0,7813.0,-10119.0,2.0,-1.0,0.0,1.0,-4.0,-2.0,-1.0,-1.0,0.03472447395324707
15,-19.0,13.0,1.0,-9662.0,3415.0,7813.0,-10119.0,-1.0,-1.0,-1.0,0.0,5.0,1.0,0.0,0.0,0.03673076629638672
16,-21.0,17.0,4.0,-9660.0,3422.0,7815.0,-10117.0,-1.0,-1.0,-1.0,0.0,5.0,1.0,0.0,0.0,0.03874492645263672
17,-21.0,17.0,4.0,-9660.0,3422.0,7815.0,-10117.0,-1.0,1.0,0.0,0.0,-1.0,-1.0,-1.0,0.0,0.040557861328125
18,-21.0,17.0,4.0,-9660.0,3422.0,7815.0,-10117.0,-1.0,-1.0,1.0,-2.0,1.0,1.0,0.0,-2.0,0.04232525825500488
19,-11.0,13.0,-3.0,-9660.0,3423.0,7815.0,-10117.0,-1.0,-1.0,1.0,-2.0,1.0,1.0,0.0,-2.0,0.044042110443115234
20,-11.0,13.0,-3.0,-9660.0,3423.0,7815.0,-10117.0,-2.0,-2.0,0.0,0.0,5.0,1.0,0.0,0.0,0.04582953453063965
21,-11.0,13.0,-3.0,-9660.0,3423.0,7815.0,-10117.0,-1.0,0.0,-1.0,-2.0,-4.0,-1.0,-1.0,0.0,0.04762697219848633
22,-13.0,10.0,-6.0,-9659.0,3423.0,7815.0,-10117.0,-1.0,0.0,-1.0,-2.0,-4.0,-1.0,-1.0,0.0,0.04938101768493652
23,-13.0,10.0,-6.0,-9659.0,3423.0,7815.0,-10117.0,-2.0,0.0,0.0,0.0,-4.0,0.0,-4.0,1.0,0.051178693771362305
24,-13.0,10.0,-6.0,-9659.0,3423.0,7815.0,-10117.0,-2.0,1.0,0.0,2.0,-3.0,0.0,1.0,-1.0,0.052883148193359375
25,3.0,10.0,-7.0,-9659.0,3424.0,7815.0,-10117.0,-2.0,1.0,0.0,2.0,-3.0,0.0,1.0,-1.0,0.05460000038146973
26,3.0,10.0,-7.0,-9659.0,3424.0,7815.0,-10117.0,0.0,1.0,-1.0,-3.0,-1.0,-2.0,0.0,-1.0,0.05638003349304199
27,3.0,10.0,-7.0,-9659.0,3424.0,7815.0,-10117.0,-1.0,-3.0,-1.0,2.0,-2.0,-2.0,-1.0,-1.0,0.05810213088989258
28,3.0,8.0,-10.0,-9658.0,3425.0,7816.0,-10117.0,-1.0,-3.0,-1.0,2.0,-2.0,-2.0,-1.0,-1.0,0.05986833572387695
29,3.0,8.0,-10.0,-9658.0,3425.0,7816.0,-10117.0,-2.0,0.0,0.0,-2.0,1.0,-2.0,-1.0,-3.0,0.061652421951293945
30,3.0,8.0,-10.0,-9658.0,3425.0,7816.0,-10117.0,-2.0,-1.0,0.0,0.0,-1.0,0.0,-2.0,-1.0,0.06336760520935059
31,1.0,10.0,-10.0,-9658.0,3425.0,7816.0,-10117.0,-2.0,-1.0,0.0,0.0,-1.0,0.0,-2.0,-1.0,0.06507349014282227
32,1.0,10.0,-10.0,-9658.0,3425.0,7816.0,-10117.0,0.0,-2.0,-1.0,-2.0,2.0,1.0,0.0,0.0,0.06685709953308105
33,1.0,10.0,-10.0,-9658.0,3425.0,7816.0,-10117.0,1.0,-1.0,0.0,-1.0,2.0,-2.0,-2.0,-2.0,0.06855392456054688
34,11.0,7.0,-8.0,-9658.0,3426.0,7816.0,-10117.0,1.0,-1.0,0.0,-1.0,2.0,-2.0,-2.0,-2.0,0.07026553153991699
35,11.0,7.0,-8.0,-9658.0,3426.0,7816.0,-10117.0,0.0,-2.0,0.0,0.0,-3.0,-1.0,-2.0,-2.0,0.07207489013671875
36,11.0,7.0,-8.0,-9658.0,3426.0,7816.0,-10117.0,-2.0,1.0,0.0,-3.0,0.0,1.0,0.0,2.0,0.07380247116088867
37,3.0,9.0,-13.0,-9658.0,3426.0,7816.0,-10117.0,-2.0,1.0,0.0,-3.0,0.0,1.0,0.0,2.0,0.07552409172058105
38,3.0,9.0,-13.0,-9658.0,3426.0,7816.0,-10117.0,-1.0,-1.0,-2.0,0.0,-3.0,-2.0,-2.0,-1.0,0.07729840278625488
39,3.0,9.0,-13.0,-9658.0,3426.0,7816.0,-10117.0,2.0,-1.0,0.0,0.0,-4.0,0.0,-2.0,-2.0,0.0790719985961914
40,11.0,10.0,-10.0,-9657.0,3427.0,7816.0,-10117.0,2.0,-1.0,0.0,0.0,-4.0,0.0,-2.0,-2.0,0.08077406883239746
41,11.0,10.0,-10.0,-9657.0,3427.0,7816.0,-10117.0,-1.0,-1.0,0.0,-2.0,0.0,-2.0,-3.0,0.0,0.08256077766418457
42,11.0,10.0,-10.0,-9657.0,3427.0,7816.0,-10117.0,1.0,2.0,0.0,-1.0,-1.0,-3.0,0.0,-1.0,0.08425426483154297
43,7.0,6.0,-10.0,-9657.0,3427.0,7816.0,-10117.0,1.0,2.0,0.0,-1.0,-1.0,-3.0,0.0,-1.0,0.0859534740447998
44,7.0,6.0,-10.0,-9657.0,3427.0,7816.0,-10117.0,0.0,-2.0,0.0,-1.0,1.0,1.0,-2.0,-1.0,0.08773469924926758
45,7.0,6.0,-10.0,-9657.0,3427.0,7816.0,-10117.0,0.0,0.0,0.0,0.0,0.0,0.0,0.0,0.0,0.08947086334228516
46,-3.0,5.0,-9.0,-9657.0,3428.0,7816.0,-10117.0,0.0,0.0,0.0,0.0,0.0,0.0,0.0,0.0,0.09125781059265137
47,-3.0,5.0,-9.0,-9657.0,3428.0,7816.0,-10117.0,0.0,-1.0,0.0,2.0,-2.0,1.0,-1.0,-1.0,0.0930330753326416
48,-3.0,5.0,-9.0,-9657.0,3428.0,7816.0,-10117.0,-2.0,-2.0,-1.0,-4.0,-2.0,-3.0,0.0,0.0,0.09473776817321777
49,15.0,3.0,-14.0,-9657.0,3428.0,7816.0,-10117.0,-2.0,-2.0,-1.0,-4.0,-2.0,-3.0,0.0,0.0,0.0964968204498291
50,15.0,3.0,-14.0,-9657.0,3428.0,7816.0,-10117.0,1.0,-1.0,-2.0,0.0,-1.0,-2.0,0.0,1.0,0.0983576774597168
51,15.0,3.0,-14.0,-9657.0,3428.0,7816.0,-10117.0,-2.0,1.0,-3.0,-1.0,0.0,-1.0,1.0,1.0,0.10008978843688965
52,3.0,1.0,-19.0,-9659.0,3427.0,7816.0,-10116.0,-2.0,1.0,-3.0,-1.0,0.0,-1.0,1.0,1.0,0.10179829597473145
53,3.0,1.0,-19.0,-9659.0,3427.0,7816.0,-10116.0,0.0,1.0,-1.0,-2.0,-1.0,0.0,-1.0,-2.0,0.10362672805786133
54,3.0,1.0,-19.0,-9659.0,3427.0,7816.0,-10116.0,-1.0,-3.0,-1.0,2.0,0.0,0.0,-2.0,-1.0,0.10535860061645508
55,6.0,1.0,-17.0,-9660.0,3426.0,7816.0,-10115.0,-1.0,-3.0,-1.0,2.0,0.0,0.0,-2.0,-1.0,0.10707449913024902
56,6.0,1.0,-17.0,-9660.0,3426.0,7816.0,-10115.0,0.0,-4.0,-3.0,3.0,-3.0,-2.0,2.0,-3.0,0.10885238647460938
57,6.0,1.0,-17.0,-9660.0,3426.0,7816.0,-10115.0,0.0,-2.0,-2.0,-1.0,-5.0,-3.0,-2.0,1.0,0.11058568954467773
58,20.0,1.0,-18.0,-9662.0,3424.0,7814.0,-10115.0,0.0,-2.0,-2.0,-1.0,-5.0,-3.0,-2.0,1.0,0.11229205131530762
59,20.0,1.0,-18.0,-9662.0,3424.0,7814.0,-10115.0,-1.0,0.0,-2.0,-3.0,0.0,0.0,0.0,-2.0,0.11447334289550781
60,20.0,1.0,-18.0,-9662.0,3424.0,7814.0,-10115.0,-3.0,1.0,-1.0,-3.0,-1.0,0.0,-2.0,-1.0,0.11646342277526855
61,23.0,-1.0,-19.0,-9663.0,3422.0,7813.0,-10115.0,-3.0,1.0,-1.0,-3.0,-1.0,0.0,-2.0,-1.0,0.1184394359588623
62,23.0,-1.0,-19.0,-9663.0,3422.0,7813.0,-10115.0,-1.0,-2.0,1.0,-2.0,-2.0,-1.0,-1.0,0.0,0.12026047706604004
63,23.0,-1.0,-19.0,-9663.0,3422.0,7813.0,-10115.0,1.0,0.0,0.0,0.0,2.0,2.0,-2.0,0.0,0.12200641632080078
64,13.0,-2.0,-18.0,-9664.0,3421.0,7812.0,-10115.0,1.0,0.0,0.0,0.0,2.0,2.0,-2.0,0.0,0.12385225296020508
65,13.0,-2.0,-18.0,-9664.0,3421.0,7812.0,-10115.0,-1.0,2.0,-1.0,0.0,-2.0,-1.0,-1.0,0.0,0.12572550773620605
66,13.0,-2.0,-18.0,-9664.0,3421.0,7812.0,-10115.0,0.0,-1.0,-1.0,-1.0,1.0,-1.0,0.0,1.0,0.12749934196472168
67,13.0,-1.0,-17.0,-9666.0,3420.0,7811.0,-10115.0,0.0,-1.0,-1.0,-1.0,1.0,-1.0,0.0,1.0,0.12922072410583496
68,13.0,-1.0,-17.0,-9666.0,3420.0,7811.0,-10115.0,-2.0,-2.0,-1.0,1.0,-4.0,-1.0,-3.0,0.0,0.13105273246765137
69,13.0,-1.0,-17.0,-9666.0,3420.0,7811.0,-10115.0,2.0,-1.0,-2.0,-1.0,0.0,-2.0,-1.0,-2.0,0.13276386260986328
70,12.0,-1.0,-19.0,-9667.0,3419.0,7811.0,-10114.0,2.0,-1.0,-2.0,-1.0,0.0,-2.0,-1.0,-2.0,0.1348552703857422
71,12.0,-1.0,-19.0,-9667.0,3419.0,7811.0,-10114.0,-1.0,-2.0,2.0,0.0,1.0,-1.0,0.0,0.0,0.13703203201293945
72,12.0,-1.0,-19.0,-9667.0,3419.0,7811.0,-10114.0,-3.0,-1.0,-2.0,0.0,-1.0,0.0,-1.0,-2.0,0.13884186744689941
73,11.0,-1.0,-20.0,-9668.0,3418.0,7810.0,-10114.0,-3.0,-1.0,-2.0,0.0,-1.0,0.0,-1.0,-2.0,0.14059805870056152
74,11.0,-1.0,-20.0,-9668.0,3418.0,7810.0,-10114.0,2.0,-3.0,1.0,-2.0,-3.0,-2.0,0.0,-2.0,0.14243102073669434
75,11.0,-1.0,-20.0,-9668.0,3418.0,7810.0,-10114.0,1.0,0.0,-1.0,-2.0,0.0,-1.0,0.0,0.0,0.14414501190185547
76,25.0,-4.0,-19.0,-9670.0,3415.0,7809.0,-10114.0,1.0,0.0,-1.0,-2.0,0.0,-1.0,0.0,0.0,0.14585638046264648
77,25.0,-4.0,-19.0,-9670.0,3415.0,7809.0,-10114.0,0.0,-1.0,0.0,0.0,1.0,0.0,1.0,1.0,0.14769196510314941
78,25.0,-4.0,-19.0,-9670.0,3415.0,7809.0,-10114.0,1.0,-2.0,1.0,-1.0,-1.0,0.0,1.0,-1.0,0.1493971347808838
79,21.0,-7.0,-22.0,-9672.0,3411.0,7808.0,-10114.0,1.0,-2.0,1.0,-1.0,-1.0,0.0,1.0,-1.0,0.1511826515197754
80,21.0,-7.0,-22.0,-9672.0,3411.0,7808.0,-10114.0,0.0,0.0,-2.0,-1.0,1.0,-3.0,1.0,0.0,0.15296268463134766
81,21.0,-7.0,-22.0,-9672.0,3411.0,7808.0,-10114.0,-3.0,1.0,1.0,-4.0,-1.0,0.0,2.0,0.0,0.15471100807189941
82,10.0,-7.0,-19.0,-9673.0,3409.0,7810.0,-10113.0,-3.0,1.0,1.0,-4.0,-1.0,0.0,2.0,0.0,0.15641307830810547
83,10.0,-7.0,-19.0,-9673.0,3409.0,7810.0,-10113.0,-1.0,-1.0,-1.0,0.0,-2.0,0.0,-1.0,-1.0,0.15818095207214355
84,10.0,-7.0,-19.0,-9673.0,3409.0,7810.0,-10113.0,0.0,0.0,0.0,2.0,0.0,-2.0,-2.0,-1.0,0.1598987579345703
85,15.0,-8.0,-19.0,-9674.0,3407.0,7810.0,-10113.0,0.0,0.0,0.0,2.0,0.0,-2.0,-2.0,-1.0,0.16160011291503906
86,15.0,-8.0,-19.0,-9674.0,3407.0,7810.0,-10113.0,0.0,1.0,-1.0,-1.0,0.0,-1.0,0.0,-2.0,0.16338324546813965
87,15.0,-8.0,-19.0,-9674.0,3407.0,7810.0,-10113.0,-1.0,-2.0,0.0,0.0,0.0,0.0,-1.0,-1.0,0.16508269309997559
88,9.0,-8.0,-21.0,-9674.0,3405.0,7811.0,-10112.0,-1.0,-2.0,0.0,0.0,0.0,0.0,-1.0,-1.0,0.16682219505310059
89,9.0,-8.0,-21.0,-9674.0,3405.0,7811.0,-10112.0,-2.0,2.0,0.0,-2.0,-2.0,0.0,-2.0,1.0,0.1685943603515625
90,9.0,-8.0,-21.0,-9674.0,3405.0,7811.0,-10112.0,-1.0,0.0,1.0,0.0,-1.0,-2.0,0.0,-1.0,0.17032670974731445
91,18.0,-5.0,-21.0,-9675.0,3403.0,7809.0,-10112.0,-1.0,0.0,1.0,0.0,-1.0,-2.0,0.0,-1.0,0.17203068733215332
92,18.0,-5.0,-21.0,-9675.0,3403.0,7809.0,-10112.0,-1.0,-1.0,-1.0,-1.0,1.0,0.0,-1.0,0.0,0.17380046844482422
93,18.0,-5.0,-21.0,-9675.0,3403.0,7809.0,-10112.0,1.0,-2.0,0.0,1.0,1.0,1.0,-1.0,-1.0,0.1755073070526123
94,21.0,-3.0,-21.0,-9677.0,3402.0,7809.0,-10112.0,1.0,-2.0,0.0,1.0,1.0,1.0,-1.0,-1.0,0.17722702026367188
95,21.0,-3.0,-21.0,-9677.0,3402.0,7809.0,-10112.0,1.0,-3.0,-1.0,-3.0,-3.0,0.0,0.0,1.0,0.17900967597961426
96,21.0,-3.0,-21.0,-9677.0,3402.0,7809.0,-10112.0,-2.0,0.0,-2.0,-2.0,-3.0,-2.0,-1.0,0.0,0.18070507049560547
97,16.0,-10.0,-19.0,-9678.0,3399.0,7809.0,-10112.0,-2.0,0.0,-2.0,-2.0,-3.0,-2.0,-1.0,0.0,0.18241262435913086
98,16.0,-10.0,-19.0,-9678.0,3399.0,7809.0,-10112.0,0.0,0.0,-2.0,1.0,0.0,-2.0,-2.0,1.0,0.18417906761169434
99,16.0,-10.0,-19.0,-9678.0,3399.0,7809.0,-10112.0,-1.0,0.0,-1.0,-1.0,3.0,1.0,-1.0,-2.0,0.18590092658996582
100,14.0,-13.0,-17.0,-9678.0,3396.0,7809.0,-10113.0,-1.0,0.0,-1.0,-1.0,3.0,1.0,-1.0,-2.0,0.18761062622070312
101,14.0,-13.0,-17.0,-9678.0,3396.0,7809.0,-10113.0,1.0,-1.0,-2.0,0.0,1.0,-1.0,-2.0,0.0,0.18938183784484863
102,14.0,-13.0,-17.0,-9678.0,3396.0,7809.0,-10113.0,0.0,0.0,-2.0,2.0,2.0,4.0,0.0,0.0,0.19109249114990234
103,6.0,-12.0,-12.0,-9678.0,3396.0,7809.0,-10113.0,0.0,0.0,-2.0,2.0,2.0,4.0,0.0,0.0,0.1928093433380127
104,6.0,-12.0,-12.0,-9678.0,3396.0,7809.0,-10113.0,-1.0,0.0,-1.0,-2.0,0.0,1.0,0.0,-2.0,0.19461417198181152
105,6.0,-12.0,-12.0,-9678.0,3396.0,7809.0,-10113.0,-2.0,-4.0,0.0,-2.0,-2.0,-5.0,-1.0,-1.0,0.19631242752075195
106,10.0,-6.0,-7.0,-9678.0,3396.0,7809.0,-10113.0,-2.0,-4.0,0.0,-2.0,-2.0,-5.0,-1.0,-1.0,0.19801020622253418
107,10.0,-6.0,-7.0,-9678.0,3396.0,7809.0,-10113.0,-1.0,-3.0,3.0,1.0,-3.0,-1.0,-3.0,-1.0,0.19979286193847656
108,10.0,-6.0,-7.0,-9678.0,3396.0,7809.0,-10113.0,0.0,1.0,0.0,0.0,-1.0,-2.0,1.0,1.0,0.20151352882385254
109,-6.0,-3.0,-6.0,-9678.0,3397.0,7809.0,-10113.0,0.0,1.0,0.0,0.0,-1.0,-2.0,1.0,1.0,0.20322537422180176
110,-6.0,-3.0,-6.0,-9678.0,3397.0,7809.0,-10113.0,-2.0,-3.0,-1.0,-3.0,-2.0,-2.0,-4.0,-2.0,0.20499539375305176
111,-6.0,-3.0,-6.0,-9678.0,3397.0,7809.0,-10113.0,-2.0,0.0,-4.0,0.0,-3.0,1.0,0.0,-1.0,0.20673656463623047
112,-8.0,-1.0,-7.0,-9677.0,3397.0,7810.0,-10113.0,-2.0,0.0,-4.0,0.0,-3.0,1.0,0.0,-1.0,0.20846199989318848
113,-8.0,-1.0,-7.0,-9677.0,3397.0,7810.0,-10113.0,1.0,1.0,-1.0,0.0,0.0,-2.0,-1.0,0.0,0.2102358341217041
114,-8.0,-1.0,-7.0,-9677.0,3397.0,7810.0,-10113.0,0.0,-1.0,1.0,0.0,0.0,-2.0,-3.0,-1.0,0.21193528175354004
115,-6.0,0.0,-7.0,-9677.0,3398.0,7810.0,-10113.0,0.0,-1.0,1.0,0.0,0.0,-2.0,-3.0,-1.0,0.21366333961486816
116,-6.0,0.0,-7.0,-9677.0,3398.0,7810.0,-10113.0,-2.0,1.0,-2.0,0.0,-1.0,-1.0,2.0,-2.0,0.21565747261047363
117,-6.0,0.0,-7.0,-9677.0,3398.0,7810.0,-10113.0,-2.0,-1.0,0.0,-1.0,-1.0,-2.0,-1.0,0.0,0.21756291389465332
118,6.0,0.0,-8.0,-9677.0,3398.0,7810.0,-10113.0,-2.0,-1.0,0.0,-1.0,-1.0,-2.0,-1.0,0.0,0.21938014030456543
119,6.0,0.0,-8.0,-9677.0,3398.0,7810.0,-10113.0,-1.0,-2.0,-2.0,-4.0,-3.0,-1.0,1.0,0.0,0.22117304801940918
120,6.0,0.0,-8.0,-9677.0,3398.0,7810.0,-10113.0,-2.0,0.0,-2.0,0.0,0.0,0.0,-1.0,0.0,0.22291994094848633
121,8.0,-3.0,-14.0,-9676.0,3399.0,7810.0,-10113.0,-2.0,0.0,-2.0,0.0,0.0,0.0,-1.0,0.0,0.22472143173217773
122,8.0,-3.0,-14.0,-9676.0,3399.0,7810.0,-10113.0,2.0,2.0,1.0,2.0,-2.0,-3.0,1.0,0.0,0.22654151916503906
123,8.0,-3.0,-14.0,-9676.0,3399.0,7810.0,-10113.0,-1.0,-1.0,0.0,-1.0,-6.0,-1.0,1.0,0.0,0.22824931144714355
124,7.0,-7.0,-20.0,-9677.0,3398.0,7810.0,-10112.0,-1.0,-1.0,0.0,-1.0,-6.0,-1.0,1.0,0.0,0.22995758056640625
125,7.0,-7.0,-20.0,-9677.0,3398.0,7810.0,-10112.0,0.0,-2.0,-2.0,-2.0,6.0,2.0,-1.0,0.0,0.23182082176208496
126,7.0,-7.0,-20.0,-9677.0,3398.0,7810.0,-10112.0,-2.0,0.0,-3.0,-2.0,1.0,0.0,-1.0,-2.0,0.2335524559020996
127,15.0,-12.0,-23.0,-9678.0,3394.0,7810.0,-10112.0,-2.0,0.0,-3.0,-2.0,1.0,0.0,-1.0,-2.0,0.2353038787841797
128,15.0,-12.0,-23.0,-9678.0,3394.0,7810.0,-10112.0,-1.0,-1.0,1.0,-2.0,-1.0,-2.0,-1.0,-1.0,0.23708534240722656
129,15.0,-12.0,-23.0,-9678.0,3394.0,7810.0,-10112.0,1.0,-1.0,-2.0,-1.0,1.0,-1.0,-2.0,-1.0,0.23881864547729492
130,8.0,-16.0,-24.0,-9679.0,3392.0,7812.0,-10111.0,1.0,-1.0,-2.0,-1.0,1.0,-1.0,-2.0,-1.0,0.2405242919921875
131,8.0,-16.0,-24.0,-9679.0,3392.0,7812.0,-10111.0,-3.0,0.0,-2.0,-2.0,-3.0,-2.0,-1.0,0.0,0.2423250675201416
132,8.0,-16.0,-24.0,-9679.0,3392.0,7812.0,-10111.0,-1.0,-1.0,0.0,-1.0,-3.0,1.0,-1.0,-1.0,0.24402976036071777
133,24.0,-21.0,-26.0,-9679.0,3387.0,7814.0,-10111.0,-1.0,-1.0,0.0,-1.0,-3.0,1.0,-1.0,-1.0,0.24586009979248047
134,24.0,-21.0,-26.0,-9679.0,3387.0,7814.0,-10111.0,2.0,-1.0,-1.0,-1.0,-3.0,-1.0,-1.0,0.0,0.24766016006469727
135,24.0,-21.0,-26.0,-9679.0,3387.0,7814.0,-10111.0,0.0,-3.0,0.0,-1.0,-1.0,0.0,-2.0,0.0,0.24936699867248535
136,30.0,-14.0,-29.0,-9681.0,3382.0,7814.0,-10111.0,0.0,-3.0,0.0,-1.0,-1.0,0.0,-2.0,0.0,0.2511100769042969
137,30.0,-14.0,-29.0,-9681.0,3382.0,7814.0,-10111.0,-1.0,-2.0,-1.0,0.0,1.0,2.0,2.0,-2.0,0.2528858184814453
138,30.0,-14.0,-29.0,-9681.0,3382.0,7814.0,-10111.0,2.0,-3.0,-1.0,0.0,1.0,-1.0,-1.0,0.0,0.254594087600708
139,40.0,-7.0,-33.0,-9684.0,3376.0,7813.0,-10111.0,2.0,-3.0,-1.0,0.0,1.0,-1.0,-1.0,0.0,0.2562990188598633
140,40.0,-7.0,-33.0,-9684.0,3376.0,7813.0,-10111.0,1.0,0.0,0.0,-4.0,1.0,0.0,1.0,-1.0,0.2580716609954834
141,40.0,-7.0,-33.0,-9684.0,3376.0,7813.0,-10111.0,0.0,0.0,2.0,0.0,-1.0,-4.0,0.0,0.0,0.25978541374206543
142,31.0,7.0,-33.0,-9688.0,3372.0,7812.0,-10108.0,0.0,0.0,2.0,0.0,-1.0,-4.0,0.0,0.0,0.26148223876953125
143,31.0,7.0,-33.0,-9688.0,3372.0,7812.0,-10108.0,-3.0,0.0,0.0,-1.0,1.0,0.0,0.0,-2.0,0.26326465606689453
144,31.0,7.0,-33.0,-9688.0,3372.0,7812.0,-10108.0,2.0,0.0,-2.0,-2.0,-3.0,-3.0,0.0,0.0,0.26495909690856934
145,30.0,15.0,-32.0,-9693.0,3369.0,7811.0,-10106.0,2.0,0.0,-2.0,-2.0,-3.0,-3.0,0.0,0.0,0.26670217514038086
146,30.0,15.0,-32.0,-9693.0,3369.0,7811.0,-10106.0,-1.0,-2.0,-2.0,-1.0,1.0,-1.0,-4.0,-1.0,0.2684750556945801
147,30.0,15.0,-32.0,-9693.0,3369.0,7811.0,-10106.0,-1.0,-2.0,0.0,-2.0,0.0,1.0,-1.0,-1.0,0.2701761722564697
148,31.0,20.0,-26.0,-9697.0,3368.0,7809.0,-10104.0,-1.0,-2.0,0.0,-2.0,0.0,1.0,-1.0,-1.0,0.2718842029571533
149,31.0,20.0,-26.0,-9697.0,3368.0,7809.0,-10104.0,1.0,0.0,-1.0,1.0,-3.0,-1.0,0.0,0.0,0.27366042137145996
150,31.0,20.0,-26.0,-9697.0,3368.0,7809.0,-10104.0,1.0,2.0,0.0,-4.0,0.0,1.0,-3.0,-2.0,0.27536797523498535
151,19.0,14.0,-16.0,-9699.0,3368.0,7807.0,-10103.0,1.0,2.0,0.0,-4.0,0.0,1.0,-3.0,-2.0,0.277071475982666
152,19.0,14.0,-16.0,-9699.0,3368.0,7807.0,-10103.0,0.0,0.0,-1.0,0.0,1.0,0.0,-1.0,0.0,0.2788574695587158
153,19.0,14.0,-16.0,-9699.0,3368.0,7807.0,-10103.0,-3.0,0.0,-1.0,1.0,-1.0,-1.0,0.0,-1.0,0.2805638313293457
154,27.0,13.0,-16.0,-9702.0,3367.0,7804.0,-10103.0,-3.0,0.0,-1.0,1.0,-1.0,-1.0,0.0,-1.0,0.28229856491088867
155,27.0,13.0,-16.0,-9702.0,3367.0,7804.0,-10103.0,1.0,0.0,1.0,1.0,-1.0,-1.0,-2.0,1.0,0.2840766906738281
156,27.0,13.0,-16.0,-9702.0,3367.0,7804.0,-10103.0,1.0,-1.0,-2.0,-1.0,-1.0,-3.0,-3.0,1.0,0.2857699394226074
157,35.0,16.0,-16.0,-9705.0,3367.0,7799.0,-10105.0,1.0,-1.0,-2.0,-1.0,-1.0,-3.0,-3.0,1.0,0.28748273849487305
158,35.0,16.0,-16.0,-9705.0,3367.0,7799.0,-10105.0,-2.0,-1.0,-2.0,-1.0,1.0,-1.0,0.0,-1.0,0.28925013542175293
159,35.0,16.0,-16.0,-9705.0,3367.0,7799.0,-10105.0,-1.0,1.0,1.0,0.0,-1.0,-3.0,0.0,-3.0,0.2910752296447754
160,30.0,17.0,-12.0,-9707.0,3367.0,7794.0,-10106.0,-1.0,1.0,1.0,0.0,-1.0,-3.0,0.0,-3.0,0.29287171363830566
161,30.0,17.0,-12.0,-9707.0,3367.0,7794.0,-10106.0,0.0,-1.0,-2.0,0.0,0.0,0.0,-1.0,-2.0,0.2946610450744629
162,30.0,17.0,-12.0,-9707.0,3367.0,7794.0,-10106.0,-1.0,-1.0,-3.0,-1.0,-1.0,0.0,1.0,-1.0,0.29636335372924805
163,34.0,28.0,-14.0,-9711.0,3367.0,7789.0,-10106.0,-1.0,-1.0,-3.0,-1.0,-1.0,0.0,1.0,-1.0,0.2981259822845459
164,34.0,28.0,-14.0,-9711.0,3367.0,7789.0,-10106.0,0.0,-1.0,0.0,-2.0,1.0,1.0,-2.0,-1.0,0.3000161647796631
165,34.0,28.0,-14.0,-9711.0,3367.0,7789.0,-10106.0,0.0,-2.0,0.0,-1.0,-2.0,-2.0,0.0,0.0,0.30171895027160645
166,24.0,40.0,-17.0,-9717.0,3368.0,7783.0,-10105.0,0.0,-2.0,0.0,-1.0,-2.0,-2.0,0.0,0.0,0.3034632205963135
167,24.0,40.0,-17.0,-9717.0,3368.0,7783.0,-10105.0,-2.0,-2.0,-1.0,-2.0,-3.0,0.0,-2.0,-2.0,0.3053317070007324
168,24.0,40.0,-17.0,-9717.0,3368.0,7783.0,-10105.0,0.0,-1.0,2.0,0.0,1.0,0.0,0.0,1.0,0.307086706161499
169,12.0,46.0,-10.0,-9721.0,3373.0,7777.0,-10104.0,0.0,-1.0,2.0,0.0,1.0,0.0,0.0,1.0,0.3087904453277588
170,12.0,46.0,-10.0,-9721.0,3373.0,7777.0,-10104.0,-2.0,0.0,-1.0,1.0,-2.0,-2.0,-1.0,0.0,0.3105790615081787
171,12.0,46.0,-10.0,-9721.0,3373.0,7777.0,-10104.0,-1.0,0.0,-2.0,-2.0,-2.0,0.0,0.0,-1.0,0.31234169006347656
172,2.0,49.0,-7.0,-9726.0,3379.0,7770.0,-10102.0,-1.0,0.0,-2.0,-2.0,-2.0,0.0,0.0,-1.0,0.31412696838378906
173,2.0,49.0,-7.0,-9726.0,3379.0,7770.0,-10102.0,-1.0,-2.0,1.0,-1.0,-1.0,-2.0,-2.0,-1.0,0.3160374164581299
174,2.0,49.0,-7.0,-9726.0,3379.0,7770.0,-10102.0,0.0,-1.0,1.0,-1.0,0.0,-1.0,-2.0,2.0,0.3177783489227295
175,-4.0,48.0,-5.0,-9730.0,3386.0,7764.0,-10101.0,0.0,-1.0,1.0,-1.0,0.0,-1.0,-2.0,2.0,0.31952452659606934
176,-4.0,48.0,-5.0,-9730.0,3386.0,7764.0,-10101.0,0.0,1.0,0.0,-3.0,-3.0,1.0,-2.0,0.0,0.3216235637664795
177,45.0,11.0,20.0,-9731.0,3385.0,7751.0,-10110.0,0.0,1.0,0.0,-3.0,-3.0,1.0,-2.0,0.0,0.32363414764404297
178,45.0,11.0,20.0,-9731.0,3385.0,7751.0,-10110.0,0.0,0.0,1.0,0.0,0.0,-1.0,-1.0,-1.0,0.3255136013031006
179,45.0,11.0,20.0,-9731.0,3385.0,7751.0,-10110.0,-1.0,-2.0,1.0,2.0,-1.0,-1.0,2.0,0.0,0.32729578018188477
180,-21.0,16.0,-3.0,-9733.0,3387.0,7752.0,-10107.0,-1.0,-2.0,1.0,2.0,-1.0,-1.0,2.0,0.0,0.329024076461792
181,-21.0,16.0,-3.0,-9733.0,3387.0,7752.0,-10107.0,-1.0,-3.0,0.0,2.0,0.0,-2.0,2.0,0.0,0.34305882453918457
182,-21.0,16.0,-3.0,-9733.0,3387.0,7752.0,-10107.0,1.0,2.0,-3.0,1.0,-1.0,-1.0,-2.0,-1.0,0.34594154357910156
183,-51.0,30.0,-11.0,-9734.0,3396.0,7755.0,-10101.0,1.0,2.0,-3.0,1.0,-1.0,-1.0,-2.0,-1.0,0.35142087936401367
184,-51.0,30.0,-11.0,-9734.0,3396.0,7755.0,-10101.0,-3.0,0.0,-1.0,0.0,-3.0,0.0,1.0,-1.0,0.35440874099731445
185,-51.0,30.0,-11.0,-9734.0,3396.0,7755.0,-10101.0,0.0,-2.0,-1.0,-1.0,0.0,-1.0,-1.0,0.0,0.3577866554260254
186,-43.0,22.0,-7.0,-9733.0,3405.0,7758.0,-10096.0,0.0,-2.0,-1.0,-1.0,0.0,-1.0,-1.0,0.0,0.3740079402923584
187,-43.0,22.0,-7.0,-9733.0,3405.0,7758.0,-10096.0,1.0,1.0,-1.0,1.0,0.0,-1.0,1.0,2.0,0.3773624897003174
188,-43.0,22.0,-7.0,-9733.0,3405.0,7758.0,-10096.0,-2.0,-1.0,-1.0,-1.0,-5.0,-4.0,-2.0,0.0,0.3806772232055664
189,-34.0,10.0,-3.0,-9732.0,3412.0,7762.0,-10092.0,-2.0,-1.0,-1.0,-1.0,-5.0,-4.0,-2.0,0.0,0.38801050186157227
190,-34.0,10.0,-3.0,-9732.0,3412.0,7762.0,-10092.0,-2.0,-2.0,0.0,3.0,-2.0,-4.0,-1.0,-1.0,0.3956773281097412
191,-34.0,10.0,-3.0,-9732.0,3412.0,7762.0,-10092.0,-2.0,-2.0,0.0,-2.0,1.0,-1.0,0.0,-1.0,0.39739465713500977
192,-35.0,3.0,-3.0,-9729.0,3419.0,7766.0,-10089.0,-2.0,-2.0,0.0,-2.0,1.0,-1.0,0.0,-1.0,0.41137242317199707
193,-35.0,3.0,-3.0,-9729.0,3419.0,7766.0,-10089.0,2.0,-1.0,0.0,1.0,-6.0,-2.0,-1.0,-1.0,0.41485095024108887
194,-35.0,3.0,-3.0,-9729.0,3419.0,7766.0,-10089.0,-1.0,-1.0,-2.0,-2.0,-1.0,-1.0,-2.0,-2.0,0.4180474281311035
195,-16.0,4.0,-4.0,-9729.0,3419.0,7766.0,-10089.0,-1.0,-1.0,-2.0,-2.0,-1.0,-1.0,-2.0,-2.0,0.4428391456604004
196,-16.0,4.0,-4.0,-9729.0,3419.0,7766.0,-10089.0,-1.0,-1.0,-2.0,-2.0,1.0,1.0,1.0,1.0,0.446927547454834
197,-16.0,4.0,-4.0,-9729.0,3419.0,7766.0,-10089.0,-1.0,-1.0,1.0,0.0,2.0,-1.0,0.0,3.0,0.4507887363433838
198,-18.0,3.0,0.0,-9728.0,3423.0,7767.0,-10088.0,-1.0,-1.0,1.0,0.0,2.0,-1.0,0.0,3.0,0.4545326232910156
199,-18.0,3.0,0.0,-9728.0,3423.0,7767.0,-10088.0,0.0,1.0,1.0,-1.0,1.0,0.0,-1.0,-1.0,0.4632904529571533
200,-18.0,3.0,0.0,-9728.0,3423.0,7767.0,-10088.0,-1.0,-1.0,0.0,4.0,2.0,-1.0,-1.0,-3.0,0.4650096893310547
201,-25.0,-1.0,-5.0,-9726.0,3426.0,7771.0,-10086.0,-1.0,-1.0,0.0,4.0,2.0,-1.0,-1.0,-3.0,0.47081637382507324
202,-25.0,-1.0,-5.0,-9726.0,3426.0,7771.0,-10086.0,-1.0,0.0,-3.0,-1.0,1.0,1.0,-1.0,-2.0,0.4726529121398926
203,-25.0,-1.0,-5.0,-9726.0,3426.0,7771.0,-10086.0,-1.0,-1.0,-2.0,2.0,2.0,1.0,-1.0,-1.0,0.47743964195251465
204,-19.0,-2.0,-12.0,-9726.0,3429.0,7774.0,-10083.0,-1.0,-1.0,-2.0,2.0,2.0,1.0,-1.0,-1.0,0.5014545917510986
205,-19.0,-2.0,-12.0,-9726.0,3429.0,7774.0,-10083.0,1.0,-2.0,-3.0,-1.0,-2.0,-3.0,-3.0,-2.0,0.5042991638183594
206,-19.0,-2.0,-12.0,-9726.0,3429.0,7774.0,-10083.0,-1.0,1.0,-1.0,-5.0,-8.0,2.0,0.0,-1.0,0.5076415538787842
207,-18.0,-2.0,-11.0,-9725.0,3432.0,7777.0,-10081.0,-1.0,1.0,-1.0,-5.0,-8.0,2.0,0.0,-1.0,0.5109546184539795
208,-18.0,-2.0,-11.0,-9725.0,3432.0,7777.0,-10081.0,1.0,-1.0,2.0,2.0,0.0,-2.0,-1.0,-1.0,0.5163426399230957
209,-18.0,-2.0,-11.0,-9725.0,3432.0,7777.0,-10081.0,-1.0,-2.0,2.0,-1.0,-2.0,1.0,-1.0,-2.0,0.5181663036346436
210,-2.0,11.0,-15.0,-9724.0,3433.0,7777.0,-10081.0,-1.0,-2.0,2.0,-1.0,-2.0,1.0,-1.0,-2.0,0.5312557220458984
211,-2.0,11.0,-15.0,-9724.0,3433.0,7777.0,-10081.0,-2.0,-2.0,1.0,0.0,0.0,-4.0,-2.0,0.0,0.5347452163696289
212,-2.0,11.0,-15.0,-9724.0,3433.0,7777.0,-10081.0,0.0,-2.0,0.0,-1.0,-1.0,1.0,0.0,-2.0,0.5376491546630859
213,0.0,13.0,-7.0,-9724.0,3433.0,7777.0,-10081.0,0.0,-2.0,0.0,-1.0,-1.0,1.0,0.0,-2.0,0.5546152591705322
214,0.0,13.0,-7.0,-9724.0,3433.0,7777.0,-10081.0,-1.0,0.0,-2.0,-3.0,0.0,3.0,1.0,-1.0,0.557842493057251
215,0.0,13.0,-7.0,-9724.0,3433.0,7777.0,-10081.0,-1.0,-1.0,-3.0,0.0,0.0,-3.0,0.0,0.0,0.5609538555145264
216,3.0,5.0,-11.0,-9724.0,3433.0,7778.0,-10080.0,-1.0,-1.0,-3.0,0.0,0.0,-3.0,0.0,0.0,0.5772607326507568
217,3.0,5.0,-11.0,-9724.0,3433.0,7778.0,-10080.0,1.0,0.0,-1.0,-1.0,-3.0,-2.0,0.0,-1.0,0.5804922580718994
218,3.0,5.0,-11.0,-9724.0,3433.0,7778.0,-10080.0,-1.0,-1.0,-1.0,0.0,-3.0,0.0,0.0,0.0,0.5835669040679932
219,-11.0,-4.0,-13.0,-9723.0,3434.0,7778.0,-10081.0,-1.0,-1.0,-1.0,0.0,-3.0,0.0,0.0,0.0,0.5913758277893066
220,-11.0,-4.0,-13.0,-9723.0,3434.0,7778.0,-10081.0,0.0,-1.0,0.0,-1.0,5.0,0.0,-1.0,-1.0,0.5934352874755859
221,-11.0,-4.0,-13.0,-9723.0,3434.0,7778.0,-10081.0,-1.0,0.0,1.0,-3.0,-2.0,0.0,1.0,-2.0,0.5972437858581543
222,-1.0,-14.0,-16.0,-9723.0,3435.0,7778.0,-10081.0,-1.0,0.0,1.0,-3.0,-2.0,0.0,1.0,-2.0,0.6140220165252686
223,-1.0,-14.0,-16.0,-9723.0,3435.0,7778.0,-10081.0,-2.0,-1.0,-2.0,-1.0,-1.0,-1.0,0.0,1.0,0.6169579029083252
224,-1.0,-14.0,-16.0,-9723.0,3435.0,7778.0,-10081.0,1.0,0.0,-2.0,-2.0,-3.0,-2.0,0.0,1.0,0.6198468208312988
225,-22.0,-2.0,-17.0,-9722.0,3438.0,7782.0,-10077.0,1.0,0.0,-2.0,-2.0,-3.0,-2.0,0.0,1.0,0.6277883052825928
226,-22.0,-2.0,-17.0,-9722.0,3438.0,7782.0,-10077.0,-1.0,0.0,2.0,-1.0,-3.0,-1.0,-1.0,-2.0,0.6359567642211914
227,-22.0,-2.0,-17.0,-9722.0,3438.0,7782.0,-10077.0,-1.0,-4.0,-1.0,0.0,-2.0,-4.0,-3.0,-3.0,0.6380565166473389
228,-18.0,5.0,-14.0,-9722.0,3442.0,7784.0,-10074.0,-1.0,-4.0,-1.0,0.0,-2.0,-4.0,-3.0,-3.0,0.651238203048706
229,-18.0,5.0,-14.0,-9722.0,3442.0,7784.0,-10074.0,0.0,2.0,-2.0,-2.0,0.0,-1.0,1.0,0.0,0.6547958850860596
230,-18.0,5.0,-14.0,-9722.0,3442.0,7784.0,-10074.0,-2.0,0.0,-1.0,0.0,0.0,0.0,-3.0,-1.0,0.6583774089813232
231,-9.0,18.0,-18.0,-9724.0,3444.0,7785.0,-10070.0,-2.0,0.0,-1.0,0.0,0.0,0.0,-3.0,-1.0,0.6736798286437988
232,-9.0,18.0,-18.0,-9724.0,3444.0,7785.0,-10070.0,1.0,-1.0,0.0,1.0,-2.0,-2.0,-1.0,1.0,0.676506519317627
233,-9.0,18.0,-18.0,-9724.0,3444.0,7785.0,-10070.0,2.0,0.0,-1.0,0.0,0.0,-1.0,0.0,1.0,0.6795961856842041
234,-36.0,15.0,-22.0,-9725.0,3450.0,7790.0,-10064.0,2.0,0.0,-1.0,0.0,0.0,-1.0,0.0,1.0,0.697930097579956
235,-36.0,15.0,-22.0,-9725.0,3450.0,7790.0,-10064.0,0.0,-2.0,-1.0,-1.0,-1.0,1.0,-2.0,-2.0,0.7020339965820312
236,-36.0,15.0,-22.0,-9725.0,3450.0,7790.0,-10064.0,0.0,1.0,0.0,-3.0,-5.0,-3.0,0.0,3.0,0.7058868408203125
237,-16.0,18.0,-14.0,-9726.0,3456.0,7790.0,-10061.0,0.0,1.0,0.0,-3.0,-5.0,-3.0,0.0,3.0,0.7191593647003174
238,-16.0,18.0,-14.0,-9726.0,3456.0,7790.0,-10061.0,0.0,-1.0,-1.0,0.0,-3.0,-2.0,-1.0,0.0,0.7226221561431885
239,-16.0,18.0,-14.0,-9726.0,3456.0,7790.0,-10061.0,3.0,0.0,-1.0,-1.0,2.0,-1.0,-2.0,4.0,0.7259020805358887
240,-26.0,11.0,-10.0,-9725.0,3462.0,7793.0,-10058.0,3.0,0.0,-1.0,-1.0,2.0,-1.0,-2.0,4.0,0.7349231243133545
241,-26.0,11.0,-10.0,-9725.0,3462.0,7793.0,-10058.0,-1.0,-2.0,0.0,2.0,-2.0,0.0,2.0,-3.0,0.7371935844421387
242,-26.0,11.0,-10.0,-9725.0,3462.0,7793.0,-10058.0,-2.0,-2.0,-2.0,0.0,1.0,0.0,-2.0,-3.0,0.7389426231384277
243,-9.0,18.0,-8.0,-9726.0,3466.0,7793.0,-10055.0,-2.0,-2.0,-2.0,0.0,1.0,0.0,-2.0,-3.0,0.747408390045166
244,-9.0,18.0,-8.0,-9726.0,3466.0,7793.0,-10055.0,-2.0,-1.0,-3.0,0.0,1.0,0.0,0.0,-1.0,0.7555608749389648
245,-9.0,18.0,-8.0,-9726.0,3466.0,7793.0,-10055.0,-2.0,-1.0,0.0,-2.0,-1.0,-2.0,-1.0,-3.0,0.7572720050811768
246,-11.0,17.0,-7.0,-9726.0,3471.0,7793.0,-10053.0,-2.0,-1.0,0.0,-2.0,-1.0,-2.0,-1.0,-3.0,0.7711904048919678
247,-11.0,17.0,-7.0,-9726.0,3471.0,7793.0,-10053.0,0.0,-1.0,0.0,0.0,0.0,0.0,1.0,0.0,0.7746703624725342
248,-11.0,17.0,-7.0,-9726.0,3471.0,7793.0,-10053.0,-3.0,1.0,-2.0,-1.0,-2.0,-2.0,0.0,-1.0,0.778073787689209
249,-20.0,11.0,-4.0,-9725.0,3477.0,7796.0,-10050.0,-3.0,1.0,-2.0,-1.0,-2.0,-2.0,0.0,-1.0,0.7951734066009521
250,-20.0,11.0,-4.0,-9725.0,3477.0,7796.0,-10050.0,-1.0,-1.0,-3.0,-3.0,0.0,1.0,-2.0,0.0,0.7986781597137451
251,-20.0,11.0,-4.0,-9725.0,3477.0,7796.0,-10050.0,0.0,0.0,1.0,0.0,3.0,1.0,-1.0,-1.0,0.8019676208496094
252,4.0,3.0,-1.0,-9725.0,3477.0,7796.0,-10050.0,0.0,0.0,1.0,0.0,3.0,1.0,-1.0,-1.0,0.8080692291259766
253,4.0,3.0,-1.0,-9725.0,3477.0,7796.0,-10050.0,0.0,-1.0,-2.0,-2.0,-2.0,-2.0,-2.0,1.0,0.833463191986084
254,4.0,3.0,-1.0,-9725.0,3477.0,7796.0,-10050.0,0.0,-1.0,-1.0,0.0,-1.0,-3.0,-2.0,-3.0,0.837111234664917
255,-12.0,2.0,-9.0,-9724.0,3478.0,7796.0,-10050.0,0.0,-1.0,-1.0,0.0,-1.0,-3.0,-2.0,-3.0,0.8406698703765869
256,-12.0,2.0,-9.0,-9724.0,3478.0,7796.0,-10050.0,-1.0,0.0,1.0,0.0,-2.0,0.0,-1.0,-1.0,0.8439886569976807
257,-12.0,2.0,-9.0,-9724.0,3478.0,7796.0,-10050.0,1.0,-1.0,-2.0,0.0,0.0,1.0,0.0,-1.0,0.8461365699768066
258,-19.0,12.0,-13.0,-9725.0,3481.0,7798.0,-10047.0,1.0,-1.0,-2.0,0.0,0.0,1.0,0.0,-1.0,0.8536841869354248
259,-19.0,12.0,-13.0,-9725.0,3481.0,7798.0,-10047.0,-1.0,-1.0,0.0,-2.0,1.0,-2.0,1.0,-1.0,0.8555319309234619
260,-19.0,12.0,-13.0,-9725.0,3481.0,7798.0,-10047.0,-1.0,-1.0,-1.0,-1.0,2.0,-1.0,0.0,0.0,0.8599898815155029
261,-6.0,20.0,-13.0,-9727.0,3485.0,7798.0,-10044.0,-1.0,-1.0,-1.0,-1.0,2.0,-1.0,0.0,0.0,0.8673994541168213
262,-6.0,20.0,-13.0,-9727.0,3485.0,7798.0,-10044.0,-1.0,-5.0,0.0,1.0,0.0,-2.0,-2.0,-1.0,0.8756613731384277
263,-6.0,20.0,-13.0,-9727.0,3485.0,7798.0,-10044.0,-1.0,-1.0,0.0,0.0,-2.0,0.0,0.0,1.0,0.8774702548980713
264,12.0,26.0,-10.0,-9729.0,3488.0,7794.0,-10043.0,-1.0,-1.0,0.0,0.0,-2.0,0.0,0.0,1.0,0.8909330368041992
265,12.0,26.0,-10.0,-9729.0,3488.0,7794.0,-10043.0,-1.0,3.0,-2.0,-2.0,0.0,0.0,0.0,0.0,0.8941490650177002
266,12.0,26.0,-10.0,-9729.0,3488.0,7794.0,-10043.0,-3.0,-1.0,-1.0,-3.0,-4.0,-1.0,1.0,-2.0,0.9058487415313721
267,7.0,21.0,-12.0,-9731.0,3491.0,7793.0,-10041.0,-3.0,-1.0,-1.0,-3.0,-4.0,-1.0,1.0,-2.0,0.9222986698150635
268,7.0,21.0,-12.0,-9731.0,3491.0,7793.0,-10041.0,-2.0,0.0,0.0,-1.0,-3.0,0.0,1.0,-2.0,0.925532341003418
269,7.0,21.0,-12.0,-9731.0,3491.0,7793.0,-10041.0,-2.0,-3.0,0.0,1.0,-2.0,-1.0,-1.0,1.0,0.9286954402923584
270,5.0,11.0,-10.0,-9731.0,3491.0,7794.0,-10041.0,-2.0,-3.0,0.0,1.0,-2.0,-1.0,-1.0,1.0,0.9320087432861328
271,5.0,11.0,-10.0,-9731.0,3491.0,7794.0,-10041.0,0.0,-2.0,-3.0,0.0,1.0,-1.0,-1.0,-2.0,0.9364302158355713
272,5.0,11.0,-10.0,-9731.0,3491.0,7794.0,-10041.0,0.0,2.0,1.0,-1.0,1.0,0.0,-1.0,-1.0,0.9382612705230713
273,6.0,3.0,-8.0,-9730.0,3492.0,7794.0,-10041.0,0.0,2.0,1.0,-1.0,1.0,0.0,-1.0,-1.0,0.9594736099243164
274,6.0,3.0,-8.0,-9730.0,3492.0,7794.0,-10041.0,0.0,-1.0,-2.0,-1.0,0.0,1.0,-2.0,-1.0,0.9629712104797363
275,6.0,3.0,-8.0,-9730.0,3492.0,7794.0,-10041.0,-1.0,-1.0,-3.0,-1.0,1.0,-1.0,-1.0,-3.0,0.9662988185882568
276,33.0,-10.0,-14.0,-9731.0,3488.0,7792.0,-10043.0,-1.0,-1.0,-3.0,-1.0,1.0,-1.0,-1.0,-3.0,0.9743649959564209
277,33.0,-10.0,-14.0,-9731.0,3488.0,7792.0,-10043.0,1.0,-2.0,-1.0,-1.0,-2.0,-2.0,-2.0,1.0,0.9768166542053223
278,33.0,-10.0,-14.0,-9731.0,3488.0,7792.0,-10043.0,0.0,0.0,0.0,-1.0,0.0,-1.0,-2.0,0.0,0.9799561500549316
279,-5.0,-11.0,-16.0,-9731.0,3488.0,7792.0,-10043.0,0.0,0.0,0.0,-1.0,0.0,-1.0,-2.0,0.0,0.996516227722168
280,-5.0,-11.0,-16.0,-9731.0,3488.0,7792.0,-10043.0,1.0,-1.0,0.0,0.0,-2.0,-1.0,0.0,-2.0,0.9985415935516357
281,-5.0,-11.0,-16.0,-9731.0,3488.0,7792.0,-10043.0,0.0,-1.0,-2.0,3.0,2.0,3.0,0.0,0.0,1.000269889831543
282,17.0,-6.0,-22.0,-9732.0,3486.0,7792.0,-10043.0,0.0,-1.0,-2.0,3.0,2.0,3.0,0.0,0.0,1.0111305713653564
283,17.0,-6.0,-22.0,-9732.0,3486.0,7792.0,-10043.0,-3.0,2.0,1.0,-1.0,0.0,-1.0,-3.0,-2.0,1.014143705368042
284,17.0,-6.0,-22.0,-9732.0,3486.0,7792.0,-10043.0,0.0,-1.0,0.0,0.0,2.0,0.0,-1.0,-1.0,1.0182394981384277
285,32.0,-1.0,-18.0,-9734.0,3483.0,7790.0,-10044.0,0.0,-1.0,0.0,0.0,2.0,0.0,-1.0,-1.0,1.033710241317749
286,32.0,-1.0,-18.0,-9734.0,3483.0,7790.0,-10044.0,0.0,-1.0,1.0,2.0,-5.0,0.0,0.0,3.0,1.0355536937713623
287,32.0,-1.0,-18.0,-9734.0,3483.0,7790.0,-10044.0,-2.0,-1.0,-2.0,-3.0,-2.0,-2.0,-2.0,0.0,1.0401496887207031
288,23.0,0.0,-19.0,-9737.0,3479.0,7789.0,-10044.0,-2.0,-1.0,-2.0,-3.0,-2.0,-2.0,-2.0,0.0,1.05625581741333
289,23.0,0.0,-19.0,-9737.0,3479.0,7789.0,-10044.0,0.0,2.0,-2.0,-5.0,1.0,0.0,0.0,0.0,1.058091163635254
290,23.0,0.0,-19.0,-9737.0,3479.0,7789.0,-10044.0,0.0,0.0,-1.0,1.0,-2.0,-4.0,-1.0,1.0,1.0602459907531738
291,11.0,2.0,-28.0,-9739.0,3477.0,7789.0,-10041.0,0.0,0.0,-1.0,1.0,-2.0,-4.0,-1.0,1.0,1.0712268352508545
292,11.0,2.0,-28.0,-9739.0,3477.0,7789.0,-10041.0,0.0,-3.0,0.0,-3.0,-4.0,-3.0,-2.0,0.0,1.074280023574829
293,11.0,2.0,-28.0,-9739.0,3477.0,7789.0,-10041.0,0.0,0.0,1.0,-1.0,0.0,1.0,0.0,-1.0,1.0781774520874023
294,16.0,-1.0,-21.0,-9741.0,3475.0,7789.0,-10040.0,0.0,0.0,1.0,-1.0,0.0,1.0,0.0,-1.0,1.0938446521759033
295,16.0,-1.0,-21.0,-9741.0,3475.0,7789.0,-10040.0,2.0,-1.0,0.0,0.0,1.0,-1.0,-2.0,0.0,1.0970585346221924
296,16.0,-1.0,-21.0,-9741.0,3475.0,7789.0,-10040.0,-1.0,-2.0,-1.0,-3.0,-3.0,-1.0,0.0,-3.0,1.101128101348877
297,12.0,1.0,-24.0,-9743.0,3473.0,7789.0,-10039.0,-1.0,-2.0,-1.0,-3.0,-3.0,-1.0,0.0,-3.0,1.1163160800933838
298,12.0,1.0,-24.0,-9743.0,3473.0,7789.0,-10039.0,-1.0,-4.0,-1.0,0.0,-1.0,-2.0,0.0,-3.0,1.118100881576538
299,12.0,1.0,-24.0,-9743.0,3473.0,7789.0,-10039.0,1.0,-2.0,-1.0,1.0,5.0,1.0,-3.0,0.0,1.1198809146881104
300,8.0,-4.0,-18.0,-9744.0,3472.0,7789.0,-10039.0,1.0,-2.0,-1.0,1.0,5.0,1.0,-3.0,0.0,1.13093900680542
301,8.0,-4.0,-18.0,-9744.0,3472.0,7789.0,-10039.0,-1.0,0.0,0.0,-1.0,0.0,-1.0,1.0,-1.0,1.1339600086212158
302,8.0,-4.0,-18.0,-9744.0,3472.0,7789.0,-10039.0,-1.0,1.0,-1.0,1.0,3.0,-2.0,1.0,-2.0,1.1404125690460205
303,17.0,-1.0,-23.0,-9746.0,3471.0,7789.0,-10037.0,-1.0,1.0,-1.0,1.0,3.0,-2.0,1.0,-2.0,1.1530628204345703
304,17.0,-1.0,-23.0,-9746.0,3471.0,7789.0,-10037.0,-4.0,0.0,-3.0,-2.0,2.0,4.0,-2.0,-1.0,1.1549296379089355
305,17.0,-1.0,-23.0,-9746.0,3471.0,7789.0,-10037.0,0.0,-1.0,-2.0,-1.0,0.0,-1.0,1.0,0.0,1.1608960628509521
306,25.0,12.0,-15.0,-9748.0,3470.0,7786.0,-10038.0,0.0,-1.0,-2.0,-1.0,0.0,-1.0,1.0,0.0,1.1770429611206055
307,25.0,12.0,-15.0,-9748.0,3470.0,7786.0,-10038.0,-1.0,1.0,-1.0,-1.0,0.0,-3.0,-1.0,-3.0,1.2025806903839111
308,25.0,12.0,-15.0,-9748.0,3470.0,7786.0,-10038.0,0.0,0.0,1.0,-2.0,-8.0,-2.0,-2.0,0.0,1.2068030834197998
309,22.0,30.0,-30.0,-9754.0,3469.0,7783.0,-10034.0,0.0,0.0,1.0,-2.0,-8.0,-2.0,-2.0,0.0,1.2107574939727783
310,22.0,30.0,-30.0,-9754.0,3469.0,7783.0,-10034.0,-1.0,-2.0,-1.0,0.0,0.0,0.0,-1.0,-2.0,1.212953805923462
311,22.0,30.0,-30.0,-9754.0,3469.0,7783.0,-10034.0,-2.0,0.0,1.0,-2.0,0.0,0.0,-1.0,-2.0,1.214672327041626
312,-66.0,45.0,5.0,-9754.0,3481.0,7791.0,-10024.0,-2.0,0.0,1.0,-2.0,0.0,0.0,-1.0,-2.0,1.2163918018341064
313,-66.0,45.0,5.0,-9754.0,3481.0,7791.0,-10024.0,0.0,0.0,-1.0,-1.0,-2.0,-4.0,-2.0,-2.0,1.218233346939087
314,-66.0,45.0,5.0,-9754.0,3481.0,7791.0,-10024.0,-2.0,-3.0,-1.0,0.0,-1.0,-3.0,-3.0,-3.0,1.2199461460113525
315,-149.0,20.0,62.0,-9745.0,3501.0,7806.0,-10015.0,-2.0,-3.0,-1.0,0.0,-1.0,-3.0,-3.0,-3.0,1.2354240417480469
316,-149.0,20.0,62.0,-9745.0,3501.0,7806.0,-10015.0,-2.0,3.0,-1.0,1.0,-2.0,11.0,-3.0,-3.0,1.2434883117675781
317,-149.0,20.0,62.0,-9745.0,3501.0,7806.0,-10015.0,-1.0,-2.0,-2.0,0.0,-1.0,3.0,5.0,0.0,1.2452168464660645
318,-200.0,24.0,130.0,-9722.0,3541.0,7821.0,-10011.0,-1.0,-2.0,-2.0,0.0,-1.0,3.0,5.0,0.0,1.2506465911865234
319,-200.0,24.0,130.0,-9722.0,3541.0,7821.0,-10011.0,1.0,0.0,1.0,-2.0,-1.0,-2.0,2.0,3.0,1.2524464130401611
320,-200.0,24.0,130.0,-9722.0,3541.0,7821.0,-10011.0,1.0,0.0,-1.0,-2.0,-3.0,7.0,-3.0,-3.0,1.2576656341552734
321,60.0,89.0,177.0,-9706.0,3568.0,7802.0,-10031.0,1.0,0.0,-1.0,-2.0,-3.0,7.0,-3.0,-3.0,1.2746334075927734
322,60.0,89.0,177.0,-9706.0,3568.0,7802.0,-10031.0,0.0,-1.0,0.0,0.0,-2.0,9.0,0.0,1.0,1.278374433517456
323,60.0,89.0,177.0,-9706.0,3568.0,7802.0,-10031.0,2.0,0.0,-2.0,-1.0,-4.0,-20.0,3.0,2.0,1.281933307647705
324,205.0,143.0,238.0,-9698.0,3582.0,7765.0,-10062.0,2.0,0.0,-2.0,-1.0,-4.0,-20.0,3.0,2.0,1.296483039855957
325,205.0,143.0,238.0,-9698.0,3582.0,7765.0,-10062.0,1.0,-1.0,-2.0,2.0,4.0,12.0,12.0,2.0,1.2984154224395752
326,205.0,143.0,238.0,-9698.0,3582.0,7765.0,-10062.0,0.0,-1.0,5.0,-6.0,-4.0,3.0,-4.0,-3.0,1.3014864921569824
327,320.0,249.0,413.0,-9685.0,3608.0,7702.0,-10114.0,0.0,-1.0,5.0,-6.0,-4.0,3.0,-4.0,-3.0,1.3109033107757568
328,320.0,249.0,413.0,-9685.0,3608.0,7702.0,-10114.0,-1.0,-4.0,-1.0,11.0,0.0,-4.0,-1.0,-2.0,1.3190953731536865
329,320.0,249.0,413.0,-9685.0,3608.0,7702.0,-10114.0,1.0,-1.0,-11.0,0.0,4.0,-16.0,-5.0,2.0,1.3219811916351318
330,361.0,380.0,602.0,-9666.0,3655.0,7615.0,-10182.0,1.0,-1.0,-11.0,0.0,4.0,-16.0,-5.0,2.0,1.3335587978363037
331,361.0,380.0,602.0,-9666.0,3655.0,7615.0,-10182.0,-2.0,0.0,21.0,1.0,-1.0,-12.0,-9.0,-2.0,1.3362939357757568
332,361.0,380.0,602.0,-9666.0,3655.0,7615.0,-10182.0,-2.0,0.0,12.0,-4.0,-7.0,-13.0,-12.0,-4.0,1.340954303741455
333,565.0,421.0,763.0,-9634.0,3708.0,7487.0,-10287.0,-2.0,0.0,12.0,-4.0,-7.0,-13.0,-12.0,-4.0,1.3573424816131592
334,565.0,421.0,763.0,-9634.0,3708.0,7487.0,-10287.0,-1.0,-5.0,-29.0,-4.0,-1.0,-15.0,-1.0,0.0,1.3607559204101562
335,565.0,421.0,763.0,-9634.0,3708.0,7487.0,-10287.0,-1.0,-1.0,-3.0,3.0,2.0,-7.0,-1.0,0.0,1.3641245365142822
336,914.0,429.0,877.0,-9601.0,3739.0,7313.0,-10431.0,-1.0,-1.0,-3.0,3.0,2.0,-7.0,-1.0,0.0,1.3710825443267822
337,914.0,429.0,877.0,-9601.0,3739.0,7313.0,-10431.0,-1.0,-1.0,-7.0,-4.0,-3.0,-7.0,-3.0,-1.0,1.3782947063446045
338,914.0,429.0,877.0,-9601.0,3739.0,7313.0,-10431.0,-1.0,-1.0,0.0,-1.0,5.0,29.0,2.0,0.0,1.3801124095916748
339,1194.0,444.0,1067.0,-9566.0,3744.0,7081.0,-10620.0,-1.0,-1.0,0.0,-1.0,5.0,29.0,2.0,0.0,1.3932991027832031
340,1194.0,444.0,1067.0,-9566.0,3744.0,7081.0,-10620.0,-2.0,2.0,5.0,-1.0,-10.0,-1.0,-2.0,-1.0,1.395148515701294
341,1194.0,444.0,1067.0,-9566.0,3744.0,7081.0,-10620.0,1.0,-2.0,0.0,3.0,-2.0,0.0,-2.0,-1.0,1.4001433849334717
342,796.0,528.0,1228.0,-9504.0,3804.0,6867.0,-10793.0,1.0,-2.0,0.0,3.0,-2.0,0.0,-2.0,-1.0,1.4175310134887695
343,796.0,528.0,1228.0,-9504.0,3804.0,6867.0,-10793.0,2.0,1.0,1.0,-4.0,1.0,-3.0,0.0,-3.0,1.420994758605957
344,796.0,528.0,1228.0,-9504.0,3804.0,6867.0,-10793.0,0.0,1.0,-5.0,0.0,1.0,4.0,0.0,1.0,1.4243032932281494
345,201.0,641.0,1317.0,-9407.0,3955.0,6701.0,-10927.0,0.0,1.0,-5.0,0.0,1.0,4.0,0.0,1.0,1.4382457733154297
346,201.0,641.0,1317.0,-9407.0,3955.0,6701.0,-10927.0,1.0,0.0,3.0,1.0,-4.0,-1.0,-1.0,0.0,1.4470734596252441
347,201.0,641.0,1317.0,-9407.0,3955.0,6701.0,-10927.0,-2.0,-1.0,-1.0,0.0,0.0,3.0,4.0,-1.0,1.450573205947876
348,-77.0,718.0,1184.0,-9313.0,4139.0,6571.0,-11019.0,-2.0,-1.0,-1.0,0.0,0.0,3.0,4.0,-1.0,1.4526188373565674
349,-77.0,718.0,1184.0,-9313.0,4139.0,6571.0,-11019.0,1.0,-1.0,2.0,0.0,0.0,1.0,2.0,-1.0,1.4544126987457275
350,-77.0,718.0,1184.0,-9313.0,4139.0,6571.0,-11019.0,-3.0,2.0,-1.0,0.0,-6.0,-5.0,0.0,-1.0,1.4951162338256836
351,-190.0,737.0,1102.0,-9223.0,4327.0,6459.0,-11088.0,-3.0,2.0,-1.0,0.0,-6.0,-5.0,0.0,-1.0,1.4991405010223389
352,-190.0,737.0,1102.0,-9223.0,4327.0,6459.0,-11088.0,-1.0,0.0,-4.0,-1.0,1.0,0.0,-1.0,-1.0,1.501105546951294
353,-190.0,737.0,1102.0,-9223.0,4327.0,6459.0,-11088.0,2.0,-3.0,-2.0,-1.0,2.0,0.0,-1.0,2.0,1.502854824066162
354,-103.0,755.0,982.0,-9150.0,4501.0,6341.0,-11147.0,2.0,-3.0,-2.0,-1.0,2.0,0.0,-1.0,2.0,1.5045585632324219
355,-103.0,755.0,982.0,-9150.0,4501.0,6341.0,-11147.0,1.0,1.0,0.0,-1.0,2.0,3.0,2.0,-1.0,1.5063817501068115
356,-103.0,755.0,982.0,-9150.0,4501.0,6341.0,-11147.0,1.0,-1.0,0.0,-1.0,0.0,-3.0,0.0,-3.0,1.5081217288970947
357,-45.0,743.0,841.0,-9096.0,4655.0,6221.0,-11195.0,1.0,-1.0,0.0,-1.0,0.0,-3.0,0.0,-3.0,1.513070821762085
358,-45.0,743.0,841.0,-9096.0,4655.0,6221.0,-11195.0,-1.0,-1.0,-1.0,-4.0,2.0,-2.0,-6.0,0.0,1.5149016380310059
359,-45.0,743.0,841.0,-9096.0,4655.0,6221.0,-11195.0,0.0,0.0,-1.0,2.0,-3.0,-1.0,1.0,4.0,1.5199847221374512
360,-177.0,625.0,649.0,-9050.0,4793.0,6135.0,-11222.0,0.0,0.0,-1.0,2.0,-3.0,-1.0,1.0,4.0,1.537095546722412
361,-177.0,625.0,649.0,-9050.0,4793.0,6135.0,-11222.0,0.0,-1.0,-2.0,1.0,3.0,1.0,-2.0,3.0,1.5401344299316406
362,-177.0,625.0,649.0,-9050.0,4793.0,6135.0,-11222.0,-1.0,0.0,1.0,-3.0,-5.0,-3.0,-2.0,1.0,1.5430209636688232
363,-307.0,408.0,487.0,-9002.0,4905.0,6097.0,-11233.0,-1.0,0.0,1.0,-3.0,-5.0,-3.0,-2.0,1.0,1.5510318279266357
364,-307.0,408.0,487.0,-9002.0,4905.0,6097.0,-11233.0,3.0,-2.0,-1.0,-1.0,0.0,-3.0,-2.0,5.0,1.558934211730957
365,-307.0,408.0,487.0,-9002.0,4905.0,6097.0,-11233.0,-6.0,-2.0,-3.0,-1.0,-1.0,0.0,-3.0,-5.0,1.5606467723846436
366,-346.0,240.0,315.0,-8958.0,4992.0,6096.0,-11230.0,-6.0,-2.0,-3.0,-1.0,-1.0,0.0,-3.0,-5.0,1.5731432437896729
367,-346.0,240.0,315.0,-8958.0,4992.0,6096.0,-11230.0,-5.0,-2.0,1.0,-2.0,-1.0,1.0,2.0,-8.0,1.5756897926330566
368,-346.0,240.0,315.0,-8958.0,4992.0,6096.0,-11230.0,-4.0,-2.0,-3.0,1.0,0.0,1.0,7.0,-3.0,1.588993787765503
369,-108.0,93.0,41.0,-8952.0,5021.0,6100.0,-11220.0,-4.0,-2.0,-3.0,1.0,0.0,1.0,7.0,-3.0,1.6131772994995117
370,-108.0,93.0,41.0,-8952.0,5021.0,6100.0,-11220.0,-1.0,0.0,-2.0,0.0,-1.0,0.0,6.0,1.0,1.6176087856292725
371,-108.0,93.0,41.0,-8952.0,5021.0,6100.0,-11220.0,2.0,0.0,-3.0,0.0,-2.0,-1.0,0.0,2.0,1.6218838691711426
372,52.0,-36.0,-225.0,-8979.0,4999.0,6110.0,-11203.0,2.0,0.0,-3.0,0.0,-2.0,-1.0,0.0,2.0,1.6244971752166748
373,52.0,-36.0,-225.0,-8979.0,4999.0,6110.0,-11203.0,0.0,0.0,-1.0,-1.0,0.0,-2.0,-4.0,0.0,1.62642502784729
374,52.0,-36.0,-225.0,-8979.0,4999.0,6110.0,-11203.0,1.0,-1.0,-2.0,1.0,4.0,1.0,-5.0,-1.0,1.628138780593872
375,28.0,-151.0,-442.0,-9023.0,4949.0,6148.0,-11168.0,1.0,-1.0,-2.0,1.0,4.0,1.0,-5.0,-1.0,1.697033166885376
376,28.0,-151.0,-442.0,-9023.0,4949.0,6148.0,-11168.0,0.0,1.0,0.0,1.0,-3.0,2.0,0.0,0.0,1.7011446952819824
377,28.0,-151.0,-442.0,-9023.0,4949.0,6148.0,-11168.0,1.0,-1.0,1.0,-1.0,0.0,0.0,1.0,0.0,1.7050564289093018
378,-4.0,-306.0,-598.0,-9076.0,4871.0,6215.0,-11123.0,1.0,-1.0,1.0,-1.0,0.0,0.0,1.0,0.0,1.7080769538879395
379,-4.0,-306.0,-598.0,-9076.0,4871.0,6215.0,-11123.0,0.0,-3.0,2.0,-3.0,-5.0,-3.0,2.0,-1.0,1.710066556930542
380,-4.0,-306.0,-598.0,-9076.0,4871.0,6215.0,-11123.0,0.0,1.0,1.0,1.0,-7.0,-2.0,-3.0,-2.0,1.7117953300476074
381,-4.0,-306.0,-598.0,-9076.0,4871.0,6215.0,-11123.0,-1.0,-4.0,0.0,-1.0,0.0,0.0,7.0,-4.0,1.7135303020477295
382,-4.0,-306.0,-598.0,-9076.0,4871.0,6215.0,-11123.0,0.0,0.0,-2.0,-1.0,6.0,1.0,-2.0,1.0,1.71531343460083
383,-18.0,-467.0,-1010.0,-9283.0,4552.0,6524.0,-10908.0,0.0,0.0,-2.0,-1.0,6.0,1.0,-2.0,1.0,1.7170274257659912
384,-18.0,-467.0,-1010.0,-9283.0,4552.0,6524.0,-10908.0,0.0,3.0,0.0,-1.0,4.0,-1.0,-9.0,2.0,1.7188196182250977
385,-18.0,-467.0,-1010.0,-9283.0,4552.0,6524.0,-10908.0,1.0,-1.0,2.0,1.0,3.0,2.0,-8.0,1.0,1.7224345207214355
386,-161.0,-475.0,-1126.0,-9374.0,4431.0,6648.0,-10805.0,1.0,-1.0,2.0,1.0,3.0,2.0,-8.0,1.0,1.7557110786437988
387,-161.0,-475.0,-1126.0,-9374.0,4431.0,6648.0,-10805.0,-1.0,-1.0,0.0,-2.0,2.0,1.0,-2.0,-4.0,1.7587707042694092
388,-161.0,-475.0,-1126.0,-9374.0,4431.0,6648.0,-10805.0,-2.0,2.0,-5.0,-3.0,0.0,2.0,-5.0,2.0,1.7616677284240723
389,-182.0,-458.0,-1246.0,-9476.0,4307.0,6782.0,-10682.0,-2.0,2.0,-5.0,-3.0,0.0,2.0,-5.0,2.0,1.7645647525787354
390,-182.0,-458.0,-1246.0,-9476.0,4307.0,6782.0,-10682.0,-2.0,1.0,-2.0,-3.0,3.0,2.0,-2.0,10.0,1.767301321029663
391,-182.0,-458.0,-1246.0,-9476.0,4307.0,6782.0,-10682.0,1.0,-1.0,-2.0,-1.0,0.0,0.0,7.0,-1.0,1.7763457298278809
392,-171.0,-476.0,-1282.0,-9581.0,4173.0,6914.0,-10556.0,1.0,-1.0,-2.0,-1.0,0.0,0.0,7.0,-1.0,1.7780873775482178
393,-171.0,-476.0,-1282.0,-9581.0,4173.0,6914.0,-10556.0,0.0,0.0,-1.0,2.0,2.0,1.0,0.0,-2.0,1.779980182647705
394,-171.0,-476.0,-1282.0,-9581.0,4173.0,6914.0,-10556.0,0.0,0.0,1.0,0.0,0.0,1.0,9.0,-2.0,1.781698226928711
395,-274.0,-480.0,-1340.0,-9687.0,4041.0,7060.0,-10413.0,0.0,0.0,1.0,0.0,0.0,1.0,9.0,-2.0,1.799593210220337
396,-274.0,-480.0,-1340.0,-9687.0,4041.0,7060.0,-10413.0,0.0,0.0,-2.0,-1.0,-3.0,-2.0,10.0,-4.0,1.8013896942138672
397,-274.0,-480.0,-1340.0,-9687.0,4041.0,7060.0,-10413.0,-1.0,0.0,1.0,-1.0,0.0,-1.0,6.0,-1.0,1.8031337261199951
398,-325.0,-477.0,-1434.0,-9799.0,3906.0,7213.0,-10253.0,-1.0,0.0,1.0,-1.0,0.0,-1.0,6.0,-1.0,1.8289227485656738
399,-325.0,-477.0,-1434.0,-9799.0,3906.0,7213.0,-10253.0,1.0,-1.0,3.0,-2.0,2.0,-1.0,8.0,1.0,1.8311529159545898
400,-325.0,-477.0,-1434.0,-9799.0,3906.0,7213.0,-10253.0,2.0,-2.0,-1.0,1.0,-2.0,-2.0,16.0,3.0,1.8342585563659668
401,-365.0,-496.0,-1607.0,-9923.0,3762.0,7374.0,-10072.0,2.0,-2.0,-1.0,1.0,-2.0,-2.0,16.0,3.0,1.8373286724090576
402,-365.0,-496.0,-1607.0,-9923.0,3762.0,7374.0,-10072.0,-3.0,1.0,-3.0,-1.0,-2.0,1.0,32.0,-5.0,1.8405535221099854
403,-365.0,-496.0,-1607.0,-9923.0,3762.0,7374.0,-10072.0,-2.0,-3.0,-2.0,-3.0,-4.0,1.0,32.0,1.0,1.8510146141052246
404,-442.0,-505.0,-1782.0,-10061.0,3607.0,7543.0,-9865.0,-2.0,-3.0,-2.0,-3.0,-4.0,1.0,32.0,1.0,1.859809160232544
405,-442.0,-505.0,-1782.0,-10061.0,3607.0,7543.0,-9865.0,0.0,1.0,-5.0,-1.0,3.0,4.0,-59.0,3.0,1.8629398345947266
406,-442.0,-505.0,-1782.0,-10061.0,3607.0,7543.0,-9865.0,2.0,-1.0,2.0,3.0,1.0,-3.0,-122.0,0.0,1.864922046661377
407,-1000.0,-29.0,-806.0,-10052.0,3731.0,7708.0,-9699.0,2.0,-1.0,2.0,3.0,1.0,-3.0,-122.0,0.0,1.8731951713562012
408,-1000.0,-29.0,-806.0,-10052.0,3731.0,7708.0,-9699.0,1.0,-2.0,3.0,4.0,-2.0,-6.0,-51.0,2.0,1.8750197887420654
409,-1000.0,-29.0,-806.0,-10052.0,3731.0,7708.0,-9699.0,-2.0,0.0,-2.0,-3.0,-2.0,-1.0,24.0,-3.0,1.8801417350769043
410,633.0,102.0,381.0,-10007.0,3773.0,7610.0,-9806.0,-2.0,0.0,-2.0,-3.0,-2.0,-1.0,24.0,-3.0,1.906026840209961
411,633.0,102.0,381.0,-10007.0,3773.0,7610.0,-9806.0,-1.0,-4.0,1.0,-1.0,-1.0,-1.0,57.0,-3.0,1.9104204177856445
412,633.0,102.0,381.0,-10007.0,3773.0,7610.0,-9806.0,-1.0,-3.0,-1.0,-1.0,-3.0,0.0,26.0,-2.0,1.9127812385559082
413,1540.0,178.0,381.0,-10030.0,3677.0,7412.0,-9969.0,-1.0,-3.0,-1.0,-1.0,-3.0,0.0,26.0,-2.0,1.91457200050354
414,1540.0,178.0,381.0,-10030.0,3677.0,7412.0,-9969.0,-1.0,-2.0,-4.0,2.0,-1.0,-1.0,-33.0,-6.0,1.9256813526153564
415,1540.0,178.0,381.0,-10030.0,3677.0,7412.0,-9969.0,-2.0,0.0,-1.0,-1.0,-1.0,0.0,-13.0,-1.0,1.9274518489837646
416,584.0,-74.0,364.0,-10021.0,3617.0,7324.0,-10065.0,-2.0,0.0,-1.0,-1.0,-1.0,0.0,-13.0,-1.0,1.9333086013793945
417,584.0,-74.0,364.0,-10021.0,3617.0,7324.0,-10065.0,-1.0,0.0,-3.0,-2.0,-2.0,-3.0,-8.0,-2.0,1.9351239204406738
418,584.0,-74.0,364.0,-10021.0,3617.0,7324.0,-10065.0,-2.0,-1.0,-3.0,-2.0,0.0,-3.0,5.0,-3.0,1.9481985569000244
419,-102.0,-195.0,162.0,-9998.0,3598.0,7335.0,-10086.0,-2.0,-1.0,-3.0,-2.0,0.0,-3.0,5.0,-3.0,1.9653129577636719
420,-102.0,-195.0,162.0,-9998.0,3598.0,7335.0,-10086.0,-1.0,0.0,-1.0,0.0,0.0,1.0,15.0,0.0,1.969358205795288
421,-102.0,-195.0,162.0,-9998.0,3598.0,7335.0,-10086.0,-1.0,-1.0,-1.0,0.0,-2.0,1.0,13.0,-1.0,1.9732029438018799
422,-19.0,-215.0,-153.0,-10010.0,3544.0,7356.0,-10078.0,-1.0,-1.0,-1.0,0.0,-2.0,1.0,13.0,-1.0,1.9790058135986328
423,-19.0,-215.0,-153.0,-10010.0,3544.0,7356.0,-10078.0,-2.0,-1.0,0.0,-1.0,-2.0,-2.0,8.0,-2.0,1.9808590412139893
424,-19.0,-215.0,-153.0,-10010.0,3544.0,7356.0,-10078.0,-1.0,3.0,0.0,4.0,1.0,0.0,2.0,1.0,1.9825866222381592
425,220.0,-242.0,-333.0,-10051.0,3440.0,7365.0,-10067.0,-1.0,3.0,0.0,4.0,1.0,0.0,2.0,1.0,2.0106658935546875
426,220.0,-242.0,-333.0,-10051.0,3440.0,7365.0,-10067.0,1.0,1.0,-3.0,-3.0,-1.0,1.0,5.0,1.0,2.014305830001831
427,220.0,-242.0,-333.0,-10051.0,3440.0,7365.0,-10067.0,-2.0,-2.0,-3.0,-2.0,-2.0,-2.0,1.0,0.0,2.0162665843963623
428,40.0,-238.0,-399.0,-10084.0,3364.0,7401.0,-10033.0,-2.0,-2.0,-3.0,-2.0,-2.0,-2.0,1.0,0.0,2.0325732231140137
429,40.0,-238.0,-399.0,-10084.0,3364.0,7401.0,-10033.0,-1.0,-3.0,0.0,0.0,-1.0,-2.0,1.0,-1.0,2.0360491275787354
430,40.0,-238.0,-399.0,-10084.0,3364.0,7401.0,-10033.0,-2.0,-4.0,-3.0,-2.0,-2.0,-3.0,-3.0,-1.0,2.039233684539795
431,-34.0,-163.0,-290.0,-10096.0,3333.0,7445.0,-10000.0,-2.0,-4.0,-3.0,-2.0,-2.0,-3.0,-3.0,-1.0,2.041011095046997
432,-34.0,-163.0,-290.0,-10096.0,3333.0,7445.0,-10000.0,-3.0,-2.0,-2.0,-1.0,-4.0,0.0,-1.0,0.0,2.042807102203369
433,-34.0,-163.0,-290.0,-10096.0,3333.0,7445.0,-10000.0,1.0,1.0,-1.0,-3.0,0.0,0.0,-4.0,1.0,2.04451847076416
434,187.0,-114.0,-129.0,-10096.0,3305.0,7455.0,-10001.0,1.0,1.0,-1.0,-3.0,0.0,0.0,-4.0,1.0,2.0532290935516357
435,187.0,-114.0,-129.0,-10096.0,3305.0,7455.0,-10001.0,0.0,-2.0,0.0,-1.0,1.0,-1.0,-3.0,-2.0,2.0551111698150635
436,187.0,-114.0,-129.0,-10096.0,3305.0,7455.0,-10001.0,-1.0,0.0,-1.0,-2.0,0.0,-1.0,-2.0,-1.0,2.0771543979644775
437,391.0,-113.0,-37.0,-10098.0,3255.0,7439.0,-10028.0,-1.0,0.0,-1.0,-2.0,0.0,-1.0,-2.0,-1.0,2.080244541168213
438,391.0,-113.0,-37.0,-10098.0,3255.0,7439.0,-10028.0,-1.0,-2.0,-3.0,-3.0,-1.0,-1.0,-1.0,0.0,2.083482265472412
439,391.0,-113.0,-37.0,-10098.0,3255.0,7439.0,-10028.0,-2.0,0.0,1.0,0.0,-1.0,0.0,0.0,-1.0,2.090765953063965
440,371.0,-118.0,3.0,-10097.0,3205.0,7420.0,-10058.0,-2.0,0.0,1.0,0.0,-1.0,0.0,0.0,-1.0,2.108072280883789
441,371.0,-118.0,3.0,-10097.0,3205.0,7420.0,-10058.0,2.0,-1.0,0.0,-2.0,-4.0,0.0,1.0,0.0,2.112169027328491
442,371.0,-118.0,3.0,-10097.0,3205.0,7420.0,-10058.0,-1.0,-2.0,-2.0,-3.0,1.0,-2.0,-2.0,-1.0,2.1154823303222656
443,249.0,-98.0,14.0,-10095.0,3168.0,7407.0,-10081.0,-1.0,-2.0,-2.0,-3.0,1.0,-2.0,-2.0,-1.0,2.117351531982422
444,249.0,-98.0,14.0,-10095.0,3168.0,7407.0,-10081.0,0.0,-1.0,1.0,5.0,0.0,-1.0,2.0,-1.0,2.129636287689209
445,249.0,-98.0,14.0,-10095.0,3168.0,7407.0,-10081.0,1.0,-2.0,0.0,0.0,-1.0,0.0,1.0,-2.0,2.1383790969848633
446,174.0,-43.0,-52.0,-10105.0,3138.0,7394.0,-10091.0,1.0,-2.0,0.0,0.0,-1.0,0.0,1.0,-2.0,2.1404809951782227
447,174.0,-43.0,-52.0,-10105.0,3138.0,7394.0,-10091.0,-1.0,1.0,0.0,-1.0,1.0,1.0,1.0,-2.0,2.142286539077759
448,174.0,-43.0,-52.0,-10105.0,3138.0,7394.0,-10091.0,-2.0,1.0,0.0,0.0,0.0,1.0,1.0,-1.0,2.1602771282196045
449,87.0,-11.0,-88.0,-10118.0,3119.0,7386.0,-10089.0,-2.0,1.0,0.0,0.0,0.0,1.0,1.0,-1.0,2.163374900817871
450,87.0,-11.0,-88.0,-10118.0,3119.0,7386.0,-10089.0,-2.0,-1.0,0.0,2.0,-1.0,-2.0,1.0,1.0,2.1666035652160645
451,87.0,-11.0,-88.0,-10118.0,3119.0,7386.0,-10089.0,-2.0,-3.0,1.0,0.0,1.0,-3.0,-2.0,0.0,2.169675588607788
452,5.0,-5.0,-95.0,-10127.0,3113.0,7387.0,-10081.0,-2.0,-3.0,1.0,0.0,1.0,-3.0,-2.0,0.0,2.172142505645752
453,5.0,-5.0,-95.0,-10127.0,3113.0,7387.0,-10081.0,0.0,-1.0,0.0,-2.0,0.0,1.0,0.0,0.0,2.180821180343628
454,5.0,-5.0,-95.0,-10127.0,3113.0,7387.0,-10081.0,1.0,2.0,-2.0,-1.0,1.0,0.0,-3.0,0.0,2.1826069355010986
455,26.0,-15.0,-51.0,-10129.0,3110.0,7387.0,-10080.0,1.0,2.0,-2.0,-1.0,1.0,0.0,-3.0,0.0,2.228790283203125
456,26.0,-15.0,-51.0,-10129.0,3110.0,7387.0,-10080.0,-2.0,-2.0,0.0,-2.0,-2.0,0.0,0.0,1.0,2.232544422149658
457,26.0,-15.0,-51.0,-10129.0,3110.0,7387.0,-10080.0,7.0,0.0,-1.0,3.0,0.0,-1.0,0.0,0.0,2.2361412048339844
458,151.0,-15.0,-32.0,-10135.0,3093.0,7372.0,-10090.0,7.0,0.0,-1.0,3.0,0.0,-1.0,0.0,0.0,2.239391565322876
459,151.0,-15.0,-32.0,-10135.0,3093.0,7372.0,-10090.0,1.0,1.0,-1.0,1.0,-1.0,-4.0,0.0,1.0,2.2412383556365967
460,151.0,-15.0,-32.0,-10135.0,3093.0,7372.0,-10090.0,-6.0,0.0,3.0,0.0,0.0,-1.0,1.0,-1.0,2.242976188659668
461,168.0,-42.0,-34.0,-10141.0,3068.0,7357.0,-10103.0,-6.0,0.0,3.0,0.0,0.0,-1.0,1.0,-1.0,2.244682788848877
462,168.0,-42.0,-34.0,-10141.0,3068.0,7357.0,-10103.0,-1.0,0.0,1.0,-1.0,-1.0,1.0,-1.0,0.0,2.2464749813079834
463,168.0,-42.0,-34.0,-10141.0,3068.0,7357.0,-10103.0,-1.0,-2.0,-2.0,-3.0,-2.0,1.0,-2.0,-1.0,2.2482073307037354
464,107.0,-67.0,-46.0,-10145.0,3046.0,7350.0,-10111.0,-1.0,-2.0,-2.0,-3.0,-2.0,1.0,-2.0,-1.0,2.256227493286133
465,107.0,-67.0,-46.0,-10145.0,3046.0,7350.0,-10111.0,-1.0,2.0,1.0,-2.0,1.0,-1.0,-2.0,-1.0,2.258091688156128
466,107.0,-67.0,-46.0,-10145.0,3046.0,7350.0,-10111.0,-3.0,-4.0,-2.0,-2.0,-2.0,-4.0,-1.0,-1.0,2.2623116970062256
467,125.0,-88.0,-33.0,-10144.0,3023.0,7345.0,-10122.0,-3.0,-4.0,-2.0,-2.0,-2.0,-4.0,-1.0,-1.0,2.279360055923462
468,125.0,-88.0,-33.0,-10144.0,3023.0,7345.0,-10122.0,-1.0,2.0,-1.0,-2.0,-3.0,-1.0,-3.0,-1.0,2.282841205596924
469,125.0,-88.0,-33.0,-10144.0,3023.0,7345.0,-10122.0,-3.0,0.0,1.0,1.0,-1.0,1.0,-2.0,-2.0,2.286139488220215
470,162.0,-97.0,-22.0,-10142.0,2998.0,7337.0,-10138.0,-3.0,0.0,1.0,1.0,-1.0,1.0,-2.0,-2.0,2.3194494247436523
471,162.0,-97.0,-22.0,-10142.0,2998.0,7337.0,-10138.0,1.0,-1.0,-4.0,-1.0,0.0,0.0,2.0,0.0,2.3240654468536377
472,162.0,-97.0,-22.0,-10142.0,2998.0,7337.0,-10138.0,2.0,0.0,1.0,-1.0,-3.0,-1.0,0.0,-1.0,2.3289968967437744
473,226.0,-106.0,-28.0,-10142.0,2962.0,7323.0,-10158.0,2.0,0.0,1.0,-1.0,-3.0,-1.0,0.0,-1.0,2.3325676918029785
474,226.0,-106.0,-28.0,-10142.0,2962.0,7323.0,-10158.0,0.0,1.0,0.0,0.0,1.0,-3.0,-1.0,-4.0,2.3344006538391113
475,226.0,-106.0,-28.0,-10142.0,2962.0,7323.0,-10158.0,-2.0,0.0,0.0,1.0,0.0,0.0,0.0,-3.0,2.3361198902130127
476,234.0,-116.0,-24.0,-10143.0,2923.0,7309.0,-10178.0,-2.0,0.0,0.0,1.0,0.0,0.0,0.0,-3.0,2.3557686805725098
477,234.0,-116.0,-24.0,-10143.0,2923.0,7309.0,-10178.0,-3.0,-1.0,-2.0,0.0,-1.0,2.0,-1.0,-3.0,2.3588476181030273
478,234.0,-116.0,-24.0,-10143.0,2923.0,7309.0,-10178.0,-2.0,-1.0,0.0,-1.0,-1.0,-4.0,-1.0,-1.0,2.3617537021636963
479,233.0,-137.0,-36.0,-10144.0,2878.0,7299.0,-10197.0,-2.0,-1.0,0.0,-1.0,-1.0,-4.0,-1.0,-1.0,2.3646600246429443
480,233.0,-137.0,-36.0,-10144.0,2878.0,7299.0,-10197.0,0.0,-1.0,-1.0,3.0,-3.0,-2.0,1.0,0.0,2.3674309253692627
481,233.0,-137.0,-36.0,-10144.0,2878.0,7299.0,-10197.0,0.0,1.0,3.0,-2.0,0.0,0.0,0.0,0.0,2.3692636489868164
482,196.0,-159.0,-56.0,-10146.0,2830.0,7296.0,-10211.0,0.0,1.0,3.0,-2.0,0.0,0.0,0.0,0.0,2.3755595684051514
483,196.0,-159.0,-56.0,-10146.0,2830.0,7296.0,-10211.0,-2.0,0.0,-3.0,0.0,6.0,3.0,-1.0,-1.0,2.3773956298828125
484,196.0,-159.0,-56.0,-10146.0,2830.0,7296.0,-10211.0,-1.0,0.0,-2.0,0.0,-3.0,-2.0,0.0,1.0,2.3827435970306396
485,111.0,-152.0,-78.0,-10148.0,2790.0,7305.0,-10214.0,-1.0,0.0,-2.0,0.0,-3.0,-2.0,0.0,1.0,2.397921323776245
486,111.0,-152.0,-78.0,-10148.0,2790.0,7305.0,-10214.0,-2.0,-1.0,0.0,-3.0,-2.0,-3.0,-1.0,1.0,2.425658941268921
487,111.0,-152.0,-78.0,-10148.0,2790.0,7305.0,-10214.0,0.0,-1.0,-4.0,-1.0,4.0,2.0,0.0,-1.0,2.430365800857544
488,53.0,-109.0,-78.0,-10149.0,2764.0,7319.0,-10210.0,0.0,-1.0,-4.0,-1.0,4.0,2.0,0.0,-1.0,2.434744119644165
489,53.0,-109.0,-78.0,-10149.0,2764.0,7319.0,-10210.0,-1.0,-1.0,0.0,1.0,-1.0,-2.0,-2.0,1.0,2.4371838569641113
490,53.0,-109.0,-78.0,-10149.0,2764.0,7319.0,-10210.0,-1.0,0.0,0.0,-3.0,-3.0,-4.0,-2.0,0.0,2.4389328956604004
491,46.0,-61.0,-51.0,-10152.0,2745.0,7326.0,-10207.0,-1.0,0.0,0.0,-3.0,-3.0,-4.0,-2.0,0.0,2.4406955242156982
492,46.0,-61.0,-51.0,-10152.0,2745.0,7326.0,-10207.0,-3.0,-2.0,-4.0,-4.0,-12.0,-4.0,-1.0,0.0,2.4425206184387207
493,46.0,-61.0,-51.0,-10152.0,2745.0,7326.0,-10207.0,0.0,-1.0,1.0,-1.0,0.0,2.0,0.0,1.0,2.444265604019165
494,-17.0,-16.0,-41.0,-10156.0,2738.0,7331.0,-10201.0,0.0,-1.0,1.0,-1.0,0.0,2.0,0.0,1.0,2.459059476852417
495,-17.0,-16.0,-41.0,-10156.0,2738.0,7331.0,-10201.0,-2.0,-1.0,2.0,-4.0,-7.0,-5.0,-3.0,-2.0,2.46230149269104
496,-17.0,-16.0,-41.0,-10156.0,2738.0,7331.0,-10201.0,0.0,-2.0,-3.0,-1.0,-3.0,-2.0,0.0,0.0,2.4653685092926025
497,-99.0,3.0,-64.0,-10161.0,2742.0,7346.0,-10184.0,0.0,-2.0,-3.0,-1.0,-3.0,-2.0,0.0,0.0,2.473912477493286
498,-99.0,3.0,-64.0,-10161.0,2742.0,7346.0,-10184.0,1.0,-3.0,-1.0,0.0,0.0,-2.0,0.0,0.0,2.4975998401641846
499,-99.0,3.0,-64.0,-10161.0,2742.0,7346.0,-10184.0,-3.0,0.0,0.0,-1.0,3.0,2.0,1.0,-1.0,2.5002429485321045
500,-159.0,28.0,-69.0,-10165.0,2760.0,7365.0,-10162.0,-3.0,0.0,0.0,-1.0,3.0,2.0,1.0,-1.0,2.503575086593628
501,-159.0,28.0,-69.0,-10165.0,2760.0,7365.0,-10162.0,0.0,0.0,-1.0,-2.0,1.0,-1.0,0.0,-1.0,2.5068304538726807
502,-159.0,28.0,-69.0,-10165.0,2760.0,7365.0,-10162.0,0.0,-2.0,-3.0,-1.0,-3.0,-1.0,-1.0,2.0,2.5282015800476074
503,-122.0,34.0,-72.0,-10169.0,2776.0,7379.0,-10143.0,0.0,-2.0,-3.0,-1.0,-3.0,-1.0,-1.0,2.0,2.531942367553711
504,-122.0,34.0,-72.0,-10169.0,2776.0,7379.0,-10143.0,0.0,1.0,0.0,4.0,3.0,4.0,0.0,-1.0,2.535726547241211
505,-122.0,34.0,-72.0,-10169.0,2776.0,7379.0,-10143.0,0.0,-2.0,-1.0,-1.0,-2.0,-1.0,-1.0,-2.0,2.5390942096710205
506,-42.0,29.0,-47.0,-10172.0,2785.0,7384.0,-10134.0,0.0,-2.0,-1.0,-1.0,-2.0,-1.0,-1.0,-2.0,2.5412662029266357
507,-42.0,29.0,-47.0,-10172.0,2785.0,7384.0,-10134.0,0.0,-2.0,-2.0,-3.0,2.0,0.0,-1.0,-1.0,2.5430972576141357
508,-42.0,29.0,-47.0,-10172.0,2785.0,7384.0,-10134.0,0.0,-1.0,0.0,0.0,0.0,-2.0,-1.0,-1.0,2.5448052883148193
509,39.0,31.0,-27.0,-10177.0,2785.0,7376.0,-10134.0,0.0,-1.0,0.0,0.0,0.0,-2.0,-1.0,-1.0,2.564445734024048
510,39.0,31.0,-27.0,-10177.0,2785.0,7376.0,-10134.0,-1.0,0.0,-1.0,-3.0,-1.0,-2.0,-1.0,-1.0,2.567502021789551
511,39.0,31.0,-27.0,-10177.0,2785.0,7376.0,-10134.0,-1.0,-1.0,0.0,-2.0,0.0,-1.0,0.0,-1.0,2.570408582687378
512,64.0,21.0,-28.0,-10183.0,2780.0,7366.0,-10137.0,-1.0,-1.0,0.0,-2.0,0.0,-1.0,0.0,-1.0,2.587120532989502
513,64.0,21.0,-28.0,-10183.0,2780.0,7366.0,-10137.0,0.0,-1.0,-1.0,-1.0,-1.0,0.0,0.0,-1.0,2.5903782844543457
514,64.0,21.0,-28.0,-10183.0,2780.0,7366.0,-10137.0,0.0,-1.0,-2.0,-3.0,1.0,-1.0,1.0,-1.0,2.5934834480285645
515,52.0,10.0,-25.0,-10188.0,2775.0,7359.0,-10139.0,0.0,-1.0,-2.0,-3.0,1.0,-1.0,1.0,-1.0,2.59659481048584
516,52.0,10.0,-25.0,-10188.0,2775.0,7359.0,-10139.0,1.0,-1.0,-1.0,-1.0,2.0,0.0,0.0,-2.0,2.6008429527282715
517,52.0,10.0,-25.0,-10188.0,2775.0,7359.0,-10139.0,-1.0,-2.0,-2.0,-2.0,-3.0,-3.0,-2.0,-3.0,2.6026434898376465
518,68.0,-10.0,-15.0,-10189.0,2768.0,7355.0,-10143.0,-1.0,-2.0,-2.0,-2.0,-3.0,-3.0,-2.0,-3.0,2.6164448261260986
519,68.0,-10.0,-15.0,-10189.0,2768.0,7355.0,-10143.0,1.0,-2.0,-1.0,0.0,0.0,0.0,-2.0,1.0,2.619696855545044
520,68.0,-10.0,-15.0,-10189.0,2768.0,7355.0,-10143.0,-1.0,-1.0,1.0,1.0,-2.0,0.0,-1.0,-1.0,2.6228256225585938
521,106.0,1.0,0.0,-10191.0,2758.0,7344.0,-10151.0,-1.0,-1.0,1.0,1.0,-2.0,0.0,-1.0,-1.0,2.647392988204956
522,106.0,1.0,0.0,-10191.0,2758.0,7344.0,-10151.0,-2.0,-2.0,-2.0,0.0,1.0,1.0,-1.0,-2.0,2.6511340141296387
523,106.0,1.0,0.0,-10191.0,2758.0,7344.0,-10151.0,0.0,0.0,-3.0,0.0,1.0,1.0,0.0,-1.0,2.654744863510132
524,104.0,22.0,-4.0,-10197.0,2747.0,7330.0,-10158.0,0.0,0.0,-3.0,0.0,1.0,1.0,0.0,-1.0,2.6626601219177246
525,104.0,22.0,-4.0,-10197.0,2747.0,7330.0,-10158.0,-2.0,0.0,1.0,0.0,-2.0,-1.0,-1.0,-1.0,2.6650094985961914
526,104.0,22.0,-4.0,-10197.0,2747.0,7330.0,-10158.0,-3.0,-2.0,-1.0,0.0,1.0,-1.0,0.0,0.0,2.666785717010498
527,31.0,42.0,-22.0,-10205.0,2744.0,7321.0,-10157.0,-3.0,-2.0,-1.0,0.0,1.0,-1.0,0.0,0.0,2.675811290740967
528,31.0,42.0,-22.0,-10205.0,2744.0,7321.0,-10157.0,-1.0,0.0,-2.0,-2.0,1.0,-1.0,1.0,0.0,2.6776106357574463
529,31.0,42.0,-22.0,-10205.0,2744.0,7321.0,-10157.0,0.0,-1.0,-1.0,0.0,1.0,-1.0,-1.0,-1.0,2.700111150741577
530,-41.0,56.0,-24.0,-10211.0,2753.0,7320.0,-10150.0,0.0,-1.0,-1.0,0.0,1.0,-1.0,-1.0,-1.0,2.7032198905944824
531,-41.0,56.0,-24.0,-10211.0,2753.0,7320.0,-10150.0,0.0,1.0,3.0,-2.0,-1.0,-1.0,0.0,0.0,2.706447124481201
532,-41.0,56.0,-24.0,-10211.0,2753.0,7320.0,-10150.0,1.0,0.0,0.0,3.0,-1.0,-1.0,1.0,2.0,2.709517478942871
533,-55.0,54.0,-9.0,-10215.0,2766.0,7320.0,-10143.0,1.0,0.0,0.0,3.0,-1.0,-1.0,1.0,2.0,2.7211554050445557
534,-55.0,54.0,-9.0,-10215.0,2766.0,7320.0,-10143.0,-2.0,-1.0,-1.0,0.0,-2.0,-1.0,-1.0,-1.0,2.7239835262298584
535,-55.0,54.0,-9.0,-10215.0,2766.0,7320.0,-10143.0,-2.0,-2.0,1.0,-3.0,-1.0,-1.0,-1.0,-1.0,2.7276556491851807
536,-49.0,60.0,-7.0,-10217.0,2781.0,7319.0,-10137.0,-2.0,-2.0,1.0,-3.0,-1.0,-1.0,-1.0,-1.0,2.736095666885376
537,-49.0,60.0,-7.0,-10217.0,2781.0,7319.0,-10137.0,-2.0,2.0,-3.0,-2.0,-3.0,1.0,2.0,0.0,2.737898826599121
538,-49.0,60.0,-7.0,-10217.0,2781.0,7319.0,-10137.0,-2.0,0.0,-1.0,0.0,0.0,0.0,-1.0,-1.0,2.750086784362793
539,-39.0,63.0,-2.0,-10219.0,2795.0,7316.0,-10133.0,-2.0,0.0,-1.0,0.0,0.0,0.0,-1.0,-1.0,2.766418695449829
540,-39.0,63.0,-2.0,-10219.0,2795.0,7316.0,-10133.0,-2.0,-2.0,-1.0,-2.0,2.0,-2.0,0.0,0.0,2.7701399326324463
541,-39.0,63.0,-2.0,-10219.0,2795.0,7316.0,-10133.0,0.0,0.0,-1.0,-1.0,-4.0,2.0,1.0,1.0,2.7744927406311035
542,-20.0,55.0,4.0,-10221.0,2808.0,7312.0,-10131.0,0.0,0.0,-1.0,-1.0,-4.0,2.0,1.0,1.0,2.7780749797821045
543,-20.0,55.0,4.0,-10221.0,2808.0,7312.0,-10131.0,1.0,-2.0,-1.0,2.0,-3.0,-3.0,0.0,-2.0,2.780442714691162
544,-20.0,55.0,4.0,-10221.0,2808.0,7312.0,-10131.0,-1.0,1.0,-1.0,-2.0,-4.0,0.0,0.0,-1.0,2.782153844833374
545,-8.0,45.0,3.0,-10223.0,2816.0,7305.0,-10131.0,-1.0,1.0,-1.0,-2.0,-4.0,0.0,0.0,-1.0,2.7969412803649902
546,-8.0,45.0,3.0,-10223.0,2816.0,7305.0,-10131.0,-1.0,-3.0,-2.0,0.0,-2.0,0.0,-4.0,-2.0,2.8002140522003174
547,-8.0,45.0,3.0,-10223.0,2816.0,7305.0,-10131.0,2.0,0.0,1.0,6.0,1.0,1.0,-1.0,0.0,2.80332350730896
548,-15.0,30.0,-5.0,-10225.0,2822.0,7302.0,-10130.0,2.0,0.0,1.0,6.0,1.0,1.0,-1.0,0.0,2.82737135887146
549,-15.0,30.0,-5.0,-10225.0,2822.0,7302.0,-10130.0,2.0,-1.0,3.0,2.0,2.0,2.0,1.0,-1.0,2.83115816116333
550,-15.0,30.0,-5.0,-10225.0,2822.0,7302.0,-10130.0,-1.0,-1.0,-2.0,-4.0,-2.0,-2.0,-1.0,0.0,2.8347299098968506
551,-2.0,17.0,-2.0,-10226.0,2826.0,7299.0,-10130.0,-1.0,-1.0,-2.0,-4.0,-2.0,-2.0,-1.0,0.0,2.8383657932281494
552,-2.0,17.0,-2.0,-10226.0,2826.0,7299.0,-10130.0,0.0,-1.0,1.0,-3.0,1.0,1.0,0.0,1.0,2.840895891189575
553,-2.0,17.0,-2.0,-10226.0,2826.0,7299.0,-10130.0,1.0,0.0,6.0,2.0,4.0,3.0,-1.0,-2.0,2.8477487564086914
554,1.0,-4.0,-4.0,-10226.0,2826.0,7299.0,-10130.0,1.0,0.0,6.0,2.0,4.0,3.0,-1.0,-2.0,2.863476514816284
555,1.0,-4.0,-4.0,-10226.0,2826.0,7299.0,-10130.0,-1.0,0.0,3.0,-1.0,-5.0,-4.0,0.0,-2.0,2.8721859455108643
556,1.0,-4.0,-4.0,-10226.0,2826.0,7299.0,-10130.0,-1.0,-2.0,0.0,-4.0,-4.0,-2.0,0.0,-1.0,2.8753981590270996
557,49.0,-10.0,-3.0,-10227.0,2818.0,7297.0,-10132.0,-1.0,-2.0,0.0,-4.0,-4.0,-2.0,0.0,-1.0,2.886577844619751
558,49.0,-10.0,-3.0,-10227.0,2818.0,7297.0,-10132.0,-2.0,-4.0,-8.0,-1.0,-1.0,-2.0,-3.0,-1.0,2.8900246620178223
559,49.0,-10.0,-3.0,-10227.0,2818.0,7297.0,-10132.0,-2.0,1.0,7.0,-3.0,4.0,0.0,0.0,-2.0,2.893346071243286
560,3.0,0.0,14.0,-10227.0,2818.0,7298.0,-10132.0,-2.0,1.0,7.0,-3.0,4.0,0.0,0.0,-2.0,2.9024600982666016
561,3.0,0.0,14.0,-10227.0,2818.0,7298.0,-10132.0,-3.0,0.0,1.0,5.0,-2.0,-2.0,1.0,-2.0,2.9048843383789062
562,3.0,0.0,14.0,-10227.0,2818.0,7298.0,-10132.0,0.0,-1.0,-4.0,4.0,0.0,-1.0,-3.0,-1.0,2.9066264629364014
563,-38.0,-6.0,18.0,-10222.0,2824.0,7306.0,-10130.0,0.0,-1.0,-4.0,4.0,0.0,-1.0,-3.0,-1.0,2.9247679710388184
564,-38.0,-6.0,18.0,-10222.0,2824.0,7306.0,-10130.0,0.0,-2.0,-6.0,-6.0,0.0,-1.0,-1.0,0.0,2.928255081176758
565,-38.0,-6.0,18.0,-10222.0,2824.0,7306.0,-10130.0,1.0,-1.0,0.0,-1.0,-4.0,1.0,-1.0,0.0,2.9316887855529785
566,-38.0,12.0,2.0,-10221.0,2830.0,7309.0,-10126.0,1.0,-1.0,0.0,-1.0,-4.0,1.0,-1.0,0.0,2.9391393661499023
567,-38.0,12.0,2.0,-10221.0,2830.0,7309.0,-10126.0,0.0,-1.0,-6.0,1.0,-3.0,2.0,-1.0,-1.0,2.941356897354126
568,-38.0,12.0,2.0,-10221.0,2830.0,7309.0,-10126.0,1.0,-1.0,-21.0,-6.0,-2.0,-3.0,0.0,-1.0,2.9449453353881836
569,-33.0,28.0,-4.0,-10222.0,2837.0,7309.0,-10123.0,1.0,-1.0,-21.0,-6.0,-2.0,-3.0,0.0,-1.0,2.961282968521118
570,-33.0,28.0,-4.0,-10222.0,2837.0,7309.0,-10123.0,1.0,4.0,0.0,2.0,0.0,-2.0,-2.0,0.0,2.963740348815918
571,-33.0,28.0,-4.0,-10222.0,2837.0,7309.0,-10123.0,0.0,6.0,20.0,-8.0,-1.0,0.0,-1.0,-3.0,2.9666712284088135
572,-59.0,23.0,0.0,-10219.0,2852.0,7316.0,-10117.0,0.0,6.0,20.0,-8.0,-1.0,0.0,-1.0,-3.0,2.976505756378174
573,-59.0,23.0,0.0,-10219.0,2852.0,7316.0,-10117.0,-1.0,0.0,1.0,0.0,3.0,1.0,-1.0,0.0,2.979785442352295
574,-59.0,23.0,0.0,-10219.0,2852.0,7316.0,-10117.0,-1.0,-4.0,-10.0,0.0,-1.0,-4.0,0.0,-2.0,2.982901096343994
575,-61.0,19.0,3.0,-10215.0,2867.0,7322.0,-10113.0,-1.0,-4.0,-10.0,0.0,-1.0,-4.0,0.0,-2.0,2.9988434314727783
576,-61.0,19.0,3.0,-10215.0,2867.0,7322.0,-10113.0,-1.0,-3.0,5.0,-4.0,-3.0,-3.0,-2.0,-1.0,3.001865863800049
577,-61.0,19.0,3.0,-10215.0,2867.0,7322.0,-10113.0,1.0,-4.0,-4.0,0.0,-1.0,2.0,0.0,2.0,3.0056498050689697
578,26.0,32.0,-11.0,-10218.0,2870.0,7316.0,-10113.0,1.0,-4.0,-4.0,0.0,-1.0,2.0,0.0,2.0,3.0215518474578857
579,26.0,32.0,-11.0,-10218.0,2870.0,7316.0,-10113.0,-2.0,-3.0,-6.0,-1.0,-1.0,0.0,1.0,0.0,3.024477005004883
580,26.0,32.0,-11.0,-10218.0,2870.0,7316.0,-10113.0,-1.0,0.0,5.0,4.0,8.0,4.0,-2.0,-1.0,3.027796506881714
581,-14.0,27.0,-17.0,-10220.0,2876.0,7314.0,-10111.0,-1.0,0.0,5.0,4.0,8.0,4.0,-2.0,-1.0,3.0361690521240234
582,-14.0,27.0,-17.0,-10220.0,2876.0,7314.0,-10111.0,-1.0,1.0,6.0,-13.0,-1.0,-1.0,1.0,1.0,3.038079023361206
583,-14.0,27.0,-17.0,-10220.0,2876.0,7314.0,-10111.0,-3.0,0.0,-4.0,1.0,-4.0,-4.0,-1.0,1.0,3.0502800941467285
584,-53.0,3.0,-21.0,-10218.0,2887.0,7322.0,-10104.0,-3.0,0.0,-4.0,1.0,-4.0,-4.0,-1.0,1.0,3.0588765144348145
585,-53.0,3.0,-21.0,-10218.0,2887.0,7322.0,-10104.0,-1.0,-3.0,-6.0,3.0,0.0,-3.0,-1.0,-1.0,3.0619001388549805
586,-53.0,3.0,-21.0,-10218.0,2887.0,7322.0,-10104.0,0.0,-6.0,-14.0,-7.0,-6.0,-3.0,-1.0,-2.0,3.0649874210357666
587,0.0,-5.0,-21.0,-10218.0,2888.0,7323.0,-10103.0,0.0,-6.0,-14.0,-7.0,-6.0,-3.0,-1.0,-2.0,3.081937789916992
588,0.0,-5.0,-21.0,-10218.0,2888.0,7323.0,-10103.0,0.0,1.0,15.0,-1.0,-4.0,-1.0,0.0,-1.0,3.08526349067688
589,0.0,-5.0,-21.0,-10218.0,2888.0,7323.0,-10103.0,-4.0,-2.0,6.0,3.0,0.0,-3.0,-3.0,-4.0,3.0885868072509766
590,62.0,-25.0,-1.0,-10217.0,2880.0,7320.0,-10109.0,-4.0,-2.0,6.0,3.0,0.0,-3.0,-3.0,-4.0,3.096298933029175
591,62.0,-25.0,-1.0,-10217.0,2880.0,7320.0,-10109.0,2.0,-5.0,-17.0,11.0,1.0,-1.0,0.0,0.0,3.0982515811920166
592,62.0,-25.0,-1.0,-10217.0,2880.0,7320.0,-10109.0,1.0,3.0,-3.0,6.0,0.0,1.0,0.0,1.0,3.1024422645568848
593,22.0,-22.0,-4.0,-10215.0,2877.0,7320.0,-10111.0,1.0,3.0,-3.0,6.0,0.0,1.0,0.0,1.0,3.126136064529419
594,22.0,-22.0,-4.0,-10215.0,2877.0,7320.0,-10111.0,-2.0,1.0,1.0,-8.0,0.0,-1.0,-2.0,0.0,3.1293392181396484
595,22.0,-22.0,-4.0,-10215.0,2877.0,7320.0,-10111.0,-2.0,-6.0,-8.0,-5.0,-8.0,-3.0,-1.0,-1.0,3.1324572563171387
596,-29.0,-51.0,-18.0,-10212.0,2875.0,7329.0,-10109.0,-2.0,-6.0,-8.0,-5.0,-8.0,-3.0,-1.0,-1.0,3.1408112049102783
597,-29.0,-51.0,-18.0,-10212.0,2875.0,7329.0,-10109.0,0.0,2.0,3.0,11.0,11.0,3.0,1.0,1.0,3.1482319831848145
598,-29.0,-51.0,-18.0,-10212.0,2875.0,7329.0,-10109.0,-1.0,-1.0,5.0,-4.0,1.0,-2.0,-2.0,-1.0,3.1499874591827393
599,50.0,-39.0,-34.0,-10214.0,2862.0,7327.0,-10111.0,-1.0,-1.0,5.0,-4.0,1.0,-2.0,-2.0,-1.0,3.1557776927948
600,50.0,-39.0,-34.0,-10214.0,2862.0,7327.0,-10111.0,0.0,-1.0,10.0,2.0,-2.0,-1.0,1.0,0.0,3.1577813625335693
601,50.0,-39.0,-34.0,-10214.0,2862.0,7327.0,-10111.0,-2.0,2.0,9.0,4.0,6.0,2.0,0.0,0.0,3.1627259254455566
602,3.0,-19.0,-33.0,-10216.0,2858.0,7329.0,-10109.0,-2.0,2.0,9.0,4.0,6.0,2.0,0.0,0.0,3.1866798400878906
603,3.0,-19.0,-33.0,-10216.0,2858.0,7329.0,-10109.0,-2.0,-3.0,-10.0,-7.0,-7.0,0.0,-2.0,-1.0,3.1901464462280273
604,3.0,-19.0,-33.0,-10216.0,2858.0,7329.0,-10109.0,2.0,0.0,-7.0,2.0,-1.0,-4.0,-1.0,-1.0,3.19346284866333
605,-2.0,-10.0,-32.0,-10218.0,2857.0,7331.0,-10106.0,2.0,0.0,-7.0,2.0,-1.0,-4.0,-1.0,-1.0,3.2028112411499023
606,-2.0,-10.0,-32.0,-10218.0,2857.0,7331.0,-10106.0,-1.0,-1.0,6.0,-1.0,-3.0,1.0,-1.0,0.0,3.2050507068634033
607,-2.0,-10.0,-32.0,-10218.0,2857.0,7331.0,-10106.0,0.0,-1.0,-1.0,-4.0,4.0,1.0,1.0,-1.0,3.206773519515991
608,41.0,-2.0,-24.0,-10220.0,2853.0,7328.0,-10108.0,0.0,-1.0,-1.0,-4.0,4.0,1.0,1.0,-1.0,3.2156906127929688
609,41.0,-2.0,-24.0,-10220.0,2853.0,7328.0,-10108.0,-1.0,1.0,-2.0,-1.0,1.0,-3.0,-2.0,0.0,3.2174928188323975
610,46.0,-9.0,-24.0,-10223.0,2846.0,7324.0,-10110.0,-1.0,1.0,-2.0,-1.0,1.0,-3.0,-2.0,0.0,3.2222728729248047
611,46.0,-9.0,-24.0,-10223.0,2846.0,7324.0,-10110.0,-1.0,-2.0,-1.0,-1.0,-1.0,-1.0,-1.0,1.0,3.238630533218384
612,46.0,-9.0,-24.0,-10223.0,2846.0,7324.0,-10110.0,0.0,-1.0,-5.0,0.0,-2.0,0.0,1.0,-2.0,3.2415273189544678
613,23.0,-13.0,-26.0,-10224.0,2841.0,7324.0,-10109.0,0.0,-1.0,-5.0,0.0,-2.0,0.0,1.0,-2.0,3.245602607727051
614,23.0,-13.0,-26.0,-10224.0,2841.0,7324.0,-10109.0,-1.0,0.0,-2.0,-2.0,0.0,1.0,0.0,0.0,3.2533373832702637
615,23.0,-13.0,-26.0,-10224.0,2841.0,7324.0,-10109.0,-1.0,1.0,-1.0,0.0,0.0,0.0,-1.0,-2.0,3.260544538497925
616,21.0,-14.0,-24.0,-10226.0,2836.0,7325.0,-10108.0,-1.0,1.0,-1.0,0.0,0.0,0.0,-1.0,-2.0,3.2623255252838135
617,21.0,-14.0,-24.0,-10226.0,2836.0,7325.0,-10108.0,-2.0,-1.0,2.0,2.0,-1.0,0.0,0.0,-1.0,3.2758421897888184
618,21.0,-14.0,-24.0,-10226.0,2836.0,7325.0,-10108.0,-2.0,-1.0,-3.0,0.0,-3.0,-1.0,-1.0,-1.0,3.2775516510009766
619,51.0,-4.0,-27.0,-10230.0,2828.0,7321.0,-10110.0,-2.0,-1.0,-3.0,0.0,-3.0,-1.0,-1.0,-1.0,3.2824087142944336
620,51.0,-4.0,-27.0,-10230.0,2828.0,7321.0,-10110.0,-1.0,-1.0,0.0,2.0,0.0,-2.0,-1.0,0.0,3.2903504371643066
621,51.0,-4.0,-27.0,-10230.0,2828.0,7321.0,-10110.0,1.0,-2.0,-2.0,0.0,0.0,-1.0,-3.0,-2.0,3.297532081604004
622,48.0,0.0,-37.0,-10236.0,2819.0,7316.0,-10109.0,1.0,-2.0,-2.0,0.0,0.0,-1.0,-3.0,-2.0,3.3049583435058594
623,48.0,0.0,-37.0,-10236.0,2819.0,7316.0,-10109.0,0.0,-2.0,-2.0,-3.0,-2.0,-2.0,-2.0,-3.0,3.312523126602173
624,48.0,0.0,-37.0,-10236.0,2819.0,7316.0,-10109.0,-2.0,0.0,0.0,-3.0,0.0,-2.0,0.0,-1.0,3.320533037185669
625,15.0,14.0,-45.0,-10242.0,2817.0,7316.0,-10105.0,-2.0,0.0,0.0,-3.0,0.0,-2.0,0.0,-1.0,3.3222439289093018
626,15.0,14.0,-45.0,-10242.0,2817.0,7316.0,-10105.0,0.0,-2.0,3.0,-1.0,-2.0,0.0,0.0,2.0,3.3357388973236084
627,15.0,14.0,-45.0,-10242.0,2817.0,7316.0,-10105.0,-1.0,-1.0,-4.0,-2.0,-3.0,0.0,-3.0,1.0,3.33743953704834
628,39.0,27.0,-41.0,-10249.0,2812.0,7310.0,-10102.0,-1.0,-1.0,-4.0,-2.0,-3.0,0.0,-3.0,1.0,3.3425185680389404
629,39.0,27.0,-41.0,-10249.0,2812.0,7310.0,-10102.0,-1.0,-1.0,0.0,-1.0,-1.0,-3.0,-1.0,0.0,3.3583290576934814
630,39.0,27.0,-41.0,-10249.0,2812.0,7310.0,-10102.0,-2.0,-1.0,-1.0,-2.0,-2.0,-2.0,0.0,-2.0,3.3617470264434814
631,43.0,34.0,-35.0,-10256.0,2810.0,7303.0,-10101.0,-2.0,-1.0,-1.0,-2.0,-2.0,-2.0,0.0,-2.0,3.365302085876465
632,43.0,34.0,-35.0,-10256.0,2810.0,7303.0,-10101.0,-2.0,-2.0,-1.0,-2.0,2.0,2.0,0.0,0.0,3.383256196975708
633,43.0,34.0,-35.0,-10256.0,2810.0,7303.0,-10101.0,0.0,-1.0,-2.0,-4.0,0.0,-4.0,0.0,1.0,3.3871235847473145
634,45.0,34.0,-41.0,-10264.0,2807.0,7296.0,-10099.0,0.0,-1.0,-2.0,-4.0,0.0,-4.0,0.0,1.0,3.3893954753875732
635,45.0,34.0,-41.0,-10264.0,2807.0,7296.0,-10099.0,-1.0,0.0,0.0,1.0,-6.0,-4.0,0.0,-2.0,3.3957502841949463
636,45.0,34.0,-41.0,-10264.0,2807.0,7296.0,-10099.0,0.0,-1.0,0.0,-3.0,3.0,-3.0,-3.0,-2.0,3.397454023361206
637,27.0,31.0,-35.0,-10269.0,2807.0,7292.0,-10096.0,0.0,-1.0,0.0,-3.0,3.0,-3.0,-3.0,-2.0,3.4026594161987305
638,27.0,31.0,-35.0,-10269.0,2807.0,7292.0,-10096.0,-3.0,-3.0,-3.0,-3.0,4.0,0.0,0.0,-1.0,3.418208599090576
639,27.0,31.0,-35.0,-10269.0,2807.0,7292.0,-10096.0,-1.0,-1.0,-4.0,0.0,3.0,1.0,-1.0,-2.0,3.4215261936187744
640,32.0,31.0,-34.0,-10276.0,2806.0,7286.0,-10094.0,-1.0,-1.0,-4.0,0.0,3.0,1.0,-1.0,-2.0,3.4348928928375244
641,32.0,31.0,-34.0,-10276.0,2806.0,7286.0,-10094.0,0.0,-1.0,6.0,0.0,2.0,2.0,0.0,-1.0,3.4389054775238037
642,32.0,31.0,-34.0,-10276.0,2806.0,7286.0,-10094.0,0.0,-2.0,14.0,3.0,-4.0,0.0,-1.0,0.0,3.442624092102051
643,6.0,20.0,-26.0,-10278.0,2809.0,7285.0,-10092.0,0.0,-2.0,14.0,3.0,-4.0,0.0,-1.0,0.0,3.4446675777435303
644,6.0,20.0,-26.0,-10278.0,2809.0,7285.0,-10092.0,2.0,1.0,1.0,1.0,-3.0,-1.0,-2.0,0.0,3.4577174186706543
645,6.0,20.0,-26.0,-10278.0,2809.0,7285.0,-10092.0,0.0,-1.0,-1.0,3.0,3.0,1.0,0.0,1.0,3.4611704349517822
646,-3.0,8.0,-15.0,-10277.0,2810.0,7286.0,-10092.0,0.0,-1.0,-1.0,3.0,3.0,1.0,0.0,1.0,3.4644904136657715
647,-3.0,8.0,-15.0,-10277.0,2810.0,7286.0,-10092.0,-1.0,1.0,-2.0,3.0,3.0,-2.0,-1.0,-2.0,3.478384494781494
648,-3.0,8.0,-15.0,-10277.0,2810.0,7286.0,-10092.0,-2.0,0.0,-2.0,-2.0,-6.0,-1.0,0.0,-1.0,3.4816620349884033
649,45.0,15.0,-9.0,-10280.0,2807.0,7281.0,-10093.0,-2.0,0.0,-2.0,-2.0,-6.0,-1.0,0.0,-1.0,3.485532522201538
650,45.0,15.0,-9.0,-10280.0,2807.0,7281.0,-10093.0,1.0,-2.0,-7.0,1.0,0.0,0.0,-3.0,0.0,3.4942898750305176
651,45.0,15.0,-9.0,-10280.0,2807.0,7281.0,-10093.0,0.0,-3.0,-1.0,0.0,-1.0,-2.0,-1.0,0.0,3.500654935836792
652,19.0,14.0,-7.0,-10283.0,2806.0,7277.0,-10093.0,0.0,-3.0,-1.0,0.0,-1.0,-2.0,-1.0,0.0,3.5023996829986572
653,19.0,14.0,-7.0,-10283.0,2806.0,7277.0,-10093.0,-3.0,0.0,7.0,-3.0,-2.0,-1.0,1.0,-1.0,3.5158560276031494
654,19.0,14.0,-7.0,-10283.0,2806.0,7277.0,-10093.0,0.0,-1.0,-2.0,3.0,6.0,5.0,1.0,0.0,3.5175631046295166
655,-27.0,12.0,-9.0,-10284.0,2810.0,7279.0,-10090.0,0.0,-1.0,-2.0,3.0,6.0,5.0,1.0,0.0,3.5225415229797363
656,-27.0,12.0,-9.0,-10284.0,2810.0,7279.0,-10090.0,-2.0,-1.0,-4.0,-4.0,-5.0,-2.0,-2.0,-2.0,3.5395119190216064
657,-27.0,12.0,-9.0,-10284.0,2810.0,7279.0,-10090.0,0.0,-2.0,-2.0,-1.0,0.0,-1.0,0.0,-1.0,3.5427348613739014
658,0.0,4.0,-13.0,-10283.0,2811.0,7279.0,-10090.0,0.0,-2.0,-2.0,-1.0,0.0,-1.0,0.0,-1.0,3.544895648956299
659,0.0,4.0,-13.0,-10283.0,2811.0,7279.0,-10090.0,2.0,-1.0,-1.0,-2.0,0.0,-1.0,1.0,1.0,3.5527257919311523
660,0.0,4.0,-13.0,-10283.0,2811.0,7279.0,-10090.0,-1.0,0.0,-2.0,-3.0,2.0,-1.0,-3.0,-1.0,3.5611555576324463
661,22.0,1.0,-17.0,-10285.0,2809.0,7276.0,-10091.0,-1.0,0.0,-2.0,-3.0,2.0,-1.0,-3.0,-1.0,3.5630171298980713
662,22.0,1.0,-17.0,-10285.0,2809.0,7276.0,-10091.0,-2.0,0.0,1.0,0.0,-1.0,2.0,0.0,0.0,3.576650381088257
663,22.0,1.0,-17.0,-10285.0,2809.0,7276.0,-10091.0,1.0,3.0,1.0,1.0,9.0,3.0,-1.0,0.0,3.5797863006591797
664,35.0,-5.0,-17.0,-10287.0,2805.0,7272.0,-10093.0,1.0,3.0,1.0,1.0,9.0,3.0,-1.0,0.0,3.5828919410705566
665,35.0,-5.0,-17.0,-10287.0,2805.0,7272.0,-10093.0,1.0,-3.0,2.0,1.0,-2.0,0.0,-1.0,0.0,3.5983262062072754
666,35.0,-5.0,-17.0,-10287.0,2805.0,7272.0,-10093.0,-1.0,0.0,-1.0,-3.0,-1.0,2.0,0.0,0.0,3.60005521774292
667,11.0,-8.0,-13.0,-10287.0,2806.0,7272.0,-10093.0,-1.0,0.0,-1.0,-3.0,-1.0,2.0,0.0,0.0,3.6049160957336426
668,11.0,-8.0,-13.0,-10287.0,2806.0,7272.0,-10093.0,0.0,-2.0,-13.0,-5.0,-5.0,-1.0,-3.0,-1.0,3.6124823093414307
669,11.0,-8.0,-13.0,-10287.0,2806.0,7272.0,-10093.0,-1.0,-2.0,-12.0,-4.0,-5.0,0.0,-1.0,-3.0,3.6205010414123535
670,-23.0,-15.0,-6.0,-10284.0,2809.0,7279.0,-10091.0,-1.0,-2.0,-12.0,-4.0,-5.0,0.0,-1.0,-3.0,3.6222052574157715
671,-23.0,-15.0,-6.0,-10284.0,2809.0,7279.0,-10091.0,-1.0,-1.0,-1.0,2.0,0.0,-3.0,2.0,0.0,3.6371259689331055
672,-23.0,-15.0,-6.0,-10284.0,2809.0,7279.0,-10091.0,-1.0,0.0,3.0,-1.0,-1.0,-3.0,-3.0,-1.0,3.640964984893799
673,17.0,-3.0,-12.0,-10284.0,2807.0,7278.0,-10091.0,-1.0,0.0,3.0,-1.0,-1.0,-3.0,-3.0,-1.0,3.644808292388916
674,17.0,-3.0,-12.0,-10284.0,2807.0,7278.0,-10091.0,0.0,1.0,3.0,0.0,1.0,-1.0,-2.0,1.0,3.658201217651367
675,17.0,-3.0,-12.0,-10284.0,2807.0,7278.0,-10091.0,-2.0,-3.0,-4.0,-9.0,-6.0,-1.0,2.0,-2.0,3.6615798473358154
676,-3.0,-2.0,-14.0,-10284.0,2808.0,7279.0,-10091.0,-2.0,-3.0,-4.0,-9.0,-6.0,-1.0,2.0,-2.0,3.6680355072021484
677,-3.0,-2.0,-14.0,-10284.0,2808.0,7279.0,-10091.0,-3.0,-2.0,-3.0,-3.0,-5.0,-2.0,0.0,-1.0,3.680656671524048
678,-3.0,-2.0,-14.0,-10284.0,2808.0,7279.0,-10091.0,-1.0,1.0,1.0,-1.0,-2.0,-3.0,-1.0,0.0,3.6824088096618652
679,-1.0,-8.0,-8.0,-10284.0,2808.0,7278.0,-10091.0,-1.0,1.0,1.0,-1.0,-2.0,-3.0,-1.0,0.0,3.6874523162841797
680,-1.0,-8.0,-8.0,-10284.0,2808.0,7278.0,-10091.0,-1.0,1.0,1.0,-1.0,-1.0,-1.0,0.0,-2.0,3.6955769062042236
681,-1.0,-8.0,-8.0,-10284.0,2808.0,7278.0,-10091.0,0.0,-3.0,0.0,0.0,-3.0,-3.0,-3.0,1.0,3.704066753387451
682,45.0,-1.0,-15.0,-10287.0,2802.0,7273.0,-10094.0,0.0,-3.0,0.0,0.0,-3.0,-3.0,-3.0,1.0,3.7070069313049316
683,45.0,-1.0,-15.0,-10287.0,2802.0,7273.0,-10094.0,1.0,-1.0,0.0,-5.0,-3.0,1.0,-1.0,0.0,3.7181856632232666
684,45.0,-1.0,-15.0,-10287.0,2802.0,7273.0,-10094.0,-1.0,2.0,-2.0,-4.0,-4.0,-5.0,1.0,-2.0,3.721268892288208
685,21.0,-14.0,-15.0,-10288.0,2797.0,7272.0,-10094.0,-1.0,2.0,-2.0,-4.0,-4.0,-5.0,1.0,-2.0,3.725874185562134
686,21.0,-14.0,-15.0,-10288.0,2797.0,7272.0,-10094.0,-1.0,-2.0,-2.0,-2.0,-3.0,-3.0,-2.0,0.0,3.741853952407837
687,21.0,-14.0,-15.0,-10288.0,2797.0,7272.0,-10094.0,0.0,-2.0,0.0,2.0,-4.0,-1.0,0.0,-4.0,3.745173692703247
688,8.0,-13.0,-18.0,-10289.0,2794.0,7273.0,-10093.0,0.0,-2.0,0.0,2.0,-4.0,-1.0,0.0,-4.0,3.757559061050415
689,8.0,-13.0,-18.0,-10289.0,2794.0,7273.0,-10093.0,0.0,0.0,0.0,1.0,-2.0,-3.0,-1.0,-2.0,3.761155366897583
690,8.0,-13.0,-18.0,-10289.0,2794.0,7273.0,-10093.0,-1.0,-2.0,1.0,2.0,1.0,-1.0,0.0,2.0,3.7642569541931152
691,29.0,1.0,-18.0,-10291.0,2790.0,7271.0,-10094.0,-1.0,-2.0,1.0,2.0,1.0,-1.0,0.0,2.0,3.7673943042755127
692,29.0,1.0,-18.0,-10291.0,2790.0,7271.0,-10094.0,-2.0,1.0,-4.0,-2.0,2.0,3.0,-1.0,-3.0,3.7778425216674805
693,29.0,1.0,-18.0,-10291.0,2790.0,7271.0,-10094.0,0.0,-1.0,-2.0,-2.0,1.0,2.0,-1.0,1.0,3.7797412872314453
694,24.0,13.0,-24.0,-10295.0,2789.0,7268.0,-10093.0,0.0,-1.0,-2.0,-2.0,1.0,2.0,-1.0,1.0,3.784730911254883
695,24.0,13.0,-24.0,-10295.0,2789.0,7268.0,-10093.0,-1.0,-1.0,-1.0,0.0,-1.0,-1.0,-2.0,0.0,3.7925777435302734
696,24.0,13.0,-24.0,-10295.0,2789.0,7268.0,-10093.0,0.0,0.0,-2.0,-2.0,0.0,-2.0,1.0,-1.0,3.809333562850952
697,26.0,23.0,-28.0,-10300.0,2787.0,7265.0,-10091.0,0.0,0.0,-2.0,-2.0,0.0,-2.0,1.0,-1.0,3.812891721725464
698,26.0,23.0,-28.0,-10300.0,2787.0,7265.0,-10091.0,-1.0,-1.0,0.0,1.0,-2.0,-2.0,-2.0,-2.0,3.816711187362671
699,26.0,23.0,-28.0,-10300.0,2787.0,7265.0,-10091.0,-3.0,1.0,0.0,1.0,-2.0,1.0,-1.0,-1.0,3.819715976715088
700,18.0,29.0,-30.0,-10304.0,2788.0,7262.0,-10088.0,-3.0,1.0,0.0,1.0,-2.0,1.0,-1.0,-1.0,3.821509838104248
701,18.0,29.0,-30.0,-10304.0,2788.0,7262.0,-10088.0,-2.0,2.0,1.0,2.0,0.0,1.0,1.0,0.0,3.8392746448516846
702,18.0,29.0,-30.0,-10304.0,2788.0,7262.0,-10088.0,0.0,-1.0,2.0,3.0,0.0,-1.0,-1.0,-1.0,3.8423688411712646
703,20.0,29.0,-26.0,-10309.0,2790.0,7258.0,-10085.0,0.0,-1.0,2.0,3.0,0.0,-1.0,-1.0,-1.0,3.844467878341675
704,20.0,29.0,-26.0,-10309.0,2790.0,7258.0,-10085.0,0.0,-2.0,-2.0,-1.0,1.0,-2.0,-1.0,-2.0,3.852893829345703
705,20.0,29.0,-26.0,-10309.0,2790.0,7258.0,-10085.0,0.0,0.0,-1.0,-2.0,-1.0,1.0,1.0,0.0,3.8600118160247803
706,34.0,30.0,-16.0,-10313.0,2790.0,7253.0,-10085.0,0.0,0.0,-1.0,-2.0,-1.0,1.0,1.0,0.0,3.868237018585205
707,34.0,30.0,-16.0,-10313.0,2790.0,7253.0,-10085.0,-1.0,-1.0,-2.0,-2.0,1.0,1.0,1.0,1.0,3.885989189147949
708,34.0,30.0,-16.0,-10313.0,2790.0,7253.0,-10085.0,-1.0,-2.0,-1.0,-2.0,4.0,0.0,0.0,0.0,3.8903796672821045
709,26.0,32.0,-9.0,-10316.0,2792.0,7246.0,-10086.0,-1.0,-2.0,-1.0,-2.0,4.0,0.0,0.0,0.0,3.89254093170166
710,26.0,32.0,-9.0,-10316.0,2792.0,7246.0,-10086.0,0.0,-3.0,1.0,2.0,-1.0,-2.0,-2.0,-2.0,3.8983230590820312
711,26.0,32.0,-9.0,-10316.0,2792.0,7246.0,-10086.0,-1.0,-4.0,0.0,-1.0,-2.0,-2.0,-2.0,-2.0,3.9000353813171387
712,16.0,17.0,-6.0,-10318.0,2792.0,7242.0,-10087.0,-1.0,-4.0,0.0,-1.0,-2.0,-2.0,-2.0,-2.0,3.9048755168914795
713,16.0,17.0,-6.0,-10318.0,2792.0,7242.0,-10087.0,1.0,1.0,1.0,-1.0,-3.0,-2.0,-2.0,-1.0,3.9127118587493896
714,16.0,17.0,-6.0,-10318.0,2792.0,7242.0,-10087.0,-3.0,0.0,0.0,-2.0,-3.0,-3.0,0.0,-2.0,3.92098069190979
715,6.0,33.0,-17.0,-10323.0,2794.0,7239.0,-10084.0,-3.0,0.0,0.0,-2.0,-3.0,-3.0,0.0,-2.0,3.928687334060669
716,6.0,33.0,-17.0,-10323.0,2794.0,7239.0,-10084.0,-1.0,3.0,0.0,0.0,1.0,-1.0,-1.0,0.0,3.935377359390259
717,6.0,33.0,-17.0,-10323.0,2794.0,7239.0,-10084.0,0.0,0.0,0.0,-1.0,-4.0,-3.0,-3.0,0.0,3.9434733390808105
718,11.0,13.0,-2.0,-10322.0,2795.0,7239.0,-10084.0,0.0,0.0,0.0,-1.0,-4.0,-3.0,-3.0,0.0,3.946554183959961
719,11.0,13.0,-2.0,-10322.0,2795.0,7239.0,-10084.0,-1.0,0.0,-1.0,-7.0,-2.0,0.0,-1.0,-1.0,3.959345579147339
720,11.0,13.0,-2.0,-10322.0,2795.0,7239.0,-10084.0,-2.0,-2.0,-1.0,-1.0,0.0,2.0,0.0,-2.0,3.962653160095215
721,33.0,5.0,-9.0,-10324.0,2792.0,7236.0,-10085.0,-2.0,-2.0,-1.0,-1.0,0.0,2.0,0.0,-2.0,3.9743456840515137
722,33.0,5.0,-9.0,-10324.0,2792.0,7236.0,-10085.0,0.0,-3.0,0.0,-2.0,2.0,0.0,-1.0,0.0,3.9785616397857666
723,33.0,5.0,-9.0,-10324.0,2792.0,7236.0,-10085.0,-1.0,0.0,-3.0,1.0,-3.0,-2.0,-2.0,0.0,3.981515645980835
724,30.0,6.0,-17.0,-10326.0,2791.0,7234.0,-10085.0,-1.0,0.0,-3.0,1.0,-3.0,-2.0,-2.0,0.0,3.9878053665161133
725,30.0,6.0,-17.0,-10326.0,2791.0,7234.0,-10085.0,-1.0,-2.0,-2.0,2.0,0.0,1.0,0.0,0.0,3.9949865341186523
726,30.0,6.0,-17.0,-10326.0,2791.0,7234.0,-10085.0,1.0,-1.0,-1.0,4.0,1.0,-1.0,-1.0,-1.0,4.004297256469727
727,3.0,-6.0,-20.0,-10326.0,2791.0,7236.0,-10084.0,1.0,-1.0,-1.0,4.0,1.0,-1.0,-1.0,-1.0,4.007514953613281
728,3.0,-6.0,-20.0,-10326.0,2791.0,7236.0,-10084.0,-1.0,0.0,-1.0,-1.0,1.0,0.0,-1.0,-1.0,4.018208026885986
729,3.0,-6.0,-20.0,-10326.0,2791.0,7236.0,-10084.0,1.0,-2.0,-2.0,-1.0,-1.0,-2.0,0.0,-2.0,4.021324396133423
730,32.0,8.0,-16.0,-10327.0,2791.0,7233.0,-10084.0,1.0,-2.0,-2.0,-1.0,-1.0,-2.0,0.0,-2.0,4.025827884674072
731,32.0,8.0,-16.0,-10327.0,2791.0,7233.0,-10084.0,0.0,1.0,-1.0,-1.0,-2.0,-2.0,0.0,1.0,4.033586740493774
732,32.0,8.0,-16.0,-10327.0,2791.0,7233.0,-10084.0,0.0,0.0,0.0,1.0,-2.0,2.0,1.0,0.0,4.049111843109131
733,38.0,1.0,-17.0,-10329.0,2787.0,7230.0,-10086.0,0.0,0.0,0.0,1.0,-2.0,2.0,1.0,0.0,4.052461862564087
734,38.0,1.0,-17.0,-10329.0,2787.0,7230.0,-10086.0,1.0,-3.0,2.0,0.0,-1.0,-2.0,0.0,-1.0,4.055934429168701
735,38.0,1.0,-17.0,-10329.0,2787.0,7230.0,-10086.0,-2.0,0.0,-1.0,-1.0,4.0,1.0,1.0,-1.0,4.063843488693237
736,24.0,-12.0,2.0,-10328.0,2785.0,7228.0,-10088.0,-2.0,0.0,-1.0,-1.0,4.0,1.0,1.0,-1.0,4.065742492675781
737,24.0,-12.0,2.0,-10328.0,2785.0,7228.0,-10088.0,-2.0,-1.0,0.0,0.0,-1.0,-1.0,-1.0,0.0,4.086752653121948
738,24.0,-12.0,2.0,-10328.0,2785.0,7228.0,-10088.0,0.0,0.0,-1.0,-5.0,-4.0,-3.0,-3.0,0.0,4.090337753295898
739,59.0,-12.0,-9.0,-10330.0,2776.0,7223.0,-10093.0,0.0,0.0,-1.0,-5.0,-4.0,-3.0,-3.0,0.0,4.0936853885650635
740,59.0,-12.0,-9.0,-10330.0,2776.0,7223.0,-10093.0,1.0,-2.0,1.0,0.0,0.0,0.0,-2.0,0.0,4.101983547210693
741,59.0,-12.0,-9.0,-10330.0,2776.0,7223.0,-10093.0,-1.0,0.0,1.0,0.0,2.0,-3.0,0.0,-2.0,4.104482173919678
742,12.0,-18.0,-23.0,-10332.0,2770.0,7223.0,-10092.0,-1.0,0.0,1.0,0.0,2.0,-3.0,0.0,-2.0,4.107110261917114
743,12.0,-18.0,-23.0,-10332.0,2770.0,7223.0,-10092.0,-2.0,0.0,-1.0,-3.0,-1.0,-2.0,0.0,-2.0,4.1150829792022705
744,12.0,-18.0,-23.0,-10332.0,2770.0,7223.0,-10092.0,0.0,0.0,-3.0,-3.0,-2.0,0.0,-3.0,0.0,4.1233601570129395
745,-19.0,-20.0,-20.0,-10331.0,2770.0,7228.0,-10089.0,0.0,0.0,-3.0,-3.0,-2.0,0.0,-3.0,0.0,4.125127792358398
746,-19.0,-20.0,-20.0,-10331.0,2770.0,7228.0,-10089.0,1.0,-2.0,0.0,0.0,-2.0,-2.0,-2.0,0.0,4.139948844909668
747,-19.0,-20.0,-20.0,-10331.0,2770.0,7228.0,-10089.0,1.0,-2.0,0.0,0.0,0.0,-1.0,0.0,-1.0,4.14347243309021
748,-4.0,-8.0,-13.0,-10331.0,2771.0,7228.0,-10090.0,1.0,-2.0,0.0,0.0,0.0,-1.0,0.0,-1.0,4.1468329429626465
749,-4.0,-8.0,-13.0,-10331.0,2771.0,7228.0,-10090.0,-1.0,-2.0,-2.0,0.0,0.0,0.0,0.0,-1.0,4.162004709243774
750,-4.0,-8.0,-13.0,-10331.0,2771.0,7228.0,-10090.0,-1.0,-2.0,1.0,0.0,-1.0,0.0,-1.0,-1.0,4.164520978927612
751,15.0,-2.0,-14.0,-10331.0,2771.0,7228.0,-10090.0,-1.0,-2.0,1.0,0.0,-1.0,0.0,-1.0,-1.0,4.167005300521851
752,15.0,-2.0,-14.0,-10331.0,2771.0,7228.0,-10090.0,-2.0,0.0,-4.0,-5.0,-1.0,1.0,1.0,-1.0,4.175393581390381
753,15.0,-2.0,-14.0,-10331.0,2771.0,7228.0,-10090.0,-1.0,0.0,-2.0,0.0,-2.0,-1.0,1.0,0.0,4.183394193649292
754,12.0,-7.0,-17.0,-10331.0,2770.0,7229.0,-10089.0,-1.0,0.0,-2.0,0.0,-2.0,-1.0,1.0,0.0,4.1851513385772705
755,12.0,-7.0,-17.0,-10331.0,2770.0,7229.0,-10089.0,-1.0,2.0,-2.0,-1.0,-1.0,-1.0,-1.0,-1.0,4.198506832122803
756,12.0,-7.0,-17.0,-10331.0,2770.0,7229.0,-10089.0,1.0,0.0,1.0,2.0,2.0,-1.0,0.0,1.0,4.201821804046631
757,19.0,-5.0,-22.0,-10333.0,2767.0,7231.0,-10087.0,1.0,0.0,1.0,2.0,2.0,-1.0,0.0,1.0,4.2060441970825195
758,19.0,-5.0,-22.0,-10333.0,2767.0,7231.0,-10087.0,0.0,-2.0,-1.0,2.0,-4.0,-2.0,-2.0,-2.0,4.22199559211731
759,19.0,-5.0,-22.0,-10333.0,2767.0,7231.0,-10087.0,-2.0,-1.0,-2.0,-2.0,0.0,0.0,0.0,-1.0,4.225182294845581
760,8.0,3.0,-25.0,-10336.0,2764.0,7231.0,-10085.0,-2.0,-1.0,-2.0,-2.0,0.0,0.0,0.0,-1.0,4.228295564651489
761,8.0,3.0,-25.0,-10336.0,2764.0,7231.0,-10085.0,0.0,-2.0,-1.0,-1.0,-2.0,-3.0,-2.0,-1.0,4.244198322296143
762,8.0,3.0,-25.0,-10336.0,2764.0,7231.0,-10085.0,1.0,0.0,3.0,0.0,0.0,1.0,1.0,-1.0,4.252035140991211
763,-4.0,14.0,-20.0,-10338.0,2765.0,7232.0,-10081.0,1.0,0.0,3.0,0.0,0.0,1.0,1.0,-1.0,4.255314350128174
764,-4.0,14.0,-20.0,-10338.0,2765.0,7232.0,-10081.0,2.0,1.0,-2.0,-2.0,3.0,1.0,-1.0,-1.0,4.2576470375061035
765,-4.0,14.0,-20.0,-10338.0,2765.0,7232.0,-10081.0,0.0,0.0,-2.0,-1.0,-4.0,-1.0,1.0,-2.0,4.259533882141113
766,-19.0,18.0,-15.0,-10340.0,2769.0,7234.0,-10076.0,0.0,0.0,-2.0,-1.0,-4.0,-1.0,1.0,-2.0,4.264862775802612
767,-19.0,18.0,-15.0,-10340.0,2769.0,7234.0,-10076.0,-2.0,-1.0,-1.0,0.0,-3.0,-1.0,0.0,0.0,4.272609233856201
768,-19.0,18.0,-15.0,-10340.0,2769.0,7234.0,-10076.0,-1.0,-2.0,-1.0,-1.0,0.0,1.0,-2.0,0.0,4.280930042266846
769,-16.0,22.0,-16.0,-10342.0,2773.0,7235.0,-10072.0,-1.0,-2.0,-1.0,-1.0,0.0,1.0,-2.0,0.0,4.297010898590088
770,-16.0,22.0,-16.0,-10342.0,2773.0,7235.0,-10072.0,-1.0,-1.0,-1.0,2.0,-1.0,2.0,1.0,-1.0,4.300979852676392
771,-16.0,22.0,-16.0,-10342.0,2773.0,7235.0,-10072.0,-1.0,0.0,-1.0,0.0,-1.0,-1.0,-4.0,0.0,4.305018186569214
772,-27.0,22.0,-17.0,-10344.0,2779.0,7236.0,-10068.0,-1.0,0.0,-1.0,0.0,-1.0,-1.0,-4.0,0.0,4.309734106063843
773,-27.0,22.0,-17.0,-10344.0,2779.0,7236.0,-10068.0,-1.0,0.0,-2.0,-1.0,2.0,3.0,0.0,-1.0,4.318077087402344
774,-27.0,22.0,-17.0,-10344.0,2779.0,7236.0,-10068.0,0.0,-1.0,-1.0,0.0,0.0,1.0,0.0,-1.0,4.319847822189331
775,-34.0,22.0,-15.0,-10345.0,2787.0,7238.0,-10063.0,0.0,-1.0,-1.0,0.0,0.0,1.0,0.0,-1.0,4.324872732162476
776,-34.0,22.0,-15.0,-10345.0,2787.0,7238.0,-10063.0,0.0,-2.0,0.0,-4.0,-2.0,-2.0,-2.0,-1.0,4.332402944564819
777,-34.0,22.0,-15.0,-10345.0,2787.0,7238.0,-10063.0,2.0,-2.0,-3.0,-2.0,-3.0,-3.0,-1.0,-1.0,4.340009927749634
778,-4.0,26.0,-15.0,-10348.0,2790.0,7237.0,-10060.0,2.0,-2.0,-3.0,-2.0,-3.0,-3.0,-1.0,-1.0,4.348336935043335
779,-4.0,26.0,-15.0,-10348.0,2790.0,7237.0,-10060.0,-2.0,0.0,1.0,-1.0,2.0,-1.0,-1.0,-4.0,4.372828960418701
780,-4.0,26.0,-15.0,-10348.0,2790.0,7237.0,-10060.0,-1.0,-1.0,-1.0,0.0,-3.0,-1.0,0.0,1.0,4.376453638076782
781,-6.0,17.0,-11.0,-10349.0,2795.0,7236.0,-10059.0,-1.0,-1.0,-1.0,0.0,-3.0,-1.0,0.0,1.0,4.380039215087891
782,-6.0,17.0,-11.0,-10349.0,2795.0,7236.0,-10059.0,0.0,-1.0,-1.0,0.0,-1.0,-1.0,-1.0,1.0,4.383383750915527
783,-6.0,17.0,-11.0,-10349.0,2795.0,7236.0,-10059.0,-1.0,-1.0,-1.0,-3.0,-2.0,-2.0,0.0,0.0,4.385420560836792
784,16.0,10.0,-16.0,-10352.0,2793.0,7232.0,-10059.0,-1.0,-1.0,-1.0,-3.0,-2.0,-2.0,0.0,0.0,4.387142181396484
785,16.0,10.0,-16.0,-10352.0,2793.0,7232.0,-10059.0,-2.0,3.0,1.0,0.0,0.0,0.0,-2.0,-2.0,4.392489910125732
786,16.0,10.0,-16.0,-10352.0,2793.0,7232.0,-10059.0,-1.0,0.0,-2.0,0.0,-1.0,-2.0,3.0,-1.0,4.400034427642822
787,10.0,4.0,-19.0,-10354.0,2793.0,7232.0,-10057.0,-1.0,0.0,-2.0,0.0,-1.0,-2.0,3.0,-1.0,4.4082653522491455
788,10.0,4.0,-19.0,-10354.0,2793.0,7232.0,-10057.0,0.0,-2.0,0.0,0.0,-1.0,-1.0,1.0,0.0,4.4161176681518555
789,10.0,4.0,-19.0,-10354.0,2793.0,7232.0,-10057.0,-2.0,-2.0,-1.0,-2.0,1.0,1.0,-3.0,-3.0,4.424063205718994
790,15.0,1.0,-22.0,-10356.0,2791.0,7231.0,-10056.0,-2.0,-2.0,-1.0,-2.0,1.0,1.0,-3.0,-3.0,4.427178382873535
791,15.0,1.0,-22.0,-10356.0,2791.0,7231.0,-10056.0,-1.0,-2.0,-1.0,2.0,-2.0,-1.0,-1.0,-2.0,4.439437389373779
792,15.0,1.0,-22.0,-10356.0,2791.0,7231.0,-10056.0,2.0,0.0,0.0,0.0,0.0,-2.0,-1.0,0.0,4.446571111679077
793,36.0,6.0,-31.0,-10360.0,2787.0,7226.0,-10056.0,2.0,0.0,0.0,0.0,0.0,-2.0,-1.0,0.0,4.449660778045654
794,36.0,6.0,-31.0,-10360.0,2787.0,7226.0,-10056.0,0.0,-2.0,-1.0,0.0,1.0,2.0,0.0,1.0,4.460899114608765
795,36.0,6.0,-31.0,-10360.0,2787.0,7226.0,-10056.0,-3.0,1.0,-3.0,-3.0,-3.0,-2.0,-2.0,0.0,4.462992906570435
796,-2.0,5.0,-30.0,-10363.0,2787.0,7228.0,-10052.0,-3.0,1.0,-3.0,-3.0,-3.0,-2.0,-2.0,0.0,4.468106031417847
797,-2.0,5.0,-30.0,-10363.0,2787.0,7228.0,-10052.0,-2.0,0.0,-3.0,-3.0,3.0,-3.0,-1.0,-1.0,4.475878953933716
798,-2.0,5.0,-30.0,-10363.0,2787.0,7228.0,-10052.0,0.0,-1.0,-1.0,0.0,-5.0,-4.0,-1.0,-2.0,4.483826637268066
799,16.0,2.0,-14.0,-10364.0,2786.0,7228.0,-10051.0,0.0,-1.0,-1.0,0.0,-5.0,-4.0,-1.0,-2.0,4.486660480499268
800,16.0,2.0,-14.0,-10364.0,2786.0,7228.0,-10051.0,-1.0,-2.0,0.0,-4.0,-4.0,-3.0,1.0,0.0,4.498792886734009
801,16.0,2.0,-14.0,-10364.0,2786.0,7228.0,-10051.0,-2.0,0.0,1.0,0.0,0.0,1.0,-3.0,0.0,4.502420663833618
802,35.0,8.0,-18.0,-10366.0,2783.0,7225.0,-10052.0,-2.0,0.0,1.0,0.0,0.0,1.0,-3.0,0.0,4.505990743637085
803,35.0,8.0,-18.0,-10366.0,2783.0,7225.0,-10052.0,-1.0,0.0,-1.0,-1.0,1.0,1.0,-2.0,-1.0,4.514097452163696
804,35.0,8.0,-18.0,-10366.0,2783.0,7225.0,-10052.0,0.0,-1.0,-1.0,-2.0,0.0,-1.0,0.0,0.0,4.528014421463013
805,-6.0,5.0,-25.0,-10369.0,2784.0,7227.0,-10048.0,0.0,-1.0,-1.0,-2.0,0.0,-1.0,0.0,0.0,4.529733419418335
806,-6.0,5.0,-25.0,-10369.0,2784.0,7227.0,-10048.0,1.0,-1.0,1.0,3.0,-3.0,0.0,-3.0,-1.0,4.535885334014893
807,-6.0,5.0,-25.0,-10369.0,2784.0,7227.0,-10048.0,-2.0,-2.0,-1.0,1.0,1.0,1.0,0.0,-1.0,4.544027805328369
808,-16.0,1.0,-16.0,-10368.0,2784.0,7227.0,-10048.0,-2.0,-2.0,-1.0,1.0,1.0,1.0,0.0,-1.0,4.547386407852173
809,-16.0,1.0,-16.0,-10368.0,2784.0,7227.0,-10048.0,-2.0,-4.0,-1.0,0.0,-1.0,0.0,2.0,0.0,4.567863702774048
810,-16.0,1.0,-16.0,-10368.0,2784.0,7227.0,-10048.0,-2.0,-1.0,1.0,1.0,-2.0,-1.0,-2.0,0.0,4.571777105331421
811,29.0,2.0,-10.0,-10368.0,2784.0,7226.0,-10049.0,-2.0,-1.0,1.0,1.0,-2.0,-1.0,-2.0,0.0,4.57566499710083
812,29.0,2.0,-10.0,-10368.0,2784.0,7226.0,-10049.0,0.0,-1.0,1.0,-1.0,-2.0,0.0,1.0,0.0,4.579314470291138
813,29.0,2.0,-10.0,-10368.0,2784.0,7226.0,-10049.0,-1.0,-1.0,1.0,0.0,-1.0,-2.0,1.0,0.0,4.581206560134888
814,33.0,1.0,-10.0,-10369.0,2781.0,7223.0,-10051.0,-1.0,-1.0,1.0,0.0,-1.0,-2.0,1.0,0.0,4.587460517883301
815,33.0,1.0,-10.0,-10369.0,2781.0,7223.0,-10051.0,0.0,-3.0,0.0,-2.0,-2.0,-3.0,-3.0,-1.0,4.604912042617798
816,33.0,1.0,-10.0,-10369.0,2781.0,7223.0,-10051.0,-2.0,1.0,-1.0,-1.0,0.0,1.0,-1.0,-2.0,4.608237266540527
817,6.0,-4.0,-11.0,-10369.0,2782.0,7223.0,-10051.0,-2.0,1.0,-1.0,-1.0,0.0,1.0,-1.0,-2.0,4.611554861068726
818,6.0,-4.0,-11.0,-10369.0,2782.0,7223.0,-10051.0,0.0,-1.0,-1.0,-1.0,0.0,0.0,0.0,-1.0,4.619276285171509
819,6.0,-4.0,-11.0,-10369.0,2782.0,7223.0,-10051.0,0.0,-3.0,1.0,0.0,2.0,-1.0,-1.0,0.0,4.62132716178894
820,-1.0,1.0,-24.0,-10371.0,2782.0,7224.0,-10048.0,0.0,-3.0,1.0,0.0,2.0,-1.0,-1.0,0.0,4.624989748001099
821,-1.0,1.0,-24.0,-10371.0,2782.0,7224.0,-10048.0,-1.0,0.0,-4.0,2.0,1.0,-1.0,0.0,0.0,4.632824897766113
822,-1.0,1.0,-24.0,-10371.0,2782.0,7224.0,-10048.0,1.0,-2.0,1.0,-3.0,-3.0,-1.0,-1.0,-2.0,4.63999605178833
823,-13.0,11.0,-9.0,-10370.0,2783.0,7224.0,-10048.0,1.0,-2.0,1.0,-3.0,-3.0,-1.0,-1.0,-2.0,4.648042440414429
824,-13.0,11.0,-9.0,-10370.0,2783.0,7224.0,-10048.0,0.0,2.0,1.0,0.0,-4.0,2.0,0.0,0.0,4.655791759490967
825,-13.0,11.0,-9.0,-10370.0,2783.0,7224.0,-10048.0,-2.0,-1.0,-3.0,-2.0,1.0,-1.0,0.0,0.0,4.663212299346924
826,9.0,12.0,-19.0,-10373.0,2782.0,7223.0,-10046.0,-2.0,-1.0,-3.0,-2.0,1.0,-1.0,0.0,0.0,4.67081618309021
827,9.0,12.0,-19.0,-10373.0,2782.0,7223.0,-10046.0,0.0,-1.0,1.0,-2.0,-2.0,-1.0,-2.0,-4.0,4.679251670837402
828,9.0,12.0,-19.0,-10373.0,2782.0,7223.0,-10046.0,-1.0,-2.0,-1.0,0.0,-1.0,1.0,0.0,-1.0,4.682388782501221
829,-3.0,16.0,-7.0,-10374.0,2785.0,7223.0,-10044.0,-1.0,-2.0,-1.0,0.0,-1.0,1.0,0.0,-1.0,4.685489177703857
830,-3.0,16.0,-7.0,-10374.0,2785.0,7223.0,-10044.0,-3.0,0.0,-3.0,0.0,0.0,-2.0,-1.0,2.0,4.693566799163818
831,-3.0,16.0,-7.0,-10374.0,2785.0,7223.0,-10044.0,0.0,-1.0,-3.0,-1.0,2.0,0.0,0.0,0.0,4.700004816055298
832,-2.0,22.0,-5.0,-10376.0,2788.0,7221.0,-10043.0,0.0,-1.0,-3.0,-1.0,2.0,0.0,0.0,0.0,4.708297491073608
833,-2.0,22.0,-5.0,-10376.0,2788.0,7221.0,-10043.0,-1.0,0.0,1.0,-1.0,1.0,-2.0,-2.0,1.0,4.716339349746704
834,-2.0,22.0,-5.0,-10376.0,2788.0,7221.0,-10043.0,-1.0,0.0,-2.0,-1.0,-1.0,0.0,0.0,-1.0,4.722551107406616
835,-3.0,25.0,-6.0,-10378.0,2792.0,7218.0,-10042.0,-1.0,0.0,-2.0,-1.0,-1.0,0.0,0.0,-1.0,4.72988486289978
836,-3.0,25.0,-6.0,-10378.0,2792.0,7218.0,-10042.0,0.0,-2.0,-1.0,-1.0,-2.0,-2.0,-2.0,-1.0,4.738892316818237
837,-3.0,25.0,-6.0,-10378.0,2792.0,7218.0,-10042.0,-1.0,1.0,-1.0,-1.0,0.0,0.0,-2.0,-1.0,4.741799354553223
838,-14.0,24.0,-8.0,-10379.0,2799.0,7218.0,-10040.0,-1.0,1.0,-1.0,-1.0,0.0,0.0,-2.0,-1.0,4.744962692260742
839,-14.0,24.0,-8.0,-10379.0,2799.0,7218.0,-10040.0,1.0,1.0,-1.0,-1.0,-1.0,-1.0,1.0,-2.0,4.752696514129639
840,-14.0,24.0,-8.0,-10379.0,2799.0,7218.0,-10040.0,0.0,-1.0,0.0,2.0,5.0,4.0,-1.0,1.0,4.759742259979248
841,-10.0,21.0,-12.0,-10380.0,2803.0,7217.0,-10037.0,0.0,-1.0,0.0,2.0,5.0,4.0,-1.0,1.0,4.768127202987671
842,-10.0,21.0,-12.0,-10380.0,2803.0,7217.0,-10037.0,-1.0,-1.0,0.0,1.0,1.0,0.0,-2.0,-1.0,4.776029825210571
843,-10.0,21.0,-12.0,-10380.0,2803.0,7217.0,-10037.0,-1.0,0.0,0.0,-1.0,-3.0,-2.0,-2.0,-2.0,4.783417701721191
844,-4.0,16.0,-7.0,-10381.0,2807.0,7216.0,-10036.0,-1.0,0.0,0.0,-1.0,-3.0,-2.0,-2.0,-2.0,4.825965404510498
845,-4.0,16.0,-7.0,-10381.0,2807.0,7216.0,-10036.0,1.0,-1.0,-1.0,-2.0,1.0,2.0,-1.0,-1.0,4.830751895904541
846,-4.0,16.0,-7.0,-10381.0,2807.0,7216.0,-10036.0,-1.0,-2.0,-1.0,-1.0,-1.0,-1.0,0.0,0.0,4.833047389984131
847,10.0,-3.0,-11.0,-10381.0,2808.0,7216.0,-10036.0,-1.0,-2.0,-1.0,-1.0,-1.0,-1.0,0.0,0.0,4.835130214691162
848,10.0,-3.0,-11.0,-10381.0,2808.0,7216.0,-10036.0,0.0,0.0,-3.0,0.0,-1.0,-2.0,-1.0,-1.0,4.8372485637664795
849,10.0,-3.0,-11.0,-10381.0,2808.0,7216.0,-10036.0,-1.0,-2.0,0.0,-1.0,-2.0,-1.0,-1.0,-2.0,4.8390209674835205
850,-25.0,8.0,-11.0,-10382.0,2811.0,7219.0,-10033.0,-1.0,-2.0,0.0,-1.0,-2.0,-1.0,-1.0,-2.0,4.840853214263916
851,-25.0,8.0,-11.0,-10382.0,2811.0,7219.0,-10033.0,-2.0,-2.0,0.0,-2.0,-1.0,-1.0,1.0,1.0,4.842798709869385
852,-25.0,8.0,-11.0,-10382.0,2811.0,7219.0,-10033.0,0.0,-2.0,-1.0,0.0,-2.0,-1.0,0.0,-1.0,4.844568729400635
853,25.0,12.0,-3.0,-10382.0,2812.0,7215.0,-10034.0,0.0,-2.0,-1.0,0.0,-2.0,-1.0,0.0,-1.0,4.850570917129517
854,25.0,12.0,-3.0,-10382.0,2812.0,7215.0,-10034.0,0.0,-1.0,1.0,-1.0,-2.0,0.0,0.0,0.0,4.8579254150390625
855,25.0,12.0,-3.0,-10382.0,2812.0,7215.0,-10034.0,-3.0,2.0,-2.0,2.0,-1.0,-1.0,-2.0,-1.0,4.865690469741821
856,16.0,14.0,-7.0,-10384.0,2813.0,7212.0,-10035.0,-3.0,2.0,-2.0,2.0,-1.0,-1.0,-2.0,-1.0,4.868839502334595
857,16.0,14.0,-7.0,-10384.0,2813.0,7212.0,-10035.0,0.0,0.0,0.0,-1.0,-2.0,0.0,0.0,-1.0,4.87303352355957
858,16.0,14.0,-7.0,-10384.0,2813.0,7212.0,-10035.0,0.0,-1.0,1.0,-1.0,-1.0,-2.0,0.0,-1.0,4.87990403175354
859,1.0,9.0,-18.0,-10387.0,2813.0,7211.0,-10033.0,0.0,-1.0,1.0,-1.0,-1.0,-2.0,0.0,-1.0,4.888103723526001
860,1.0,9.0,-18.0,-10387.0,2813.0,7211.0,-10033.0,-1.0,-2.0,-2.0,1.0,1.0,0.0,-2.0,0.0,4.895709991455078
861,1.0,9.0,-18.0,-10387.0,2813.0,7211.0,-10033.0,0.0,-1.0,-4.0,0.0,-3.0,-1.0,-1.0,-1.0,4.9032087326049805
862,-7.0,8.0,-18.0,-10387.0,2816.0,7212.0,-10030.0,0.0,-1.0,-4.0,0.0,-3.0,-1.0,-1.0,-1.0,4.937407970428467
863,-7.0,8.0,-18.0,-10387.0,2816.0,7212.0,-10030.0,-1.0,-1.0,0.0,-3.0,-1.0,-2.0,-2.0,0.0,4.941939115524292
864,-7.0,8.0,-18.0,-10387.0,2816.0,7212.0,-10030.0,-1.0,0.0,-1.0,-1.0,-1.0,-1.0,1.0,-1.0,4.944502830505371
865,11.0,12.0,-9.0,-10387.0,2816.0,7213.0,-10030.0,-1.0,0.0,-1.0,-1.0,-1.0,-1.0,1.0,-1.0,4.947427749633789
866,11.0,12.0,-9.0,-10387.0,2816.0,7213.0,-10030.0,0.0,0.0,-2.0,1.0,-1.0,-3.0,-2.0,-1.0,4.949848890304565
867,11.0,12.0,-9.0,-10387.0,2816.0,7213.0,-10030.0,0.0,0.0,1.0,-2.0,1.0,1.0,-1.0,0.0,4.951804161071777
868,25.0,15.0,-13.0,-10390.0,2815.0,7210.0,-10030.0,0.0,0.0,1.0,-2.0,1.0,1.0,-1.0,0.0,4.953826904296875
869,25.0,15.0,-13.0,-10390.0,2815.0,7210.0,-10030.0,-2.0,-1.0,0.0,0.0,1.0,1.0,0.0,2.0,4.95573353767395
870,25.0,15.0,-13.0,-10390.0,2815.0,7210.0,-10030.0,0.0,-1.0,-1.0,-2.0,-1.0,-2.0,-1.0,0.0,4.962584495544434
871,10.0,18.0,-10.0,-10392.0,2817.0,7207.0,-10029.0,0.0,-1.0,-1.0,-2.0,-1.0,-2.0,-1.0,0.0,4.979488849639893
872,10.0,18.0,-10.0,-10392.0,2817.0,7207.0,-10029.0,1.0,-1.0,0.0,-1.0,-3.0,-3.0,1.0,0.0,4.982591390609741
873,10.0,18.0,-10.0,-10392.0,2817.0,7207.0,-10029.0,1.0,-3.0,-2.0,-1.0,-1.0,-1.0,-2.0,0.0,4.995086431503296
874,13.0,25.0,-18.0,-10395.0,2818.0,7204.0,-10027.0,1.0,-3.0,-2.0,-1.0,-1.0,-1.0,-2.0,0.0,4.998513221740723
875,13.0,25.0,-18.0,-10395.0,2818.0,7204.0,-10027.0,-1.0,-2.0,-1.0,-1.0,-1.0,-1.0,-1.0,-1.0,5.000988006591797
