,Gyro 0,Gyro 1,Gyro 2,Label,Orientation 0,Orientation 1,Orientation 2,Orientation 3,Sensor 0,Sensor 1,Sensor 2,Sensor 3,Sensor 4,Sensor 5,Sensor 6,Sensor 7,Timestamp
0,8.0,-21.0,-89.0,0.0,-550.0,-6625.0,-8517.0,-12318.0,-1.0,-6.0,0.0,-34.0,-7.0,-11.0,-3.0,-1.0,2.1457672119140625e-06
1,8.0,-21.0,-89.0,0.0,-550.0,-6625.0,-8517.0,-12318.0,1.0,3.0,16.0,56.0,11.0,-20.0,2.0,2.0,0.002293109893798828
2,8.0,-21.0,-89.0,0.0,-550.0,-6625.0,-8517.0,-12318.0,0.0,2.0,-1.0,-5.0,23.0,8.0,-2.0,-1.0,0.004229068756103516
3,8.0,-21.0,-89.0,0.0,-550.0,-6625.0,-8517.0,-12318.0,-1.0,-2.0,-3.0,-8.0,30.0,28.0,3.0,3.0,0.007111549377441406
4,8.0,-21.0,-89.0,0.0,-550.0,-6625.0,-8517.0,-12318.0,0.0,0.0,2.0,-68.0,-5.0,5.0,-1.0,0.0,0.00981593132019043
5,8.0,-21.0,-89.0,0.0,-550.0,-6625.0,-8517.0,-12318.0,0.0,-2.0,18.0,75.0,-27.0,8.0,1.0,0.0,0.01194000244140625
6,8.0,-21.0,-89.0,0.0,-550.0,-6625.0,-8517.0,-12318.0,-3.0,-2.0,-5.0,63.0,-2.0,0.0,1.0,-3.0,0.013972759246826172
7,11.0,2.0,-49.0,0.0,-559.0,-6620.0,-8510.0,-12325.0,-3.0,-2.0,-5.0,63.0,-2.0,0.0,1.0,-3.0,0.015856504440307617
8,11.0,2.0,-49.0,0.0,-559.0,-6620.0,-8510.0,-12325.0,-5.0,-3.0,-11.0,-29.0,-3.0,-8.0,-5.0,-5.0,0.01776742935180664
9,11.0,2.0,-49.0,0.0,-559.0,-6620.0,-8510.0,-12325.0,5.0,2.0,-2.0,5.0,1.0,8.0,1.0,0.0,0.020093917846679688
10,40.0,-32.0,-26.0,0.0,-561.0,-6621.0,-8512.0,-12323.0,5.0,2.0,-2.0,5.0,1.0,8.0,1.0,0.0,0.022736310958862305
11,40.0,-32.0,-26.0,0.0,-561.0,-6621.0,-8512.0,-12323.0,-1.0,-1.0,-2.0,34.0,89.0,-2.0,1.0,0.0,0.024950027465820312
12,40.0,-32.0,-26.0,0.0,-561.0,-6621.0,-8512.0,-12323.0,-3.0,-2.0,-21.0,1.0,20.0,-9.0,-6.0,-2.0,0.026829957962036133
13,107.0,-7.0,22.0,0.0,-547.0,-6627.0,-8521.0,-12314.0,-3.0,-2.0,-21.0,1.0,20.0,-9.0,-6.0,-2.0,0.028640031814575195
14,107.0,-7.0,22.0,0.0,-547.0,-6627.0,-8521.0,-12314.0,0.0,-3.0,-4.0,-34.0,-2.0,0.0,-2.0,-4.0,0.030583858489990234
15,107.0,-7.0,22.0,0.0,-547.0,-6627.0,-8521.0,-12314.0,-3.0,-2.0,-1.0,-5.0,-22.0,9.0,4.0,0.0,0.03276824951171875
16,81.0,-41.0,6.0,0.0,-546.0,-6633.0,-8535.0,-12301.0,-3.0,-2.0,-1.0,-5.0,-22.0,9.0,4.0,0.0,0.034837961196899414
17,81.0,-41.0,6.0,0.0,-546.0,-6633.0,-8535.0,-12301.0,1.0,-1.0,-15.0,-65.0,-30.0,-10.0,-4.0,0.0,0.03679347038269043
18,81.0,-41.0,6.0,0.0,-546.0,-6633.0,-8535.0,-12301.0,-2.0,-4.0,-1.0,-9.0,-47.0,-10.0,-3.0,-2.0,0.03860807418823242
19,-21.0,-41.0,21.0,0.0,-546.0,-6641.0,-8527.0,-12302.0,-2.0,-4.0,-1.0,-9.0,-47.0,-10.0,-3.0,-2.0,0.04038882255554199
20,-21.0,-41.0,21.0,0.0,-546.0,-6641.0,-8527.0,-12302.0,-1.0,-3.0,-8.0,-19.0,-25.0,5.0,1.0,-1.0,0.04228520393371582
21,-21.0,-41.0,21.0,0.0,-546.0,-6641.0,-8527.0,-12302.0,-1.0,2.0,19.0,20.0,15.0,-16.0,-3.0,2.0,0.04405713081359863
22,49.0,-14.0,37.0,0.0,-534.0,-6650.0,-8526.0,-12299.0,-1.0,2.0,19.0,20.0,15.0,-16.0,-3.0,2.0,0.04587149620056152
23,49.0,-14.0,37.0,0.0,-534.0,-6650.0,-8526.0,-12299.0,0.0,-1.0,-4.0,8.0,-25.0,-1.0,0.0,-2.0,0.04775571823120117
24,49.0,-14.0,37.0,0.0,-534.0,-6650.0,-8526.0,-12299.0,-1.0,-4.0,-6.0,3.0,13.0,-13.0,0.0,-1.0,0.04955434799194336
25,69.0,-36.0,52.0,0.0,-527.0,-6658.0,-8532.0,-12290.0,-1.0,-4.0,-6.0,3.0,13.0,-13.0,0.0,-1.0,0.05164170265197754
26,69.0,-36.0,52.0,0.0,-527.0,-6658.0,-8532.0,-12290.0,1.0,7.0,10.0,-37.0,15.0,7.0,1.0,1.0,0.05380702018737793
27,69.0,-36.0,52.0,0.0,-527.0,-6658.0,-8532.0,-12290.0,-1.0,-1.0,-16.0,-15.0,-2.0,13.0,-2.0,0.0,0.05582427978515625
28,65.0,-44.0,63.0,0.0,-517.0,-6670.0,-8536.0,-12282.0,-1.0,-1.0,-16.0,-15.0,-2.0,13.0,-2.0,0.0,0.057631492614746094
29,65.0,-44.0,63.0,0.0,-517.0,-6670.0,-8536.0,-12282.0,-4.0,-3.0,-18.0,-83.0,7.0,16.0,-1.0,-3.0,0.05949687957763672
30,65.0,-44.0,63.0,0.0,-517.0,-6670.0,-8536.0,-12282.0,-1.0,0.0,0.0,12.0,-7.0,-8.0,-6.0,-1.0,0.06127738952636719
31,73.0,-45.0,82.0,0.0,-507.0,-6684.0,-8542.0,-12270.0,-1.0,0.0,0.0,12.0,-7.0,-8.0,-6.0,-1.0,0.06304192543029785
32,73.0,-45.0,82.0,0.0,-507.0,-6684.0,-8542.0,-12270.0,0.0,0.0,10.0,41.0,3.0,-4.0,0.0,-2.0,0.06492114067077637
33,73.0,-45.0,82.0,0.0,-507.0,-6684.0,-8542.0,-12270.0,-3.0,-12.0,-10.0,8.0,0.0,5.0,1.0,-1.0,0.0666818618774414
34,9.0,-44.0,66.0,0.0,-505.0,-6694.0,-8542.0,-12265.0,-3.0,-12.0,-10.0,8.0,0.0,5.0,1.0,-1.0,0.06846785545349121
35,9.0,-44.0,66.0,0.0,-505.0,-6694.0,-8542.0,-12265.0,0.0,3.0,10.0,-10.0,-25.0,-13.0,-5.0,0.0,0.07032227516174316
36,9.0,-44.0,66.0,0.0,-505.0,-6694.0,-8542.0,-12265.0,-2.0,-3.0,-13.0,4.0,5.0,-3.0,1.0,1.0,0.07365846633911133
37,-53.0,-23.0,68.0,0.0,-503.0,-6701.0,-8531.0,-12269.0,-2.0,-3.0,-13.0,4.0,5.0,-3.0,1.0,1.0,0.07629609107971191
38,-53.0,-23.0,68.0,0.0,-503.0,-6701.0,-8531.0,-12269.0,-5.0,-12.0,-8.0,30.0,8.0,3.0,-3.0,-3.0,0.07820892333984375
39,-53.0,-23.0,68.0,0.0,-503.0,-6701.0,-8531.0,-12269.0,3.0,4.0,5.0,-16.0,4.0,-12.0,0.0,1.0,0.08001375198364258
40,-30.0,-46.0,77.0,0.0,-502.0,-6713.0,-8523.0,-12268.0,3.0,4.0,5.0,-16.0,4.0,-12.0,0.0,1.0,0.08251118659973145
41,-30.0,-46.0,77.0,0.0,-502.0,-6713.0,-8523.0,-12268.0,3.0,4.0,5.0,-16.0,4.0,-12.0,0.0,1.0,0.08525300025939941
42,-30.0,-46.0,77.0,0.0,-502.0,-6713.0,-8523.0,-12268.0,-2.0,-1.0,0.0,-17.0,-9.0,2.0,0.0,-2.0,0.08699750900268555
43,-30.0,-46.0,77.0,0.0,-502.0,-6713.0,-8523.0,-12268.0,-1.0,2.0,10.0,50.0,13.0,2.0,2.0,-1.0,0.08879446983337402
44,-21.0,-58.0,74.0,0.0,-503.0,-6726.0,-8521.0,-12262.0,-1.0,2.0,10.0,50.0,13.0,2.0,2.0,-1.0,0.09062576293945312
45,-21.0,-58.0,74.0,0.0,-503.0,-6726.0,-8521.0,-12262.0,2.0,-1.0,-12.0,-21.0,-17.0,-23.0,-2.0,2.0,0.09250354766845703
46,-21.0,-58.0,74.0,0.0,-503.0,-6726.0,-8521.0,-12262.0,0.0,4.0,19.0,-2.0,0.0,14.0,2.0,-4.0,0.09453105926513672
47,-81.0,-95.0,60.0,0.0,-513.0,-6740.0,-8508.0,-12263.0,0.0,4.0,19.0,-2.0,0.0,14.0,2.0,-4.0,0.09730911254882812
48,-81.0,-95.0,60.0,0.0,-513.0,-6740.0,-8508.0,-12263.0,5.0,12.0,22.0,21.0,-5.0,-10.0,-2.0,3.0,0.10000038146972656
49,-81.0,-95.0,60.0,0.0,-513.0,-6740.0,-8508.0,-12263.0,4.0,1.0,2.0,-33.0,13.0,6.0,-1.0,1.0,0.10189700126647949
50,-66.0,-118.0,44.0,0.0,-524.0,-6759.0,-8497.0,-12259.0,4.0,1.0,2.0,-33.0,13.0,6.0,-1.0,1.0,0.10381460189819336
51,-66.0,-118.0,44.0,0.0,-524.0,-6759.0,-8497.0,-12259.0,-4.0,-4.0,-14.0,3.0,0.0,2.0,1.0,-1.0,0.10579037666320801
52,-66.0,-118.0,44.0,0.0,-524.0,-6759.0,-8497.0,-12259.0,-2.0,0.0,22.0,23.0,1.0,0.0,0.0,-2.0,0.10762619972229004
53,19.0,-119.0,22.0,0.0,-534.0,-6777.0,-8502.0,-12247.0,-2.0,0.0,22.0,23.0,1.0,0.0,0.0,-2.0,0.10944938659667969
54,19.0,-119.0,22.0,0.0,-534.0,-6777.0,-8502.0,-12247.0,-2.0,1.0,-1.0,-10.0,-4.0,-11.0,-1.0,1.0,0.11180543899536133
55,19.0,-119.0,22.0,0.0,-534.0,-6777.0,-8502.0,-12247.0,0.0,4.0,19.0,-35.0,-5.0,-3.0,0.0,-1.0,0.11391663551330566
56,-2.0,-90.0,9.0,0.0,-542.0,-6789.0,-8502.0,-12239.0,0.0,4.0,19.0,-35.0,-5.0,-3.0,0.0,-1.0,0.11594843864440918
57,-2.0,-90.0,9.0,0.0,-542.0,-6789.0,-8502.0,-12239.0,-1.0,-2.0,-17.0,-5.0,4.0,4.0,-1.0,0.0,0.11816906929016113
58,-2.0,-90.0,9.0,0.0,-542.0,-6789.0,-8502.0,-12239.0,1.0,6.0,5.0,1.0,-3.0,-6.0,0.0,1.0,0.12185263633728027
59,27.0,-64.0,1.0,0.0,-546.0,-6798.0,-8505.0,-12232.0,1.0,6.0,5.0,1.0,-3.0,-6.0,0.0,1.0,0.12376999855041504
60,27.0,-64.0,1.0,0.0,-546.0,-6798.0,-8505.0,-12232.0,-4.0,-1.0,3.0,25.0,4.0,9.0,-1.0,-1.0,0.12570500373840332
61,27.0,-64.0,1.0,0.0,-546.0,-6798.0,-8505.0,-12232.0,1.0,6.0,-23.0,-4.0,-5.0,6.0,2.0,1.0,0.12754249572753906
62,70.0,-80.0,14.0,0.0,-545.0,-6811.0,-8513.0,-12219.0,1.0,6.0,-23.0,-4.0,-5.0,6.0,2.0,1.0,0.12941360473632812
63,70.0,-80.0,14.0,0.0,-545.0,-6811.0,-8513.0,-12219.0,-5.0,-2.0,6.0,15.0,-5.0,0.0,-1.0,-2.0,0.13127541542053223
64,70.0,-80.0,14.0,0.0,-545.0,-6811.0,-8513.0,-12219.0,1.0,2.0,-3.0,-24.0,-18.0,-2.0,-2.0,-1.0,0.13308143615722656
65,70.0,-75.0,34.0,0.0,-542.0,-6824.0,-8518.0,-12208.0,1.0,2.0,-3.0,-24.0,-18.0,-2.0,-2.0,-1.0,0.13494181632995605
66,70.0,-75.0,34.0,0.0,-542.0,-6824.0,-8518.0,-12208.0,-2.0,0.0,1.0,-1.0,-3.0,0.0,-2.0,-4.0,0.13679933547973633
67,70.0,-75.0,34.0,0.0,-542.0,-6824.0,-8518.0,-12208.0,-6.0,-12.0,-21.0,26.0,9.0,6.0,-1.0,-1.0,0.13859033584594727
68,94.0,-69.0,47.0,0.0,-535.0,-6837.0,-8525.0,-12196.0,-6.0,-12.0,-21.0,26.0,9.0,6.0,-1.0,-1.0,0.14036917686462402
69,94.0,-69.0,47.0,0.0,-535.0,-6837.0,-8525.0,-12196.0,-1.0,-3.0,-1.0,-33.0,-4.0,-3.0,-1.0,-2.0,0.14271831512451172
70,94.0,-69.0,47.0,0.0,-535.0,-6837.0,-8525.0,-12196.0,-1.0,-4.0,1.0,1.0,-2.0,1.0,-1.0,-1.0,0.14483213424682617
71,71.0,-36.0,64.0,0.0,-524.0,-6848.0,-8529.0,-12188.0,-1.0,-4.0,1.0,1.0,-2.0,1.0,-1.0,-1.0,0.1468040943145752
72,71.0,-36.0,64.0,0.0,-524.0,-6848.0,-8529.0,-12188.0,3.0,0.0,-6.0,-10.0,-20.0,-12.0,-2.0,1.0,0.14867568016052246
73,71.0,-36.0,64.0,0.0,-524.0,-6848.0,-8529.0,-12188.0,-5.0,-7.0,-14.0,4.0,-10.0,-4.0,-2.0,-3.0,0.15050578117370605
74,34.0,-41.0,72.0,0.0,-516.0,-6860.0,-8528.0,-12183.0,-5.0,-7.0,-14.0,4.0,-10.0,-4.0,-2.0,-3.0,0.1522824764251709
75,34.0,-41.0,72.0,0.0,-516.0,-6860.0,-8528.0,-12183.0,1.0,-1.0,-9.0,6.0,6.0,-3.0,2.0,2.0,0.15415191650390625
76,34.0,-41.0,72.0,0.0,-516.0,-6860.0,-8528.0,-12183.0,-1.0,-3.0,2.0,-2.0,-4.0,-6.0,-2.0,0.0,0.1559293270111084
77,13.0,-40.0,65.0,0.0,-510.0,-6870.0,-8524.0,-12179.0,-1.0,-3.0,2.0,-2.0,-4.0,-6.0,-2.0,0.0,0.15780925750732422
78,13.0,-40.0,65.0,0.0,-510.0,-6870.0,-8524.0,-12179.0,1.0,1.0,13.0,19.0,6.0,6.0,0.0,0.0,0.16160941123962402
79,13.0,-40.0,65.0,0.0,-510.0,-6870.0,-8524.0,-12179.0,-1.0,2.0,-10.0,-11.0,4.0,-3.0,-2.0,-1.0,0.16367101669311523
80,-2.0,-35.0,61.0,0.0,-507.0,-6880.0,-8520.0,-12177.0,-1.0,2.0,-10.0,-11.0,4.0,-3.0,-2.0,-1.0,0.16553616523742676
81,-2.0,-35.0,61.0,0.0,-507.0,-6880.0,-8520.0,-12177.0,-1.0,2.0,-10.0,-11.0,4.0,-3.0,-2.0,-1.0,0.16744709014892578
82,-2.0,-35.0,61.0,0.0,-507.0,-6880.0,-8520.0,-12177.0,0.0,-4.0,-4.0,-38.0,-6.0,-1.0,-2.0,0.0,0.16912126541137695
83,-2.0,-35.0,61.0,0.0,-507.0,-6880.0,-8520.0,-12177.0,-1.0,-3.0,-11.0,-2.0,0.0,1.0,1.0,-3.0,0.17092633247375488
84,4.0,-17.0,72.0,0.0,-500.0,-6888.0,-8518.0,-12175.0,-1.0,-3.0,-11.0,-2.0,0.0,1.0,1.0,-3.0,0.17314457893371582
85,4.0,-17.0,72.0,0.0,-500.0,-6888.0,-8518.0,-12175.0,1.0,9.0,20.0,29.0,5.0,-5.0,-2.0,0.0,0.1753838062286377
86,4.0,-17.0,72.0,0.0,-500.0,-6888.0,-8518.0,-12175.0,4.0,1.0,6.0,12.0,3.0,3.0,1.0,3.0,0.17737221717834473
87,16.0,-2.0,65.0,0.0,-493.0,-6892.0,-8518.0,-12172.0,4.0,1.0,6.0,12.0,3.0,3.0,1.0,3.0,0.17920184135437012
88,16.0,-2.0,65.0,0.0,-493.0,-6892.0,-8518.0,-12172.0,-3.0,-3.0,8.0,-47.0,-5.0,6.0,3.0,-3.0,0.18111324310302734
89,16.0,-2.0,65.0,0.0,-493.0,-6892.0,-8518.0,-12172.0,0.0,4.0,4.0,-14.0,-8.0,-6.0,0.0,0.0,0.18331289291381836
90,21.0,-9.0,56.0,0.0,-486.0,-6899.0,-8519.0,-12168.0,0.0,4.0,4.0,-14.0,-8.0,-6.0,0.0,0.0,0.1853952407836914
91,21.0,-9.0,56.0,0.0,-486.0,-6899.0,-8519.0,-12168.0,-1.0,-5.0,-11.0,20.0,2.0,2.0,0.0,-2.0,0.1873455047607422
92,21.0,-9.0,56.0,0.0,-486.0,-6899.0,-8519.0,-12168.0,-3.0,-3.0,0.0,14.0,-4.0,-1.0,-1.0,0.0,0.18920636177062988
93,26.0,-13.0,38.0,0.0,-482.0,-6903.0,-8521.0,-12164.0,-3.0,-3.0,0.0,14.0,-4.0,-1.0,-1.0,0.0,0.1910252571105957
94,26.0,-13.0,38.0,0.0,-482.0,-6903.0,-8521.0,-12164.0,1.0,-2.0,-9.0,5.0,5.0,0.0,-1.0,-1.0,0.19294285774230957
95,26.0,-13.0,38.0,0.0,-482.0,-6903.0,-8521.0,-12164.0,-4.0,-7.0,-6.0,21.0,8.0,2.0,-1.0,-2.0,0.19477128982543945
96,5.0,15.0,38.0,0.0,-477.0,-6903.0,-8522.0,-12164.0,-4.0,-7.0,-6.0,21.0,8.0,2.0,-1.0,-2.0,0.1965930461883545
97,5.0,15.0,38.0,0.0,-477.0,-6903.0,-8522.0,-12164.0,-2.0,-4.0,-2.0,10.0,2.0,3.0,-1.0,-2.0,0.19848108291625977
98,5.0,15.0,38.0,0.0,-477.0,-6903.0,-8522.0,-12164.0,0.0,2.0,-5.0,10.0,1.0,2.0,1.0,1.0,0.20071816444396973
99,4.0,-9.0,23.0,0.0,-477.0,-6905.0,-8522.0,-12162.0,0.0,2.0,-5.0,10.0,1.0,2.0,1.0,1.0,0.20284795761108398
100,4.0,-9.0,23.0,0.0,-477.0,-6905.0,-8522.0,-12162.0,-2.0,-6.0,-20.0,26.0,-3.0,-10.0,-2.0,0.0,0.20504021644592285
101,4.0,-9.0,23.0,0.0,-477.0,-6905.0,-8522.0,-12162.0,3.0,0.0,10.0,5.0,-5.0,1.0,-1.0,0.0,0.20710086822509766
102,23.0,-9.0,13.0,0.0,-476.0,-6906.0,-8528.0,-12158.0,3.0,0.0,10.0,5.0,-5.0,1.0,-1.0,0.0,0.20896124839782715
103,23.0,-9.0,13.0,0.0,-476.0,-6906.0,-8528.0,-12158.0,-1.0,-2.0,-11.0,18.0,-12.0,12.0,1.0,1.0,0.21087884902954102
104,23.0,-9.0,13.0,0.0,-476.0,-6906.0,-8528.0,-12158.0,1.0,5.0,16.0,-1.0,-2.0,-6.0,-2.0,-2.0,0.21279001235961914
105,-13.0,-6.0,8.0,0.0,-477.0,-6906.0,-8528.0,-12158.0,1.0,5.0,16.0,-1.0,-2.0,-6.0,-2.0,-2.0,0.2146625518798828
106,-13.0,-6.0,8.0,0.0,-477.0,-6906.0,-8528.0,-12158.0,0.0,0.0,-2.0,-17.0,3.0,0.0,1.0,2.0,0.21653199195861816
107,-13.0,-6.0,8.0,0.0,-477.0,-6906.0,-8528.0,-12158.0,0.0,-3.0,-5.0,-11.0,-4.0,-3.0,-1.0,-2.0,0.21834492683410645
108,-21.0,0.0,9.0,0.0,-478.0,-6907.0,-8526.0,-12159.0,0.0,-3.0,-5.0,-11.0,-4.0,-3.0,-1.0,-2.0,0.220109224319458
109,-21.0,0.0,9.0,0.0,-478.0,-6907.0,-8526.0,-12159.0,-1.0,3.0,7.0,-1.0,0.0,3.0,-1.0,-2.0,0.22314095497131348
110,-21.0,0.0,9.0,0.0,-478.0,-6907.0,-8526.0,-12159.0,0.0,-3.0,-2.0,-6.0,-8.0,-7.0,-4.0,-3.0,0.22600078582763672
111,-18.0,-3.0,7.0,0.0,-479.0,-6908.0,-8525.0,-12159.0,0.0,-3.0,-2.0,-6.0,-8.0,-7.0,-4.0,-3.0,0.2278430461883545
112,-18.0,-3.0,7.0,0.0,-479.0,-6908.0,-8525.0,-12159.0,2.0,3.0,7.0,10.0,-2.0,-1.0,1.0,0.0,0.22974491119384766
113,-18.0,-3.0,7.0,0.0,-479.0,-6908.0,-8525.0,-12159.0,-2.0,-2.0,-3.0,-5.0,4.0,2.0,-1.0,1.0,0.2315213680267334
114,-18.0,15.0,3.0,0.0,-480.0,-6906.0,-8524.0,-12161.0,-2.0,-2.0,-3.0,-5.0,4.0,2.0,-1.0,1.0,0.23337078094482422
115,-18.0,15.0,3.0,0.0,-480.0,-6906.0,-8524.0,-12161.0,4.0,6.0,20.0,-55.0,0.0,-9.0,-1.0,2.0,0.23590564727783203
116,-18.0,15.0,3.0,0.0,-480.0,-6906.0,-8524.0,-12161.0,0.0,-1.0,-12.0,-31.0,-4.0,-1.0,0.0,2.0,0.23826265335083008
117,9.0,16.0,3.0,0.0,-478.0,-6904.0,-8528.0,-12159.0,0.0,-1.0,-12.0,-31.0,-4.0,-1.0,0.0,2.0,0.2400803565979004
118,9.0,16.0,3.0,0.0,-478.0,-6904.0,-8528.0,-12159.0,-4.0,-4.0,10.0,28.0,7.0,4.0,-1.0,-3.0,0.24195528030395508
119,9.0,16.0,3.0,0.0,-478.0,-6904.0,-8528.0,-12159.0,-4.0,-4.0,-12.0,-1.0,8.0,4.0,1.0,0.0,0.24375057220458984
120,11.0,23.0,4.0,0.0,-476.0,-6902.0,-8531.0,-12158.0,-4.0,-4.0,-12.0,-1.0,8.0,4.0,1.0,0.0,0.2460017204284668
121,11.0,23.0,4.0,0.0,-476.0,-6902.0,-8531.0,-12158.0,-1.0,2.0,6.0,9.0,1.0,6.0,2.0,1.0,0.24816441535949707
122,11.0,23.0,4.0,0.0,-476.0,-6902.0,-8531.0,-12158.0,-6.0,-8.0,0.0,13.0,1.0,-14.0,-3.0,-4.0,0.2500917911529541
123,5.0,23.0,0.0,0.0,-474.0,-6898.0,-8534.0,-12159.0,-6.0,-8.0,0.0,13.0,1.0,-14.0,-3.0,-4.0,0.2518908977508545
124,5.0,23.0,0.0,0.0,-474.0,-6898.0,-8534.0,-12159.0,-4.0,-10.0,-9.0,19.0,6.0,-2.0,-2.0,-3.0,0.2537684440612793
125,5.0,23.0,0.0,0.0,-474.0,-6898.0,-8534.0,-12159.0,1.0,8.0,7.0,3.0,2.0,6.0,1.0,1.0,0.2555501461029053
126,5.0,22.0,2.0,0.0,-472.0,-6895.0,-8535.0,-12160.0,1.0,8.0,7.0,3.0,2.0,6.0,1.0,1.0,0.2573275566101074
127,5.0,22.0,2.0,0.0,-472.0,-6895.0,-8535.0,-12160.0,1.0,-3.0,-13.0,-1.0,-5.0,4.0,-4.0,0.0,0.25919532775878906
128,5.0,22.0,2.0,0.0,-472.0,-6895.0,-8535.0,-12160.0,1.0,-3.0,5.0,13.0,-2.0,4.0,-2.0,-1.0,0.26097798347473145
129,15.0,18.0,-2.0,0.0,-469.0,-6892.0,-8537.0,-12160.0,1.0,-3.0,5.0,13.0,-2.0,4.0,-2.0,-1.0,0.2627522945404053
130,15.0,18.0,-2.0,0.0,-469.0,-6892.0,-8537.0,-12160.0,-1.0,-1.0,-2.0,7.0,-4.0,-3.0,0.0,-1.0,0.2647693157196045
131,15.0,18.0,-2.0,0.0,-469.0,-6892.0,-8537.0,-12160.0,2.0,-2.0,-1.0,0.0,5.0,0.0,-2.0,3.0,0.2676832675933838
132,26.0,14.0,-8.0,0.0,-467.0,-6890.0,-8541.0,-12158.0,2.0,-2.0,-1.0,0.0,5.0,0.0,-2.0,3.0,0.26953840255737305
133,26.0,14.0,-8.0,0.0,-467.0,-6890.0,-8541.0,-12158.0,3.0,7.0,11.0,5.0,0.0,-2.0,2.0,2.0,0.2714083194732666
134,26.0,14.0,-8.0,0.0,-467.0,-6890.0,-8541.0,-12158.0,-1.0,5.0,15.0,9.0,-3.0,3.0,2.0,0.0,0.27320051193237305
135,15.0,16.0,-14.0,0.0,-468.0,-6885.0,-8546.0,-12158.0,-1.0,5.0,15.0,9.0,-3.0,3.0,2.0,0.0,0.274993896484375
136,15.0,16.0,-14.0,0.0,-468.0,-6885.0,-8546.0,-12158.0,-3.0,-4.0,-10.0,-1.0,0.0,-4.0,-4.0,-3.0,0.27686262130737305
137,15.0,16.0,-14.0,0.0,-468.0,-6885.0,-8546.0,-12158.0,-2.0,-2.0,-11.0,-7.0,0.0,1.0,2.0,0.0,0.2786390781402588
138,-18.0,12.0,-8.0,0.0,-470.0,-6881.0,-8544.0,-12161.0,-2.0,-2.0,-11.0,-7.0,0.0,1.0,2.0,0.0,0.2804083824157715
139,-18.0,12.0,-8.0,0.0,-470.0,-6881.0,-8544.0,-12161.0,-2.0,1.0,-22.0,-14.0,-2.0,-8.0,-3.0,0.0,0.2822692394256592
140,-18.0,12.0,-8.0,0.0,-470.0,-6881.0,-8544.0,-12161.0,-4.0,-4.0,7.0,-4.0,-1.0,-2.0,-4.0,-7.0,0.2841663360595703
141,-1.0,18.0,-6.0,0.0,-471.0,-6877.0,-8546.0,-12162.0,-4.0,-4.0,7.0,-4.0,-1.0,-2.0,-4.0,-7.0,0.28644824028015137
142,-1.0,18.0,-6.0,0.0,-471.0,-6877.0,-8546.0,-12162.0,2.0,2.0,-3.0,-4.0,0.0,3.0,1.0,0.0,0.28861021995544434
143,-1.0,18.0,-6.0,0.0,-471.0,-6877.0,-8546.0,-12162.0,1.0,-1.0,-4.0,-14.0,-4.0,-3.0,0.0,1.0,0.2905120849609375
144,9.0,17.0,0.0,0.0,-470.0,-6875.0,-8551.0,-12160.0,1.0,-1.0,-4.0,-14.0,-4.0,-3.0,0.0,1.0,0.29237890243530273
145,9.0,17.0,0.0,0.0,-470.0,-6875.0,-8551.0,-12160.0,-5.0,-5.0,9.0,-10.0,-5.0,-3.0,-1.0,-1.0,0.29425621032714844
146,9.0,17.0,0.0,0.0,-470.0,-6875.0,-8551.0,-12160.0,0.0,-4.0,-6.0,13.0,2.0,-1.0,1.0,-1.0,0.296375036239624
147,-9.0,22.0,6.0,0.0,-470.0,-6872.0,-8553.0,-12160.0,0.0,-4.0,-6.0,13.0,2.0,-1.0,1.0,-1.0,0.2985053062438965
148,-9.0,22.0,6.0,0.0,-470.0,-6872.0,-8553.0,-12160.0,4.0,3.0,2.0,-43.0,-10.0,-9.0,-4.0,-6.0,0.3005220890045166
149,-9.0,22.0,6.0,0.0,-470.0,-6872.0,-8553.0,-12160.0,-1.0,0.0,8.0,12.0,-1.0,0.0,0.0,-2.0,0.30236005783081055
150,-19.0,24.0,12.0,0.0,-470.0,-6870.0,-8552.0,-12162.0,-1.0,0.0,8.0,12.0,-1.0,0.0,0.0,-2.0,0.30422091484069824
151,-19.0,24.0,12.0,0.0,-470.0,-6870.0,-8552.0,-12162.0,-5.0,0.0,-4.0,17.0,1.0,0.0,1.0,0.0,0.30617570877075195
152,-19.0,24.0,12.0,0.0,-470.0,-6870.0,-8552.0,-12162.0,2.0,4.0,8.0,-13.0,-1.0,2.0,0.0,2.0,0.30857038497924805
153,-11.0,18.0,15.0,0.0,-466.0,-6870.0,-8552.0,-12162.0,2.0,4.0,8.0,-13.0,-1.0,2.0,0.0,2.0,0.31067323684692383
154,-11.0,18.0,15.0,0.0,-466.0,-6870.0,-8552.0,-12162.0,-1.0,0.0,-3.0,9.0,4.0,4.0,0.0,-1.0,0.31298303604125977
155,-11.0,18.0,15.0,0.0,-466.0,-6870.0,-8552.0,-12162.0,0.0,-4.0,-8.0,4.0,-3.0,-12.0,-3.0,0.0,0.3149230480194092
156,-4.0,35.0,9.0,0.0,-462.0,-6868.0,-8554.0,-12162.0,0.0,-4.0,-8.0,4.0,-3.0,-12.0,-3.0,0.0,0.31671953201293945
157,-4.0,35.0,9.0,0.0,-462.0,-6868.0,-8554.0,-12162.0,-2.0,-4.0,-22.0,-5.0,-1.0,-3.0,-1.0,0.0,0.318603515625
158,-4.0,35.0,9.0,0.0,-462.0,-6868.0,-8554.0,-12162.0,4.0,5.0,5.0,2.0,0.0,3.0,1.0,-1.0,0.3203854560852051
159,12.0,45.0,5.0,0.0,-456.0,-6865.0,-8557.0,-12162.0,4.0,5.0,5.0,2.0,0.0,3.0,1.0,-1.0,0.32219958305358887
160,12.0,45.0,5.0,0.0,-456.0,-6865.0,-8557.0,-12162.0,1.0,-3.0,6.0,8.0,2.0,1.0,2.0,0.0,0.3240940570831299
161,12.0,45.0,5.0,0.0,-456.0,-6865.0,-8557.0,-12162.0,-2.0,0.0,-16.0,-14.0,-4.0,2.0,-1.0,0.0,0.32602643966674805
162,33.0,40.0,7.0,0.0,-450.0,-6861.0,-8565.0,-12159.0,-2.0,0.0,-16.0,-14.0,-4.0,2.0,-1.0,0.0,0.3287813663482666
163,33.0,40.0,7.0,0.0,-450.0,-6861.0,-8565.0,-12159.0,-3.0,1.0,-1.0,11.0,1.0,-3.0,-1.0,-2.0,0.33147406578063965
164,33.0,40.0,7.0,0.0,-450.0,-6861.0,-8565.0,-12159.0,0.0,-6.0,-5.0,-1.0,0.0,-2.0,-2.0,2.0,0.3336782455444336
165,21.0,22.0,10.0,0.0,-446.0,-6861.0,-8571.0,-12154.0,0.0,-6.0,-5.0,-1.0,0.0,-2.0,-2.0,2.0,0.3357217311859131
166,21.0,22.0,10.0,0.0,-446.0,-6861.0,-8571.0,-12154.0,-4.0,-1.0,-8.0,6.0,0.0,-2.0,0.0,-1.0,0.33768153190612793
167,21.0,22.0,10.0,0.0,-446.0,-6861.0,-8571.0,-12154.0,-4.0,-4.0,-3.0,0.0,-1.0,0.0,-1.0,0.0,0.33950304985046387
168,13.0,14.0,8.0,0.0,-446.0,-6861.0,-8572.0,-12153.0,-4.0,-4.0,-3.0,0.0,-1.0,0.0,-1.0,0.0,0.34133148193359375
169,13.0,14.0,8.0,0.0,-446.0,-6861.0,-8572.0,-12153.0,-3.0,-4.0,6.0,-8.0,-5.0,-1.0,-2.0,-5.0,0.3431820869445801
170,13.0,14.0,8.0,0.0,-446.0,-6861.0,-8572.0,-12153.0,7.0,13.0,30.0,-1.0,1.0,-4.0,0.0,4.0,0.34506797790527344
171,11.0,-4.0,17.0,0.0,-445.0,-6865.0,-8578.0,-12148.0,7.0,13.0,30.0,-1.0,1.0,-4.0,0.0,4.0,0.346874475479126
172,11.0,-4.0,17.0,0.0,-445.0,-6865.0,-8578.0,-12148.0,1.0,-4.0,-4.0,-3.0,0.0,1.0,-1.0,1.0,0.3492765426635742
173,11.0,-4.0,17.0,0.0,-445.0,-6865.0,-8578.0,-12148.0,-4.0,-6.0,-9.0,-9.0,-1.0,4.0,-2.0,-4.0,0.35141563415527344
174,48.0,-11.0,25.0,0.0,-439.0,-6872.0,-8587.0,-12137.0,-4.0,-6.0,-9.0,-9.0,-1.0,4.0,-2.0,-4.0,0.35340332984924316
175,48.0,-11.0,25.0,0.0,-439.0,-6872.0,-8587.0,-12137.0,2.0,9.0,26.0,4.0,-3.0,-4.0,-1.0,2.0,0.3553323745727539
176,48.0,-11.0,25.0,0.0,-439.0,-6872.0,-8587.0,-12137.0,-4.0,1.0,2.0,2.0,0.0,1.0,0.0,-4.0,0.3576014041900635
177,42.0,6.0,19.0,0.0,-433.0,-6876.0,-8595.0,-12129.0,-4.0,1.0,2.0,2.0,0.0,1.0,0.0,-4.0,0.35982251167297363
178,42.0,6.0,19.0,0.0,-433.0,-6876.0,-8595.0,-12129.0,-2.0,-10.0,-13.0,5.0,4.0,6.0,-3.0,-1.0,0.36197495460510254
179,42.0,6.0,19.0,0.0,-433.0,-6876.0,-8595.0,-12129.0,-2.0,-5.0,-4.0,0.0,-1.0,-1.0,1.0,0.0,0.36380600929260254
180,50.0,-2.0,7.0,0.0,-427.0,-6881.0,-8605.0,-12120.0,-2.0,-5.0,-4.0,0.0,-1.0,-1.0,1.0,0.0,0.3657224178314209
181,50.0,-2.0,7.0,0.0,-427.0,-6881.0,-8605.0,-12120.0,1.0,4.0,-20.0,-14.0,-4.0,1.0,0.0,0.0,0.3676292896270752
182,50.0,-2.0,7.0,0.0,-427.0,-6881.0,-8605.0,-12120.0,3.0,-5.0,-17.0,-12.0,-3.0,2.0,0.0,0.0,0.36948370933532715
183,40.0,-17.0,-12.0,0.0,-426.0,-6886.0,-8614.0,-12110.0,3.0,-5.0,-17.0,-12.0,-3.0,2.0,0.0,0.0,0.37132811546325684
184,40.0,-17.0,-12.0,0.0,-426.0,-6886.0,-8614.0,-12110.0,4.0,7.0,17.0,10.0,0.0,-2.0,0.0,2.0,0.37363314628601074
185,40.0,-17.0,-12.0,0.0,-426.0,-6886.0,-8614.0,-12110.0,-6.0,-2.0,-4.0,1.0,0.0,0.0,-1.0,-1.0,0.37566375732421875
186,44.0,-32.0,-32.0,0.0,-430.0,-6889.0,-8625.0,-12101.0,-6.0,-2.0,-4.0,1.0,0.0,0.0,-1.0,-1.0,0.3775472640991211
187,44.0,-32.0,-32.0,0.0,-430.0,-6889.0,-8625.0,-12101.0,6.0,14.0,38.0,0.0,-3.0,0.0,1.0,2.0,0.37941861152648926
188,44.0,-32.0,-32.0,0.0,-430.0,-6889.0,-8625.0,-12101.0,2.0,1.0,-12.0,-9.0,-7.0,-18.0,-2.0,-2.0,0.3812291622161865
189,47.0,-32.0,-50.0,0.0,-437.0,-6889.0,-8636.0,-12093.0,2.0,1.0,-12.0,-9.0,-7.0,-18.0,-2.0,-2.0,0.38302016258239746
190,47.0,-32.0,-50.0,0.0,-437.0,-6889.0,-8636.0,-12093.0,-2.0,-6.0,-10.0,4.0,1.0,-2.0,-1.0,2.0,0.3848872184753418
191,47.0,-32.0,-50.0,0.0,-437.0,-6889.0,-8636.0,-12093.0,-5.0,-3.0,-2.0,0.0,2.0,6.0,0.0,-6.0,0.38671374320983887
192,48.0,-20.0,-58.0,0.0,-445.0,-6885.0,-8649.0,-12085.0,-5.0,-3.0,-2.0,0.0,2.0,6.0,0.0,-6.0,0.3889124393463135
193,48.0,-20.0,-58.0,0.0,-445.0,-6885.0,-8649.0,-12085.0,1.0,-6.0,0.0,0.0,-1.0,1.0,1.0,-1.0,0.3910346031188965
194,48.0,-20.0,-58.0,0.0,-445.0,-6885.0,-8649.0,-12085.0,-1.0,3.0,-10.0,0.0,1.0,-4.0,1.0,0.0,0.3930234909057617
195,40.0,-14.0,-59.0,0.0,-454.0,-6878.0,-8660.0,-12081.0,-1.0,3.0,-10.0,0.0,1.0,-4.0,1.0,0.0,0.3950016498565674
196,40.0,-14.0,-59.0,0.0,-454.0,-6878.0,-8660.0,-12081.0,5.0,-3.0,2.0,3.0,-3.0,3.0,-1.0,0.0,0.39893150329589844
197,40.0,-14.0,-59.0,0.0,-454.0,-6878.0,-8660.0,-12081.0,2.0,2.0,13.0,-1.0,-4.0,3.0,2.0,0.0,0.40100669860839844
198,10.0,0.0,-45.0,0.0,-463.0,-6871.0,-8668.0,-12079.0,2.0,2.0,13.0,-1.0,-4.0,3.0,2.0,0.0,0.40282201766967773
199,10.0,0.0,-45.0,0.0,-463.0,-6871.0,-8668.0,-12079.0,-8.0,-4.0,5.0,5.0,2.0,-2.0,-2.0,-3.0,0.4047083854675293
200,10.0,0.0,-45.0,0.0,-463.0,-6871.0,-8668.0,-12079.0,2.0,7.0,14.0,9.0,0.0,1.0,-2.0,1.0,0.4065711498260498
201,-9.0,10.0,-20.0,0.0,-466.0,-6867.0,-8669.0,-12080.0,2.0,7.0,14.0,9.0,0.0,1.0,-2.0,1.0,0.40834760665893555
202,-9.0,10.0,-20.0,0.0,-466.0,-6867.0,-8669.0,-12080.0,-10.0,-11.0,-9.0,-8.0,-2.0,-1.0,-1.0,-4.0,0.41067051887512207
203,-9.0,10.0,-20.0,0.0,-466.0,-6867.0,-8669.0,-12080.0,2.0,9.0,-7.0,-8.0,0.0,8.0,-2.0,-1.0,0.4127075672149658
204,10.0,6.0,0.0,0.0,-466.0,-6868.0,-8669.0,-12080.0,2.0,9.0,-7.0,-8.0,0.0,8.0,-2.0,-1.0,0.41457653045654297
205,10.0,6.0,0.0,0.0,-466.0,-6868.0,-8669.0,-12080.0,-1.0,-3.0,-23.0,-6.0,0.0,-3.0,0.0,-1.0,0.41646552085876465
206,10.0,6.0,0.0,0.0,-466.0,-6868.0,-8669.0,-12080.0,2.0,-6.0,-5.0,1.0,-1.0,0.0,-1.0,1.0,0.430694580078125
207,-5.0,9.0,23.0,0.0,-462.0,-6871.0,-8670.0,-12078.0,2.0,-6.0,-5.0,1.0,-1.0,0.0,-1.0,1.0,0.4324781894683838
208,-5.0,9.0,23.0,0.0,-462.0,-6871.0,-8670.0,-12078.0,1.0,2.0,-5.0,2.0,1.0,0.0,-1.0,1.0,0.4343678951263428
209,-5.0,9.0,23.0,0.0,-462.0,-6871.0,-8670.0,-12078.0,0.0,1.0,12.0,4.0,4.0,2.0,1.0,1.0,0.4449784755706787
210,-19.0,6.0,48.0,0.0,-455.0,-6879.0,-8667.0,-12075.0,0.0,1.0,12.0,4.0,4.0,2.0,1.0,1.0,0.4467647075653076
211,-19.0,6.0,48.0,0.0,-455.0,-6879.0,-8667.0,-12075.0,-1.0,-4.0,16.0,4.0,-1.0,-9.0,-1.0,0.0,0.45255446434020996
212,-19.0,6.0,48.0,0.0,-455.0,-6879.0,-8667.0,-12075.0,-3.0,-1.0,2.0,7.0,-2.0,-1.0,0.0,-3.0,0.4680497646331787
213,-14.0,-9.0,58.0,0.0,-446.0,-6891.0,-8664.0,-12071.0,-3.0,-1.0,2.0,7.0,-2.0,-1.0,0.0,-3.0,0.46987390518188477
214,-14.0,-9.0,58.0,0.0,-446.0,-6891.0,-8664.0,-12071.0,1.0,4.0,6.0,6.0,0.0,0.0,0.0,0.0,0.4747304916381836
215,-14.0,-9.0,58.0,0.0,-446.0,-6891.0,-8664.0,-12071.0,-1.0,0.0,24.0,3.0,-2.0,-1.0,-2.0,1.0,0.4828479290008545
216,-12.0,-36.0,34.0,0.0,-440.0,-6909.0,-8661.0,-12064.0,-1.0,0.0,24.0,3.0,-2.0,-1.0,-2.0,1.0,0.4902608394622803
217,-12.0,-36.0,34.0,0.0,-440.0,-6909.0,-8661.0,-12064.0,0.0,3.0,-5.0,-2.0,0.0,-3.0,-1.0,1.0,0.4921865463256836
218,-12.0,-36.0,34.0,0.0,-440.0,-6909.0,-8661.0,-12064.0,-7.0,-5.0,-14.0,6.0,-2.0,-9.0,-2.0,-3.0,0.5057508945465088
219,22.0,-66.0,-29.0,0.0,-446.0,-6920.0,-8669.0,-12052.0,-7.0,-5.0,-14.0,6.0,-2.0,-9.0,-2.0,-3.0,0.5147964954376221
220,22.0,-66.0,-29.0,0.0,-446.0,-6920.0,-8669.0,-12052.0,3.0,3.0,-1.0,-5.0,-3.0,2.0,-1.0,0.0,0.5199217796325684
221,22.0,-66.0,-29.0,0.0,-446.0,-6920.0,-8669.0,-12052.0,-3.0,-5.0,-3.0,3.0,1.0,0.0,1.0,1.0,0.5277853012084961
222,15.0,-97.0,-101.0,0.0,-471.0,-6923.0,-8685.0,-12037.0,-3.0,-5.0,-3.0,3.0,1.0,0.0,1.0,1.0,0.5296247005462646
223,15.0,-97.0,-101.0,0.0,-471.0,-6923.0,-8685.0,-12037.0,-1.0,1.0,-6.0,-2.0,-1.0,-2.0,0.0,-1.0,0.5314712524414062
224,15.0,-97.0,-101.0,0.0,-471.0,-6923.0,-8685.0,-12037.0,-1.0,-1.0,2.0,-2.0,-1.0,2.0,0.0,-1.0,0.5421068668365479
225,8.0,-109.0,-152.0,0.0,-505.0,-6922.0,-8704.0,-12022.0,-1.0,-1.0,2.0,-2.0,-1.0,2.0,0.0,-1.0,0.5500812530517578
226,8.0,-109.0,-152.0,0.0,-505.0,-6922.0,-8704.0,-12022.0,-2.0,-7.0,-5.0,2.0,-1.0,-3.0,0.0,-1.0,0.5519888401031494
227,8.0,-109.0,-152.0,0.0,-505.0,-6922.0,-8704.0,-12022.0,1.0,3.0,2.0,-6.0,-1.0,0.0,-1.0,0.0,0.566612958908081
228,-84.0,-93.0,-150.0,0.0,-545.0,-6917.0,-8710.0,-12020.0,1.0,3.0,2.0,-6.0,-1.0,0.0,-1.0,0.0,0.5684850215911865
229,-84.0,-93.0,-150.0,0.0,-545.0,-6917.0,-8710.0,-12020.0,1.0,3.0,10.0,-17.0,-3.0,-13.0,-5.0,-1.0,0.5804398059844971
230,-84.0,-93.0,-150.0,0.0,-545.0,-6917.0,-8710.0,-12020.0,-1.0,-6.0,-2.0,-2.0,0.0,-1.0,-1.0,0.0,0.5822746753692627
231,-58.0,-60.0,-119.0,0.0,-571.0,-6912.0,-8711.0,-12020.0,-1.0,-6.0,-2.0,-2.0,0.0,-1.0,-1.0,0.0,0.587874174118042
232,-58.0,-60.0,-119.0,0.0,-571.0,-6912.0,-8711.0,-12020.0,-5.0,-2.0,0.0,15.0,4.0,8.0,1.0,0.0,0.5900049209594727
233,-58.0,-60.0,-119.0,0.0,-571.0,-6912.0,-8711.0,-12020.0,3.0,4.0,16.0,1.0,0.0,2.0,1.0,1.0,0.6028158664703369
234,17.0,-16.0,-79.0,0.0,-582.0,-6906.0,-8719.0,-12018.0,3.0,4.0,16.0,1.0,0.0,2.0,1.0,1.0,0.6111667156219482
235,17.0,-16.0,-79.0,0.0,-582.0,-6906.0,-8719.0,-12018.0,-2.0,-2.0,4.0,-3.0,-2.0,-4.0,-1.0,-1.0,0.6141366958618164
236,17.0,-16.0,-79.0,0.0,-582.0,-6906.0,-8719.0,-12018.0,-2.0,-2.0,-3.0,4.0,1.0,1.0,0.0,-2.0,0.6254887580871582
237,44.0,13.0,-38.0,0.0,-584.0,-6898.0,-8728.0,-12015.0,-2.0,-2.0,-3.0,4.0,1.0,1.0,0.0,-2.0,0.6292760372161865
238,44.0,13.0,-38.0,0.0,-584.0,-6898.0,-8728.0,-12015.0,-1.0,-5.0,-13.0,-2.0,-1.0,4.0,0.0,0.0,0.6330232620239258
239,44.0,13.0,-38.0,0.0,-584.0,-6898.0,-8728.0,-12015.0,-4.0,-6.0,4.0,-3.0,-1.0,-6.0,-3.0,-1.0,0.6414406299591064
240,33.0,34.0,2.0,0.0,-580.0,-6892.0,-8732.0,-12016.0,-4.0,-6.0,4.0,-3.0,-1.0,-6.0,-3.0,-1.0,0.6476495265960693
241,33.0,34.0,2.0,0.0,-580.0,-6892.0,-8732.0,-12016.0,-1.0,0.0,-6.0,-5.0,0.0,6.0,1.0,-2.0,0.6498818397521973
242,33.0,34.0,2.0,0.0,-580.0,-6892.0,-8732.0,-12016.0,-1.0,1.0,-6.0,0.0,-1.0,-2.0,-3.0,-1.0,0.661733865737915
243,-1.0,54.0,39.0,0.0,-571.0,-6886.0,-8728.0,-12023.0,-1.0,1.0,-6.0,0.0,-1.0,-2.0,-3.0,-1.0,0.6707429885864258
244,-1.0,54.0,39.0,0.0,-571.0,-6886.0,-8728.0,-12023.0,3.0,0.0,-23.0,-18.0,-5.0,1.0,-2.0,-1.0,0.6728813648223877
245,-1.0,54.0,39.0,0.0,-571.0,-6886.0,-8728.0,-12023.0,2.0,0.0,-10.0,0.0,-4.0,-5.0,-2.0,-1.0,0.7033138275146484
246,-17.0,58.0,65.0,0.0,-558.0,-6882.0,-8718.0,-12033.0,2.0,0.0,-10.0,0.0,-4.0,-5.0,-2.0,-1.0,0.7065291404724121
247,-17.0,58.0,65.0,0.0,-558.0,-6882.0,-8718.0,-12033.0,-4.0,-2.0,-4.0,-6.0,-1.0,0.0,-1.0,-1.0,0.7098448276519775
248,-17.0,58.0,65.0,0.0,-558.0,-6882.0,-8718.0,-12033.0,-1.0,0.0,-7.0,-5.0,-1.0,0.0,-2.0,-2.0,0.7136304378509521
249,-45.0,38.0,93.0,0.0,-546.0,-6885.0,-8705.0,-12041.0,-1.0,0.0,-7.0,-5.0,-1.0,0.0,-2.0,-2.0,0.7161314487457275
250,-45.0,38.0,93.0,0.0,-546.0,-6885.0,-8705.0,-12041.0,0.0,-8.0,-2.0,1.0,1.0,1.0,-1.0,0.0,0.7181870937347412
251,-45.0,38.0,93.0,0.0,-546.0,-6885.0,-8705.0,-12041.0,2.0,7.0,9.0,-9.0,-4.0,-4.0,-2.0,-1.0,0.7219910621643066
252,-90.0,24.0,87.0,0.0,-537.0,-6891.0,-8685.0,-12052.0,2.0,7.0,9.0,-9.0,-4.0,-4.0,-2.0,-1.0,0.7555341720581055
253,-90.0,24.0,87.0,0.0,-537.0,-6891.0,-8685.0,-12052.0,-3.0,-6.0,-9.0,6.0,2.0,0.0,-1.0,-3.0,0.7588624954223633
254,-90.0,24.0,87.0,0.0,-537.0,-6891.0,-8685.0,-12052.0,-4.0,-7.0,-5.0,15.0,0.0,1.0,0.0,1.0,0.7622148990631104
255,-89.0,24.0,91.0,0.0,-528.0,-6897.0,-8667.0,-12062.0,-4.0,-7.0,-5.0,15.0,0.0,1.0,0.0,1.0,0.766075611114502
256,-89.0,24.0,91.0,0.0,-528.0,-6897.0,-8667.0,-12062.0,3.0,0.0,0.0,-8.0,0.0,-1.0,-1.0,-1.0,0.7696361541748047
257,-89.0,24.0,91.0,0.0,-528.0,-6897.0,-8667.0,-12062.0,1.0,-3.0,-11.0,-5.0,-1.0,1.0,0.0,0.0,0.7718563079833984
258,-41.0,27.0,72.0,0.0,-519.0,-6902.0,-8657.0,-12067.0,1.0,-3.0,-11.0,-5.0,-1.0,1.0,0.0,0.0,0.7736301422119141
259,-41.0,27.0,72.0,0.0,-519.0,-6902.0,-8657.0,-12067.0,-2.0,4.0,15.0,6.0,0.0,-1.0,-1.0,-1.0,0.7754983901977539
260,-41.0,27.0,72.0,0.0,-519.0,-6902.0,-8657.0,-12067.0,-3.0,-8.0,-10.0,-5.0,-1.0,-2.0,-1.0,-1.0,0.7815768718719482
261,-26.0,42.0,55.0,0.0,-511.0,-6901.0,-8652.0,-12071.0,-3.0,-8.0,-10.0,-5.0,-1.0,-2.0,-1.0,-1.0,0.8074584007263184
262,-26.0,42.0,55.0,0.0,-511.0,-6901.0,-8652.0,-12071.0,12.0,29.0,32.0,-14.0,-6.0,-3.0,-1.0,2.0,0.8108141422271729
263,-26.0,42.0,55.0,0.0,-511.0,-6901.0,-8652.0,-12071.0,4.0,1.0,-5.0,-8.0,-2.0,-4.0,0.0,0.0,0.8137528896331787
264,-6.0,51.0,49.0,0.0,-502.0,-6897.0,-8650.0,-12076.0,4.0,1.0,-5.0,-8.0,-2.0,-4.0,0.0,0.0,0.8157954216003418
265,-6.0,51.0,49.0,0.0,-502.0,-6897.0,-8650.0,-12076.0,-5.0,-11.0,-11.0,1.0,0.0,-1.0,-1.0,-1.0,0.8176889419555664
266,-6.0,51.0,49.0,0.0,-502.0,-6897.0,-8650.0,-12076.0,-2.0,1.0,2.0,-3.0,0.0,2.0,0.0,-2.0,0.8194513320922852
267,29.0,46.0,61.0,0.0,-492.0,-6894.0,-8653.0,-12076.0,-2.0,1.0,2.0,-3.0,0.0,2.0,0.0,-2.0,0.8274979591369629
268,29.0,46.0,61.0,0.0,-492.0,-6894.0,-8653.0,-12076.0,-3.0,-8.0,-12.0,6.0,2.0,1.0,-1.0,1.0,0.8300611972808838
269,29.0,46.0,61.0,0.0,-492.0,-6894.0,-8653.0,-12076.0,-2.0,1.0,23.0,10.0,1.0,-2.0,0.0,-1.0,0.8423440456390381
270,17.0,48.0,56.0,0.0,-483.0,-6888.0,-8654.0,-12078.0,-2.0,1.0,23.0,10.0,1.0,-2.0,0.0,-1.0,0.849884033203125
271,17.0,48.0,56.0,0.0,-483.0,-6888.0,-8654.0,-12078.0,-2.0,-6.0,-3.0,2.0,-1.0,1.0,-1.0,-3.0,0.8570666313171387
272,17.0,48.0,56.0,0.0,-483.0,-6888.0,-8654.0,-12078.0,-3.0,-4.0,-12.0,-2.0,-1.0,-3.0,-1.0,-2.0,0.8655307292938232
273,-1.0,45.0,69.0,0.0,-475.0,-6884.0,-8653.0,-12082.0,-3.0,-4.0,-12.0,-2.0,-1.0,-3.0,-1.0,-2.0,0.8675732612609863
274,-1.0,45.0,69.0,0.0,-475.0,-6884.0,-8653.0,-12082.0,5.0,2.0,15.0,17.0,-1.0,0.0,0.0,2.0,0.8722438812255859
275,-1.0,45.0,69.0,0.0,-475.0,-6884.0,-8653.0,-12082.0,1.0,4.0,-5.0,-9.0,0.0,-1.0,-1.0,-1.0,0.8796782493591309
276,14.0,42.0,72.0,0.0,-465.0,-6881.0,-8652.0,-12084.0,1.0,4.0,-5.0,-9.0,0.0,-1.0,-1.0,-1.0,0.8873927593231201
277,14.0,42.0,72.0,0.0,-465.0,-6881.0,-8652.0,-12084.0,-4.0,-5.0,-7.0,-5.0,-2.0,-1.0,-1.0,-2.0,0.8896877765655518
278,14.0,42.0,72.0,0.0,-465.0,-6881.0,-8652.0,-12084.0,-1.0,3.0,-4.0,-3.0,1.0,-1.0,-1.0,-1.0,0.9019360542297363
279,22.0,44.0,68.0,0.0,-455.0,-6878.0,-8653.0,-12086.0,-1.0,3.0,-4.0,-3.0,1.0,-1.0,-1.0,-1.0,0.9192821979522705
280,22.0,44.0,68.0,0.0,-455.0,-6878.0,-8653.0,-12086.0,-2.0,4.0,-3.0,0.0,-1.0,-3.0,0.0,-2.0,0.9225971698760986
281,22.0,44.0,68.0,0.0,-455.0,-6878.0,-8653.0,-12086.0,0.0,-3.0,-10.0,-2.0,2.0,2.0,-1.0,1.0,0.9261538982391357
282,9.0,43.0,55.0,0.0,-447.0,-6874.0,-8653.0,-12089.0,0.0,-3.0,-10.0,-2.0,2.0,2.0,-1.0,1.0,0.9301924705505371
283,9.0,43.0,55.0,0.0,-447.0,-6874.0,-8653.0,-12089.0,2.0,3.0,12.0,7.0,-2.0,2.0,-3.0,0.0,0.9325709342956543
284,9.0,43.0,55.0,0.0,-447.0,-6874.0,-8653.0,-12089.0,1.0,0.0,7.0,1.0,0.0,-7.0,-1.0,0.0,0.9579906463623047
285,-4.0,36.0,37.0,0.0,-441.0,-6870.0,-8652.0,-12092.0,1.0,0.0,7.0,1.0,0.0,-7.0,-1.0,0.0,0.9622585773468018
286,-4.0,36.0,37.0,0.0,-441.0,-6870.0,-8652.0,-12092.0,-3.0,-3.0,1.0,-3.0,1.0,-2.0,0.0,-1.0,0.9667370319366455
287,-4.0,36.0,37.0,0.0,-441.0,-6870.0,-8652.0,-12092.0,-2.0,-4.0,-8.0,2.0,1.0,4.0,0.0,1.0,0.9701635837554932
288,2.0,36.0,24.0,0.0,-438.0,-6865.0,-8653.0,-12094.0,-2.0,-4.0,-8.0,2.0,1.0,4.0,0.0,1.0,0.9865174293518066
289,2.0,36.0,24.0,0.0,-438.0,-6865.0,-8653.0,-12094.0,-3.0,-2.0,-10.0,-8.0,-1.0,0.0,-1.0,-3.0,0.990694522857666
290,2.0,36.0,24.0,0.0,-438.0,-6865.0,-8653.0,-12094.0,-1.0,-6.0,-7.0,-19.0,-1.0,-2.0,-2.0,-3.0,0.9947166442871094
291,8.0,42.0,5.0,0.0,-434.0,-6859.0,-8657.0,-12095.0,-1.0,-6.0,-7.0,-19.0,-1.0,-2.0,-2.0,-3.0,0.9977691173553467
292,8.0,42.0,5.0,0.0,-434.0,-6859.0,-8657.0,-12095.0,-1.0,-4.0,3.0,1.0,2.0,2.0,0.0,0.0,0.9997808933258057
293,8.0,42.0,5.0,0.0,-434.0,-6859.0,-8657.0,-12095.0,-2.0,1.0,0.0,2.0,2.0,11.0,-3.0,-2.0,1.0085093975067139
294,-1.0,44.0,6.0,0.0,-432.0,-6851.0,-8659.0,-12098.0,-2.0,1.0,0.0,2.0,2.0,11.0,-3.0,-2.0,1.0105445384979248
295,-1.0,44.0,6.0,0.0,-432.0,-6851.0,-8659.0,-12098.0,0.0,-1.0,-10.0,-3.0,-2.0,3.0,2.0,2.0,1.0234196186065674
296,-1.0,44.0,6.0,0.0,-432.0,-6851.0,-8659.0,-12098.0,0.0,-1.0,-8.0,-5.0,-3.0,-1.0,1.0,-1.0,1.0265369415283203
297,9.0,60.0,1.0,0.0,-428.0,-6842.0,-8662.0,-12101.0,0.0,-1.0,-8.0,-5.0,-3.0,-1.0,1.0,-1.0,1.0306811332702637
298,9.0,60.0,1.0,0.0,-428.0,-6842.0,-8662.0,-12101.0,-1.0,8.0,-11.0,-19.0,-2.0,-7.0,-2.0,-1.0,1.0336196422576904
299,9.0,60.0,1.0,0.0,-428.0,-6842.0,-8662.0,-12101.0,-4.0,-8.0,-13.0,-3.0,-3.0,1.0,2.0,-1.0,1.0446076393127441
300,-2.0,55.0,-12.0,0.0,-427.0,-6830.0,-8663.0,-12107.0,-4.0,-8.0,-13.0,-3.0,-3.0,1.0,2.0,-1.0,1.052396535873413
301,-2.0,55.0,-12.0,0.0,-427.0,-6830.0,-8663.0,-12107.0,-1.0,-5.0,5.0,2.0,-1.0,-5.0,-1.0,-1.0,1.061403751373291
302,-2.0,55.0,-12.0,0.0,-427.0,-6830.0,-8663.0,-12107.0,-1.0,0.0,-3.0,-6.0,-2.0,-4.0,0.0,-1.0,1.0645544528961182
303,-2.0,56.0,-21.0,0.0,-425.0,-6818.0,-8662.0,-12114.0,-1.0,0.0,-3.0,-6.0,-2.0,-4.0,0.0,-1.0,1.0695998668670654
304,-2.0,56.0,-21.0,0.0,-425.0,-6818.0,-8662.0,-12114.0,0.0,-5.0,2.0,1.0,0.0,1.0,0.0,0.0,1.0829815864562988
305,-2.0,56.0,-21.0,0.0,-425.0,-6818.0,-8662.0,-12114.0,-1.0,1.0,4.0,9.0,-1.0,0.0,0.0,-1.0,1.0847699642181396
306,3.0,67.0,-37.0,0.0,-425.0,-6803.0,-8665.0,-12121.0,-1.0,1.0,4.0,9.0,-1.0,0.0,0.0,-1.0,1.0901546478271484
307,3.0,67.0,-37.0,0.0,-425.0,-6803.0,-8665.0,-12121.0,1.0,1.0,4.0,8.0,3.0,-6.0,-1.0,-1.0,1.0919876098632812
308,3.0,67.0,-37.0,0.0,-425.0,-6803.0,-8665.0,-12121.0,-4.0,4.0,32.0,6.0,1.0,-6.0,-2.0,-1.0,1.1046779155731201
309,-18.0,70.0,-46.0,0.0,-427.0,-6785.0,-8664.0,-12132.0,-4.0,4.0,32.0,6.0,1.0,-6.0,-2.0,-1.0,1.1133382320404053
310,-18.0,70.0,-46.0,0.0,-427.0,-6785.0,-8664.0,-12132.0,1.0,-7.0,3.0,6.0,-3.0,-3.0,-1.0,3.0,1.1163854598999023
311,-18.0,70.0,-46.0,0.0,-427.0,-6785.0,-8664.0,-12132.0,3.0,0.0,-5.0,-6.0,-1.0,-1.0,-1.0,0.0,1.1209359169006348
312,-9.0,73.0,-36.0,0.0,-427.0,-6770.0,-8663.0,-12141.0,3.0,0.0,-5.0,-6.0,-1.0,-1.0,-1.0,0.0,1.1277720928192139
313,-9.0,73.0,-36.0,0.0,-427.0,-6770.0,-8663.0,-12141.0,-6.0,-7.0,-7.0,0.0,1.0,2.0,-2.0,-1.0,1.1299700736999512
314,-9.0,73.0,-36.0,0.0,-427.0,-6770.0,-8663.0,-12141.0,-1.0,1.0,-4.0,1.0,-1.0,1.0,-2.0,-3.0,1.142763376235962
315,-10.0,81.0,-19.0,0.0,-423.0,-6753.0,-8659.0,-12153.0,-1.0,1.0,-4.0,1.0,-1.0,1.0,-2.0,-3.0,1.1512250900268555
316,-10.0,81.0,-19.0,0.0,-423.0,-6753.0,-8659.0,-12153.0,1.0,-2.0,-20.0,7.0,3.0,7.0,1.0,0.0,1.1542091369628906
317,-22.0,82.0,-9.0,0.0,-418.0,-6736.0,-8652.0,-12168.0,1.0,-2.0,-20.0,7.0,3.0,7.0,1.0,0.0,1.1731524467468262
318,-22.0,82.0,-9.0,0.0,-418.0,-6736.0,-8652.0,-12168.0,0.0,5.0,-18.0,-11.0,-3.0,-16.0,0.0,0.0,1.175025463104248
319,-22.0,82.0,-9.0,0.0,-418.0,-6736.0,-8652.0,-12168.0,-1.0,-3.0,-4.0,7.0,2.0,2.0,-2.0,-3.0,1.1768059730529785
320,-19.0,57.0,8.0,0.0,-414.0,-6722.0,-8642.0,-12182.0,-1.0,-3.0,-4.0,7.0,2.0,2.0,-2.0,-3.0,1.1882238388061523
321,-19.0,57.0,8.0,0.0,-414.0,-6722.0,-8642.0,-12182.0,-7.0,-8.0,-2.0,-1.0,1.0,-2.0,-2.0,-2.0,1.1908848285675049
322,-19.0,57.0,8.0,0.0,-414.0,-6722.0,-8642.0,-12182.0,-2.0,4.0,-5.0,-11.0,-4.0,-7.0,0.0,-1.0,1.192974328994751
323,-49.0,74.0,-1.0,0.0,-414.0,-6703.0,-8628.0,-12203.0,-2.0,4.0,-5.0,-11.0,-4.0,-7.0,0.0,-1.0,1.202052116394043
324,-49.0,74.0,-1.0,0.0,-414.0,-6703.0,-8628.0,-12203.0,-3.0,-1.0,4.0,21.0,4.0,10.0,0.0,0.0,1.2097604274749756
325,-49.0,74.0,-1.0,0.0,-414.0,-6703.0,-8628.0,-12203.0,3.0,-5.0,11.0,-1.0,-4.0,-34.0,-5.0,-2.0,1.211561918258667
326,-135.0,100.0,-36.0,0.0,-423.0,-6671.0,-8602.0,-12238.0,3.0,-5.0,11.0,-1.0,-4.0,-34.0,-5.0,-2.0,1.2247679233551025
327,-135.0,100.0,-36.0,0.0,-423.0,-6671.0,-8602.0,-12238.0,4.0,8.0,12.0,-2.0,0.0,5.0,5.0,4.0,1.2336256504058838
328,-135.0,100.0,-36.0,0.0,-423.0,-6671.0,-8602.0,-12238.0,-3.0,6.0,5.0,-19.0,-3.0,12.0,-1.0,-2.0,1.2355308532714844
329,-132.0,111.0,-121.0,0.0,-443.0,-6630.0,-8581.0,-12275.0,-3.0,6.0,5.0,-19.0,-3.0,12.0,-1.0,-2.0,1.2483909130096436
330,-132.0,111.0,-121.0,0.0,-443.0,-6630.0,-8581.0,-12275.0,-6.0,-8.0,-2.0,4.0,-3.0,2.0,-1.0,-3.0,1.250309944152832
331,-132.0,111.0,-121.0,0.0,-443.0,-6630.0,-8581.0,-12275.0,3.0,4.0,3.0,9.0,3.0,-5.0,-2.0,5.0,1.2529842853546143
332,-151.0,164.0,-248.0,0.0,-479.0,-6563.0,-8567.0,-12319.0,3.0,4.0,3.0,9.0,3.0,-5.0,-2.0,5.0,1.2713854312896729
333,-151.0,164.0,-248.0,0.0,-479.0,-6563.0,-8567.0,-12319.0,2.0,1.0,2.0,-3.0,-2.0,11.0,1.0,0.0,1.2747178077697754
334,-151.0,164.0,-248.0,0.0,-479.0,-6563.0,-8567.0,-12319.0,-6.0,-11.0,-23.0,-4.0,-2.0,10.0,4.0,-6.0,1.2776756286621094
335,-139.0,233.0,-402.0,0.0,-534.0,-6467.0,-8564.0,-12370.0,-6.0,-11.0,-23.0,-4.0,-2.0,10.0,4.0,-6.0,1.286001205444336
336,-139.0,233.0,-402.0,0.0,-534.0,-6467.0,-8564.0,-12370.0,20.0,26.0,14.0,-10.0,0.0,9.0,-3.0,2.0,1.2928943634033203
337,-139.0,233.0,-402.0,0.0,-534.0,-6467.0,-8564.0,-12370.0,18.0,10.0,27.0,32.0,4.0,-4.0,-11.0,0.0,1.2949700355529785
338,-216.0,320.0,-564.0,0.0,-617.0,-6329.0,-8561.0,-12439.0,18.0,10.0,27.0,32.0,4.0,-4.0,-11.0,0.0,1.3070027828216553
339,-216.0,320.0,-564.0,0.0,-617.0,-6329.0,-8561.0,-12439.0,-5.0,-16.0,-12.0,-11.0,0.0,-12.0,-5.0,-6.0,1.318338394165039
340,-216.0,320.0,-564.0,0.0,-617.0,-6329.0,-8561.0,-12439.0,-9.0,-6.0,-4.0,3.0,8.0,8.0,4.0,0.0,1.3216502666473389
341,-422.0,407.0,-789.0,0.0,-737.0,-6154.0,-8544.0,-12532.0,-9.0,-6.0,-4.0,3.0,8.0,8.0,4.0,0.0,1.3236711025238037
342,-422.0,407.0,-789.0,0.0,-737.0,-6154.0,-8544.0,-12532.0,-11.0,-10.0,-6.0,-10.0,-19.0,-5.0,0.0,-3.0,1.330350399017334
343,-422.0,407.0,-789.0,0.0,-737.0,-6154.0,-8544.0,-12532.0,-11.0,-10.0,4.0,12.0,-2.0,5.0,0.0,-6.0,1.3326284885406494
344,-711.0,562.0,-1040.0,0.0,-897.0,-5932.0,-8504.0,-12655.0,-11.0,-10.0,4.0,12.0,-2.0,5.0,0.0,-6.0,1.344799280166626
345,-711.0,562.0,-1040.0,0.0,-897.0,-5932.0,-8504.0,-12655.0,7.0,22.0,13.0,1.0,0.0,-6.0,-2.0,-2.0,1.3612513542175293
346,-711.0,562.0,-1040.0,0.0,-897.0,-5932.0,-8504.0,-12655.0,23.0,7.0,8.0,7.0,6.0,-3.0,-2.0,6.0,1.379213571548462
347,-907.0,653.0,-1231.0,0.0,-1085.0,-5678.0,-8444.0,-12796.0,23.0,7.0,8.0,7.0,6.0,-3.0,-2.0,6.0,1.3838520050048828
348,-907.0,653.0,-1231.0,0.0,-1085.0,-5678.0,-8444.0,-12796.0,-11.0,-12.0,-19.0,16.0,-1.0,-10.0,-2.0,-2.0,1.3883864879608154
349,-907.0,653.0,-1231.0,0.0,-1085.0,-5678.0,-8444.0,-12796.0,-15.0,-6.0,-10.0,-11.0,0.0,8.0,-1.0,-6.0,1.3908419609069824
350,-959.0,795.0,-1469.0,0.0,-1293.0,-5389.0,-8398.0,-12932.0,-15.0,-6.0,-10.0,-11.0,0.0,8.0,-1.0,-6.0,1.3926310539245605
351,-959.0,795.0,-1469.0,0.0,-1293.0,-5389.0,-8398.0,-12932.0,-8.0,-6.0,-1.0,4.0,2.0,-1.0,4.0,6.0,1.3948030471801758
352,-959.0,795.0,-1469.0,0.0,-1293.0,-5389.0,-8398.0,-12932.0,4.0,-4.0,-22.0,-9.0,1.0,1.0,1.0,-3.0,1.396902084350586
353,-1158.0,936.0,-1720.0,0.0,-1521.0,-5075.0,-8345.0,-13067.0,4.0,-4.0,-22.0,-9.0,1.0,1.0,1.0,-3.0,1.404404640197754
354,-1158.0,936.0,-1720.0,0.0,-1521.0,-5075.0,-8345.0,-13067.0,-13.0,-5.0,18.0,2.0,8.0,11.0,0.0,1.0,1.4226641654968262
355,-1158.0,936.0,-1720.0,0.0,-1521.0,-5075.0,-8345.0,-13067.0,-15.0,9.0,9.0,-1.0,-7.0,3.0,3.0,-2.0,1.4256620407104492
356,-1385.0,1122.0,-1981.0,0.0,-1779.0,-4706.0,-8270.0,-13220.0,-15.0,9.0,9.0,-1.0,-7.0,3.0,3.0,-2.0,1.4360132217407227
357,-1385.0,1122.0,-1981.0,0.0,-1779.0,-4706.0,-8270.0,-13220.0,1.0,1.0,1.0,-1.0,10.0,0.0,-1.0,-3.0,1.4431567192077637
358,-1385.0,1122.0,-1981.0,0.0,-1779.0,-4706.0,-8270.0,-13220.0,-6.0,-1.0,-17.0,-21.0,10.0,-6.0,-2.0,-4.0,1.4449548721313477
359,-1499.0,1285.0,-2286.0,0.0,-2070.0,-4280.0,-8191.0,-13371.0,-6.0,-1.0,-17.0,-21.0,10.0,-6.0,-2.0,-4.0,1.4467759132385254
360,-1499.0,1285.0,-2286.0,0.0,-2070.0,-4280.0,-8191.0,-13371.0,-4.0,-10.0,-6.0,-8.0,0.0,0.0,-3.0,-1.0,1.4497852325439453
361,-1499.0,1285.0,-2286.0,0.0,-2070.0,-4280.0,-8191.0,-13371.0,-7.0,-10.0,-16.0,-15.0,-7.0,-9.0,-6.0,-9.0,1.4515676498413086
362,-1746.0,1446.0,-2548.0,0.0,-2394.0,-3797.0,-8083.0,-13527.0,-7.0,-10.0,-16.0,-15.0,-7.0,-9.0,-6.0,-9.0,1.4644339084625244
363,-1746.0,1446.0,-2548.0,0.0,-2394.0,-3797.0,-8083.0,-13527.0,24.0,6.0,7.0,5.0,-7.0,8.0,3.0,-3.0,1.4722726345062256
364,-1746.0,1446.0,-2548.0,0.0,-2394.0,-3797.0,-8083.0,-13527.0,-22.0,-28.0,-30.0,-28.0,-3.0,1.0,3.0,3.0,1.4741151332855225
365,-2078.0,1565.0,-2785.0,0.0,-2751.0,-3262.0,-7924.0,-13692.0,-22.0,-28.0,-30.0,-28.0,-3.0,1.0,3.0,3.0,1.4867963790893555
366,-2078.0,1565.0,-2785.0,0.0,-2751.0,-3262.0,-7924.0,-13692.0,6.0,-3.0,-8.0,6.0,-10.0,2.0,0.0,5.0,1.504063367843628
367,-2078.0,1565.0,-2785.0,0.0,-2751.0,-3262.0,-7924.0,-13692.0,49.0,31.0,18.0,-5.0,-7.0,-9.0,-1.0,17.0,1.512507677078247
368,-2292.0,1598.0,-3131.0,0.0,-3160.0,-2680.0,-7735.0,-13837.0,49.0,31.0,18.0,-5.0,-7.0,-9.0,-1.0,17.0,1.5159106254577637
369,-2292.0,1598.0,-3131.0,0.0,-3160.0,-2680.0,-7735.0,-13837.0,-28.0,-30.0,-42.0,-33.0,8.0,-3.0,-2.0,0.0,1.5194370746612549
370,-2292.0,1598.0,-3131.0,0.0,-3160.0,-2680.0,-7735.0,-13837.0,-11.0,11.0,-7.0,-3.0,-5.0,7.0,3.0,0.0,1.523026466369629
371,-2650.0,1672.0,-3287.0,0.0,-3585.0,-2061.0,-7488.0,-13975.0,-11.0,11.0,-7.0,-3.0,-5.0,7.0,3.0,0.0,1.5407352447509766
372,-2650.0,1672.0,-3287.0,0.0,-3585.0,-2061.0,-7488.0,-13975.0,10.0,6.0,5.0,11.0,-19.0,-5.0,-4.0,-2.0,1.543968915939331
373,-2650.0,1672.0,-3287.0,0.0,-3585.0,-2061.0,-7488.0,-13975.0,-14.0,-25.0,3.0,-3.0,-9.0,-5.0,-5.0,-6.0,1.5496211051940918
374,-3266.0,1808.0,-3402.0,0.0,-4016.0,-1391.0,-7142.0,-14121.0,-14.0,-25.0,3.0,-3.0,-9.0,-5.0,-5.0,-6.0,1.5529272556304932
375,-3266.0,1808.0,-3402.0,0.0,-4016.0,-1391.0,-7142.0,-14121.0,14.0,0.0,6.0,9.0,-11.0,-3.0,0.0,3.0,1.5553274154663086
376,-3266.0,1808.0,-3402.0,0.0,-4016.0,-1391.0,-7142.0,-14121.0,15.0,6.0,7.0,6.0,2.0,2.0,-7.0,-6.0,1.557368516921997
377,-3712.0,1958.0,-3560.0,0.0,-4449.0,-669.0,-6716.0,-14252.0,15.0,6.0,7.0,6.0,2.0,2.0,-7.0,-6.0,1.56221604347229
378,-3712.0,1958.0,-3560.0,0.0,-4449.0,-669.0,-6716.0,-14252.0,6.0,6.0,1.0,0.0,-2.0,-4.0,0.0,4.0,1.5713355541229248
379,-3712.0,1958.0,-3560.0,0.0,-4449.0,-669.0,-6716.0,-14252.0,-3.0,5.0,17.0,8.0,3.0,4.0,2.0,1.0,1.5741326808929443
380,-4084.0,2101.0,-3691.0,0.0,-4875.0,99.0,-6219.0,-14353.0,-3.0,5.0,17.0,8.0,3.0,4.0,2.0,1.0,1.5845909118652344
381,-4084.0,2101.0,-3691.0,0.0,-4875.0,99.0,-6219.0,-14353.0,-1.0,6.0,1.0,-10.0,5.0,2.0,-1.0,-6.0,1.5932466983795166
382,-4084.0,2101.0,-3691.0,0.0,-4875.0,99.0,-6219.0,-14353.0,-4.0,-6.0,-7.0,-20.0,-19.0,0.0,2.0,-1.0,1.5957069396972656
383,-4401.0,2308.0,-3815.0,0.0,-5285.0,922.0,-5658.0,-14411.0,-4.0,-6.0,-7.0,-20.0,-19.0,0.0,2.0,-1.0,1.606863260269165
384,-4401.0,2308.0,-3815.0,0.0,-5285.0,922.0,-5658.0,-14411.0,-4.0,-5.0,-1.0,6.0,14.0,-3.0,-1.0,2.0,1.616300344467163
385,-4401.0,2308.0,-3815.0,0.0,-5285.0,922.0,-5658.0,-14411.0,-2.0,4.0,8.0,12.0,0.0,1.0,4.0,-2.0,1.62434983253479
386,-4512.0,2463.0,-3789.0,0.0,-5656.0,1768.0,-5065.0,-14411.0,-2.0,4.0,8.0,12.0,0.0,1.0,4.0,-2.0,1.6286900043487549
387,-4512.0,2463.0,-3789.0,0.0,-5656.0,1768.0,-5065.0,-14411.0,2.0,2.0,1.0,-22.0,-1.0,-2.0,-1.0,-2.0,1.631272315979004
388,-4512.0,2463.0,-3789.0,0.0,-5656.0,1768.0,-5065.0,-14411.0,-1.0,1.0,1.0,15.0,5.0,-2.0,1.0,2.0,1.6333997249603271
389,-4720.0,2566.0,-3873.0,0.0,-6003.0,2638.0,-4423.0,-14349.0,-1.0,1.0,1.0,15.0,5.0,-2.0,1.0,2.0,1.6446282863616943
390,-4720.0,2566.0,-3873.0,0.0,-6003.0,2638.0,-4423.0,-14349.0,-1.0,4.0,4.0,12.0,3.0,-3.0,-1.0,-1.0,1.6527326107025146
391,-4720.0,2566.0,-3873.0,0.0,-6003.0,2638.0,-4423.0,-14349.0,-4.0,-2.0,13.0,10.0,5.0,1.0,0.0,1.0,1.6552670001983643
392,-4867.0,2575.0,-3978.0,0.0,-6330.0,3512.0,-3736.0,-14216.0,-4.0,-2.0,13.0,10.0,5.0,1.0,0.0,1.0,1.6771838665008545
393,-4867.0,2575.0,-3978.0,0.0,-6330.0,3512.0,-3736.0,-14216.0,-1.0,2.0,5.0,1.0,-4.0,-1.0,-1.0,-3.0,1.6904654502868652
394,-4867.0,2575.0,-3978.0,0.0,-6330.0,3512.0,-3736.0,-14216.0,-2.0,-1.0,2.0,-1.0,-5.0,-1.0,-2.0,-2.0,1.6922707557678223
395,-4941.0,2662.0,-3996.0,0.0,-6621.0,4386.0,-3024.0,-14008.0,-2.0,-1.0,2.0,-1.0,-5.0,-1.0,-2.0,-2.0,1.6997594833374023
396,-4941.0,2662.0,-3996.0,0.0,-6621.0,4386.0,-3024.0,-14008.0,2.0,13.0,1.0,-3.0,2.0,-1.0,0.0,0.0,1.702214002609253
397,-4941.0,2662.0,-3996.0,0.0,-6621.0,4386.0,-3024.0,-14008.0,2.0,2.0,-2.0,1.0,4.0,-1.0,1.0,1.0,1.7039940357208252
398,-4942.0,2709.0,-4072.0,0.0,-6887.0,5251.0,-2294.0,-13718.0,2.0,2.0,-2.0,1.0,4.0,-1.0,1.0,1.0,1.713604211807251
399,-4942.0,2709.0,-4072.0,0.0,-6887.0,5251.0,-2294.0,-13718.0,-4.0,-4.0,-1.0,-3.0,-5.0,-4.0,-2.0,-1.0,1.71612548828125
400,-4942.0,2709.0,-4072.0,0.0,-6887.0,5251.0,-2294.0,-13718.0,0.0,1.0,-3.0,2.0,0.0,0.0,1.0,4.0,1.7183277606964111
401,-4828.0,2837.0,-4239.0,0.0,-7144.0,6105.0,-1564.0,-13330.0,0.0,1.0,-3.0,2.0,0.0,0.0,1.0,4.0,1.7264087200164795
402,-4828.0,2837.0,-4239.0,0.0,-7144.0,6105.0,-1564.0,-13330.0,-2.0,-4.0,11.0,15.0,0.0,0.0,-1.0,-5.0,1.7897231578826904
403,-4828.0,2837.0,-4239.0,0.0,-7144.0,6105.0,-1564.0,-13330.0,7.0,0.0,11.0,4.0,2.0,1.0,-2.0,-2.0,1.7969443798065186
404,-4613.0,3019.0,-4491.0,0.0,-7411.0,6945.0,-845.0,-12829.0,7.0,0.0,11.0,4.0,2.0,1.0,-2.0,-2.0,1.8353338241577148
405,-4613.0,3019.0,-4491.0,0.0,-7411.0,6945.0,-845.0,-12829.0,7.0,10.0,-8.0,-8.0,3.0,12.0,4.0,12.0,1.8394787311553955
406,-4613.0,3019.0,-4491.0,0.0,-7411.0,6945.0,-845.0,-12829.0,-6.0,-14.0,-35.0,-7.0,-1.0,-21.0,-8.0,-9.0,1.84371018409729
407,-4376.0,3109.0,-4650.0,0.0,-7677.0,7744.0,-140.0,-12228.0,-6.0,-14.0,-35.0,-7.0,-1.0,-21.0,-8.0,-9.0,1.9098501205444336
408,-4376.0,3109.0,-4650.0,0.0,-7677.0,7744.0,-140.0,-12228.0,0.0,14.0,19.0,5.0,16.0,4.0,6.0,10.0,1.945930004119873
409,-4376.0,3109.0,-4650.0,0.0,-7677.0,7744.0,-140.0,-12228.0,-10.0,2.0,1.0,4.0,-21.0,12.0,11.0,3.0,1.9502065181732178
410,-3315.0,1521.0,-4478.0,0.0,-8482.0,10011.0,2663.0,-9443.0,-10.0,2.0,1.0,4.0,-21.0,12.0,11.0,3.0,1.951993465423584
411,-3315.0,1521.0,-4478.0,0.0,-8482.0,10011.0,2663.0,-9443.0,1.0,-5.0,-3.0,-3.0,-18.0,12.0,33.0,-28.0,1.9538352489471436
412,-3315.0,1521.0,-4478.0,0.0,-8482.0,10011.0,2663.0,-9443.0,-9.0,-1.0,-1.0,-3.0,-87.0,-21.0,-28.0,-25.0,1.9822630882263184
413,-3315.0,1521.0,-4478.0,0.0,-8482.0,10011.0,2663.0,-9443.0,14.0,-1.0,-8.0,-24.0,4.0,-37.0,-5.0,49.0,2.0003955364227295
414,-139.0,-1185.0,-1364.0,0.0,-8804.0,9943.0,5481.0,-7876.0,14.0,-1.0,-8.0,-24.0,4.0,-37.0,-5.0,49.0,2.0025479793548584
415,-139.0,-1185.0,-1364.0,0.0,-8804.0,9943.0,5481.0,-7876.0,2.0,2.0,8.0,10.0,-3.0,-30.0,0.0,0.0,2.0044918060302734
416,-139.0,-1185.0,-1364.0,0.0,-8804.0,9943.0,5481.0,-7876.0,-16.0,-1.0,3.0,29.0,5.0,13.0,-3.0,-95.0,2.0063223838806152
417,202.0,-767.0,-274.0,0.0,-8803.0,9840.0,5567.0,-7945.0,-16.0,-1.0,3.0,29.0,5.0,13.0,-3.0,-95.0,2.0374391078948975
418,202.0,-767.0,-274.0,0.0,-8803.0,9840.0,5567.0,-7945.0,-3.0,0.0,5.0,3.0,-3.0,-1.0,-14.0,-13.0,2.040754795074463
419,711.0,426.0,1508.0,0.0,-8719.0,9957.0,5399.0,-8008.0,-3.0,0.0,5.0,3.0,-3.0,-1.0,-14.0,-13.0,2.0439393520355225
420,711.0,426.0,1508.0,0.0,-8719.0,9957.0,5399.0,-8008.0,4.0,-1.0,2.0,4.0,3.0,-24.0,-10.0,24.0,2.047259569168091
421,711.0,426.0,1508.0,0.0,-8719.0,9957.0,5399.0,-8008.0,0.0,-3.0,-4.0,0.0,-11.0,3.0,1.0,5.0,2.0534279346466064
422,1478.0,790.0,2220.0,0.0,-8722.0,10028.0,4986.0,-8181.0,0.0,-3.0,-4.0,0.0,-11.0,3.0,1.0,5.0,2.055643320083618
423,1478.0,790.0,2220.0,0.0,-8722.0,10028.0,4986.0,-8181.0,-2.0,0.0,1.0,8.0,10.0,-7.0,-3.0,0.0,2.057521104812622
424,2002.0,924.0,2762.0,0.0,-8732.0,10082.0,4442.0,-8416.0,-2.0,0.0,1.0,8.0,10.0,-7.0,-3.0,0.0,2.0594139099121094
425,2002.0,924.0,2762.0,0.0,-8732.0,10082.0,4442.0,-8416.0,-2.0,-1.0,-1.0,-5.0,5.0,-1.0,-4.0,-4.0,2.0990149974823
426,2002.0,924.0,2762.0,0.0,-8732.0,10082.0,4442.0,-8416.0,3.0,3.0,2.0,6.0,-1.0,3.0,-3.0,12.0,2.104790449142456
427,2223.0,843.0,3148.0,0.0,-8714.0,10107.0,3828.0,-8701.0,3.0,3.0,2.0,6.0,-1.0,3.0,-3.0,12.0,2.1087658405303955
428,2223.0,843.0,3148.0,0.0,-8714.0,10107.0,3828.0,-8701.0,2.0,1.0,-1.0,-2.0,3.0,1.0,2.0,1.0,2.1112985610961914
429,2223.0,843.0,3148.0,0.0,-8714.0,10107.0,3828.0,-8701.0,-1.0,-2.0,0.0,-2.0,0.0,-4.0,-4.0,-4.0,2.1130833625793457
430,2478.0,459.0,3451.0,0.0,-8662.0,10065.0,3177.0,-9056.0,-1.0,-2.0,0.0,-2.0,0.0,-4.0,-4.0,-4.0,2.114851474761963
431,2478.0,459.0,3451.0,0.0,-8662.0,10065.0,3177.0,-9056.0,-4.0,0.0,2.0,1.0,-1.0,-1.0,-1.0,-2.0,2.1166903972625732
432,2696.0,60.0,3834.0,0.0,-8564.0,9951.0,2488.0,-9481.0,-4.0,0.0,2.0,1.0,-1.0,-1.0,-1.0,-2.0,2.1265909671783447
433,2696.0,60.0,3834.0,0.0,-8564.0,9951.0,2488.0,-9481.0,-6.0,-4.0,-4.0,0.0,0.0,-2.0,-1.0,1.0,2.128492832183838
434,2696.0,60.0,3834.0,0.0,-8564.0,9951.0,2488.0,-9481.0,17.0,19.0,15.0,6.0,0.0,-5.0,-2.0,11.0,2.130274534225464
435,3182.0,-242.0,4310.0,0.0,-8440.0,9742.0,1719.0,-9968.0,17.0,19.0,15.0,6.0,0.0,-5.0,-2.0,11.0,2.1421940326690674
436,3182.0,-242.0,4310.0,0.0,-8440.0,9742.0,1719.0,-9968.0,3.0,-2.0,0.0,-2.0,1.0,1.0,3.0,0.0,2.144352912902832
437,3182.0,-242.0,4310.0,0.0,-8440.0,9742.0,1719.0,-9968.0,-8.0,-11.0,-12.0,-1.0,0.0,14.0,0.0,-3.0,2.1461446285247803
438,3913.0,-550.0,4636.0,0.0,-8324.0,9394.0,859.0,-10496.0,-8.0,-11.0,-12.0,-1.0,0.0,14.0,0.0,-3.0,2.155843734741211
439,3913.0,-550.0,4636.0,0.0,-8324.0,9394.0,859.0,-10496.0,0.0,0.0,1.0,-2.0,-4.0,4.0,-1.0,2.0,2.1577706336975098
440,3913.0,-550.0,4636.0,0.0,-8324.0,9394.0,859.0,-10496.0,0.0,-2.0,-3.0,-1.0,2.0,25.0,12.0,5.0,2.170506000518799
441,4661.0,-816.0,4765.0,0.0,-8228.0,8897.0,-88.0,-11027.0,0.0,-2.0,-3.0,-1.0,2.0,25.0,12.0,5.0,2.1789798736572266
442,4661.0,-816.0,4765.0,0.0,-8228.0,8897.0,-88.0,-11027.0,1.0,-1.0,-1.0,-1.0,-1.0,-20.0,0.0,6.0,2.1818971633911133
443,4661.0,-816.0,4765.0,0.0,-8228.0,8897.0,-88.0,-11027.0,2.0,-1.0,-3.0,-4.0,-8.0,-4.0,-18.0,2.0,2.1841087341308594
444,5050.0,-962.0,4846.0,0.0,-8105.0,8294.0,-1092.0,-11523.0,2.0,-1.0,-3.0,-4.0,-8.0,-4.0,-18.0,2.0,2.2107512950897217
445,5050.0,-962.0,4846.0,0.0,-8105.0,8294.0,-1092.0,-11523.0,6.0,3.0,5.0,6.0,32.0,58.0,-7.0,-6.0,2.2143898010253906
446,5050.0,-962.0,4846.0,0.0,-8105.0,8294.0,-1092.0,-11523.0,6.0,7.0,7.0,12.0,7.0,53.0,-12.0,19.0,2.217827081680298
447,5246.0,-847.0,5176.0,0.0,-7895.0,7612.0,-2180.0,-11976.0,6.0,7.0,7.0,12.0,7.0,53.0,-12.0,19.0,2.2199573516845703
448,5246.0,-847.0,5176.0,0.0,-7895.0,7612.0,-2180.0,-11976.0,-23.0,-13.0,-12.0,-15.0,-37.0,-89.0,19.0,-60.0,2.231952667236328
449,5246.0,-847.0,5176.0,0.0,-7895.0,7612.0,-2180.0,-11976.0,-2.0,-13.0,-16.0,-11.0,93.0,67.0,99.0,56.0,2.233776807785034
450,5728.0,-959.0,5595.0,0.0,-7633.0,6834.0,-3298.0,-12354.0,-2.0,-13.0,-16.0,-11.0,93.0,67.0,99.0,56.0,2.2355716228485107
451,5728.0,-959.0,5595.0,0.0,-7633.0,6834.0,-3298.0,-12354.0,37.0,19.0,18.0,23.0,52.0,83.0,36.0,105.0,2.23742413520813
452,5728.0,-959.0,5595.0,0.0,-7633.0,6834.0,-3298.0,-12354.0,-38.0,-12.0,-1.0,19.0,-32.0,56.0,-83.0,-112.0,2.2392637729644775
453,5112.0,-731.0,5875.0,0.0,-7223.0,6076.0,-4348.0,-12667.0,-38.0,-12.0,-1.0,19.0,-32.0,56.0,-83.0,-112.0,2.2444441318511963
454,5112.0,-731.0,5875.0,0.0,-7223.0,6076.0,-4348.0,-12667.0,21.0,14.0,8.0,10.0,78.0,-6.0,107.0,57.0,2.2541847229003906
455,5112.0,-731.0,5875.0,0.0,-7223.0,6076.0,-4348.0,-12667.0,-1.0,-7.0,-5.0,16.0,80.0,-11.0,-44.0,-54.0,2.2561633586883545
456,5239.0,27.0,5946.0,0.0,-6722.0,5365.0,-5448.0,-12838.0,-1.0,-7.0,-5.0,16.0,80.0,-11.0,-44.0,-54.0,2.2668070793151855
457,5239.0,27.0,5946.0,0.0,-6722.0,5365.0,-5448.0,-12838.0,-35.0,-29.0,-33.0,-36.0,-90.0,-41.0,-13.0,-63.0,2.276218891143799
458,5239.0,27.0,5946.0,0.0,-6722.0,5365.0,-5448.0,-12838.0,-15.0,-16.0,-29.0,-23.0,-94.0,53.0,77.0,-69.0,2.28064227104187
459,5484.0,722.0,6867.0,0.0,-6011.0,4635.0,-6640.0,-12913.0,-15.0,-16.0,-29.0,-23.0,-94.0,53.0,77.0,-69.0,2.2920141220092773
460,5484.0,722.0,6867.0,0.0,-6011.0,4635.0,-6640.0,-12913.0,32.0,25.0,30.0,73.0,88.0,44.0,-41.0,25.0,2.295065402984619
461,5484.0,722.0,6867.0,0.0,-6011.0,4635.0,-6640.0,-12913.0,0.0,-13.0,-21.0,-85.0,-128.0,-62.0,16.0,58.0,2.2969186305999756
462,5000.0,1855.0,7827.0,0.0,-5000.0,3980.0,-7820.0,-12902.0,0.0,-13.0,-21.0,-85.0,-128.0,-62.0,16.0,58.0,2.3043575286865234
463,5000.0,1855.0,7827.0,0.0,-5000.0,3980.0,-7820.0,-12902.0,-36.0,-22.0,-23.0,-36.0,-85.0,-10.0,-85.0,-68.0,2.3124241828918457
464,5000.0,1855.0,7827.0,0.0,-5000.0,3980.0,-7820.0,-12902.0,9.0,4.0,36.0,95.0,57.0,-41.0,-19.0,36.0,2.3146629333496094
465,4141.0,2145.0,7291.0,0.0,-3953.0,3419.0,-8798.0,-12796.0,9.0,4.0,36.0,95.0,57.0,-41.0,-19.0,36.0,2.327955961227417
466,4141.0,2145.0,7291.0,0.0,-3953.0,3419.0,-8798.0,-12796.0,-16.0,-42.0,-26.0,80.0,63.0,72.0,34.0,-23.0,2.336249351501465
467,4141.0,2145.0,7291.0,0.0,-3953.0,3419.0,-8798.0,-12796.0,25.0,33.0,100.0,-96.0,127.0,-128.0,-59.0,-19.0,2.3394904136657715
468,5154.0,2460.0,7667.0,0.0,-2824.0,2790.0,-9856.0,-12473.0,25.0,33.0,100.0,-96.0,127.0,-128.0,-59.0,-19.0,2.35166597366333
469,5154.0,2460.0,7667.0,0.0,-2824.0,2790.0,-9856.0,-12473.0,27.0,-14.0,22.0,76.0,101.0,101.0,22.0,-20.0,2.3550634384155273
470,5154.0,2460.0,7667.0,0.0,-2824.0,2790.0,-9856.0,-12473.0,-45.0,9.0,54.0,48.0,32.0,-78.0,-30.0,5.0,2.358295440673828
471,3894.0,182.0,7315.0,0.0,-1947.0,1939.0,-10585.0,-12201.0,-45.0,9.0,54.0,48.0,32.0,-78.0,-30.0,5.0,2.3651435375213623
472,3894.0,182.0,7315.0,0.0,-1947.0,1939.0,-10585.0,-12201.0,73.0,8.0,-16.0,38.0,-128.0,-128.0,-37.0,10.0,2.3730850219726562
473,3894.0,182.0,7315.0,0.0,-1947.0,1939.0,-10585.0,-12201.0,-75.0,4.0,44.0,-67.0,-53.0,-79.0,-32.0,-80.0,2.375051975250244
474,4356.0,-258.0,3101.0,0.0,-1615.0,1414.0,-11221.0,-11745.0,-75.0,4.0,44.0,-67.0,-53.0,-79.0,-32.0,-80.0,2.3878531455993652
475,4356.0,-258.0,3101.0,0.0,-1615.0,1414.0,-11221.0,-11745.0,-23.0,-4.0,-6.0,-23.0,70.0,68.0,-8.0,111.0,2.3960156440734863
476,4356.0,-258.0,3101.0,0.0,-1615.0,1414.0,-11221.0,-11745.0,-23.0,-4.0,-6.0,-23.0,70.0,68.0,-8.0,111.0,2.399000406265259
477,4356.0,-258.0,3101.0,0.0,-1615.0,1414.0,-11221.0,-11745.0,-8.0,-105.0,-117.0,-14.0,8.0,-85.0,-52.0,14.0,2.411468744277954
478,2664.0,799.0,1426.0,0.0,-1349.0,1264.0,-11576.0,-11447.0,-8.0,-105.0,-117.0,-14.0,8.0,-85.0,-52.0,14.0,2.41386079788208
479,2664.0,799.0,1426.0,0.0,-1349.0,1264.0,-11576.0,-11447.0,-16.0,102.0,68.0,-125.0,-7.0,-23.0,-12.0,-92.0,2.417402982711792
480,2664.0,799.0,1426.0,0.0,-1349.0,1264.0,-11576.0,-11447.0,36.0,20.0,-4.0,-4.0,54.0,118.0,41.0,31.0,2.4205052852630615
481,1114.0,415.0,5093.0,0.0,-642.0,620.0,-11740.0,-11395.0,36.0,20.0,-4.0,-4.0,54.0,118.0,41.0,31.0,2.441918134689331
482,1114.0,415.0,5093.0,0.0,-642.0,620.0,-11740.0,-11395.0,-24.0,-70.0,-77.0,-36.0,60.0,-17.0,-31.0,-30.0,2.4457356929779053
483,1114.0,415.0,5093.0,0.0,-642.0,620.0,-11740.0,-11395.0,36.0,27.0,-43.0,-86.0,48.0,-30.0,28.0,61.0,2.449174404144287
484,-269.0,-110.0,4028.0,0.0,-120.0,60.0,-11701.0,-11468.0,36.0,27.0,-43.0,-86.0,48.0,-30.0,28.0,61.0,2.452613353729248
485,-269.0,-110.0,4028.0,0.0,-120.0,60.0,-11701.0,-11468.0,-78.0,-82.0,-5.0,-5.0,-21.0,-123.0,-43.0,-79.0,2.4549899101257324
486,-269.0,-110.0,4028.0,0.0,-120.0,60.0,-11701.0,-11468.0,-3.0,48.0,72.0,127.0,79.0,126.0,-33.0,-46.0,2.456761121749878
487,-758.0,5.0,2462.0,0.0,195.0,-258.0,-11593.0,-11574.0,-3.0,48.0,72.0,127.0,79.0,126.0,-33.0,-46.0,2.471608877182007
488,-758.0,5.0,2462.0,0.0,195.0,-258.0,-11593.0,-11574.0,-5.0,15.0,47.0,47.0,61.0,43.0,118.0,91.0,2.4747421741485596
489,-758.0,5.0,2462.0,0.0,195.0,-258.0,-11593.0,-11574.0,7.0,-13.0,-35.0,-19.0,-33.0,78.0,67.0,29.0,2.4776923656463623
490,-258.0,35.0,266.0,0.0,213.0,-268.0,-11553.0,-11613.0,7.0,-13.0,-35.0,-19.0,-33.0,78.0,67.0,29.0,2.4950897693634033
491,-258.0,35.0,266.0,0.0,213.0,-268.0,-11553.0,-11613.0,11.0,4.0,13.0,126.0,-45.0,71.0,-19.0,35.0,2.4984588623046875
492,-258.0,35.0,266.0,0.0,213.0,-268.0,-11553.0,-11613.0,-6.0,9.0,-15.0,42.0,12.0,117.0,-3.0,61.0,2.5017056465148926
493,447.0,-105.0,-412.0,0.0,130.0,-210.0,-11633.0,-11535.0,-6.0,9.0,-15.0,42.0,12.0,117.0,-3.0,61.0,2.5089449882507324
494,447.0,-105.0,-412.0,0.0,130.0,-210.0,-11633.0,-11535.0,13.0,18.0,55.0,-13.0,-108.0,-97.0,-55.0,-17.0,2.5154311656951904
495,447.0,-105.0,-412.0,0.0,130.0,-210.0,-11633.0,-11535.0,-10.0,4.0,79.0,127.0,50.0,41.0,56.0,16.0,2.51727294921875
496,216.0,39.0,325.0,0.0,138.0,-209.0,-11679.0,-11489.0,-10.0,4.0,79.0,127.0,50.0,41.0,56.0,16.0,2.531480073928833
497,216.0,39.0,325.0,0.0,138.0,-209.0,-11679.0,-11489.0,15.0,13.0,-31.0,53.0,21.0,-80.0,-15.0,18.0,2.534853935241699
498,216.0,39.0,325.0,0.0,138.0,-209.0,-11679.0,-11489.0,-4.0,-30.0,-53.0,-1.0,-96.0,-128.0,-39.0,-44.0,2.537869691848755
499,-628.0,132.0,-367.0,0.0,96.0,-136.0,-11592.0,-11578.0,-4.0,-30.0,-53.0,-1.0,-96.0,-128.0,-39.0,-44.0,2.5541021823883057
500,-628.0,132.0,-367.0,0.0,96.0,-136.0,-11592.0,-11578.0,7.0,24.0,23.0,70.0,-44.0,28.0,12.0,-1.0,2.5578863620758057
501,-628.0,132.0,-367.0,0.0,96.0,-136.0,-11592.0,-11578.0,15.0,4.0,-35.0,-54.0,-77.0,65.0,60.0,34.0,2.561471939086914
502,-898.0,86.0,-850.0,0.0,33.0,-53.0,-11465.0,-11705.0,15.0,4.0,-35.0,-54.0,-77.0,65.0,60.0,34.0,2.567112684249878
503,-898.0,86.0,-850.0,0.0,33.0,-53.0,-11465.0,-11705.0,5.0,21.0,16.0,-58.0,-6.0,47.0,3.0,-7.0,2.5839691162109375
504,-898.0,86.0,-850.0,0.0,33.0,-53.0,-11465.0,-11705.0,15.0,0.0,-2.0,54.0,36.0,-49.0,-6.0,6.0,2.5875422954559326
505,-777.0,117.0,-1005.0,0.0,-48.0,53.0,-11357.0,-11810.0,15.0,0.0,-2.0,54.0,36.0,-49.0,-6.0,6.0,2.592642068862915
506,-777.0,117.0,-1005.0,0.0,-48.0,53.0,-11357.0,-11810.0,-1.0,-13.0,-22.0,32.0,13.0,-1.0,-1.0,28.0,2.5961849689483643
507,-777.0,117.0,-1005.0,0.0,-48.0,53.0,-11357.0,-11810.0,2.0,-6.0,-20.0,36.0,-30.0,-49.0,-10.0,-24.0,2.5980303287506104
508,-693.0,160.0,-606.0,0.0,-112.0,156.0,-11297.0,-11866.0,2.0,-6.0,-20.0,36.0,-30.0,-49.0,-10.0,-24.0,2.604522705078125
509,-693.0,160.0,-606.0,0.0,-112.0,156.0,-11297.0,-11866.0,0.0,3.0,-24.0,-35.0,-98.0,-76.0,-34.0,-20.0,2.612572431564331
510,-693.0,160.0,-606.0,0.0,-112.0,156.0,-11297.0,-11866.0,20.0,8.0,7.0,-6.0,40.0,-63.0,-2.0,-5.0,2.6144936084747314
511,-581.0,179.0,-499.0,0.0,-164.0,255.0,-11271.0,-11888.0,20.0,8.0,7.0,-6.0,40.0,-63.0,-2.0,-5.0,2.6270346641540527
512,-581.0,179.0,-499.0,0.0,-164.0,255.0,-11271.0,-11888.0,-5.0,-1.0,-5.0,-52.0,21.0,36.0,-8.0,-17.0,2.6365842819213867
513,-581.0,179.0,-499.0,0.0,-164.0,255.0,-11271.0,-11888.0,4.0,0.0,-4.0,36.0,-34.0,37.0,25.0,10.0,2.6385505199432373
514,-574.0,184.0,-494.0,0.0,-213.0,352.0,-11233.0,-11921.0,4.0,0.0,-4.0,36.0,-34.0,37.0,25.0,10.0,2.659071445465088
515,-574.0,184.0,-494.0,0.0,-213.0,352.0,-11233.0,-11921.0,-7.0,-2.0,-14.0,-66.0,19.0,24.0,10.0,5.0,2.662229299545288
516,-574.0,184.0,-494.0,0.0,-213.0,352.0,-11233.0,-11921.0,12.0,10.0,-2.0,2.0,50.0,8.0,1.0,11.0,2.6651418209075928
517,-396.0,112.0,-486.0,0.0,-268.0,436.0,-11200.0,-11948.0,12.0,10.0,-2.0,2.0,50.0,8.0,1.0,11.0,2.672335147857666
518,-396.0,112.0,-486.0,0.0,-268.0,436.0,-11200.0,-11948.0,-1.0,-7.0,-19.0,-94.0,41.0,9.0,-4.0,-1.0,2.6808605194091797
519,-396.0,112.0,-486.0,0.0,-268.0,436.0,-11200.0,-11948.0,-8.0,-7.0,-11.0,-31.0,3.0,1.0,10.0,-15.0,2.6834516525268555
520,-154.0,157.0,-371.0,0.0,-294.0,501.0,-11188.0,-11956.0,-8.0,-7.0,-11.0,-31.0,3.0,1.0,10.0,-15.0,2.686821222305298
521,-154.0,157.0,-371.0,0.0,-294.0,501.0,-11188.0,-11956.0,12.0,1.0,-6.0,41.0,82.0,15.0,-12.0,-3.0,2.6952362060546875
522,-154.0,157.0,-371.0,0.0,-294.0,501.0,-11188.0,-11956.0,14.0,-2.0,16.0,-63.0,-56.0,-107.0,-59.0,-2.0,2.69704008102417
523,25.0,158.0,-362.0,0.0,-320.0,563.0,-11192.0,-11949.0,14.0,-2.0,16.0,-63.0,-56.0,-107.0,-59.0,-2.0,2.7205801010131836
524,25.0,158.0,-362.0,0.0,-320.0,563.0,-11192.0,-11949.0,-5.0,-14.0,-8.0,29.0,14.0,23.0,7.0,-1.0,2.7243173122406006
525,25.0,158.0,-362.0,0.0,-320.0,563.0,-11192.0,-11949.0,-10.0,8.0,-4.0,39.0,-104.0,28.0,3.0,7.0,2.7264676094055176
526,85.0,112.0,-449.0,0.0,-350.0,616.0,-11197.0,-11941.0,-10.0,8.0,-4.0,39.0,-104.0,28.0,3.0,7.0,2.7285377979278564
527,85.0,112.0,-449.0,0.0,-350.0,616.0,-11197.0,-11941.0,9.0,9.0,17.0,50.0,-5.0,-24.0,29.0,10.0,2.7324697971343994
528,85.0,112.0,-449.0,0.0,-350.0,616.0,-11197.0,-11941.0,-12.0,-13.0,-25.0,-58.0,-35.0,-28.0,-11.0,-8.0,2.734273910522461
529,-58.0,112.0,-389.0,0.0,-384.0,674.0,-11178.0,-11955.0,-12.0,-13.0,-25.0,-58.0,-35.0,-28.0,-11.0,-8.0,2.747774600982666
530,-58.0,112.0,-389.0,0.0,-384.0,674.0,-11178.0,-11955.0,9.0,18.0,11.0,57.0,103.0,45.0,11.0,6.0,2.7559773921966553
531,-58.0,112.0,-389.0,0.0,-384.0,674.0,-11178.0,-11955.0,-6.0,-6.0,-9.0,-4.0,122.0,-35.0,-11.0,3.0,2.758606433868408
532,-205.0,137.0,-262.0,0.0,-398.0,722.0,-11143.0,-11983.0,-6.0,-6.0,-9.0,-4.0,122.0,-35.0,-11.0,3.0,2.7715704441070557
533,-205.0,137.0,-262.0,0.0,-398.0,722.0,-11143.0,-11983.0,-12.0,-9.0,-15.0,-119.0,-111.0,-85.0,-27.0,-14.0,2.7750463485717773
534,-205.0,137.0,-262.0,0.0,-398.0,722.0,-11143.0,-11983.0,4.0,8.0,5.0,50.0,-32.0,27.0,8.0,16.0,2.777996778488159
535,-91.0,169.0,-282.0,0.0,-406.0,771.0,-11130.0,-11992.0,4.0,8.0,5.0,50.0,-32.0,27.0,8.0,16.0,2.7851128578186035
536,-91.0,169.0,-282.0,0.0,-406.0,771.0,-11130.0,-11992.0,8.0,5.0,6.0,27.0,10.0,8.0,1.0,-7.0,2.7922842502593994
537,-91.0,169.0,-282.0,0.0,-406.0,771.0,-11130.0,-11992.0,-4.0,-4.0,-6.0,-67.0,-29.0,29.0,20.0,6.0,2.794105052947998
538,-22.0,224.0,-282.0,0.0,-411.0,831.0,-11136.0,-11983.0,-4.0,-4.0,-6.0,-67.0,-29.0,29.0,20.0,6.0,2.8076419830322266
539,-22.0,224.0,-282.0,0.0,-411.0,831.0,-11136.0,-11983.0,-11.0,-13.0,-12.0,-44.0,-17.0,9.0,-11.0,-9.0,2.8159093856811523
540,-22.0,224.0,-282.0,0.0,-411.0,831.0,-11136.0,-11983.0,-2.0,-4.0,-10.0,-82.0,102.0,68.0,14.0,5.0,2.817816972732544
541,-54.0,184.0,-256.0,0.0,-423.0,889.0,-11135.0,-11979.0,-2.0,-4.0,-10.0,-82.0,102.0,68.0,14.0,5.0,2.838066339492798
542,-54.0,184.0,-256.0,0.0,-423.0,889.0,-11135.0,-11979.0,2.0,-1.0,0.0,18.0,-45.0,-72.0,-7.0,5.0,2.8399291038513184
543,-54.0,184.0,-256.0,0.0,-423.0,889.0,-11135.0,-11979.0,-1.0,-6.0,7.0,67.0,-4.0,-5.0,-29.0,-15.0,2.841771364212036
544,-155.0,133.0,-244.0,0.0,-430.0,930.0,-11121.0,-11989.0,-1.0,-6.0,7.0,67.0,-4.0,-5.0,-29.0,-15.0,2.843552827835083
545,-155.0,133.0,-244.0,0.0,-430.0,930.0,-11121.0,-11989.0,-3.0,3.0,2.0,-87.0,-46.0,21.0,10.0,5.0,2.853994369506836
546,-155.0,133.0,-244.0,0.0,-430.0,930.0,-11121.0,-11989.0,5.0,7.0,12.0,52.0,-23.0,13.0,0.0,-1.0,2.8593008518218994
547,-55.0,154.0,-207.0,0.0,-424.0,961.0,-11115.0,-11992.0,5.0,7.0,12.0,52.0,-23.0,13.0,0.0,-1.0,2.867555618286133
548,-55.0,154.0,-207.0,0.0,-424.0,961.0,-11115.0,-11992.0,-3.0,-3.0,1.0,-15.0,35.0,32.0,9.0,1.0,2.8834588527679443
549,-55.0,154.0,-207.0,0.0,-424.0,961.0,-11115.0,-11992.0,5.0,0.0,8.0,-10.0,18.0,2.0,-2.0,-6.0,2.8864152431488037
550,74.0,160.0,-187.0,0.0,-423.0,997.0,-11127.0,-11978.0,5.0,0.0,8.0,-10.0,18.0,2.0,-2.0,-6.0,2.891281843185425
551,74.0,160.0,-187.0,0.0,-423.0,997.0,-11127.0,-11978.0,-2.0,-3.0,-7.0,2.0,-3.0,16.0,4.0,6.0,2.8947858810424805
552,74.0,160.0,-187.0,0.0,-423.0,997.0,-11127.0,-11978.0,-2.0,2.0,-1.0,76.0,-44.0,-70.0,-27.0,-10.0,2.896599054336548
553,78.0,130.0,-110.0,0.0,-421.0,1027.0,-11141.0,-11963.0,-2.0,2.0,-1.0,76.0,-44.0,-70.0,-27.0,-10.0,2.9042556285858154
554,78.0,130.0,-110.0,0.0,-421.0,1027.0,-11141.0,-11963.0,1.0,-1.0,11.0,72.0,32.0,11.0,-3.0,6.0,2.9127137660980225
555,78.0,130.0,-110.0,0.0,-421.0,1027.0,-11141.0,-11963.0,-3.0,-4.0,-6.0,45.0,21.0,47.0,13.0,7.0,2.9145493507385254
556,-42.0,49.0,-54.0,0.0,-416.0,1035.0,-11142.0,-11961.0,-3.0,-4.0,-6.0,45.0,21.0,47.0,13.0,7.0,2.936440944671631
557,-42.0,49.0,-54.0,0.0,-416.0,1035.0,-11142.0,-11961.0,2.0,0.0,-8.0,0.0,27.0,25.0,-2.0,5.0,2.9418458938598633
558,-42.0,49.0,-54.0,0.0,-416.0,1035.0,-11142.0,-11961.0,-3.0,3.0,-15.0,-37.0,17.0,5.0,-2.0,3.0,2.944883108139038
559,-123.0,39.0,9.0,0.0,-407.0,1038.0,-11130.0,-11972.0,-3.0,3.0,-15.0,-37.0,17.0,5.0,-2.0,3.0,2.950469970703125
560,-123.0,39.0,9.0,0.0,-407.0,1038.0,-11130.0,-11972.0,-3.0,2.0,-6.0,-3.0,-16.0,16.0,5.0,-3.0,2.9524903297424316
561,-123.0,39.0,9.0,0.0,-407.0,1038.0,-11130.0,-11972.0,5.0,5.0,7.0,-13.0,-6.0,-50.0,1.0,0.0,2.956322431564331
562,-127.0,28.0,95.0,0.0,-396.0,1038.0,-11118.0,-11983.0,5.0,5.0,7.0,-13.0,-6.0,-50.0,1.0,0.0,2.965710163116455
563,-127.0,28.0,95.0,0.0,-396.0,1038.0,-11118.0,-11983.0,-9.0,-13.0,-8.0,38.0,69.0,2.0,-11.0,-8.0,2.9726405143737793
564,-127.0,28.0,95.0,0.0,-396.0,1038.0,-11118.0,-11983.0,0.0,-12.0,-2.0,13.0,-50.0,-25.0,-14.0,-14.0,2.9744629859924316
565,-46.0,-15.0,142.0,0.0,-382.0,1024.0,-11122.0,-11982.0,0.0,-12.0,-2.0,13.0,-50.0,-25.0,-14.0,-14.0,2.9955031871795654
566,-46.0,-15.0,142.0,0.0,-382.0,1024.0,-11122.0,-11982.0,2.0,2.0,6.0,115.0,98.0,20.0,4.0,-6.0,3.01167631149292
567,-46.0,-15.0,142.0,0.0,-382.0,1024.0,-11122.0,-11982.0,-3.0,-5.0,-11.0,-51.0,-45.0,6.0,-3.0,-2.0,3.0151915550231934
568,-8.0,24.0,150.0,0.0,-358.0,1008.0,-11128.0,-11978.0,-3.0,-5.0,-11.0,-51.0,-45.0,6.0,-3.0,-2.0,3.0207128524780273
569,-8.0,24.0,150.0,0.0,-358.0,1008.0,-11128.0,-11978.0,2.0,-1.0,-3.0,-76.0,-95.0,-20.0,5.0,1.0,3.0234928131103516
570,-8.0,24.0,150.0,0.0,-358.0,1008.0,-11128.0,-11978.0,1.0,0.0,0.0,22.0,-7.0,45.0,-5.0,-13.0,3.025940179824829
571,0.0,26.0,118.0,0.0,-341.0,999.0,-11133.0,-11975.0,1.0,0.0,0.0,22.0,-7.0,45.0,-5.0,-13.0,3.0292789936065674
572,0.0,26.0,118.0,0.0,-341.0,999.0,-11133.0,-11975.0,1.0,7.0,-4.0,-14.0,-89.0,-28.0,-9.0,-1.0,3.0325167179107666
573,0.0,26.0,118.0,0.0,-341.0,999.0,-11133.0,-11975.0,-5.0,-8.0,-18.0,-36.0,37.0,4.0,-4.0,0.0,3.0343456268310547
574,-8.0,31.0,127.0,0.0,-325.0,992.0,-11134.0,-11975.0,-5.0,-8.0,-18.0,-36.0,37.0,4.0,-4.0,0.0,3.0471506118774414
575,-8.0,31.0,127.0,0.0,-325.0,992.0,-11134.0,-11975.0,5.0,4.0,7.0,57.0,49.0,4.0,14.0,6.0,3.055964708328247
576,-8.0,31.0,127.0,0.0,-325.0,992.0,-11134.0,-11975.0,2.0,4.0,0.0,-16.0,56.0,-1.0,-3.0,4.0,3.058917999267578
577,20.0,33.0,167.0,0.0,-301.0,979.0,-11140.0,-11971.0,2.0,4.0,0.0,-16.0,56.0,-1.0,-3.0,4.0,3.070462465286255
578,20.0,33.0,167.0,0.0,-301.0,979.0,-11140.0,-11971.0,-5.0,-4.0,-1.0,32.0,27.0,3.0,-1.0,1.0,3.0724775791168213
579,20.0,33.0,167.0,0.0,-301.0,979.0,-11140.0,-11971.0,2.0,4.0,5.0,23.0,29.0,11.0,-3.0,-4.0,3.0771608352661133
580,39.0,10.0,154.0,0.0,-279.0,961.0,-11151.0,-11963.0,2.0,4.0,5.0,23.0,29.0,11.0,-3.0,-4.0,3.094132900238037
581,39.0,10.0,154.0,0.0,-279.0,961.0,-11151.0,-11963.0,-1.0,0.0,8.0,-19.0,9.0,7.0,-7.0,-5.0,3.0960373878479004
582,39.0,10.0,154.0,0.0,-279.0,961.0,-11151.0,-11963.0,-1.0,0.0,8.0,-19.0,9.0,7.0,-7.0,-5.0,3.097818613052368
583,39.0,10.0,154.0,0.0,-279.0,961.0,-11151.0,-11963.0,-4.0,-6.0,-4.0,7.0,38.0,15.0,13.0,18.0,3.107882261276245
584,7.0,22.0,157.0,0.0,-254.0,942.0,-11156.0,-11960.0,-4.0,-6.0,-4.0,7.0,38.0,15.0,13.0,18.0,3.110543966293335
585,7.0,22.0,157.0,0.0,-254.0,942.0,-11156.0,-11960.0,0.0,2.0,-2.0,-73.0,21.0,23.0,0.0,5.0,3.115462064743042
586,7.0,22.0,157.0,0.0,-254.0,942.0,-11156.0,-11960.0,4.0,2.0,-1.0,-43.0,-39.0,-6.0,9.0,14.0,3.1175222396850586
587,3.0,28.0,165.0,0.0,-229.0,926.0,-11159.0,-11959.0,4.0,2.0,-1.0,-43.0,-39.0,-6.0,9.0,14.0,3.130164384841919
588,3.0,28.0,165.0,0.0,-229.0,926.0,-11159.0,-11959.0,-6.0,1.0,-6.0,41.0,13.0,22.0,1.0,-8.0,3.132042646408081
589,3.0,28.0,165.0,0.0,-229.0,926.0,-11159.0,-11959.0,3.0,2.0,13.0,44.0,55.0,20.0,13.0,2.0,3.137024164199829
590,42.0,32.0,155.0,0.0,-206.0,913.0,-11169.0,-11951.0,3.0,2.0,13.0,44.0,55.0,20.0,13.0,2.0,3.1570441722869873
591,42.0,32.0,155.0,0.0,-206.0,913.0,-11169.0,-11951.0,-3.0,-3.0,-4.0,5.0,-32.0,-7.0,-1.0,9.0,3.160719156265259
592,42.0,32.0,155.0,0.0,-206.0,913.0,-11169.0,-11951.0,-3.0,6.0,-5.0,9.0,18.0,-3.0,-18.0,-11.0,3.1642069816589355
593,34.0,33.0,125.0,0.0,-185.0,901.0,-11177.0,-11945.0,-3.0,6.0,-5.0,9.0,18.0,-3.0,-18.0,-11.0,3.166867256164551
594,34.0,33.0,125.0,0.0,-185.0,901.0,-11177.0,-11945.0,0.0,0.0,-3.0,-24.0,-27.0,-6.0,-9.0,-7.0,3.1748206615448
595,34.0,33.0,125.0,0.0,-185.0,901.0,-11177.0,-11945.0,-3.0,-9.0,11.0,77.0,-12.0,-4.0,-5.0,-4.0,3.176750898361206
596,47.0,36.0,89.0,0.0,-168.0,893.0,-11187.0,-11937.0,-3.0,-9.0,11.0,77.0,-12.0,-4.0,-5.0,-4.0,3.19053316116333
597,47.0,36.0,89.0,0.0,-168.0,893.0,-11187.0,-11937.0,-3.0,0.0,0.0,54.0,-32.0,-25.0,-18.0,-20.0,3.192484140396118
598,47.0,36.0,89.0,0.0,-168.0,893.0,-11187.0,-11937.0,-4.0,0.0,-7.0,-2.0,-13.0,0.0,-3.0,-9.0,3.19700288772583
599,59.0,43.0,87.0,0.0,-152.0,889.0,-11199.0,-11925.0,-4.0,0.0,-7.0,-2.0,-13.0,0.0,-3.0,-9.0,3.2133336067199707
600,59.0,43.0,87.0,0.0,-152.0,889.0,-11199.0,-11925.0,-1.0,-5.0,-4.0,8.0,-1.0,-15.0,6.0,2.0,3.215254545211792
601,59.0,43.0,87.0,0.0,-152.0,889.0,-11199.0,-11925.0,-3.0,-2.0,-1.0,-14.0,8.0,16.0,3.0,-8.0,3.217160940170288
602,46.0,52.0,78.0,0.0,-135.0,885.0,-11208.0,-11918.0,-3.0,-2.0,-1.0,-14.0,8.0,16.0,3.0,-8.0,3.2271292209625244
603,46.0,52.0,78.0,0.0,-135.0,885.0,-11208.0,-11918.0,4.0,-4.0,-9.0,-41.0,26.0,2.0,-19.0,-10.0,3.2349886894226074
604,46.0,52.0,78.0,0.0,-135.0,885.0,-11208.0,-11918.0,0.0,3.0,7.0,24.0,-17.0,-3.0,6.0,-2.0,3.2370645999908447
605,30.0,53.0,68.0,0.0,-121.0,885.0,-11215.0,-11911.0,0.0,3.0,7.0,24.0,-17.0,-3.0,6.0,-2.0,3.250178575515747
606,30.0,53.0,68.0,0.0,-121.0,885.0,-11215.0,-11911.0,0.0,5.0,-7.0,8.0,-8.0,17.0,5.0,-4.0,3.2520463466644287
607,30.0,53.0,68.0,0.0,-121.0,885.0,-11215.0,-11911.0,1.0,4.0,-3.0,9.0,2.0,-1.0,-2.0,0.0,3.265619993209839
608,42.0,35.0,76.0,0.0,-108.0,882.0,-11225.0,-11903.0,1.0,4.0,-3.0,9.0,2.0,-1.0,-2.0,0.0,3.2733306884765625
609,42.0,35.0,76.0,0.0,-108.0,882.0,-11225.0,-11903.0,-1.0,-7.0,-10.0,-66.0,8.0,15.0,-12.0,-13.0,3.289703369140625
610,42.0,35.0,76.0,0.0,-108.0,882.0,-11225.0,-11903.0,-2.0,-1.0,-8.0,-92.0,-43.0,1.0,0.0,-4.0,3.2930591106414795
611,14.0,28.0,66.0,0.0,-96.0,877.0,-11231.0,-11897.0,-2.0,-1.0,-8.0,-92.0,-43.0,1.0,0.0,-4.0,3.2955448627471924
612,14.0,28.0,66.0,0.0,-96.0,877.0,-11231.0,-11897.0,-2.0,3.0,4.0,-20.0,-13.0,7.0,8.0,11.0,3.3027050495147705
613,14.0,28.0,66.0,0.0,-96.0,877.0,-11231.0,-11897.0,4.0,-3.0,5.0,17.0,-13.0,-14.0,-6.0,9.0,3.305445671081543
614,-12.0,40.0,69.0,0.0,-82.0,874.0,-11232.0,-11896.0,4.0,-3.0,5.0,17.0,-13.0,-14.0,-6.0,9.0,3.3099241256713867
615,-12.0,40.0,69.0,0.0,-82.0,874.0,-11232.0,-11896.0,-5.0,-1.0,-3.0,5.0,-7.0,-10.0,3.0,1.0,3.3117973804473877
616,-12.0,40.0,69.0,0.0,-82.0,874.0,-11232.0,-11896.0,-6.0,-9.0,-9.0,-67.0,-40.0,-13.0,2.0,-1.0,3.324819564819336
617,-6.0,26.0,75.0,0.0,-70.0,870.0,-11233.0,-11896.0,-6.0,-9.0,-9.0,-67.0,-40.0,-13.0,2.0,-1.0,3.333238124847412
618,-6.0,26.0,75.0,0.0,-70.0,870.0,-11233.0,-11896.0,4.0,7.0,25.0,59.0,32.0,4.0,4.0,1.0,3.335249423980713
619,-6.0,26.0,75.0,0.0,-70.0,870.0,-11233.0,-11896.0,4.0,7.0,25.0,59.0,32.0,4.0,4.0,1.0,3.3370845317840576
620,-6.0,26.0,75.0,0.0,-70.0,870.0,-11233.0,-11896.0,-4.0,-4.0,-2.0,38.0,24.0,-16.0,-5.0,5.0,3.348594903945923
621,-15.0,19.0,75.0,0.0,-58.0,863.0,-11231.0,-11899.0,-4.0,-4.0,-2.0,38.0,24.0,-16.0,-5.0,5.0,3.350611686706543
622,-15.0,19.0,75.0,0.0,-58.0,863.0,-11231.0,-11899.0,-6.0,-7.0,-11.0,24.0,-4.0,-11.0,0.0,-3.0,3.3554527759552
623,-15.0,19.0,75.0,0.0,-58.0,863.0,-11231.0,-11899.0,-1.0,-2.0,-6.0,-49.0,21.0,0.0,1.0,1.0,3.3575706481933594
624,11.0,8.0,73.0,0.0,-48.0,856.0,-11235.0,-11896.0,-1.0,-2.0,-6.0,-49.0,21.0,0.0,1.0,1.0,3.3734066486358643
625,11.0,8.0,73.0,0.0,-48.0,856.0,-11235.0,-11896.0,-1.0,-4.0,-1.0,-26.0,15.0,-23.0,-4.0,-18.0,3.3765833377838135
626,11.0,8.0,73.0,0.0,-48.0,856.0,-11235.0,-11896.0,-2.0,-1.0,-6.0,-13.0,-16.0,-29.0,-6.0,0.0,3.3795387744903564
627,0.0,18.0,69.0,0.0,-37.0,850.0,-11238.0,-11892.0,-2.0,-1.0,-6.0,-13.0,-16.0,-29.0,-6.0,0.0,3.4020724296569824
628,0.0,18.0,69.0,0.0,-37.0,850.0,-11238.0,-11892.0,1.0,9.0,8.0,10.0,-29.0,7.0,2.0,5.0,3.4055685997009277
629,0.0,18.0,69.0,0.0,-37.0,850.0,-11238.0,-11892.0,7.0,2.0,1.0,-24.0,16.0,11.0,5.0,-2.0,3.408907890319824
630,-14.0,32.0,84.0,0.0,-23.0,846.0,-11240.0,-11891.0,7.0,2.0,1.0,-24.0,16.0,11.0,5.0,-2.0,3.4171552658081055
631,-14.0,32.0,84.0,0.0,-23.0,846.0,-11240.0,-11891.0,-3.0,-5.0,-5.0,-70.0,-43.0,-16.0,2.0,9.0,3.4197964668273926
632,-14.0,32.0,84.0,0.0,-23.0,846.0,-11240.0,-11891.0,-5.0,-4.0,1.0,10.0,-48.0,-2.0,-11.0,-11.0,3.421863079071045
633,-17.0,26.0,69.0,0.0,-12.0,842.0,-11242.0,-11890.0,-5.0,-4.0,1.0,10.0,-48.0,-2.0,-11.0,-11.0,3.4401566982269287
634,-17.0,26.0,69.0,0.0,-12.0,842.0,-11242.0,-11890.0,-2.0,-5.0,2.0,61.0,38.0,4.0,1.0,3.0,3.443359136581421
635,-17.0,26.0,69.0,0.0,-12.0,842.0,-11242.0,-11890.0,0.0,2.0,7.0,28.0,25.0,21.0,7.0,0.0,3.446078300476074
636,-15.0,22.0,85.0,0.0,0.0,837.0,-11246.0,-11886.0,0.0,2.0,7.0,28.0,25.0,21.0,7.0,0.0,3.4535751342773438
637,-15.0,22.0,85.0,0.0,0.0,837.0,-11246.0,-11886.0,2.0,0.0,1.0,24.0,22.0,11.0,0.0,7.0,3.4556210041046143
638,-15.0,22.0,85.0,0.0,0.0,837.0,-11246.0,-11886.0,0.0,-1.0,-17.0,-44.0,-1.0,12.0,2.0,3.0,3.4578874111175537
639,-24.0,23.0,73.0,0.0,12.0,832.0,-11248.0,-11885.0,0.0,-1.0,-17.0,-44.0,-1.0,12.0,2.0,3.0,3.4671971797943115
640,-24.0,23.0,73.0,0.0,12.0,832.0,-11248.0,-11885.0,-1.0,-2.0,2.0,35.0,37.0,2.0,2.0,2.0,3.4757556915283203
641,-24.0,23.0,73.0,0.0,12.0,832.0,-11248.0,-11885.0,-3.0,-2.0,6.0,41.0,3.0,20.0,-1.0,-1.0,3.4917683601379395
642,-39.0,24.0,63.0,0.0,22.0,829.0,-11246.0,-11887.0,-3.0,-2.0,6.0,41.0,3.0,20.0,-1.0,-1.0,3.495079517364502
643,-39.0,24.0,63.0,0.0,22.0,829.0,-11246.0,-11887.0,2.0,1.0,-10.0,-16.0,5.0,8.0,-6.0,-5.0,3.499225616455078
644,-39.0,24.0,63.0,0.0,22.0,829.0,-11246.0,-11887.0,3.0,2.0,5.0,59.0,15.0,6.0,-1.0,-9.0,3.5029280185699463
645,-25.0,31.0,85.0,0.0,36.0,824.0,-11247.0,-11886.0,3.0,2.0,5.0,59.0,15.0,6.0,-1.0,-9.0,3.5141425132751465
646,-25.0,31.0,85.0,0.0,36.0,824.0,-11247.0,-11886.0,-1.0,-5.0,1.0,0.0,-24.0,-34.0,-5.0,-4.0,3.517207145690918
647,-25.0,31.0,85.0,0.0,36.0,824.0,-11247.0,-11886.0,1.0,4.0,4.0,17.0,-34.0,-10.0,2.0,0.0,3.5191311836242676
648,-21.0,14.0,74.0,0.0,48.0,817.0,-11247.0,-11887.0,1.0,4.0,4.0,17.0,-34.0,-10.0,2.0,0.0,3.526878833770752
649,-21.0,14.0,74.0,0.0,48.0,817.0,-11247.0,-11887.0,-2.0,-5.0,-12.0,-60.0,-92.0,-23.0,-2.0,0.0,3.543084144592285
650,-21.0,14.0,74.0,0.0,48.0,817.0,-11247.0,-11887.0,-3.0,-2.0,8.0,29.0,-8.0,-11.0,2.0,0.0,3.551654815673828
651,-3.0,2.0,66.0,0.0,56.0,809.0,-11247.0,-11887.0,-3.0,-2.0,8.0,29.0,-8.0,-11.0,2.0,0.0,3.5546319484710693
652,-3.0,2.0,66.0,0.0,56.0,809.0,-11247.0,-11887.0,0.0,1.0,1.0,3.0,5.0,0.0,-3.0,-3.0,3.5577316284179688
653,-3.0,2.0,66.0,0.0,56.0,809.0,-11247.0,-11887.0,-5.0,-3.0,1.0,18.0,-14.0,5.0,-1.0,-4.0,3.56107497215271
654,-23.0,-11.0,70.0,0.0,64.0,800.0,-11246.0,-11889.0,-5.0,-3.0,1.0,18.0,-14.0,5.0,-1.0,-4.0,3.575007200241089
655,-23.0,-11.0,70.0,0.0,64.0,800.0,-11246.0,-11889.0,1.0,-1.0,0.0,19.0,18.0,17.0,14.0,16.0,3.578315258026123
656,-23.0,-11.0,70.0,0.0,64.0,800.0,-11246.0,-11889.0,6.0,3.0,-2.0,10.0,22.0,-10.0,-4.0,-5.0,3.581472396850586
657,-29.0,-11.0,69.0,0.0,72.0,790.0,-11241.0,-11894.0,6.0,3.0,-2.0,10.0,22.0,-10.0,-4.0,-5.0,3.6218395233154297
658,-29.0,-11.0,69.0,0.0,72.0,790.0,-11241.0,-11894.0,1.0,0.0,1.0,3.0,26.0,19.0,1.0,5.0,3.6270742416381836
659,-29.0,-11.0,69.0,0.0,72.0,790.0,-11241.0,-11894.0,-3.0,-6.0,2.0,17.0,13.0,-22.0,-2.0,-2.0,3.6308538913726807
660,-18.0,-26.0,80.0,0.0,77.0,780.0,-11240.0,-11896.0,-3.0,-6.0,2.0,17.0,13.0,-22.0,-2.0,-2.0,3.6328060626983643
661,-18.0,-26.0,80.0,0.0,77.0,780.0,-11240.0,-11896.0,-1.0,-1.0,-8.0,0.0,-14.0,-26.0,-6.0,-7.0,3.6352171897888184
662,-18.0,-26.0,80.0,0.0,77.0,780.0,-11240.0,-11896.0,1.0,-5.0,-4.0,4.0,38.0,-2.0,2.0,2.0,3.637340545654297
663,-50.0,-12.0,111.0,0.0,90.0,765.0,-11236.0,-11901.0,1.0,-5.0,-4.0,4.0,38.0,-2.0,2.0,2.0,3.639496088027954
664,-50.0,-12.0,111.0,0.0,90.0,765.0,-11236.0,-11901.0,5.0,5.0,12.0,-8.0,54.0,8.0,-7.0,-3.0,3.6413846015930176
665,-50.0,-12.0,111.0,0.0,90.0,765.0,-11236.0,-11901.0,2.0,1.0,-6.0,-8.0,12.0,10.0,1.0,7.0,3.6431758403778076
666,-44.0,21.0,112.0,0.0,109.0,752.0,-11235.0,-11902.0,2.0,1.0,-6.0,-8.0,12.0,10.0,1.0,7.0,3.646777391433716
667,-44.0,21.0,112.0,0.0,109.0,752.0,-11235.0,-11902.0,-2.0,0.0,1.0,-27.0,7.0,12.0,-3.0,-7.0,3.655336618423462
668,-44.0,21.0,112.0,0.0,109.0,752.0,-11235.0,-11902.0,2.0,0.0,-3.0,-67.0,41.0,14.0,-6.0,2.0,3.657254934310913
669,-17.0,11.0,111.0,0.0,128.0,737.0,-11236.0,-11902.0,2.0,0.0,-3.0,-67.0,41.0,14.0,-6.0,2.0,3.679502248764038
670,-17.0,11.0,111.0,0.0,128.0,737.0,-11236.0,-11902.0,-1.0,0.0,5.0,30.0,0.0,-14.0,-5.0,-9.0,3.682934284210205
671,-17.0,11.0,111.0,0.0,128.0,737.0,-11236.0,-11902.0,-6.0,-1.0,-12.0,-46.0,-47.0,6.0,7.0,-3.0,3.6864333152770996
672,6.0,3.0,51.0,0.0,139.0,728.0,-11240.0,-11898.0,-6.0,-1.0,-12.0,-46.0,-47.0,6.0,7.0,-3.0,3.694396734237671
673,6.0,3.0,51.0,0.0,139.0,728.0,-11240.0,-11898.0,2.0,-1.0,-7.0,-26.0,-30.0,-20.0,-4.0,2.0,3.697075128555298
674,6.0,3.0,51.0,0.0,139.0,728.0,-11240.0,-11898.0,-3.0,0.0,10.0,36.0,15.0,3.0,1.0,-1.0,3.69915771484375
675,-1.0,-17.0,42.0,0.0,140.0,722.0,-11240.0,-11899.0,-3.0,0.0,10.0,36.0,15.0,3.0,1.0,-1.0,3.7416129112243652
676,-1.0,-17.0,42.0,0.0,140.0,722.0,-11240.0,-11899.0,2.0,-4.0,-3.0,32.0,-5.0,13.0,10.0,10.0,3.745567798614502
677,-1.0,-17.0,42.0,0.0,140.0,722.0,-11240.0,-11899.0,-2.0,0.0,12.0,4.0,-50.0,-1.0,7.0,4.0,3.7492897510528564
678,-31.0,0.0,64.0,0.0,146.0,717.0,-11237.0,-11902.0,-2.0,0.0,12.0,4.0,-50.0,-1.0,7.0,4.0,3.7530970573425293
679,-31.0,0.0,64.0,0.0,146.0,717.0,-11237.0,-11902.0,-6.0,-6.0,0.0,-1.0,-48.0,-22.0,1.0,2.0,3.7556772232055664
680,-31.0,0.0,64.0,0.0,146.0,717.0,-11237.0,-11902.0,2.0,4.0,-6.0,-48.0,-6.0,1.0,-3.0,-3.0,3.7577567100524902
681,-15.0,-7.0,89.0,0.0,155.0,708.0,-11239.0,-11901.0,2.0,4.0,-6.0,-48.0,-6.0,1.0,-3.0,-3.0,3.7599048614501953
682,-15.0,-7.0,89.0,0.0,155.0,708.0,-11239.0,-11901.0,-2.0,-3.0,-8.0,30.0,18.0,17.0,1.0,-4.0,3.762127161026001
683,-15.0,-7.0,89.0,0.0,155.0,708.0,-11239.0,-11901.0,3.0,5.0,5.0,24.0,-9.0,-4.0,2.0,9.0,3.7641303539276123
684,1.0,-22.0,63.0,0.0,162.0,696.0,-11243.0,-11897.0,3.0,5.0,5.0,24.0,-9.0,-4.0,2.0,9.0,3.7661631107330322
685,1.0,-22.0,63.0,0.0,162.0,696.0,-11243.0,-11897.0,-2.0,1.0,-4.0,-48.0,18.0,-1.0,-2.0,7.0,3.779521942138672
686,1.0,-22.0,63.0,0.0,162.0,696.0,-11243.0,-11897.0,-3.0,-3.0,-1.0,18.0,31.0,1.0,-4.0,-2.0,3.7835493087768555
687,-7.0,-29.0,49.0,0.0,164.0,688.0,-11248.0,-11893.0,-3.0,-3.0,-1.0,18.0,31.0,1.0,-4.0,-2.0,3.7907330989837646
688,-7.0,-29.0,49.0,0.0,164.0,688.0,-11248.0,-11893.0,1.0,7.0,0.0,-19.0,46.0,25.0,8.0,1.0,3.793102502822876
689,-7.0,-29.0,49.0,0.0,164.0,688.0,-11248.0,-11893.0,-2.0,-2.0,-9.0,-17.0,-9.0,-3.0,-7.0,-5.0,3.796985626220703
690,-14.0,-31.0,53.0,0.0,167.0,677.0,-11251.0,-11891.0,-2.0,-2.0,-9.0,-17.0,-9.0,-3.0,-7.0,-5.0,3.8132829666137695
691,-14.0,-31.0,53.0,0.0,167.0,677.0,-11251.0,-11891.0,-4.0,-3.0,1.0,37.0,-15.0,6.0,1.0,-6.0,3.815300226211548
692,-14.0,-31.0,53.0,0.0,167.0,677.0,-11251.0,-11891.0,0.0,1.0,-1.0,32.0,6.0,2.0,-4.0,-5.0,3.828704357147217
693,-47.0,-27.0,45.0,0.0,170.0,669.0,-11248.0,-11894.0,0.0,1.0,-1.0,32.0,6.0,2.0,-4.0,-5.0,3.8321478366851807
694,-47.0,-27.0,45.0,0.0,170.0,669.0,-11248.0,-11894.0,-1.0,3.0,-10.0,-69.0,-4.0,6.0,-3.0,-3.0,3.835798740386963
695,-47.0,-27.0,45.0,0.0,170.0,669.0,-11248.0,-11894.0,5.0,-6.0,-8.0,11.0,-6.0,-7.0,2.0,8.0,3.839156150817871
696,-30.0,-33.0,50.0,0.0,172.0,659.0,-11247.0,-11895.0,5.0,-6.0,-8.0,11.0,-6.0,-7.0,2.0,8.0,3.850059986114502
697,-30.0,-33.0,50.0,0.0,172.0,659.0,-11247.0,-11895.0,-1.0,-2.0,3.0,2.0,-3.0,0.0,-3.0,-9.0,3.852274179458618
698,-30.0,-33.0,50.0,0.0,172.0,659.0,-11247.0,-11895.0,1.0,-1.0,5.0,-13.0,42.0,15.0,1.0,-4.0,3.856384754180908
699,-22.0,-43.0,68.0,0.0,177.0,644.0,-11248.0,-11895.0,1.0,-1.0,5.0,-13.0,42.0,15.0,1.0,-4.0,3.880913496017456
