,Gyro 0,Gyro 1,Gyro 2,Label,Orientation 0,Orientation 1,Orientation 2,Orientation 3,Sensor 0,Sensor 1,Sensor 2,Sensor 3,Sensor 4,Sensor 5,Sensor 6,Sensor 7,Timestamp
0,124.0,327.0,-121.0,1.0,-10842.0,-6122.0,9268.0,5247.0,-2.0,-2.0,-5.0,3.0,42.0,5.0,1.0,-3.0,1.9073486328125e-06
1,124.0,327.0,-121.0,1.0,-10842.0,-6122.0,9268.0,5247.0,-3.0,-7.0,-13.0,-67.0,-1.0,-1.0,-4.0,-1.0,0.0025272369384765625
2,-8.0,268.0,-60.0,1.0,-10861.0,-6148.0,9233.0,5238.0,-3.0,-7.0,-13.0,-67.0,-1.0,-1.0,-4.0,-1.0,0.004623889923095703
3,-8.0,268.0,-60.0,1.0,-10861.0,-6148.0,9233.0,5238.0,0.0,-1.0,4.0,-10.0,-1.0,-1.0,1.0,2.0,0.008034944534301758
4,-8.0,268.0,-60.0,1.0,-10861.0,-6148.0,9233.0,5238.0,-1.0,3.0,-11.0,21.0,-3.0,-1.0,0.0,-3.0,0.010954141616821289
5,-259.0,-45.0,4.0,1.0,-10871.0,-6128.0,9225.0,5255.0,-1.0,3.0,-11.0,21.0,-3.0,-1.0,0.0,-3.0,0.013256311416625977
6,-259.0,-45.0,4.0,1.0,-10871.0,-6128.0,9225.0,5255.0,-2.0,-1.0,4.0,35.0,-24.0,-2.0,0.0,-1.0,0.015646696090698242
7,-259.0,-45.0,4.0,1.0,-10871.0,-6128.0,9225.0,5255.0,2.0,4.0,4.0,-13.0,-19.0,-11.0,-4.0,-2.0,0.017811059951782227
8,-392.0,-63.0,-29.0,1.0,-10887.0,-6080.0,9213.0,5298.0,2.0,4.0,4.0,-13.0,-19.0,-11.0,-4.0,-2.0,0.019989013671875
9,-392.0,-63.0,-29.0,1.0,-10887.0,-6080.0,9213.0,5298.0,0.0,2.0,8.0,-4.0,-4.0,1.0,4.0,2.0,0.02230525016784668
10,-392.0,-63.0,-29.0,1.0,-10887.0,-6080.0,9213.0,5298.0,0.0,-4.0,-4.0,-20.0,10.0,7.0,5.0,3.0,0.024327516555786133
11,-361.0,-78.0,-28.0,1.0,-10901.0,-6032.0,9205.0,5336.0,0.0,-4.0,-4.0,-20.0,10.0,7.0,5.0,3.0,0.026237964630126953
12,-361.0,-78.0,-28.0,1.0,-10901.0,-6032.0,9205.0,5336.0,5.0,1.0,12.0,-3.0,-15.0,-29.0,-12.0,-5.0,0.028144121170043945
13,-361.0,-78.0,-28.0,1.0,-10901.0,-6032.0,9205.0,5336.0,0.0,2.0,16.0,70.0,22.0,11.0,3.0,-1.0,0.029926538467407227
14,-243.0,-175.0,-1.0,1.0,-10896.0,-5997.0,9213.0,5373.0,0.0,2.0,16.0,70.0,22.0,11.0,3.0,-1.0,0.031707048416137695
15,-243.0,-175.0,-1.0,1.0,-10896.0,-5997.0,9213.0,5373.0,-8.0,-7.0,-13.0,-14.0,7.0,13.0,5.0,-1.0,0.03371000289916992
16,-243.0,-175.0,-1.0,1.0,-10896.0,-5997.0,9213.0,5373.0,12.0,7.0,7.0,-23.0,-32.0,-24.0,-8.0,0.0,0.03715634346008301
17,-291.0,-273.0,2.0,1.0,-10881.0,-5954.0,9230.0,5422.0,12.0,7.0,7.0,-23.0,-32.0,-24.0,-8.0,0.0,0.03961896896362305
18,-291.0,-273.0,2.0,1.0,-10881.0,-5954.0,9230.0,5422.0,-3.0,-3.0,3.0,25.0,4.0,4.0,1.0,0.0,0.04152226448059082
19,-291.0,-273.0,2.0,1.0,-10881.0,-5954.0,9230.0,5422.0,-9.0,-2.0,-2.0,-1.0,10.0,0.0,-5.0,-7.0,0.04333209991455078
20,-363.0,-278.0,8.0,1.0,-10866.0,-5905.0,9245.0,5478.0,-9.0,-2.0,-2.0,-1.0,10.0,0.0,-5.0,-7.0,0.04513835906982422
21,-363.0,-278.0,8.0,1.0,-10866.0,-5905.0,9245.0,5478.0,3.0,5.0,-4.0,-21.0,-16.0,-12.0,-2.0,-1.0,0.04704594612121582
22,-363.0,-278.0,8.0,1.0,-10866.0,-5905.0,9245.0,5478.0,-5.0,0.0,9.0,20.0,-28.0,-5.0,-5.0,-1.0,0.048909902572631836
23,-689.0,-208.0,8.0,1.0,-10886.0,-5816.0,9229.0,5563.0,-5.0,0.0,9.0,20.0,-28.0,-5.0,-5.0,-1.0,0.050913333892822266
24,-689.0,-208.0,8.0,1.0,-10886.0,-5816.0,9229.0,5563.0,4.0,-1.0,-15.0,-10.0,24.0,16.0,4.0,3.0,0.053128719329833984
25,-689.0,-208.0,8.0,1.0,-10886.0,-5816.0,9229.0,5563.0,1.0,0.0,1.0,14.0,2.0,11.0,3.0,3.0,0.05564284324645996
26,-773.0,-219.0,71.0,1.0,-10918.0,-5704.0,9210.0,5647.0,1.0,0.0,1.0,14.0,2.0,11.0,3.0,3.0,0.05768847465515137
27,-773.0,-219.0,71.0,1.0,-10918.0,-5704.0,9210.0,5647.0,-6.0,1.0,3.0,3.0,-32.0,0.0,-4.0,-6.0,0.06002664566040039
28,-773.0,-219.0,71.0,1.0,-10918.0,-5704.0,9210.0,5647.0,-12.0,-5.0,-12.0,-14.0,5.0,-6.0,2.0,-2.0,0.06212973594665527
29,-605.0,-280.0,20.0,1.0,-10930.0,-5610.0,9208.0,5720.0,-12.0,-5.0,-12.0,-14.0,5.0,-6.0,2.0,-2.0,0.06400012969970703
30,-605.0,-280.0,20.0,1.0,-10930.0,-5610.0,9208.0,5720.0,-4.0,-2.0,-2.0,17.0,23.0,2.0,3.0,1.0,0.06587338447570801
31,-605.0,-280.0,20.0,1.0,-10930.0,-5610.0,9208.0,5720.0,3.0,4.0,7.0,-1.0,-26.0,4.0,-1.0,0.0,0.06768536567687988
32,-556.0,-232.0,73.0,1.0,-10947.0,-5520.0,9202.0,5784.0,3.0,4.0,7.0,-1.0,-26.0,4.0,-1.0,0.0,0.06945586204528809
33,-556.0,-232.0,73.0,1.0,-10947.0,-5520.0,9202.0,5784.0,-8.0,-8.0,-9.0,1.0,1.0,10.0,-5.0,-2.0,0.07131290435791016
34,-556.0,-232.0,73.0,1.0,-10947.0,-5520.0,9202.0,5784.0,10.0,9.0,-21.0,-34.0,-33.0,11.0,2.0,1.0,0.07316160202026367
35,-585.0,-91.0,136.0,1.0,-10986.0,-5426.0,9183.0,5829.0,10.0,9.0,-21.0,-34.0,-33.0,11.0,2.0,1.0,0.07502079010009766
36,-585.0,-91.0,136.0,1.0,-10986.0,-5426.0,9183.0,5829.0,-1.0,-4.0,-6.0,6.0,-5.0,-20.0,-13.0,1.0,0.07689714431762695
37,-585.0,-91.0,136.0,1.0,-10986.0,-5426.0,9183.0,5829.0,3.0,-2.0,0.0,6.0,33.0,1.0,5.0,0.0,0.0786747932434082
38,-491.0,-84.0,135.0,1.0,-11019.0,-5342.0,9171.0,5864.0,3.0,-2.0,0.0,6.0,33.0,1.0,5.0,0.0,0.08045363426208496
39,-491.0,-84.0,135.0,1.0,-11019.0,-5342.0,9171.0,5864.0,2.0,-1.0,-7.0,1.0,31.0,11.0,6.0,-2.0,0.08269286155700684
40,-491.0,-84.0,135.0,1.0,-11019.0,-5342.0,9171.0,5864.0,0.0,2.0,-3.0,-12.0,22.0,-30.0,-9.0,-1.0,0.08473944664001465
41,-177.0,-119.0,109.0,1.0,-11028.0,-5297.0,9181.0,5872.0,0.0,2.0,-3.0,-12.0,22.0,-30.0,-9.0,-1.0,0.08667755126953125
42,-177.0,-119.0,109.0,1.0,-11028.0,-5297.0,9181.0,5872.0,-2.0,-6.0,11.0,4.0,37.0,16.0,1.0,-4.0,0.08857464790344238
43,-177.0,-119.0,109.0,1.0,-11028.0,-5297.0,9181.0,5872.0,0.0,2.0,14.0,30.0,11.0,19.0,10.0,0.0,0.09037923812866211
44,-56.0,-59.0,207.0,1.0,-11039.0,-5263.0,9199.0,5853.0,0.0,2.0,14.0,30.0,11.0,19.0,10.0,0.0,0.0921621322631836
45,-56.0,-59.0,207.0,1.0,-11039.0,-5263.0,9199.0,5853.0,0.0,2.0,14.0,30.0,11.0,19.0,10.0,0.0,0.09401774406433105
46,-56.0,-59.0,207.0,1.0,-11039.0,-5263.0,9199.0,5853.0,2.0,3.0,8.0,4.0,-26.0,-27.0,-4.0,-1.0,0.09562230110168457
47,-56.0,-59.0,207.0,1.0,-11039.0,-5263.0,9199.0,5853.0,1.0,-1.0,2.0,2.0,-32.0,-11.0,0.0,11.0,0.09761548042297363
48,-246.0,-11.0,235.0,1.0,-11070.0,-5204.0,9201.0,5845.0,1.0,-1.0,2.0,2.0,-32.0,-11.0,0.0,11.0,0.10125851631164551
49,-246.0,-11.0,235.0,1.0,-11070.0,-5204.0,9201.0,5845.0,2.0,13.0,22.0,4.0,-1.0,4.0,3.0,2.0,0.10343718528747559
50,-246.0,-11.0,235.0,1.0,-11070.0,-5204.0,9201.0,5845.0,-3.0,-6.0,-15.0,4.0,24.0,-10.0,-7.0,-8.0,0.10526514053344727
51,-161.0,13.0,183.0,1.0,-11102.0,-5156.0,9195.0,5837.0,-3.0,-6.0,-15.0,4.0,24.0,-10.0,-7.0,-8.0,0.10707926750183105
52,-161.0,13.0,183.0,1.0,-11102.0,-5156.0,9195.0,5837.0,-2.0,-2.0,2.0,11.0,28.0,13.0,1.0,2.0,0.10898137092590332
53,-161.0,13.0,183.0,1.0,-11102.0,-5156.0,9195.0,5837.0,5.0,19.0,24.0,-9.0,-12.0,9.0,3.0,2.0,0.11076140403747559
54,-86.0,39.0,195.0,1.0,-11130.0,-5119.0,9194.0,5816.0,5.0,19.0,24.0,-9.0,-12.0,9.0,3.0,2.0,0.11271834373474121
55,-86.0,39.0,195.0,1.0,-11130.0,-5119.0,9194.0,5816.0,-4.0,-3.0,-8.0,-2.0,-16.0,3.0,-3.0,-4.0,0.1149144172668457
56,-86.0,39.0,195.0,1.0,-11130.0,-5119.0,9194.0,5816.0,-4.0,-12.0,-14.0,-2.0,18.0,18.0,-3.0,-4.0,0.11689352989196777
57,107.0,49.0,146.0,1.0,-11142.0,-5115.0,9203.0,5782.0,-4.0,-12.0,-14.0,-2.0,18.0,18.0,-3.0,-4.0,0.11887669563293457
58,107.0,49.0,146.0,1.0,-11142.0,-5115.0,9203.0,5782.0,0.0,-3.0,1.0,-2.0,-44.0,-5.0,2.0,2.0,0.12098979949951172
59,107.0,49.0,146.0,1.0,-11142.0,-5115.0,9203.0,5782.0,-4.0,-8.0,-3.0,0.0,12.0,2.0,-2.0,-2.0,0.12313294410705566
60,152.0,48.0,99.0,1.0,-11145.0,-5127.0,9211.0,5753.0,-4.0,-8.0,-3.0,0.0,12.0,2.0,-2.0,-2.0,0.12521004676818848
61,152.0,48.0,99.0,1.0,-11145.0,-5127.0,9211.0,5753.0,-4.0,-8.0,-3.0,0.0,12.0,2.0,-2.0,-2.0,0.12711501121520996
62,152.0,48.0,99.0,1.0,-11145.0,-5127.0,9211.0,5753.0,-4.0,-8.0,-5.0,-5.0,25.0,22.0,1.0,-1.0,0.12874484062194824
63,152.0,48.0,99.0,1.0,-11145.0,-5127.0,9211.0,5753.0,7.0,0.0,7.0,0.0,-12.0,-15.0,-1.0,-2.0,0.1305394172668457
64,78.0,64.0,86.0,1.0,-11150.0,-5138.0,9210.0,5736.0,7.0,0.0,7.0,0.0,-12.0,-15.0,-1.0,-2.0,0.13233256340026855
65,78.0,64.0,86.0,1.0,-11150.0,-5138.0,9210.0,5736.0,-1.0,-2.0,-7.0,-6.0,1.0,-17.0,-4.0,-1.0,0.13419198989868164
66,78.0,64.0,86.0,1.0,-11150.0,-5138.0,9210.0,5736.0,-3.0,-3.0,-3.0,1.0,9.0,-2.0,-4.0,-4.0,0.13597559928894043
67,8.0,29.0,53.0,1.0,-11149.0,-5144.0,9210.0,5731.0,-3.0,-3.0,-3.0,1.0,9.0,-2.0,-4.0,-4.0,0.1378309726715088
68,8.0,29.0,53.0,1.0,-11149.0,-5144.0,9210.0,5731.0,-3.0,1.0,-14.0,-10.0,-7.0,-1.0,2.0,1.0,0.13973355293273926
69,8.0,29.0,53.0,1.0,-11149.0,-5144.0,9210.0,5731.0,3.0,9.0,-1.0,-15.0,-10.0,2.0,0.0,3.0,0.1415102481842041
70,-35.0,16.0,19.0,1.0,-11150.0,-5144.0,9207.0,5734.0,3.0,9.0,-1.0,-15.0,-10.0,2.0,0.0,3.0,0.1434001922607422
71,-35.0,16.0,19.0,1.0,-11150.0,-5144.0,9207.0,5734.0,4.0,1.0,-1.0,-4.0,5.0,-14.0,-2.0,-2.0,0.14564037322998047
72,-35.0,16.0,19.0,1.0,-11150.0,-5144.0,9207.0,5734.0,-5.0,-6.0,-3.0,4.0,0.0,4.0,1.0,-2.0,0.14768600463867188
73,-32.0,32.0,10.0,1.0,-11153.0,-5146.0,9202.0,5735.0,-5.0,-6.0,-3.0,4.0,0.0,4.0,1.0,-2.0,0.14948749542236328
74,-32.0,32.0,10.0,1.0,-11153.0,-5146.0,9202.0,5735.0,1.0,4.0,7.0,-1.0,-11.0,-1.0,1.0,-1.0,0.151350736618042
75,-32.0,32.0,10.0,1.0,-11153.0,-5146.0,9202.0,5735.0,-6.0,-4.0,-9.0,-6.0,-7.0,-15.0,-2.0,-6.0,0.15317344665527344
76,3.0,25.0,-9.0,1.0,-11153.0,-5152.0,9198.0,5736.0,-6.0,-4.0,-9.0,-6.0,-7.0,-15.0,-2.0,-6.0,0.15498137474060059
77,3.0,25.0,-9.0,1.0,-11153.0,-5152.0,9198.0,5736.0,5.0,-1.0,1.0,2.0,-5.0,-1.0,-1.0,1.0,0.15721344947814941
78,3.0,25.0,-9.0,1.0,-11153.0,-5152.0,9198.0,5736.0,4.0,12.0,11.0,1.0,-9.0,-3.0,0.0,5.0,0.1590108871459961
79,62.0,29.0,-10.0,1.0,-11149.0,-5166.0,9198.0,5732.0,4.0,12.0,11.0,1.0,-9.0,-3.0,0.0,5.0,0.16111254692077637
80,62.0,29.0,-10.0,1.0,-11149.0,-5166.0,9198.0,5732.0,-1.0,2.0,-5.0,-4.0,0.0,1.0,-6.0,-6.0,0.1648879051208496
81,62.0,29.0,-10.0,1.0,-11149.0,-5166.0,9198.0,5732.0,-1.0,-7.0,0.0,2.0,3.0,-1.0,-2.0,0.0,0.16680574417114258
82,54.0,3.0,2.0,1.0,-11142.0,-5177.0,9203.0,5726.0,-1.0,-7.0,0.0,2.0,3.0,-1.0,-2.0,0.0,0.16866421699523926
83,54.0,3.0,2.0,1.0,-11142.0,-5177.0,9203.0,5726.0,2.0,-2.0,2.0,-5.0,-4.0,0.0,0.0,2.0,0.17063093185424805
84,54.0,3.0,2.0,1.0,-11142.0,-5177.0,9203.0,5726.0,-5.0,-3.0,1.0,0.0,-2.0,5.0,1.0,-2.0,0.17247939109802246
85,15.0,-39.0,3.0,1.0,-11134.0,-5180.0,9211.0,5727.0,-5.0,-3.0,1.0,0.0,-2.0,5.0,1.0,-2.0,0.17436981201171875
86,15.0,-39.0,3.0,1.0,-11134.0,-5180.0,9211.0,5727.0,9.0,14.0,-3.0,-8.0,-7.0,-5.0,-1.0,4.0,0.17730188369750977
87,15.0,-39.0,3.0,1.0,-11134.0,-5180.0,9211.0,5727.0,-4.0,-6.0,-2.0,-3.0,9.0,0.0,1.0,-1.0,0.17928600311279297
88,-32.0,-37.0,32.0,1.0,-11131.0,-5174.0,9217.0,5728.0,-4.0,-6.0,-2.0,-3.0,9.0,0.0,1.0,-1.0,0.18112564086914062
89,-32.0,-37.0,32.0,1.0,-11131.0,-5174.0,9217.0,5728.0,-6.0,-7.0,1.0,-1.0,4.0,3.0,1.0,-2.0,0.1829833984375
90,-32.0,-37.0,32.0,1.0,-11131.0,-5174.0,9217.0,5728.0,-6.0,-8.0,-7.0,1.0,11.0,-8.0,-1.0,-5.0,0.18515753746032715
91,-26.0,-44.0,48.0,1.0,-11132.0,-5163.0,9223.0,5727.0,-6.0,-8.0,-7.0,1.0,11.0,-8.0,-1.0,-5.0,0.18726897239685059
92,-26.0,-44.0,48.0,1.0,-11132.0,-5163.0,9223.0,5727.0,-1.0,8.0,0.0,-9.0,-37.0,-3.0,3.0,4.0,0.18946123123168945
93,-26.0,-44.0,48.0,1.0,-11132.0,-5163.0,9223.0,5727.0,-1.0,-2.0,-6.0,10.0,-37.0,-4.0,-4.0,-7.0,0.19128704071044922
94,-9.0,-40.0,56.0,1.0,-11130.0,-5154.0,9233.0,5722.0,-1.0,-2.0,-6.0,10.0,-37.0,-4.0,-4.0,-7.0,0.19310235977172852
95,-9.0,-40.0,56.0,1.0,-11130.0,-5154.0,9233.0,5722.0,-4.0,-6.0,-3.0,-1.0,-3.0,-17.0,-3.0,-1.0,0.19498634338378906
96,-9.0,-40.0,56.0,1.0,-11130.0,-5154.0,9233.0,5722.0,0.0,-3.0,-1.0,4.0,5.0,-9.0,-2.0,0.0,0.19678688049316406
97,-28.0,-84.0,82.0,1.0,-11125.0,-5141.0,9248.0,5720.0,0.0,-3.0,-1.0,4.0,5.0,-9.0,-2.0,0.0,0.19857096672058105
98,-28.0,-84.0,82.0,1.0,-11125.0,-5141.0,9248.0,5720.0,4.0,2.0,-7.0,-6.0,13.0,0.0,-1.0,0.0,0.20045232772827148
99,-28.0,-84.0,82.0,1.0,-11125.0,-5141.0,9248.0,5720.0,-1.0,-1.0,2.0,6.0,32.0,4.0,2.0,-1.0,0.2022418975830078
100,-91.0,-68.0,64.0,1.0,-11126.0,-5119.0,9256.0,5724.0,-1.0,-1.0,2.0,6.0,32.0,4.0,2.0,-1.0,0.20406746864318848
101,-91.0,-68.0,64.0,1.0,-11126.0,-5119.0,9256.0,5724.0,-8.0,-7.0,-6.0,5.0,16.0,4.0,-1.0,0.0,0.20673727989196777
102,-91.0,-68.0,64.0,1.0,-11126.0,-5119.0,9256.0,5724.0,8.0,-3.0,9.0,-8.0,-19.0,12.0,1.0,2.0,0.20881247520446777
103,-115.0,-36.0,85.0,1.0,-11136.0,-5093.0,9257.0,5726.0,8.0,-3.0,9.0,-8.0,-19.0,12.0,1.0,2.0,0.2107541561126709
104,-115.0,-36.0,85.0,1.0,-11136.0,-5093.0,9257.0,5726.0,-24.0,-7.0,18.0,9.0,-3.0,-17.0,-3.0,-11.0,0.21265840530395508
105,-115.0,-36.0,85.0,1.0,-11136.0,-5093.0,9257.0,5726.0,15.0,8.0,-7.0,-1.0,12.0,8.0,0.0,6.0,0.21444964408874512
106,-44.0,-70.0,82.0,1.0,-11138.0,-5073.0,9268.0,5723.0,15.0,8.0,-7.0,-1.0,12.0,8.0,0.0,6.0,0.21625113487243652
107,-44.0,-70.0,82.0,1.0,-11138.0,-5073.0,9268.0,5723.0,-9.0,-9.0,-21.0,-12.0,-3.0,12.0,3.0,1.0,0.21811342239379883
108,-44.0,-70.0,82.0,1.0,-11138.0,-5073.0,9268.0,5723.0,-3.0,4.0,-3.0,-10.0,8.0,-5.0,-1.0,-1.0,0.21995234489440918
109,-19.0,-136.0,97.0,1.0,-11126.0,-5057.0,9292.0,5720.0,-3.0,4.0,-3.0,-10.0,8.0,-5.0,-1.0,-1.0,0.2217388153076172
110,-19.0,-136.0,97.0,1.0,-11126.0,-5057.0,9292.0,5720.0,7.0,-2.0,-12.0,-3.0,24.0,-1.0,-2.0,-1.0,0.2241072654724121
111,-19.0,-136.0,97.0,1.0,-11126.0,-5057.0,9292.0,5720.0,0.0,-2.0,0.0,-9.0,-48.0,9.0,-1.0,1.0,0.22629690170288086
112,-194.0,-22.0,92.0,1.0,-11145.0,-5016.0,9288.0,5727.0,0.0,-2.0,0.0,-9.0,-48.0,9.0,-1.0,1.0,0.22838997840881348
113,-194.0,-22.0,92.0,1.0,-11145.0,-5016.0,9288.0,5727.0,4.0,1.0,-6.0,-5.0,-25.0,-2.0,0.0,0.0,0.2303178310394287
114,-194.0,-22.0,92.0,1.0,-11145.0,-5016.0,9288.0,5727.0,-9.0,-7.0,-1.0,8.0,-2.0,1.0,3.0,-1.0,0.2321765422821045
115,-120.0,-26.0,83.0,1.0,-11155.0,-4991.0,9288.0,5730.0,-9.0,-7.0,-1.0,8.0,-2.0,1.0,3.0,-1.0,0.23398447036743164
116,-120.0,-26.0,83.0,1.0,-11155.0,-4991.0,9288.0,5730.0,6.0,-2.0,10.0,14.0,5.0,-10.0,-7.0,-4.0,0.23639941215515137
117,-120.0,-26.0,83.0,1.0,-11155.0,-4991.0,9288.0,5730.0,-3.0,-2.0,-4.0,8.0,19.0,3.0,0.0,0.0,0.23849797248840332
118,34.0,-26.0,45.0,1.0,-11155.0,-4986.0,9295.0,5721.0,-3.0,-2.0,-4.0,8.0,19.0,3.0,0.0,0.0,0.24054598808288574
119,34.0,-26.0,45.0,1.0,-11155.0,-4986.0,9295.0,5721.0,4.0,-2.0,12.0,5.0,8.0,-1.0,-1.0,-2.0,0.24254179000854492
120,34.0,-26.0,45.0,1.0,-11155.0,-4986.0,9295.0,5721.0,-6.0,-2.0,-6.0,-2.0,9.0,-8.0,-5.0,-6.0,0.2443680763244629
121,76.0,21.0,17.0,1.0,-11155.0,-4996.0,9297.0,5712.0,-6.0,-2.0,-6.0,-2.0,9.0,-8.0,-5.0,-6.0,0.2461714744567871
122,76.0,21.0,17.0,1.0,-11155.0,-4996.0,9297.0,5712.0,0.0,-8.0,-9.0,3.0,3.0,7.0,0.0,1.0,0.24837255477905273
123,76.0,21.0,17.0,1.0,-11155.0,-4996.0,9297.0,5712.0,9.0,4.0,-8.0,-7.0,5.0,14.0,2.0,0.0,0.2505180835723877
124,27.0,7.0,11.0,1.0,-11154.0,-5001.0,9296.0,5711.0,9.0,4.0,-8.0,-7.0,5.0,14.0,2.0,0.0,0.2526116371154785
125,27.0,7.0,11.0,1.0,-11154.0,-5001.0,9296.0,5711.0,0.0,1.0,2.0,-4.0,-14.0,10.0,1.0,-3.0,0.2545180320739746
126,27.0,7.0,11.0,1.0,-11154.0,-5001.0,9296.0,5711.0,1.0,3.0,18.0,11.0,10.0,-5.0,-4.0,-1.0,0.2563633918762207
127,8.0,-3.0,-9.0,1.0,-11154.0,-5002.0,9295.0,5711.0,1.0,3.0,18.0,11.0,10.0,-5.0,-4.0,-1.0,0.2581934928894043
128,8.0,-3.0,-9.0,1.0,-11154.0,-5002.0,9295.0,5711.0,-2.0,0.0,5.0,9.0,9.0,13.0,2.0,0.0,0.2601027488708496
129,8.0,-3.0,-9.0,1.0,-11154.0,-5002.0,9295.0,5711.0,-6.0,-3.0,-1.0,4.0,8.0,0.0,2.0,3.0,0.26200056076049805
130,21.0,-10.0,-36.0,1.0,-11148.0,-5010.0,9295.0,5715.0,-6.0,-3.0,-1.0,4.0,8.0,0.0,2.0,3.0,0.26424598693847656
131,21.0,-10.0,-36.0,1.0,-11148.0,-5010.0,9295.0,5715.0,6.0,8.0,5.0,-6.0,-2.0,11.0,-1.0,0.0,0.26613855361938477
132,21.0,-10.0,-36.0,1.0,-11148.0,-5010.0,9295.0,5715.0,-7.0,3.0,11.0,-8.0,-34.0,-19.0,-1.0,0.0,0.26874876022338867
133,16.0,-14.0,-44.0,1.0,-11139.0,-5020.0,9296.0,5722.0,-7.0,3.0,11.0,-8.0,-34.0,-19.0,-1.0,0.0,0.27076196670532227
134,16.0,-14.0,-44.0,1.0,-11139.0,-5020.0,9296.0,5722.0,5.0,-3.0,-8.0,-7.0,-1.0,-18.0,-2.0,3.0,0.2730250358581543
135,16.0,-14.0,-44.0,1.0,-11139.0,-5020.0,9296.0,5722.0,-1.0,11.0,-12.0,-17.0,4.0,3.0,-2.0,0.0,0.27497124671936035
136,-35.0,1.0,-44.0,1.0,-11136.0,-5024.0,9293.0,5731.0,-1.0,11.0,-12.0,-17.0,4.0,3.0,-2.0,0.0,0.2768115997314453
137,-35.0,1.0,-44.0,1.0,-11136.0,-5024.0,9293.0,5731.0,-3.0,1.0,1.0,4.0,4.0,-10.0,-3.0,-1.0,0.27867937088012695
138,-35.0,1.0,-44.0,1.0,-11136.0,-5024.0,9293.0,5731.0,0.0,-1.0,5.0,17.0,-6.0,4.0,0.0,0.0,0.28049755096435547
139,-40.0,13.0,-40.0,1.0,-11134.0,-5027.0,9287.0,5740.0,0.0,-1.0,5.0,17.0,-6.0,4.0,0.0,0.0,0.28247499465942383
140,-40.0,13.0,-40.0,1.0,-11134.0,-5027.0,9287.0,5740.0,3.0,4.0,7.0,3.0,1.0,-3.0,0.0,2.0,0.2844085693359375
141,-40.0,13.0,-40.0,1.0,-11134.0,-5027.0,9287.0,5740.0,-2.0,-7.0,-8.0,3.0,12.0,3.0,2.0,2.0,0.28618812561035156
142,-69.0,-9.0,-24.0,1.0,-11133.0,-5022.0,9286.0,5748.0,-2.0,-7.0,-8.0,3.0,12.0,3.0,2.0,2.0,0.2894003391265869
143,-69.0,-9.0,-24.0,1.0,-11133.0,-5022.0,9286.0,5748.0,1.0,2.0,-3.0,-15.0,7.0,6.0,0.0,-2.0,0.2921910285949707
144,-69.0,-9.0,-24.0,1.0,-11133.0,-5022.0,9286.0,5748.0,-1.0,-6.0,-12.0,2.0,11.0,-7.0,-3.0,-2.0,0.2940218448638916
145,-14.0,-26.0,-8.0,1.0,-11126.0,-5024.0,9291.0,5752.0,-1.0,-6.0,-12.0,2.0,11.0,-7.0,-3.0,-2.0,0.29581356048583984
146,-14.0,-26.0,-8.0,1.0,-11126.0,-5024.0,9291.0,5752.0,-4.0,4.0,8.0,9.0,-6.0,-4.0,1.0,-1.0,0.29779529571533203
147,-14.0,-26.0,-8.0,1.0,-11126.0,-5024.0,9291.0,5752.0,1.0,-3.0,8.0,-7.0,9.0,6.0,-2.0,-2.0,0.3007161617279053
148,-23.0,-36.0,6.0,1.0,-11121.0,-5021.0,9297.0,5754.0,1.0,-3.0,8.0,-7.0,9.0,6.0,-2.0,-2.0,0.3025472164154053
149,-23.0,-36.0,6.0,1.0,-11121.0,-5021.0,9297.0,5754.0,-3.0,-6.0,-4.0,4.0,-8.0,4.0,-2.0,1.0,0.304431676864624
150,-23.0,-36.0,6.0,1.0,-11121.0,-5021.0,9297.0,5754.0,-3.0,6.0,24.0,9.0,2.0,-4.0,-2.0,0.0,0.3062169551849365
151,-46.0,-22.0,10.0,1.0,-11120.0,-5014.0,9299.0,5758.0,-3.0,6.0,24.0,9.0,2.0,-4.0,-2.0,0.0,0.30803799629211426
152,-46.0,-22.0,10.0,1.0,-11120.0,-5014.0,9299.0,5758.0,4.0,-1.0,4.0,0.0,1.0,3.0,3.0,3.0,0.3100557327270508
153,-46.0,-22.0,10.0,1.0,-11120.0,-5014.0,9299.0,5758.0,-1.0,-6.0,-1.0,-5.0,-2.0,-2.0,-1.0,-1.0,0.3122684955596924
154,3.0,22.0,6.0,1.0,-11124.0,-5014.0,9297.0,5756.0,-1.0,-6.0,-1.0,-5.0,-2.0,-2.0,-1.0,-1.0,0.31430935859680176
155,3.0,22.0,6.0,1.0,-11124.0,-5014.0,9297.0,5756.0,0.0,-2.0,-12.0,-10.0,-29.0,-8.0,-2.0,0.0,0.31630611419677734
156,3.0,22.0,6.0,1.0,-11124.0,-5014.0,9297.0,5756.0,-7.0,-1.0,4.0,4.0,16.0,2.0,-2.0,-6.0,0.3181443214416504
157,40.0,61.0,-2.0,1.0,-11130.0,-5021.0,9290.0,5749.0,-7.0,-1.0,4.0,4.0,16.0,2.0,-2.0,-6.0,0.3199577331542969
158,40.0,61.0,-2.0,1.0,-11130.0,-5021.0,9290.0,5749.0,-5.0,-5.0,3.0,9.0,12.0,4.0,2.0,1.0,0.321835994720459
159,40.0,61.0,-2.0,1.0,-11130.0,-5021.0,9290.0,5749.0,-4.0,-2.0,-16.0,-14.0,7.0,-22.0,-2.0,-1.0,0.32375073432922363
160,63.0,55.0,-10.0,1.0,-11133.0,-5031.0,9285.0,5741.0,-4.0,-2.0,-16.0,-14.0,7.0,-22.0,-2.0,-1.0,0.3255445957183838
161,63.0,55.0,-10.0,1.0,-11133.0,-5031.0,9285.0,5741.0,0.0,-3.0,-12.0,-13.0,1.0,3.0,0.0,3.0,0.32750535011291504
162,63.0,55.0,-10.0,1.0,-11133.0,-5031.0,9285.0,5741.0,1.0,1.0,-3.0,-6.0,-4.0,7.0,1.0,0.0,0.3301525115966797
163,53.0,1.0,17.0,1.0,-11129.0,-5039.0,9291.0,5733.0,1.0,1.0,-3.0,-6.0,-4.0,7.0,1.0,0.0,0.3322267532348633
164,53.0,1.0,17.0,1.0,-11129.0,-5039.0,9291.0,5733.0,-1.0,-2.0,1.0,9.0,-8.0,-5.0,-2.0,-2.0,0.33541393280029297
165,53.0,1.0,17.0,1.0,-11129.0,-5039.0,9291.0,5733.0,4.0,-1.0,-9.0,-4.0,-7.0,-1.0,-1.0,2.0,0.3376734256744385
166,-15.0,-12.0,20.0,1.0,-11125.0,-5039.0,9297.0,5732.0,4.0,-1.0,-9.0,-4.0,-7.0,-1.0,-1.0,2.0,0.3395421504974365
167,-15.0,-12.0,20.0,1.0,-11125.0,-5039.0,9297.0,5732.0,-4.0,-2.0,20.0,11.0,5.0,-1.0,-2.0,-5.0,0.34143519401550293
168,-15.0,-12.0,20.0,1.0,-11125.0,-5039.0,9297.0,5732.0,-2.0,-6.0,4.0,6.0,-8.0,7.0,3.0,4.0,0.34329843521118164
169,-34.0,-25.0,22.0,1.0,-11123.0,-5032.0,9303.0,5731.0,-2.0,-6.0,4.0,6.0,-8.0,7.0,3.0,4.0,0.34516239166259766
170,-34.0,-25.0,22.0,1.0,-11123.0,-5032.0,9303.0,5731.0,-5.0,-4.0,-7.0,0.0,5.0,-18.0,-2.0,-3.0,0.34702062606811523
171,-34.0,-25.0,22.0,1.0,-11123.0,-5032.0,9303.0,5731.0,-4.0,-2.0,-5.0,-1.0,7.0,-4.0,0.0,-2.0,0.34886932373046875
172,26.0,-23.0,21.0,1.0,-11119.0,-5032.0,9311.0,5726.0,-4.0,-2.0,-5.0,-1.0,7.0,-4.0,0.0,-2.0,0.3506336212158203
173,26.0,-23.0,21.0,1.0,-11119.0,-5032.0,9311.0,5726.0,3.0,3.0,-9.0,-5.0,-8.0,0.0,-2.0,0.0,0.3524928092956543
174,26.0,-23.0,21.0,1.0,-11119.0,-5032.0,9311.0,5726.0,3.0,8.0,-1.0,-5.0,-18.0,13.0,2.0,0.0,0.35433268547058105
175,46.0,1.0,16.0,1.0,-11116.0,-5038.0,9316.0,5719.0,3.0,8.0,-1.0,-5.0,-18.0,13.0,2.0,0.0,0.35612010955810547
176,46.0,1.0,16.0,1.0,-11116.0,-5038.0,9316.0,5719.0,5.0,0.0,-6.0,-4.0,4.0,-1.0,-8.0,0.0,0.35802745819091797
177,46.0,1.0,16.0,1.0,-11116.0,-5038.0,9316.0,5719.0,0.0,-3.0,3.0,1.0,0.0,5.0,0.0,0.0,0.3604776859283447
178,7.0,-1.0,14.0,1.0,-11099.0,-5087.0,9354.0,5645.0,0.0,-3.0,3.0,1.0,0.0,5.0,0.0,0.0,0.3628499507904053
179,7.0,-1.0,14.0,1.0,-11099.0,-5087.0,9354.0,5645.0,2.0,9.0,-2.0,5.0,6.0,2.0,0.0,0.0,0.3651306629180908
180,7.0,-1.0,14.0,1.0,-11099.0,-5087.0,9354.0,5645.0,4.0,3.0,-2.0,-2.0,-5.0,-2.0,-3.0,-2.0,0.36698293685913086
181,-6.0,1.0,16.0,1.0,-11100.0,-5087.0,9353.0,5645.0,4.0,3.0,-2.0,-2.0,-5.0,-2.0,-3.0,-2.0,0.3689002990722656
182,-6.0,1.0,16.0,1.0,-11100.0,-5087.0,9353.0,5645.0,-4.0,-2.0,-8.0,-2.0,-4.0,-2.0,2.0,0.0,0.3708052635192871
183,-6.0,1.0,16.0,1.0,-11100.0,-5087.0,9353.0,5645.0,-2.0,-4.0,-8.0,3.0,2.0,3.0,-2.0,-1.0,0.37264370918273926
184,-11.0,1.0,29.0,1.0,-11101.0,-5085.0,9354.0,5644.0,-2.0,-4.0,-8.0,3.0,2.0,3.0,-2.0,-1.0,0.3814518451690674
185,-11.0,1.0,29.0,1.0,-11101.0,-5085.0,9354.0,5644.0,-2.0,-3.0,-7.0,-11.0,-4.0,-6.0,-3.0,-1.0,0.38332438468933105
186,-11.0,1.0,29.0,1.0,-11101.0,-5085.0,9354.0,5644.0,-2.0,-2.0,-2.0,-3.0,-2.0,-3.0,1.0,0.0,0.39623093605041504
187,-10.0,7.0,25.0,1.0,-11103.0,-5082.0,9353.0,5642.0,-2.0,-2.0,-2.0,-3.0,-2.0,-3.0,1.0,0.0,0.39848923683166504
188,-10.0,7.0,25.0,1.0,-11103.0,-5082.0,9353.0,5642.0,1.0,4.0,-3.0,2.0,9.0,1.0,-2.0,1.0,0.40282106399536133
189,-10.0,7.0,25.0,1.0,-11103.0,-5082.0,9353.0,5642.0,-1.0,3.0,0.0,-5.0,-3.0,9.0,-2.0,-2.0,0.41019463539123535
190,-22.0,17.0,22.0,1.0,-11107.0,-5080.0,9351.0,5642.0,-1.0,3.0,0.0,-5.0,-3.0,9.0,-2.0,-2.0,0.41855549812316895
191,-22.0,17.0,22.0,1.0,-11107.0,-5080.0,9351.0,5642.0,-2.0,1.0,17.0,1.0,0.0,-5.0,2.0,0.0,0.42626047134399414
192,-22.0,17.0,22.0,1.0,-11107.0,-5080.0,9351.0,5642.0,-2.0,-5.0,-2.0,-1.0,5.0,9.0,0.0,0.0,0.4329071044921875
193,-10.0,20.0,19.0,1.0,-11110.0,-5079.0,9349.0,5640.0,-2.0,-5.0,-2.0,-1.0,5.0,9.0,0.0,0.0,0.4497513771057129
194,-10.0,20.0,19.0,1.0,-11110.0,-5079.0,9349.0,5640.0,-1.0,-3.0,-2.0,-1.0,-4.0,5.0,0.0,0.0,0.4541037082672119
195,-10.0,20.0,19.0,1.0,-11110.0,-5079.0,9349.0,5640.0,-10.0,-4.0,-3.0,2.0,-1.0,-4.0,-2.0,-5.0,0.457470178604126
196,2.0,20.0,20.0,1.0,-11111.0,-5081.0,9348.0,5637.0,-10.0,-4.0,-3.0,2.0,-1.0,-4.0,-2.0,-5.0,0.46071338653564453
197,2.0,20.0,20.0,1.0,-11111.0,-5081.0,9348.0,5637.0,17.0,13.0,-19.0,-24.0,-17.0,-1.0,4.0,7.0,0.4645395278930664
198,2.0,20.0,20.0,1.0,-11111.0,-5081.0,9348.0,5637.0,0.0,0.0,-3.0,-5.0,-1.0,-11.0,-6.0,-4.0,0.47878074645996094
199,-14.0,25.0,23.0,1.0,-11114.0,-5081.0,9346.0,5635.0,0.0,0.0,-3.0,-5.0,-1.0,-11.0,-6.0,-4.0,0.48058152198791504
200,-14.0,25.0,23.0,1.0,-11114.0,-5081.0,9346.0,5635.0,-5.0,-8.0,-4.0,2.0,-2.0,5.0,0.0,-4.0,0.4857826232910156
201,-14.0,25.0,23.0,1.0,-11114.0,-5081.0,9346.0,5635.0,0.0,-2.0,5.0,3.0,5.0,6.0,4.0,2.0,0.4933466911315918
202,2.0,16.0,23.0,1.0,-11116.0,-5081.0,9347.0,5631.0,0.0,-2.0,5.0,3.0,5.0,6.0,4.0,2.0,0.5104436874389648
203,2.0,16.0,23.0,1.0,-11116.0,-5081.0,9347.0,5631.0,-4.0,-5.0,-1.0,5.0,-2.0,1.0,-1.0,-2.0,0.5152733325958252
204,2.0,16.0,23.0,1.0,-11116.0,-5081.0,9347.0,5631.0,1.0,1.0,-1.0,2.0,-3.0,-9.0,1.0,0.0,0.5192124843597412
205,-8.0,28.0,5.0,1.0,-11118.0,-5083.0,9344.0,5629.0,1.0,1.0,-1.0,2.0,-3.0,-9.0,1.0,0.0,0.5218932628631592
206,-8.0,28.0,5.0,1.0,-11118.0,-5083.0,9344.0,5629.0,3.0,5.0,2.0,7.0,0.0,-6.0,-5.0,0.0,0.5316312313079834
207,-8.0,28.0,5.0,1.0,-11118.0,-5083.0,9344.0,5629.0,-1.0,-1.0,-4.0,-3.0,-5.0,-5.0,0.0,-3.0,0.5346050262451172
208,-6.0,21.0,8.0,1.0,-11119.0,-5085.0,9343.0,5628.0,-1.0,-1.0,-4.0,-3.0,-5.0,-5.0,0.0,-3.0,0.5388798713684082
209,-6.0,21.0,8.0,1.0,-11119.0,-5085.0,9343.0,5628.0,-2.0,-2.0,-1.0,2.0,6.0,2.0,0.0,-2.0,0.5460574626922607
210,-6.0,21.0,8.0,1.0,-11119.0,-5085.0,9343.0,5628.0,5.0,5.0,13.0,5.0,-15.0,-1.0,-1.0,3.0,0.5627427101135254
211,17.0,19.0,0.0,1.0,-11118.0,-5090.0,9342.0,5625.0,5.0,5.0,13.0,5.0,-15.0,-1.0,-1.0,3.0,0.5659623146057129
212,17.0,19.0,0.0,1.0,-11118.0,-5090.0,9342.0,5625.0,0.0,-4.0,4.0,2.0,1.0,6.0,0.0,-1.0,0.5692362785339355
213,17.0,19.0,0.0,1.0,-11118.0,-5090.0,9342.0,5625.0,0.0,-2.0,-3.0,2.0,-2.0,-9.0,0.0,-2.0,0.5776286125183105
214,-5.0,30.0,13.0,1.0,-11120.0,-5092.0,9339.0,5624.0,0.0,-2.0,-3.0,2.0,-2.0,-9.0,0.0,-2.0,0.5809450149536133
215,-5.0,30.0,13.0,1.0,-11120.0,-5092.0,9339.0,5624.0,-3.0,-1.0,2.0,0.0,-3.0,0.0,1.0,0.0,0.5912623405456543
216,-5.0,30.0,13.0,1.0,-11120.0,-5092.0,9339.0,5624.0,-3.0,-6.0,-11.0,-1.0,6.0,-2.0,-1.0,3.0,0.5932297706604004
217,-14.0,17.0,17.0,1.0,-11123.0,-5091.0,9338.0,5622.0,-3.0,-6.0,-11.0,-1.0,6.0,-2.0,-1.0,3.0,0.5983445644378662
218,-14.0,17.0,17.0,1.0,-11123.0,-5091.0,9338.0,5622.0,-3.0,4.0,0.0,-5.0,4.0,-2.0,-3.0,-2.0,0.6058728694915771
219,-14.0,17.0,17.0,1.0,-11123.0,-5091.0,9338.0,5622.0,1.0,2.0,-19.0,-16.0,5.0,-3.0,-3.0,-1.0,0.6132235527038574
220,2.0,19.0,6.0,1.0,-11124.0,-5093.0,9336.0,5620.0,1.0,2.0,-19.0,-16.0,5.0,-3.0,-3.0,-1.0,0.6221702098846436
221,2.0,19.0,6.0,1.0,-11124.0,-5093.0,9336.0,5620.0,-4.0,-1.0,9.0,2.0,2.0,7.0,-1.0,0.0,0.6254665851593018
222,2.0,19.0,6.0,1.0,-11124.0,-5093.0,9336.0,5620.0,6.0,6.0,3.0,-9.0,-4.0,8.0,-3.0,-2.0,0.6371362209320068
223,-1.0,16.0,10.0,1.0,-11126.0,-5093.0,9336.0,5618.0,6.0,6.0,3.0,-9.0,-4.0,8.0,-3.0,-2.0,0.6444008350372314
224,-1.0,16.0,10.0,1.0,-11126.0,-5093.0,9336.0,5618.0,1.0,-5.0,-6.0,-10.0,9.0,1.0,0.0,-4.0,0.6474907398223877
225,-1.0,16.0,10.0,1.0,-11126.0,-5093.0,9336.0,5618.0,-4.0,-4.0,0.0,-2.0,4.0,2.0,-1.0,-1.0,0.6505634784698486
226,11.0,17.0,6.0,1.0,-11125.0,-5097.0,9336.0,5615.0,-4.0,-4.0,0.0,-2.0,4.0,2.0,-1.0,-1.0,0.6580054759979248
227,11.0,17.0,6.0,1.0,-11125.0,-5097.0,9336.0,5615.0,-6.0,-3.0,-7.0,-5.0,16.0,-7.0,-1.0,-1.0,0.6657228469848633
228,11.0,17.0,6.0,1.0,-11125.0,-5097.0,9336.0,5615.0,2.0,-2.0,5.0,4.0,-2.0,6.0,0.0,-1.0,0.6732456684112549
229,9.0,15.0,5.0,1.0,-11125.0,-5097.0,9336.0,5615.0,2.0,-2.0,5.0,4.0,-2.0,6.0,0.0,-1.0,0.6903293132781982
230,9.0,15.0,5.0,1.0,-11125.0,-5097.0,9336.0,5615.0,-6.0,-7.0,3.0,5.0,-11.0,-7.0,-1.0,-1.0,0.6941654682159424
231,9.0,15.0,5.0,1.0,-11125.0,-5097.0,9336.0,5615.0,5.0,9.0,18.0,1.0,3.0,-2.0,2.0,2.0,0.6972377300262451
232,0.0,13.0,9.0,1.0,-11124.0,-5098.0,9337.0,5615.0,5.0,9.0,18.0,1.0,3.0,-2.0,2.0,2.0,0.7039697170257568
233,0.0,13.0,9.0,1.0,-11124.0,-5098.0,9337.0,5615.0,3.0,0.0,0.0,-15.0,-2.0,5.0,0.0,-2.0,0.705855131149292
234,0.0,13.0,9.0,1.0,-11124.0,-5098.0,9337.0,5615.0,-4.0,-2.0,2.0,5.0,0.0,-7.0,1.0,-2.0,0.7105090618133545
235,17.0,12.0,8.0,1.0,-11123.0,-5101.0,9338.0,5611.0,-4.0,-2.0,2.0,5.0,0.0,-7.0,1.0,-2.0,0.7341468334197998
236,17.0,12.0,8.0,1.0,-11123.0,-5101.0,9338.0,5611.0,1.0,-1.0,-7.0,-1.0,-7.0,1.0,2.0,1.0,0.7363147735595703
237,17.0,12.0,8.0,1.0,-11123.0,-5101.0,9338.0,5611.0,16.0,19.0,-2.0,-11.0,8.0,0.0,-1.0,4.0,0.7395920753479004
238,9.0,9.0,10.0,1.0,-11123.0,-5101.0,9338.0,5611.0,16.0,19.0,-2.0,-11.0,8.0,0.0,-1.0,4.0,0.7427899837493896
239,9.0,9.0,10.0,1.0,-11123.0,-5101.0,9338.0,5611.0,-2.0,-8.0,-6.0,2.0,11.0,5.0,-3.0,-1.0,0.7459068298339844
240,9.0,9.0,10.0,1.0,-11123.0,-5101.0,9338.0,5611.0,-12.0,-15.0,-9.0,10.0,6.0,0.0,0.0,-4.0,0.7650771141052246
241,15.0,12.0,23.0,1.0,-11124.0,-5103.0,9340.0,5606.0,-12.0,-15.0,-9.0,10.0,6.0,0.0,0.0,-4.0,0.7680573463439941
242,15.0,12.0,23.0,1.0,-11124.0,-5103.0,9340.0,5606.0,3.0,7.0,6.0,9.0,-5.0,-8.0,-1.0,0.0,0.7711663246154785
243,15.0,12.0,23.0,1.0,-11124.0,-5103.0,9340.0,5606.0,-4.0,-4.0,-2.0,-2.0,-1.0,2.0,0.0,-2.0,0.7791872024536133
244,13.0,3.0,9.0,1.0,-11123.0,-5103.0,9340.0,5606.0,-4.0,-4.0,-2.0,-2.0,-1.0,2.0,0.0,-2.0,0.7812654972076416
245,13.0,3.0,9.0,1.0,-11123.0,-5103.0,9340.0,5606.0,-4.0,-3.0,2.0,0.0,-10.0,-6.0,-2.0,-1.0,0.786081075668335
246,13.0,3.0,9.0,1.0,-11123.0,-5103.0,9340.0,5606.0,-2.0,-7.0,-5.0,0.0,-34.0,-7.0,-1.0,-1.0,0.793179988861084
247,-9.0,6.0,15.0,1.0,-11123.0,-5103.0,9340.0,5606.0,-2.0,-7.0,-5.0,0.0,-34.0,-7.0,-1.0,-1.0,0.8096234798431396
248,-9.0,6.0,15.0,1.0,-11123.0,-5103.0,9340.0,5606.0,-1.0,2.0,10.0,1.0,1.0,-25.0,-4.0,0.0,0.8129329681396484
249,-9.0,6.0,15.0,1.0,-11123.0,-5103.0,9340.0,5606.0,2.0,-4.0,-9.0,2.0,14.0,0.0,0.0,2.0,0.816087007522583
250,10.0,1.0,18.0,1.0,-11122.0,-5105.0,9342.0,5603.0,2.0,-4.0,-9.0,2.0,14.0,0.0,0.0,2.0,0.8417656421661377
251,10.0,1.0,18.0,1.0,-11122.0,-5105.0,9342.0,5603.0,1.0,-1.0,3.0,5.0,-7.0,3.0,-3.0,-1.0,0.8467774391174316
252,10.0,1.0,18.0,1.0,-11122.0,-5105.0,9342.0,5603.0,-7.0,-3.0,7.0,2.0,9.0,-3.0,0.0,-3.0,0.8511552810668945
253,0.0,-4.0,23.0,1.0,-11122.0,-5104.0,9345.0,5600.0,-7.0,-3.0,7.0,2.0,9.0,-3.0,0.0,-3.0,0.8541014194488525
254,0.0,-4.0,23.0,1.0,-11122.0,-5104.0,9345.0,5600.0,0.0,8.0,9.0,3.0,2.0,-5.0,-2.0,2.0,0.8569600582122803
255,0.0,-4.0,23.0,1.0,-11122.0,-5104.0,9345.0,5600.0,-4.0,-3.0,-9.0,-8.0,1.0,-4.0,-2.0,-3.0,0.8588616847991943
256,-15.0,-5.0,24.0,1.0,-11121.0,-5101.0,9348.0,5598.0,-4.0,-3.0,-9.0,-8.0,1.0,-4.0,-2.0,-3.0,0.8687582015991211
257,-15.0,-5.0,24.0,1.0,-11121.0,-5101.0,9348.0,5598.0,2.0,-4.0,-8.0,-3.0,0.0,7.0,3.0,2.0,0.8708229064941406
258,-15.0,-5.0,24.0,1.0,-11121.0,-5101.0,9348.0,5598.0,-5.0,-4.0,-3.0,-5.0,1.0,-4.0,-3.0,-3.0,0.8755207061767578
259,-8.0,-3.0,19.0,1.0,-11121.0,-5099.0,9352.0,5595.0,-5.0,-4.0,-3.0,-5.0,1.0,-4.0,-3.0,-3.0,0.8947947025299072
260,-8.0,-3.0,19.0,1.0,-11121.0,-5099.0,9352.0,5595.0,-3.0,-3.0,-9.0,-4.0,-14.0,-2.0,1.0,-2.0,0.8982040882110596
261,-8.0,-3.0,19.0,1.0,-11121.0,-5099.0,9352.0,5595.0,-4.0,-4.0,3.0,-3.0,3.0,-14.0,-9.0,-3.0,0.900984525680542
262,5.0,2.0,7.0,1.0,-11121.0,-5099.0,9352.0,5595.0,-4.0,-4.0,3.0,-3.0,3.0,-14.0,-9.0,-3.0,0.9027876853942871
263,5.0,2.0,7.0,1.0,-11121.0,-5099.0,9352.0,5595.0,0.0,-3.0,-4.0,2.0,11.0,9.0,0.0,-3.0,0.9051258563995361
264,5.0,2.0,7.0,1.0,-11121.0,-5099.0,9352.0,5595.0,-2.0,-3.0,2.0,7.0,2.0,9.0,1.0,-1.0,0.9221689701080322
265,2.0,8.0,9.0,1.0,-11120.0,-5099.0,9353.0,5595.0,-2.0,-3.0,2.0,7.0,2.0,9.0,1.0,-1.0,0.9251446723937988
266,2.0,8.0,9.0,1.0,-11120.0,-5099.0,9353.0,5595.0,6.0,0.0,4.0,0.0,-25.0,3.0,-2.0,0.0,0.9290521144866943
267,2.0,8.0,9.0,1.0,-11120.0,-5099.0,9353.0,5595.0,-3.0,-5.0,0.0,4.0,-2.0,8.0,-1.0,-4.0,0.9361727237701416
268,5.0,15.0,6.0,1.0,-11120.0,-5099.0,9353.0,5594.0,-3.0,-5.0,0.0,4.0,-2.0,8.0,-1.0,-4.0,0.9437804222106934
269,5.0,15.0,6.0,1.0,-11120.0,-5099.0,9353.0,5594.0,3.0,1.0,0.0,11.0,9.0,8.0,1.0,0.0,0.9465131759643555
270,5.0,15.0,6.0,1.0,-11120.0,-5099.0,9353.0,5594.0,-1.0,-5.0,21.0,7.0,-19.0,-3.0,0.0,0.0,0.9672024250030518
271,5.0,7.0,3.0,1.0,-11120.0,-5099.0,9353.0,5594.0,-1.0,-5.0,21.0,7.0,-19.0,-3.0,0.0,0.0,0.9703035354614258
272,5.0,7.0,3.0,1.0,-11120.0,-5099.0,9353.0,5594.0,-3.0,4.0,-17.0,-25.0,-4.0,-3.0,-2.0,-2.0,0.9738738536834717
273,5.0,7.0,3.0,1.0,-11120.0,-5099.0,9353.0,5594.0,-4.0,-2.0,-6.0,2.0,-30.0,-1.0,0.0,3.0,0.9773902893066406
274,1.0,20.0,4.0,1.0,-11122.0,-5100.0,9352.0,5592.0,-4.0,-2.0,-6.0,2.0,-30.0,-1.0,0.0,3.0,0.9889934062957764
275,1.0,20.0,4.0,1.0,-11122.0,-5100.0,9352.0,5592.0,-3.0,-1.0,-2.0,-4.0,11.0,-4.0,-2.0,-1.0,0.9909787178039551
276,1.0,20.0,4.0,1.0,-11122.0,-5100.0,9352.0,5592.0,4.0,7.0,-4.0,-8.0,8.0,8.0,4.0,1.0,1.0046367645263672
277,0.0,16.0,2.0,1.0,-11123.0,-5101.0,9351.0,5591.0,4.0,7.0,-4.0,-8.0,8.0,8.0,4.0,1.0,1.0065762996673584
278,0.0,16.0,2.0,1.0,-11123.0,-5101.0,9351.0,5591.0,-1.0,1.0,-2.0,-2.0,9.0,-2.0,0.0,1.0,1.0087971687316895
279,0.0,16.0,2.0,1.0,-11123.0,-5101.0,9351.0,5591.0,0.0,0.0,1.0,1.0,-4.0,-2.0,-3.0,-2.0,1.0191049575805664
280,9.0,8.0,1.0,1.0,-11123.0,-5101.0,9350.0,5591.0,0.0,0.0,1.0,1.0,-4.0,-2.0,-3.0,-2.0,1.0211970806121826
281,9.0,8.0,1.0,1.0,-11123.0,-5101.0,9350.0,5591.0,-2.0,-6.0,-1.0,1.0,9.0,8.0,2.0,-3.0,1.0420665740966797
282,9.0,8.0,1.0,1.0,-11123.0,-5101.0,9350.0,5591.0,7.0,2.0,3.0,-7.0,-4.0,-3.0,-4.0,-2.0,1.0440099239349365
283,3.0,10.0,9.0,1.0,-11123.0,-5101.0,9351.0,5591.0,7.0,2.0,3.0,-7.0,-4.0,-3.0,-4.0,-2.0,1.0469696521759033
284,3.0,10.0,9.0,1.0,-11123.0,-5101.0,9351.0,5591.0,0.0,0.0,6.0,-7.0,-6.0,-2.0,-1.0,-2.0,1.0500926971435547
285,3.0,10.0,9.0,1.0,-11123.0,-5101.0,9351.0,5591.0,-1.0,-4.0,-7.0,-1.0,6.0,1.0,-2.0,2.0,1.0738704204559326
286,-11.0,7.0,18.0,1.0,-11124.0,-5100.0,9351.0,5589.0,-1.0,-4.0,-7.0,-1.0,6.0,1.0,-2.0,2.0,1.0776634216308594
287,-11.0,7.0,18.0,1.0,-11124.0,-5100.0,9351.0,5589.0,2.0,5.0,4.0,0.0,-4.0,-6.0,-2.0,-2.0,1.0816833972930908
288,-11.0,7.0,18.0,1.0,-11124.0,-5100.0,9351.0,5589.0,3.0,6.0,17.0,5.0,24.0,-3.0,-1.0,-1.0,1.0864367485046387
289,-14.0,1.0,17.0,1.0,-11125.0,-5097.0,9353.0,5587.0,3.0,6.0,17.0,5.0,24.0,-3.0,-1.0,-1.0,1.0882742404937744
290,-14.0,1.0,17.0,1.0,-11125.0,-5097.0,9353.0,5587.0,-3.0,-2.0,3.0,15.0,16.0,5.0,3.0,1.0,1.0901391506195068
291,-14.0,1.0,17.0,1.0,-11125.0,-5097.0,9353.0,5587.0,-1.0,-7.0,-11.0,0.0,11.0,13.0,-3.0,-2.0,1.092508316040039
292,9.0,6.0,26.0,1.0,-11124.0,-5098.0,9356.0,5582.0,-1.0,-7.0,-11.0,0.0,11.0,13.0,-3.0,-2.0,1.118302822113037
293,9.0,6.0,26.0,1.0,-11124.0,-5098.0,9356.0,5582.0,1.0,-4.0,-5.0,1.0,-13.0,-4.0,0.0,-1.0,1.1222002506256104
294,9.0,6.0,26.0,1.0,-11124.0,-5098.0,9356.0,5582.0,-1.0,0.0,-1.0,-2.0,6.0,-2.0,1.0,0.0,1.125844955444336
295,29.0,-3.0,19.0,1.0,-11121.0,-5101.0,9361.0,5576.0,-1.0,0.0,-1.0,-2.0,6.0,-2.0,1.0,0.0,1.129075527191162
296,29.0,-3.0,19.0,1.0,-11121.0,-5101.0,9361.0,5576.0,8.0,0.0,2.0,7.0,5.0,2.0,-2.0,1.0,1.1322131156921387
297,29.0,-3.0,19.0,1.0,-11121.0,-5101.0,9361.0,5576.0,3.0,5.0,-5.0,-1.0,-14.0,-6.0,1.0,3.0,1.1496059894561768
298,5.0,2.0,18.0,1.0,-11121.0,-5101.0,9363.0,5573.0,3.0,5.0,-5.0,-1.0,-14.0,-6.0,1.0,3.0,1.1526398658752441
299,5.0,2.0,18.0,1.0,-11121.0,-5101.0,9363.0,5573.0,-10.0,-1.0,-6.0,3.0,0.0,-2.0,-3.0,-1.0,1.1557493209838867
300,5.0,2.0,18.0,1.0,-11121.0,-5101.0,9363.0,5573.0,0.0,-1.0,-15.0,-22.0,-2.0,-13.0,-2.0,2.0,1.1708800792694092
301,26.0,-4.0,19.0,1.0,-11118.0,-5104.0,9368.0,5568.0,0.0,-1.0,-15.0,-22.0,-2.0,-13.0,-2.0,2.0,1.174691915512085
302,26.0,-4.0,19.0,1.0,-11118.0,-5104.0,9368.0,5568.0,-4.0,-1.0,6.0,-2.0,-9.0,-19.0,-5.0,-1.0,1.1783084869384766
303,26.0,-4.0,19.0,1.0,-11118.0,-5104.0,9368.0,5568.0,-3.0,-2.0,-11.0,2.0,-5.0,6.0,2.0,-1.0,1.1812982559204102
304,23.0,-4.0,12.0,1.0,-11116.0,-5107.0,9371.0,5565.0,-3.0,-2.0,-11.0,2.0,-5.0,6.0,2.0,-1.0,1.1832942962646484
305,23.0,-4.0,12.0,1.0,-11116.0,-5107.0,9371.0,5565.0,0.0,5.0,9.0,-4.0,-1.0,-3.0,1.0,0.0,1.1851778030395508
306,23.0,-4.0,12.0,1.0,-11116.0,-5107.0,9371.0,5565.0,-5.0,-6.0,-3.0,5.0,-1.0,2.0,1.0,-3.0,1.1988990306854248
307,10.0,-5.0,6.0,1.0,-11116.0,-5108.0,9371.0,5565.0,-5.0,-6.0,-3.0,5.0,-1.0,2.0,1.0,-3.0,1.200744390487671
308,10.0,-5.0,6.0,1.0,-11116.0,-5108.0,9371.0,5565.0,-1.0,1.0,-1.0,5.0,-5.0,-11.0,-4.0,-3.0,1.2058303356170654
309,10.0,-5.0,6.0,1.0,-11116.0,-5108.0,9371.0,5565.0,2.0,1.0,0.0,-8.0,-25.0,-6.0,-1.0,-2.0,1.2137160301208496
310,24.0,-7.0,11.0,1.0,-11113.0,-5112.0,9374.0,5563.0,2.0,1.0,0.0,-8.0,-25.0,-6.0,-1.0,-2.0,1.2394003868103027
311,24.0,-7.0,11.0,1.0,-11113.0,-5112.0,9374.0,5563.0,-4.0,-5.0,6.0,5.0,6.0,6.0,0.0,-1.0,1.2436928749084473
312,24.0,-7.0,11.0,1.0,-11113.0,-5112.0,9374.0,5563.0,-2.0,-1.0,-7.0,-7.0,8.0,5.0,0.0,0.0,1.2476880550384521
313,25.0,-9.0,6.0,1.0,-11108.0,-5117.0,9378.0,5561.0,-2.0,-1.0,-7.0,-7.0,8.0,5.0,0.0,0.0,1.2501215934753418
314,25.0,-9.0,6.0,1.0,-11108.0,-5117.0,9378.0,5561.0,-2.0,-6.0,-4.0,-8.0,-35.0,-15.0,-3.0,-6.0,1.2520370483398438
315,25.0,-9.0,6.0,1.0,-11108.0,-5117.0,9378.0,5561.0,-2.0,0.0,-5.0,-3.0,12.0,2.0,2.0,0.0,1.2588896751403809
316,9.0,-11.0,7.0,1.0,-11107.0,-5118.0,9378.0,5561.0,-2.0,0.0,-5.0,-3.0,12.0,2.0,2.0,0.0,1.2607827186584473
317,9.0,-11.0,7.0,1.0,-11107.0,-5118.0,9378.0,5561.0,1.0,-2.0,-5.0,-9.0,0.0,7.0,4.0,4.0,1.2657835483551025
318,9.0,-11.0,7.0,1.0,-11107.0,-5118.0,9378.0,5561.0,0.0,-4.0,1.0,14.0,2.0,-11.0,-7.0,-3.0,1.2740228176116943
319,22.0,-17.0,0.0,1.0,-11103.0,-5121.0,9382.0,5560.0,0.0,-4.0,1.0,14.0,2.0,-11.0,-7.0,-3.0,1.2885522842407227
320,22.0,-17.0,0.0,1.0,-11103.0,-5121.0,9382.0,5560.0,1.0,3.0,2.0,-2.0,-12.0,-6.0,-1.0,0.0,1.2904586791992188
321,22.0,-17.0,0.0,1.0,-11103.0,-5121.0,9382.0,5560.0,-3.0,-2.0,4.0,9.0,8.0,4.0,2.0,0.0,1.2968828678131104
322,25.0,-19.0,0.0,1.0,-11098.0,-5126.0,9385.0,5561.0,-3.0,-2.0,4.0,9.0,8.0,4.0,2.0,0.0,1.3120663166046143
323,25.0,-19.0,0.0,1.0,-11098.0,-5126.0,9385.0,5561.0,-4.0,1.0,-14.0,-2.0,8.0,11.0,-2.0,-2.0,1.3151729106903076
324,25.0,-19.0,0.0,1.0,-11098.0,-5126.0,9385.0,5561.0,1.0,0.0,-8.0,-4.0,-14.0,-5.0,-2.0,0.0,1.3193888664245605
325,6.0,-27.0,-4.0,1.0,-11094.0,-5127.0,9388.0,5563.0,1.0,0.0,-8.0,-4.0,-14.0,-5.0,-2.0,0.0,1.3233118057250977
326,6.0,-27.0,-4.0,1.0,-11094.0,-5127.0,9388.0,5563.0,0.0,-3.0,-10.0,-4.0,11.0,2.0,2.0,1.0,1.325685739517212
327,6.0,-27.0,-4.0,1.0,-11094.0,-5127.0,9388.0,5563.0,-1.0,-1.0,4.0,4.0,9.0,2.0,1.0,-3.0,1.333167552947998
328,2.0,-23.0,-2.0,1.0,-11090.0,-5127.0,9391.0,5564.0,-1.0,-1.0,4.0,4.0,9.0,2.0,1.0,-3.0,1.3406012058258057
329,2.0,-23.0,-2.0,1.0,-11090.0,-5127.0,9391.0,5564.0,-2.0,5.0,11.0,2.0,16.0,6.0,1.0,-1.0,1.348177433013916
330,2.0,-23.0,-2.0,1.0,-11090.0,-5127.0,9391.0,5564.0,-1.0,-3.0,2.0,-3.0,-3.0,1.0,1.0,-1.0,1.3556873798370361
331,11.0,-24.0,-4.0,1.0,-11087.0,-5128.0,9394.0,5566.0,-1.0,-3.0,2.0,-3.0,-3.0,1.0,1.0,-1.0,1.3656630516052246
332,11.0,-24.0,-4.0,1.0,-11087.0,-5128.0,9394.0,5566.0,-4.0,0.0,3.0,4.0,-8.0,3.0,0.0,-1.0,1.3688294887542725
333,11.0,-24.0,-4.0,1.0,-11087.0,-5128.0,9394.0,5566.0,-1.0,1.0,-2.0,-11.0,-1.0,-7.0,-2.0,-1.0,1.3794820308685303
334,0.0,-24.0,3.0,1.0,-11083.0,-5128.0,9396.0,5568.0,-1.0,1.0,-2.0,-11.0,-1.0,-7.0,-2.0,-1.0,1.381864309310913
335,0.0,-24.0,3.0,1.0,-11083.0,-5128.0,9396.0,5568.0,2.0,-1.0,-9.0,-10.0,-8.0,-9.0,-1.0,-2.0,1.3946459293365479
336,0.0,-24.0,3.0,1.0,-11083.0,-5128.0,9396.0,5568.0,2.0,-1.0,5.0,-5.0,1.0,3.0,1.0,-2.0,1.402517318725586
337,-4.0,-27.0,12.0,1.0,-11081.0,-5126.0,9400.0,5569.0,2.0,-1.0,5.0,-5.0,1.0,3.0,1.0,-2.0,1.4052586555480957
338,-4.0,-27.0,12.0,1.0,-11081.0,-5126.0,9400.0,5569.0,-2.0,-6.0,-9.0,-3.0,-3.0,6.0,-1.0,0.0,1.4075465202331543
339,-4.0,-27.0,12.0,1.0,-11081.0,-5126.0,9400.0,5569.0,-3.0,-2.0,-9.0,3.0,24.0,1.0,-1.0,0.0,1.4158287048339844
340,-7.0,-30.0,13.0,1.0,-11078.0,-5124.0,9403.0,5571.0,-3.0,-2.0,-9.0,3.0,24.0,1.0,-1.0,0.0,1.4242441654205322
341,-7.0,-30.0,13.0,1.0,-11078.0,-5124.0,9403.0,5571.0,-3.0,-5.0,-11.0,-8.0,0.0,-10.0,-1.0,-3.0,1.428605318069458
342,-7.0,-30.0,13.0,1.0,-11078.0,-5124.0,9403.0,5571.0,0.0,2.0,3.0,-8.0,-23.0,8.0,1.0,1.0,1.439215898513794
343,-20.0,-25.0,14.0,1.0,-11077.0,-5120.0,9406.0,5573.0,0.0,2.0,3.0,-8.0,-23.0,8.0,1.0,1.0,1.461817979812622
344,-20.0,-25.0,14.0,1.0,-11077.0,-5120.0,9406.0,5573.0,-4.0,-2.0,1.0,6.0,8.0,-11.0,-4.0,-4.0,1.4636900424957275
345,-20.0,-25.0,14.0,1.0,-11077.0,-5120.0,9406.0,5573.0,1.0,3.0,4.0,-5.0,-12.0,-2.0,0.0,-2.0,1.4705939292907715
346,-12.0,-23.0,13.0,1.0,-11074.0,-5117.0,9409.0,5574.0,1.0,3.0,4.0,-5.0,-12.0,-2.0,0.0,-2.0,1.4732885360717773
347,-12.0,-23.0,13.0,1.0,-11074.0,-5117.0,9409.0,5574.0,3.0,5.0,16.0,7.0,-9.0,7.0,0.0,3.0,1.4761090278625488
348,-12.0,-23.0,13.0,1.0,-11074.0,-5117.0,9409.0,5574.0,-2.0,-4.0,7.0,6.0,2.0,1.0,-2.0,-3.0,1.477898359298706
349,-18.0,-23.0,10.0,1.0,-11073.0,-5113.0,9412.0,5576.0,-2.0,-4.0,7.0,6.0,2.0,1.0,-2.0,-3.0,1.4921247959136963
350,-18.0,-23.0,10.0,1.0,-11073.0,-5113.0,9412.0,5576.0,8.0,3.0,13.0,2.0,-11.0,3.0,-2.0,3.0,1.4942326545715332
351,-18.0,-23.0,10.0,1.0,-11073.0,-5113.0,9412.0,5576.0,0.0,-3.0,-4.0,4.0,1.0,3.0,-2.0,-3.0,1.507066249847412
352,-18.0,-15.0,6.0,1.0,-11073.0,-5111.0,9412.0,5580.0,0.0,-3.0,-4.0,4.0,1.0,3.0,-2.0,-3.0,1.5088651180267334
353,-18.0,-15.0,6.0,1.0,-11073.0,-5111.0,9412.0,5580.0,-1.0,1.0,-4.0,-1.0,1.0,2.0,1.0,-1.0,1.5107386112213135
354,-18.0,-15.0,6.0,1.0,-11073.0,-5111.0,9412.0,5580.0,-1.0,3.0,-7.0,3.0,2.0,-1.0,2.0,1.0,1.512678623199463
355,-1.0,-11.0,6.0,1.0,-11072.0,-5112.0,9412.0,5580.0,-1.0,3.0,-7.0,3.0,2.0,-1.0,2.0,1.0,1.5208921432495117
356,-1.0,-11.0,6.0,1.0,-11072.0,-5112.0,9412.0,5580.0,-1.0,0.0,-2.0,0.0,3.0,2.0,-2.0,-2.0,1.5282208919525146
357,-1.0,-11.0,6.0,1.0,-11072.0,-5112.0,9412.0,5580.0,-4.0,-7.0,-14.0,1.0,-2.0,-6.0,1.0,0.0,1.5357191562652588
358,-14.0,-14.0,8.0,1.0,-11072.0,-5112.0,9412.0,5580.0,-4.0,-7.0,-14.0,1.0,-2.0,-6.0,1.0,0.0,1.5436391830444336
359,-14.0,-14.0,8.0,1.0,-11072.0,-5112.0,9412.0,5580.0,-3.0,-8.0,-9.0,-3.0,0.0,3.0,-1.0,-2.0,1.5455262660980225
360,-14.0,-14.0,8.0,1.0,-11072.0,-5112.0,9412.0,5580.0,-2.0,7.0,8.0,5.0,-14.0,-1.0,-1.0,-2.0,1.5588176250457764
361,-9.0,-15.0,11.0,1.0,-11072.0,-5112.0,9411.0,5580.0,-2.0,7.0,8.0,5.0,-14.0,-1.0,-1.0,-2.0,1.5606260299682617
362,-9.0,-15.0,11.0,1.0,-11072.0,-5112.0,9411.0,5580.0,-7.0,-7.0,-18.0,-2.0,-14.0,-6.0,0.0,1.0,1.5666680335998535
363,-9.0,-15.0,11.0,1.0,-11072.0,-5112.0,9411.0,5580.0,7.0,5.0,4.0,0.0,6.0,0.0,-3.0,-1.0,1.5894505977630615
364,-6.0,-18.0,9.0,1.0,-11069.0,-5112.0,9414.0,5582.0,7.0,5.0,4.0,0.0,6.0,0.0,-3.0,-1.0,1.5913071632385254
365,-6.0,-18.0,9.0,1.0,-11069.0,-5112.0,9414.0,5582.0,-1.0,-1.0,8.0,9.0,9.0,5.0,0.0,-2.0,1.5933690071105957
366,-6.0,-18.0,9.0,1.0,-11069.0,-5112.0,9414.0,5582.0,-6.0,-3.0,-4.0,-2.0,15.0,2.0,-3.0,-2.0,1.597269058227539
367,-7.0,-25.0,9.0,1.0,-11067.0,-5110.0,9417.0,5584.0,-6.0,-3.0,-4.0,-2.0,15.0,2.0,-3.0,-2.0,1.6046793460845947
368,-7.0,-25.0,9.0,1.0,-11067.0,-5110.0,9417.0,5584.0,5.0,-2.0,-5.0,-9.0,-3.0,1.0,-2.0,0.0,1.6067719459533691
369,-7.0,-25.0,9.0,1.0,-11067.0,-5110.0,9417.0,5584.0,1.0,0.0,-4.0,-9.0,1.0,12.0,3.0,1.0,1.6182680130004883
370,8.0,-23.0,0.0,1.0,-11062.0,-5112.0,9420.0,5585.0,1.0,0.0,-4.0,-9.0,1.0,12.0,3.0,1.0,1.6446208953857422
371,8.0,-23.0,0.0,1.0,-11062.0,-5112.0,9420.0,5585.0,-4.0,4.0,9.0,6.0,-3.0,-9.0,-6.0,-5.0,1.6490178108215332
372,8.0,-23.0,0.0,1.0,-11062.0,-5112.0,9420.0,5585.0,0.0,-6.0,-10.0,-15.0,-8.0,-8.0,-2.0,0.0,1.6526105403900146
373,19.0,-22.0,-6.0,1.0,-11059.0,-5115.0,9421.0,5587.0,0.0,-6.0,-10.0,-15.0,-8.0,-8.0,-2.0,0.0,1.6546249389648438
374,19.0,-22.0,-6.0,1.0,-11059.0,-5115.0,9421.0,5587.0,4.0,3.0,3.0,-8.0,9.0,1.0,1.0,0.0,1.657353401184082
375,19.0,-22.0,-6.0,1.0,-11059.0,-5115.0,9421.0,5587.0,-2.0,-8.0,-4.0,5.0,3.0,4.0,-1.0,2.0,1.659623622894287
376,43.0,-27.0,-21.0,1.0,-11052.0,-5124.0,9423.0,5591.0,-2.0,-8.0,-4.0,5.0,3.0,4.0,-1.0,2.0,1.6721298694610596
377,43.0,-27.0,-21.0,1.0,-11052.0,-5124.0,9423.0,5591.0,-2.0,1.0,0.0,-2.0,11.0,-1.0,-2.0,2.0,1.6741893291473389
378,43.0,-27.0,-21.0,1.0,-11052.0,-5124.0,9423.0,5591.0,-5.0,-2.0,-5.0,1.0,0.0,5.0,4.0,-1.0,1.678112268447876
379,32.0,-25.0,-27.0,1.0,-11047.0,-5132.0,9419.0,5598.0,-5.0,-2.0,-5.0,1.0,0.0,5.0,4.0,-1.0,1.6866538524627686
380,32.0,-25.0,-27.0,1.0,-11047.0,-5132.0,9419.0,5598.0,0.0,3.0,16.0,7.0,-5.0,3.0,2.0,2.0,1.689565658569336
381,32.0,-25.0,-27.0,1.0,-11047.0,-5132.0,9419.0,5598.0,5.0,4.0,7.0,-5.0,-7.0,-9.0,-5.0,-1.0,1.6931164264678955
382,29.0,-19.0,-59.0,1.0,-11043.0,-5142.0,9411.0,5611.0,5.0,4.0,7.0,-5.0,-7.0,-9.0,-5.0,-1.0,1.7092235088348389
383,29.0,-19.0,-59.0,1.0,-11043.0,-5142.0,9411.0,5611.0,-2.0,-3.0,-6.0,3.0,-9.0,-7.0,3.0,2.0,1.7126805782318115
384,29.0,-19.0,-59.0,1.0,-11043.0,-5142.0,9411.0,5611.0,3.0,-1.0,3.0,-2.0,-6.0,-4.0,0.0,3.0,1.7165858745574951
385,18.0,9.0,-105.0,1.0,-11042.0,-5157.0,9392.0,5631.0,3.0,-1.0,3.0,-2.0,-6.0,-4.0,0.0,3.0,1.7246263027191162
386,18.0,9.0,-105.0,1.0,-11042.0,-5157.0,9392.0,5631.0,13.0,6.0,7.0,13.0,9.0,12.0,0.0,-1.0,1.7265589237213135
387,18.0,9.0,-105.0,1.0,-11042.0,-5157.0,9392.0,5631.0,4.0,2.0,-2.0,-1.0,-1.0,12.0,1.0,1.0,1.7381300926208496
388,-15.0,76.0,-189.0,1.0,-11050.0,-5178.0,9351.0,5664.0,4.0,2.0,-2.0,-1.0,-1.0,12.0,1.0,1.0,1.7545356750488281
389,-15.0,76.0,-189.0,1.0,-11050.0,-5178.0,9351.0,5664.0,-7.0,-4.0,-5.0,11.0,-1.0,11.0,2.0,-1.0,1.7573258876800537
390,-15.0,76.0,-189.0,1.0,-11050.0,-5178.0,9351.0,5664.0,12.0,10.0,9.0,11.0,7.0,11.0,-8.0,-4.0,1.7617170810699463
391,-43.0,151.0,-319.0,1.0,-11065.0,-5211.0,9281.0,5719.0,12.0,10.0,9.0,11.0,7.0,11.0,-8.0,-4.0,1.7646944522857666
392,-43.0,151.0,-319.0,1.0,-11065.0,-5211.0,9281.0,5719.0,-4.0,-13.0,-1.0,-8.0,-64.0,-36.0,-15.0,-3.0,1.768833875656128
393,-43.0,151.0,-319.0,1.0,-11065.0,-5211.0,9281.0,5719.0,-21.0,-23.0,2.0,6.0,-10.0,2.0,4.0,-3.0,1.7757339477539062
394,-33.0,235.0,-481.0,1.0,-11080.0,-5269.0,9183.0,5795.0,-21.0,-23.0,2.0,6.0,-10.0,2.0,4.0,-3.0,1.7840158939361572
395,-33.0,235.0,-481.0,1.0,-11080.0,-5269.0,9183.0,5795.0,-2.0,0.0,-10.0,-20.0,6.0,-26.0,-1.0,0.0,1.787097454071045
396,-33.0,235.0,-481.0,1.0,-11080.0,-5269.0,9183.0,5795.0,-12.0,-5.0,-5.0,0.0,-24.0,-8.0,1.0,2.0,1.7989287376403809
397,-154.0,375.0,-611.0,1.0,-11104.0,-5338.0,9049.0,5895.0,-12.0,-5.0,-5.0,0.0,-24.0,-8.0,1.0,2.0,1.807354211807251
398,-154.0,375.0,-611.0,1.0,-11104.0,-5338.0,9049.0,5895.0,-1.0,-7.0,8.0,12.0,17.0,53.0,11.0,2.0,1.8118560314178467
399,-154.0,375.0,-611.0,1.0,-11104.0,-5338.0,9049.0,5895.0,-2.0,5.0,9.0,13.0,-14.0,-21.0,-2.0,1.0,1.8211021423339844
400,-423.0,570.0,-759.0,1.0,-11153.0,-5401.0,8861.0,6030.0,-2.0,5.0,9.0,13.0,-14.0,-21.0,-2.0,1.0,1.822941780090332
401,-423.0,570.0,-759.0,1.0,-11153.0,-5401.0,8861.0,6030.0,-8.0,-11.0,-13.0,-2.0,-21.0,-7.0,1.0,-4.0,1.8283851146697998
402,-423.0,570.0,-759.0,1.0,-11153.0,-5401.0,8861.0,6030.0,6.0,10.0,20.0,0.0,-1.0,-4.0,0.0,0.0,1.8532307147979736
403,-734.0,710.0,-952.0,1.0,-11221.0,-5451.0,8617.0,6210.0,6.0,10.0,20.0,0.0,-1.0,-4.0,0.0,0.0,1.8566193580627441
404,-734.0,710.0,-952.0,1.0,-11221.0,-5451.0,8617.0,6210.0,-1.0,-9.0,-14.0,-27.0,-31.0,12.0,3.0,3.0,1.8602070808410645
405,-734.0,710.0,-952.0,1.0,-11221.0,-5451.0,8617.0,6210.0,4.0,2.0,-8.0,-5.0,6.0,-10.0,0.0,-2.0,1.8633551597595215
406,-937.0,843.0,-1161.0,1.0,-11294.0,-5498.0,8333.0,6420.0,4.0,2.0,-8.0,-5.0,6.0,-10.0,0.0,-2.0,1.8670120239257812
407,-937.0,843.0,-1161.0,1.0,-11294.0,-5498.0,8333.0,6420.0,14.0,23.0,2.0,-15.0,-11.0,-7.0,0.0,-5.0,1.8696026802062988
408,-937.0,843.0,-1161.0,1.0,-11294.0,-5498.0,8333.0,6420.0,-3.0,-14.0,5.0,12.0,4.0,6.0,3.0,4.0,1.8821029663085938
409,-1139.0,965.0,-1398.0,1.0,-11363.0,-5548.0,8010.0,6661.0,-3.0,-14.0,5.0,12.0,4.0,6.0,3.0,4.0,1.885246992111206
410,-1139.0,965.0,-1398.0,1.0,-11363.0,-5548.0,8010.0,6661.0,-4.0,8.0,12.0,10.0,18.0,-5.0,-2.0,2.0,1.887573480606079
411,-1139.0,965.0,-1398.0,1.0,-11363.0,-5548.0,8010.0,6661.0,12.0,2.0,-19.0,-28.0,17.0,-1.0,-6.0,1.0,1.8957648277282715
412,-1458.0,1150.0,-1651.0,1.0,-11431.0,-5592.0,7650.0,6927.0,12.0,2.0,-19.0,-28.0,17.0,-1.0,-6.0,1.0,1.9037179946899414
413,-1458.0,1150.0,-1651.0,1.0,-11431.0,-5592.0,7650.0,6927.0,-6.0,0.0,-15.0,-5.0,24.0,-4.0,-3.0,-4.0,1.9057166576385498
414,-1458.0,1150.0,-1651.0,1.0,-11431.0,-5592.0,7650.0,6927.0,6.0,-4.0,12.0,6.0,44.0,8.0,0.0,-7.0,1.9183473587036133
415,-1744.0,1400.0,-1913.0,1.0,-11507.0,-5637.0,7212.0,7228.0,6.0,-4.0,12.0,6.0,44.0,8.0,0.0,-7.0,1.9282023906707764
416,-1744.0,1400.0,-1913.0,1.0,-11507.0,-5637.0,7212.0,7228.0,-4.0,-6.0,1.0,1.0,19.0,-1.0,0.0,0.0,1.9323608875274658
417,-1744.0,1400.0,-1913.0,1.0,-11507.0,-5637.0,7212.0,7228.0,-8.0,-5.0,-8.0,11.0,8.0,3.0,-1.0,-2.0,1.9508907794952393
418,-1859.0,1602.0,-2298.0,1.0,-11560.0,-5707.0,6708.0,7566.0,-8.0,-5.0,-8.0,11.0,8.0,3.0,-1.0,-2.0,1.9546027183532715
419,-1859.0,1602.0,-2298.0,1.0,-11560.0,-5707.0,6708.0,7566.0,23.0,18.0,-3.0,9.0,7.0,-10.0,-4.0,5.0,1.958512544631958
420,-1859.0,1602.0,-2298.0,1.0,-11560.0,-5707.0,6708.0,7566.0,10.0,3.0,-19.0,-8.0,-2.0,-2.0,-5.0,2.0,1.9615116119384766
421,-2095.0,1706.0,-2676.0,1.0,-11584.0,-5776.0,6140.0,7948.0,10.0,3.0,-19.0,-8.0,-2.0,-2.0,-5.0,2.0,1.9642298221588135
422,-2095.0,1706.0,-2676.0,1.0,-11584.0,-5776.0,6140.0,7948.0,-16.0,-14.0,-3.0,3.0,12.0,-1.0,2.0,0.0,1.9663186073303223
423,-2095.0,1706.0,-2676.0,1.0,-11584.0,-5776.0,6140.0,7948.0,-3.0,7.0,7.0,15.0,-11.0,-17.0,2.0,4.0,1.9781358242034912
424,-2535.0,1761.0,-3073.0,1.0,-11581.0,-5812.0,5496.0,8387.0,-3.0,7.0,7.0,15.0,-11.0,-17.0,2.0,4.0,2.003434181213379
425,-2535.0,1761.0,-3073.0,1.0,-11581.0,-5812.0,5496.0,8387.0,-10.0,-15.0,3.0,-3.0,1.0,0.0,-1.0,-5.0,2.006589889526367
426,-2535.0,1761.0,-3073.0,1.0,-11581.0,-5812.0,5496.0,8387.0,-3.0,18.0,4.0,-47.0,-11.0,-1.0,-1.0,-3.0,2.0093159675598145
427,-3017.0,1837.0,-3405.0,1.0,-11551.0,-5801.0,4770.0,8866.0,-3.0,18.0,4.0,-47.0,-11.0,-1.0,-1.0,-3.0,2.0113484859466553
428,-3017.0,1837.0,-3405.0,1.0,-11551.0,-5801.0,4770.0,8866.0,5.0,3.0,-3.0,-3.0,-5.0,-8.0,-2.0,-3.0,2.013516902923584
429,-3017.0,1837.0,-3405.0,1.0,-11551.0,-5801.0,4770.0,8866.0,-12.0,6.0,-9.0,27.0,-3.0,-1.0,4.0,0.0,2.01531982421875
430,-3549.0,1907.0,-3634.0,1.0,-11499.0,-5726.0,3962.0,9366.0,-12.0,6.0,-9.0,27.0,-3.0,-1.0,4.0,0.0,2.0313029289245605
431,-3549.0,1907.0,-3634.0,1.0,-11499.0,-5726.0,3962.0,9366.0,-4.0,-14.0,-2.0,19.0,-3.0,3.0,-2.0,2.0,2.039109230041504
432,-3549.0,1907.0,-3634.0,1.0,-11499.0,-5726.0,3962.0,9366.0,20.0,35.0,26.0,-9.0,-58.0,-5.0,-2.0,6.0,2.04097580909729
433,-4063.0,1965.0,-3718.0,1.0,-11432.0,-5578.0,3084.0,9855.0,20.0,35.0,26.0,-9.0,-58.0,-5.0,-2.0,6.0,2.046323776245117
434,-4063.0,1965.0,-3718.0,1.0,-11432.0,-5578.0,3084.0,9855.0,-4.0,-1.0,0.0,-28.0,8.0,-2.0,-2.0,-4.0,2.0482428073883057
435,-4063.0,1965.0,-3718.0,1.0,-11432.0,-5578.0,3084.0,9855.0,-5.0,-7.0,4.0,27.0,19.0,5.0,2.0,-3.0,2.0702736377716064
436,-4420.0,2060.0,-3661.0,1.0,-11351.0,-5373.0,2156.0,10299.0,-5.0,-7.0,4.0,27.0,19.0,5.0,2.0,-3.0,2.0737879276275635
437,-4420.0,2060.0,-3661.0,1.0,-11351.0,-5373.0,2156.0,10299.0,3.0,5.0,2.0,-4.0,-17.0,0.0,2.0,3.0,2.077493190765381
438,-4420.0,2060.0,-3661.0,1.0,-11351.0,-5373.0,2156.0,10299.0,-4.0,-13.0,-4.0,14.0,31.0,9.0,-2.0,-3.0,2.0807056427001953
439,-4800.0,2132.0,-3661.0,1.0,-11246.0,-5107.0,1174.0,10701.0,-4.0,-13.0,-4.0,14.0,31.0,9.0,-2.0,-3.0,2.084784507751465
440,-4800.0,2132.0,-3661.0,1.0,-11246.0,-5107.0,1174.0,10701.0,-4.0,-5.0,-5.0,6.0,21.0,2.0,-3.0,0.0,2.0876142978668213
441,-4800.0,2132.0,-3661.0,1.0,-11246.0,-5107.0,1174.0,10701.0,2.0,-2.0,-9.0,-5.0,26.0,14.0,6.0,3.0,2.098062038421631
442,-5005.0,2136.0,-3604.0,1.0,-11108.0,-4794.0,164.0,11048.0,2.0,-2.0,-9.0,-5.0,26.0,14.0,6.0,3.0,2.1141088008880615
443,-5005.0,2136.0,-3604.0,1.0,-11108.0,-4794.0,164.0,11048.0,4.0,9.0,6.0,-2.0,8.0,-29.0,-3.0,-2.0,2.1170856952667236
444,-5005.0,2136.0,-3604.0,1.0,-11108.0,-4794.0,164.0,11048.0,1.0,-3.0,1.0,-11.0,-19.0,3.0,-3.0,2.0,2.121828079223633
445,-4909.0,2086.0,-3473.0,1.0,-10929.0,-4468.0,-821.0,11329.0,1.0,-3.0,1.0,-11.0,-19.0,3.0,-3.0,2.0,2.1249260902404785
446,-4909.0,2086.0,-3473.0,1.0,-10929.0,-4468.0,-821.0,11329.0,1.0,2.0,5.0,8.0,-18.0,0.0,0.0,3.0,2.128810167312622
447,-4909.0,2086.0,-3473.0,1.0,-10929.0,-4468.0,-821.0,11329.0,-11.0,-12.0,-5.0,-5.0,-4.0,8.0,-1.0,-3.0,2.1453773975372314
448,-4922.0,2105.0,-3350.0,1.0,-10718.0,-4123.0,-1804.0,11546.0,-11.0,-12.0,-5.0,-5.0,-4.0,8.0,-1.0,-3.0,2.148925304412842
449,-4922.0,2105.0,-3350.0,1.0,-10718.0,-4123.0,-1804.0,11546.0,1.0,-1.0,1.0,-2.0,-18.0,10.0,7.0,5.0,2.1524434089660645
450,-4922.0,2105.0,-3350.0,1.0,-10718.0,-4123.0,-1804.0,11546.0,-5.0,-10.0,-10.0,-7.0,-6.0,-42.0,-20.0,-7.0,2.1596009731292725
451,-4910.0,2231.0,-3155.0,1.0,-10482.0,-3778.0,-2789.0,11684.0,-5.0,-10.0,-10.0,-7.0,-6.0,-42.0,-20.0,-7.0,2.166219472885132
452,-4910.0,2231.0,-3155.0,1.0,-10482.0,-3778.0,-2789.0,11684.0,-4.0,-1.0,-6.0,3.0,5.0,3.0,-2.0,-2.0,2.168149948120117
453,-4910.0,2231.0,-3155.0,1.0,-10482.0,-3778.0,-2789.0,11684.0,-6.0,-7.0,0.0,5.0,24.0,-58.0,-20.0,-4.0,2.198728322982788
454,-4529.0,2326.0,-3030.0,1.0,-10198.0,-3470.0,-3728.0,11769.0,-6.0,-7.0,0.0,5.0,24.0,-58.0,-20.0,-4.0,2.2021279335021973
455,-4529.0,2326.0,-3030.0,1.0,-10198.0,-3470.0,-3728.0,11769.0,-5.0,-6.0,-3.0,0.0,3.0,41.0,12.0,2.0,2.205507278442383
456,-4529.0,2326.0,-3030.0,1.0,-10198.0,-3470.0,-3728.0,11769.0,-4.0,-1.0,2.0,3.0,23.0,-1.0,-17.0,-7.0,2.207575798034668
457,-4201.0,2465.0,-2910.0,1.0,-9869.0,-3201.0,-4631.0,11805.0,-4.0,-1.0,2.0,3.0,23.0,-1.0,-17.0,-7.0,2.2105207443237305
458,-4201.0,2465.0,-2910.0,1.0,-9869.0,-3201.0,-4631.0,11805.0,4.0,6.0,3.0,0.0,10.0,6.0,1.0,0.0,2.273456573486328
459,-4201.0,2465.0,-2910.0,1.0,-9869.0,-3201.0,-4631.0,11805.0,-1.0,-2.0,-1.0,-6.0,-17.0,-24.0,3.0,2.0,2.2808237075805664
460,-3877.0,2571.0,-2852.0,1.0,-9490.0,-2967.0,-5497.0,11805.0,-1.0,-2.0,-1.0,-6.0,-17.0,-24.0,3.0,2.0,2.2888309955596924
461,-3877.0,2571.0,-2852.0,1.0,-9490.0,-2967.0,-5497.0,11805.0,-2.0,5.0,4.0,7.0,-3.0,-4.0,-1.0,0.0,2.2912075519561768
462,-3877.0,2571.0,-2852.0,1.0,-9490.0,-2967.0,-5497.0,11805.0,5.0,2.0,5.0,0.0,-20.0,23.0,8.0,-4.0,2.3168230056762695
463,-3877.0,2571.0,-2852.0,1.0,-9490.0,-2967.0,-5497.0,11805.0,11.0,7.0,5.0,6.0,20.0,-55.0,3.0,19.0,2.318667411804199
464,-3877.0,2571.0,-2852.0,1.0,-9490.0,-2967.0,-5497.0,11805.0,36.0,-1.0,-2.0,-5.0,-59.0,22.0,-1.0,17.0,2.3559069633483887
465,-3877.0,2571.0,-2852.0,1.0,-9490.0,-2967.0,-5497.0,11805.0,-3.0,-3.0,-4.0,-6.0,9.0,22.0,-17.0,-10.0,2.357727289199829
466,-3877.0,2571.0,-2852.0,1.0,-9490.0,-2967.0,-5497.0,11805.0,-1.0,-2.0,1.0,-1.0,-7.0,21.0,8.0,-9.0,2.3595738410949707
467,-3877.0,2571.0,-2852.0,1.0,-9490.0,-2967.0,-5497.0,11805.0,-8.0,-1.0,-2.0,0.0,69.0,38.0,-5.0,-4.0,2.361886739730835
468,-881.0,1522.0,-2591.0,1.0,-7009.0,-2179.0,-8535.0,11905.0,-8.0,-1.0,-2.0,0.0,69.0,38.0,-5.0,-4.0,2.40413498878479
469,-881.0,1522.0,-2591.0,1.0,-7009.0,-2179.0,-8535.0,11905.0,4.0,-3.0,-3.0,-5.0,-12.0,-7.0,-6.0,4.0,2.406292200088501
470,-881.0,1522.0,-2591.0,1.0,-7009.0,-2179.0,-8535.0,11905.0,8.0,4.0,0.0,1.0,-2.0,-14.0,11.0,-11.0,2.408076524734497
471,2703.0,746.0,-247.0,1.0,-6545.0,-2501.0,-8204.0,12331.0,8.0,4.0,0.0,1.0,-2.0,-14.0,11.0,-11.0,2.414320230484009
472,2703.0,746.0,-247.0,1.0,-6545.0,-2501.0,-8204.0,12331.0,-27.0,-5.0,-1.0,-5.0,-14.0,-18.0,-5.0,-20.0,2.416175127029419
473,2703.0,746.0,-247.0,1.0,-6545.0,-2501.0,-8204.0,12331.0,20.0,4.0,0.0,4.0,13.0,5.0,11.0,31.0,2.421255588531494
474,2703.0,746.0,-247.0,1.0,-6545.0,-2501.0,-8204.0,12331.0,-20.0,-3.0,-1.0,-1.0,-4.0,-28.0,-14.0,-49.0,2.447050094604492
475,3158.0,1653.0,1900.0,1.0,-6451.0,-3621.0,-7486.0,12557.0,-20.0,-3.0,-1.0,-1.0,-4.0,-28.0,-14.0,-49.0,2.45047664642334
476,3158.0,1653.0,1900.0,1.0,-6451.0,-3621.0,-7486.0,12557.0,-20.0,-3.0,-1.0,-1.0,-4.0,-28.0,-14.0,-49.0,2.4544754028320312
477,3158.0,1653.0,1900.0,1.0,-6451.0,-3621.0,-7486.0,12557.0,9.0,3.0,-1.0,-1.0,-3.0,19.0,-13.0,-3.0,2.4585185050964355
478,3158.0,1653.0,1900.0,1.0,-6451.0,-3621.0,-7486.0,12557.0,24.0,4.0,-1.0,6.0,10.0,122.0,55.0,8.0,2.477216958999634
479,3239.0,621.0,3361.0,1.0,-6724.0,-4203.0,-6944.0,12544.0,24.0,4.0,-1.0,6.0,10.0,122.0,55.0,8.0,2.4805004596710205
480,3239.0,621.0,3361.0,1.0,-6724.0,-4203.0,-6944.0,12544.0,-33.0,-39.0,-28.0,-21.0,-87.0,-100.0,37.0,-101.0,2.4825656414031982
481,6365.0,-968.0,6826.0,1.0,-7864.0,-5624.0,-4706.0,12363.0,-33.0,-39.0,-28.0,-21.0,-87.0,-100.0,37.0,-101.0,2.484379529953003
482,6365.0,-968.0,6826.0,1.0,-7864.0,-5624.0,-4706.0,12363.0,-17.0,-26.0,-20.0,-15.0,-57.0,-56.0,84.0,-1.0,2.487065553665161
483,6365.0,-968.0,6826.0,1.0,-7864.0,-5624.0,-4706.0,12363.0,13.0,12.0,-4.0,-3.0,36.0,40.0,-75.0,-82.0,2.48958158493042
484,6425.0,244.0,8698.0,1.0,-8571.0,-6609.0,-3303.0,11849.0,13.0,12.0,-4.0,-3.0,36.0,40.0,-75.0,-82.0,2.491422414779663
485,6425.0,244.0,8698.0,1.0,-8571.0,-6609.0,-3303.0,11849.0,-4.0,-4.0,1.0,5.0,42.0,56.0,1.0,-13.0,2.4932844638824463
486,6425.0,244.0,8698.0,1.0,-8571.0,-6609.0,-3303.0,11849.0,-12.0,5.0,1.0,-12.0,-22.0,104.0,-4.0,-16.0,2.4950497150421143
487,5263.0,940.0,11780.0,1.0,-9585.0,-7572.0,-1844.0,10763.0,-12.0,5.0,1.0,-12.0,-22.0,104.0,-4.0,-16.0,2.5049538612365723
488,5263.0,940.0,11780.0,1.0,-9585.0,-7572.0,-1844.0,10763.0,15.0,74.0,73.0,8.0,-40.0,-29.0,-86.0,34.0,2.5080668926239014
489,5263.0,940.0,11780.0,1.0,-9585.0,-7572.0,-1844.0,10763.0,79.0,16.0,-87.0,-1.0,53.0,8.0,5.0,11.0,2.527984619140625
490,5661.0,48.0,14352.0,1.0,-10652.0,-8341.0,1.0,9242.0,79.0,16.0,-87.0,-1.0,53.0,8.0,5.0,11.0,2.530384063720703
491,5661.0,48.0,14352.0,1.0,-10652.0,-8341.0,1.0,9242.0,-6.0,-90.0,-101.0,-10.0,-16.0,116.0,32.0,15.0,2.5336697101593018
492,5661.0,48.0,14352.0,1.0,-10652.0,-8341.0,1.0,9242.0,32.0,102.0,-21.0,20.0,-9.0,-46.0,-53.0,-62.0,2.5367677211761475
493,6130.0,-2937.0,13375.0,1.0,-11292.0,-8642.0,2149.0,7851.0,32.0,102.0,-21.0,20.0,-9.0,-46.0,-53.0,-62.0,2.5407700538635254
494,6130.0,-2937.0,13375.0,1.0,-11292.0,-8642.0,2149.0,7851.0,-39.0,-16.0,-85.0,-59.0,127.0,-31.0,-20.0,33.0,2.5490074157714844
495,6130.0,-2937.0,13375.0,1.0,-11292.0,-8642.0,2149.0,7851.0,50.0,-86.0,34.0,34.0,127.0,56.0,86.0,29.0,2.551041603088379
496,8563.0,-2209.0,8970.0,1.0,-11097.0,-9210.0,3963.0,6690.0,50.0,-86.0,34.0,34.0,127.0,56.0,86.0,29.0,2.5558342933654785
497,8563.0,-2209.0,8970.0,1.0,-11097.0,-9210.0,3963.0,6690.0,-13.0,28.0,102.0,-79.0,2.0,-78.0,-73.0,-46.0,2.5633785724639893
498,8563.0,-2209.0,8970.0,1.0,-11097.0,-9210.0,3963.0,6690.0,61.0,95.0,95.0,68.0,93.0,-15.0,-1.0,27.0,2.5704305171966553
499,732.0,-1234.0,1119.0,1.0,-11050.0,-9159.0,4277.0,6646.0,61.0,95.0,95.0,68.0,93.0,-15.0,-1.0,27.0,2.58004093170166
500,732.0,-1234.0,1119.0,1.0,-11050.0,-9159.0,4277.0,6646.0,38.0,105.0,81.0,-6.0,-18.0,51.0,27.0,16.0,2.5874619483947754
501,732.0,-1234.0,1119.0,1.0,-11050.0,-9159.0,4277.0,6646.0,-31.0,-73.0,-96.0,-128.0,-89.0,-21.0,36.0,-35.0,2.589744806289673
502,-751.0,-846.0,5271.0,1.0,-11450.0,-8743.0,4833.0,6127.0,-31.0,-73.0,-96.0,-128.0,-89.0,-21.0,36.0,-35.0,2.6005747318267822
503,-751.0,-846.0,5271.0,1.0,-11450.0,-8743.0,4833.0,6127.0,1.0,22.0,98.0,77.0,1.0,-68.0,-101.0,-114.0,2.6094517707824707
504,-751.0,-846.0,5271.0,1.0,-11450.0,-8743.0,4833.0,6127.0,-128.0,-115.0,-48.0,13.0,-118.0,-32.0,-46.0,127.0,2.6173348426818848
505,-3371.0,159.0,6864.0,1.0,-12197.0,-7943.0,5224.0,5413.0,-128.0,-115.0,-48.0,13.0,-118.0,-32.0,-46.0,127.0,2.6199896335601807
506,-3371.0,159.0,6864.0,1.0,-12197.0,-7943.0,5224.0,5413.0,71.0,-72.0,-73.0,21.0,-109.0,8.0,-59.0,121.0,2.6313719749450684
507,-3371.0,159.0,6864.0,1.0,-12197.0,-7943.0,5224.0,5413.0,71.0,-72.0,-73.0,21.0,-109.0,8.0,-59.0,121.0,2.6342551708221436
508,-3371.0,159.0,6864.0,1.0,-12197.0,-7943.0,5224.0,5413.0,119.0,127.0,-38.0,36.0,95.0,86.0,-26.0,57.0,2.639260768890381
509,-555.0,-447.0,1205.0,1.0,-12353.0,-7711.0,5188.0,5429.0,119.0,127.0,-38.0,36.0,95.0,86.0,-26.0,57.0,2.642242431640625
510,-555.0,-447.0,1205.0,1.0,-12353.0,-7711.0,5188.0,5429.0,111.0,101.0,-89.0,2.0,98.0,-53.0,-102.0,80.0,2.6465156078338623
511,-555.0,-447.0,1205.0,1.0,-12353.0,-7711.0,5188.0,5429.0,-8.0,62.0,41.0,10.0,-128.0,-9.0,-4.0,-54.0,2.6483423709869385
512,2869.0,-567.0,-49.0,1.0,-12070.0,-8063.0,5428.0,5318.0,-8.0,62.0,41.0,10.0,-128.0,-9.0,-4.0,-54.0,2.6703362464904785
513,2869.0,-567.0,-49.0,1.0,-12070.0,-8063.0,5428.0,5318.0,7.0,-128.0,5.0,-40.0,-65.0,127.0,75.0,-82.0,2.673725128173828
514,2869.0,-567.0,-49.0,1.0,-12070.0,-8063.0,5428.0,5318.0,-116.0,-122.0,24.0,-43.0,-46.0,-21.0,1.0,-110.0,2.6784005165100098
515,2200.0,87.0,-588.0,1.0,-11844.0,-8390.0,5490.0,5256.0,-116.0,-122.0,24.0,-43.0,-46.0,-21.0,1.0,-110.0,2.682908773422241
516,2200.0,87.0,-588.0,1.0,-11844.0,-8390.0,5490.0,5256.0,-45.0,-59.0,-14.0,94.0,88.0,64.0,24.0,-12.0,2.6912999153137207
517,2200.0,87.0,-588.0,1.0,-11844.0,-8390.0,5490.0,5256.0,61.0,4.0,125.0,75.0,65.0,-55.0,23.0,53.0,2.69901180267334
518,427.0,83.0,813.0,1.0,-11842.0,-8416.0,5598.0,5104.0,61.0,4.0,125.0,75.0,65.0,-55.0,23.0,53.0,2.700937271118164
519,427.0,83.0,813.0,1.0,-11842.0,-8416.0,5598.0,5104.0,-68.0,-28.0,47.0,84.0,-70.0,25.0,9.0,94.0,2.705747604370117
520,427.0,83.0,813.0,1.0,-11842.0,-8416.0,5598.0,5104.0,-25.0,-13.0,-26.0,-58.0,-50.0,47.0,-10.0,-37.0,2.707542896270752
521,-677.0,203.0,-360.0,1.0,-11929.0,-8321.0,5482.0,5181.0,-25.0,-13.0,-26.0,-58.0,-50.0,47.0,-10.0,-37.0,2.7207860946655273
522,-677.0,203.0,-360.0,1.0,-11929.0,-8321.0,5482.0,5181.0,-40.0,-23.0,-46.0,-102.0,-31.0,46.0,13.0,-96.0,2.73663067817688
523,-677.0,203.0,-360.0,1.0,-11929.0,-8321.0,5482.0,5181.0,18.0,56.0,38.0,56.0,10.0,-23.0,-18.0,-16.0,2.7396132946014404
524,-505.0,399.0,-50.0,1.0,-12059.0,-8195.0,5398.0,5170.0,18.0,56.0,38.0,56.0,10.0,-23.0,-18.0,-16.0,2.753030300140381
525,-505.0,399.0,-50.0,1.0,-12059.0,-8195.0,5398.0,5170.0,-22.0,2.0,-24.0,5.0,-28.0,66.0,21.0,52.0,2.7566213607788086
526,-505.0,399.0,-50.0,1.0,-12059.0,-8195.0,5398.0,5170.0,34.0,26.0,-90.0,58.0,94.0,43.0,29.0,103.0,2.76007342338562
527,357.0,446.0,49.0,1.0,-12090.0,-8208.0,5415.0,5057.0,34.0,26.0,-90.0,58.0,94.0,43.0,29.0,103.0,2.763542890548706
528,357.0,446.0,49.0,1.0,-12090.0,-8208.0,5415.0,5057.0,-6.0,11.0,3.0,127.0,15.0,-25.0,18.0,-23.0,2.766902446746826
529,357.0,446.0,49.0,1.0,-12090.0,-8208.0,5415.0,5057.0,-72.0,-73.0,-25.0,93.0,-1.0,-14.0,-64.0,-7.0,2.768799304962158
530,221.0,406.0,-108.0,1.0,-12065.0,-8288.0,5417.0,4985.0,-72.0,-73.0,-25.0,93.0,-1.0,-14.0,-64.0,-7.0,2.7807750701904297
531,221.0,406.0,-108.0,1.0,-12065.0,-8288.0,5417.0,4985.0,9.0,31.0,-7.0,-56.0,59.0,62.0,33.0,-40.0,2.7889890670776367
532,221.0,406.0,-108.0,1.0,-12065.0,-8288.0,5417.0,4985.0,9.0,-35.0,13.0,-52.0,12.0,88.0,36.0,-7.0,2.790783405303955
533,-632.0,345.0,-7.0,1.0,-12090.0,-8286.0,5378.0,4970.0,9.0,-35.0,13.0,-52.0,12.0,88.0,36.0,-7.0,2.8031187057495117
534,-632.0,345.0,-7.0,1.0,-12090.0,-8286.0,5378.0,4970.0,3.0,9.0,-26.0,-67.0,-19.0,-128.0,-59.0,-66.0,2.81229567527771
535,-632.0,345.0,-7.0,1.0,-12090.0,-8286.0,5378.0,4970.0,11.0,-17.0,43.0,23.0,8.0,52.0,33.0,93.0,2.8152921199798584
536,-621.0,188.0,-14.0,1.0,-12133.0,-8238.0,5358.0,4965.0,11.0,-17.0,43.0,23.0,8.0,52.0,33.0,93.0,2.817784070968628
537,-621.0,188.0,-14.0,1.0,-12133.0,-8238.0,5358.0,4965.0,-18.0,-1.0,-10.0,-12.0,-17.0,18.0,38.0,-2.0,2.833585023880005
538,-621.0,188.0,-14.0,1.0,-12133.0,-8238.0,5358.0,4965.0,-21.0,-16.0,7.0,-45.0,-29.0,46.0,51.0,-35.0,2.83540678024292
539,107.0,142.0,-206.0,1.0,-12107.0,-8285.0,5356.0,4953.0,-21.0,-16.0,7.0,-45.0,-29.0,46.0,51.0,-35.0,2.8407270908355713
540,107.0,142.0,-206.0,1.0,-12107.0,-8285.0,5356.0,4953.0,-15.0,-15.0,-20.0,6.0,-20.0,17.0,6.0,31.0,2.8659791946411133
541,107.0,142.0,-206.0,1.0,-12107.0,-8285.0,5356.0,4953.0,24.0,22.0,-32.0,5.0,17.0,88.0,43.0,88.0,2.869623899459839
542,298.0,107.0,-195.0,1.0,-12065.0,-8353.0,5357.0,4940.0,24.0,22.0,-32.0,5.0,17.0,88.0,43.0,88.0,2.8733839988708496
543,298.0,107.0,-195.0,1.0,-12065.0,-8353.0,5357.0,4940.0,-43.0,18.0,39.0,39.0,5.0,-46.0,-32.0,26.0,2.876831293106079
544,298.0,107.0,-195.0,1.0,-12065.0,-8353.0,5357.0,4940.0,31.0,-9.0,5.0,19.0,88.0,86.0,39.0,-14.0,2.8788137435913086
545,60.0,108.0,-171.0,1.0,-12062.0,-8368.0,5337.0,4943.0,31.0,-9.0,5.0,19.0,88.0,86.0,39.0,-14.0,2.8806536197662354
546,60.0,108.0,-171.0,1.0,-12062.0,-8368.0,5337.0,4943.0,-4.0,-8.0,-16.0,-80.0,-7.0,65.0,-4.0,-87.0,2.8942205905914307
547,60.0,108.0,-171.0,1.0,-12062.0,-8368.0,5337.0,4943.0,-4.0,-8.0,-16.0,-80.0,-7.0,65.0,-4.0,-87.0,2.8963043689727783
548,60.0,108.0,-171.0,1.0,-12062.0,-8368.0,5337.0,4943.0,-14.0,21.0,17.0,8.0,-42.0,-128.0,-8.0,-37.0,2.9107322692871094
549,-3.0,110.0,-240.0,1.0,-12075.0,-8362.0,5307.0,4957.0,-14.0,21.0,17.0,8.0,-42.0,-128.0,-8.0,-37.0,2.913907527923584
550,-3.0,110.0,-240.0,1.0,-12075.0,-8362.0,5307.0,4957.0,22.0,21.0,22.0,-15.0,6.0,-30.0,2.0,-50.0,2.917459011077881
551,-3.0,110.0,-240.0,1.0,-12075.0,-8362.0,5307.0,4957.0,-26.0,17.0,-9.0,-3.0,-19.0,-6.0,-8.0,-11.0,2.9214320182800293
552,4.0,117.0,-250.0,1.0,-12081.0,-8363.0,5285.0,4964.0,-26.0,17.0,-9.0,-3.0,-19.0,-6.0,-8.0,-11.0,2.9232544898986816
553,4.0,117.0,-250.0,1.0,-12081.0,-8363.0,5285.0,4964.0,-26.0,17.0,-9.0,-3.0,-19.0,-6.0,-8.0,-11.0,2.933643102645874
554,4.0,117.0,-250.0,1.0,-12081.0,-8363.0,5285.0,4964.0,0.0,4.0,-9.0,28.0,-7.0,-59.0,-31.0,48.0,2.9357964992523193
555,-505.0,399.0,-50.0,1.0,-12059.0,-8195.0,5398.0,5170.0,0.0,4.0,-9.0,28.0,-7.0,-59.0,-31.0,48.0,2.9377036094665527
556,-505.0,399.0,-50.0,1.0,-12059.0,-8195.0,5398.0,5170.0,-22.0,2.0,-24.0,5.0,-28.0,66.0,21.0,52.0,2.940485954284668
557,-505.0,399.0,-50.0,1.0,-12059.0,-8195.0,5398.0,5170.0,34.0,26.0,-90.0,58.0,94.0,43.0,29.0,103.0,2.9422805309295654
558,-505.0,399.0,-50.0,1.0,-12059.0,-8195.0,5398.0,5170.0,34.0,26.0,-90.0,58.0,94.0,43.0,29.0,103.0,2.9441239833831787
559,-505.0,399.0,-50.0,1.0,-12059.0,-8195.0,5398.0,5170.0,-37.0,-18.0,0.0,-31.0,-25.0,35.0,-19.0,-89.0,2.945722818374634
560,-74.0,141.0,-196.0,1.0,-12091.0,-8360.0,5262.0,4966.0,-37.0,-18.0,0.0,-31.0,-25.0,35.0,-19.0,-89.0,2.9547269344329834
561,-74.0,141.0,-196.0,1.0,-12091.0,-8360.0,5262.0,4966.0,18.0,30.0,46.0,73.0,29.0,83.0,50.0,57.0,2.957166910171509
562,-74.0,141.0,-196.0,1.0,-12091.0,-8360.0,5262.0,4966.0,-4.0,13.0,26.0,29.0,-28.0,27.0,2.0,-78.0,2.9592721462249756
563,-233.0,192.0,-153.0,1.0,-12119.0,-8339.0,5231.0,4966.0,-4.0,13.0,26.0,29.0,-28.0,27.0,2.0,-78.0,2.9611878395080566
564,-233.0,192.0,-153.0,1.0,-12119.0,-8339.0,5231.0,4966.0,-14.0,-14.0,2.0,-63.0,-27.0,-87.0,5.0,-6.0,2.9765172004699707
565,-233.0,192.0,-153.0,1.0,-12119.0,-8339.0,5231.0,4966.0,-6.0,13.0,-7.0,-3.0,-25.0,-2.0,11.0,3.0,2.9784183502197266
566,-187.0,180.0,-106.0,1.0,-12140.0,-8328.0,5211.0,4956.0,-6.0,13.0,-7.0,-3.0,-25.0,-2.0,11.0,3.0,2.992476463317871
567,-187.0,180.0,-106.0,1.0,-12140.0,-8328.0,5211.0,4956.0,10.0,-9.0,16.0,42.0,4.0,-64.0,-11.0,-10.0,2.9957833290100098
568,-187.0,180.0,-106.0,1.0,-12140.0,-8328.0,5211.0,4956.0,10.0,8.0,9.0,40.0,51.0,79.0,-13.0,-64.0,2.9988760948181152
569,-188.0,116.0,-39.0,1.0,-12156.0,-8316.0,5199.0,4949.0,10.0,8.0,9.0,40.0,51.0,79.0,-13.0,-64.0,3.0078303813934326
570,-188.0,116.0,-39.0,1.0,-12156.0,-8316.0,5199.0,4949.0,-57.0,34.0,-20.0,8.0,-19.0,91.0,22.0,122.0,3.010633945465088
571,-188.0,116.0,-39.0,1.0,-12156.0,-8316.0,5199.0,4949.0,-28.0,-21.0,-6.0,-48.0,56.0,-47.0,-38.0,-58.0,3.0132131576538086
572,-176.0,50.0,7.0,1.0,-12171.0,-8298.0,5200.0,4942.0,-28.0,-21.0,-6.0,-48.0,56.0,-47.0,-38.0,-58.0,3.0208568572998047
573,-176.0,50.0,7.0,1.0,-12171.0,-8298.0,5200.0,4942.0,15.0,-16.0,18.0,5.0,-7.0,-58.0,1.0,-2.0,3.0288684368133545
574,-176.0,50.0,7.0,1.0,-12171.0,-8298.0,5200.0,4942.0,21.0,-5.0,-40.0,-16.0,-36.0,-126.0,-22.0,38.0,3.030656576156616
575,-188.0,6.0,36.0,1.0,-12188.0,-8271.0,5206.0,4937.0,21.0,-5.0,-40.0,-16.0,-36.0,-126.0,-22.0,38.0,3.042891502380371
576,-188.0,6.0,36.0,1.0,-12188.0,-8271.0,5206.0,4937.0,12.0,-22.0,-40.0,-19.0,-6.0,-76.0,-10.0,26.0,3.061038017272949
577,-188.0,6.0,36.0,1.0,-12188.0,-8271.0,5206.0,4937.0,14.0,27.0,37.0,-103.0,-71.0,-30.0,8.0,-10.0,3.0647237300872803
578,-182.0,17.0,101.0,1.0,-12213.0,-8238.0,5214.0,4923.0,14.0,27.0,37.0,-103.0,-71.0,-30.0,8.0,-10.0,3.067730665206909
579,-182.0,17.0,101.0,1.0,-12213.0,-8238.0,5214.0,4923.0,10.0,-3.0,-23.0,44.0,11.0,33.0,-7.0,-17.0,3.0697412490844727
580,-182.0,17.0,101.0,1.0,-12213.0,-8238.0,5214.0,4923.0,-12.0,-19.0,-10.0,-6.0,-53.0,-88.0,-32.0,18.0,3.0719034671783447
581,-132.0,36.0,178.0,1.0,-12237.0,-8210.0,5223.0,4900.0,-12.0,-19.0,-10.0,-6.0,-53.0,-88.0,-32.0,18.0,3.0911688804626465
582,-132.0,36.0,178.0,1.0,-12237.0,-8210.0,5223.0,4900.0,14.0,-16.0,-9.0,-27.0,18.0,127.0,63.0,53.0,3.0943167209625244
583,-132.0,36.0,178.0,1.0,-12237.0,-8210.0,5223.0,4900.0,37.0,3.0,29.0,-43.0,31.0,127.0,11.0,68.0,3.0969979763031006
584,-80.0,14.0,195.0,1.0,-12257.0,-8186.0,5237.0,4875.0,37.0,3.0,29.0,-43.0,31.0,127.0,11.0,68.0,3.1140904426574707
585,-80.0,14.0,195.0,1.0,-12257.0,-8186.0,5237.0,4875.0,44.0,9.0,-18.0,54.0,11.0,60.0,-11.0,-17.0,3.117755651473999
586,-80.0,14.0,195.0,1.0,-12257.0,-8186.0,5237.0,4875.0,9.0,-8.0,-16.0,-4.0,5.0,91.0,24.0,11.0,3.1211719512939453
587,-62.0,-7.0,189.0,1.0,-12275.0,-8164.0,5252.0,4853.0,9.0,-8.0,-16.0,-4.0,5.0,91.0,24.0,11.0,3.124446392059326
588,-62.0,-7.0,189.0,1.0,-12275.0,-8164.0,5252.0,4853.0,11.0,0.0,15.0,32.0,17.0,32.0,9.0,31.0,3.1265978813171387
589,-62.0,-7.0,189.0,1.0,-12275.0,-8164.0,5252.0,4853.0,-28.0,-5.0,-11.0,42.0,1.0,-93.0,-17.0,-45.0,3.1283857822418213
590,-86.0,-2.0,167.0,1.0,-12291.0,-8143.0,5265.0,4833.0,-28.0,-5.0,-11.0,42.0,1.0,-93.0,-17.0,-45.0,3.1406967639923096
591,-86.0,-2.0,167.0,1.0,-12291.0,-8143.0,5265.0,4833.0,-20.0,-9.0,-9.0,57.0,-14.0,-36.0,-29.0,-23.0,3.1491641998291016
592,-86.0,-2.0,167.0,1.0,-12291.0,-8143.0,5265.0,4833.0,0.0,-12.0,-30.0,16.0,14.0,-21.0,3.0,-11.0,3.151371479034424
593,-25.0,51.0,156.0,1.0,-12304.0,-8133.0,5275.0,4806.0,0.0,-12.0,-30.0,16.0,14.0,-21.0,3.0,-11.0,3.164552688598633
594,-25.0,51.0,156.0,1.0,-12304.0,-8133.0,5275.0,4806.0,6.0,-8.0,19.0,6.0,48.0,19.0,-5.0,-46.0,3.1723341941833496
595,-25.0,51.0,156.0,1.0,-12304.0,-8133.0,5275.0,4806.0,-24.0,-25.0,1.0,23.0,47.0,-14.0,-26.0,13.0,3.1755599975585938
596,82.0,43.0,134.0,1.0,-12303.0,-8141.0,5287.0,4779.0,-24.0,-25.0,1.0,23.0,47.0,-14.0,-26.0,13.0,3.177954912185669
597,82.0,43.0,134.0,1.0,-12303.0,-8141.0,5287.0,4779.0,27.0,19.0,23.0,-42.0,-15.0,11.0,-6.0,-42.0,3.18660044670105
598,82.0,43.0,134.0,1.0,-12303.0,-8141.0,5287.0,4779.0,13.0,30.0,16.0,28.0,-1.0,109.0,24.0,27.0,3.1884500980377197
599,48.0,1.0,103.0,1.0,-12306.0,-8140.0,5300.0,4761.0,13.0,30.0,16.0,28.0,-1.0,109.0,24.0,27.0,3.201580047607422
600,48.0,1.0,103.0,1.0,-12306.0,-8140.0,5300.0,4761.0,11.0,38.0,-29.0,-27.0,-40.0,-62.0,-19.0,-6.0,3.209759473800659
601,48.0,1.0,103.0,1.0,-12306.0,-8140.0,5300.0,4761.0,24.0,4.0,21.0,3.0,-19.0,31.0,9.0,33.0,3.215740442276001
602,14.0,-16.0,109.0,1.0,-12311.0,-8133.0,5314.0,4745.0,24.0,4.0,21.0,3.0,-19.0,31.0,9.0,33.0,3.22589373588562
603,14.0,-16.0,109.0,1.0,-12311.0,-8133.0,5314.0,4745.0,-32.0,-16.0,0.0,-8.0,11.0,9.0,-15.0,-25.0,3.2301981449127197
604,14.0,-16.0,109.0,1.0,-12311.0,-8133.0,5314.0,4745.0,-10.0,2.0,-9.0,7.0,-51.0,-83.0,-34.0,28.0,3.233663558959961
605,41.0,-48.0,112.0,1.0,-12309.0,-8130.0,5335.0,4730.0,-10.0,2.0,-9.0,7.0,-51.0,-83.0,-34.0,28.0,3.2383525371551514
606,41.0,-48.0,112.0,1.0,-12309.0,-8130.0,5335.0,4730.0,-1.0,-27.0,-15.0,27.0,-10.0,52.0,9.0,10.0,3.2473607063293457
607,41.0,-48.0,112.0,1.0,-12309.0,-8130.0,5335.0,4730.0,2.0,18.0,58.0,71.0,40.0,53.0,20.0,-20.0,3.2506072521209717
608,35.0,-50.0,116.0,1.0,-12307.0,-8128.0,5352.0,4718.0,2.0,18.0,58.0,71.0,40.0,53.0,20.0,-20.0,3.26178240776062
609,35.0,-50.0,116.0,1.0,-12307.0,-8128.0,5352.0,4718.0,-23.0,-21.0,-31.0,-39.0,-24.0,-7.0,19.0,42.0,3.2700295448303223
610,35.0,-50.0,116.0,1.0,-12307.0,-8128.0,5352.0,4718.0,-27.0,-20.0,-17.0,-8.0,-47.0,-29.0,-15.0,-31.0,3.2731926441192627
611,68.0,-74.0,98.0,1.0,-12301.0,-8130.0,5374.0,4708.0,-27.0,-20.0,-17.0,-8.0,-47.0,-29.0,-15.0,-31.0,3.285691738128662
612,68.0,-74.0,98.0,1.0,-12301.0,-8130.0,5374.0,4708.0,-6.0,15.0,26.0,20.0,-14.0,11.0,6.0,-12.0,3.290024757385254
613,68.0,-74.0,98.0,1.0,-12301.0,-8130.0,5374.0,4708.0,-6.0,3.0,-1.0,32.0,17.0,22.0,13.0,-9.0,3.293530225753784
614,4.0,-32.0,91.0,1.0,-12304.0,-8122.0,5390.0,4696.0,-6.0,3.0,-1.0,32.0,17.0,22.0,13.0,-9.0,3.2983758449554443
615,4.0,-32.0,91.0,1.0,-12304.0,-8122.0,5390.0,4696.0,-35.0,-28.0,-13.0,-58.0,24.0,-89.0,-56.0,-38.0,3.3060829639434814
616,4.0,-32.0,91.0,1.0,-12304.0,-8122.0,5390.0,4696.0,18.0,9.0,16.0,19.0,48.0,30.0,-4.0,-7.0,3.3079066276550293
617,49.0,5.0,90.0,1.0,-12302.0,-8125.0,5402.0,4678.0,18.0,9.0,16.0,19.0,48.0,30.0,-4.0,-7.0,3.320852041244507
618,49.0,5.0,90.0,1.0,-12302.0,-8125.0,5402.0,4678.0,9.0,7.0,-5.0,-41.0,-11.0,-26.0,5.0,28.0,3.3375563621520996
619,49.0,5.0,90.0,1.0,-12302.0,-8125.0,5402.0,4678.0,-36.0,-6.0,3.0,-35.0,42.0,46.0,26.0,11.0,3.340954065322876
620,52.0,-6.0,58.0,1.0,-12299.0,-8131.0,5411.0,4668.0,-36.0,-6.0,3.0,-35.0,42.0,46.0,26.0,11.0,3.345782995223999
621,52.0,-6.0,58.0,1.0,-12299.0,-8131.0,5411.0,4668.0,-8.0,-8.0,-9.0,-57.0,-25.0,-34.0,-14.0,-60.0,3.349890947341919
622,52.0,-6.0,58.0,1.0,-12299.0,-8131.0,5411.0,4668.0,-14.0,13.0,-20.0,15.0,-25.0,-22.0,1.0,-22.0,3.351829767227173
623,24.0,-7.0,46.0,1.0,-12298.0,-8132.0,5417.0,4661.0,-14.0,13.0,-20.0,15.0,-25.0,-22.0,1.0,-22.0,3.3679041862487793
624,24.0,-7.0,46.0,1.0,-12298.0,-8132.0,5417.0,4661.0,-5.0,6.0,5.0,-1.0,-75.0,-100.0,-6.0,-21.0,3.3714699745178223
625,24.0,-7.0,46.0,1.0,-12298.0,-8132.0,5417.0,4661.0,5.0,-7.0,-23.0,-17.0,11.0,9.0,-8.0,-5.0,3.374633550643921
626,20.0,25.0,25.0,1.0,-12300.0,-8133.0,5419.0,4653.0,5.0,-7.0,-23.0,-17.0,11.0,9.0,-8.0,-5.0,3.391819715499878
627,20.0,25.0,25.0,1.0,-12300.0,-8133.0,5419.0,4653.0,-9.0,-16.0,-20.0,64.0,20.0,-57.0,-26.0,-25.0,3.3962831497192383
628,20.0,25.0,25.0,1.0,-12300.0,-8133.0,5419.0,4653.0,-23.0,-10.0,-24.0,-58.0,-21.0,-33.0,-3.0,-10.0,3.4000160694122314
629,48.0,47.0,31.0,1.0,-12299.0,-8140.0,5420.0,4640.0,-23.0,-10.0,-24.0,-58.0,-21.0,-33.0,-3.0,-10.0,3.40548038482666
630,48.0,47.0,31.0,1.0,-12299.0,-8140.0,5420.0,4640.0,-8.0,6.0,14.0,-15.0,12.0,78.0,23.0,22.0,3.4075963497161865
631,48.0,47.0,31.0,1.0,-12299.0,-8140.0,5420.0,4640.0,9.0,-2.0,-25.0,33.0,2.0,-25.0,-6.0,10.0,3.409782648086548
632,32.0,48.0,42.0,1.0,-12301.0,-8146.0,5420.0,4628.0,9.0,-2.0,-25.0,33.0,2.0,-25.0,-6.0,10.0,3.4180831909179688
633,32.0,48.0,42.0,1.0,-12301.0,-8146.0,5420.0,4628.0,15.0,17.0,35.0,26.0,-6.0,16.0,8.0,6.0,3.4276392459869385
634,32.0,48.0,42.0,1.0,-12301.0,-8146.0,5420.0,4628.0,-5.0,-2.0,32.0,14.0,-33.0,77.0,14.0,30.0,3.430072784423828
635,22.0,45.0,44.0,1.0,-12301.0,-8151.0,5419.0,4616.0,-5.0,-2.0,32.0,14.0,-33.0,77.0,14.0,30.0,3.440903425216675
636,22.0,45.0,44.0,1.0,-12301.0,-8151.0,5419.0,4616.0,-18.0,-13.0,-34.0,-3.0,-29.0,41.0,-3.0,-36.0,3.4488747119903564
637,22.0,45.0,44.0,1.0,-12301.0,-8151.0,5419.0,4616.0,7.0,9.0,0.0,-17.0,-2.0,-71.0,-1.0,4.0,3.4510035514831543
638,-3.0,28.0,45.0,1.0,-12301.0,-8156.0,5421.0,4608.0,7.0,9.0,0.0,-17.0,-2.0,-71.0,-1.0,4.0,3.4651906490325928
639,-3.0,28.0,45.0,1.0,-12301.0,-8156.0,5421.0,4608.0,0.0,-6.0,9.0,-4.0,4.0,19.0,13.0,41.0,3.4686343669891357
640,-3.0,28.0,45.0,1.0,-12301.0,-8156.0,5421.0,4608.0,13.0,-6.0,-9.0,-51.0,-29.0,19.0,23.0,68.0,3.473083019256592
641,-24.0,27.0,38.0,1.0,-12302.0,-8157.0,5423.0,4600.0,13.0,-6.0,-9.0,-51.0,-29.0,19.0,23.0,68.0,3.4793665409088135
642,-24.0,27.0,38.0,1.0,-12302.0,-8157.0,5423.0,4600.0,-4.0,-1.0,12.0,40.0,32.0,-27.0,-6.0,4.0,3.4863758087158203
643,-24.0,27.0,38.0,1.0,-12302.0,-8157.0,5423.0,4600.0,9.0,-14.0,-8.0,-8.0,4.0,-34.0,10.0,12.0,3.488199472427368
644,-4.0,20.0,24.0,1.0,-12304.0,-8157.0,5423.0,4595.0,9.0,-14.0,-8.0,-8.0,4.0,-34.0,10.0,12.0,3.510530948638916
645,-4.0,20.0,24.0,1.0,-12304.0,-8157.0,5423.0,4595.0,-1.0,1.0,13.0,6.0,-7.0,-25.0,-7.0,-16.0,3.5138866901397705
646,-4.0,20.0,24.0,1.0,-12304.0,-8157.0,5423.0,4595.0,-5.0,-4.0,-6.0,-15.0,-7.0,6.0,-4.0,-2.0,3.5178115367889404
647,58.0,-8.0,0.0,1.0,-12296.0,-8168.0,5426.0,4593.0,-5.0,-4.0,-6.0,-15.0,-7.0,6.0,-4.0,-2.0,3.532292604446411
648,58.0,-8.0,0.0,1.0,-12296.0,-8168.0,5426.0,4593.0,17.0,14.0,19.0,31.0,29.0,88.0,3.0,-31.0,3.534477710723877
649,58.0,-8.0,0.0,1.0,-12296.0,-8168.0,5426.0,4593.0,7.0,-2.0,8.0,-70.0,-6.0,29.0,-6.0,-32.0,3.5364484786987305
650,62.0,-32.0,-20.0,1.0,-12284.0,-8181.0,5431.0,4596.0,7.0,-2.0,8.0,-70.0,-6.0,29.0,-6.0,-32.0,3.5384202003479004
651,62.0,-32.0,-20.0,1.0,-12284.0,-8181.0,5431.0,4596.0,-15.0,-31.0,30.0,-6.0,13.0,19.0,28.0,70.0,3.546773672103882
652,62.0,-32.0,-20.0,1.0,-12284.0,-8181.0,5431.0,4596.0,7.0,11.0,22.0,62.0,36.0,-9.0,-13.0,-8.0,3.5486631393432617
653,25.0,-37.0,-6.0,1.0,-12273.0,-8191.0,5438.0,4599.0,7.0,11.0,22.0,62.0,36.0,-9.0,-13.0,-8.0,3.5614891052246094
654,25.0,-37.0,-6.0,1.0,-12273.0,-8191.0,5438.0,4599.0,14.0,4.0,-23.0,-16.0,-16.0,39.0,27.0,32.0,3.5700032711029053
655,25.0,-37.0,-6.0,1.0,-12273.0,-8191.0,5438.0,4599.0,-5.0,-39.0,6.0,-58.0,-5.0,-29.0,-6.0,-6.0,3.572897434234619
656,19.0,-32.0,16.0,1.0,-12267.0,-8195.0,5445.0,4599.0,-5.0,-39.0,6.0,-58.0,-5.0,-29.0,-6.0,-6.0,3.5835118293762207
657,19.0,-32.0,16.0,1.0,-12267.0,-8195.0,5445.0,4599.0,-17.0,2.0,29.0,6.0,26.0,16.0,12.0,-28.0,3.5866458415985107
658,19.0,-32.0,16.0,1.0,-12267.0,-8195.0,5445.0,4599.0,-4.0,-11.0,-9.0,7.0,18.0,21.0,1.0,12.0,3.591006278991699
659,72.0,-22.0,23.0,1.0,-12259.0,-8205.0,5455.0,4593.0,-4.0,-11.0,-9.0,7.0,18.0,21.0,1.0,12.0,3.5978238582611084
660,72.0,-22.0,23.0,1.0,-12259.0,-8205.0,5455.0,4593.0,9.0,10.0,-18.0,-36.0,41.0,-1.0,-3.0,-4.0,3.614203453063965
661,72.0,-22.0,23.0,1.0,-12259.0,-8205.0,5455.0,4593.0,11.0,2.0,-6.0,42.0,54.0,-18.0,2.0,-17.0,3.616060495376587
662,76.0,-23.0,28.0,1.0,-12249.0,-8217.0,5464.0,4588.0,11.0,2.0,-6.0,42.0,54.0,-18.0,2.0,-17.0,3.6214396953582764
663,76.0,-23.0,28.0,1.0,-12249.0,-8217.0,5464.0,4588.0,10.0,21.0,-14.0,19.0,10.0,14.0,-14.0,-1.0,3.6302781105041504
664,76.0,-23.0,28.0,1.0,-12249.0,-8217.0,5464.0,4588.0,-9.0,20.0,-22.0,34.0,-11.0,-22.0,-1.0,10.0,3.6334609985351562
665,-10.0,-9.0,47.0,1.0,-12248.0,-8217.0,5469.0,4583.0,-9.0,20.0,-22.0,34.0,-11.0,-22.0,-1.0,10.0,3.6447865962982178
666,-10.0,-9.0,47.0,1.0,-12248.0,-8217.0,5469.0,4583.0,17.0,-8.0,-19.0,-6.0,3.0,54.0,7.0,-8.0,3.6470723152160645
667,-10.0,-9.0,47.0,1.0,-12248.0,-8217.0,5469.0,4583.0,8.0,13.0,19.0,36.0,-26.0,4.0,14.0,33.0,3.650784730911255
668,-47.0,-1.0,46.0,1.0,-12253.0,-8210.0,5470.0,4581.0,8.0,13.0,19.0,36.0,-26.0,4.0,14.0,33.0,3.667304277420044
669,-47.0,-1.0,46.0,1.0,-12253.0,-8210.0,5470.0,4581.0,-16.0,-2.0,0.0,1.0,-13.0,-23.0,-4.0,-20.0,3.6704907417297363
670,-47.0,-1.0,46.0,1.0,-12253.0,-8210.0,5470.0,4581.0,-11.0,-18.0,-37.0,30.0,14.0,-3.0,6.0,16.0,3.6735239028930664
671,-32.0,-1.0,18.0,1.0,-12257.0,-8204.0,5471.0,4580.0,-11.0,-18.0,-37.0,30.0,14.0,-3.0,6.0,16.0,3.6811165809631348
672,-32.0,-1.0,18.0,1.0,-12257.0,-8204.0,5471.0,4580.0,9.0,9.0,20.0,20.0,3.0,14.0,1.0,5.0,3.6898610591888428
673,-32.0,-1.0,18.0,1.0,-12257.0,-8204.0,5471.0,4580.0,-5.0,-6.0,-8.0,-14.0,-14.0,-49.0,-15.0,-41.0,3.695827007293701
674,1.0,11.0,6.0,1.0,-12256.0,-8205.0,5471.0,4580.0,-5.0,-6.0,-8.0,-14.0,-14.0,-49.0,-15.0,-41.0,3.703819513320923
675,1.0,11.0,6.0,1.0,-12256.0,-8205.0,5471.0,4580.0,-12.0,5.0,-28.0,1.0,46.0,-10.0,-7.0,-13.0,3.707213878631592
676,1.0,11.0,6.0,1.0,-12256.0,-8205.0,5471.0,4580.0,-1.0,5.0,17.0,-11.0,-5.0,14.0,-8.0,-10.0,3.7111892700195312
677,-15.0,22.0,4.0,1.0,-12254.0,-8211.0,5466.0,4580.0,-1.0,5.0,17.0,-11.0,-5.0,14.0,-8.0,-10.0,3.7352490425109863
678,-15.0,22.0,4.0,1.0,-12254.0,-8211.0,5466.0,4580.0,-4.0,5.0,-16.0,-52.0,-11.0,-33.0,7.0,4.0,3.738431930541992
679,-15.0,22.0,4.0,1.0,-12254.0,-8211.0,5466.0,4580.0,7.0,-3.0,-1.0,-68.0,-20.0,15.0,-5.0,-4.0,3.7415120601654053
680,-81.0,21.0,11.0,1.0,-12261.0,-8204.0,5460.0,4582.0,7.0,-3.0,-1.0,-68.0,-20.0,15.0,-5.0,-4.0,3.744838237762451
681,-81.0,21.0,11.0,1.0,-12261.0,-8204.0,5460.0,4582.0,11.0,4.0,15.0,10.0,-49.0,-36.0,-5.0,22.0,3.7493879795074463
682,-81.0,21.0,11.0,1.0,-12261.0,-8204.0,5460.0,4582.0,14.0,4.0,6.0,38.0,0.0,32.0,7.0,-9.0,3.751824378967285
683,-24.0,21.0,4.0,1.0,-12263.0,-8203.0,5457.0,4581.0,14.0,4.0,6.0,38.0,0.0,32.0,7.0,-9.0,3.763838529586792
684,-24.0,21.0,4.0,1.0,-12263.0,-8203.0,5457.0,4581.0,3.0,-3.0,11.0,8.0,-2.0,71.0,19.0,26.0,3.7657017707824707
685,-24.0,21.0,4.0,1.0,-12263.0,-8203.0,5457.0,4581.0,11.0,16.0,0.0,-17.0,-27.0,-31.0,1.0,26.0,3.7707719802856445
686,-39.0,16.0,-1.0,1.0,-12265.0,-8202.0,5454.0,4582.0,11.0,16.0,0.0,-17.0,-27.0,-31.0,1.0,26.0,3.787001609802246
687,-39.0,16.0,-1.0,1.0,-12265.0,-8202.0,5454.0,4582.0,-18.0,1.0,8.0,73.0,18.0,3.0,1.0,12.0,3.7897303104400635
688,-39.0,16.0,-1.0,1.0,-12265.0,-8202.0,5454.0,4582.0,-11.0,1.0,-7.0,9.0,8.0,-5.0,-17.0,-42.0,3.7939109802246094
689,-73.0,19.0,1.0,1.0,-12269.0,-8198.0,5449.0,4584.0,-11.0,1.0,-7.0,9.0,8.0,-5.0,-17.0,-42.0,3.801011562347412
690,-73.0,19.0,1.0,1.0,-12269.0,-8198.0,5449.0,4584.0,25.0,-2.0,-13.0,22.0,-1.0,-56.0,-8.0,-14.0,3.8091843128204346
691,-73.0,19.0,1.0,1.0,-12269.0,-8198.0,5449.0,4584.0,-6.0,7.0,-3.0,-45.0,17.0,3.0,9.0,24.0,3.8112969398498535
692,-87.0,17.0,-5.0,1.0,-12277.0,-8189.0,5444.0,4587.0,-6.0,7.0,-3.0,-45.0,17.0,3.0,9.0,24.0,3.8243021965026855
693,-87.0,17.0,-5.0,1.0,-12277.0,-8189.0,5444.0,4587.0,1.0,10.0,9.0,-43.0,-16.0,-21.0,2.0,9.0,3.827462911605835
694,-87.0,17.0,-5.0,1.0,-12277.0,-8189.0,5444.0,4587.0,0.0,-20.0,1.0,29.0,-3.0,61.0,4.0,22.0,3.839399814605713
695,-63.0,16.0,-12.0,1.0,-12281.0,-8183.0,5439.0,4590.0,0.0,-20.0,1.0,29.0,-3.0,61.0,4.0,22.0,3.8480148315429688
696,-63.0,16.0,-12.0,1.0,-12281.0,-8183.0,5439.0,4590.0,-11.0,-4.0,15.0,25.0,39.0,4.0,-29.0,-43.0,3.850269317626953
697,-63.0,16.0,-12.0,1.0,-12281.0,-8183.0,5439.0,4590.0,11.0,8.0,-11.0,-23.0,-24.0,20.0,-2.0,15.0,3.852102756500244
698,-20.0,13.0,-16.0,1.0,-12279.0,-8187.0,5436.0,4592.0,11.0,8.0,-11.0,-23.0,-24.0,20.0,-2.0,15.0,3.8694610595703125
699,-20.0,13.0,-16.0,1.0,-12279.0,-8187.0,5436.0,4592.0,-22.0,8.0,1.0,-3.0,14.0,-19.0,2.0,-3.0,3.871845006942749
700,-20.0,13.0,-16.0,1.0,-12279.0,-8187.0,5436.0,4592.0,-1.0,-12.0,-4.0,31.0,38.0,-1.0,10.0,14.0,3.8741414546966553
701,-36.0,17.0,-2.0,1.0,-12278.0,-8190.0,5434.0,4593.0,-1.0,-12.0,-4.0,31.0,38.0,-1.0,10.0,14.0,3.900357484817505
702,-36.0,17.0,-2.0,1.0,-12278.0,-8190.0,5434.0,4593.0,38.0,4.0,-23.0,-41.0,-25.0,2.0,-4.0,-1.0,3.9047999382019043
703,-36.0,17.0,-2.0,1.0,-12278.0,-8190.0,5434.0,4593.0,10.0,6.0,-6.0,-46.0,-14.0,2.0,10.0,-24.0,3.908216714859009
704,-52.0,-9.0,-1.0,1.0,-12282.0,-8183.0,5433.0,4596.0,10.0,6.0,-6.0,-46.0,-14.0,2.0,10.0,-24.0,3.911491632461548
705,-52.0,-9.0,-1.0,1.0,-12282.0,-8183.0,5433.0,4596.0,-14.0,-21.0,-13.0,33.0,1.0,10.0,2.0,0.0,3.9140071868896484
706,-52.0,-9.0,-1.0,1.0,-12282.0,-8183.0,5433.0,4596.0,-7.0,3.0,8.0,20.0,-23.0,-24.0,-27.0,-28.0,3.9158143997192383
707,-1.0,-10.0,3.0,1.0,-12282.0,-8183.0,5433.0,4596.0,-7.0,3.0,8.0,20.0,-23.0,-24.0,-27.0,-28.0,3.9206583499908447
708,-1.0,-10.0,3.0,1.0,-12282.0,-8183.0,5433.0,4596.0,-4.0,-3.0,18.0,4.0,-14.0,54.0,13.0,14.0,3.928567409515381
709,-1.0,-10.0,3.0,1.0,-12282.0,-8183.0,5433.0,4596.0,-17.0,9.0,-11.0,-41.0,-28.0,-23.0,-2.0,-8.0,3.930382490158081
710,-9.0,-14.0,3.0,1.0,-12281.0,-8184.0,5433.0,4596.0,-17.0,9.0,-11.0,-41.0,-28.0,-23.0,-2.0,-8.0,3.9438376426696777
711,-9.0,-14.0,3.0,1.0,-12281.0,-8184.0,5433.0,4596.0,13.0,-3.0,-23.0,-18.0,6.0,19.0,-12.0,-9.0,3.9460291862487793
712,-9.0,-14.0,3.0,1.0,-12281.0,-8184.0,5433.0,4596.0,-7.0,-1.0,13.0,56.0,19.0,-12.0,-3.0,-4.0,3.950324058532715
713,-5.0,-20.0,1.0,1.0,-12280.0,-8183.0,5435.0,4599.0,-7.0,-1.0,13.0,56.0,19.0,-12.0,-3.0,-4.0,3.9700207710266113
714,-5.0,-20.0,1.0,1.0,-12280.0,-8183.0,5435.0,4599.0,-7.0,-1.0,-7.0,-3.0,-20.0,6.0,14.0,28.0,3.9733524322509766
715,-5.0,-20.0,1.0,1.0,-12280.0,-8183.0,5435.0,4599.0,1.0,-3.0,-12.0,12.0,3.0,8.0,2.0,-10.0,3.9764249324798584
716,0.0,-15.0,-1.0,1.0,-12280.0,-8183.0,5435.0,4599.0,1.0,-3.0,-12.0,12.0,3.0,8.0,2.0,-10.0,3.980785846710205
717,0.0,-15.0,-1.0,1.0,-12280.0,-8183.0,5435.0,4599.0,-10.0,-10.0,-3.0,17.0,-47.0,-65.0,-20.0,-8.0,3.9897541999816895
718,0.0,-15.0,-1.0,1.0,-12280.0,-8183.0,5435.0,4599.0,-4.0,5.0,18.0,-15.0,7.0,-16.0,-5.0,7.0,3.9927356243133545
719,-5.0,-15.0,-2.0,1.0,-12279.0,-8184.0,5435.0,4599.0,-4.0,5.0,18.0,-15.0,7.0,-16.0,-5.0,7.0,4.005142688751221
720,-5.0,-15.0,-2.0,1.0,-12279.0,-8184.0,5435.0,4599.0,-15.0,-5.0,13.0,-8.0,3.0,-21.0,-10.0,-16.0,4.0087196826934814
721,-5.0,-15.0,-2.0,1.0,-12279.0,-8184.0,5435.0,4599.0,14.0,-4.0,-5.0,35.0,9.0,22.0,4.0,-2.0,4.01251220703125
722,-79.0,-5.0,3.0,1.0,-12286.0,-8173.0,5432.0,4604.0,14.0,-4.0,-5.0,35.0,9.0,22.0,4.0,-2.0,4.02765154838562
723,-79.0,-5.0,3.0,1.0,-12286.0,-8173.0,5432.0,4604.0,9.0,-1.0,-11.0,-51.0,-14.0,-10.0,3.0,3.0,4.032160758972168
724,-79.0,-5.0,3.0,1.0,-12286.0,-8173.0,5432.0,4604.0,-3.0,2.0,15.0,24.0,15.0,26.0,1.0,-16.0,4.037682771682739
725,-121.0,-6.0,3.0,1.0,-12299.0,-8154.0,5425.0,4611.0,-3.0,2.0,15.0,24.0,15.0,26.0,1.0,-16.0,4.040054798126221
726,-121.0,-6.0,3.0,1.0,-12299.0,-8154.0,5425.0,4611.0,-11.0,-9.0,-16.0,-54.0,-27.0,40.0,1.0,-6.0,4.048807859420776
727,-121.0,-6.0,3.0,1.0,-12299.0,-8154.0,5425.0,4611.0,2.0,-7.0,2.0,-38.0,-42.0,-15.0,8.0,8.0,4.065086841583252
728,-87.0,-4.0,4.0,1.0,-12307.0,-8141.0,5422.0,4616.0,2.0,-7.0,2.0,-38.0,-42.0,-15.0,8.0,8.0,4.068540811538696
729,-87.0,-4.0,4.0,1.0,-12307.0,-8141.0,5422.0,4616.0,-2.0,-5.0,1.0,21.0,15.0,-20.0,-20.0,-10.0,4.0721435546875
730,-87.0,-4.0,4.0,1.0,-12307.0,-8141.0,5422.0,4616.0,-4.0,5.0,1.0,-45.0,26.0,-8.0,-3.0,0.0,4.07622218132019
731,-90.0,10.0,5.0,1.0,-12315.0,-8131.0,5415.0,4621.0,-4.0,5.0,1.0,-45.0,26.0,-8.0,-3.0,0.0,4.087270259857178
732,-90.0,10.0,5.0,1.0,-12315.0,-8131.0,5415.0,4621.0,3.0,-5.0,-12.0,-68.0,4.0,5.0,7.0,-1.0,4.09084415435791
733,-90.0,10.0,5.0,1.0,-12315.0,-8131.0,5415.0,4621.0,6.0,7.0,-12.0,44.0,-6.0,-11.0,-1.0,1.0,4.0943028926849365
734,-82.0,14.0,12.0,1.0,-12322.0,-8122.0,5410.0,4623.0,6.0,7.0,-12.0,44.0,-6.0,-11.0,-1.0,1.0,4.102752923965454
735,-82.0,14.0,12.0,1.0,-12322.0,-8122.0,5410.0,4623.0,-2.0,5.0,20.0,-14.0,25.0,-25.0,0.0,-5.0,4.109017848968506
736,-82.0,14.0,12.0,1.0,-12322.0,-8122.0,5410.0,4623.0,0.0,-3.0,5.0,14.0,-5.0,-10.0,12.0,13.0,4.110825538635254
737,-96.0,6.0,27.0,1.0,-12332.0,-8109.0,5407.0,4625.0,0.0,-3.0,5.0,14.0,-5.0,-10.0,12.0,13.0,4.1329426765441895
738,-96.0,6.0,27.0,1.0,-12332.0,-8109.0,5407.0,4625.0,-11.0,6.0,11.0,42.0,7.0,34.0,15.0,9.0,4.1366167068481445
739,-96.0,6.0,27.0,1.0,-12332.0,-8109.0,5407.0,4625.0,-14.0,-2.0,-1.0,53.0,20.0,-37.0,-23.0,-20.0,4.140528917312622
740,-70.0,10.0,31.0,1.0,-12339.0,-8099.0,5406.0,4623.0,-14.0,-2.0,-1.0,53.0,20.0,-37.0,-23.0,-20.0,4.147036552429199
741,-70.0,10.0,31.0,1.0,-12339.0,-8099.0,5406.0,4623.0,9.0,11.0,16.0,12.0,26.0,6.0,0.0,9.0,4.149694919586182
742,-70.0,10.0,31.0,1.0,-12339.0,-8099.0,5406.0,4623.0,18.0,4.0,4.0,14.0,-9.0,0.0,-13.0,3.0,4.151748180389404
743,-25.0,18.0,39.0,1.0,-12343.0,-8097.0,5405.0,4618.0,18.0,4.0,4.0,14.0,-9.0,0.0,-13.0,3.0,4.160860300064087
744,-25.0,18.0,39.0,1.0,-12343.0,-8097.0,5405.0,4618.0,-10.0,-12.0,-19.0,21.0,9.0,-3.0,0.0,-14.0,4.169060945510864
745,-25.0,18.0,39.0,1.0,-12343.0,-8097.0,5405.0,4618.0,-6.0,-2.0,-8.0,-9.0,-6.0,-4.0,-2.0,-13.0,4.170828819274902
746,-31.0,13.0,43.0,1.0,-12345.0,-8096.0,5404.0,4615.0,-6.0,-2.0,-8.0,-9.0,-6.0,-4.0,-2.0,-13.0,4.183598518371582
747,-31.0,13.0,43.0,1.0,-12345.0,-8096.0,5404.0,4615.0,-3.0,-5.0,6.0,8.0,-11.0,-19.0,4.0,15.0,4.189176559448242
748,-31.0,13.0,43.0,1.0,-12345.0,-8096.0,5404.0,4615.0,6.0,1.0,-13.0,-26.0,-18.0,-6.0,9.0,8.0,4.192390203475952
749,-50.0,5.0,39.0,1.0,-12350.0,-8090.0,5404.0,4612.0,6.0,1.0,-13.0,-26.0,-18.0,-6.0,9.0,8.0,4.207834482192993
750,-50.0,5.0,39.0,1.0,-12350.0,-8090.0,5404.0,4612.0,7.0,0.0,1.0,59.0,39.0,-47.0,-18.0,-21.0,4.211285352706909
751,-50.0,5.0,39.0,1.0,-12350.0,-8090.0,5404.0,4612.0,14.0,-2.0,5.0,22.0,2.0,10.0,14.0,37.0,4.214510202407837
752,-44.0,1.0,38.0,1.0,-12354.0,-8084.0,5404.0,4611.0,14.0,-2.0,5.0,22.0,2.0,10.0,14.0,37.0,4.221138954162598
753,-44.0,1.0,38.0,1.0,-12354.0,-8084.0,5404.0,4611.0,-9.0,2.0,-12.0,20.0,28.0,19.0,7.0,20.0,4.229934930801392
754,-44.0,1.0,38.0,1.0,-12354.0,-8084.0,5404.0,4611.0,-12.0,1.0,9.0,-54.0,-22.0,1.0,-13.0,-18.0,4.23177170753479
755,5.0,-12.0,25.0,1.0,-12354.0,-8084.0,5407.0,4609.0,-12.0,1.0,9.0,-54.0,-22.0,1.0,-13.0,-18.0,4.2447614669799805
756,5.0,-12.0,25.0,1.0,-12354.0,-8084.0,5407.0,4609.0,14.0,3.0,1.0,0.0,-19.0,6.0,-12.0,-23.0,4.248662233352661
757,5.0,-12.0,25.0,1.0,-12354.0,-8084.0,5407.0,4609.0,-1.0,-9.0,-6.0,-17.0,24.0,-11.0,1.0,24.0,4.254493236541748
758,25.0,-44.0,17.0,1.0,-12350.0,-8084.0,5415.0,4609.0,-1.0,-9.0,-6.0,-17.0,24.0,-11.0,1.0,24.0,4.266475200653076
759,25.0,-44.0,17.0,1.0,-12350.0,-8084.0,5415.0,4609.0,1.0,-5.0,-17.0,-19.0,-7.0,-5.0,-2.0,-14.0,4.268855571746826
760,25.0,-44.0,17.0,1.0,-12350.0,-8084.0,5415.0,4609.0,-7.0,-2.0,6.0,-36.0,9.0,30.0,9.0,8.0,4.283112049102783
761,21.0,-38.0,3.0,1.0,-12344.0,-8088.0,5422.0,4611.0,-7.0,-2.0,6.0,-36.0,9.0,30.0,9.0,8.0,4.287106275558472
762,21.0,-38.0,3.0,1.0,-12344.0,-8088.0,5422.0,4611.0,-15.0,-10.0,-9.0,12.0,4.0,8.0,8.0,23.0,4.292573928833008
763,21.0,-38.0,3.0,1.0,-12344.0,-8088.0,5422.0,4611.0,-8.0,3.0,-14.0,9.0,23.0,6.0,-10.0,-27.0,4.295830965042114
764,12.0,-27.0,5.0,1.0,-12341.0,-8088.0,5427.0,4612.0,-8.0,3.0,-14.0,9.0,23.0,6.0,-10.0,-27.0,4.304138422012329
765,12.0,-27.0,5.0,1.0,-12341.0,-8088.0,5427.0,4612.0,4.0,-11.0,11.0,41.0,1.0,0.0,-11.0,0.0,4.306332349777222
766,12.0,-27.0,5.0,1.0,-12341.0,-8088.0,5427.0,4612.0,-11.0,-4.0,19.0,61.0,7.0,-4.0,-2.0,-2.0,4.31072211265564
767,33.0,-2.0,12.0,1.0,-12340.0,-8091.0,5429.0,4609.0,-11.0,-4.0,19.0,61.0,7.0,-4.0,-2.0,-2.0,4.335045337677002
768,33.0,-2.0,12.0,1.0,-12340.0,-8091.0,5429.0,4609.0,-1.0,5.0,0.0,-4.0,9.0,31.0,15.0,15.0,4.339640855789185
769,33.0,-2.0,12.0,1.0,-12340.0,-8091.0,5429.0,4609.0,-1.0,11.0,19.0,18.0,-37.0,-13.0,-5.0,2.0,4.343320369720459
770,23.0,15.0,21.0,1.0,-12340.0,-8093.0,5430.0,4603.0,-1.0,11.0,19.0,18.0,-37.0,-13.0,-5.0,2.0,4.34555459022522
771,23.0,15.0,21.0,1.0,-12340.0,-8093.0,5430.0,4603.0,7.0,12.0,15.0,19.0,-12.0,22.0,8.0,14.0,4.3488829135894775
772,23.0,15.0,21.0,1.0,-12340.0,-8093.0,5430.0,4603.0,-1.0,-8.0,-12.0,-97.0,-47.0,-41.0,-19.0,-36.0,4.3513689041137695
773,-16.0,20.0,32.0,1.0,-12346.0,-8087.0,5430.0,4597.0,-1.0,-8.0,-12.0,-97.0,-47.0,-41.0,-19.0,-36.0,4.363917112350464
774,-16.0,20.0,32.0,1.0,-12346.0,-8087.0,5430.0,4597.0,3.0,4.0,-8.0,-13.0,7.0,-25.0,6.0,1.0,4.3665077686309814
775,-16.0,20.0,32.0,1.0,-12346.0,-8087.0,5430.0,4597.0,13.0,10.0,12.0,-21.0,-14.0,-17.0,8.0,8.0,4.370795488357544
776,-8.0,23.0,28.0,1.0,-12351.0,-8085.0,5428.0,4592.0,13.0,10.0,12.0,-21.0,-14.0,-17.0,8.0,8.0,4.38713264465332
777,-8.0,23.0,28.0,1.0,-12351.0,-8085.0,5428.0,4592.0,1.0,0.0,3.0,-15.0,15.0,3.0,-2.0,3.0,4.389012336730957
778,-8.0,23.0,28.0,1.0,-12351.0,-8085.0,5428.0,4592.0,-11.0,10.0,1.0,68.0,36.0,-37.0,-1.0,-5.0,4.390778303146362
779,-15.0,26.0,25.0,1.0,-12355.0,-8082.0,5425.0,4588.0,-11.0,10.0,1.0,68.0,36.0,-37.0,-1.0,-5.0,4.400280952453613
780,-15.0,26.0,25.0,1.0,-12355.0,-8082.0,5425.0,4588.0,-2.0,4.0,-8.0,-65.0,-25.0,14.0,5.0,-2.0,4.4174089431762695
781,-15.0,26.0,25.0,1.0,-12355.0,-8082.0,5425.0,4588.0,-8.0,-12.0,-16.0,72.0,1.0,30.0,5.0,8.0,4.420680522918701
782,-5.0,23.0,20.0,1.0,-12357.0,-8083.0,5422.0,4584.0,-8.0,-12.0,-16.0,72.0,1.0,30.0,5.0,8.0,4.426019906997681
783,-5.0,23.0,20.0,1.0,-12357.0,-8083.0,5422.0,4584.0,-8.0,-10.0,17.0,14.0,-7.0,-36.0,-2.0,13.0,4.429737567901611
784,-5.0,23.0,20.0,1.0,-12357.0,-8083.0,5422.0,4584.0,7.0,12.0,10.0,11.0,12.0,34.0,8.0,6.0,4.431643009185791
785,-3.0,33.0,20.0,1.0,-12358.0,-8085.0,5420.0,4579.0,7.0,12.0,10.0,11.0,12.0,34.0,8.0,6.0,4.448231220245361
786,-3.0,33.0,20.0,1.0,-12358.0,-8085.0,5420.0,4579.0,-4.0,-7.0,-6.0,-27.0,-28.0,-10.0,-10.0,-15.0,4.450147390365601
787,-3.0,33.0,20.0,1.0,-12358.0,-8085.0,5420.0,4579.0,-9.0,-9.0,-16.0,5.0,17.0,-3.0,3.0,0.0,4.4524126052856445
788,0.0,30.0,12.0,1.0,-12359.0,-8089.0,5417.0,4575.0,-9.0,-9.0,-16.0,5.0,17.0,-3.0,3.0,0.0,4.460345983505249
789,0.0,30.0,12.0,1.0,-12359.0,-8089.0,5417.0,4575.0,-2.0,3.0,1.0,4.0,2.0,-54.0,-7.0,10.0,4.472332239151001
790,0.0,30.0,12.0,1.0,-12359.0,-8089.0,5417.0,4575.0,-6.0,-5.0,-15.0,-70.0,-29.0,8.0,9.0,23.0,4.475516319274902
791,-15.0,26.0,-2.0,1.0,-12361.0,-8090.0,5412.0,4574.0,-6.0,-5.0,-15.0,-70.0,-29.0,8.0,9.0,23.0,4.484774827957153
792,-15.0,26.0,-2.0,1.0,-12361.0,-8090.0,5412.0,4574.0,-2.0,-3.0,-4.0,-4.0,-19.0,-1.0,-10.0,2.0,4.486780643463135
793,-15.0,26.0,-2.0,1.0,-12361.0,-8090.0,5412.0,4574.0,3.0,-16.0,-7.0,15.0,16.0,26.0,6.0,1.0,4.490349292755127
794,8.0,27.0,-28.0,1.0,-12359.0,-8095.0,5406.0,4575.0,3.0,-16.0,-7.0,15.0,16.0,26.0,6.0,1.0,4.515715599060059
795,8.0,27.0,-28.0,1.0,-12359.0,-8095.0,5406.0,4575.0,3.0,7.0,1.0,-22.0,7.0,-17.0,-6.0,-6.0,4.519079923629761
796,8.0,27.0,-28.0,1.0,-12359.0,-8095.0,5406.0,4575.0,0.0,-5.0,2.0,-13.0,-13.0,39.0,11.0,-12.0,4.522547721862793
797,24.0,29.0,-35.0,1.0,-12355.0,-8106.0,5400.0,4577.0,0.0,-5.0,2.0,-13.0,-13.0,39.0,11.0,-12.0,4.5243988037109375
798,24.0,29.0,-35.0,1.0,-12355.0,-8106.0,5400.0,4577.0,0.0,7.0,4.0,29.0,-23.0,16.0,-6.0,-36.0,4.5288591384887695
799,24.0,29.0,-35.0,1.0,-12355.0,-8106.0,5400.0,4577.0,17.0,7.0,10.0,10.0,-3.0,9.0,-9.0,-4.0,4.530633449
0,846.0,-214.0,1232.0,1.0,-12320.0,-10112.0,3304.0,1872.0,0.0,-23.0,44.0,30.0,26.0,35.0,-15.0,11.0,2.384185791015625e-06
1,846.0,-214.0,1232.0,1.0,-12320.0,-10112.0,3304.0,1872.0,-70.0,-34.0,-1.0,-2.0,25.0,18.0,-4.0,-6.0,0.002168416976928711
2,846.0,-214.0,1232.0,1.0,-12320.0,-10112.0,3304.0,1872.0,-13.0,-19.0,5.0,11.0,71.0,-10.0,0.0,7.0,0.004437446594238281
3,846.0,-214.0,1232.0,1.0,-12320.0,-10112.0,3304.0,1872.0,-28.0,42.0,53.0,15.0,98.0,-35.0,-39.0,-14.0,0.006799221038818359
4,142.0,-184.0,439.0,1.0,-12357.0,-10050.0,3390.0,1810.0,-28.0,42.0,53.0,15.0,98.0,-35.0,-39.0,-14.0,0.008914947509765625
5,142.0,-184.0,439.0,1.0,-12357.0,-10050.0,3390.0,1810.0,-13.0,-15.0,59.0,17.0,-67.0,59.0,15.0,-18.0,0.011267423629760742
6,142.0,-184.0,439.0,1.0,-12357.0,-10050.0,3390.0,1810.0,-19.0,-16.0,13.0,35.0,39.0,13.0,1.0,-9.0,0.013298749923706055
7,405.0,156.0,-292.0,1.0,-12374.0,-10049.0,3317.0,1831.0,-19.0,-16.0,13.0,35.0,39.0,13.0,1.0,-9.0,0.015240669250488281
8,405.0,156.0,-292.0,1.0,-12374.0,-10049.0,3317.0,1831.0,1.0,-25.0,-28.0,61.0,1.0,68.0,9.0,27.0,0.017127275466918945
9,405.0,156.0,-292.0,1.0,-12374.0,-10049.0,3317.0,1831.0,26.0,1.0,12.0,15.0,-48.0,93.0,12.0,-9.0,0.018978118896484375
10,752.0,146.0,192.0,1.0,-12327.0,-10115.0,3331.0,1758.0,26.0,1.0,12.0,15.0,-48.0,93.0,12.0,-9.0,0.021127939224243164
11,752.0,146.0,192.0,1.0,-12327.0,-10115.0,3331.0,1758.0,-20.0,-9.0,3.0,-100.0,-102.0,4.0,-3.0,-46.0,0.02329874038696289
12,752.0,146.0,192.0,1.0,-12327.0,-10115.0,3331.0,1758.0,51.0,12.0,-74.0,-49.0,-42.0,79.0,28.0,-12.0,0.025287389755249023
13,475.0,78.0,-49.0,1.0,-12282.0,-10172.0,3342.0,1722.0,51.0,12.0,-74.0,-49.0,-42.0,79.0,28.0,-12.0,0.027124643325805664
14,475.0,78.0,-49.0,1.0,-12282.0,-10172.0,3342.0,1722.0,70.0,-27.0,-18.0,-4.0,26.0,1.0,-9.0,92.0,0.029019832611083984
15,475.0,78.0,-49.0,1.0,-12282.0,-10172.0,3342.0,1722.0,4.0,-1.0,0.0,-13.0,66.0,-15.0,5.0,37.0,0.030861854553222656
16,-117.0,81.0,77.0,1.0,-12276.0,-10183.0,3331.0,1717.0,4.0,-1.0,0.0,-13.0,66.0,-15.0,5.0,37.0,0.03347373008728027
17,-117.0,81.0,77.0,1.0,-12276.0,-10183.0,3331.0,1717.0,-35.0,-23.0,-34.0,19.0,-30.0,-115.0,-11.0,-39.0,0.03684639930725098
18,-117.0,81.0,77.0,1.0,-12276.0,-10183.0,3331.0,1717.0,22.0,6.0,19.0,39.0,18.0,74.0,57.0,61.0,0.03873467445373535
19,-491.0,-51.0,10.0,1.0,-12303.0,-10147.0,3334.0,1740.0,22.0,6.0,19.0,39.0,18.0,74.0,57.0,61.0,0.040566205978393555
20,-491.0,-51.0,10.0,1.0,-12303.0,-10147.0,3334.0,1740.0,11.0,58.0,48.0,35.0,43.0,27.0,-15.0,-42.0,0.042505502700805664
21,-491.0,-51.0,10.0,1.0,-12303.0,-10147.0,3334.0,1740.0,8.0,-7.0,-48.0,-27.0,-21.0,-70.0,8.0,47.0,0.044339895248413086
22,-322.0,-119.0,-79.0,1.0,-12316.0,-10120.0,3356.0,1760.0,8.0,-7.0,-48.0,-27.0,-21.0,-70.0,8.0,47.0,0.04613947868347168
23,-322.0,-119.0,-79.0,1.0,-12316.0,-10120.0,3356.0,1760.0,-21.0,-13.0,-42.0,-77.0,-16.0,15.0,-7.0,-38.0,0.04808950424194336
24,-322.0,-119.0,-79.0,1.0,-12316.0,-10120.0,3356.0,1760.0,3.0,-1.0,1.0,14.0,-10.0,11.0,8.0,-10.0,0.04990673065185547
25,2.0,-71.0,-185.0,1.0,-12308.0,-10124.0,3367.0,1773.0,3.0,-1.0,1.0,14.0,-10.0,11.0,8.0,-10.0,0.052251577377319336
26,2.0,-71.0,-185.0,1.0,-12308.0,-10124.0,3367.0,1773.0,6.0,9.0,-36.0,-21.0,-28.0,-30.0,-12.0,27.0,0.055069923400878906
27,2.0,-71.0,-185.0,1.0,-12308.0,-10124.0,3367.0,1773.0,-28.0,9.0,-4.0,-25.0,9.0,-5.0,-36.0,-28.0,0.05728340148925781
28,141.0,-5.0,-147.0,1.0,-12296.0,-10137.0,3371.0,1772.0,-28.0,9.0,-4.0,-25.0,9.0,-5.0,-36.0,-28.0,0.059388160705566406
29,141.0,-5.0,-147.0,1.0,-12296.0,-10137.0,3371.0,1772.0,-11.0,-2.0,14.0,9.0,35.0,26.0,-36.0,-73.0,0.06148934364318848
30,141.0,-5.0,-147.0,1.0,-12296.0,-10137.0,3371.0,1772.0,3.0,-8.0,-2.0,10.0,-39.0,-14.0,-3.0,9.0,0.06335020065307617
31,33.0,17.0,-122.0,1.0,-12304.0,-10128.0,3372.0,1769.0,3.0,-8.0,-2.0,10.0,-39.0,-14.0,-3.0,9.0,0.0651547908782959
32,33.0,17.0,-122.0,1.0,-12304.0,-10128.0,3372.0,1769.0,3.0,-8.0,-2.0,10.0,-39.0,-14.0,-3.0,9.0,0.06704139709472656
33,33.0,17.0,-122.0,1.0,-12304.0,-10128.0,3372.0,1769.0,-8.0,10.0,19.0,25.0,13.0,1.0,18.0,4.0,0.06864190101623535
34,33.0,17.0,-122.0,1.0,-12304.0,-10128.0,3372.0,1769.0,-6.0,4.0,-5.0,73.0,17.0,1.0,-29.0,-31.0,0.07042789459228516
35,-47.0,27.0,-96.0,1.0,-12321.0,-10107.0,3373.0,1764.0,-6.0,4.0,-5.0,73.0,17.0,1.0,-29.0,-31.0,0.07221817970275879
36,-47.0,27.0,-96.0,1.0,-12321.0,-10107.0,3373.0,1764.0,6.0,-1.0,-7.0,9.0,5.0,-16.0,19.0,22.0,0.07417130470275879
37,-47.0,27.0,-96.0,1.0,-12321.0,-10107.0,3373.0,1764.0,39.0,5.0,28.0,-40.0,8.0,35.0,20.0,-7.0,0.0759878158569336
38,-106.0,29.0,-96.0,1.0,-12338.0,-10087.0,3372.0,1763.0,39.0,5.0,28.0,-40.0,8.0,35.0,20.0,-7.0,0.07776927947998047
39,-106.0,29.0,-96.0,1.0,-12338.0,-10087.0,3372.0,1763.0,-12.0,-9.0,-18.0,5.0,48.0,7.0,10.0,17.0,0.07971429824829102
40,-106.0,29.0,-96.0,1.0,-12338.0,-10087.0,3372.0,1763.0,-36.0,9.0,16.0,-15.0,23.0,2.0,0.0,17.0,0.08196401596069336
41,-236.0,6.0,-19.0,1.0,-12370.0,-10046.0,3376.0,1763.0,-36.0,9.0,16.0,-15.0,23.0,2.0,0.0,17.0,0.08425474166870117
42,-236.0,6.0,-19.0,1.0,-12370.0,-10046.0,3376.0,1763.0,13.0,10.0,1.0,-7.0,-4.0,-4.0,10.0,21.0,0.08639812469482422
43,-236.0,6.0,-19.0,1.0,-12370.0,-10046.0,3376.0,1763.0,-1.0,-5.0,1.0,4.0,-17.0,-18.0,-10.0,-21.0,0.08829164505004883
44,-296.0,-31.0,-10.0,1.0,-12403.0,-10001.0,3390.0,1764.0,-1.0,-5.0,1.0,4.0,-17.0,-18.0,-10.0,-21.0,0.09019684791564941
45,-296.0,-31.0,-10.0,1.0,-12403.0,-10001.0,3390.0,1764.0,-11.0,1.0,5.0,-16.0,-7.0,20.0,26.0,18.0,0.09249162673950195
46,-296.0,-31.0,-10.0,1.0,-12403.0,-10001.0,3390.0,1764.0,0.0,-1.0,-15.0,-14.0,9.0,-2.0,-11.0,-39.0,0.09439277648925781
47,-299.0,-68.0,19.0,1.0,-12437.0,-9950.0,3414.0,1763.0,0.0,-1.0,-15.0,-14.0,9.0,-2.0,-11.0,-39.0,0.09637808799743652
48,-299.0,-68.0,19.0,1.0,-12437.0,-9950.0,3414.0,1763.0,17.0,5.0,17.0,-50.0,-6.0,-10.0,3.0,9.0,0.09864950180053711
49,-299.0,-68.0,19.0,1.0,-12437.0,-9950.0,3414.0,1763.0,-1.0,-6.0,-4.0,-2.0,-35.0,-19.0,-7.0,-1.0,0.1008000373840332
50,-260.0,-130.0,2.0,1.0,-12465.0,-9903.0,3447.0,1768.0,-1.0,-6.0,-4.0,-2.0,-35.0,-19.0,-7.0,-1.0,0.10277152061462402
51,-260.0,-130.0,2.0,1.0,-12465.0,-9903.0,3447.0,1768.0,-5.0,-2.0,-25.0,-22.0,-11.0,-36.0,-4.0,6.0,0.10470175743103027
52,-260.0,-130.0,2.0,1.0,-12465.0,-9903.0,3447.0,1768.0,-2.0,-4.0,-3.0,-12.0,-11.0,-5.0,12.0,0.0,0.10659909248352051
53,-192.0,-162.0,42.0,1.0,-12477.0,-9873.0,3489.0,1772.0,-2.0,-4.0,-3.0,-12.0,-11.0,-5.0,12.0,0.0,0.10845088958740234
54,-192.0,-162.0,42.0,1.0,-12477.0,-9873.0,3489.0,1772.0,11.0,-14.0,-6.0,15.0,20.0,12.0,-3.0,9.0,0.11038684844970703
55,-192.0,-162.0,42.0,1.0,-12477.0,-9873.0,3489.0,1772.0,-1.0,0.0,-2.0,16.0,-5.0,-43.0,-27.0,2.0,0.1127631664276123
56,-185.0,-175.0,80.0,1.0,-12486.0,-9844.0,3535.0,1773.0,-1.0,0.0,-2.0,16.0,-5.0,-43.0,-27.0,2.0,0.114898681640625
57,-185.0,-175.0,80.0,1.0,-12486.0,-9844.0,3535.0,1773.0,-26.0,-7.0,-11.0,18.0,-8.0,-44.0,-1.0,3.0,0.11695456504821777
58,-185.0,-175.0,80.0,1.0,-12486.0,-9844.0,3535.0,1773.0,8.0,-1.0,-3.0,7.0,-20.0,8.0,8.0,15.0,0.11910653114318848
59,-103.0,-194.0,163.0,1.0,-12487.0,-9826.0,3588.0,1767.0,8.0,-1.0,-3.0,7.0,-20.0,8.0,8.0,15.0,0.12276268005371094
60,-103.0,-194.0,163.0,1.0,-12487.0,-9826.0,3588.0,1767.0,-10.0,-3.0,2.0,-3.0,2.0,3.0,-3.0,-15.0,0.12486505508422852
61,-103.0,-194.0,163.0,1.0,-12487.0,-9826.0,3588.0,1767.0,0.0,16.0,20.0,21.0,-7.0,-5.0,0.0,-11.0,0.1267101764678955
62,-64.0,-212.0,222.0,1.0,-12488.0,-9805.0,3646.0,1756.0,0.0,16.0,20.0,21.0,-7.0,-5.0,0.0,-11.0,0.1285233497619629
63,-64.0,-212.0,222.0,1.0,-12488.0,-9805.0,3646.0,1756.0,5.0,5.0,-8.0,4.0,-5.0,3.0,-3.0,-6.0,0.13044452667236328
64,-64.0,-212.0,222.0,1.0,-12488.0,-9805.0,3646.0,1756.0,6.0,-6.0,-3.0,-11.0,-11.0,5.0,-16.0,-7.0,0.13233423233032227
65,-41.0,-255.0,339.0,1.0,-12481.0,-9789.0,3716.0,1741.0,6.0,-6.0,-3.0,-11.0,-11.0,5.0,-16.0,-7.0,0.13417553901672363
66,-41.0,-255.0,339.0,1.0,-12481.0,-9789.0,3716.0,1741.0,0.0,4.0,1.0,-3.0,-15.0,-8.0,-5.0,1.0,0.13605475425720215
67,-41.0,-255.0,339.0,1.0,-12481.0,-9789.0,3716.0,1741.0,-2.0,6.0,-8.0,-2.0,-16.0,-6.0,0.0,0.0,0.13790059089660645
68,-127.0,-251.0,361.0,1.0,-12491.0,-9751.0,3797.0,1715.0,-2.0,6.0,-8.0,-2.0,-16.0,-6.0,0.0,0.0,0.13970160484313965
69,-127.0,-251.0,361.0,1.0,-12491.0,-9751.0,3797.0,1715.0,6.0,16.0,9.0,33.0,-74.0,-14.0,-4.0,-5.0,0.14156770706176758
70,-127.0,-251.0,361.0,1.0,-12491.0,-9751.0,3797.0,1715.0,-4.0,-5.0,-2.0,1.0,6.0,3.0,2.0,0.0,0.14384174346923828
71,-24.0,-263.0,335.0,1.0,-12491.0,-9724.0,3876.0,1690.0,-4.0,-5.0,-2.0,1.0,6.0,3.0,2.0,0.0,0.14609122276306152
72,-24.0,-263.0,335.0,1.0,-12491.0,-9724.0,3876.0,1690.0,-4.0,-5.0,-2.0,1.0,6.0,3.0,2.0,0.0,0.14818263053894043
73,-24.0,-263.0,335.0,1.0,-12491.0,-9724.0,3876.0,1690.0,-8.0,-1.0,0.0,18.0,25.0,8.0,-10.0,-9.0,0.14985442161560059
74,-24.0,-263.0,335.0,1.0,-12491.0,-9724.0,3876.0,1690.0,-4.0,-5.0,-8.0,-29.0,-42.0,-8.0,-1.0,4.0,0.15166258811950684
75,183.0,-262.0,347.0,1.0,-12465.0,-9729.0,3963.0,1654.0,-4.0,-5.0,-8.0,-29.0,-42.0,-8.0,-1.0,4.0,0.1534581184387207
76,183.0,-262.0,347.0,1.0,-12465.0,-9729.0,3963.0,1654.0,-1.0,-1.0,2.0,6.0,24.0,5.0,0.0,0.0,0.15538644790649414
77,183.0,-262.0,347.0,1.0,-12465.0,-9729.0,3963.0,1654.0,2.0,-1.0,10.0,-21.0,16.0,-4.0,-6.0,-1.0,0.1571798324584961
78,194.0,-237.0,311.0,1.0,-12440.0,-9733.0,4043.0,1618.0,2.0,-1.0,10.0,-21.0,16.0,-4.0,-6.0,-1.0,0.15911269187927246
79,194.0,-237.0,311.0,1.0,-12440.0,-9733.0,4043.0,1618.0,-3.0,1.0,-3.0,21.0,23.0,3.0,-12.0,-2.0,0.1613461971282959
80,194.0,-237.0,311.0,1.0,-12440.0,-9733.0,4043.0,1618.0,5.0,-4.0,-9.0,-48.0,7.0,1.0,16.0,1.0,0.16345858573913574
81,244.0,-188.0,352.0,1.0,-12411.0,-9745.0,4121.0,1570.0,5.0,-4.0,-9.0,-48.0,7.0,1.0,16.0,1.0,0.1652975082397461
82,244.0,-188.0,352.0,1.0,-12411.0,-9745.0,4121.0,1570.0,2.0,0.0,0.0,5.0,-30.0,-3.0,13.0,0.0,0.1672358512878418
83,244.0,-188.0,352.0,1.0,-12411.0,-9745.0,4121.0,1570.0,3.0,3.0,2.0,56.0,12.0,2.0,-18.0,0.0,0.16904759407043457
84,322.0,-139.0,328.0,1.0,-12380.0,-9764.0,4190.0,1516.0,3.0,3.0,2.0,56.0,12.0,2.0,-18.0,0.0,0.1708667278289795
85,322.0,-139.0,328.0,1.0,-12380.0,-9764.0,4190.0,1516.0,-1.0,-7.0,1.0,-4.0,56.0,-2.0,-25.0,-1.0,0.1727614402770996
86,322.0,-139.0,328.0,1.0,-12380.0,-9764.0,4190.0,1516.0,8.0,1.0,-11.0,-82.0,-66.0,-18.0,4.0,0.0,0.17477822303771973
87,451.0,-180.0,261.0,1.0,-12332.0,-9803.0,4257.0,1471.0,8.0,1.0,-11.0,-82.0,-66.0,-18.0,4.0,0.0,0.17757034301757812
88,451.0,-180.0,261.0,1.0,-12332.0,-9803.0,4257.0,1471.0,6.0,-11.0,-23.0,-75.0,-125.0,-40.0,-8.0,0.0,0.17975378036499023
89,451.0,-180.0,261.0,1.0,-12332.0,-9803.0,4257.0,1471.0,-7.0,-3.0,6.0,46.0,23.0,5.0,18.0,-5.0,0.18155574798583984
90,504.0,-112.0,124.0,1.0,-12278.0,-9854.0,4308.0,1429.0,-7.0,-3.0,6.0,46.0,23.0,5.0,18.0,-5.0,0.18377065658569336
91,504.0,-112.0,124.0,1.0,-12278.0,-9854.0,4308.0,1429.0,-52.0,-9.0,-8.0,49.0,-4.0,-3.0,-26.0,-6.0,0.1859455108642578
92,504.0,-112.0,124.0,1.0,-12278.0,-9854.0,4308.0,1429.0,-3.0,-7.0,-12.0,-46.0,18.0,-11.0,-21.0,-14.0,0.18800687789916992
93,349.0,-73.0,-150.0,1.0,-12230.0,-9906.0,4330.0,1420.0,-3.0,-7.0,-12.0,-46.0,18.0,-11.0,-21.0,-14.0,0.1898336410522461
94,349.0,-73.0,-150.0,1.0,-12230.0,-9906.0,4330.0,1420.0,3.0,-1.0,5.0,-7.0,29.0,9.0,5.0,-17.0,0.19173884391784668
95,349.0,-73.0,-150.0,1.0,-12230.0,-9906.0,4330.0,1420.0,-8.0,2.0,0.0,-47.0,-21.0,13.0,11.0,-9.0,0.1936955451965332
96,-160.0,206.0,-358.0,1.0,-12266.0,-9875.0,4296.0,1417.0,-8.0,2.0,0.0,-47.0,-21.0,13.0,11.0,-9.0,0.19572114944458008
97,-160.0,206.0,-358.0,1.0,-12266.0,-9875.0,4296.0,1417.0,8.0,-2.0,1.0,-37.0,31.0,15.0,59.0,15.0,0.19759249687194824
98,-160.0,206.0,-358.0,1.0,-12266.0,-9875.0,4296.0,1417.0,14.0,9.0,10.0,44.0,21.0,4.0,-11.0,13.0,0.1994180679321289
99,113.0,262.0,-515.0,1.0,-12284.0,-9880.0,4233.0,1422.0,14.0,9.0,10.0,44.0,21.0,4.0,-11.0,13.0,0.20119857788085938
100,113.0,262.0,-515.0,1.0,-12284.0,-9880.0,4233.0,1422.0,1.0,-2.0,1.0,-14.0,-12.0,-6.0,-13.0,-3.0,0.20306873321533203
101,113.0,262.0,-515.0,1.0,-12284.0,-9880.0,4233.0,1422.0,1.0,-3.0,-20.0,-52.0,-47.0,-12.0,4.0,-5.0,0.2049846649169922
102,207.0,284.0,-491.0,1.0,-12321.0,-9870.0,4147.0,1430.0,1.0,-3.0,-20.0,-52.0,-47.0,-12.0,4.0,-5.0,0.20705556869506836
103,207.0,284.0,-491.0,1.0,-12321.0,-9870.0,4147.0,1430.0,3.0,4.0,6.0,53.0,7.0,5.0,-6.0,4.0,0.2090926170349121
104,207.0,284.0,-491.0,1.0,-12321.0,-9870.0,4147.0,1430.0,-2.0,-1.0,8.0,30.0,17.0,6.0,0.0,8.0,0.2109231948852539
105,1512.0,272.0,-455.0,1.0,-12164.0,-10094.0,4084.0,1392.0,-2.0,-1.0,8.0,30.0,17.0,6.0,0.0,8.0,0.21272492408752441
106,1512.0,272.0,-455.0,1.0,-12164.0,-10094.0,4084.0,1392.0,6.0,-4.0,-5.0,-19.0,3.0,-6.0,8.0,-4.0,0.21466326713562012
107,1512.0,272.0,-455.0,1.0,-12164.0,-10094.0,4084.0,1392.0,0.0,1.0,11.0,2.0,-5.0,-4.0,-1.0,6.0,0.21648716926574707
108,1240.0,203.0,-352.0,1.0,-12030.0,-10279.0,4022.0,1375.0,0.0,1.0,11.0,2.0,-5.0,-4.0,-1.0,6.0,0.21828722953796387
109,1240.0,203.0,-352.0,1.0,-12030.0,-10279.0,4022.0,1375.0,2.0,-1.0,7.0,18.0,14.0,-13.0,-8.0,-6.0,0.22018027305603027
110,1240.0,203.0,-352.0,1.0,-12030.0,-10279.0,4022.0,1375.0,-5.0,-9.0,-2.0,55.0,11.0,7.0,-4.0,-1.0,0.22214221954345703
111,1038.0,343.0,-198.0,1.0,-11904.0,-10451.0,3974.0,1318.0,-5.0,-9.0,-2.0,55.0,11.0,7.0,-4.0,-1.0,0.22429704666137695
112,1038.0,343.0,-198.0,1.0,-11904.0,-10451.0,3974.0,1318.0,6.0,4.0,5.0,-6.0,0.0,2.0,12.0,24.0,0.22644686698913574
113,1038.0,343.0,-198.0,1.0,-11904.0,-10451.0,3974.0,1318.0,-11.0,0.0,1.0,26.0,14.0,-27.0,-27.0,-15.0,0.22834205627441406
114,127.0,155.0,72.0,1.0,-11873.0,-10492.0,3966.0,1290.0,-11.0,0.0,1.0,26.0,14.0,-27.0,-27.0,-15.0,0.23020672798156738
115,127.0,155.0,72.0,1.0,-11873.0,-10492.0,3966.0,1290.0,4.0,1.0,-2.0,-10.0,-11.0,-54.0,-4.0,14.0,0.2320716381072998
116,127.0,155.0,72.0,1.0,-11873.0,-10492.0,3966.0,1290.0,0.0,1.0,1.0,21.0,-4.0,-8.0,11.0,26.0,0.23386502265930176
117,-72.0,146.0,236.0,1.0,-11868.0,-10498.0,3981.0,1244.0,0.0,1.0,1.0,21.0,-4.0,-8.0,11.0,26.0,0.23578786849975586
118,-72.0,146.0,236.0,1.0,-11868.0,-10498.0,3981.0,1244.0,8.0,2.0,-6.0,9.0,6.0,-11.0,2.0,39.0,0.23795199394226074
119,-72.0,146.0,236.0,1.0,-11868.0,-10498.0,3981.0,1244.0,3.0,1.0,3.0,10.0,14.0,22.0,14.0,-19.0,0.2399904727935791
120,-678.0,111.0,450.0,1.0,-11937.0,-10417.0,3996.0,1219.0,3.0,1.0,3.0,10.0,14.0,22.0,14.0,-19.0,0.24190187454223633
121,-678.0,111.0,450.0,1.0,-11937.0,-10417.0,3996.0,1219.0,-8.0,0.0,6.0,4.0,16.0,-40.0,-9.0,-27.0,0.2437732219696045
122,-678.0,111.0,450.0,1.0,-11937.0,-10417.0,3996.0,1219.0,-8.0,-13.0,-12.0,5.0,-2.0,-56.0,-2.0,-14.0,0.24577116966247559
123,-1129.0,71.0,500.0,1.0,-12061.0,-10263.0,4024.0,1203.0,-8.0,-13.0,-12.0,5.0,-2.0,-56.0,-2.0,-14.0,0.24935221672058105
124,-1129.0,71.0,500.0,1.0,-12061.0,-10263.0,4024.0,1203.0,-8.0,-3.0,-9.0,6.0,15.0,101.0,-2.0,-40.0,0.25157809257507324
125,-1129.0,71.0,500.0,1.0,-12061.0,-10263.0,4024.0,1203.0,15.0,23.0,4.0,13.0,9.0,42.0,28.0,27.0,0.2534477710723877
126,-538.0,-38.0,463.0,1.0,-12121.0,-10176.0,4075.0,1170.0,15.0,23.0,4.0,13.0,9.0,42.0,28.0,27.0,0.2552828788757324
127,-538.0,-38.0,463.0,1.0,-12121.0,-10176.0,4075.0,1170.0,-4.0,-7.0,-3.0,-3.0,1.0,-11.0,-12.0,18.0,0.25714993476867676
128,-538.0,-38.0,463.0,1.0,-12121.0,-10176.0,4075.0,1170.0,-22.0,-1.0,13.0,8.0,-1.0,46.0,2.0,-52.0,0.2590513229370117
129,-278.0,-11.0,427.0,1.0,-12145.0,-10131.0,4129.0,1122.0,-22.0,-1.0,13.0,8.0,-1.0,46.0,2.0,-52.0,0.26085400581359863
130,-278.0,-11.0,427.0,1.0,-12145.0,-10131.0,4129.0,1122.0,18.0,19.0,4.0,-11.0,7.0,105.0,41.0,67.0,0.26275014877319336
131,-278.0,-11.0,427.0,1.0,-12145.0,-10131.0,4129.0,1122.0,2.0,-9.0,-4.0,-5.0,-10.0,1.0,-39.0,-17.0,0.264528751373291
132,-303.0,-9.0,255.0,1.0,-12175.0,-10083.0,4169.0,1091.0,2.0,-9.0,-4.0,-5.0,-10.0,1.0,-39.0,-17.0,0.26642632484436035
133,-303.0,-9.0,255.0,1.0,-12175.0,-10083.0,4169.0,1091.0,-7.0,-21.0,-22.0,5.0,20.0,48.0,17.0,14.0,0.2694098949432373
134,-303.0,-9.0,255.0,1.0,-12175.0,-10083.0,4169.0,1091.0,-11.0,-8.0,-26.0,-22.0,-21.0,-8.0,-17.0,6.0,0.27126336097717285
135,-243.0,-88.0,-77.0,1.0,-12197.0,-10051.0,4175.0,1117.0,-11.0,-8.0,-26.0,-22.0,-21.0,-8.0,-17.0,6.0,0.27306532859802246
136,-243.0,-88.0,-77.0,1.0,-12197.0,-10051.0,4175.0,1117.0,-11.0,-8.0,-26.0,-22.0,-21.0,-8.0,-17.0,6.0,0.27498865127563477
137,-243.0,-88.0,-77.0,1.0,-12197.0,-10051.0,4175.0,1117.0,3.0,10.0,-19.0,-27.0,-25.0,-10.0,5.0,-13.0,0.27658724784851074
138,-243.0,-88.0,-77.0,1.0,-12197.0,-10051.0,4175.0,1117.0,20.0,18.0,24.0,20.0,3.0,28.0,8.0,-7.0,0.2783830165863037
139,-74.0,-246.0,-77.0,1.0,-12186.0,-10050.0,4195.0,1162.0,20.0,18.0,24.0,20.0,3.0,28.0,8.0,-7.0,0.2801535129547119
140,-74.0,-246.0,-77.0,1.0,-12186.0,-10050.0,4195.0,1162.0,-6.0,-11.0,5.0,3.0,1.0,-7.0,-4.0,-23.0,0.282015323638916
141,-74.0,-246.0,-77.0,1.0,-12186.0,-10050.0,4195.0,1162.0,-8.0,-13.0,-8.0,-1.0,9.0,-16.0,2.0,17.0,0.2837803363800049
142,118.0,-344.0,-111.0,1.0,-12160.0,-10061.0,4232.0,1206.0,-8.0,-13.0,-8.0,-1.0,9.0,-16.0,2.0,17.0,0.2857027053833008
143,118.0,-344.0,-111.0,1.0,-12160.0,-10061.0,4232.0,1206.0,-3.0,5.0,-5.0,-3.0,-9.0,-26.0,-11.0,-13.0,0.2894001007080078
144,118.0,-344.0,-111.0,1.0,-12160.0,-10061.0,4232.0,1206.0,6.0,2.0,2.0,11.0,6.0,16.0,13.0,13.0,0.2916579246520996
145,-182.0,-159.0,-207.0,1.0,-12177.0,-10036.0,4229.0,1256.0,6.0,2.0,2.0,11.0,6.0,16.0,13.0,13.0,0.29354166984558105
146,-182.0,-159.0,-207.0,1.0,-12177.0,-10036.0,4229.0,1256.0,15.0,7.0,14.0,9.0,-7.0,-38.0,-7.0,-13.0,0.2954528331756592
147,-182.0,-159.0,-207.0,1.0,-12177.0,-10036.0,4229.0,1256.0,19.0,7.0,12.0,9.0,3.0,1.0,3.0,2.0,0.2976808547973633
148,-492.0,-75.0,-195.0,1.0,-12251.0,-9948.0,4204.0,1310.0,19.0,7.0,12.0,9.0,3.0,1.0,3.0,2.0,0.30046749114990234
149,-492.0,-75.0,-195.0,1.0,-12251.0,-9948.0,4204.0,1310.0,-10.0,-1.0,10.0,7.0,-2.0,-5.0,-5.0,-6.0,0.3037288188934326
150,-492.0,-75.0,-195.0,1.0,-12251.0,-9948.0,4204.0,1310.0,-7.0,-13.0,-5.0,-6.0,0.0,11.0,4.0,4.0,0.306262731552124
151,-375.0,-28.0,-183.0,1.0,-12315.0,-9876.0,4173.0,1356.0,-7.0,-13.0,-5.0,-6.0,0.0,11.0,4.0,4.0,0.30823636054992676
152,-375.0,-28.0,-183.0,1.0,-12315.0,-9876.0,4173.0,1356.0,26.0,-2.0,7.0,3.0,-6.0,12.0,-13.0,-2.0,0.31043100357055664
153,-375.0,-28.0,-183.0,1.0,-12315.0,-9876.0,4173.0,1356.0,2.0,15.0,19.0,6.0,2.0,32.0,8.0,2.0,0.3125460147857666
154,-362.0,-10.0,-360.0,1.0,-12371.0,-9818.0,4121.0,1422.0,2.0,15.0,19.0,6.0,2.0,32.0,8.0,2.0,0.31462812423706055
155,-362.0,-10.0,-360.0,1.0,-12371.0,-9818.0,4121.0,1422.0,-24.0,-14.0,-10.0,-6.0,-6.0,-12.0,-12.0,-16.0,0.3165585994720459
156,-362.0,-10.0,-360.0,1.0,-12371.0,-9818.0,4121.0,1422.0,3.0,-3.0,-15.0,-3.0,2.0,-14.0,-1.0,10.0,0.3184666633605957
157,-481.0,-3.0,-657.0,1.0,-12425.0,-9766.0,4046.0,1527.0,3.0,-3.0,-15.0,-3.0,2.0,-14.0,-1.0,10.0,0.320326566696167
158,-481.0,-3.0,-657.0,1.0,-12425.0,-9766.0,4046.0,1527.0,-7.0,2.0,1.0,1.0,1.0,-9.0,-1.0,-11.0,0.322307825088501
159,-481.0,-3.0,-657.0,1.0,-12425.0,-9766.0,4046.0,1527.0,23.0,14.0,10.0,-3.0,1.0,-8.0,-3.0,4.0,0.3241841793060303
160,-642.0,44.0,-961.0,1.0,-12490.0,-9707.0,3928.0,1676.0,23.0,14.0,10.0,-3.0,1.0,-8.0,-3.0,4.0,0.32602453231811523
161,-642.0,44.0,-961.0,1.0,-12490.0,-9707.0,3928.0,1676.0,2.0,4.0,0.0,8.0,-3.0,3.0,3.0,-5.0,0.32805347442626953
162,-642.0,44.0,-961.0,1.0,-12490.0,-9707.0,3928.0,1676.0,-8.0,-2.0,-28.0,-10.0,-7.0,-22.0,-5.0,-3.0,0.33014512062072754
163,-814.0,76.0,-1287.0,1.0,-12559.0,-9645.0,3767.0,1876.0,-8.0,-2.0,-28.0,-10.0,-7.0,-22.0,-5.0,-3.0,0.33214473724365234
164,-814.0,76.0,-1287.0,1.0,-12559.0,-9645.0,3767.0,1876.0,4.0,6.0,14.0,8.0,1.0,-7.0,1.0,1.0,0.3350346088409424
165,-814.0,76.0,-1287.0,1.0,-12559.0,-9645.0,3767.0,1876.0,-22.0,-14.0,-9.0,-32.0,-2.0,-12.0,4.0,-2.0,0.3381633758544922
166,-1013.0,110.0,-1574.0,1.0,-12639.0,-9566.0,3562.0,2123.0,-22.0,-14.0,-9.0,-32.0,-2.0,-12.0,4.0,-2.0,0.34002685546875
167,-1013.0,110.0,-1574.0,1.0,-12639.0,-9566.0,3562.0,2123.0,-22.0,-14.0,-9.0,-32.0,-2.0,-12.0,4.0,-2.0,0.3419489860534668
168,-1013.0,110.0,-1574.0,1.0,-12639.0,-9566.0,3562.0,2123.0,-5.0,7.0,-21.0,-9.0,0.0,5.0,1.0,-2.0,0.34356117248535156
169,-1013.0,110.0,-1574.0,1.0,-12639.0,-9566.0,3562.0,2123.0,-12.0,-1.0,18.0,-3.0,-3.0,3.0,7.0,3.0,0.34534764289855957
170,-1166.0,138.0,-1872.0,1.0,-12720.0,-9478.0,3319.0,2412.0,-12.0,-1.0,18.0,-3.0,-3.0,3.0,7.0,3.0,0.34714794158935547
171,-1166.0,138.0,-1872.0,1.0,-12720.0,-9478.0,3319.0,2412.0,21.0,30.0,15.0,5.0,4.0,-6.0,-13.0,2.0,0.3490302562713623
172,-1166.0,138.0,-1872.0,1.0,-12720.0,-9478.0,3319.0,2412.0,-1.0,-5.0,-6.0,12.0,5.0,3.0,0.0,5.0,0.35086774826049805
173,-1325.0,98.0,-2099.0,1.0,-12799.0,-9371.0,3049.0,2743.0,-1.0,-5.0,-6.0,12.0,5.0,3.0,0.0,5.0,0.3526439666748047
174,-1325.0,98.0,-2099.0,1.0,-12799.0,-9371.0,3049.0,2743.0,-24.0,-14.0,-1.0,-1.0,-3.0,-3.0,3.0,0.0,0.3545064926147461
175,-1325.0,98.0,-2099.0,1.0,-12799.0,-9371.0,3049.0,2743.0,2.0,15.0,8.0,4.0,-2.0,1.0,0.0,3.0,0.35636019706726074
176,-1466.0,118.0,-2244.0,1.0,-12879.0,-9243.0,2754.0,3094.0,2.0,15.0,8.0,4.0,-2.0,1.0,0.0,3.0,0.35828256607055664
177,-1466.0,118.0,-2244.0,1.0,-12879.0,-9243.0,2754.0,3094.0,-3.0,16.0,-22.0,-10.0,-6.0,-2.0,-5.0,-3.0,0.3605210781097412
178,-1466.0,118.0,-2244.0,1.0,-12879.0,-9243.0,2754.0,3094.0,4.0,-14.0,-29.0,3.0,1.0,-1.0,-5.0,-3.0,0.36250972747802734
179,-1644.0,150.0,-2437.0,1.0,-12958.0,-9088.0,2428.0,3471.0,4.0,-14.0,-29.0,3.0,1.0,-1.0,-5.0,-3.0,0.36432814598083496
180,-1644.0,150.0,-2437.0,1.0,-12958.0,-9088.0,2428.0,3471.0,-1.0,-8.0,10.0,11.0,-3.0,2.0,4.0,-4.0,0.3662831783294678
181,-1644.0,150.0,-2437.0,1.0,-12958.0,-9088.0,2428.0,3471.0,14.0,-3.0,1.0,13.0,0.0,0.0,-1.0,8.0,0.3681526184082031
182,-1826.0,270.0,-2635.0,1.0,-13038.0,-8906.0,2059.0,3861.0,14.0,-3.0,1.0,13.0,0.0,0.0,-1.0,8.0,0.3699674606323242
183,-1826.0,270.0,-2635.0,1.0,-13038.0,-8906.0,2059.0,3861.0,-5.0,-3.0,9.0,20.0,-4.0,1.0,3.0,1.0,0.371875524520874
184,-1826.0,270.0,-2635.0,1.0,-13038.0,-8906.0,2059.0,3861.0,-2.0,5.0,-3.0,6.0,-1.0,-3.0,-7.0,-8.0,0.3738582134246826
185,-2004.0,289.0,-2818.0,1.0,-13111.0,-8691.0,1665.0,4272.0,-2.0,5.0,-3.0,6.0,-1.0,-3.0,-7.0,-8.0,0.3760247230529785
186,-2004.0,289.0,-2818.0,1.0,-13111.0,-8691.0,1665.0,4272.0,17.0,-10.0,14.0,17.0,2.0,1.0,-2.0,0.0,0.3782055377960205
187,-2004.0,289.0,-2818.0,1.0,-13111.0,-8691.0,1665.0,4272.0,-8.0,-11.0,-23.0,-8.0,2.0,-3.0,-1.0,-2.0,0.380054235458374
188,-2233.0,304.0,-3049.0,1.0,-13175.0,-8437.0,1238.0,4708.0,-8.0,-11.0,-23.0,-8.0,2.0,-3.0,-1.0,-2.0,0.39777064323425293
189,-2233.0,304.0,-3049.0,1.0,-13175.0,-8437.0,1238.0,4708.0,-1.0,-4.0,-7.0,-11.0,-4.0,-3.0,-4.0,-5.0,0.40131545066833496
190,-2233.0,304.0,-3049.0,1.0,-13175.0,-8437.0,1238.0,4708.0,4.0,11.0,-4.0,-17.0,-1.0,-3.0,1.0,3.0,0.4046924114227295
191,-2647.0,323.0,-3173.0,1.0,-13246.0,-8111.0,778.0,5156.0,4.0,11.0,-4.0,-17.0,-1.0,-3.0,1.0,3.0,0.4201531410217285
192,-2647.0,323.0,-3173.0,1.0,-13246.0,-8111.0,778.0,5156.0,-7.0,-16.0,-10.0,-14.0,-3.0,-2.0,2.0,-4.0,0.4246664047241211
193,-2647.0,323.0,-3173.0,1.0,-13246.0,-8111.0,778.0,5156.0,-8.0,-12.0,12.0,10.0,-3.0,-2.0,-3.0,-2.0,0.4286692142486572
194,-2898.0,388.0,-3254.0,1.0,-13309.0,-7737.0,287.0,5601.0,-8.0,-12.0,12.0,10.0,-3.0,-2.0,-3.0,-2.0,0.4315788745880127
195,-2898.0,388.0,-3254.0,1.0,-13309.0,-7737.0,287.0,5601.0,-2.0,-4.0,10.0,-3.0,1.0,1.0,1.0,-1.0,0.43343520164489746
196,-2898.0,388.0,-3254.0,1.0,-13309.0,-7737.0,287.0,5601.0,-7.0,-4.0,-3.0,-9.0,0.0,-2.0,-3.0,-3.0,0.4420959949493408
197,-3129.0,496.0,-3332.0,1.0,-13355.0,-7322.0,-240.0,6036.0,-7.0,-4.0,-3.0,-9.0,0.0,-2.0,-3.0,-3.0,0.4494011402130127
198,-3129.0,496.0,-3332.0,1.0,-13355.0,-7322.0,-240.0,6036.0,11.0,14.0,1.0,12.0,5.0,0.0,-1.0,0.0,0.45163607597351074
199,-3129.0,496.0,-3332.0,1.0,-13355.0,-7322.0,-240.0,6036.0,-3.0,-6.0,4.0,17.0,-4.0,-1.0,-2.0,-3.0,0.47318601608276367
200,-3318.0,547.0,-3321.0,1.0,-13383.0,-6865.0,-785.0,6450.0,-3.0,-6.0,4.0,17.0,-4.0,-1.0,-2.0,-3.0,0.4764213562011719
201,-3318.0,547.0,-3321.0,1.0,-13383.0,-6865.0,-785.0,6450.0,-9.0,-13.0,-11.0,-12.0,-1.0,-1.0,-3.0,-4.0,0.4793686866760254
202,-3318.0,547.0,-3321.0,1.0,-13383.0,-6865.0,-785.0,6450.0,1.0,1.0,15.0,6.0,1.0,-1.0,1.0,-1.0,0.49558043479919434
203,-3472.0,568.0,-3287.0,1.0,-13391.0,-6372.0,-1335.0,6838.0,1.0,1.0,15.0,6.0,1.0,-1.0,1.0,-1.0,0.49878668785095215
204,-3472.0,568.0,-3287.0,1.0,-13391.0,-6372.0,-1335.0,6838.0,-2.0,-5.0,-2.0,3.0,2.0,3.0,-1.0,-1.0,0.5025718212127686
205,-3472.0,568.0,-3287.0,1.0,-13391.0,-6372.0,-1335.0,6838.0,-2.0,-2.0,4.0,-3.0,-1.0,1.0,-3.0,-2.0,0.506303071975708
206,-3804.0,531.0,-3244.0,1.0,-13387.0,-5816.0,-1898.0,7198.0,-2.0,-2.0,4.0,-3.0,-1.0,1.0,-3.0,-2.0,0.5086932182312012
207,-3804.0,531.0,-3244.0,1.0,-13387.0,-5816.0,-1898.0,7198.0,-4.0,-2.0,-2.0,-7.0,2.0,-3.0,-1.0,-2.0,0.5111484527587891
208,-3804.0,531.0,-3244.0,1.0,-13387.0,-5816.0,-1898.0,7198.0,1.0,3.0,-4.0,-4.0,-6.0,-3.0,-2.0,0.0,0.5321230888366699
209,-4040.0,310.0,-3140.0,1.0,-13371.0,-5195.0,-2437.0,7532.0,1.0,3.0,-4.0,-4.0,-6.0,-3.0,-2.0,0.0,0.5342233180999756
210,-4040.0,310.0,-3140.0,1.0,-13371.0,-5195.0,-2437.0,7532.0,-3.0,-7.0,-8.0,-5.0,-2.0,-2.0,-1.0,-1.0,0.5375075340270996
211,-4040.0,310.0,-3140.0,1.0,-13371.0,-5195.0,-2437.0,7532.0,-2.0,-6.0,-14.0,-2.0,0.0,3.0,0.0,-1.0,0.5471553802490234
212,-4176.0,481.0,-3068.0,1.0,-13325.0,-4554.0,-2999.0,7820.0,-2.0,-6.0,-14.0,-2.0,0.0,3.0,0.0,-1.0,0.5495972633361816
213,-4176.0,481.0,-3068.0,1.0,-13325.0,-4554.0,-2999.0,7820.0,2.0,4.0,5.0,0.0,4.0,-3.0,-3.0,2.0,0.5540680885314941
214,-4176.0,481.0,-3068.0,1.0,-13325.0,-4554.0,-2999.0,7820.0,0.0,0.0,0.0,-4.0,-1.0,0.0,0.0,1.0,0.561180591583252
215,-4209.0,653.0,-3017.0,1.0,-13238.0,-3907.0,-3582.0,8069.0,0.0,0.0,0.0,-4.0,-1.0,0.0,0.0,1.0,0.569183349609375
216,-4209.0,653.0,-3017.0,1.0,-13238.0,-3907.0,-3582.0,8069.0,-3.0,-5.0,-1.0,-4.0,-9.0,-4.0,-1.0,-3.0,0.5710804462432861
217,-4209.0,653.0,-3017.0,1.0,-13238.0,-3907.0,-3582.0,8069.0,-1.0,1.0,3.0,-1.0,2.0,3.0,-1.0,0.0,0.5841991901397705
218,-4067.0,853.0,-2942.0,1.0,-13102.0,-3285.0,-4172.0,8282.0,-1.0,1.0,3.0,-1.0,2.0,3.0,-1.0,0.0,0.5992312431335449
219,-4067.0,853.0,-2942.0,1.0,-13102.0,-3285.0,-4172.0,8282.0,-1.0,1.0,4.0,-1.0,-1.0,6.0,3.0,-1.0,0.6011288166046143
220,-4067.0,853.0,-2942.0,1.0,-13102.0,-3285.0,-4172.0,8282.0,-1.0,1.0,5.0,0.0,3.0,-7.0,-2.0,-2.0,0.6069235801696777
221,-3857.0,1023.0,-2855.0,1.0,-12919.0,-2699.0,-4756.0,8464.0,-1.0,1.0,5.0,0.0,3.0,-7.0,-2.0,-2.0,0.6089887619018555
222,-3857.0,1023.0,-2855.0,1.0,-12919.0,-2699.0,-4756.0,8464.0,-2.0,2.0,-7.0,-6.0,-1.0,-5.0,-2.0,-1.0,0.6138889789581299
223,-3857.0,1023.0,-2855.0,1.0,-12919.0,-2699.0,-4756.0,8464.0,1.0,-1.0,0.0,1.0,0.0,-2.0,1.0,-1.0,0.6212682723999023
224,-3676.0,1172.0,-2746.0,1.0,-12698.0,-2145.0,-5330.0,8614.0,1.0,-1.0,0.0,1.0,0.0,-2.0,1.0,-1.0,0.6373662948608398
225,-3676.0,1172.0,-2746.0,1.0,-12698.0,-2145.0,-5330.0,8614.0,-3.0,-4.0,-3.0,-4.0,-1.0,2.0,0.0,0.0,0.6407327651977539
226,-3676.0,1172.0,-2746.0,1.0,-12698.0,-2145.0,-5330.0,8614.0,-1.0,0.0,4.0,11.0,9.0,4.0,-1.0,0.0,0.6432321071624756
227,-3391.0,1247.0,-2687.0,1.0,-12437.0,-1634.0,-5877.0,8750.0,-1.0,0.0,4.0,11.0,9.0,4.0,-1.0,0.0,0.6599593162536621
228,-3391.0,1247.0,-2687.0,1.0,-12437.0,-1634.0,-5877.0,8750.0,-3.0,-4.0,-4.0,5.0,-27.0,-3.0,-6.0,-3.0,0.663280725479126
229,-3391.0,1247.0,-2687.0,1.0,-12437.0,-1634.0,-5877.0,8750.0,0.0,2.0,5.0,45.0,-9.0,-8.0,-26.0,0.0,0.6674079895019531
230,-3032.0,1544.0,-2655.0,1.0,-12124.0,-1195.0,-6417.0,8879.0,0.0,2.0,5.0,45.0,-9.0,-8.0,-26.0,0.0,0.6709752082824707
231,-3032.0,1544.0,-2655.0,1.0,-12124.0,-1195.0,-6417.0,8879.0,1.0,5.0,18.0,101.0,66.0,25.0,13.0,4.0,0.6729395389556885
232,-3032.0,1544.0,-2655.0,1.0,-12124.0,-1195.0,-6417.0,8879.0,1.0,-7.0,-15.0,20.0,6.0,1.0,19.0,-2.0,0.6815793514251709
233,-2264.0,1787.0,-2665.0,1.0,-11758.0,-880.0,-6904.0,9041.0,1.0,-7.0,-15.0,20.0,6.0,1.0,19.0,-2.0,0.6987359523773193
234,-2264.0,1787.0,-2665.0,1.0,-11758.0,-880.0,-6904.0,9041.0,-14.0,-3.0,-15.0,-128.0,-25.0,1.0,3.0,-10.0,0.7059736251831055
235,-2264.0,1787.0,-2665.0,1.0,-11758.0,-880.0,-6904.0,9041.0,14.0,4.0,6.0,-32.0,17.0,12.0,41.0,8.0,0.7091460227966309
236,-1977.0,1622.0,-2718.0,1.0,-11371.0,-577.0,-7339.0,9217.0,14.0,4.0,6.0,-32.0,17.0,12.0,41.0,8.0,0.7116398811340332
237,-1977.0,1622.0,-2718.0,1.0,-11371.0,-577.0,-7339.0,9217.0,7.0,-1.0,-3.0,-36.0,-44.0,-9.0,4.0,1.0,0.7135581970214844
238,-1977.0,1622.0,-2718.0,1.0,-11371.0,-577.0,-7339.0,9217.0,-2.0,1.0,3.0,2.0,-14.0,-9.0,-11.0,-3.0,0.7267618179321289
239,-2705.0,1586.0,-2747.0,1.0,-10966.0,-169.0,-7827.0,9323.0,-2.0,1.0,3.0,2.0,-14.0,-9.0,-11.0,-3.0,0.7289321422576904
240,-2705.0,1586.0,-2747.0,1.0,-10966.0,-169.0,-7827.0,9323.0,-4.0,1.0,1.0,10.0,13.0,-3.0,-6.0,5.0,0.7329750061035156
241,-2705.0,1586.0,-2747.0,1.0,-10966.0,-169.0,-7827.0,9323.0,-8.0,-5.0,-7.0,-29.0,-23.0,19.0,-2.0,-5.0,0.7410149574279785
242,-2605.0,1659.0,-2765.0,1.0,-10531.0,220.0,-8289.0,9422.0,-8.0,-5.0,-7.0,-29.0,-23.0,19.0,-2.0,-5.0,0.7489769458770752
243,-2605.0,1659.0,-2765.0,1.0,-10531.0,220.0,-8289.0,9422.0,0.0,-4.0,-6.0,10.0,2.0,12.0,-3.0,1.0,0.7508673667907715
244,-2605.0,1659.0,-2765.0,1.0,-10531.0,220.0,-8289.0,9422.0,-1.0,1.0,-3.0,-2.0,-8.0,24.0,-1.0,-3.0,0.7642168998718262
