,Gyro 0,Gyro 1,Gyro 2,Label,Orientation 0,Orientation 1,Orientation 2,Orientation 3,Sensor 0,Sensor 1,Sensor 2,Sensor 3,Sensor 4,Sensor 5,Sensor 6,Sensor 7,Timestamp
0,-116.0,112.0,4.0,1.0,8892.0,11094.0,-8000.0,1515.0,-11.0,-9.0,-4.0,-1.0,2.0,3.0,1.0,-4.0,1.9073486328125e-06
1,-116.0,112.0,4.0,1.0,8892.0,11094.0,-8000.0,1515.0,2.0,-3.0,14.0,8.0,13.0,3.0,1.0,3.0,0.002850770950317383
2,-60.0,114.0,-5.0,1.0,8904.0,11086.0,-7994.0,1529.0,2.0,-3.0,14.0,8.0,13.0,3.0,1.0,3.0,0.00515437126159668
3,-60.0,114.0,-5.0,1.0,8904.0,11086.0,-7994.0,1529.0,6.0,1.0,-10.0,-6.0,-7.0,-6.0,-11.0,0.0,0.007972478866577148
4,-60.0,114.0,-5.0,1.0,8904.0,11086.0,-7994.0,1529.0,-3.0,-2.0,-7.0,-2.0,-4.0,-3.0,1.0,0.0,0.010309696197509766
5,-60.0,114.0,-5.0,1.0,8904.0,11086.0,-7994.0,1529.0,-6.0,-18.0,1.0,-2.0,15.0,-5.0,-19.0,-4.0,0.01256871223449707
6,-60.0,114.0,-5.0,1.0,8904.0,11086.0,-7994.0,1529.0,1.0,-6.0,-4.0,-1.0,5.0,1.0,-2.0,-5.0,0.014836311340332031
7,54.0,97.0,1.0,1.0,8904.0,11089.0,-7982.0,1572.0,1.0,-6.0,-4.0,-1.0,5.0,1.0,-2.0,-5.0,0.017201900482177734
8,54.0,97.0,1.0,1.0,8904.0,11089.0,-7982.0,1572.0,-2.0,10.0,14.0,2.0,5.0,10.0,13.0,-1.0,0.01963949203491211
9,54.0,97.0,1.0,1.0,8904.0,11089.0,-7982.0,1572.0,-5.0,-8.0,0.0,-5.0,-15.0,-10.0,-14.0,-4.0,0.022257566452026367
10,38.0,88.0,17.0,1.0,8906.0,11088.0,-7977.0,1591.0,-5.0,-8.0,0.0,-5.0,-15.0,-10.0,-14.0,-4.0,0.024970054626464844
11,38.0,88.0,17.0,1.0,8906.0,11088.0,-7977.0,1591.0,10.0,10.0,0.0,-3.0,-4.0,0.0,1.0,2.0,0.027724742889404297
12,38.0,88.0,17.0,1.0,8906.0,11088.0,-7977.0,1591.0,-4.0,9.0,4.0,-2.0,-5.0,-2.0,2.0,-3.0,0.030008554458618164
13,7.0,76.0,47.0,1.0,8908.0,11083.0,-7978.0,1609.0,-4.0,9.0,4.0,-2.0,-5.0,-2.0,2.0,-3.0,0.03234577178955078
14,7.0,76.0,47.0,1.0,8908.0,11083.0,-7978.0,1609.0,-4.0,-1.0,23.0,5.0,-10.0,-6.0,-6.0,-5.0,0.034688711166381836
15,7.0,76.0,47.0,1.0,8908.0,11083.0,-7978.0,1609.0,-6.0,0.0,-9.0,-4.0,-3.0,0.0,2.0,-2.0,0.036952972412109375
16,-9.0,71.0,72.0,1.0,8911.0,11074.0,-7983.0,1627.0,-6.0,0.0,-9.0,-4.0,-3.0,0.0,2.0,-2.0,0.039298295974731445
17,-9.0,71.0,72.0,1.0,8911.0,11074.0,-7983.0,1627.0,5.0,-5.0,-18.0,-1.0,-16.0,-3.0,12.0,-3.0,0.04171037673950195
18,-9.0,71.0,72.0,1.0,8911.0,11074.0,-7983.0,1627.0,3.0,-9.0,-13.0,-2.0,-10.0,-1.0,-9.0,1.0,0.04397988319396973
19,-12.0,60.0,92.0,1.0,8913.0,11064.0,-7991.0,1645.0,3.0,-9.0,-13.0,-2.0,-10.0,-1.0,-9.0,1.0,0.04629707336425781
20,-12.0,60.0,92.0,1.0,8913.0,11064.0,-7991.0,1645.0,8.0,19.0,8.0,-1.0,14.0,-1.0,0.0,7.0,0.048694610595703125
21,-12.0,60.0,92.0,1.0,8913.0,11064.0,-7991.0,1645.0,-2.0,3.0,2.0,1.0,1.0,3.0,5.0,0.0,0.05095958709716797
22,-39.0,57.0,104.0,1.0,8917.0,11051.0,-8002.0,1662.0,-2.0,3.0,2.0,1.0,1.0,3.0,5.0,0.0,0.05327796936035156
23,-39.0,57.0,104.0,1.0,8917.0,11051.0,-8002.0,1662.0,4.0,-5.0,6.0,0.0,-2.0,4.0,4.0,0.0,0.05637717247009277
24,-39.0,57.0,104.0,1.0,8917.0,11051.0,-8002.0,1662.0,2.0,4.0,7.0,1.0,5.0,4.0,8.0,1.0,0.05909132957458496
25,-26.0,45.0,102.0,1.0,8919.0,11037.0,-8014.0,1680.0,2.0,4.0,7.0,1.0,5.0,4.0,8.0,1.0,0.061403512954711914
26,-26.0,45.0,102.0,1.0,8919.0,11037.0,-8014.0,1680.0,-10.0,-19.0,-12.0,0.0,-21.0,-13.0,-8.0,-4.0,0.06387639045715332
27,-26.0,45.0,102.0,1.0,8919.0,11037.0,-8014.0,1680.0,-6.0,-4.0,1.0,2.0,1.0,1.0,-3.0,-4.0,0.06617331504821777
28,-16.0,40.0,91.0,1.0,8920.0,11026.0,-8025.0,1697.0,-6.0,-4.0,1.0,2.0,1.0,1.0,-3.0,-4.0,0.06851339340209961
29,-16.0,40.0,91.0,1.0,8920.0,11026.0,-8025.0,1697.0,16.0,27.0,-6.0,0.0,-4.0,6.0,16.0,14.0,0.07092833518981934
30,-16.0,40.0,91.0,1.0,8920.0,11026.0,-8025.0,1697.0,8.0,12.0,-2.0,-1.0,-26.0,-5.0,-4.0,4.0,0.07319402694702148
31,8.0,45.0,76.0,1.0,8919.0,11019.0,-8033.0,1715.0,8.0,12.0,-2.0,-1.0,-26.0,-5.0,-4.0,4.0,0.07553553581237793
32,8.0,45.0,76.0,1.0,8919.0,11019.0,-8033.0,1715.0,-14.0,-16.0,1.0,-2.0,8.0,-3.0,-10.0,-9.0,0.07792353630065918
33,8.0,45.0,76.0,1.0,8919.0,11019.0,-8033.0,1715.0,-4.0,-5.0,-3.0,2.0,14.0,1.0,0.0,-1.0,0.0802614688873291
34,32.0,41.0,54.0,1.0,8915.0,11016.0,-8037.0,1730.0,-4.0,-5.0,-3.0,2.0,14.0,1.0,0.0,-1.0,0.08253121376037598
35,32.0,41.0,54.0,1.0,8915.0,11016.0,-8037.0,1730.0,-24.0,-27.0,5.0,4.0,7.0,7.0,-3.0,-16.0,0.08526992797851562
36,32.0,41.0,54.0,1.0,8915.0,11016.0,-8037.0,1730.0,20.0,36.0,-16.0,-1.0,-4.0,-15.0,-1.0,10.0,0.0879964828491211
37,33.0,43.0,43.0,1.0,8913.0,11014.0,-8039.0,1745.0,20.0,36.0,-16.0,-1.0,-4.0,-15.0,-1.0,10.0,0.09061145782470703
38,33.0,43.0,43.0,1.0,8913.0,11014.0,-8039.0,1745.0,2.0,1.0,-17.0,-1.0,5.0,-4.0,-15.0,-5.0,0.09306192398071289
39,33.0,43.0,43.0,1.0,8913.0,11014.0,-8039.0,1745.0,-12.0,-21.0,3.0,-1.0,2.0,5.0,5.0,-7.0,0.09534430503845215
40,41.0,31.0,32.0,1.0,8909.0,11014.0,-8040.0,1757.0,-12.0,-21.0,3.0,-1.0,2.0,5.0,5.0,-7.0,0.09760737419128418
41,41.0,31.0,32.0,1.0,8909.0,11014.0,-8040.0,1757.0,-9.0,1.0,-11.0,-8.0,-5.0,-1.0,-1.0,-1.0,0.09999799728393555
42,41.0,31.0,32.0,1.0,8909.0,11014.0,-8040.0,1757.0,0.0,-1.0,11.0,2.0,6.0,-2.0,-12.0,-3.0,0.10234308242797852
43,19.0,39.0,26.0,1.0,8909.0,11012.0,-8041.0,1769.0,0.0,-1.0,11.0,2.0,6.0,-2.0,-12.0,-3.0,0.10461020469665527
44,19.0,39.0,26.0,1.0,8909.0,11012.0,-8041.0,1769.0,29.0,32.0,24.0,4.0,0.0,-1.0,7.0,11.0,0.10695028305053711
45,19.0,39.0,26.0,1.0,8909.0,11012.0,-8041.0,1769.0,-1.0,-6.0,8.0,-2.0,-1.0,2.0,7.0,4.0,0.10929703712463379
46,46.0,34.0,27.0,1.0,8903.0,11013.0,-8043.0,1784.0,-1.0,-6.0,8.0,-2.0,-1.0,2.0,7.0,4.0,0.11156034469604492
47,46.0,34.0,27.0,1.0,8903.0,11013.0,-8043.0,1784.0,-13.0,-15.0,-4.0,-6.0,13.0,-1.0,4.0,-8.0,0.11391019821166992
48,46.0,34.0,27.0,1.0,8903.0,11013.0,-8043.0,1784.0,-5.0,3.0,6.0,3.0,21.0,8.0,-11.0,-5.0,0.11636114120483398
49,27.0,26.0,25.0,1.0,8900.0,11012.0,-8045.0,1796.0,-5.0,3.0,6.0,3.0,21.0,8.0,-11.0,-5.0,0.11911416053771973
50,27.0,26.0,25.0,1.0,8900.0,11012.0,-8045.0,1796.0,5.0,14.0,12.0,1.0,-10.0,-3.0,1.0,3.0,0.12172746658325195
51,27.0,26.0,25.0,1.0,8900.0,11012.0,-8045.0,1796.0,-1.0,-5.0,4.0,0.0,12.0,-1.0,6.0,-5.0,0.12416481971740723
52,12.0,29.0,22.0,1.0,8898.0,11009.0,-8048.0,1808.0,-1.0,-5.0,4.0,0.0,12.0,-1.0,6.0,-5.0,0.12648224830627441
53,12.0,29.0,22.0,1.0,8898.0,11009.0,-8048.0,1808.0,9.0,14.0,-3.0,0.0,-13.0,-1.0,2.0,12.0,0.12883543968200684
54,12.0,29.0,22.0,1.0,8898.0,11009.0,-8048.0,1808.0,-6.0,-11.0,-3.0,0.0,-1.0,1.0,1.0,-1.0,0.1312248706817627
55,38.0,15.0,32.0,1.0,8892.0,11009.0,-8053.0,1820.0,-6.0,-11.0,-3.0,0.0,-1.0,1.0,1.0,-1.0,0.13353681564331055
56,38.0,15.0,32.0,1.0,8892.0,11009.0,-8053.0,1820.0,-7.0,-9.0,-3.0,-2.0,2.0,0.0,-4.0,-4.0,0.13590168952941895
57,38.0,15.0,32.0,1.0,8892.0,11009.0,-8053.0,1820.0,-9.0,-12.0,-5.0,-4.0,-5.0,1.0,3.0,-5.0,0.13819336891174316
58,24.0,16.0,37.0,1.0,8889.0,11006.0,-8057.0,1832.0,-9.0,-12.0,-5.0,-4.0,-5.0,1.0,3.0,-5.0,0.14057707786560059
59,24.0,16.0,37.0,1.0,8889.0,11006.0,-8057.0,1832.0,-2.0,-15.0,-34.0,-1.0,13.0,-6.0,-5.0,-4.0,0.1429433822631836
60,24.0,16.0,37.0,1.0,8889.0,11006.0,-8057.0,1832.0,30.0,45.0,0.0,-4.0,-18.0,-6.0,1.0,14.0,0.1452338695526123
61,24.0,19.0,41.0,1.0,8888.0,11003.0,-8061.0,1842.0,30.0,45.0,0.0,-4.0,-18.0,-6.0,1.0,14.0,0.147658109664917
62,24.0,19.0,41.0,1.0,8888.0,11003.0,-8061.0,1842.0,-10.0,-10.0,0.0,-1.0,11.0,6.0,1.0,-3.0,0.15053176879882812
63,24.0,19.0,41.0,1.0,8888.0,11003.0,-8061.0,1842.0,-13.0,-21.0,-2.0,-1.0,-3.0,0.0,-1.0,-7.0,0.15314912796020508
64,29.0,4.0,43.0,1.0,8885.0,11000.0,-8065.0,1851.0,-13.0,-21.0,-2.0,-1.0,-3.0,0.0,-1.0,-7.0,0.1555020809173584
65,29.0,4.0,43.0,1.0,8885.0,11000.0,-8065.0,1851.0,-9.0,-2.0,14.0,1.0,-20.0,-4.0,-2.0,-10.0,0.15784645080566406
66,29.0,4.0,43.0,1.0,8885.0,11000.0,-8065.0,1851.0,5.0,7.0,-13.0,-4.0,11.0,-2.0,-16.0,1.0,0.1601252555847168
67,9.0,11.0,49.0,1.0,8885.0,10996.0,-8069.0,1859.0,5.0,7.0,-13.0,-4.0,11.0,-2.0,-16.0,1.0,0.16256213188171387
68,9.0,11.0,49.0,1.0,8885.0,10996.0,-8069.0,1859.0,5.0,14.0,4.0,3.0,-10.0,5.0,7.0,3.0,0.16497397422790527
69,9.0,11.0,49.0,1.0,8885.0,10996.0,-8069.0,1859.0,-13.0,-2.0,12.0,2.0,-2.0,-2.0,-21.0,-6.0,0.16724681854248047
70,-8.0,19.0,57.0,1.0,8887.0,10991.0,-8073.0,1864.0,-13.0,-2.0,12.0,2.0,-2.0,-2.0,-21.0,-6.0,0.16959047317504883
71,-8.0,19.0,57.0,1.0,8887.0,10991.0,-8073.0,1864.0,1.0,-4.0,-16.0,-7.0,-9.0,3.0,15.0,6.0,0.1719956398010254
72,-8.0,19.0,57.0,1.0,8887.0,10991.0,-8073.0,1864.0,5.0,-5.0,-2.0,6.0,2.0,0.0,5.0,2.0,0.17427825927734375
73,-11.0,18.0,59.0,1.0,8888.0,10984.0,-8079.0,1871.0,5.0,-5.0,-2.0,6.0,2.0,0.0,5.0,2.0,0.1765587329864502
74,-11.0,18.0,59.0,1.0,8888.0,10984.0,-8079.0,1871.0,2.0,-9.0,-2.0,-3.0,-6.0,-5.0,-19.0,-5.0,0.17922115325927734
75,-11.0,18.0,59.0,1.0,8888.0,10984.0,-8079.0,1871.0,-11.0,-24.0,-11.0,-5.0,-5.0,-5.0,1.0,-3.0,0.1818981170654297
76,2.0,5.0,57.0,1.0,8888.0,10980.0,-8084.0,1875.0,-11.0,-24.0,-11.0,-5.0,-5.0,-5.0,1.0,-3.0,0.18443894386291504
77,2.0,5.0,57.0,1.0,8888.0,10980.0,-8084.0,1875.0,5.0,9.0,6.0,-2.0,4.0,-1.0,2.0,0.0,0.18693256378173828
78,2.0,5.0,57.0,1.0,8888.0,10980.0,-8084.0,1875.0,0.0,-17.0,-20.0,-2.0,-13.0,-3.0,18.0,-4.0,0.18920207023620605
79,-16.0,-8.0,58.0,1.0,8887.0,10975.0,-8091.0,1875.0,0.0,-17.0,-20.0,-2.0,-13.0,-3.0,18.0,-4.0,0.19151616096496582
80,-16.0,-8.0,58.0,1.0,8887.0,10975.0,-8091.0,1875.0,0.0,-13.0,-4.0,-1.0,-6.0,4.0,6.0,8.0,0.19408702850341797
81,-16.0,-8.0,58.0,1.0,8887.0,10975.0,-8091.0,1875.0,1.0,4.0,24.0,3.0,15.0,-2.0,-9.0,1.0,0.19641375541687012
82,-32.0,-7.0,56.0,1.0,8889.0,10969.0,-8099.0,1876.0,1.0,4.0,24.0,3.0,15.0,-2.0,-9.0,1.0,0.19875001907348633
83,-32.0,-7.0,56.0,1.0,8889.0,10969.0,-8099.0,1876.0,-3.0,1.0,6.0,7.0,-1.0,-5.0,4.0,-4.0,0.2012004852294922
84,-32.0,-7.0,56.0,1.0,8889.0,10969.0,-8099.0,1876.0,-3.0,1.0,-14.0,-2.0,12.0,1.0,-3.0,0.0,0.20409512519836426
85,-33.0,-22.0,56.0,1.0,8888.0,10963.0,-8107.0,1873.0,-3.0,1.0,-14.0,-2.0,12.0,1.0,-3.0,0.0,0.206681489944458
86,-33.0,-22.0,56.0,1.0,8888.0,10963.0,-8107.0,1873.0,0.0,-4.0,-4.0,-3.0,-6.0,-4.0,-13.0,-1.0,0.2090928554534912
87,-33.0,-22.0,56.0,1.0,8888.0,10963.0,-8107.0,1873.0,-1.0,-2.0,-1.0,-1.0,4.0,1.0,-1.0,2.0,0.2117328643798828
88,-50.0,-30.0,53.0,1.0,8892.0,10954.0,-8116.0,1868.0,-1.0,-2.0,-1.0,-1.0,4.0,1.0,-1.0,2.0,0.21456170082092285
89,-50.0,-30.0,53.0,1.0,8892.0,10954.0,-8116.0,1868.0,-14.0,-12.0,-2.0,1.0,14.0,-1.0,1.0,-3.0,0.2170872688293457
90,-50.0,-30.0,53.0,1.0,8892.0,10954.0,-8116.0,1868.0,9.0,2.0,7.0,-2.0,-10.0,0.0,-1.0,3.0,0.2194070816040039
91,-61.0,-33.0,47.0,1.0,8895.0,10945.0,-8126.0,1863.0,9.0,2.0,7.0,-2.0,-10.0,0.0,-1.0,3.0,0.22174072265625
92,-61.0,-33.0,47.0,1.0,8895.0,10945.0,-8126.0,1863.0,11.0,5.0,-17.0,-5.0,-2.0,1.0,1.0,1.0,0.2241506576538086
93,-61.0,-33.0,47.0,1.0,8895.0,10945.0,-8126.0,1863.0,-11.0,-3.0,6.0,-1.0,-7.0,-1.0,3.0,-4.0,0.22644853591918945
94,-64.0,-30.0,39.0,1.0,8897.0,10937.0,-8136.0,1858.0,-11.0,-3.0,6.0,-1.0,-7.0,-1.0,3.0,-4.0,0.2287149429321289
95,-64.0,-30.0,39.0,1.0,8897.0,10937.0,-8136.0,1858.0,0.0,-3.0,-3.0,1.0,4.0,-2.0,1.0,-1.0,0.23111319541931152
96,-64.0,-30.0,39.0,1.0,8897.0,10937.0,-8136.0,1858.0,-7.0,0.0,-7.0,-4.0,-5.0,1.0,3.0,-4.0,0.23340868949890137
97,-68.0,-28.0,40.0,1.0,8900.0,10928.0,-8146.0,1853.0,-7.0,0.0,-7.0,-4.0,-5.0,1.0,3.0,-4.0,0.23572468757629395
98,-68.0,-28.0,40.0,1.0,8900.0,10928.0,-8146.0,1853.0,34.0,45.0,12.0,-4.0,6.0,5.0,-20.0,10.0,0.23809313774108887
99,-68.0,-28.0,40.0,1.0,8900.0,10928.0,-8146.0,1853.0,14.0,12.0,-3.0,-6.0,-30.0,-8.0,3.0,1.0,0.2404770851135254
100,-36.0,-28.0,38.0,1.0,8900.0,10922.0,-8155.0,1851.0,14.0,12.0,-3.0,-6.0,-30.0,-8.0,3.0,1.0,0.2431936264038086
101,-36.0,-28.0,38.0,1.0,8900.0,10922.0,-8155.0,1851.0,-16.0,-12.0,0.0,3.0,-3.0,-1.0,1.0,-11.0,0.24599599838256836
102,-36.0,-28.0,38.0,1.0,8900.0,10922.0,-8155.0,1851.0,-2.0,-3.0,-6.0,3.0,11.0,3.0,9.0,2.0,0.248399019241333
103,-31.0,-29.0,34.0,1.0,8900.0,10917.0,-8163.0,1848.0,-2.0,-3.0,-6.0,3.0,11.0,3.0,9.0,2.0,0.2507040500640869
104,-31.0,-29.0,34.0,1.0,8900.0,10917.0,-8163.0,1848.0,-6.0,-11.0,-2.0,-2.0,-2.0,0.0,-3.0,-3.0,0.25303030014038086
105,-31.0,-29.0,34.0,1.0,8900.0,10917.0,-8163.0,1848.0,-23.0,-10.0,19.0,8.0,2.0,-3.0,-1.0,-7.0,0.260847806930542
106,-51.0,-18.0,38.0,1.0,8903.0,10909.0,-8170.0,1845.0,-23.0,-10.0,19.0,8.0,2.0,-3.0,-1.0,-7.0,0.2631244659423828
107,-51.0,-18.0,38.0,1.0,8903.0,10909.0,-8170.0,1845.0,7.0,20.0,12.0,1.0,4.0,-2.0,4.0,15.0,0.26833081245422363
108,-51.0,-18.0,38.0,1.0,8903.0,10909.0,-8170.0,1845.0,7.0,2.0,-14.0,2.0,17.0,6.0,14.0,2.0,0.2852349281311035
109,-26.0,-19.0,42.0,1.0,8902.0,10904.0,-8178.0,1845.0,7.0,2.0,-14.0,2.0,17.0,6.0,14.0,2.0,0.28923702239990234
110,-26.0,-19.0,42.0,1.0,8902.0,10904.0,-8178.0,1845.0,-11.0,-10.0,7.0,-1.0,-14.0,-12.0,-5.0,-12.0,0.2933166027069092
111,-26.0,-19.0,42.0,1.0,8902.0,10904.0,-8178.0,1845.0,-14.0,-10.0,15.0,-2.0,-5.0,1.0,-7.0,-8.0,0.30826640129089355
112,-29.0,-11.0,42.0,1.0,8903.0,10898.0,-8185.0,1844.0,-14.0,-10.0,15.0,-2.0,-5.0,1.0,-7.0,-8.0,0.31360864639282227
113,-29.0,-11.0,42.0,1.0,8903.0,10898.0,-8185.0,1844.0,2.0,-9.0,-21.0,-2.0,-6.0,-1.0,5.0,0.0,0.3186178207397461
114,-29.0,-11.0,42.0,1.0,8903.0,10898.0,-8185.0,1844.0,13.0,6.0,-9.0,-3.0,-3.0,2.0,10.0,8.0,0.3212285041809082
115,-29.0,-4.0,40.0,1.0,8904.0,10894.0,-8189.0,1842.0,13.0,6.0,-9.0,-3.0,-3.0,2.0,10.0,8.0,0.3237919807434082
116,-29.0,-4.0,40.0,1.0,8904.0,10894.0,-8189.0,1842.0,-11.0,-16.0,-19.0,-5.0,1.0,3.0,0.0,-6.0,0.3283979892730713
117,-29.0,-4.0,40.0,1.0,8904.0,10894.0,-8189.0,1842.0,-3.0,-8.0,-15.0,2.0,11.0,-3.0,-19.0,-7.0,0.345705509185791
118,-36.0,-3.0,41.0,1.0,8907.0,10888.0,-8195.0,1841.0,-3.0,-8.0,-15.0,2.0,11.0,-3.0,-19.0,-7.0,0.35050249099731445
119,-36.0,-3.0,41.0,1.0,8907.0,10888.0,-8195.0,1841.0,-3.0,2.0,9.0,-1.0,-26.0,-7.0,-2.0,5.0,0.3552711009979248
120,-36.0,-3.0,41.0,1.0,8907.0,10888.0,-8195.0,1841.0,7.0,2.0,-12.0,-5.0,2.0,3.0,4.0,5.0,0.367077112197876
121,-35.0,1.0,40.0,1.0,8910.0,10882.0,-8199.0,1840.0,7.0,2.0,-12.0,-5.0,2.0,3.0,4.0,5.0,0.37198567390441895
122,-35.0,1.0,40.0,1.0,8910.0,10882.0,-8199.0,1840.0,-4.0,1.0,0.0,0.0,15.0,1.0,3.0,-4.0,0.3769536018371582
123,-35.0,1.0,40.0,1.0,8910.0,10882.0,-8199.0,1840.0,-1.0,10.0,20.0,-1.0,-5.0,-1.0,-2.0,-4.0,0.3812692165374756
124,-34.0,4.0,39.0,1.0,8913.0,10877.0,-8203.0,1839.0,-1.0,10.0,20.0,-1.0,-5.0,-1.0,-2.0,-4.0,0.3836681842803955
125,-34.0,4.0,39.0,1.0,8913.0,10877.0,-8203.0,1839.0,13.0,2.0,-21.0,-1.0,12.0,1.0,3.0,4.0,0.3884463310241699
126,-34.0,4.0,39.0,1.0,8913.0,10877.0,-8203.0,1839.0,-4.0,-8.0,-14.0,-3.0,7.0,1.0,3.0,-4.0,0.40617847442626953
127,-25.0,12.0,39.0,1.0,8915.0,10873.0,-8206.0,1839.0,-4.0,-8.0,-14.0,-3.0,7.0,1.0,3.0,-4.0,0.4106583595275879
128,-25.0,12.0,39.0,1.0,8915.0,10873.0,-8206.0,1839.0,-9.0,-1.0,7.0,-1.0,0.0,0.0,7.0,-5.0,0.41498565673828125
129,-25.0,12.0,39.0,1.0,8915.0,10873.0,-8206.0,1839.0,4.0,4.0,9.0,4.0,7.0,-2.0,-4.0,0.0,0.42614030838012695
130,-24.0,8.0,34.0,1.0,8917.0,10870.0,-8209.0,1837.0,4.0,4.0,9.0,4.0,7.0,-2.0,-4.0,0.0,0.4343705177307129
131,-24.0,8.0,34.0,1.0,8917.0,10870.0,-8209.0,1837.0,1.0,12.0,9.0,-1.0,-26.0,-4.0,2.0,3.0,0.43723320960998535
132,-24.0,8.0,34.0,1.0,8917.0,10870.0,-8209.0,1837.0,-3.0,8.0,9.0,-2.0,-18.0,-1.0,-1.0,0.0,0.4495999813079834
133,-26.0,-2.0,31.0,1.0,8917.0,10867.0,-8213.0,1835.0,-3.0,8.0,9.0,-2.0,-18.0,-1.0,-1.0,0.0,0.45204687118530273
134,-26.0,-2.0,31.0,1.0,8917.0,10867.0,-8213.0,1835.0,-6.0,-10.0,-4.0,0.0,21.0,-2.0,-23.0,-8.0,0.45476484298706055
135,-26.0,-2.0,31.0,1.0,8917.0,10867.0,-8213.0,1835.0,-2.0,-10.0,-8.0,-1.0,4.0,-2.0,0.0,3.0,0.46429991722106934
136,-28.0,-9.0,20.0,1.0,8918.0,10865.0,-8216.0,1830.0,-2.0,-10.0,-8.0,-1.0,4.0,-2.0,0.0,3.0,0.47120189666748047
137,-28.0,-9.0,20.0,1.0,8918.0,10865.0,-8216.0,1830.0,-4.0,-7.0,0.0,-5.0,-6.0,2.0,6.0,-2.0,0.4735720157623291
138,-28.0,-9.0,20.0,1.0,8918.0,10865.0,-8216.0,1830.0,12.0,15.0,13.0,-1.0,0.0,-3.0,5.0,3.0,0.49557065963745117
139,-25.0,-12.0,14.0,1.0,8918.0,10864.0,-8219.0,1825.0,12.0,15.0,13.0,-1.0,0.0,-3.0,5.0,3.0,0.5018820762634277
140,-25.0,-12.0,14.0,1.0,8918.0,10864.0,-8219.0,1825.0,4.0,5.0,10.0,1.0,10.0,2.0,9.0,3.0,0.506828784942627
141,-25.0,-12.0,14.0,1.0,8918.0,10864.0,-8219.0,1825.0,-13.0,-13.0,-6.0,-2.0,-6.0,-3.0,-7.0,-10.0,0.5097031593322754
142,-12.0,-14.0,7.0,1.0,8917.0,10864.0,-8218.0,1824.0,-13.0,-13.0,-6.0,-2.0,-6.0,-3.0,-7.0,-10.0,0.5119903087615967
143,-12.0,-14.0,7.0,1.0,8917.0,10864.0,-8218.0,1824.0,4.0,-5.0,1.0,2.0,1.0,1.0,4.0,2.0,0.5153183937072754
144,-12.0,-14.0,7.0,1.0,8917.0,10864.0,-8218.0,1824.0,-9.0,-9.0,16.0,2.0,-11.0,-7.0,4.0,-5.0,0.5241298675537109
145,-4.0,-15.0,5.0,1.0,8917.0,10865.0,-8218.0,1823.0,-9.0,-9.0,16.0,2.0,-11.0,-7.0,4.0,-5.0,0.526531457901001
146,-4.0,-15.0,5.0,1.0,8917.0,10865.0,-8218.0,1823.0,-5.0,0.0,-4.0,2.0,4.0,5.0,3.0,-2.0,0.5312352180480957
147,-4.0,-15.0,5.0,1.0,8917.0,10865.0,-8218.0,1823.0,-2.0,-5.0,-13.0,-2.0,1.0,4.0,-2.0,-8.0,0.5463714599609375
148,-4.0,-17.0,4.0,1.0,8916.0,10867.0,-8219.0,1817.0,-2.0,-5.0,-13.0,-2.0,1.0,4.0,-2.0,-8.0,0.54864501953125
149,-4.0,-17.0,4.0,1.0,8916.0,10867.0,-8219.0,1817.0,5.0,5.0,-15.0,-3.0,-4.0,-5.0,-7.0,4.0,0.5535047054290771
150,-4.0,-17.0,4.0,1.0,8916.0,10867.0,-8219.0,1817.0,-2.0,13.0,6.0,-4.0,-24.0,-4.0,-15.0,-1.0,0.569403886795044
151,-5.0,-14.0,1.0,1.0,8915.0,10867.0,-8218.0,1816.0,-2.0,13.0,6.0,-4.0,-24.0,-4.0,-15.0,-1.0,0.5716686248779297
152,-5.0,-14.0,1.0,1.0,8915.0,10867.0,-8218.0,1816.0,-2.0,-11.0,8.0,2.0,-4.0,-2.0,-1.0,-2.0,0.5741081237792969
153,-5.0,-14.0,1.0,1.0,8915.0,10867.0,-8218.0,1816.0,6.0,11.0,-13.0,-9.0,7.0,1.0,3.0,5.0,0.5924718379974365
154,-1.0,-15.0,0.0,1.0,8915.0,10868.0,-8218.0,1815.0,6.0,11.0,-13.0,-9.0,7.0,1.0,3.0,5.0,0.5950398445129395
155,-1.0,-15.0,0.0,1.0,8915.0,10868.0,-8218.0,1815.0,-8.0,-1.0,13.0,3.0,1.0,1.0,-4.0,-3.0,0.5975420475006104
156,-1.0,-15.0,0.0,1.0,8915.0,10868.0,-8218.0,1815.0,-5.0,-9.0,2.0,-1.0,-8.0,-3.0,-2.0,-3.0,0.6068089008331299
157,-10.0,-11.0,-1.0,1.0,8915.0,10868.0,-8218.0,1814.0,-5.0,-9.0,2.0,-1.0,-8.0,-3.0,-2.0,-3.0,0.6091017723083496
158,-10.0,-11.0,-1.0,1.0,8915.0,10868.0,-8218.0,1814.0,5.0,7.0,-7.0,-8.0,1.0,0.0,0.0,2.0,0.6135015487670898
159,-10.0,-11.0,-1.0,1.0,8915.0,10868.0,-8218.0,1814.0,4.0,5.0,14.0,7.0,6.0,5.0,-1.0,-3.0,0.6299622058868408
160,-29.0,-7.0,0.0,1.0,8918.0,10868.0,-8217.0,1806.0,4.0,5.0,14.0,7.0,6.0,5.0,-1.0,-3.0,0.6324071884155273
161,-29.0,-7.0,0.0,1.0,8918.0,10868.0,-8217.0,1806.0,-2.0,-8.0,0.0,-2.0,-28.0,-4.0,-6.0,-2.0,0.634751558303833
162,-29.0,-7.0,0.0,1.0,8918.0,10868.0,-8217.0,1806.0,-2.0,-7.0,5.0,2.0,6.0,-1.0,-1.0,-1.0,0.6520199775695801
163,-39.0,-8.0,5.0,1.0,8921.0,10866.0,-8218.0,1799.0,-2.0,-7.0,5.0,2.0,6.0,-1.0,-1.0,-1.0,0.6543352603912354
164,-39.0,-8.0,5.0,1.0,8921.0,10866.0,-8218.0,1799.0,-1.0,2.0,11.0,5.0,18.0,2.0,14.0,-1.0,0.6572411060333252
165,-39.0,-8.0,5.0,1.0,8921.0,10866.0,-8218.0,1799.0,1.0,5.0,9.0,1.0,-9.0,-8.0,-8.0,0.0,0.6666767597198486
166,-42.0,-3.0,7.0,1.0,8925.0,10862.0,-8219.0,1794.0,1.0,5.0,9.0,1.0,-9.0,-8.0,-8.0,0.0,0.669022798538208
167,-42.0,-3.0,7.0,1.0,8925.0,10862.0,-8219.0,1794.0,2.0,-5.0,-13.0,-7.0,-13.0,-3.0,0.0,-2.0,0.673283576965332
168,-42.0,-3.0,7.0,1.0,8925.0,10862.0,-8219.0,1794.0,1.0,6.0,1.0,0.0,-2.0,-1.0,2.0,2.0,0.6901743412017822
169,-45.0,-1.0,8.0,1.0,8929.0,10859.0,-8221.0,1788.0,1.0,6.0,1.0,0.0,-2.0,-1.0,2.0,2.0,0.6926498413085938
170,-45.0,-1.0,8.0,1.0,8929.0,10859.0,-8221.0,1788.0,-9.0,-13.0,6.0,4.0,0.0,1.0,0.0,-3.0,0.694998025894165
171,-45.0,-1.0,8.0,1.0,8929.0,10859.0,-8221.0,1788.0,0.0,-4.0,-13.0,-3.0,-13.0,-5.0,-6.0,3.0,0.7124083042144775
172,-40.0,6.0,8.0,1.0,8933.0,10857.0,-8221.0,1783.0,0.0,-4.0,-13.0,-3.0,-13.0,-5.0,-6.0,3.0,0.7146847248077393
173,-40.0,6.0,8.0,1.0,8933.0,10857.0,-8221.0,1783.0,0.0,8.0,2.0,-3.0,5.0,0.0,4.0,-3.0,0.7171051502227783
174,-40.0,6.0,8.0,1.0,8933.0,10857.0,-8221.0,1783.0,-4.0,-7.0,-13.0,3.0,-2.0,-2.0,1.0,4.0,0.7266535758972168
175,-30.0,9.0,9.0,1.0,8934.0,10855.0,-8222.0,1780.0,-4.0,-7.0,-13.0,3.0,-2.0,-2.0,1.0,4.0,0.7289280891418457
176,-30.0,9.0,9.0,1.0,8934.0,10855.0,-8222.0,1780.0,6.0,9.0,-1.0,-1.0,1.0,1.0,-4.0,3.0,0.7334098815917969
177,-30.0,9.0,9.0,1.0,8934.0,10855.0,-8222.0,1780.0,-9.0,-8.0,14.0,1.0,12.0,1.0,-11.0,-5.0,0.750206708908081
178,-10.0,14.0,4.0,1.0,8934.0,10855.0,-8222.0,1780.0,-9.0,-8.0,14.0,1.0,12.0,1.0,-11.0,-5.0,0.7541158199310303
179,-10.0,14.0,4.0,1.0,8934.0,10855.0,-8222.0,1780.0,15.0,15.0,19.0,-4.0,-2.0,-7.0,-16.0,3.0,0.756505012512207
180,-10.0,14.0,4.0,1.0,8934.0,10855.0,-8222.0,1780.0,0.0,2.0,-5.0,-1.0,12.0,2.0,0.0,-4.0,0.7724819183349609
181,-8.0,20.0,3.0,1.0,8933.0,10857.0,-8221.0,1779.0,0.0,2.0,-5.0,-1.0,12.0,2.0,0.0,-4.0,0.7747504711151123
182,-8.0,20.0,3.0,1.0,8933.0,10857.0,-8221.0,1779.0,-7.0,-13.0,4.0,7.0,6.0,6.0,3.0,-3.0,0.7771010398864746
183,-8.0,20.0,3.0,1.0,8933.0,10857.0,-8221.0,1779.0,7.0,-2.0,-8.0,-5.0,-2.0,-1.0,2.0,5.0,0.7949361801147461
184,-5.0,21.0,2.0,1.0,8935.0,10857.0,-8219.0,1779.0,7.0,-2.0,-8.0,-5.0,-2.0,-1.0,2.0,5.0,0.7971782684326172
185,-5.0,21.0,2.0,1.0,8935.0,10857.0,-8219.0,1779.0,-9.0,-10.0,-17.0,-2.0,-5.0,-4.0,6.0,-3.0,0.7995078563690186
186,-5.0,21.0,2.0,1.0,8935.0,10857.0,-8219.0,1779.0,3.0,-1.0,-30.0,-4.0,5.0,2.0,8.0,2.0,0.8096435070037842
187,2.0,21.0,5.0,1.0,8936.0,10858.0,-8217.0,1780.0,3.0,-1.0,-30.0,-4.0,5.0,2.0,8.0,2.0,0.8119373321533203
188,2.0,21.0,5.0,1.0,8936.0,10858.0,-8217.0,1780.0,3.0,-3.0,-1.0,0.0,-19.0,-10.0,0.0,0.0,0.8149747848510742
189,2.0,21.0,5.0,1.0,8936.0,10858.0,-8217.0,1780.0,-2.0,-4.0,-2.0,-1.0,-4.0,-1.0,7.0,1.0,0.8325443267822266
190,0.0,21.0,3.0,1.0,8936.0,10860.0,-8214.0,1779.0,-2.0,-4.0,-2.0,-1.0,-4.0,-1.0,7.0,1.0,0.8348824977874756
191,0.0,21.0,3.0,1.0,8936.0,10860.0,-8214.0,1779.0,-5.0,-13.0,-16.0,2.0,15.0,6.0,-2.0,1.0,0.8372406959533691
192,0.0,21.0,3.0,1.0,8936.0,10860.0,-8214.0,1779.0,6.0,-19.0,-28.0,-8.0,5.0,-7.0,-3.0,-2.0,0.8469324111938477
193,5.0,20.0,2.0,1.0,8936.0,10861.0,-8211.0,1780.0,6.0,-19.0,-28.0,-8.0,5.0,-7.0,-3.0,-2.0,0.8497333526611328
194,5.0,20.0,2.0,1.0,8936.0,10861.0,-8211.0,1780.0,0.0,-7.0,-8.0,-2.0,3.0,-2.0,-7.0,0.0,0.8524107933044434
195,5.0,20.0,2.0,1.0,8936.0,10861.0,-8211.0,1780.0,-1.0,4.0,8.0,1.0,7.0,4.0,1.0,-1.0,0.8698551654815674
196,-7.0,18.0,0.0,1.0,8938.0,10862.0,-8209.0,1778.0,-1.0,4.0,8.0,1.0,7.0,4.0,1.0,-1.0,0.8723263740539551
197,-7.0,18.0,0.0,1.0,8938.0,10862.0,-8209.0,1778.0,-1.0,0.0,3.0,-1.0,9.0,9.0,6.0,-2.0,0.8747963905334473
198,-7.0,18.0,0.0,1.0,8938.0,10862.0,-8209.0,1778.0,-4.0,7.0,14.0,1.0,-8.0,2.0,-4.0,-4.0,0.8921687602996826
199,7.0,17.0,-1.0,1.0,8938.0,10865.0,-8206.0,1778.0,-4.0,7.0,14.0,1.0,-8.0,2.0,-4.0,-4.0,0.894456148147583
200,7.0,17.0,-1.0,1.0,8938.0,10865.0,-8206.0,1778.0,1.0,11.0,13.0,1.0,6.0,1.0,8.0,1.0,0.8967738151550293
201,7.0,17.0,-1.0,1.0,8938.0,10865.0,-8206.0,1778.0,1.0,5.0,-26.0,-8.0,-15.0,0.0,5.0,5.0,0.9068801403045654
202,10.0,12.0,-1.0,1.0,8937.0,10865.0,-8206.0,1777.0,1.0,5.0,-26.0,-8.0,-15.0,0.0,5.0,5.0,0.9093985557556152
203,10.0,12.0,-1.0,1.0,8937.0,10865.0,-8206.0,1777.0,2.0,4.0,1.0,-1.0,0.0,-7.0,-12.0,-3.0,0.9129412174224854
204,10.0,12.0,-1.0,1.0,8937.0,10865.0,-8206.0,1777.0,2.0,12.0,13.0,6.0,9.0,6.0,12.0,-3.0,0.9294421672821045
205,13.0,17.0,-3.0,1.0,8936.0,10869.0,-8203.0,1777.0,2.0,12.0,13.0,6.0,9.0,6.0,12.0,-3.0,0.9317049980163574
206,13.0,17.0,-3.0,1.0,8936.0,10869.0,-8203.0,1777.0,-4.0,8.0,9.0,-2.0,-2.0,-7.0,-2.0,-2.0,0.9340343475341797
207,13.0,17.0,-3.0,1.0,8936.0,10869.0,-8203.0,1777.0,-4.0,-15.0,-10.0,-3.0,-1.0,-3.0,-13.0,-3.0,0.9523496627807617
208,13.0,14.0,-4.0,1.0,8935.0,10869.0,-8203.0,1776.0,-4.0,-15.0,-10.0,-3.0,-1.0,-3.0,-13.0,-3.0,0.954594612121582
209,13.0,14.0,-4.0,1.0,8935.0,10869.0,-8203.0,1776.0,7.0,4.0,-10.0,1.0,7.0,2.0,-5.0,1.0,0.9569418430328369
210,13.0,14.0,-4.0,1.0,8935.0,10869.0,-8203.0,1776.0,11.0,24.0,11.0,0.0,-10.0,-2.0,5.0,5.0,0.9668717384338379
211,20.0,14.0,-3.0,1.0,8934.0,10873.0,-8200.0,1776.0,11.0,24.0,11.0,0.0,-10.0,-2.0,5.0,5.0,0.9691600799560547
212,20.0,14.0,-3.0,1.0,8934.0,10873.0,-8200.0,1776.0,-9.0,-18.0,-17.0,-4.0,2.0,3.0,-3.0,-5.0,0.973153829574585
213,25.0,16.0,-11.0,1.0,8932.0,10878.0,-8195.0,1776.0,-9.0,-18.0,-17.0,-4.0,2.0,3.0,-3.0,-5.0,0.9895443916320801
214,25.0,16.0,-11.0,1.0,8932.0,10878.0,-8195.0,1776.0,-2.0,2.0,8.0,4.0,3.0,-2.0,-12.0,-3.0,0.9918887615203857
215,25.0,16.0,-11.0,1.0,8932.0,10878.0,-8195.0,1776.0,-3.0,13.0,-3.0,3.0,-1.0,-3.0,-5.0,-2.0,0.9941277503967285
216,16.0,14.0,-8.0,1.0,8931.0,10882.0,-8191.0,1775.0,-3.0,13.0,-3.0,3.0,-1.0,-3.0,-5.0,-2.0,1.0120394229888916
217,16.0,14.0,-8.0,1.0,8931.0,10882.0,-8191.0,1775.0,9.0,-7.0,-24.0,-5.0,11.0,-3.0,0.0,8.0,1.0143980979919434
218,16.0,14.0,-8.0,1.0,8931.0,10882.0,-8191.0,1775.0,-1.0,-14.0,-11.0,-3.0,-28.0,-4.0,5.0,-1.0,1.0166499614715576
219,16.0,14.0,-10.0,1.0,8929.0,10886.0,-8188.0,1775.0,-1.0,-14.0,-11.0,-3.0,-28.0,-4.0,5.0,-1.0,1.0261027812957764
220,16.0,14.0,-10.0,1.0,8929.0,10886.0,-8188.0,1775.0,-4.0,-7.0,3.0,2.0,6.0,1.0,5.0,-1.0,1.0521295070648193
221,16.0,14.0,-10.0,1.0,8929.0,10886.0,-8188.0,1775.0,-3.0,1.0,10.0,0.0,6.0,-4.0,-14.0,-2.0,1.0566112995147705
222,12.0,16.0,-9.0,1.0,8928.0,10890.0,-8184.0,1774.0,-3.0,1.0,10.0,0.0,6.0,-4.0,-14.0,-2.0,1.0610625743865967
223,12.0,16.0,-9.0,1.0,8928.0,10890.0,-8184.0,1774.0,-9.0,-4.0,-12.0,-1.0,-14.0,1.0,9.0,-5.0,1.0646185874938965
224,12.0,16.0,-9.0,1.0,8928.0,10890.0,-8184.0,1774.0,9.0,12.0,0.0,-2.0,1.0,0.0,-3.0,3.0,1.0672378540039062
225,19.0,14.0,-9.0,1.0,8926.0,10894.0,-8181.0,1774.0,9.0,12.0,0.0,-2.0,1.0,0.0,-3.0,3.0,1.072371482849121
226,19.0,14.0,-9.0,1.0,8926.0,10894.0,-8181.0,1774.0,0.0,4.0,18.0,3.0,-24.0,-8.0,-18.0,-4.0,1.074761152267456
227,19.0,14.0,-9.0,1.0,8926.0,10894.0,-8181.0,1774.0,-1.0,-4.0,-5.0,2.0,-4.0,-6.0,-2.0,6.0,1.0770225524902344
228,20.0,12.0,-9.0,1.0,8924.0,10898.0,-8177.0,1774.0,-1.0,-4.0,-5.0,2.0,-4.0,-6.0,-2.0,6.0,1.085984230041504
229,20.0,12.0,-9.0,1.0,8924.0,10898.0,-8177.0,1774.0,-10.0,-14.0,0.0,-3.0,11.0,1.0,-8.0,-8.0,1.0941503047943115
230,20.0,12.0,-9.0,1.0,8924.0,10898.0,-8177.0,1774.0,2.0,3.0,-3.0,-2.0,3.0,3.0,-9.0,0.0,1.0965986251831055
231,2.0,16.0,-7.0,1.0,8924.0,10901.0,-8174.0,1772.0,2.0,3.0,-3.0,-2.0,3.0,3.0,-9.0,0.0,1.109626054763794
232,2.0,16.0,-7.0,1.0,8924.0,10901.0,-8174.0,1772.0,-7.0,3.0,14.0,6.0,11.0,0.0,9.0,-4.0,1.1133077144622803
233,2.0,16.0,-7.0,1.0,8924.0,10901.0,-8174.0,1772.0,5.0,15.0,11.0,-4.0,-2.0,5.0,12.0,3.0,1.1172316074371338
234,11.0,11.0,-10.0,1.0,8924.0,10901.0,-8174.0,1772.0,5.0,15.0,11.0,-4.0,-2.0,5.0,12.0,3.0,1.134181261062622
235,11.0,11.0,-10.0,1.0,8924.0,10901.0,-8174.0,1772.0,0.0,-10.0,-13.0,0.0,12.0,3.0,-8.0,0.0,1.1385102272033691
236,11.0,11.0,-10.0,1.0,8924.0,10901.0,-8174.0,1772.0,-6.0,3.0,3.0,1.0,-6.0,-3.0,1.0,-5.0,1.1410624980926514
237,24.0,5.0,-13.0,1.0,8920.0,10906.0,-8171.0,1772.0,-6.0,3.0,3.0,1.0,-6.0,-3.0,1.0,-5.0,1.1455183029174805
238,24.0,5.0,-13.0,1.0,8920.0,10906.0,-8171.0,1772.0,6.0,10.0,8.0,-2.0,10.0,1.0,2.0,5.0,1.1556098461151123
239,24.0,5.0,-13.0,1.0,8920.0,10906.0,-8171.0,1772.0,-7.0,-14.0,-3.0,6.0,-3.0,2.0,1.0,-1.0,1.1595613956451416
240,16.0,6.0,-7.0,1.0,8918.0,10909.0,-8169.0,1772.0,-7.0,-14.0,-3.0,6.0,-3.0,2.0,1.0,-1.0,1.169672966003418
241,16.0,6.0,-7.0,1.0,8918.0,10909.0,-8169.0,1772.0,-2.0,8.0,30.0,1.0,-1.0,4.0,-9.0,-3.0,1.1720149517059326
242,16.0,6.0,-7.0,1.0,8918.0,10909.0,-8169.0,1772.0,4.0,-5.0,13.0,2.0,14.0,3.0,3.0,-7.0,1.1742889881134033
243,18.0,5.0,-1.0,1.0,8915.0,10912.0,-8168.0,1773.0,4.0,-5.0,13.0,2.0,14.0,3.0,3.0,-7.0,1.1922264099121094
244,18.0,5.0,-1.0,1.0,8915.0,10912.0,-8168.0,1773.0,3.0,5.0,-12.0,-8.0,-25.0,-7.0,0.0,-1.0,1.1950671672821045
245,18.0,5.0,-1.0,1.0,8915.0,10912.0,-8168.0,1773.0,-4.0,-7.0,-8.0,-2.0,14.0,3.0,-6.0,3.0,1.1973905563354492
246,33.0,-4.0,-6.0,1.0,8911.0,10917.0,-8167.0,1774.0,-4.0,-7.0,-8.0,-2.0,14.0,3.0,-6.0,3.0,1.2058463096618652
247,33.0,-4.0,-6.0,1.0,8911.0,10917.0,-8167.0,1774.0,-2.0,-14.0,18.0,4.0,2.0,-5.0,1.0,0.0,1.2139549255371094
248,33.0,-4.0,-6.0,1.0,8911.0,10917.0,-8167.0,1774.0,-5.0,-8.0,-16.0,-5.0,-6.0,-7.0,-10.0,-3.0,1.2162487506866455
249,39.0,-16.0,-22.0,1.0,8907.0,10923.0,-8164.0,1771.0,-5.0,-8.0,-16.0,-5.0,-6.0,-7.0,-10.0,-3.0,1.2296760082244873
250,39.0,-16.0,-22.0,1.0,8907.0,10923.0,-8164.0,1771.0,2.0,21.0,2.0,4.0,1.0,7.0,-2.0,-7.0,1.2334935665130615
251,39.0,-16.0,-22.0,1.0,8907.0,10923.0,-8164.0,1771.0,2.0,-8.0,-9.0,1.0,4.0,-3.0,2.0,4.0,1.2374930381774902
252,50.0,-34.0,-36.0,1.0,8901.0,10933.0,-8159.0,1764.0,2.0,-8.0,-9.0,1.0,4.0,-3.0,2.0,4.0,1.2537891864776611
253,50.0,-34.0,-36.0,1.0,8901.0,10933.0,-8159.0,1764.0,-9.0,-17.0,-7.0,2.0,15.0,3.0,3.0,-15.0,1.2588231563568115
254,50.0,-34.0,-36.0,1.0,8901.0,10933.0,-8159.0,1764.0,4.0,10.0,0.0,-6.0,-12.0,-2.0,-4.0,3.0,1.2629663944244385
255,22.0,-57.0,-51.0,1.0,8897.0,10942.0,-8153.0,1749.0,4.0,10.0,0.0,-6.0,-12.0,-2.0,-4.0,3.0,1.2654690742492676
256,22.0,-57.0,-51.0,1.0,8897.0,10942.0,-8153.0,1749.0,-3.0,-3.0,2.0,-3.0,3.0,-5.0,-7.0,-3.0,1.2819323539733887
257,22.0,-57.0,-51.0,1.0,8897.0,10942.0,-8153.0,1749.0,3.0,6.0,2.0,3.0,-2.0,-3.0,-2.0,0.0,1.2842578887939453
258,-10.0,-66.0,-51.0,1.0,8897.0,10948.0,-8150.0,1730.0,3.0,6.0,2.0,3.0,-2.0,-3.0,-2.0,0.0,1.290031909942627
259,-10.0,-66.0,-51.0,1.0,8897.0,10948.0,-8150.0,1730.0,-9.0,-7.0,-10.0,-5.0,-4.0,-2.0,5.0,2.0,1.2925641536712646
260,-10.0,-66.0,-51.0,1.0,8897.0,10948.0,-8150.0,1730.0,-8.0,-20.0,-23.0,-8.0,0.0,-6.0,-2.0,-7.0,1.2948577404022217
261,-16.0,-78.0,-41.0,1.0,8897.0,10953.0,-8148.0,1709.0,-8.0,-20.0,-23.0,-8.0,0.0,-6.0,-2.0,-7.0,1.3132481575012207
262,-16.0,-78.0,-41.0,1.0,8897.0,10953.0,-8148.0,1709.0,10.0,-4.0,-3.0,3.0,5.0,3.0,6.0,10.0,1.3181977272033691
263,-16.0,-78.0,-41.0,1.0,8897.0,10953.0,-8148.0,1709.0,-2.0,3.0,1.0,3.0,-2.0,-2.0,2.0,-5.0,1.323070764541626
264,-57.0,-82.0,-19.0,1.0,8901.0,10952.0,-8150.0,1686.0,-2.0,3.0,1.0,3.0,-2.0,-2.0,2.0,-5.0,1.3256237506866455
265,-57.0,-82.0,-19.0,1.0,8901.0,10952.0,-8150.0,1686.0,-5.0,-4.0,-2.0,-1.0,-22.0,-3.0,-4.0,2.0,1.3340356349945068
266,-57.0,-82.0,-19.0,1.0,8901.0,10952.0,-8150.0,1686.0,4.0,4.0,-21.0,1.0,13.0,7.0,4.0,-1.0,1.3363242149353027
267,-76.0,-84.0,-1.0,1.0,8905.0,10945.0,-8157.0,1668.0,4.0,4.0,-21.0,1.0,13.0,7.0,4.0,-1.0,1.357536792755127
268,-76.0,-84.0,-1.0,1.0,8905.0,10945.0,-8157.0,1668.0,3.0,-8.0,-6.0,-1.0,-3.0,-1.0,2.0,4.0,1.359938144683838
269,-76.0,-84.0,-1.0,1.0,8905.0,10945.0,-8157.0,1668.0,6.0,2.0,18.0,3.0,-7.0,3.0,3.0,4.0,1.3622322082519531
270,-118.0,-94.0,20.0,1.0,8914.0,10933.0,-8169.0,1647.0,6.0,2.0,18.0,3.0,-7.0,3.0,3.0,4.0,1.372427225112915
271,-118.0,-94.0,20.0,1.0,8914.0,10933.0,-8169.0,1647.0,-7.0,-19.0,-6.0,0.0,-11.0,1.0,-2.0,-2.0,1.3747894763946533
272,-118.0,-94.0,20.0,1.0,8914.0,10933.0,-8169.0,1647.0,-10.0,-12.0,-17.0,-6.0,-7.0,0.0,0.0,1.0,1.377089500427246
273,-100.0,-94.0,-23.0,1.0,8924.0,10924.0,-8174.0,1625.0,-10.0,-12.0,-17.0,-6.0,-7.0,0.0,0.0,1.0,1.3859796524047852
274,-100.0,-94.0,-23.0,1.0,8924.0,10924.0,-8174.0,1625.0,14.0,11.0,-5.0,-7.0,-6.0,-2.0,-15.0,0.0,1.3940415382385254
275,-100.0,-94.0,-23.0,1.0,8924.0,10924.0,-8174.0,1625.0,-8.0,-15.0,14.0,2.0,-3.0,4.0,5.0,-6.0,1.3963515758514404
276,-134.0,-76.0,-39.0,1.0,8936.0,10913.0,-8179.0,1603.0,-8.0,-15.0,14.0,2.0,-3.0,4.0,5.0,-6.0,1.4095189571380615
277,-134.0,-76.0,-39.0,1.0,8936.0,10913.0,-8179.0,1603.0,3.0,4.0,-2.0,0.0,-10.0,-6.0,8.0,5.0,1.4122486114501953
278,-134.0,-76.0,-39.0,1.0,8936.0,10913.0,-8179.0,1603.0,-6.0,-4.0,-4.0,-2.0,22.0,0.0,-4.0,0.0,1.4149904251098633
279,-111.0,-81.0,-50.0,1.0,8946.0,10907.0,-8181.0,1579.0,-6.0,-4.0,-4.0,-2.0,22.0,0.0,-4.0,0.0,1.432265281677246
280,-111.0,-81.0,-50.0,1.0,8946.0,10907.0,-8181.0,1579.0,4.0,9.0,8.0,-5.0,-2.0,-10.0,3.0,0.0,1.4346191883087158
281,-111.0,-81.0,-50.0,1.0,8946.0,10907.0,-8181.0,1579.0,5.0,12.0,14.0,3.0,-10.0,-2.0,11.0,0.0,1.4369027614593506
282,-142.0,-68.0,-64.0,1.0,8959.0,10900.0,-8182.0,1552.0,5.0,12.0,14.0,3.0,-10.0,-2.0,11.0,0.0,1.4464306831359863
283,-142.0,-68.0,-64.0,1.0,8959.0,10900.0,-8182.0,1552.0,-11.0,-6.0,-9.0,-5.0,-7.0,-2.0,-12.0,-6.0,1.4540958404541016
284,-142.0,-68.0,-64.0,1.0,8959.0,10900.0,-8182.0,1552.0,0.0,-1.0,5.0,-4.0,-6.0,-1.0,-2.0,3.0,1.4563708305358887
285,-122.0,-71.0,-66.0,1.0,8965.0,10898.0,-8183.0,1523.0,0.0,-1.0,5.0,-4.0,-6.0,-1.0,-2.0,3.0,1.4695699214935303
286,-122.0,-71.0,-66.0,1.0,8965.0,10898.0,-8183.0,1523.0,1.0,9.0,9.0,4.0,9.0,-4.0,2.0,-1.0,1.471949577331543
287,-122.0,-71.0,-66.0,1.0,8965.0,10898.0,-8183.0,1523.0,-2.0,0.0,-1.0,-2.0,-8.0,2.0,-1.0,-7.0,1.4742541313171387
288,-120.0,-71.0,-55.0,1.0,8972.0,10896.0,-8184.0,1493.0,-2.0,0.0,-1.0,-2.0,-8.0,2.0,-1.0,-7.0,1.4924356937408447
289,-120.0,-71.0,-55.0,1.0,8972.0,10896.0,-8184.0,1493.0,9.0,21.0,9.0,3.0,9.0,8.0,14.0,8.0,1.4947831630706787
290,-120.0,-71.0,-55.0,1.0,8972.0,10896.0,-8184.0,1493.0,-11.0,-9.0,3.0,-2.0,-25.0,-6.0,-5.0,-5.0,1.4970293045043945
291,-163.0,-63.0,-28.0,1.0,8984.0,10887.0,-8187.0,1462.0,-11.0,-9.0,3.0,-2.0,-25.0,-6.0,-5.0,-5.0,1.5148146152496338
292,-163.0,-63.0,-28.0,1.0,8984.0,10887.0,-8187.0,1462.0,6.0,15.0,-6.0,-9.0,6.0,-3.0,-15.0,3.0,1.5171542167663574
293,-163.0,-63.0,-28.0,1.0,8984.0,10887.0,-8187.0,1462.0,4.0,0.0,15.0,1.0,7.0,-2.0,-3.0,1.0,1.5194189548492432
294,-188.0,-65.0,-13.0,1.0,8999.0,10875.0,-8193.0,1429.0,4.0,0.0,15.0,1.0,7.0,-2.0,-3.0,1.0,1.5295956134796143
295,-188.0,-65.0,-13.0,1.0,8999.0,10875.0,-8193.0,1429.0,-12.0,-8.0,3.0,4.0,8.0,6.0,0.0,-3.0,1.5319468975067139
296,-188.0,-65.0,-13.0,1.0,8999.0,10875.0,-8193.0,1429.0,-5.0,-4.0,-8.0,4.0,1.0,2.0,1.0,-8.0,1.534193992614746
297,-203.0,-64.0,-8.0,1.0,9016.0,10860.0,-8199.0,1397.0,-5.0,-4.0,-8.0,4.0,1.0,2.0,1.0,-8.0,1.5514752864837646
298,-203.0,-64.0,-8.0,1.0,9016.0,10860.0,-8199.0,1397.0,-5.0,-6.0,-14.0,2.0,10.0,-4.0,-1.0,0.0,1.5590884685516357
299,-203.0,-64.0,-8.0,1.0,9016.0,10860.0,-8199.0,1397.0,-6.0,-3.0,-21.0,-6.0,-11.0,1.0,-1.0,-1.0,1.5613880157470703
300,-215.0,-61.0,-20.0,1.0,9037.0,10842.0,-8205.0,1367.0,-6.0,-3.0,-21.0,-6.0,-11.0,1.0,-1.0,-1.0,1.5756967067718506
301,-215.0,-61.0,-20.0,1.0,9037.0,10842.0,-8205.0,1367.0,10.0,7.0,-5.0,1.0,-10.0,1.0,-1.0,2.0,1.5800960063934326
302,-215.0,-61.0,-20.0,1.0,9037.0,10842.0,-8205.0,1367.0,9.0,-1.0,-6.0,-1.0,4.0,5.0,0.0,9.0,1.5843205451965332
303,-183.0,-63.0,-41.0,1.0,9054.0,10830.0,-8208.0,1337.0,9.0,-1.0,-6.0,-1.0,4.0,5.0,0.0,9.0,1.5895946025848389
304,-183.0,-63.0,-41.0,1.0,9054.0,10830.0,-8208.0,1337.0,-2.0,-7.0,13.0,3.0,-9.0,-2.0,-1.0,0.0,1.5920021533966064
305,-183.0,-63.0,-41.0,1.0,9054.0,10830.0,-8208.0,1337.0,0.0,2.0,17.0,3.0,10.0,6.0,7.0,-2.0,1.5942835807800293
306,-170.0,-52.0,-61.0,1.0,9075.0,10820.0,-8204.0,1304.0,0.0,2.0,17.0,3.0,10.0,6.0,7.0,-2.0,1.6121509075164795
307,-170.0,-52.0,-61.0,1.0,9075.0,10820.0,-8204.0,1304.0,1.0,8.0,7.0,1.0,-20.0,-9.0,4.0,0.0,1.614548683166504
308,-170.0,-52.0,-61.0,1.0,9075.0,10820.0,-8204.0,1304.0,-16.0,8.0,21.0,0.0,-8.0,-8.0,-5.0,-10.0,1.6168217658996582
309,-160.0,-37.0,-112.0,1.0,9100.0,10814.0,-8189.0,1267.0,-16.0,8.0,21.0,0.0,-8.0,-8.0,-5.0,-10.0,1.634997844696045
310,-160.0,-37.0,-112.0,1.0,9100.0,10814.0,-8189.0,1267.0,19.0,-11.0,-9.0,-3.0,15.0,18.0,22.0,1.0,1.6377573013305664
311,-160.0,-37.0,-112.0,1.0,9100.0,10814.0,-8189.0,1267.0,0.0,-5.0,-6.0,-8.0,2.0,9.0,-1.0,-5.0,1.6401450634002686
312,-78.0,-39.0,-244.0,1.0,9120.0,10826.0,-8157.0,1226.0,0.0,-5.0,-6.0,-8.0,2.0,9.0,-1.0,-5.0,1.6489698886871338
313,-78.0,-39.0,-244.0,1.0,9120.0,10826.0,-8157.0,1226.0,-26.0,-23.0,-4.0,-14.0,-16.0,4.0,21.0,-21.0,1.6513395309448242
314,-78.0,-39.0,-244.0,1.0,9120.0,10826.0,-8157.0,1226.0,-2.0,-14.0,-41.0,-3.0,20.0,15.0,17.0,-22.0,1.656273365020752
315,-8.0,-36.0,-491.0,1.0,9136.0,10867.0,-8093.0,1164.0,-2.0,-14.0,-41.0,-3.0,20.0,15.0,17.0,-22.0,1.673903226852417
316,-8.0,-36.0,-491.0,1.0,9136.0,10867.0,-8093.0,1164.0,-5.0,-14.0,-24.0,-14.0,1.0,-22.0,-35.0,3.0,1.678361415863037
317,-8.0,-36.0,-491.0,1.0,9136.0,10867.0,-8093.0,1164.0,16.0,-1.0,-13.0,-3.0,3.0,-10.0,-14.0,59.0,1.6825368404388428
318,5.0,-7.0,-811.0,1.0,9161.0,10940.0,-7979.0,1063.0,16.0,-1.0,-13.0,-3.0,3.0,-10.0,-14.0,59.0,1.6952013969421387
319,5.0,-7.0,-811.0,1.0,9161.0,10940.0,-7979.0,1063.0,5.0,9.0,-39.0,14.0,98.0,54.0,52.0,14.0,1.7008204460144043
320,5.0,-7.0,-811.0,1.0,9161.0,10940.0,-7979.0,1063.0,5.0,9.0,-39.0,14.0,98.0,54.0,52.0,14.0,1.7055950164794922
321,5.0,-7.0,-811.0,1.0,9161.0,10940.0,-7979.0,1063.0,21.0,3.0,-43.0,11.0,-89.0,-57.0,-81.0,22.0,1.7087986469268799
322,-180.0,40.0,-1206.0,1.0,9211.0,11028.0,-7818.0,913.0,21.0,3.0,-43.0,11.0,-89.0,-57.0,-81.0,22.0,1.7111444473266602
323,-180.0,40.0,-1206.0,1.0,9211.0,11028.0,-7818.0,913.0,-22.0,-33.0,-6.0,-32.0,67.0,-11.0,92.0,-37.0,1.7166037559509277
324,-180.0,40.0,-1206.0,1.0,9211.0,11028.0,-7818.0,913.0,21.0,-13.0,-1.0,-10.0,-72.0,-3.0,51.0,8.0,1.7188851833343506
325,-50.0,90.0,-1864.0,1.0,9245.0,11179.0,-7579.0,727.0,21.0,-13.0,-1.0,-10.0,-72.0,-3.0,51.0,8.0,1.7344350814819336
326,-50.0,90.0,-1864.0,1.0,9245.0,11179.0,-7579.0,727.0,-10.0,5.0,-2.0,13.0,31.0,-27.0,-64.0,-5.0,1.7391910552978516
327,-50.0,90.0,-1864.0,1.0,9245.0,11179.0,-7579.0,727.0,-20.0,-19.0,37.0,13.0,43.0,11.0,-5.0,-13.0,1.7434346675872803
328,71.0,-96.0,-2207.0,1.0,9250.0,11365.0,-7311.0,493.0,-20.0,-19.0,37.0,13.0,43.0,11.0,-5.0,-13.0,1.7627201080322266
329,71.0,-96.0,-2207.0,1.0,9250.0,11365.0,-7311.0,493.0,11.0,15.0,26.0,9.0,12.0,24.0,-11.0,17.0,1.7682571411132812
330,71.0,-96.0,-2207.0,1.0,9250.0,11365.0,-7311.0,493.0,-1.0,26.0,36.0,1.0,34.0,4.0,3.0,5.0,1.7731175422668457
331,12.0,-236.0,-1929.0,1.0,9245.0,11517.0,-7088.0,263.0,-1.0,26.0,36.0,1.0,34.0,4.0,3.0,5.0,1.776798963546753
332,12.0,-236.0,-1929.0,1.0,9245.0,11517.0,-7088.0,263.0,3.0,19.0,17.0,9.0,1.0,4.0,-15.0,-8.0,1.7792613506317139
333,12.0,-236.0,-1929.0,1.0,9245.0,11517.0,-7088.0,263.0,-1.0,15.0,10.0,-9.0,-24.0,-2.0,11.0,-2.0,1.7815282344818115
334,-557.0,-323.0,-1586.0,1.0,9319.0,11593.0,-6869.0,-54.0,-1.0,15.0,10.0,-9.0,-24.0,-2.0,11.0,-2.0,1.7920148372650146
335,-557.0,-323.0,-1586.0,1.0,9319.0,11593.0,-6869.0,-54.0,-4.0,-5.0,-5.0,-1.0,-64.0,-12.0,-19.0,8.0,1.7946932315826416
336,-557.0,-323.0,-1586.0,1.0,9319.0,11593.0,-6869.0,-54.0,4.0,26.0,6.0,-1.0,30.0,14.0,9.0,-11.0,1.7972207069396973
337,-1296.0,-390.0,-1372.0,1.0,9465.0,11577.0,-6679.0,-417.0,4.0,26.0,6.0,-1.0,30.0,14.0,9.0,-11.0,1.8144848346710205
338,-1296.0,-390.0,-1372.0,1.0,9465.0,11577.0,-6679.0,-417.0,-9.0,-22.0,23.0,12.0,-41.0,-8.0,-18.0,-1.0,1.8169589042663574
339,-1296.0,-390.0,-1372.0,1.0,9465.0,11577.0,-6679.0,-417.0,-7.0,4.0,-14.0,-8.0,19.0,-4.0,-3.0,-13.0,1.8192827701568604
340,-1664.0,-295.0,-1087.0,1.0,9650.0,11484.0,-6551.0,-704.0,-7.0,4.0,-14.0,-8.0,19.0,-4.0,-3.0,-13.0,1.8292429447174072
341,-1664.0,-295.0,-1087.0,1.0,9650.0,11484.0,-6551.0,-704.0,7.0,-1.0,-3.0,3.0,-10.0,-3.0,1.0,9.0,1.8362095355987549
342,-1664.0,-295.0,-1087.0,1.0,9650.0,11484.0,-6551.0,-704.0,16.0,46.0,22.0,-3.0,1.0,1.0,-4.0,4.0,1.8384966850280762
343,-1640.0,-156.0,-1175.0,1.0,9839.0,11392.0,-6392.0,-982.0,16.0,46.0,22.0,-3.0,1.0,1.0,-4.0,4.0,1.8528282642364502
344,-1640.0,-156.0,-1175.0,1.0,9839.0,11392.0,-6392.0,-982.0,-11.0,-7.0,-25.0,-8.0,-21.0,-1.0,-10.0,-6.0,1.8552329540252686
345,-1640.0,-156.0,-1175.0,1.0,9839.0,11392.0,-6392.0,-982.0,-15.0,-29.0,10.0,15.0,10.0,1.0,-4.0,-8.0,1.858140230178833
346,-1386.0,-11.0,-1346.0,1.0,10029.0,11333.0,-6140.0,-1306.0,-15.0,-29.0,10.0,15.0,10.0,1.0,-4.0,-8.0,1.8823983669281006
347,-1386.0,-11.0,-1346.0,1.0,10029.0,11333.0,-6140.0,-1306.0,16.0,20.0,6.0,14.0,4.0,1.0,3.0,8.0,1.8848042488098145
348,-1386.0,-11.0,-1346.0,1.0,10029.0,11333.0,-6140.0,-1306.0,-10.0,-35.0,-22.0,-22.0,10.0,-1.0,-3.0,-13.0,1.8873581886291504
349,-1243.0,103.0,-1500.0,1.0,10209.0,11287.0,-5844.0,-1630.0,-10.0,-35.0,-22.0,-22.0,10.0,-1.0,-3.0,-13.0,1.890132188796997
350,-1243.0,103.0,-1500.0,1.0,10209.0,11287.0,-5844.0,-1630.0,14.0,22.0,-3.0,-10.0,-19.0,-4.0,-5.0,5.0,1.8965778350830078
351,-1243.0,103.0,-1500.0,1.0,10209.0,11287.0,-5844.0,-1630.0,6.0,9.0,17.0,43.0,11.0,1.0,3.0,3.0,1.9036295413970947
352,-1310.0,152.0,-1682.0,1.0,10359.0,11243.0,-5577.0,-1902.0,6.0,9.0,17.0,43.0,11.0,1.0,3.0,3.0,1.9121253490447998
353,-1310.0,152.0,-1682.0,1.0,10359.0,11243.0,-5577.0,-1902.0,-10.0,-20.0,-2.0,0.0,-12.0,-2.0,-4.0,-4.0,1.9146192073822021
354,-1310.0,152.0,-1682.0,1.0,10359.0,11243.0,-5577.0,-1902.0,2.0,0.0,-27.0,-42.0,9.0,8.0,2.0,-4.0,1.916949987411499
355,-1418.0,63.0,-1871.0,1.0,10504.0,11189.0,-5296.0,-2204.0,2.0,0.0,-27.0,-42.0,9.0,8.0,2.0,-4.0,1.9345932006835938
356,-1418.0,63.0,-1871.0,1.0,10504.0,11189.0,-5296.0,-2204.0,-12.0,-16.0,-2.0,-20.0,-11.0,3.0,1.0,-12.0,1.9369831085205078
357,-1418.0,63.0,-1871.0,1.0,10504.0,11189.0,-5296.0,-2204.0,-24.0,-18.0,-6.0,-4.0,0.0,-3.0,-6.0,-15.0,1.939260482788086
358,-1793.0,-91.0,-2222.0,1.0,10664.0,11101.0,-4982.0,-2580.0,-24.0,-18.0,-6.0,-4.0,0.0,-3.0,-6.0,-15.0,1.9483261108398438
359,-1793.0,-91.0,-2222.0,1.0,10664.0,11101.0,-4982.0,-2580.0,3.0,1.0,11.0,31.0,-1.0,1.0,0.0,5.0,1.956636905670166
360,-1793.0,-91.0,-2222.0,1.0,10664.0,11101.0,-4982.0,-2580.0,33.0,39.0,23.0,43.0,9.0,3.0,7.0,16.0,1.9591236114501953
361,-2307.0,-334.0,-2584.0,1.0,10849.0,10952.0,-4637.0,-3046.0,33.0,39.0,23.0,43.0,9.0,3.0,7.0,16.0,1.9735960960388184
362,-2307.0,-334.0,-2584.0,1.0,10849.0,10952.0,-4637.0,-3046.0,-21.0,-16.0,-16.0,-41.0,-22.0,-12.0,-8.0,-13.0,1.9782516956329346
363,-2307.0,-334.0,-2584.0,1.0,10849.0,10952.0,-4637.0,-3046.0,-5.0,7.0,-14.0,-1.0,1.0,-2.0,-2.0,4.0,1.9827399253845215
364,-2481.0,-503.0,-2797.0,1.0,11020.0,10771.0,-4280.0,-3555.0,-5.0,7.0,-14.0,-1.0,1.0,-2.0,-2.0,4.0,1.994952917098999
365,-2481.0,-503.0,-2797.0,1.0,11020.0,10771.0,-4280.0,-3555.0,-17.0,65.0,26.0,15.0,0.0,2.0,-1.0,3.0,1.9993007183074951
366,-2481.0,-503.0,-2797.0,1.0,11020.0,10771.0,-4280.0,-3555.0,22.0,-2.0,19.0,7.0,1.0,0.0,5.0,4.0,2.0034983158111572
367,-2722.0,-558.0,-2893.0,1.0,11192.0,10547.0,-3905.0,-4085.0,22.0,-2.0,19.0,7.0,1.0,0.0,5.0,4.0,2.008859157562256
368,-2722.0,-558.0,-2893.0,1.0,11192.0,10547.0,-3905.0,-4085.0,-13.0,-28.0,-11.0,-9.0,-3.0,-6.0,-11.0,-25.0,2.0166609287261963
369,-2722.0,-558.0,-2893.0,1.0,11192.0,10547.0,-3905.0,-4085.0,49.0,85.0,23.0,3.0,-1.0,-4.0,8.0,17.0,2.019314765930176
370,-3014.0,-659.0,-3054.0,1.0,11361.0,10269.0,-3508.0,-4646.0,49.0,85.0,23.0,3.0,-1.0,-4.0,8.0,17.0,2.0337212085723877
371,-3014.0,-659.0,-3054.0,1.0,11361.0,10269.0,-3508.0,-4646.0,-4.0,-9.0,1.0,-6.0,-1.0,-5.0,-3.0,-7.0,2.0383574962615967
372,-3014.0,-659.0,-3054.0,1.0,11361.0,10269.0,-3508.0,-4646.0,-32.0,-74.0,-11.0,-6.0,-2.0,-1.0,-6.0,-8.0,2.04303240776062
373,-3364.0,-753.0,-2961.0,1.0,11543.0,9920.0,-3115.0,-5203.0,-32.0,-74.0,-11.0,-6.0,-2.0,-1.0,-6.0,-8.0,2.0550034046173096
374,-3364.0,-753.0,-2961.0,1.0,11543.0,9920.0,-3115.0,-5203.0,20.0,24.0,5.0,-2.0,1.0,0.0,3.0,12.0,2.059296131134033
375,-3364.0,-753.0,-2961.0,1.0,11543.0,9920.0,-3115.0,-5203.0,-37.0,-39.0,-15.0,-6.0,-1.0,-2.0,-27.0,-13.0,2.063445568084717
376,-3835.0,-813.0,-2812.0,1.0,11752.0,9482.0,-2718.0,-5747.0,-37.0,-39.0,-15.0,-6.0,-1.0,-2.0,-27.0,-13.0,2.0690436363220215
377,-3835.0,-813.0,-2812.0,1.0,11752.0,9482.0,-2718.0,-5747.0,16.0,-8.0,9.0,37.0,16.0,-2.0,-14.0,7.0,2.076559066772461
378,-3835.0,-813.0,-2812.0,1.0,11752.0,9482.0,-2718.0,-5747.0,-12.0,-6.0,-12.0,-18.0,-11.0,-1.0,8.0,-6.0,2.0831923484802246
379,-4516.0,-807.0,-2757.0,1.0,11996.0,8934.0,-2274.0,-6288.0,-12.0,-6.0,-12.0,-18.0,-11.0,-1.0,8.0,-6.0,2.093304395675659
380,-4516.0,-807.0,-2757.0,1.0,11996.0,8934.0,-2274.0,-6288.0,12.0,-6.0,-2.0,4.0,-3.0,-1.0,-23.0,6.0,2.0974068641662598
381,-4516.0,-807.0,-2757.0,1.0,11996.0,8934.0,-2274.0,-6288.0,-13.0,-10.0,-29.0,-22.0,10.0,3.0,23.0,-4.0,2.1013481616973877
382,-4910.0,-844.0,-2608.0,1.0,12244.0,8302.0,-1812.0,-6804.0,-13.0,-10.0,-29.0,-22.0,10.0,3.0,23.0,-4.0,2.1155970096588135
383,-4910.0,-844.0,-2608.0,1.0,12244.0,8302.0,-1812.0,-6804.0,-7.0,-14.0,-20.0,-12.0,-22.0,-10.0,17.0,-1.0,2.1199374198913574
384,-4910.0,-844.0,-2608.0,1.0,12244.0,8302.0,-1812.0,-6804.0,2.0,-2.0,9.0,-17.0,-13.0,1.0,-20.0,0.0,2.1241135597229004
385,-5093.0,-635.0,-2549.0,1.0,12472.0,7633.0,-1307.0,-7274.0,2.0,-2.0,9.0,-17.0,-13.0,1.0,-20.0,0.0,2.1288275718688965
386,-5093.0,-635.0,-2549.0,1.0,12472.0,7633.0,-1307.0,-7274.0,3.0,2.0,5.0,-8.0,66.0,-3.0,9.0,1.0,2.1364827156066895
387,-5093.0,-635.0,-2549.0,1.0,12472.0,7633.0,-1307.0,-7274.0,-5.0,-6.0,0.0,4.0,-28.0,14.0,22.0,-2.0,2.1387717723846436
388,-5123.0,-278.0,-2522.0,1.0,12662.0,6962.0,-745.0,-7685.0,-5.0,-6.0,0.0,4.0,-28.0,14.0,22.0,-2.0,2.1523075103759766
389,-5123.0,-278.0,-2522.0,1.0,12662.0,6962.0,-745.0,-7685.0,-3.0,-9.0,-14.0,-32.0,-73.0,-18.0,-15.0,-5.0,2.1547043323516846
390,-5123.0,-278.0,-2522.0,1.0,12662.0,6962.0,-745.0,-7685.0,-3.0,-9.0,-14.0,-32.0,-73.0,-18.0,-15.0,-5.0,2.157313585281372
391,-5123.0,-278.0,-2522.0,1.0,12662.0,6962.0,-745.0,-7685.0,2.0,1.0,-3.0,7.0,-11.0,-4.0,-8.0,5.0,2.1839065551757812
392,-4860.0,73.0,-2394.0,1.0,12802.0,6331.0,-156.0,-8026.0,2.0,1.0,-3.0,7.0,-11.0,-4.0,-8.0,5.0,2.1882717609405518
393,-4860.0,73.0,-2394.0,1.0,12802.0,6331.0,-156.0,-8026.0,7.0,5.0,9.0,-18.0,23.0,21.0,-25.0,4.0,2.1923751831054688
394,-4860.0,73.0,-2394.0,1.0,12802.0,6331.0,-156.0,-8026.0,-7.0,-6.0,-6.0,-22.0,-38.0,-3.0,0.0,-5.0,2.1957361698150635
395,-4690.0,284.0,-2261.0,1.0,12901.0,5725.0,442.0,-8308.0,-7.0,-6.0,-6.0,-22.0,-38.0,-3.0,0.0,-5.0,2.1979904174804688
396,-4690.0,284.0,-2261.0,1.0,12901.0,5725.0,442.0,-8308.0,-6.0,-11.0,-16.0,-21.0,-6.0,4.0,-7.0,-6.0,2.2003695964813232
397,-4690.0,284.0,-2261.0,1.0,12901.0,5725.0,442.0,-8308.0,-2.0,5.0,4.0,-25.0,-3.0,-6.0,13.0,-5.0,2.202784538269043
398,-4723.0,542.0,-2130.0,1.0,12975.0,5114.0,1074.0,-8531.0,-2.0,5.0,4.0,-25.0,-3.0,-6.0,13.0,-5.0,2.2121963500976562
399,-4723.0,542.0,-2130.0,1.0,12975.0,5114.0,1074.0,-8531.0,8.0,3.0,2.0,-6.0,79.0,7.0,72.0,31.0,2.2145402431488037
400,-4723.0,542.0,-2130.0,1.0,12975.0,5114.0,1074.0,-8531.0,-11.0,-11.0,-14.0,-47.0,49.0,-37.0,-43.0,-29.0,2.2171101570129395
401,-4325.0,891.0,-2054.0,1.0,12993.0,4566.0,1718.0,-8707.0,-11.0,-11.0,-14.0,-47.0,49.0,-37.0,-43.0,-29.0,2.2350881099700928
402,-4325.0,891.0,-2054.0,1.0,12993.0,4566.0,1718.0,-8707.0,2.0,5.0,10.0,17.0,20.0,-10.0,8.0,-5.0,2.2377521991729736
403,-4325.0,891.0,-2054.0,1.0,12993.0,4566.0,1718.0,-8707.0,5.0,4.0,8.0,57.0,70.0,21.0,15.0,12.0,2.2404074668884277
404,-3785.0,1220.0,-2051.0,1.0,12946.0,4105.0,2359.0,-8855.0,5.0,4.0,8.0,57.0,70.0,21.0,15.0,12.0,2.24837589263916
405,-3785.0,1220.0,-2051.0,1.0,12946.0,4105.0,2359.0,-8855.0,-2.0,2.0,10.0,90.0,17.0,-22.0,-30.0,-6.0,2.256518602371216
406,-3785.0,1220.0,-2051.0,1.0,12946.0,4105.0,2359.0,-8855.0,1.0,0.0,-1.0,-15.0,-6.0,33.0,54.0,9.0,2.258802652359009
407,-3212.0,1458.0,-2258.0,1.0,12816.0,3726.0,2991.0,-9019.0,1.0,0.0,-1.0,-15.0,-6.0,33.0,54.0,9.0,2.2733869552612305
408,-3212.0,1458.0,-2258.0,1.0,12816.0,3726.0,2991.0,-9019.0,5.0,4.0,8.0,31.0,19.0,46.0,-66.0,5.0,2.278085947036743
409,-3212.0,1458.0,-2258.0,1.0,12816.0,3726.0,2991.0,-9019.0,-8.0,-8.0,-17.0,-92.0,-8.0,-17.0,-20.0,-36.0,2.2826061248779297
410,-2733.0,1526.0,-2581.0,1.0,12603.0,3396.0,3601.0,-9225.0,-8.0,-8.0,-17.0,-92.0,-8.0,-17.0,-20.0,-36.0,2.295698881149292
411,-2733.0,1526.0,-2581.0,1.0,12603.0,3396.0,3601.0,-9225.0,1.0,-4.0,-8.0,6.0,-15.0,-93.0,-89.0,-2.0,2.3014700412750244
412,-2733.0,1526.0,-2581.0,1.0,12603.0,3396.0,3601.0,-9225.0,7.0,7.0,7.0,7.0,-39.0,53.0,-9.0,33.0,2.3069450855255127
413,-2062.0,1458.0,-2737.0,1.0,12324.0,3142.0,4143.0,-9460.0,7.0,7.0,7.0,7.0,-39.0,53.0,-9.0,33.0,2.3095500469207764
414,-2062.0,1458.0,-2737.0,1.0,12324.0,3142.0,4143.0,-9460.0,-12.0,-14.0,-24.0,-115.0,-46.0,11.0,-69.0,-23.0,2.3167197704315186
415,-2062.0,1458.0,-2737.0,1.0,12324.0,3142.0,4143.0,-9460.0,6.0,7.0,17.0,127.0,34.0,-16.0,44.0,32.0,2.3190724849700928
416,-1429.0,1303.0,-2593.0,1.0,12019.0,2960.0,4609.0,-9693.0,6.0,7.0,17.0,127.0,34.0,-16.0,44.0,32.0,2.332552671432495
417,-1429.0,1303.0,-2593.0,1.0,12019.0,2960.0,4609.0,-9693.0,20.0,14.0,12.0,15.0,3.0,44.0,-33.0,29.0,2.335383892059326
418,-1429.0,1303.0,-2593.0,1.0,12019.0,2960.0,4609.0,-9693.0,6.0,-4.0,-14.0,10.0,-3.0,-28.0,-68.0,6.0,2.3377935886383057
419,-564.0,1349.0,-2113.0,1.0,11742.0,2921.0,4912.0,-9895.0,6.0,-4.0,-14.0,10.0,-3.0,-28.0,-68.0,6.0,2.3549587726593018
420,-564.0,1349.0,-2113.0,1.0,11742.0,2921.0,4912.0,-9895.0,12.0,14.0,5.0,-45.0,-50.0,-49.0,18.0,28.0,2.357313871383667
421,-564.0,1349.0,-2113.0,1.0,11742.0,2921.0,4912.0,-9895.0,-1.0,1.0,10.0,37.0,-70.0,54.0,15.0,-35.0,2.359612464904785
422,1698.0,1247.0,-1463.0,1.0,11458.0,3194.0,4933.0,-10129.0,-1.0,1.0,10.0,37.0,-70.0,54.0,15.0,-35.0,2.3686368465423584
423,1698.0,1247.0,-1463.0,1.0,11458.0,3194.0,4933.0,-10129.0,-25.0,-16.0,-22.0,-17.0,-128.0,-20.0,21.0,-21.0,2.3770458698272705
424,1698.0,1247.0,-1463.0,1.0,11458.0,3194.0,4933.0,-10129.0,7.0,12.0,24.0,52.0,17.0,-24.0,34.0,-33.0,2.379340887069702
425,4052.0,964.0,-248.0,1.0,11226.0,3790.0,4610.0,-10334.0,7.0,12.0,24.0,52.0,17.0,-24.0,34.0,-33.0,2.3935093879699707
426,4052.0,964.0,-248.0,1.0,11226.0,3790.0,4610.0,-10334.0,6.0,5.0,13.0,16.0,67.0,25.0,-17.0,-87.0,2.399054765701294
427,4052.0,964.0,-248.0,1.0,11226.0,3790.0,4610.0,-10334.0,-33.0,-18.0,-13.0,14.0,22.0,-25.0,-76.0,72.0,2.403397798538208
428,4798.0,1124.0,878.0,1.0,11054.0,4541.0,4164.0,-10406.0,-33.0,-18.0,-13.0,14.0,22.0,-25.0,-76.0,72.0,2.4149107933044434
429,4798.0,1124.0,878.0,1.0,11054.0,4541.0,4164.0,-10406.0,27.0,5.0,0.0,7.0,-4.0,11.0,-7.0,127.0,2.4193062782287598
430,4798.0,1124.0,878.0,1.0,11054.0,4541.0,4164.0,-10406.0,-64.0,-22.0,-22.0,-50.0,-78.0,-84.0,-98.0,-62.0,2.423248529434204
431,5217.0,1446.0,2850.0,1.0,11028.0,5452.0,3597.0,-10205.0,-64.0,-22.0,-22.0,-50.0,-78.0,-84.0,-98.0,-62.0,2.438427209854126
432,5217.0,1446.0,2850.0,1.0,11028.0,5452.0,3597.0,-10205.0,-20.0,-7.0,0.0,62.0,-16.0,39.0,92.0,61.0,2.442570447921753
433,5217.0,1446.0,2850.0,1.0,11028.0,5452.0,3597.0,-10205.0,51.0,10.0,-6.0,-14.0,127.0,127.0,101.0,68.0,2.446547031402588
434,5989.0,2311.0,5120.0,1.0,11107.0,6604.0,2892.0,-9648.0,51.0,10.0,-6.0,-14.0,127.0,127.0,101.0,68.0,2.4620182514190674
435,5989.0,2311.0,5120.0,1.0,11107.0,6604.0,2892.0,-9648.0,4.0,-1.0,1.0,-19.0,124.0,88.0,-94.0,-114.0,2.4675419330596924
436,5989.0,2311.0,5120.0,1.0,11107.0,6604.0,2892.0,-9648.0,-4.0,-16.0,11.0,83.0,-107.0,-76.0,-2.0,23.0,2.4718923568725586
437,6786.0,3585.0,6985.0,1.0,11169.0,7974.0,2096.0,-8701.0,-4.0,-16.0,11.0,83.0,-107.0,-76.0,-2.0,23.0,2.4741852283477783
438,6786.0,3585.0,6985.0,1.0,11169.0,7974.0,2096.0,-8701.0,44.0,20.0,6.0,-108.0,78.0,127.0,127.0,48.0,2.47652268409729
439,6786.0,3585.0,6985.0,1.0,11169.0,7974.0,2096.0,-8701.0,1.0,20.0,25.0,-30.0,-45.0,-112.0,-95.0,-57.0,2.4788730144500732
440,6756.0,4512.0,8979.0,1.0,11232.0,9349.0,1213.0,-7306.0,1.0,20.0,25.0,-30.0,-45.0,-112.0,-95.0,-57.0,2.497129201889038
441,6756.0,4512.0,8979.0,1.0,11232.0,9349.0,1213.0,-7306.0,-17.0,-33.0,-20.0,9.0,117.0,32.0,57.0,61.0,2.4995040893554688
442,6756.0,4512.0,8979.0,1.0,11232.0,9349.0,1213.0,-7306.0,25.0,21.0,5.0,-35.0,-37.0,20.0,-65.0,-53.0,2.501795768737793
443,6589.0,5066.0,10498.0,1.0,11211.0,10587.0,235.0,-5531.0,25.0,21.0,5.0,-35.0,-37.0,20.0,-65.0,-53.0,2.5114920139312744
444,6589.0,5066.0,10498.0,1.0,11211.0,10587.0,235.0,-5531.0,21.0,-56.0,81.0,-63.0,-112.0,-128.0,-29.0,-63.0,2.513873338699341
445,6589.0,5066.0,10498.0,1.0,11211.0,10587.0,235.0,-5531.0,100.0,47.0,-96.0,-70.0,75.0,29.0,73.0,77.0,2.5183796882629395
446,5521.0,4339.0,8802.0,1.0,11010.0,11460.0,-580.0,-3938.0,100.0,47.0,-96.0,-70.0,75.0,29.0,73.0,77.0,2.5346806049346924
447,5521.0,4339.0,8802.0,1.0,11010.0,11460.0,-580.0,-3938.0,-16.0,-54.0,-124.0,-32.0,127.0,91.0,65.0,-15.0,2.5370049476623535
448,5521.0,4339.0,8802.0,1.0,11010.0,11460.0,-580.0,-3938.0,-39.0,-4.0,62.0,-66.0,-33.0,-14.0,-22.0,15.0,2.5392892360687256
449,5185.0,2897.0,8981.0,1.0,10693.0,12068.0,-1567.0,-2448.0,-39.0,-4.0,62.0,-66.0,-33.0,-14.0,-22.0,15.0,2.557654857635498
450,5185.0,2897.0,8981.0,1.0,10693.0,12068.0,-1567.0,-2448.0,-24.0,82.0,-60.0,-25.0,-7.0,-99.0,1.0,-59.0,2.5601046085357666
451,5185.0,2897.0,8981.0,1.0,10693.0,12068.0,-1567.0,-2448.0,22.0,13.0,-9.0,79.0,108.0,114.0,55.0,91.0,2.5623955726623535
452,2589.0,1448.0,4421.0,1.0,10477.0,12313.0,-2045.0,-1694.0,22.0,13.0,-9.0,79.0,108.0,114.0,55.0,91.0,2.5714938640594482
453,2589.0,1448.0,4421.0,1.0,10477.0,12313.0,-2045.0,-1694.0,-18.0,-25.0,90.0,127.0,-128.0,-107.0,-34.0,-39.0,2.573822498321533
454,2589.0,1448.0,4421.0,1.0,10477.0,12313.0,-2045.0,-1694.0,120.0,-18.0,-28.0,73.0,127.0,25.0,20.0,-4.0,2.585880994796753
455,-1183.0,-83.0,-626.0,1.0,10621.0,12188.0,-1949.0,-1803.0,120.0,-18.0,-28.0,73.0,127.0,25.0,20.0,-4.0,2.6021523475646973
456,-1183.0,-83.0,-626.0,1.0,10621.0,12188.0,-1949.0,-1803.0,-52.0,-68.0,-114.0,8.0,-84.0,-52.0,76.0,-44.0,2.6065306663513184
457,-1183.0,-83.0,-626.0,1.0,10621.0,12188.0,-1949.0,-1803.0,-86.0,38.0,-64.0,-58.0,-10.0,15.0,46.0,6.0,2.61074161529541
458,-1381.0,-738.0,3395.0,1.0,10879.0,11903.0,-2460.0,-1530.0,-86.0,38.0,-64.0,-58.0,-10.0,15.0,46.0,6.0,2.6189231872558594
459,-1381.0,-738.0,3395.0,1.0,10879.0,11903.0,-2460.0,-1530.0,93.0,127.0,-8.0,19.0,-103.0,-62.0,-49.0,-54.0,2.6218693256378174
460,-1381.0,-738.0,3395.0,1.0,10879.0,11903.0,-2460.0,-1530.0,-127.0,-97.0,-45.0,-36.0,9.0,-38.0,-23.0,-128.0,2.624134063720703
461,-89.0,1133.0,3290.0,1.0,10980.0,11806.0,-2728.0,-1016.0,-127.0,-97.0,-45.0,-36.0,9.0,-38.0,-23.0,-128.0,2.6315290927886963
462,-89.0,1133.0,3290.0,1.0,10980.0,11806.0,-2728.0,-1016.0,-70.0,85.0,127.0,124.0,64.0,127.0,39.0,73.0,2.633859157562256
463,-89.0,1133.0,3290.0,1.0,10980.0,11806.0,-2728.0,-1016.0,53.0,119.0,38.0,-41.0,91.0,50.0,-12.0,92.0,2.638401508331299
464,1510.0,274.0,2368.0,1.0,10828.0,11902.0,-3018.0,-646.0,53.0,119.0,38.0,-41.0,91.0,50.0,-12.0,92.0,2.6545250415802
465,1510.0,274.0,2368.0,1.0,10828.0,11902.0,-3018.0,-646.0,28.0,14.0,73.0,35.0,104.0,-58.0,106.0,-1.0,2.6619083881378174
466,1510.0,274.0,2368.0,1.0,10828.0,11902.0,-3018.0,-646.0,-125.0,-28.0,53.0,52.0,-78.0,31.0,103.0,-14.0,2.6642041206359863
467,2092.0,363.0,1552.0,1.0,10594.0,12079.0,-3191.0,-341.0,-125.0,-28.0,53.0,52.0,-78.0,31.0,103.0,-14.0,2.677595853805542
468,2092.0,363.0,1552.0,1.0,10594.0,12079.0,-3191.0,-341.0,-14.0,113.0,-32.0,-68.0,-63.0,40.0,101.0,68.0,2.681597948074341
469,2092.0,363.0,1552.0,1.0,10594.0,12079.0,-3191.0,-341.0,-17.0,5.0,91.0,82.0,8.0,-28.0,85.0,-33.0,2.6861650943756104
470,1329.0,551.0,1456.0,1.0,10474.0,12160.0,-3292.0,-84.0,-17.0,5.0,91.0,82.0,8.0,-28.0,85.0,-33.0,2.6923396587371826
471,1329.0,551.0,1456.0,1.0,10474.0,12160.0,-3292.0,-84.0,31.0,-56.0,21.0,58.0,35.0,-10.0,-23.0,2.0,2.694746255874634
472,1329.0,551.0,1456.0,1.0,10474.0,12160.0,-3292.0,-84.0,55.0,-35.0,-63.0,9.0,23.0,52.0,75.0,-74.0,2.6974220275878906
473,243.0,391.0,982.0,1.0,10450.0,12161.0,-3363.0,69.0,55.0,-35.0,-63.0,9.0,23.0,52.0,75.0,-74.0,2.715021848678589
474,243.0,391.0,982.0,1.0,10450.0,12161.0,-3363.0,69.0,4.0,-59.0,20.0,-21.0,96.0,48.0,41.0,81.0,2.717491626739502
475,243.0,391.0,982.0,1.0,10450.0,12161.0,-3363.0,69.0,-35.0,-104.0,-94.0,-128.0,-81.0,-22.0,-100.0,-41.0,2.7197749614715576
476,133.0,236.0,492.0,1.0,10462.0,12135.0,-3418.0,188.0,-35.0,-104.0,-94.0,-128.0,-81.0,-22.0,-100.0,-41.0,2.737854480743408
477,133.0,236.0,492.0,1.0,10462.0,12135.0,-3418.0,188.0,35.0,69.0,20.0,68.0,-43.0,-27.0,-72.0,-24.0,2.7401998043060303
478,133.0,236.0,492.0,1.0,10462.0,12135.0,-3418.0,188.0,62.0,-87.0,58.0,49.0,-81.0,-41.0,-34.0,24.0,2.742489814758301
479,637.0,297.0,-14.0,1.0,10393.0,12192.0,-3416.0,296.0,62.0,-87.0,58.0,49.0,-81.0,-41.0,-34.0,24.0,2.7505085468292236
480,637.0,297.0,-14.0,1.0,10393.0,12192.0,-3416.0,296.0,69.0,46.0,104.0,-28.0,-29.0,16.0,-62.0,-27.0,2.758993148803711
481,637.0,297.0,-14.0,1.0,10393.0,12192.0,-3416.0,296.0,-24.0,-49.0,64.0,-15.0,-67.0,-35.0,3.0,61.0,2.7612738609313965
482,489.0,255.0,-181.0,1.0,10326.0,12259.0,-3373.0,340.0,-24.0,-49.0,64.0,-15.0,-67.0,-35.0,3.0,61.0,2.7753541469573975
483,489.0,255.0,-181.0,1.0,10326.0,12259.0,-3373.0,340.0,-46.0,-128.0,-110.0,-62.0,-98.0,-43.0,53.0,-69.0,2.7805163860321045
484,489.0,255.0,-181.0,1.0,10326.0,12259.0,-3373.0,340.0,50.0,-3.0,61.0,74.0,127.0,-9.0,15.0,-40.0,2.7850022315979004
485,-13.0,178.0,-74.0,1.0,10323.0,12267.0,-3353.0,364.0,50.0,-3.0,61.0,74.0,127.0,-9.0,15.0,-40.0,2.7974305152893066
486,-13.0,178.0,-74.0,1.0,10323.0,12267.0,-3353.0,364.0,-46.0,3.0,49.0,99.0,127.0,41.0,87.0,-28.0,2.8012967109680176
487,-13.0,178.0,-74.0,1.0,10323.0,12267.0,-3353.0,364.0,-38.0,-56.0,-84.0,-19.0,-128.0,-107.0,-104.0,70.0,2.805220365524292
488,-51.0,248.0,-55.0,1.0,10322.0,12269.0,-3343.0,417.0,-38.0,-56.0,-84.0,-19.0,-128.0,-107.0,-104.0,70.0,2.8115756511688232
489,-51.0,248.0,-55.0,1.0,10322.0,12269.0,-3343.0,417.0,-72.0,-56.0,-26.0,-6.0,100.0,-5.0,-36.0,-32.0,2.8192107677459717
490,-51.0,248.0,-55.0,1.0,10322.0,12269.0,-3343.0,417.0,18.0,0.0,25.0,38.0,2.0,26.0,-34.0,-10.0,2.8214633464813232
491,18.0,280.0,-25.0,1.0,10311.0,12279.0,-3332.0,477.0,18.0,0.0,25.0,38.0,2.0,26.0,-34.0,-10.0,2.8351001739501953
492,18.0,280.0,-25.0,1.0,10311.0,12279.0,-3332.0,477.0,47.0,29.0,-69.0,-128.0,59.0,38.0,22.0,32.0,2.8400886058807373
493,18.0,280.0,-25.0,1.0,10311.0,12279.0,-3332.0,477.0,-6.0,38.0,11.0,-49.0,127.0,74.0,109.0,-18.0,2.84491229057312
494,-105.0,267.0,51.0,1.0,10323.0,12269.0,-3325.0,531.0,-6.0,38.0,11.0,-49.0,127.0,74.0,109.0,-18.0,2.857123851776123
495,-105.0,267.0,51.0,1.0,10323.0,12269.0,-3325.0,531.0,48.0,4.0,0.0,-37.0,-117.0,-41.0,-119.0,77.0,2.8594484329223633
496,-105.0,267.0,51.0,1.0,10323.0,12269.0,-3325.0,531.0,25.0,49.0,-33.0,-31.0,-8.0,0.0,-82.0,-3.0,2.861837387084961
497,-189.0,168.0,80.0,1.0,10341.0,12250.0,-3330.0,567.0,25.0,49.0,-33.0,-31.0,-8.0,0.0,-82.0,-3.0,2.871586561203003
498,-189.0,168.0,80.0,1.0,10341.0,12250.0,-3330.0,567.0,2.0,-38.0,-93.0,-11.0,-29.0,18.0,-39.0,33.0,2.874329090118408
499,-189.0,168.0,80.0,1.0,10341.0,12250.0,-3330.0,567.0,17.0,73.0,46.0,9.0,6.0,13.0,41.0,14.0,2.877962350845337
