,Gyro 0,Gyro 1,Gyro 2,Label,Orientation 0,Orientation 1,Orientation 2,Orientation 3,Sensor 0,Sensor 1,Sensor 2,Sensor 3,Sensor 4,Sensor 5,Sensor 6,Sensor 7,Timestamp
0,-198.0,-484.0,732.0,1.0,7278.0,13420.0,960.0,5867.0,0.0,-5.0,-6.0,-1.0,-1.0,-3.0,-9.0,-3.0,1.6689300537109375e-06
1,-198.0,-484.0,732.0,1.0,7278.0,13420.0,960.0,5867.0,-2.0,-4.0,-1.0,-1.0,0.0,-16.0,-6.0,-1.0,0.0020821094512939453
2,-198.0,-484.0,732.0,1.0,7278.0,13420.0,960.0,5867.0,-3.0,5.0,-3.0,-2.0,1.0,-3.0,8.0,-2.0,0.003969907760620117
3,470.0,-288.0,547.0,1.0,7072.0,13592.0,751.0,5751.0,-3.0,5.0,-3.0,-2.0,1.0,-3.0,8.0,-2.0,0.006075382232666016
4,470.0,-288.0,547.0,1.0,7072.0,13592.0,751.0,5751.0,-3.0,5.0,-3.0,-2.0,1.0,-3.0,8.0,-2.0,0.008025407791137695
5,470.0,-288.0,547.0,1.0,7072.0,13592.0,751.0,5751.0,-8.0,0.0,3.0,4.0,8.0,-21.0,4.0,-2.0,0.009876012802124023
6,470.0,-288.0,547.0,1.0,7072.0,13592.0,751.0,5751.0,-8.0,0.0,3.0,4.0,8.0,-21.0,4.0,-2.0,0.01164102554321289
7,470.0,-288.0,547.0,1.0,7072.0,13592.0,751.0,5751.0,-8.0,0.0,3.0,4.0,8.0,-21.0,4.0,-2.0,0.013245105743408203
8,-708.0,-753.0,742.0,1.0,7278.0,13354.0,1289.0,5954.0,-8.0,0.0,3.0,4.0,8.0,-21.0,4.0,-2.0,0.01483297348022461
9,-440.0,-674.0,758.0,1.0,7291.0,13386.0,1104.0,5902.0,-8.0,0.0,3.0,4.0,8.0,-21.0,4.0,-2.0,0.016654014587402344
10,-198.0,-484.0,732.0,1.0,7278.0,13420.0,960.0,5867.0,-8.0,0.0,3.0,4.0,8.0,-21.0,4.0,-2.0,0.01848459243774414
11,-198.0,-484.0,732.0,1.0,7278.0,13420.0,960.0,5867.0,1.0,0.0,-1.0,0.0,-2.0,-4.0,2.0,3.0,0.020386219024658203
12,-198.0,-484.0,732.0,1.0,7278.0,13420.0,960.0,5867.0,0.0,-5.0,-6.0,-1.0,-1.0,-3.0,-9.0,-3.0,0.022260665893554688
13,-198.0,-484.0,732.0,1.0,7278.0,13420.0,960.0,5867.0,-2.0,-4.0,-1.0,-1.0,0.0,-16.0,-6.0,-1.0,0.024324417114257812
14,-198.0,-484.0,732.0,1.0,7278.0,13420.0,960.0,5867.0,-3.0,5.0,-3.0,-2.0,1.0,-3.0,8.0,-2.0,0.02616262435913086
15,-198.0,-484.0,732.0,1.0,7278.0,13420.0,960.0,5867.0,-3.0,5.0,-3.0,-2.0,1.0,-3.0,8.0,-2.0,0.0279083251953125
16,-198.0,-484.0,732.0,1.0,7278.0,13420.0,960.0,5867.0,-3.0,-2.0,4.0,0.0,-5.0,-3.0,6.0,2.0,0.029474496841430664
17,397.0,-316.0,347.0,1.0,7021.0,13646.0,732.0,5688.0,-3.0,-2.0,4.0,0.0,-5.0,-3.0,6.0,2.0,0.031224966049194336
18,397.0,-316.0,347.0,1.0,7021.0,13646.0,732.0,5688.0,-5.0,-5.0,-3.0,0.0,-2.0,8.0,0.0,0.0,0.03310227394104004
19,397.0,-316.0,347.0,1.0,7021.0,13646.0,732.0,5688.0,0.0,2.0,3.0,5.0,3.0,-6.0,-4.0,4.0,0.03485584259033203
20,201.0,-319.0,161.0,1.0,7022.0,13677.0,731.0,5613.0,0.0,2.0,3.0,5.0,3.0,-6.0,-4.0,4.0,0.036623477935791016
21,201.0,-319.0,161.0,1.0,7022.0,13677.0,731.0,5613.0,2.0,0.0,-1.0,-6.0,0.0,16.0,3.0,2.0,0.03845381736755371
22,201.0,-319.0,161.0,1.0,7022.0,13677.0,731.0,5613.0,-1.0,-4.0,-5.0,-8.0,-4.0,-4.0,0.0,-3.0,0.04019427299499512
23,-298.0,-338.0,-10.0,1.0,7159.0,13663.0,697.0,5476.0,-1.0,-4.0,-5.0,-8.0,-4.0,-4.0,0.0,-3.0,0.041977643966674805
24,-298.0,-338.0,-10.0,1.0,7159.0,13663.0,697.0,5476.0,-4.0,1.0,-2.0,-6.0,-8.0,1.0,-6.0,0.0,0.04379749298095703
25,-298.0,-338.0,-10.0,1.0,7159.0,13663.0,697.0,5476.0,-2.0,2.0,-1.0,4.0,7.0,0.0,1.0,1.0,0.04553389549255371
26,-200.0,-215.0,106.0,1.0,7211.0,13640.0,653.0,5471.0,-2.0,2.0,-1.0,4.0,7.0,0.0,1.0,1.0,0.04736638069152832
27,-200.0,-215.0,106.0,1.0,7211.0,13640.0,653.0,5471.0,0.0,-2.0,1.0,-1.0,-2.0,1.0,-4.0,-4.0,0.04920816421508789
28,-200.0,-215.0,106.0,1.0,7211.0,13640.0,653.0,5471.0,4.0,3.0,6.0,-3.0,1.0,3.0,-3.0,-6.0,0.05168294906616211
29,-78.0,-123.0,204.0,1.0,7230.0,13622.0,601.0,5496.0,4.0,3.0,6.0,-3.0,1.0,3.0,-3.0,-6.0,0.054056644439697266
30,-78.0,-123.0,204.0,1.0,7230.0,13622.0,601.0,5496.0,-3.0,-1.0,-5.0,-1.0,-5.0,4.0,-5.0,-1.0,0.055956125259399414
31,-78.0,-123.0,204.0,1.0,7230.0,13622.0,601.0,5496.0,-6.0,-1.0,0.0,-1.0,-7.0,0.0,-4.0,-1.0,0.057965993881225586
32,-75.0,-49.0,205.0,1.0,7244.0,13605.0,556.0,5527.0,-6.0,-1.0,0.0,-1.0,-7.0,0.0,-4.0,-1.0,0.059722185134887695
33,-75.0,-49.0,205.0,1.0,7244.0,13605.0,556.0,5527.0,0.0,1.0,0.0,7.0,10.0,-2.0,0.0,4.0,0.06160473823547363
34,-75.0,-49.0,205.0,1.0,7244.0,13605.0,556.0,5527.0,-3.0,-3.0,-8.0,-10.0,-5.0,18.0,5.0,0.0,0.06354975700378418
35,-315.0,-10.0,194.0,1.0,7286.0,13572.0,503.0,5556.0,-3.0,-3.0,-8.0,-10.0,-5.0,18.0,5.0,0.0,0.06550216674804688
36,-315.0,-10.0,194.0,1.0,7286.0,13572.0,503.0,5556.0,-4.0,-6.0,-2.0,9.0,1.0,-4.0,-6.0,-2.0,0.06735730171203613
37,-455.0,-30.0,190.0,1.0,7339.0,13536.0,439.0,5579.0,-4.0,-6.0,-2.0,9.0,1.0,-4.0,-6.0,-2.0,0.06909847259521484
38,-455.0,-30.0,190.0,1.0,7339.0,13536.0,439.0,5579.0,2.0,1.0,0.0,0.0,-11.0,-2.0,5.0,4.0,0.07101225852966309
39,-455.0,-30.0,190.0,1.0,7339.0,13536.0,439.0,5579.0,0.0,-2.0,-2.0,2.0,0.0,-10.0,-10.0,-5.0,0.07340812683105469
40,-455.0,-30.0,190.0,1.0,7339.0,13536.0,439.0,5579.0,1.0,0.0,-10.0,-7.0,-10.0,-4.0,-7.0,2.0,0.0754539966583252
41,-390.0,-142.0,138.0,1.0,7425.0,13495.0,313.0,5574.0,1.0,0.0,-10.0,-7.0,-10.0,-4.0,-7.0,2.0,0.07718396186828613
42,-390.0,-142.0,138.0,1.0,7425.0,13495.0,313.0,5574.0,1.0,-4.0,-6.0,10.0,9.0,19.0,13.0,3.0,0.07934427261352539
43,-390.0,-142.0,138.0,1.0,7425.0,13495.0,313.0,5574.0,1.0,-1.0,3.0,7.0,3.0,24.0,4.0,1.0,0.08157134056091309
44,-346.0,-191.0,53.0,1.0,7464.0,13487.0,269.0,5544.0,1.0,-1.0,3.0,7.0,3.0,24.0,4.0,1.0,0.0838921070098877
45,-346.0,-191.0,53.0,1.0,7464.0,13487.0,269.0,5544.0,10.0,16.0,9.0,0.0,8.0,-3.0,18.0,2.0,0.08590555191040039
46,-346.0,-191.0,53.0,1.0,7464.0,13487.0,269.0,5544.0,0.0,1.0,6.0,8.0,23.0,-26.0,2.0,-5.0,0.08766007423400879
47,-229.0,-197.0,-82.0,1.0,7486.0,13494.0,252.0,5497.0,0.0,1.0,6.0,8.0,23.0,-26.0,2.0,-5.0,0.08940863609313965
48,-229.0,-197.0,-82.0,1.0,7486.0,13494.0,252.0,5497.0,-14.0,-17.0,6.0,3.0,-19.0,-8.0,-18.0,-7.0,0.091278076171875
49,-229.0,-197.0,-82.0,1.0,7486.0,13494.0,252.0,5497.0,0.0,0.0,-21.0,-17.0,27.0,-25.0,1.0,2.0,0.0930182933807373
50,-212.0,-250.0,-145.0,1.0,7511.0,13505.0,242.0,5435.0,0.0,0.0,-21.0,-17.0,27.0,-25.0,1.0,2.0,0.09483838081359863
51,-212.0,-250.0,-145.0,1.0,7511.0,13505.0,242.0,5435.0,6.0,10.0,5.0,18.0,12.0,8.0,0.0,-1.0,0.09883236885070801
52,-212.0,-250.0,-145.0,1.0,7511.0,13505.0,242.0,5435.0,-5.0,-7.0,-4.0,14.0,28.0,14.0,17.0,-4.0,0.1024925708770752
53,-197.0,-342.0,-96.0,1.0,7528.0,13525.0,217.0,5362.0,-5.0,-7.0,-4.0,14.0,28.0,14.0,17.0,-4.0,0.10529804229736328
54,-197.0,-342.0,-96.0,1.0,7528.0,13525.0,217.0,5362.0,-8.0,-26.0,-54.0,-38.0,-49.0,-12.0,-11.0,-4.0,0.10818314552307129
55,-197.0,-342.0,-96.0,1.0,7528.0,13525.0,217.0,5362.0,1.0,-15.0,-16.0,-3.0,-28.0,-16.0,-6.0,2.0,0.11029553413391113
56,-197.0,-342.0,-96.0,1.0,7528.0,13525.0,217.0,5362.0,3.0,8.0,7.0,-39.0,-29.0,17.0,3.0,2.0,0.11233401298522949
57,-307.0,-324.0,74.0,1.0,7589.0,13533.0,106.0,5259.0,3.0,8.0,7.0,-39.0,-29.0,17.0,3.0,2.0,0.11519813537597656
58,-307.0,-324.0,74.0,1.0,7589.0,13533.0,106.0,5259.0,-5.0,1.0,15.0,9.0,53.0,8.0,1.0,-2.0,0.11706233024597168
59,-307.0,-324.0,74.0,1.0,7589.0,13533.0,106.0,5259.0,-2.0,-4.0,15.0,10.0,-27.0,4.0,-5.0,1.0,0.11884784698486328
60,-254.0,-177.0,137.0,1.0,7613.0,13520.0,47.0,5258.0,-2.0,-4.0,15.0,10.0,-27.0,4.0,-5.0,1.0,0.12059402465820312
61,-254.0,-177.0,137.0,1.0,7613.0,13520.0,47.0,5258.0,-7.0,1.0,3.0,-8.0,7.0,-1.0,-9.0,-8.0,0.12265300750732422
62,-254.0,-177.0,137.0,1.0,7613.0,13520.0,47.0,5258.0,-4.0,-1.0,5.0,12.0,43.0,9.0,5.0,1.0,0.12455630302429199
63,-254.0,-177.0,137.0,1.0,7613.0,13520.0,47.0,5258.0,8.0,8.0,16.0,6.0,6.0,8.0,3.0,6.0,0.12634563446044922
64,152.0,-22.0,157.0,1.0,7589.0,13521.0,2.0,5291.0,8.0,8.0,16.0,6.0,6.0,8.0,3.0,6.0,0.12816429138183594
65,152.0,-22.0,157.0,1.0,7589.0,13521.0,2.0,5291.0,-5.0,-1.0,-6.0,6.0,36.0,7.0,15.0,3.0,0.13003849983215332
66,152.0,-22.0,157.0,1.0,7589.0,13521.0,2.0,5291.0,-10.0,3.0,-1.0,-5.0,-26.0,-6.0,-9.0,-9.0,0.1317896842956543
67,151.0,-88.0,256.0,1.0,7561.0,13535.0,-29.0,5295.0,-10.0,3.0,-1.0,-5.0,-26.0,-6.0,-9.0,-9.0,0.13353443145751953
68,151.0,-88.0,256.0,1.0,7561.0,13535.0,-29.0,5295.0,-4.0,1.0,-19.0,-3.0,-9.0,-3.0,-28.0,-2.0,0.13536620140075684
69,151.0,-88.0,256.0,1.0,7561.0,13535.0,-29.0,5295.0,-3.0,-18.0,-45.0,-5.0,-34.0,-14.0,-19.0,-5.0,0.13711261749267578
70,-84.0,-48.0,317.0,1.0,7563.0,13527.0,-81.0,5314.0,-3.0,-18.0,-45.0,-5.0,-34.0,-14.0,-19.0,-5.0,0.13888263702392578
71,-84.0,-48.0,317.0,1.0,7563.0,13527.0,-81.0,5314.0,2.0,-18.0,-18.0,3.0,48.0,12.0,4.0,3.0,0.14070630073547363
72,-84.0,-48.0,317.0,1.0,7563.0,13527.0,-81.0,5314.0,-5.0,-22.0,1.0,-6.0,-14.0,-20.0,-22.0,-11.0,0.1426093578338623
73,-134.0,21.0,333.0,1.0,7567.0,13511.0,-135.0,5346.0,-5.0,-22.0,1.0,-6.0,-14.0,-20.0,-22.0,-11.0,0.14531970024108887
74,-134.0,21.0,333.0,1.0,7567.0,13511.0,-135.0,5346.0,16.0,53.0,18.0,-5.0,-12.0,1.0,6.0,12.0,0.14728164672851562
75,-134.0,21.0,333.0,1.0,7567.0,13511.0,-135.0,5346.0,16.0,53.0,18.0,-5.0,-12.0,1.0,6.0,12.0,0.14912080764770508
76,-134.0,21.0,333.0,1.0,7567.0,13511.0,-135.0,5346.0,3.0,12.0,-4.0,22.0,15.0,11.0,8.0,16.0,0.15088725090026855
77,-50.0,57.0,315.0,1.0,7553.0,13504.0,-183.0,5384.0,3.0,12.0,-4.0,22.0,15.0,11.0,8.0,16.0,0.1530008316040039
78,-50.0,57.0,315.0,1.0,7553.0,13504.0,-183.0,5384.0,-15.0,-33.0,-30.0,6.0,-18.0,-8.0,2.0,-22.0,0.15508723258972168
79,-50.0,57.0,315.0,1.0,7553.0,13504.0,-183.0,5384.0,6.0,25.0,-2.0,-11.0,-3.0,7.0,2.0,6.0,0.15701603889465332
80,-32.0,65.0,340.0,1.0,7542.0,13492.0,-230.0,5425.0,6.0,25.0,-2.0,-11.0,-3.0,7.0,2.0,6.0,0.15875768661499023
81,-32.0,65.0,340.0,1.0,7542.0,13492.0,-230.0,5425.0,10.0,39.0,53.0,-7.0,-76.0,-20.0,-22.0,-4.0,0.16066265106201172
82,-32.0,65.0,340.0,1.0,7542.0,13492.0,-230.0,5425.0,-3.0,-19.0,-44.0,-7.0,10.0,0.0,-1.0,-5.0,0.16247200965881348
83,-91.0,52.0,288.0,1.0,7544.0,13479.0,-270.0,5453.0,-3.0,-19.0,-44.0,-7.0,10.0,0.0,-1.0,-5.0,0.1643524169921875
84,-91.0,52.0,288.0,1.0,7544.0,13479.0,-270.0,5453.0,-6.0,-19.0,-12.0,-10.0,25.0,4.0,10.0,1.0,0.166243314743042
85,-91.0,52.0,288.0,1.0,7544.0,13479.0,-270.0,5453.0,1.0,-7.0,6.0,10.0,13.0,13.0,11.0,0.0,0.16800713539123535
86,-196.0,41.0,233.0,1.0,7566.0,13453.0,-313.0,5485.0,1.0,-7.0,6.0,10.0,13.0,13.0,11.0,0.0,0.16977882385253906
87,-196.0,41.0,233.0,1.0,7566.0,13453.0,-313.0,5485.0,-3.0,-32.0,-25.0,-8.0,-8.0,-10.0,-55.0,-12.0,0.17163944244384766
88,-196.0,41.0,233.0,1.0,7566.0,13453.0,-313.0,5485.0,2.0,13.0,18.0,0.0,24.0,17.0,-15.0,8.0,0.17400360107421875
89,-118.0,64.0,201.0,1.0,7581.0,13428.0,-347.0,5523.0,2.0,13.0,18.0,0.0,24.0,17.0,-15.0,8.0,0.17625761032104492
90,-118.0,64.0,201.0,1.0,7581.0,13428.0,-347.0,5523.0,-3.0,5.0,16.0,7.0,-28.0,-21.0,3.0,3.0,0.17821121215820312
91,-118.0,64.0,201.0,1.0,7581.0,13428.0,-347.0,5523.0,-2.0,-6.0,-1.0,1.0,-2.0,-1.0,10.0,-7.0,0.18004775047302246
92,-57.0,67.0,187.0,1.0,7590.0,13410.0,-371.0,5554.0,-2.0,-6.0,-1.0,1.0,-2.0,-1.0,10.0,-7.0,0.18204832077026367
93,-57.0,67.0,187.0,1.0,7590.0,13410.0,-371.0,5554.0,8.0,19.0,2.0,0.0,46.0,15.0,20.0,5.0,0.18413090705871582
94,-57.0,67.0,187.0,1.0,7590.0,13410.0,-371.0,5554.0,3.0,4.0,5.0,-3.0,-26.0,-9.0,32.0,0.0,0.18593072891235352
95,-159.0,83.0,179.0,1.0,7614.0,13385.0,-394.0,5579.0,3.0,4.0,5.0,-3.0,-26.0,-9.0,32.0,0.0,0.18771624565124512
96,-159.0,83.0,179.0,1.0,7614.0,13385.0,-394.0,5579.0,2.0,0.0,11.0,7.0,30.0,6.0,-1.0,-1.0,0.18953752517700195
97,-159.0,83.0,179.0,1.0,7614.0,13385.0,-394.0,5579.0,-7.0,-10.0,17.0,-2.0,22.0,15.0,29.0,0.0,0.191314697265625
98,-254.0,111.0,185.0,1.0,7648.0,13353.0,-422.0,5606.0,-7.0,-10.0,17.0,-2.0,22.0,15.0,29.0,0.0,0.19310450553894043
99,-254.0,111.0,185.0,1.0,7648.0,13353.0,-422.0,5606.0,-8.0,5.0,10.0,5.0,-3.0,-28.0,0.0,-9.0,0.1949748992919922
100,-254.0,111.0,185.0,1.0,7648.0,13353.0,-422.0,5606.0,1.0,1.0,-4.0,1.0,7.0,3.0,1.0,7.0,0.19672727584838867
101,-218.0,114.0,154.0,1.0,7672.0,13327.0,-447.0,5634.0,1.0,1.0,-4.0,1.0,7.0,3.0,1.0,7.0,0.19854164123535156
102,-218.0,114.0,154.0,1.0,7672.0,13327.0,-447.0,5634.0,-1.0,-3.0,2.0,-2.0,0.0,5.0,3.0,2.0,0.20036768913269043
103,-218.0,114.0,154.0,1.0,7672.0,13327.0,-447.0,5634.0,-1.0,-5.0,-7.0,-2.0,10.0,-9.0,-10.0,-3.0,0.2021348476409912
104,-131.0,108.0,117.0,1.0,7682.0,13311.0,-463.0,5656.0,-1.0,-5.0,-7.0,-2.0,10.0,-9.0,-10.0,-3.0,0.20402193069458008
105,-131.0,108.0,117.0,1.0,7682.0,13311.0,-463.0,5656.0,2.0,1.0,-1.0,-22.0,7.0,10.0,15.0,3.0,0.20623779296875
106,-131.0,108.0,117.0,1.0,7682.0,13311.0,-463.0,5656.0,4.0,3.0,7.0,7.0,-14.0,-4.0,-8.0,-6.0,0.20807957649230957
107,-127.0,72.0,98.0,1.0,7691.0,13302.0,-475.0,5665.0,4.0,3.0,7.0,7.0,-14.0,-4.0,-8.0,-6.0,0.20984959602355957
108,-127.0,72.0,98.0,1.0,7691.0,13302.0,-475.0,5665.0,-9.0,-16.0,3.0,2.0,16.0,11.0,12.0,0.0,0.21167278289794922
109,-127.0,72.0,98.0,1.0,7691.0,13302.0,-475.0,5665.0,9.0,14.0,4.0,-14.0,-15.0,-10.0,-14.0,-1.0,0.21342206001281738
110,-167.0,30.0,47.0,1.0,7705.0,13293.0,-490.0,5666.0,9.0,14.0,4.0,-14.0,-15.0,-10.0,-14.0,-1.0,0.21521854400634766
111,-167.0,30.0,47.0,1.0,7705.0,13293.0,-490.0,5666.0,6.0,3.0,26.0,0.0,0.0,6.0,-1.0,4.0,0.2170424461364746
112,-167.0,30.0,47.0,1.0,7705.0,13293.0,-490.0,5666.0,-12.0,1.0,7.0,1.0,-6.0,-7.0,-7.0,-9.0,0.2187950611114502
113,-125.0,-4.0,19.0,1.0,7711.0,13292.0,-502.0,5660.0,-12.0,1.0,7.0,1.0,-6.0,-7.0,-7.0,-9.0,0.22070932388305664
114,-125.0,-4.0,19.0,1.0,7711.0,13292.0,-502.0,5660.0,-4.0,0.0,15.0,10.0,10.0,10.0,1.0,1.0,0.22435855865478516
115,-125.0,-4.0,19.0,1.0,7711.0,13292.0,-502.0,5660.0,0.0,-3.0,14.0,-3.0,42.0,7.0,-4.0,1.0,0.227308988571167
116,-96.0,-57.0,12.0,1.0,7714.0,13296.0,-514.0,5644.0,0.0,-3.0,14.0,-3.0,42.0,7.0,-4.0,1.0,0.23030328750610352
117,-96.0,-57.0,12.0,1.0,7714.0,13296.0,-514.0,5644.0,-7.0,-7.0,-20.0,-4.0,-54.0,-15.0,-11.0,-11.0,0.23235201835632324
118,-96.0,-57.0,12.0,1.0,7714.0,13296.0,-514.0,5644.0,0.0,-6.0,-9.0,-3.0,20.0,5.0,-2.0,-1.0,0.23430514335632324
119,-147.0,-81.0,27.0,1.0,7727.0,13296.0,-532.0,5625.0,0.0,-6.0,-9.0,-3.0,20.0,5.0,-2.0,-1.0,0.2364048957824707
120,-147.0,-81.0,27.0,1.0,7727.0,13296.0,-532.0,5625.0,-1.0,-8.0,-41.0,-6.0,24.0,2.0,4.0,3.0,0.23848938941955566
121,-147.0,-81.0,27.0,1.0,7727.0,13296.0,-532.0,5625.0,-4.0,-7.0,-25.0,-7.0,-26.0,-1.0,1.0,-5.0,0.24044156074523926
122,-193.0,-71.0,5.0,1.0,7756.0,13285.0,-547.0,5611.0,-4.0,-7.0,-25.0,-7.0,-26.0,-1.0,1.0,-5.0,0.24245238304138184
123,-193.0,-71.0,5.0,1.0,7756.0,13285.0,-547.0,5611.0,7.0,6.0,-6.0,0.0,14.0,-5.0,2.0,3.0,0.24430489540100098
124,-193.0,-71.0,5.0,1.0,7756.0,13285.0,-547.0,5611.0,2.0,8.0,23.0,0.0,-23.0,-8.0,-3.0,2.0,0.24607086181640625
125,-205.0,-65.0,66.0,1.0,7776.0,13273.0,-578.0,5606.0,2.0,8.0,23.0,0.0,-23.0,-8.0,-3.0,2.0,0.24788379669189453
126,-205.0,-65.0,66.0,1.0,7776.0,13273.0,-578.0,5606.0,-2.0,-9.0,-39.0,-3.0,29.0,13.0,4.0,-3.0,0.24971389770507812
127,-205.0,-65.0,66.0,1.0,7776.0,13273.0,-578.0,5606.0,-5.0,-5.0,-3.0,2.0,-15.0,-11.0,-3.0,-1.0,0.2516601085662842
128,-205.0,-65.0,66.0,1.0,7776.0,13273.0,-578.0,5606.0,-3.0,-6.0,0.0,-5.0,-11.0,-27.0,-5.0,-2.0,0.25414443016052246
129,-111.0,-35.0,102.0,1.0,7798.0,13256.0,-634.0,5611.0,-3.0,-6.0,0.0,-5.0,-11.0,-27.0,-5.0,-2.0,0.2561337947845459
130,-111.0,-35.0,102.0,1.0,7798.0,13256.0,-634.0,5611.0,4.0,8.0,-6.0,0.0,-31.0,-3.0,3.0,0.0,0.2582712173461914
131,-111.0,-35.0,102.0,1.0,7798.0,13256.0,-634.0,5611.0,0.0,-28.0,-45.0,-3.0,-41.0,22.0,4.0,2.0,0.2602972984313965
132,-128.0,-11.0,86.0,1.0,7811.0,13242.0,-658.0,5622.0,0.0,-28.0,-45.0,-3.0,-41.0,22.0,4.0,2.0,0.26225829124450684
133,-128.0,-11.0,86.0,1.0,7811.0,13242.0,-658.0,5622.0,-5.0,-11.0,28.0,4.0,-3.0,-1.0,-6.0,-3.0,0.2643301486968994
134,-128.0,-11.0,86.0,1.0,7811.0,13242.0,-658.0,5622.0,-3.0,-3.0,18.0,-28.0,21.0,1.0,0.0,1.0,0.266618013381958
135,-33.0,-14.0,101.0,1.0,7811.0,13238.0,-676.0,5630.0,-3.0,-3.0,18.0,-28.0,21.0,1.0,0.0,1.0,0.268751859664917
136,-33.0,-14.0,101.0,1.0,7811.0,13238.0,-676.0,5630.0,-4.0,5.0,-9.0,-2.0,-8.0,-6.0,0.0,3.0,0.2707827091217041
137,-33.0,-14.0,101.0,1.0,7811.0,13238.0,-676.0,5630.0,2.0,8.0,6.0,5.0,24.0,-3.0,-11.0,-11.0,0.27340126037597656
138,-43.0,-51.0,125.0,1.0,7809.0,13235.0,-703.0,5636.0,2.0,8.0,6.0,5.0,24.0,-3.0,-11.0,-11.0,0.27541542053222656
139,-43.0,-51.0,125.0,1.0,7809.0,13235.0,-703.0,5636.0,0.0,5.0,12.0,-2.0,-24.0,-17.0,-2.0,1.0,0.27730703353881836
140,-43.0,-51.0,125.0,1.0,7809.0,13235.0,-703.0,5636.0,1.0,15.0,17.0,8.0,-23.0,0.0,0.0,1.0,0.2791757583618164
141,-73.0,3.0,118.0,1.0,7814.0,13225.0,-725.0,5649.0,1.0,15.0,17.0,8.0,-23.0,0.0,0.0,1.0,0.28096604347229004
142,-73.0,3.0,118.0,1.0,7814.0,13225.0,-725.0,5649.0,-1.0,-3.0,6.0,20.0,17.0,-3.0,-5.0,-5.0,0.2828352451324463
143,-73.0,3.0,118.0,1.0,7814.0,13225.0,-725.0,5649.0,7.0,-1.0,16.0,-5.0,-21.0,-1.0,4.0,11.0,0.28458571434020996
144,-41.0,62.0,134.0,1.0,7820.0,13211.0,-741.0,5674.0,7.0,-1.0,16.0,-5.0,-21.0,-1.0,4.0,11.0,0.2864658832550049
145,-41.0,62.0,134.0,1.0,7820.0,13211.0,-741.0,5674.0,-2.0,-3.0,9.0,8.0,17.0,7.0,1.0,6.0,0.28852367401123047
146,-41.0,62.0,134.0,1.0,7820.0,13211.0,-741.0,5674.0,-1.0,7.0,14.0,3.0,-1.0,4.0,-2.0,-2.0,0.2903304100036621
147,36.0,88.0,148.0,1.0,7812.0,13202.0,-751.0,5702.0,-1.0,7.0,14.0,3.0,-1.0,4.0,-2.0,-2.0,0.2920835018157959
148,36.0,88.0,148.0,1.0,7812.0,13202.0,-751.0,5702.0,-1.0,8.0,-32.0,-19.0,-16.0,-11.0,-7.0,-7.0,0.2939484119415283
149,36.0,88.0,148.0,1.0,7812.0,13202.0,-751.0,5702.0,1.0,10.0,-28.0,0.0,9.0,0.0,3.0,10.0,0.2957007884979248
150,38.0,84.0,151.0,1.0,7804.0,13197.0,-759.0,5725.0,1.0,10.0,-28.0,0.0,9.0,0.0,3.0,10.0,0.2982015609741211
151,38.0,84.0,151.0,1.0,7804.0,13197.0,-759.0,5725.0,-1.0,-25.0,-46.0,-26.0,8.0,9.0,6.0,-5.0,0.3004031181335449
152,38.0,84.0,151.0,1.0,7804.0,13197.0,-759.0,5725.0,-13.0,-12.0,-3.0,15.0,-12.0,-17.0,-2.0,-15.0,0.30222082138061523
153,-44.0,47.0,145.0,1.0,7808.0,13188.0,-772.0,5738.0,-13.0,-12.0,-3.0,15.0,-12.0,-17.0,-2.0,-15.0,0.30397534370422363
154,-44.0,47.0,145.0,1.0,7808.0,13188.0,-772.0,5738.0,11.0,14.0,54.0,14.0,1.0,2.0,0.0,6.0,0.3058445453643799
155,-44.0,47.0,145.0,1.0,7808.0,13188.0,-772.0,5738.0,7.0,15.0,8.0,-8.0,19.0,5.0,1.0,7.0,0.3075871467590332
156,-129.0,-3.0,150.0,1.0,7821.0,13175.0,-798.0,5746.0,7.0,15.0,8.0,-8.0,19.0,5.0,1.0,7.0,0.30939769744873047
157,-129.0,-3.0,150.0,1.0,7821.0,13175.0,-798.0,5746.0,-11.0,-11.0,11.0,15.0,9.0,2.0,-2.0,-3.0,0.31126952171325684
158,-129.0,-3.0,150.0,1.0,7821.0,13175.0,-798.0,5746.0,1.0,4.0,20.0,21.0,-8.0,0.0,1.0,5.0,0.3130180835723877
159,-138.0,-26.0,124.0,1.0,7832.0,13164.0,-828.0,5752.0,1.0,4.0,20.0,21.0,-8.0,0.0,1.0,5.0,0.31507205963134766
160,-138.0,-26.0,124.0,1.0,7832.0,13164.0,-828.0,5752.0,4.0,10.0,8.0,-11.0,-3.0,3.0,0.0,-2.0,0.3176138401031494
161,-138.0,-26.0,124.0,1.0,7832.0,13164.0,-828.0,5752.0,3.0,2.0,-11.0,-25.0,-1.0,0.0,1.0,5.0,0.3196372985839844
162,-82.0,-28.0,113.0,1.0,7837.0,13158.0,-850.0,5756.0,3.0,2.0,-11.0,-25.0,-1.0,0.0,1.0,5.0,0.3216099739074707
163,-82.0,-28.0,113.0,1.0,7837.0,13158.0,-850.0,5756.0,-2.0,-8.0,-18.0,1.0,5.0,-1.0,3.0,2.0,0.33675432205200195
164,-82.0,-28.0,113.0,1.0,7837.0,13158.0,-850.0,5756.0,11.0,27.0,43.0,37.0,23.0,5.0,3.0,-4.0,0.34166574478149414
165,-26.0,-36.0,83.0,1.0,7840.0,13157.0,-863.0,5754.0,11.0,27.0,43.0,37.0,23.0,5.0,3.0,-4.0,0.34467411041259766
166,-26.0,-36.0,83.0,1.0,7840.0,13157.0,-863.0,5754.0,-2.0,4.0,5.0,-6.0,-3.0,-5.0,-2.0,0.0,0.34725356101989746
167,-26.0,-36.0,83.0,1.0,7840.0,13157.0,-863.0,5754.0,-4.0,-12.0,25.0,-8.0,-3.0,1.0,-2.0,-8.0,0.35049867630004883
168,-80.0,-56.0,82.0,1.0,7849.0,13155.0,-877.0,5743.0,-4.0,-12.0,25.0,-8.0,-3.0,1.0,-2.0,-8.0,0.3522930145263672
169,-80.0,-56.0,82.0,1.0,7849.0,13155.0,-877.0,5743.0,2.0,1.0,-41.0,-21.0,0.0,3.0,-1.0,-10.0,0.35422658920288086
170,-80.0,-56.0,82.0,1.0,7849.0,13155.0,-877.0,5743.0,-4.0,-12.0,5.0,16.0,-3.0,-1.0,0.0,-1.0,0.35599327087402344
171,-123.0,-75.0,58.0,1.0,7864.0,13150.0,-896.0,5731.0,-4.0,-12.0,5.0,16.0,-3.0,-1.0,0.0,-1.0,0.36393117904663086
172,-123.0,-75.0,58.0,1.0,7864.0,13150.0,-896.0,5731.0,-4.0,-8.0,47.0,17.0,11.0,3.0,0.0,0.0,0.37284183502197266
173,-123.0,-75.0,58.0,1.0,7864.0,13150.0,-896.0,5731.0,-5.0,-5.0,-28.0,4.0,0.0,-1.0,-1.0,-9.0,0.3753347396850586
174,-104.0,-71.0,60.0,1.0,7875.0,13147.0,-914.0,5720.0,-5.0,-5.0,-28.0,4.0,0.0,-1.0,-1.0,-9.0,0.38849902153015137
175,-104.0,-71.0,60.0,1.0,7875.0,13147.0,-914.0,5720.0,8.0,-3.0,-33.0,7.0,-2.0,-1.0,0.0,12.0,0.392026424407959
176,-104.0,-71.0,60.0,1.0,7875.0,13147.0,-914.0,5720.0,-8.0,-11.0,-11.0,-7.0,4.0,-1.0,-3.0,-2.0,0.3954951763153076
177,-85.0,-61.0,53.0,1.0,7888.0,13143.0,-927.0,5709.0,-8.0,-11.0,-11.0,-7.0,4.0,-1.0,-3.0,-2.0,0.43623805046081543
178,-85.0,-61.0,53.0,1.0,7888.0,13143.0,-927.0,5709.0,2.0,-16.0,-41.0,0.0,1.0,1.0,-1.0,1.0,0.44089484214782715
179,-85.0,-61.0,53.0,1.0,7888.0,13143.0,-927.0,5709.0,1.0,1.0,-28.0,-11.0,4.0,5.0,4.0,0.0,0.44515252113342285
180,-108.0,-71.0,45.0,1.0,7903.0,13138.0,-942.0,5697.0,1.0,1.0,-28.0,-11.0,4.0,5.0,4.0,0.0,0.4478633403778076
181,-108.0,-71.0,45.0,1.0,7903.0,13138.0,-942.0,5697.0,-4.0,-11.0,-29.0,-11.0,-40.0,-6.0,-2.0,-3.0,0.4497392177581787
182,-108.0,-71.0,45.0,1.0,7903.0,13138.0,-942.0,5697.0,-5.0,-7.0,2.0,8.0,-7.0,-6.0,-1.0,-2.0,0.4518570899963379
183,-162.0,-74.0,86.0,1.0,7922.0,13129.0,-966.0,5686.0,-5.0,-7.0,2.0,8.0,-7.0,-6.0,-1.0,-2.0,0.4537694454193115
184,-162.0,-74.0,86.0,1.0,7922.0,13129.0,-966.0,5686.0,-6.0,1.0,22.0,2.0,10.0,-2.0,0.0,-9.0,0.4561886787414551
185,-162.0,-74.0,86.0,1.0,7922.0,13129.0,-966.0,5686.0,2.0,-3.0,-9.0,1.0,2.0,-2.0,-9.0,-2.0,0.4582839012145996
186,-117.0,-46.0,22.0,1.0,7938.0,13121.0,-980.0,5681.0,2.0,-3.0,-9.0,1.0,2.0,-2.0,-9.0,-2.0,0.4853794574737549
187,-117.0,-46.0,22.0,1.0,7938.0,13121.0,-980.0,5681.0,-2.0,3.0,14.0,2.0,2.0,3.0,1.0,3.0,0.48837924003601074
188,-117.0,-46.0,22.0,1.0,7938.0,13121.0,-980.0,5681.0,-2.0,-4.0,-2.0,-9.0,-20.0,-21.0,0.0,5.0,0.4913020133972168
189,-77.0,-52.0,66.0,1.0,7941.0,13119.0,-1000.0,5679.0,-2.0,-4.0,-2.0,-9.0,-20.0,-21.0,0.0,5.0,0.4942300319671631
190,-77.0,-52.0,66.0,1.0,7941.0,13119.0,-1000.0,5679.0,15.0,42.0,33.0,3.0,13.0,4.0,1.0,4.0,0.49994516372680664
191,-77.0,-52.0,66.0,1.0,7941.0,13119.0,-1000.0,5679.0,7.0,4.0,-5.0,-4.0,11.0,-1.0,4.0,1.0,0.5018301010131836
192,40.0,-61.0,11.0,1.0,7932.0,13127.0,-1006.0,5672.0,7.0,4.0,-5.0,-4.0,11.0,-1.0,4.0,1.0,0.5076713562011719
193,40.0,-61.0,11.0,1.0,7932.0,13127.0,-1006.0,5672.0,-8.0,0.0,13.0,6.0,18.0,-5.0,-7.0,-8.0,0.5095112323760986
194,40.0,-61.0,11.0,1.0,7932.0,13127.0,-1006.0,5672.0,-8.0,-8.0,-13.0,-8.0,-11.0,-4.0,3.0,-8.0,0.5113282203674316
195,62.0,-59.0,29.0,1.0,7920.0,13136.0,-1011.0,5666.0,-8.0,-8.0,-13.0,-8.0,-11.0,-4.0,3.0,-8.0,0.5482842922210693
196,62.0,-59.0,29.0,1.0,7920.0,13136.0,-1011.0,5666.0,-1.0,2.0,17.0,2.0,15.0,5.0,-1.0,0.0,0.554145097732544
197,62.0,-59.0,29.0,1.0,7920.0,13136.0,-1011.0,5666.0,6.0,12.0,-2.0,-5.0,14.0,8.0,14.0,-1.0,0.5564301013946533
198,44.0,-40.0,3.0,1.0,7911.0,13142.0,-1015.0,5664.0,6.0,12.0,-2.0,-5.0,14.0,8.0,14.0,-1.0,0.5582418441772461
199,44.0,-40.0,3.0,1.0,7911.0,13142.0,-1015.0,5664.0,-9.0,8.0,8.0,-2.0,-24.0,-1.0,-32.0,-15.0,0.5603415966033936
200,44.0,-40.0,3.0,1.0,7911.0,13142.0,-1015.0,5664.0,0.0,7.0,5.0,0.0,-7.0,1.0,-4.0,0.0,0.5631816387176514
201,73.0,-40.0,6.0,1.0,7896.0,13153.0,-1016.0,5660.0,0.0,7.0,5.0,0.0,-7.0,1.0,-4.0,0.0,0.5677735805511475
202,73.0,-40.0,6.0,1.0,7896.0,13153.0,-1016.0,5660.0,3.0,-3.0,-4.0,-1.0,6.0,-1.0,6.0,4.0,0.5696163177490234
203,73.0,-40.0,6.0,1.0,7896.0,13153.0,-1016.0,5660.0,1.0,25.0,45.0,2.0,12.0,8.0,-1.0,-2.0,0.5714490413665771
204,106.0,-34.0,-3.0,1.0,7882.0,13163.0,-1012.0,5657.0,1.0,25.0,45.0,2.0,12.0,8.0,-1.0,-2.0,0.6152541637420654
205,106.0,-34.0,-3.0,1.0,7882.0,13163.0,-1012.0,5657.0,-3.0,-16.0,-5.0,4.0,-18.0,-10.0,4.0,0.0,0.6185684204101562
206,106.0,-34.0,-3.0,1.0,7882.0,13163.0,-1012.0,5657.0,-2.0,-7.0,8.0,1.0,22.0,3.0,-6.0,-1.0,0.6216552257537842
207,95.0,-17.0,-5.0,1.0,7868.0,13172.0,-1007.0,5655.0,-2.0,-7.0,8.0,1.0,22.0,3.0,-6.0,-1.0,0.624772310256958
208,95.0,-17.0,-5.0,1.0,7868.0,13172.0,-1007.0,5655.0,4.0,5.0,-16.0,-6.0,-15.0,1.0,1.0,1.0,0.6279585361480713
209,95.0,-17.0,-5.0,1.0,7868.0,13172.0,-1007.0,5655.0,-12.0,-18.0,-3.0,-3.0,-11.0,3.0,2.0,-4.0,0.6303038597106934
210,78.0,-9.0,10.0,1.0,7857.0,13178.0,-1005.0,5658.0,-12.0,-18.0,-3.0,-3.0,-11.0,3.0,2.0,-4.0,0.6320638656616211
211,78.0,-9.0,10.0,1.0,7857.0,13178.0,-1005.0,5658.0,14.0,12.0,2.0,2.0,-4.0,-6.0,10.0,8.0,0.6339297294616699
212,78.0,-9.0,10.0,1.0,7857.0,13178.0,-1005.0,5658.0,-3.0,-3.0,-6.0,-1.0,-14.0,-6.0,-11.0,-7.0,0.6488032341003418
213,80.0,2.0,10.0,1.0,7846.0,13183.0,-1002.0,5662.0,-3.0,-3.0,-6.0,-1.0,-14.0,-6.0,-11.0,-7.0,0.6651816368103027
214,80.0,2.0,10.0,1.0,7846.0,13183.0,-1002.0,5662.0,-8.0,-14.0,8.0,1.0,4.0,4.0,7.0,8.0,0.6679525375366211
215,80.0,2.0,10.0,1.0,7846.0,13183.0,-1002.0,5662.0,1.0,-7.0,-18.0,0.0,-7.0,0.0,-2.0,4.0,0.6710290908813477
216,66.0,7.0,12.0,1.0,7838.0,13187.0,-999.0,5666.0,1.0,-7.0,-18.0,0.0,-7.0,0.0,-2.0,4.0,0.6744904518127441
217,66.0,7.0,12.0,1.0,7838.0,13187.0,-999.0,5666.0,-4.0,-11.0,-9.0,-1.0,3.0,5.0,4.0,-3.0,0.6800436973571777
218,66.0,7.0,12.0,1.0,7838.0,13187.0,-999.0,5666.0,-3.0,-12.0,-34.0,-1.0,-28.0,-18.0,-6.0,0.0,0.6818163394927979
219,38.0,28.0,17.0,1.0,7832.0,13186.0,-998.0,5674.0,-3.0,-12.0,-34.0,-1.0,-28.0,-18.0,-6.0,0.0,0.7117044925689697
220,38.0,28.0,17.0,1.0,7832.0,13186.0,-998.0,5674.0,0.0,1.0,-4.0,0.0,3.0,0.0,-6.0,-1.0,0.713547945022583
221,38.0,28.0,17.0,1.0,7832.0,13186.0,-998.0,5674.0,9.0,13.0,4.0,1.0,16.0,7.0,3.0,0.0,0.7166035175323486
222,46.0,30.0,16.0,1.0,7824.0,13188.0,-995.0,5681.0,9.0,13.0,4.0,1.0,16.0,7.0,3.0,0.0,0.7197623252868652
223,46.0,30.0,16.0,1.0,7824.0,13188.0,-995.0,5681.0,-10.0,-11.0,3.0,-2.0,-5.0,-1.0,-2.0,-9.0,0.7254908084869385
224,46.0,30.0,16.0,1.0,7824.0,13188.0,-995.0,5681.0,-8.0,-19.0,-8.0,-2.0,-3.0,-1.0,0.0,-5.0,0.7279510498046875
225,41.0,33.0,12.0,1.0,7817.0,13190.0,-992.0,5688.0,-8.0,-19.0,-8.0,-2.0,-3.0,-1.0,0.0,-5.0,0.7323071956634521
226,41.0,33.0,12.0,1.0,7817.0,13190.0,-992.0,5688.0,2.0,-5.0,-21.0,0.0,8.0,0.0,1.0,3.0,0.7343263626098633
227,41.0,33.0,12.0,1.0,7817.0,13190.0,-992.0,5688.0,-1.0,-12.0,-15.0,-2.0,-4.0,2.0,-1.0,-1.0,0.7381479740142822
228,44.0,47.0,9.0,1.0,7810.0,13190.0,-988.0,5697.0,-1.0,-12.0,-15.0,-2.0,-4.0,2.0,-1.0,-1.0,0.7638375759124756
229,44.0,47.0,9.0,1.0,7810.0,13190.0,-988.0,5697.0,3.0,-4.0,8.0,3.0,-1.0,-8.0,1.0,2.0,0.768409252166748
230,44.0,47.0,9.0,1.0,7810.0,13190.0,-988.0,5697.0,0.0,1.0,13.0,0.0,-1.0,-3.0,-2.0,0.0,0.7717938423156738
231,82.0,34.0,11.0,1.0,7796.0,13196.0,-982.0,5704.0,0.0,1.0,13.0,0.0,-1.0,-3.0,-2.0,0.0,0.7774388790130615
232,82.0,34.0,11.0,1.0,7796.0,13196.0,-982.0,5704.0,-2.0,9.0,-2.0,-2.0,-10.0,0.0,-2.0,3.0,0.7793025970458984
233,82.0,34.0,11.0,1.0,7796.0,13196.0,-982.0,5704.0,3.0,12.0,9.0,2.0,7.0,-3.0,-16.0,4.0,0.7810492515563965
234,79.0,36.0,4.0,1.0,7785.0,13200.0,-974.0,5710.0,3.0,12.0,9.0,2.0,7.0,-3.0,-16.0,4.0,0.7928013801574707
235,79.0,36.0,4.0,1.0,7785.0,13200.0,-974.0,5710.0,1.0,12.0,23.0,-1.0,10.0,0.0,-3.0,-5.0,0.7946920394897461
236,79.0,36.0,4.0,1.0,7785.0,13200.0,-974.0,5710.0,6.0,6.0,-20.0,-2.0,18.0,9.0,10.0,0.0,0.7972428798675537
237,69.0,36.0,5.0,1.0,7776.0,13205.0,-965.0,5713.0,6.0,6.0,-20.0,-2.0,18.0,9.0,10.0,0.0,0.815300464630127
238,69.0,36.0,5.0,1.0,7776.0,13205.0,-965.0,5713.0,0.0,-1.0,-7.0,-3.0,-6.0,-3.0,-2.0,0.0,0.8229808807373047
239,69.0,36.0,5.0,1.0,7776.0,13205.0,-965.0,5713.0,6.0,24.0,12.0,1.0,-5.0,2.0,1.0,6.0,0.8260154724121094
240,80.0,23.0,2.0,1.0,7766.0,13210.0,-958.0,5717.0,6.0,24.0,12.0,1.0,-5.0,2.0,1.0,6.0,0.8304641246795654
241,80.0,23.0,2.0,1.0,7766.0,13210.0,-958.0,5717.0,-3.0,3.0,-1.0,-3.0,4.0,-1.0,4.0,-3.0,0.8335239887237549
242,80.0,23.0,2.0,1.0,7766.0,13210.0,-958.0,5717.0,-6.0,-6.0,-7.0,-5.0,-14.0,-2.0,-1.0,-2.0,0.8358480930328369
243,79.0,18.0,0.0,1.0,7755.0,13217.0,-949.0,5717.0,-6.0,-6.0,-7.0,-5.0,-14.0,-2.0,-1.0,-2.0,0.8936693668365479
244,79.0,18.0,0.0,1.0,7755.0,13217.0,-949.0,5717.0,3.0,-17.0,-18.0,-3.0,0.0,2.0,11.0,6.0,0.8980410099029541
245,79.0,18.0,0.0,1.0,7755.0,13217.0,-949.0,5717.0,-9.0,-13.0,1.0,-2.0,-19.0,-6.0,11.0,-2.0,0.90043044090271
246,73.0,8.0,6.0,1.0,7744.0,13225.0,-942.0,5714.0,-9.0,-13.0,1.0,-2.0,-19.0,-6.0,11.0,-2.0,0.9022014141082764
247,73.0,8.0,6.0,1.0,7744.0,13225.0,-942.0,5714.0,1.0,9.0,28.0,7.0,8.0,1.0,-24.0,-2.0,0.9041368961334229
248,73.0,8.0,6.0,1.0,7744.0,13225.0,-942.0,5714.0,-8.0,-23.0,-22.0,-3.0,7.0,1.0,0.0,-5.0,0.937218427658081
249,73.0,8.0,6.0,1.0,7744.0,13225.0,-942.0,5714.0,4.0,1.0,-4.0,-5.0,-23.0,-4.0,1.0,5.0,0.9410560131072998
250,79.0,-11.0,6.0,1.0,7724.0,13239.0,-932.0,5710.0,4.0,1.0,-4.0,-5.0,-23.0,-4.0,1.0,5.0,0.9449892044067383
251,79.0,-11.0,6.0,1.0,7724.0,13239.0,-932.0,5710.0,-8.0,-8.0,9.0,-1.0,-3.0,-4.0,5.0,1.0,0.9490828514099121
252,79.0,-11.0,6.0,1.0,7724.0,13239.0,-932.0,5710.0,-9.0,-14.0,12.0,6.0,9.0,-1.0,-7.0,1.0,0.9522292613983154
253,79.0,-11.0,6.0,1.0,7724.0,13239.0,-932.0,5710.0,1.0,4.0,11.0,5.0,45.0,1.0,2.0,-1.0,0.9546277523040771
254,79.0,-11.0,6.0,1.0,7724.0,13239.0,-932.0,5710.0,-3.0,0.0,0.0,0.0,-1.0,-1.0,-4.0,1.0,0.9564039707183838
255,85.0,-36.0,-20.0,1.0,7701.0,13259.0,-919.0,5696.0,-3.0,0.0,0.0,0.0,-1.0,-1.0,-4.0,1.0,0.9581704139709473
256,85.0,-36.0,-20.0,1.0,7701.0,13259.0,-919.0,5696.0,-11.0,-28.0,-46.0,1.0,16.0,9.0,2.0,-5.0,0.9600327014923096
257,85.0,-36.0,-20.0,1.0,7701.0,13259.0,-919.0,5696.0,7.0,6.0,-9.0,-6.0,-45.0,-12.0,19.0,-2.0,0.9618310928344727
258,33.0,-27.0,-20.0,1.0,7699.0,13265.0,-914.0,5687.0,7.0,6.0,-9.0,-6.0,-45.0,-12.0,19.0,-2.0,0.9801216125488281
259,33.0,-27.0,-20.0,1.0,7699.0,13265.0,-914.0,5687.0,4.0,6.0,5.0,-1.0,-14.0,-3.0,3.0,-1.0,0.9824345111846924
260,33.0,-27.0,-20.0,1.0,7699.0,13265.0,-914.0,5687.0,7.0,6.0,-5.0,3.0,16.0,11.0,-25.0,6.0,0.98665452003479
261,55.0,-23.0,-33.0,1.0,7697.0,13271.0,-904.0,5678.0,7.0,6.0,-5.0,3.0,16.0,11.0,-25.0,6.0,0.9897949695587158
262,55.0,-23.0,-33.0,1.0,7697.0,13271.0,-904.0,5678.0,1.0,-12.0,-58.0,-7.0,-9.0,5.0,-2.0,5.0,0.9930770397186279
263,55.0,-23.0,-33.0,1.0,7697.0,13271.0,-904.0,5678.0,4.0,8.0,20.0,2.0,-27.0,-12.0,1.0,-7.0,0.9956555366516113
264,46.0,-11.0,-32.0,1.0,7697.0,13274.0,-893.0,5670.0,4.0,8.0,20.0,2.0,-27.0,-12.0,1.0,-7.0,1.0109386444091797
265,46.0,-11.0,-32.0,1.0,7697.0,13274.0,-893.0,5670.0,-8.0,-14.0,8.0,1.0,-16.0,-4.0,-16.0,5.0,1.0147998332977295
266,46.0,-11.0,-32.0,1.0,7697.0,13274.0,-893.0,5670.0,8.0,27.0,9.0,2.0,30.0,7.0,4.0,-1.0,1.0322825908660889
267,34.0,-12.0,-31.0,1.0,7703.0,13274.0,-883.0,5665.0,8.0,27.0,9.0,2.0,30.0,7.0,4.0,-1.0,1.03446364402771
268,34.0,-12.0,-31.0,1.0,7703.0,13274.0,-883.0,5665.0,-14.0,16.0,43.0,-3.0,-3.0,-11.0,-3.0,-10.0,1.0407345294952393
269,34.0,-12.0,-31.0,1.0,7703.0,13274.0,-883.0,5665.0,0.0,-9.0,-5.0,9.0,16.0,-1.0,-39.0,9.0,1.0439589023590088
270,39.0,-5.0,-68.0,1.0,7712.0,13272.0,-867.0,5661.0,0.0,-9.0,-5.0,9.0,16.0,-1.0,-39.0,9.0,1.0635690689086914
271,39.0,-5.0,-68.0,1.0,7712.0,13272.0,-867.0,5661.0,2.0,-2.0,17.0,1.0,-16.0,0.0,-9.0,2.0,1.0668365955352783
272,39.0,-5.0,-68.0,1.0,7712.0,13272.0,-867.0,5661.0,-5.0,24.0,37.0,-5.0,-15.0,5.0,13.0,-20.0,1.06996750831604
273,5.0,-13.0,-131.0,1.0,7736.0,13264.0,-842.0,5650.0,-5.0,24.0,37.0,-5.0,-15.0,5.0,13.0,-20.0,1.0774917602539062
274,5.0,-13.0,-131.0,1.0,7736.0,13264.0,-842.0,5650.0,22.0,1.0,-2.0,10.0,-36.0,3.0,-5.0,27.0,1.1169872283935547
275,5.0,-13.0,-131.0,1.0,7736.0,13264.0,-842.0,5650.0,-15.0,-8.0,-15.0,-15.0,6.0,-19.0,-15.0,-11.0,1.1202421188354492
276,14.0,19.0,-219.0,1.0,7776.0,13252.0,-792.0,5630.0,-15.0,-8.0,-15.0,-15.0,6.0,-19.0,-15.0,-11.0,1.1240260601043701
277,14.0,19.0,-219.0,1.0,7776.0,13252.0,-792.0,5630.0,-8.0,-19.0,-8.0,3.0,-26.0,9.0,6.0,-19.0,1.1295998096466064
278,14.0,19.0,-219.0,1.0,7776.0,13252.0,-792.0,5630.0,24.0,34.0,-11.0,-12.0,36.0,11.0,8.0,12.0,1.1325733661651611
279,-46.0,94.0,-279.0,1.0,7837.0,13226.0,-727.0,5614.0,24.0,34.0,-11.0,-12.0,36.0,11.0,8.0,12.0,1.1345534324645996
280,-46.0,94.0,-279.0,1.0,7837.0,13226.0,-727.0,5614.0,-22.0,-66.0,-3.0,16.0,17.0,-20.0,27.0,-16.0,1.136566400527954
281,-100.0,203.0,-375.0,1.0,7918.0,13190.0,-636.0,5598.0,-22.0,-66.0,-3.0,16.0,17.0,-20.0,27.0,-16.0,1.1392605304718018
282,-100.0,203.0,-375.0,1.0,7918.0,13190.0,-636.0,5598.0,9.0,32.0,40.0,8.0,10.0,20.0,0.0,35.0,1.141153335571289
283,-100.0,203.0,-375.0,1.0,7918.0,13190.0,-636.0,5598.0,-34.0,-93.0,-58.0,-3.0,21.0,-1.0,1.0,-26.0,1.1429471969604492
284,-147.0,323.0,-528.0,1.0,8021.0,13141.0,-508.0,5580.0,-34.0,-93.0,-58.0,-3.0,21.0,-1.0,1.0,-26.0,1.1525859832763672
285,-147.0,323.0,-528.0,1.0,8021.0,13141.0,-508.0,5580.0,39.0,69.0,17.0,-20.0,-102.0,-85.0,-5.0,-19.0,1.1544597148895264
286,-147.0,323.0,-528.0,1.0,8021.0,13141.0,-508.0,5580.0,5.0,37.0,63.0,66.0,-123.0,-5.0,9.0,-12.0,1.1562211513519287
287,-197.0,352.0,-804.0,1.0,8151.0,13081.0,-343.0,5544.0,5.0,37.0,63.0,66.0,-123.0,-5.0,9.0,-12.0,1.1756253242492676
288,-197.0,352.0,-804.0,1.0,8151.0,13081.0,-343.0,5544.0,9.0,5.0,-30.0,15.0,70.0,24.0,18.0,3.0,1.178938388824463
289,-197.0,352.0,-804.0,1.0,8151.0,13081.0,-343.0,5544.0,32.0,53.0,-60.0,-36.0,34.0,18.0,4.0,4.0,1.1820735931396484
290,-264.0,214.0,-1147.0,1.0,8321.0,13015.0,-139.0,5456.0,32.0,53.0,-60.0,-36.0,34.0,18.0,4.0,4.0,1.2230043411254883
291,-264.0,214.0,-1147.0,1.0,8321.0,13015.0,-139.0,5456.0,-25.0,-30.0,-3.0,-30.0,-5.0,11.0,-6.0,-1.0,1.227264165878296
292,-264.0,214.0,-1147.0,1.0,8321.0,13015.0,-139.0,5456.0,-12.0,0.0,52.0,8.0,3.0,11.0,-4.0,5.0,1.231536865234375
293,-489.0,78.0,-1411.0,1.0,8543.0,12925.0,75.0,5326.0,-12.0,0.0,52.0,8.0,3.0,11.0,-4.0,5.0,1.2355310916900635
294,-489.0,78.0,-1411.0,1.0,8543.0,12925.0,75.0,5326.0,-22.0,-51.0,-73.0,-27.0,33.0,0.0,5.0,-3.0,1.2374393939971924
295,-489.0,78.0,-1411.0,1.0,8543.0,12925.0,75.0,5326.0,5.0,-1.0,5.0,-10.0,20.0,8.0,2.0,16.0,1.2432715892791748
296,-755.0,128.0,-1631.0,1.0,8761.0,12832.0,282.0,5189.0,5.0,-1.0,5.0,-10.0,20.0,8.0,2.0,16.0,1.2450432777404785
297,-755.0,128.0,-1631.0,1.0,8761.0,12832.0,282.0,5189.0,10.0,23.0,-27.0,0.0,-26.0,5.0,7.0,-16.0,1.2469213008880615
298,-755.0,128.0,-1631.0,1.0,8761.0,12832.0,282.0,5189.0,-1.0,-28.0,-34.0,1.0,10.0,-3.0,-2.0,25.0,1.2487223148345947
299,-1004.0,185.0,-1760.0,1.0,9018.0,12707.0,505.0,5037.0,-1.0,-28.0,-34.0,1.0,10.0,-3.0,-2.0,25.0,1.2505404949188232
300,-1004.0,185.0,-1760.0,1.0,9018.0,12707.0,505.0,5037.0,5.0,-21.0,-58.0,9.0,21.0,13.0,-1.0,-3.0,1.2523767948150635
301,-1004.0,185.0,-1760.0,1.0,9018.0,12707.0,505.0,5037.0,1.0,5.0,5.0,-19.0,0.0,-5.0,0.0,-4.0,1.2541632652282715
302,-1357.0,287.0,-1846.0,1.0,9317.0,12539.0,734.0,4882.0,1.0,5.0,5.0,-19.0,0.0,-5.0,0.0,-4.0,1.2733993530273438
303,-1357.0,287.0,-1846.0,1.0,9317.0,12539.0,734.0,4882.0,-14.0,-8.0,15.0,4.0,-5.0,4.0,-5.0,-9.0,1.2765870094299316
304,-1357.0,287.0,-1846.0,1.0,9317.0,12539.0,734.0,4882.0,9.0,-14.0,-60.0,-10.0,-7.0,-4.0,-5.0,5.0,1.2797207832336426
305,-1837.0,450.0,-2057.0,1.0,9679.0,12304.0,980.0,4730.0,9.0,-14.0,-60.0,-10.0,-7.0,-4.0,-5.0,5.0,1.2870268821716309
306,-1837.0,450.0,-2057.0,1.0,9679.0,12304.0,980.0,4730.0,-14.0,-5.0,19.0,-1.0,2.0,-1.0,-2.0,-2.0,1.2947323322296143
307,-1837.0,450.0,-2057.0,1.0,9679.0,12304.0,980.0,4730.0,-5.0,-23.0,28.0,10.0,12.0,0.0,-5.0,1.0,1.2967350482940674
308,-1830.0,587.0,-2387.0,1.0,10042.0,12047.0,1281.0,4560.0,-5.0,-23.0,28.0,10.0,12.0,0.0,-5.0,1.0,1.3102707862854004
309,-1830.0,587.0,-2387.0,1.0,10042.0,12047.0,1281.0,4560.0,4.0,-9.0,4.0,-2.0,1.0,0.0,3.0,3.0,1.3124690055847168
310,-1830.0,587.0,-2387.0,1.0,10042.0,12047.0,1281.0,4560.0,-18.0,-4.0,-13.0,-7.0,11.0,0.0,-6.0,-7.0,1.3158071041107178
311,-1646.0,642.0,-2693.0,1.0,10388.0,11783.0,1635.0,4359.0,-18.0,-4.0,-13.0,-7.0,11.0,0.0,-6.0,-7.0,1.3335614204406738
312,-1646.0,642.0,-2693.0,1.0,10388.0,11783.0,1635.0,4359.0,-2.0,15.0,16.0,7.0,2.0,4.0,-1.0,1.0,1.337479829788208
313,-1646.0,642.0,-2693.0,1.0,10388.0,11783.0,1635.0,4359.0,7.0,19.0,16.0,2.0,4.0,0.0,1.0,0.0,1.3413898944854736
314,-1503.0,613.0,-3067.0,1.0,10718.0,11513.0,2037.0,4104.0,7.0,19.0,16.0,2.0,4.0,0.0,1.0,0.0,1.346815586090088
315,-1503.0,613.0,-3067.0,1.0,10718.0,11513.0,2037.0,4104.0,-6.0,-14.0,9.0,3.0,0.0,1.0,-2.0,-5.0,1.3552465438842773
316,-1503.0,613.0,-3067.0,1.0,10718.0,11513.0,2037.0,4104.0,3.0,1.0,4.0,-8.0,-2.0,-3.0,2.0,3.0,1.3571629524230957
317,-1503.0,487.0,-3414.0,1.0,11046.0,11224.0,2459.0,3791.0,3.0,1.0,4.0,-8.0,-2.0,-3.0,2.0,3.0,1.3696200847625732
318,-1503.0,487.0,-3414.0,1.0,11046.0,11224.0,2459.0,3791.0,2.0,-2.0,13.0,13.0,6.0,4.0,-1.0,-2.0,1.3715336322784424
319,-1503.0,487.0,-3414.0,1.0,11046.0,11224.0,2459.0,3791.0,-4.0,4.0,0.0,-5.0,-6.0,-3.0,-2.0,-2.0,1.3770968914031982
320,-1677.0,358.0,-3936.0,1.0,11392.0,10890.0,2909.0,3405.0,-4.0,4.0,0.0,-5.0,-6.0,-3.0,-2.0,-2.0,1.3945231437683105
321,-1677.0,358.0,-3936.0,1.0,11392.0,10890.0,2909.0,3405.0,-3.0,-13.0,-6.0,24.0,1.0,-1.0,1.0,-3.0,1.3986883163452148
322,-1677.0,358.0,-3936.0,1.0,11392.0,10890.0,2909.0,3405.0,-3.0,2.0,4.0,9.0,11.0,2.0,-3.0,-1.0,1.4022934436798096
323,-2095.0,185.0,-4378.0,1.0,11770.0,10481.0,3361.0,2954.0,-3.0,2.0,4.0,9.0,11.0,2.0,-3.0,-1.0,1.4249978065490723
324,-2095.0,185.0,-4378.0,1.0,11770.0,10481.0,3361.0,2954.0,6.0,-18.0,-52.0,-24.0,-2.0,-1.0,0.0,3.0,1.4296319484710693
325,-2095.0,185.0,-4378.0,1.0,11770.0,10481.0,3361.0,2954.0,-1.0,-6.0,22.0,41.0,22.0,1.0,3.0,0.0,1.4339063167572021
326,-2707.0,0.0,-4681.0,1.0,12193.0,9966.0,3788.0,2463.0,-1.0,-6.0,22.0,41.0,22.0,1.0,3.0,0.0,1.4363903999328613
327,-2707.0,0.0,-4681.0,1.0,12193.0,9966.0,3788.0,2463.0,-5.0,-6.0,14.0,11.0,2.0,5.0,1.0,-5.0,1.438307285308838
328,-2707.0,0.0,-4681.0,1.0,12193.0,9966.0,3788.0,2463.0,-1.0,-3.0,-13.0,-42.0,-25.0,-8.0,-3.0,1.0,1.440140962600708
329,-3283.0,-188.0,-4818.0,1.0,12642.0,9346.0,4174.0,1952.0,-1.0,-3.0,-13.0,-42.0,-25.0,-8.0,-3.0,1.0,1.4530162811279297
330,-3283.0,-188.0,-4818.0,1.0,12642.0,9346.0,4174.0,1952.0,-6.0,5.0,12.0,-4.0,-15.0,-3.0,-3.0,-3.0,1.4549226760864258
331,-3283.0,-188.0,-4818.0,1.0,12642.0,9346.0,4174.0,1952.0,2.0,9.0,17.0,0.0,20.0,3.0,-4.0,0.0,1.4566776752471924
332,-3576.0,-311.0,-4908.0,1.0,13076.0,8655.0,4527.0,1426.0,2.0,9.0,17.0,0.0,20.0,3.0,-4.0,0.0,1.4664552211761475
333,-3576.0,-311.0,-4908.0,1.0,13076.0,8655.0,4527.0,1426.0,1.0,4.0,2.0,-8.0,24.0,4.0,8.0,1.0,1.474686622619629
334,-3576.0,-311.0,-4908.0,1.0,13076.0,8655.0,4527.0,1426.0,-3.0,0.0,-5.0,-15.0,-13.0,-3.0,-1.0,-7.0,1.4766695499420166
335,-3802.0,-287.0,-4999.0,1.0,13474.0,7896.0,4870.0,896.0,-3.0,0.0,-5.0,-15.0,-13.0,-3.0,-1.0,-7.0,1.4899561405181885
336,-3802.0,-287.0,-4999.0,1.0,13474.0,7896.0,4870.0,896.0,-3.0,-4.0,5.0,-33.0,-6.0,-2.0,-12.0,-8.0,1.4918322563171387
337,-3802.0,-287.0,-4999.0,1.0,13474.0,7896.0,4870.0,896.0,14.0,36.0,11.0,3.0,-6.0,-7.0,-3.0,4.0,1.4963657855987549
338,-3911.0,-232.0,-5103.0,1.0,13823.0,7077.0,5209.0,356.0,14.0,36.0,11.0,3.0,-6.0,-7.0,-3.0,4.0,1.5141429901123047
339,-3911.0,-232.0,-5103.0,1.0,13823.0,7077.0,5209.0,356.0,-5.0,-15.0,15.0,-5.0,-5.0,16.0,72.0,9.0,1.5191309452056885
340,-3911.0,-232.0,-5103.0,1.0,13823.0,7077.0,5209.0,356.0,-4.0,-6.0,-2.0,6.0,-29.0,-14.0,-26.0,-3.0,1.5239338874816895
341,-3754.0,-103.0,-5161.0,1.0,14092.0,6242.0,5552.0,-195.0,-4.0,-6.0,-2.0,6.0,-29.0,-14.0,-26.0,-3.0,1.535074234008789
342,-3754.0,-103.0,-5161.0,1.0,14092.0,6242.0,5552.0,-195.0,-2.0,0.0,-5.0,-17.0,-41.0,-5.0,-13.0,-1.0,1.5369184017181396
343,-3754.0,-103.0,-5161.0,1.0,14092.0,6242.0,5552.0,-195.0,0.0,2.0,5.0,-1.0,-17.0,31.0,14.0,-1.0,1.5401322841644287
344,-3492.0,-220.0,-5230.0,1.0,14288.0,5410.0,5863.0,-784.0,0.0,2.0,5.0,-1.0,-17.0,31.0,14.0,-1.0,1.5493156909942627
345,-3492.0,-220.0,-5230.0,1.0,14288.0,5410.0,5863.0,-784.0,-2.0,1.0,-1.0,20.0,55.0,22.0,3.0,-1.0,1.5512278079986572
346,-3492.0,-220.0,-5230.0,1.0,14288.0,5410.0,5863.0,-784.0,2.0,1.0,-2.0,-40.0,-8.0,10.0,-51.0,-11.0,1.5817956924438477
347,-3578.0,-344.0,-5154.0,1.0,14438.0,4539.0,6124.0,-1360.0,2.0,1.0,-2.0,-40.0,-8.0,10.0,-51.0,-11.0,1.585491418838501
348,-3578.0,-344.0,-5154.0,1.0,14438.0,4539.0,6124.0,-1360.0,5.0,6.0,7.0,-9.0,-33.0,26.0,-118.0,2.0,1.589339256286621
349,-3578.0,-344.0,-5154.0,1.0,14438.0,4539.0,6124.0,-1360.0,4.0,6.0,16.0,86.0,-36.0,-16.0,-59.0,-24.0,1.5929780006408691
350,-3623.0,-359.0,-5220.0,1.0,14523.0,3628.0,6367.0,-1944.0,4.0,6.0,16.0,86.0,-36.0,-16.0,-59.0,-24.0,1.5956463813781738
351,-3623.0,-359.0,-5220.0,1.0,14523.0,3628.0,6367.0,-1944.0,6.0,5.0,0.0,-6.0,32.0,-44.0,23.0,66.0,1.5976872444152832
352,-3623.0,-359.0,-5220.0,1.0,14523.0,3628.0,6367.0,-1944.0,1.0,-7.0,5.0,93.0,68.0,5.0,108.0,28.0,1.5996928215026855
353,-3460.0,-199.0,-5199.0,1.0,14525.0,2709.0,6611.0,-2530.0,1.0,-7.0,5.0,93.0,68.0,5.0,108.0,28.0,1.6248714923858643
354,-3460.0,-199.0,-5199.0,1.0,14525.0,2709.0,6611.0,-2530.0,-35.0,-25.0,-34.0,37.0,98.0,-104.0,-86.0,-16.0,1.627469778060913
355,-3460.0,-199.0,-5199.0,1.0,14525.0,2709.0,6611.0,-2530.0,8.0,7.0,5.0,24.0,50.0,-42.0,119.0,-16.0,1.6349170207977295
356,-3030.0,25.0,-5061.0,1.0,14431.0,1835.0,6860.0,-3119.0,8.0,7.0,5.0,24.0,50.0,-42.0,119.0,-16.0,1.6379239559173584
357,-3030.0,25.0,-5061.0,1.0,14431.0,1835.0,6860.0,-3119.0,19.0,13.0,21.0,61.0,59.0,-105.0,95.0,37.0,1.640265941619873
358,-3030.0,25.0,-5061.0,1.0,14431.0,1835.0,6860.0,-3119.0,-18.0,-13.0,-17.0,-60.0,12.0,127.0,-21.0,-22.0,1.6421082019805908
359,-2466.0,399.0,-4158.0,1.0,14289.0,1148.0,7080.0,-3576.0,-18.0,-13.0,-17.0,-60.0,12.0,127.0,-21.0,-22.0,1.6563596725463867
360,-2466.0,399.0,-4158.0,1.0,14289.0,1148.0,7080.0,-3576.0,9.0,22.0,17.0,48.0,88.0,124.0,93.0,-83.0,1.659447193145752
361,-2466.0,399.0,-4158.0,1.0,14289.0,1148.0,7080.0,-3576.0,-16.0,-5.0,-8.0,-25.0,25.0,-116.0,-111.0,-39.0,1.6628501415252686
362,-79.0,655.0,-2287.0,1.0,14146.0,984.0,7211.0,-3917.0,-16.0,-5.0,-8.0,-25.0,25.0,-116.0,-111.0,-39.0,1.6783835887908936
363,-79.0,655.0,-2287.0,1.0,14146.0,984.0,7211.0,-3917.0,13.0,10.0,16.0,-15.0,-91.0,65.0,47.0,30.0,1.680579662322998
364,-79.0,655.0,-2287.0,1.0,14146.0,984.0,7211.0,-3917.0,2.0,2.0,4.0,14.0,24.0,-23.0,-51.0,44.0,1.6825454235076904
365,-300.0,1304.0,-1156.0,1.0,13994.0,903.0,7437.0,-4057.0,2.0,2.0,4.0,14.0,24.0,-23.0,-51.0,44.0,1.693528175354004
366,-300.0,1304.0,-1156.0,1.0,13994.0,903.0,7437.0,-4057.0,-6.0,-4.0,-8.0,-58.0,-57.0,21.0,-33.0,-22.0,1.6957828998565674
367,-300.0,1304.0,-1156.0,1.0,13994.0,903.0,7437.0,-4057.0,11.0,-2.0,-8.0,-38.0,-23.0,-7.0,17.0,35.0,1.6977880001068115
368,116.0,1763.0,-432.0,1.0,13828.0,963.0,7703.0,-4114.0,11.0,-2.0,-8.0,-38.0,-23.0,-7.0,17.0,35.0,1.7166147232055664
369,116.0,1763.0,-432.0,1.0,13828.0,963.0,7703.0,-4114.0,12.0,6.0,8.0,37.0,-72.0,-13.0,-1.0,-7.0,1.7199039459228516
370,116.0,1763.0,-432.0,1.0,13828.0,963.0,7703.0,-4114.0,6.0,-1.0,-4.0,26.0,-12.0,0.0,-11.0,-42.0,1.7230336666107178
371,1966.0,493.0,1787.0,1.0,13840.0,1432.0,7667.0,-4003.0,6.0,-1.0,-4.0,26.0,-12.0,0.0,-11.0,-42.0,1.7295775413513184
372,1966.0,493.0,1787.0,1.0,13840.0,1432.0,7667.0,-4003.0,-28.0,-17.0,-15.0,49.0,-6.0,-47.0,-128.0,-114.0,1.7370221614837646
373,1966.0,493.0,1787.0,1.0,13840.0,1432.0,7667.0,-4003.0,-7.0,1.0,6.0,-11.0,-24.0,-8.0,-103.0,-93.0,1.7388105392456055
374,3987.0,532.0,4378.0,1.0,13895.0,2418.0,7490.0,-3659.0,-7.0,1.0,6.0,-11.0,-24.0,-8.0,-103.0,-93.0,1.767690658569336
375,3987.0,532.0,4378.0,1.0,13895.0,2418.0,7490.0,-3659.0,15.0,11.0,-5.0,-107.0,-55.0,55.0,37.0,45.0,1.769533634185791
376,3987.0,532.0,4378.0,1.0,13895.0,2418.0,7490.0,-3659.0,-5.0,2.0,8.0,-28.0,-56.0,39.0,72.0,-55.0,1.772634744644165
377,5527.0,1471.0,6262.0,1.0,13820.0,3810.0,7296.0,-3109.0,-5.0,2.0,8.0,-28.0,-56.0,39.0,72.0,-55.0,1.775954008102417
378,5527.0,1471.0,6262.0,1.0,13820.0,3810.0,7296.0,-3109.0,13.0,-1.0,-1.0,8.0,-38.0,100.0,53.0,127.0,1.7792441844940186
379,5527.0,1471.0,6262.0,1.0,13820.0,3810.0,7296.0,-3109.0,-19.0,-12.0,-10.0,33.0,-42.0,14.0,-63.0,-40.0,1.7822608947753906
380,6118.0,2646.0,7748.0,1.0,13534.0,5405.0,7121.0,-2304.0,-19.0,-12.0,-10.0,33.0,-42.0,14.0,-63.0,-40.0,1.7883808612823486
381,6118.0,2646.0,7748.0,1.0,13534.0,5405.0,7121.0,-2304.0,-15.0,-5.0,-3.0,-3.0,-54.0,2.0,-67.0,-90.0,1.836848497390747
382,6118.0,2646.0,7748.0,1.0,13534.0,5405.0,7121.0,-2304.0,3.0,-19.0,-48.0,-78.0,77.0,103.0,98.0,109.0,1.8413610458374023
383,5983.0,3546.0,9019.0,1.0,13032.0,7024.0,6909.0,-1219.0,3.0,-19.0,-48.0,-78.0,77.0,103.0,98.0,109.0,1.8450324535369873
384,5983.0,3546.0,9019.0,1.0,13032.0,7024.0,6909.0,-1219.0,-10.0,-14.0,-12.0,-9.0,-75.0,-97.0,-20.0,30.0,1.847395896911621
385,5983.0,3546.0,9019.0,1.0,13032.0,7024.0,6909.0,-1219.0,25.0,16.0,-8.0,20.0,109.0,1.0,25.0,12.0,1.8670573234558105
386,5983.0,3546.0,9019.0,1.0,13032.0,7024.0,6909.0,-1219.0,-13.0,-48.0,-9.0,0.0,-107.0,-50.0,-22.0,17.0,1.870237112045288
387,4168.0,3335.0,10130.0,1.0,11667.0,9702.0,6005.0,1448.0,-13.0,-48.0,-9.0,0.0,-107.0,-50.0,-22.0,17.0,1.873948335647583
388,4168.0,3335.0,10130.0,1.0,11667.0,9702.0,6005.0,1448.0,21.0,-54.0,-115.0,-28.0,38.0,1.0,60.0,31.0,1.8775770664215088
389,4168.0,3335.0,10130.0,1.0,11667.0,9702.0,6005.0,1448.0,-75.0,-52.0,-81.0,-14.0,127.0,62.0,17.0,45.0,1.8805499076843262
390,4643.0,3307.0,9481.0,1.0,10731.0,10784.0,5456.0,2681.0,-75.0,-52.0,-81.0,-14.0,127.0,62.0,17.0,45.0,1.8823950290679932
391,4643.0,3307.0,9481.0,1.0,10731.0,10784.0,5456.0,2681.0,-35.0,-71.0,-57.0,-29.0,32.0,-79.0,-8.0,69.0,1.8842332363128662
392,4643.0,3307.0,9481.0,1.0,10731.0,10784.0,5456.0,2681.0,25.0,-22.0,97.0,87.0,-26.0,-46.0,8.0,-61.0,1.8860058784484863
393,3348.0,2578.0,7673.0,1.0,9914.0,11505.0,4931.0,3667.0,25.0,-22.0,97.0,87.0,-26.0,-46.0,8.0,-61.0,1.9028289318084717
394,3348.0,2578.0,7673.0,1.0,9914.0,11505.0,4931.0,3667.0,-70.0,-44.0,38.0,79.0,102.0,127.0,-7.0,7.0,1.9047269821166992
395,3348.0,2578.0,7673.0,1.0,9914.0,11505.0,4931.0,3667.0,-70.0,-10.0,-52.0,-69.0,115.0,87.0,76.0,-73.0,1.9065077304840088
396,2061.0,502.0,2991.0,1.0,9501.0,11859.0,4689.0,3939.0,-70.0,-10.0,-52.0,-69.0,115.0,87.0,76.0,-73.0,1.9251360893249512
397,2061.0,502.0,2991.0,1.0,9501.0,11859.0,4689.0,3939.0,107.0,75.0,-45.0,2.0,90.0,46.0,86.0,85.0,1.927013874053955
398,2061.0,502.0,2991.0,1.0,9501.0,11859.0,4689.0,3939.0,13.0,36.0,103.0,42.0,32.0,-16.0,-66.0,-42.0,1.9288015365600586
399,803.0,-711.0,960.0,1.0,9358.0,12047.0,4531.0,3896.0,13.0,36.0,103.0,42.0,32.0,-16.0,-66.0,-42.0,1.9545056819915771
400,803.0,-711.0,960.0,1.0,9358.0,12047.0,4531.0,3896.0,-89.0,-51.0,33.0,-90.0,14.0,71.0,-52.0,-71.0,1.9738924503326416
401,803.0,-711.0,960.0,1.0,9358.0,12047.0,4531.0,3896.0,-11.0,-40.0,36.0,50.0,57.0,-59.0,120.0,-10.0,1.9779393672943115
402,762.0,216.0,3172.0,1.0,9134.0,12243.0,4168.0,4209.0,-11.0,-40.0,36.0,50.0,57.0,-59.0,120.0,-10.0,1.981306791305542
403,762.0,216.0,3172.0,1.0,9134.0,12243.0,4168.0,4209.0,79.0,-113.0,27.0,26.0,-6.0,20.0,33.0,61.0,1.9848783016204834
404,762.0,216.0,3172.0,1.0,9134.0,12243.0,4168.0,4209.0,-82.0,3.0,71.0,17.0,-128.0,0.0,-128.0,-61.0,1.9876139163970947
405,2291.0,1044.0,3571.0,1.0,8652.0,12535.0,3888.0,4614.0,-82.0,3.0,71.0,17.0,-128.0,0.0,-128.0,-61.0,1.9894201755523682
406,2291.0,1044.0,3571.0,1.0,8652.0,12535.0,3888.0,4614.0,59.0,127.0,61.0,22.0,-23.0,-102.0,77.0,53.0,1.9912972450256348
407,2291.0,1044.0,3571.0,1.0,8652.0,12535.0,3888.0,4614.0,127.0,76.0,22.0,77.0,46.0,14.0,-6.0,107.0,1.9930567741394043
408,2610.0,970.0,1975.0,1.0,8185.0,12779.0,3826.0,4845.0,127.0,76.0,22.0,77.0,46.0,14.0,-6.0,107.0,1.9992759227752686
409,2610.0,970.0,1975.0,1.0,8185.0,12779.0,3826.0,4845.0,71.0,14.0,36.0,29.0,6.0,45.0,18.0,45.0,2.0389256477355957
410,2610.0,970.0,1975.0,1.0,8185.0,12779.0,3826.0,4845.0,-3.0,-21.0,-26.0,-92.0,-128.0,-94.0,25.0,-42.0,2.0423009395599365
411,867.0,820.0,1699.0,1.0,7958.0,12865.0,3707.0,5081.0,-3.0,-21.0,-26.0,-92.0,-128.0,-94.0,25.0,-42.0,2.04569673538208
412,867.0,820.0,1699.0,1.0,7958.0,12865.0,3707.0,5081.0,-43.0,17.0,12.0,36.0,118.0,0.0,-6.0,-128.0,2.0555927753448486
413,867.0,820.0,1699.0,1.0,7958.0,12865.0,3707.0,5081.0,-18.0,-41.0,25.0,-12.0,-20.0,-29.0,-43.0,27.0,2.057404041290283
414,867.0,820.0,1699.0,1.0,7958.0,12865.0,3707.0,5081.0,-3.0,108.0,-27.0,-44.0,-59.0,30.0,-27.0,-26.0,2.0592265129089355
415,-612.0,451.0,768.0,1.0,7950.0,12805.0,3518.0,5373.0,-3.0,108.0,-27.0,-44.0,-59.0,30.0,-27.0,-26.0,2.0610244274139404
416,-612.0,451.0,768.0,1.0,7950.0,12805.0,3518.0,5373.0,-6.0,102.0,115.0,104.0,67.0,17.0,32.0,-13.0,2.0671348571777344
417,-612.0,451.0,768.0,1.0,7950.0,12805.0,3518.0,5373.0,23.0,-30.0,-45.0,-50.0,58.0,30.0,88.0,80.0,2.0691189765930176
418,213.0,430.0,481.0,1.0,7877.0,12822.0,3520.0,5439.0,23.0,-30.0,-45.0,-50.0,58.0,30.0,88.0,80.0,2.0754780769348145
419,213.0,430.0,481.0,1.0,7877.0,12822.0,3520.0,5439.0,-74.0,-36.0,85.0,-102.0,-126.0,-22.0,-124.0,-70.0,2.0779078006744385
420,213.0,430.0,481.0,1.0,7877.0,12822.0,3520.0,5439.0,29.0,53.0,49.0,43.0,-82.0,-52.0,-83.0,28.0,2.0810768604278564
421,270.0,199.0,-352.0,1.0,7825.0,12842.0,3610.0,5405.0,29.0,53.0,49.0,43.0,-82.0,-52.0,-83.0,28.0,2.0983855724334717
422,270.0,199.0,-352.0,1.0,7825.0,12842.0,3610.0,5405.0,-22.0,-71.0,-109.0,-82.0,-15.0,-58.0,-52.0,15.0,2.1059048175811768
423,270.0,199.0,-352.0,1.0,7825.0,12842.0,3610.0,5405.0,29.0,6.0,-1.0,-12.0,-3.0,12.0,17.0,15.0,2.109222412109375
424,-97.0,72.0,-407.0,1.0,7839.0,12827.0,3663.0,5385.0,29.0,6.0,-1.0,-12.0,-3.0,12.0,17.0,15.0,2.1127026081085205
425,-97.0,72.0,-407.0,1.0,7839.0,12827.0,3663.0,5385.0,-18.0,-70.0,-61.0,-20.0,-58.0,13.0,-65.0,-17.0,2.119431734085083
426,-97.0,72.0,-407.0,1.0,7839.0,12827.0,3663.0,5385.0,16.0,10.0,1.0,-10.0,-61.0,5.0,7.0,49.0,2.121201753616333
427,-135.0,133.0,-345.0,1.0,7840.0,12816.0,3707.0,5380.0,16.0,10.0,1.0,-10.0,-61.0,5.0,7.0,49.0,2.1517703533172607
428,-135.0,133.0,-345.0,1.0,7840.0,12816.0,3707.0,5380.0,0.0,23.0,-17.0,-12.0,-17.0,-44.0,-3.0,-47.0,2.15537691116333
429,-135.0,133.0,-345.0,1.0,7840.0,12816.0,3707.0,5380.0,-11.0,-52.0,0.0,35.0,60.0,8.0,52.0,26.0,2.1599416732788086
430,43.0,121.0,-266.0,1.0,7812.0,12822.0,3743.0,5381.0,-11.0,-52.0,0.0,35.0,60.0,8.0,52.0,26.0,2.1647448539733887
431,43.0,121.0,-266.0,1.0,7812.0,12822.0,3743.0,5381.0,9.0,10.0,19.0,-41.0,-38.0,-106.0,-45.0,21.0,2.167630195617676
432,43.0,121.0,-266.0,1.0,7812.0,12822.0,3743.0,5381.0,-31.0,-28.0,-93.0,-85.0,88.0,-45.0,84.0,32.0,2.171968698501587
433,-95.0,91.0,-123.0,1.0,7827.0,12804.0,3760.0,5391.0,-31.0,-28.0,-93.0,-85.0,88.0,-45.0,84.0,32.0,2.174060106277466
434,-95.0,91.0,-123.0,1.0,7827.0,12804.0,3760.0,5391.0,45.0,40.0,-25.0,48.0,-88.0,-11.0,-2.0,-9.0,2.179602861404419
435,-95.0,91.0,-123.0,1.0,7827.0,12804.0,3760.0,5391.0,4.0,26.0,15.0,46.0,-36.0,-8.0,-20.0,5.0,2.1814379692077637
436,-288.0,95.0,10.0,1.0,7870.0,12768.0,3749.0,5421.0,4.0,26.0,15.0,46.0,-36.0,-8.0,-20.0,5.0,2.226186990737915
437,-288.0,95.0,10.0,1.0,7870.0,12768.0,3749.0,5421.0,-14.0,32.0,40.0,-35.0,14.0,20.0,-3.0,-19.0,2.235598564147949
438,-288.0,95.0,10.0,1.0,7870.0,12768.0,3749.0,5421.0,-13.0,3.0,-5.0,-45.0,-10.0,35.0,-55.0,5.0,2.238661527633667
439,-258.0,122.0,47.0,1.0,7882.0,12749.0,3727.0,5463.0,-13.0,3.0,-5.0,-45.0,-10.0,35.0,-55.0,5.0,2.241699457168579
440,-258.0,122.0,47.0,1.0,7882.0,12749.0,3727.0,5463.0,3.0,0.0,39.0,42.0,-78.0,-9.0,-60.0,16.0,2.244753837585449
441,-258.0,122.0,47.0,1.0,7882.0,12749.0,3727.0,5463.0,-19.0,-36.0,16.0,31.0,50.0,1.0,-96.0,-14.0,2.2472453117370605
442,-258.0,122.0,47.0,1.0,7882.0,12749.0,3727.0,5463.0,-8.0,-43.0,6.0,14.0,-74.0,-62.0,-3.0,-20.0,2.249041795730591
443,-32.0,32.0,-47.0,1.0,7881.0,12738.0,3723.0,5493.0,-8.0,-43.0,6.0,14.0,-74.0,-62.0,-3.0,-20.0,2.254365921020508
444,-32.0,32.0,-47.0,1.0,7881.0,12738.0,3723.0,5493.0,34.0,42.0,40.0,79.0,127.0,29.0,-1.0,-13.0,2.2623136043548584
445,-32.0,32.0,-47.0,1.0,7881.0,12738.0,3723.0,5493.0,8.0,14.0,-21.0,46.0,59.0,-7.0,-54.0,-14.0,2.264145851135254
446,-113.0,-1.0,-75.0,1.0,7894.0,12729.0,3719.0,5499.0,8.0,14.0,-21.0,46.0,59.0,-7.0,-54.0,-14.0,2.2779159545898438
447,-113.0,-1.0,-75.0,1.0,7894.0,12729.0,3719.0,5499.0,-2.0,-5.0,-80.0,-3.0,69.0,13.0,29.0,67.0,2.280979871749878
448,-113.0,-1.0,-75.0,1.0,7894.0,12729.0,3719.0,5499.0,-28.0,-32.0,-27.0,-22.0,4.0,33.0,113.0,7.0,2.2941980361938477
449,-37.0,16.0,-96.0,1.0,7892.0,12725.0,3718.0,5511.0,-28.0,-32.0,-27.0,-22.0,4.0,33.0,113.0,7.0,2.2975149154663086
450,-37.0,16.0,-96.0,1.0,7892.0,12725.0,3718.0,5511.0,-5.0,6.0,-8.0,65.0,30.0,-12.0,-64.0,-29.0,2.3010060787200928
451,-37.0,16.0,-96.0,1.0,7892.0,12725.0,3718.0,5511.0,2.0,5.0,-64.0,-21.0,46.0,33.0,-30.0,-8.0,2.3043177127838135
452,11.0,-6.0,-101.0,1.0,7896.0,12721.0,3726.0,5510.0,2.0,5.0,-64.0,-21.0,46.0,33.0,-30.0,-8.0,2.323728084564209
453,11.0,-6.0,-101.0,1.0,7896.0,12721.0,3726.0,5510.0,29.0,11.0,52.0,29.0,70.0,41.0,19.0,37.0,2.3275060653686523
454,11.0,-6.0,-101.0,1.0,7896.0,12721.0,3726.0,5510.0,4.0,-3.0,-26.0,-58.0,-29.0,-53.0,-65.0,-23.0,2.3310952186584473
455,-40.0,-23.0,-80.0,1.0,7906.0,12714.0,3725.0,5512.0,4.0,-3.0,-26.0,-58.0,-29.0,-53.0,-65.0,-23.0,2.334475517272949
456,-40.0,-23.0,-80.0,1.0,7906.0,12714.0,3725.0,5512.0,-18.0,22.0,4.0,-5.0,-120.0,-19.0,-15.0,15.0,2.336751937866211
457,-40.0,-23.0,-80.0,1.0,7906.0,12714.0,3725.0,5512.0,-2.0,11.0,25.0,69.0,73.0,50.0,49.0,-53.0,2.338517904281616
458,-125.0,-16.0,-44.0,1.0,7924.0,12701.0,3714.0,5523.0,-2.0,11.0,25.0,69.0,73.0,50.0,49.0,-53.0,2.352491855621338
459,-125.0,-16.0,-44.0,1.0,7924.0,12701.0,3714.0,5523.0,-20.0,-29.0,14.0,-55.0,37.0,3.0,-29.0,-5.0,2.3544163703918457
460,-125.0,-16.0,-44.0,1.0,7924.0,12701.0,3714.0,5523.0,-21.0,2.0,-22.0,30.0,17.0,-1.0,-61.0,9.0,2.3561878204345703
461,-165.0,3.0,-2.0,1.0,7937.0,12691.0,3695.0,5541.0,-21.0,2.0,-22.0,30.0,17.0,-1.0,-61.0,9.0,2.393095016479492
462,-165.0,3.0,-2.0,1.0,7937.0,12691.0,3695.0,5541.0,8.0,53.0,29.0,-52.0,33.0,5.0,41.0,8.0,2.3972291946411133
463,-165.0,3.0,-2.0,1.0,7937.0,12691.0,3695.0,5541.0,-3.0,-9.0,25.0,-27.0,-22.0,8.0,8.0,-24.0,2.399726390838623
464,-79.0,29.0,44.0,1.0,7931.0,12691.0,3675.0,5563.0,-3.0,-9.0,25.0,-27.0,-22.0,8.0,8.0,-24.0,2.4014809131622314
465,-79.0,29.0,44.0,1.0,7931.0,12691.0,3675.0,5563.0,-12.0,-27.0,-68.0,-3.0,-103.0,-28.0,-18.0,-39.0,2.404268503189087
466,-79.0,29.0,44.0,1.0,7931.0,12691.0,3675.0,5563.0,-20.0,1.0,64.0,44.0,10.0,9.0,21.0,-30.0,2.4060568809509277
467,-52.0,55.0,94.0,1.0,7918.0,12693.0,3656.0,5588.0,-20.0,1.0,64.0,44.0,10.0,9.0,21.0,-30.0,2.412141799926758
468,-52.0,55.0,94.0,1.0,7918.0,12693.0,3656.0,5588.0,15.0,-9.0,-68.0,-38.0,-2.0,4.0,27.0,-15.0,2.414018154144287
469,-52.0,55.0,94.0,1.0,7918.0,12693.0,3656.0,5588.0,15.0,8.0,-53.0,-98.0,-43.0,-24.0,22.0,23.0,2.415811061859131
470,-73.0,31.0,121.0,1.0,7911.0,12695.0,3634.0,5608.0,15.0,8.0,-53.0,-98.0,-43.0,-24.0,22.0,23.0,2.4348909854888916
471,-73.0,31.0,121.0,1.0,7911.0,12695.0,3634.0,5608.0,-2.0,10.0,66.0,-17.0,-86.0,-14.0,-17.0,-3.0,2.443093776702881
472,-73.0,31.0,121.0,1.0,7911.0,12695.0,3634.0,5608.0,19.0,17.0,42.0,37.0,-26.0,-5.0,-1.0,47.0,2.4461796283721924
473,-37.0,20.0,122.0,1.0,7904.0,12699.0,3618.0,5619.0,19.0,17.0,42.0,37.0,-26.0,-5.0,-1.0,47.0,2.4580514430999756
474,-37.0,20.0,122.0,1.0,7904.0,12699.0,3618.0,5619.0,-30.0,-26.0,30.0,50.0,-26.0,-28.0,-40.0,-11.0,2.4622256755828857
475,-37.0,20.0,122.0,1.0,7904.0,12699.0,3618.0,5619.0,23.0,44.0,-6.0,48.0,4.0,8.0,44.0,-24.0,2.4658379554748535
476,16.0,21.0,115.0,1.0,7889.0,12709.0,3610.0,5623.0,23.0,44.0,-6.0,48.0,4.0,8.0,44.0,-24.0,2.4728500843048096
477,16.0,21.0,115.0,1.0,7889.0,12709.0,3610.0,5623.0,-7.0,-21.0,-23.0,9.0,12.0,22.0,90.0,-24.0,2.495478391647339
478,16.0,21.0,115.0,1.0,7889.0,12709.0,3610.0,5623.0,-15.0,-49.0,0.0,26.0,37.0,6.0,-46.0,-24.0,2.512439489364624
479,31.0,1.0,107.0,1.0,7871.0,12723.0,3600.0,5624.0,-15.0,-49.0,0.0,26.0,37.0,6.0,-46.0,-24.0,2.515889883041382
480,31.0,1.0,107.0,1.0,7871.0,12723.0,3600.0,5624.0,30.0,43.0,54.0,2.0,81.0,12.0,21.0,19.0,2.519106149673462
481,31.0,1.0,107.0,1.0,7871.0,12723.0,3600.0,5624.0,-2.0,20.0,49.0,-12.0,-78.0,-24.0,-32.0,-12.0,2.5209479331970215
482,35.0,-11.0,94.0,1.0,7859.0,12733.0,3593.0,5622.0,-2.0,20.0,49.0,-12.0,-78.0,-24.0,-32.0,-12.0,2.5227482318878174
483,35.0,-11.0,94.0,1.0,7859.0,12733.0,3593.0,5622.0,-26.0,-20.0,17.0,-13.0,-27.0,-14.0,-33.0,-82.0,2.5246570110321045
484,35.0,-11.0,94.0,1.0,7859.0,12733.0,3593.0,5622.0,7.0,14.0,17.0,-17.0,-57.0,-66.0,-22.0,21.0,2.5264291763305664
485,40.0,-23.0,79.0,1.0,7852.0,12741.0,3588.0,5616.0,7.0,14.0,17.0,-17.0,-57.0,-66.0,-22.0,21.0,2.531708002090454
486,40.0,-23.0,79.0,1.0,7852.0,12741.0,3588.0,5616.0,4.0,-15.0,37.0,13.0,5.0,-23.0,-14.0,6.0,2.5395936965942383
487,40.0,-23.0,79.0,1.0,7852.0,12741.0,3588.0,5616.0,-11.0,-27.0,-48.0,-24.0,45.0,44.0,21.0,10.0,2.5556886196136475
488,62.0,-1.0,50.0,1.0,7842.0,12748.0,3589.0,5613.0,-11.0,-27.0,-48.0,-24.0,45.0,44.0,21.0,10.0,2.558609962463379
489,62.0,-1.0,50.0,1.0,7842.0,12748.0,3589.0,5613.0,-13.0,-11.0,-44.0,-42.0,-57.0,11.0,-4.0,11.0,2.5708155632019043
490,62.0,-1.0,50.0,1.0,7842.0,12748.0,3589.0,5613.0,40.0,24.0,47.0,-45.0,39.0,19.0,34.0,106.0,2.574233293533325
491,47.0,2.0,46.0,1.0,7832.0,12755.0,3588.0,5612.0,40.0,24.0,47.0,-45.0,39.0,19.0,34.0,106.0,2.5785064697265625
492,47.0,2.0,46.0,1.0,7832.0,12755.0,3588.0,5612.0,8.0,1.0,-15.0,-14.0,12.0,-16.0,-59.0,9.0,2.5807583332061768
493,47.0,2.0,46.0,1.0,7832.0,12755.0,3588.0,5612.0,-48.0,-30.0,-36.0,34.0,39.0,28.0,21.0,-20.0,2.5826053619384766
494,44.0,4.0,39.0,1.0,7826.0,12759.0,3588.0,5612.0,-48.0,-30.0,-36.0,34.0,39.0,28.0,21.0,-20.0,2.5993399620056152
495,44.0,4.0,39.0,1.0,7826.0,12759.0,3588.0,5612.0,25.0,3.0,-28.0,40.0,-46.0,-10.0,45.0,10.0,2.6228413581848145
496,44.0,4.0,39.0,1.0,7826.0,12759.0,3588.0,5612.0,32.0,29.0,31.0,36.0,17.0,8.0,43.0,3.0,2.6319925785064697
497,12.0,6.0,33.0,1.0,7829.0,12756.0,3586.0,5615.0,32.0,29.0,31.0,36.0,17.0,8.0,43.0,3.0,2.6349527835845947
498,12.0,6.0,33.0,1.0,7829.0,12756.0,3586.0,5615.0,-27.0,-24.0,-13.0,-20.0,-85.0,-23.0,-9.0,-7.0,2.637096881866455
499,12.0,6.0,33.0,1.0,7829.0,12756.0,3586.0,5615.0,10.0,9.0,-19.0,-14.0,-7.0,-1.0,-28.0,-4.0,2.639069080352783
