,Gyro 0,Gyro 1,Gyro 2,Label,Orientation 0,Orientation 1,Orientation 2,Orientation 3,Sensor 0,Sensor 1,Sensor 2,Sensor 3,Sensor 4,Sensor 5,Sensor 6,Sensor 7,Timestamp
0,-24.0,-38.0,47.0,1.0,967.0,10084.0,8419.0,9742.0,0.0,-4.0,-10.0,-3.0,-15.0,-6.0,-1.0,-1.0,1.9073486328125e-06
1,-24.0,-38.0,47.0,1.0,967.0,10084.0,8419.0,9742.0,0.0,-1.0,6.0,2.0,4.0,4.0,5.0,0.0,0.0028333663940429688
2,-24.0,-38.0,47.0,1.0,967.0,10084.0,8419.0,9742.0,-2.0,1.0,8.0,-1.0,4.0,0.0,-1.0,-3.0,0.0053141117095947266
3,-9.0,-41.0,47.0,1.0,971.0,10091.0,8416.0,9737.0,-2.0,1.0,8.0,-1.0,4.0,0.0,-1.0,-3.0,0.0077707767486572266
4,-20.0,-38.0,49.0,1.0,978.0,10097.0,8412.0,9734.0,-2.0,1.0,8.0,-1.0,4.0,0.0,-1.0,-3.0,0.010210752487182617
5,-20.0,-38.0,49.0,1.0,978.0,10097.0,8412.0,9734.0,6.0,1.0,3.0,-1.0,3.0,3.0,4.0,4.0,0.012570381164550781
6,-20.0,-38.0,49.0,1.0,978.0,10097.0,8412.0,9734.0,-9.0,-12.0,-14.0,3.0,0.0,-2.0,-1.0,-6.0,0.01484227180480957
7,9.0,-40.0,51.0,1.0,979.0,10105.0,8410.0,9726.0,-9.0,-12.0,-14.0,3.0,0.0,-2.0,-1.0,-6.0,0.017104625701904297
8,9.0,-40.0,51.0,1.0,979.0,10105.0,8410.0,9726.0,-1.0,-11.0,-4.0,-3.0,-2.0,-5.0,-2.0,-2.0,0.019483327865600586
9,9.0,-40.0,51.0,1.0,979.0,10105.0,8410.0,9726.0,12.0,25.0,22.0,0.0,10.0,9.0,9.0,4.0,0.02219700813293457
10,18.0,-37.0,52.0,1.0,979.0,10114.0,8410.0,9717.0,12.0,25.0,22.0,0.0,10.0,9.0,9.0,4.0,0.024938344955444336
11,18.0,-37.0,52.0,1.0,979.0,10114.0,8410.0,9717.0,-4.0,1.0,1.0,-10.0,-38.0,-8.0,0.0,-4.0,0.027365446090698242
12,18.0,-37.0,52.0,1.0,979.0,10114.0,8410.0,9717.0,-6.0,2.0,21.0,4.0,9.0,1.0,-9.0,-3.0,0.029626846313476562
13,12.0,-12.0,48.0,1.0,976.0,10122.0,8411.0,9708.0,-6.0,2.0,21.0,4.0,9.0,1.0,-9.0,-3.0,0.03188037872314453
14,12.0,-12.0,48.0,1.0,976.0,10122.0,8411.0,9708.0,1.0,-2.0,4.0,2.0,12.0,3.0,2.0,1.0,0.034216880798339844
15,12.0,-12.0,48.0,1.0,976.0,10122.0,8411.0,9708.0,1.0,3.0,-3.0,2.0,1.0,-4.0,-8.0,1.0,0.03648853302001953
16,16.0,29.0,36.0,1.0,967.0,10127.0,8413.0,9702.0,1.0,3.0,-3.0,2.0,1.0,-4.0,-8.0,1.0,0.03878426551818848
17,16.0,29.0,36.0,1.0,967.0,10127.0,8413.0,9702.0,-2.0,-2.0,0.0,2.0,6.0,2.0,0.0,-3.0,0.04111433029174805
18,16.0,29.0,36.0,1.0,967.0,10127.0,8413.0,9702.0,13.0,38.0,29.0,-1.0,0.0,-2.0,2.0,5.0,0.04346632957458496
19,42.0,54.0,18.0,1.0,953.0,10129.0,8419.0,9696.0,13.0,38.0,29.0,-1.0,0.0,-2.0,2.0,5.0,0.0457913875579834
20,42.0,54.0,18.0,1.0,953.0,10129.0,8419.0,9696.0,3.0,8.0,5.0,2.0,-8.0,1.0,-9.0,1.0,0.04811549186706543
21,42.0,54.0,18.0,1.0,953.0,10129.0,8419.0,9696.0,-9.0,-29.0,-19.0,-3.0,-8.0,-5.0,-2.0,-4.0,0.05040311813354492
22,78.0,71.0,6.0,1.0,933.0,10130.0,8430.0,9687.0,-9.0,-29.0,-19.0,-3.0,-8.0,-5.0,-2.0,-4.0,0.05283617973327637
23,78.0,71.0,6.0,1.0,933.0,10130.0,8430.0,9687.0,-1.0,6.0,-1.0,1.0,3.0,5.0,10.0,-5.0,0.055458784103393555
24,78.0,71.0,6.0,1.0,933.0,10130.0,8430.0,9687.0,-10.0,-25.0,-27.0,-4.0,-5.0,-4.0,-11.0,8.0,0.0580596923828125
25,82.0,73.0,-8.0,1.0,911.0,10129.0,8440.0,9682.0,-10.0,-25.0,-27.0,-4.0,-5.0,-4.0,-11.0,8.0,0.06038641929626465
26,82.0,73.0,-8.0,1.0,911.0,10129.0,8440.0,9682.0,4.0,9.0,16.0,3.0,13.0,3.0,3.0,0.0,0.06274247169494629
27,82.0,73.0,-8.0,1.0,911.0,10129.0,8440.0,9682.0,-2.0,8.0,13.0,-7.0,5.0,-2.0,-1.0,-6.0,0.06505465507507324
28,129.0,67.0,-21.0,1.0,883.0,10129.0,8454.0,9673.0,-2.0,8.0,13.0,-7.0,5.0,-2.0,-1.0,-6.0,0.06738805770874023
29,129.0,67.0,-21.0,1.0,883.0,10129.0,8454.0,9673.0,-7.0,-14.0,-20.0,3.0,2.0,-6.0,-6.0,-3.0,0.06978225708007812
30,129.0,67.0,-21.0,1.0,883.0,10129.0,8454.0,9673.0,-4.0,-1.0,5.0,-2.0,6.0,4.0,4.0,0.0,0.07213973999023438
31,199.0,61.0,-42.0,1.0,852.0,10124.0,8476.0,9661.0,-4.0,-1.0,5.0,-2.0,6.0,4.0,4.0,0.0,0.07512140274047852
32,199.0,61.0,-42.0,1.0,852.0,10124.0,8476.0,9661.0,-2.0,1.0,2.0,0.0,-3.0,-2.0,0.0,-3.0,0.07752084732055664
33,199.0,61.0,-42.0,1.0,852.0,10124.0,8476.0,9661.0,3.0,-7.0,-19.0,0.0,8.0,6.0,10.0,1.0,0.07979154586791992
34,232.0,46.0,-72.0,1.0,828.0,10113.0,8505.0,9649.0,3.0,-7.0,-19.0,0.0,8.0,6.0,10.0,1.0,0.08222484588623047
35,232.0,46.0,-72.0,1.0,828.0,10113.0,8505.0,9649.0,0.0,12.0,4.0,-1.0,-17.0,-1.0,-3.0,-4.0,0.08532094955444336
36,232.0,46.0,-72.0,1.0,828.0,10113.0,8505.0,9649.0,0.0,4.0,-8.0,0.0,-21.0,-8.0,-19.0,-4.0,0.08820509910583496
37,221.0,53.0,-80.0,1.0,811.0,10098.0,8537.0,9638.0,0.0,4.0,-8.0,0.0,-21.0,-8.0,-19.0,-4.0,0.09097480773925781
38,221.0,53.0,-80.0,1.0,811.0,10098.0,8537.0,9638.0,-5.0,0.0,11.0,3.0,17.0,5.0,-3.0,3.0,0.0933690071105957
39,221.0,53.0,-80.0,1.0,811.0,10098.0,8537.0,9638.0,-2.0,-18.0,-1.0,2.0,-13.0,-7.0,-2.0,-2.0,0.09565114974975586
40,132.0,49.0,-68.0,1.0,805.0,10081.0,8560.0,9636.0,-2.0,-18.0,-1.0,2.0,-13.0,-7.0,-2.0,-2.0,0.09798145294189453
41,132.0,49.0,-68.0,1.0,805.0,10081.0,8560.0,9636.0,-6.0,-7.0,-2.0,0.0,5.0,-3.0,0.0,-6.0,0.10032868385314941
42,132.0,49.0,-68.0,1.0,805.0,10081.0,8560.0,9636.0,2.0,-4.0,-15.0,-2.0,13.0,4.0,1.0,3.0,0.10260915756225586
43,26.0,34.0,-54.0,1.0,809.0,10068.0,8569.0,9641.0,2.0,-4.0,-15.0,-2.0,13.0,4.0,1.0,3.0,0.10500264167785645
44,26.0,34.0,-54.0,1.0,809.0,10068.0,8569.0,9641.0,-5.0,-13.0,-17.0,-5.0,-5.0,-3.0,0.0,0.0,0.10774612426757812
45,26.0,34.0,-54.0,1.0,809.0,10068.0,8569.0,9641.0,3.0,10.0,-2.0,-1.0,3.0,-1.0,2.0,-5.0,0.1101076602935791
46,-21.0,15.0,-19.0,1.0,814.0,10062.0,8568.0,9649.0,3.0,10.0,-2.0,-1.0,3.0,-1.0,2.0,-5.0,0.11240601539611816
47,-21.0,15.0,-19.0,1.0,814.0,10062.0,8568.0,9649.0,8.0,-4.0,-25.0,-7.0,1.0,-4.0,-9.0,5.0,0.1148221492767334
48,-21.0,15.0,-19.0,1.0,814.0,10062.0,8568.0,9649.0,-2.0,6.0,12.0,-1.0,4.0,4.0,9.0,-4.0,0.11741828918457031
49,23.0,-1.0,7.0,1.0,807.0,10063.0,8566.0,9650.0,-2.0,6.0,12.0,-1.0,4.0,4.0,9.0,-4.0,0.12007308006286621
50,23.0,-1.0,7.0,1.0,807.0,10063.0,8566.0,9650.0,-4.0,-5.0,-9.0,-2.0,3.0,-3.0,0.0,-4.0,0.12257122993469238
51,23.0,-1.0,7.0,1.0,807.0,10063.0,8566.0,9650.0,0.0,-2.0,1.0,-1.0,-1.0,-2.0,1.0,-2.0,0.1248939037322998
52,56.0,-22.0,34.0,1.0,800.0,10067.0,8566.0,9646.0,0.0,-2.0,1.0,-1.0,-1.0,-2.0,1.0,-2.0,0.1272127628326416
53,56.0,-22.0,34.0,1.0,800.0,10067.0,8566.0,9646.0,1.0,4.0,5.0,2.0,5.0,2.0,-3.0,2.0,0.129563570022583
54,56.0,-22.0,34.0,1.0,800.0,10067.0,8566.0,9646.0,9.0,4.0,-36.0,-7.0,-24.0,-6.0,-5.0,7.0,0.13181090354919434
55,22.0,-35.0,64.0,1.0,794.0,10074.0,8560.0,9644.0,9.0,4.0,-36.0,-7.0,-24.0,-6.0,-5.0,7.0,0.13406658172607422
56,22.0,-35.0,64.0,1.0,794.0,10074.0,8560.0,9644.0,6.0,9.0,-1.0,-3.0,-18.0,-1.0,-1.0,1.0,0.13654136657714844
57,22.0,-35.0,64.0,1.0,794.0,10074.0,8560.0,9644.0,-7.0,-12.0,8.0,1.0,14.0,1.0,0.0,-5.0,0.13883638381958008
58,-56.0,-49.0,92.0,1.0,794.0,10086.0,8541.0,9649.0,-7.0,-12.0,8.0,1.0,14.0,1.0,0.0,-5.0,0.14110517501831055
59,-56.0,-49.0,92.0,1.0,794.0,10086.0,8541.0,9649.0,-1.0,1.0,13.0,1.0,9.0,3.0,3.0,0.0,0.14349651336669922
60,-56.0,-49.0,92.0,1.0,794.0,10086.0,8541.0,9649.0,4.0,7.0,0.0,1.0,-14.0,2.0,10.0,0.0,0.14576101303100586
61,-108.0,-63.0,112.0,1.0,796.0,10101.0,8512.0,9658.0,4.0,7.0,0.0,1.0,-14.0,2.0,10.0,0.0,0.1483006477355957
62,-108.0,-63.0,112.0,1.0,796.0,10101.0,8512.0,9658.0,3.0,30.0,42.0,-1.0,0.0,2.0,12.0,-4.0,0.15103864669799805
63,-108.0,-63.0,112.0,1.0,796.0,10101.0,8512.0,9658.0,-3.0,-6.0,0.0,-3.0,-1.0,3.0,-2.0,-1.0,0.15332341194152832
64,-134.0,-66.0,130.0,1.0,799.0,10120.0,8479.0,9668.0,-3.0,-6.0,0.0,-3.0,-1.0,3.0,-2.0,-1.0,0.15561699867248535
65,-134.0,-66.0,130.0,1.0,799.0,10120.0,8479.0,9668.0,7.0,-1.0,-2.0,-2.0,-1.0,2.0,-2.0,6.0,0.15797948837280273
66,-134.0,-66.0,130.0,1.0,799.0,10120.0,8479.0,9668.0,2.0,-11.0,-40.0,3.0,-1.0,3.0,1.0,-2.0,0.16023492813110352
67,-165.0,-61.0,137.0,1.0,804.0,10140.0,8444.0,9677.0,2.0,-11.0,-40.0,3.0,-1.0,3.0,1.0,-2.0,0.16262459754943848
68,-165.0,-61.0,137.0,1.0,804.0,10140.0,8444.0,9677.0,-4.0,5.0,8.0,-4.0,-3.0,-4.0,2.0,1.0,0.16503596305847168
69,-165.0,-61.0,137.0,1.0,804.0,10140.0,8444.0,9677.0,-10.0,1.0,26.0,-1.0,-11.0,-11.0,-9.0,-6.0,0.1672987937927246
70,-179.0,-62.0,133.0,1.0,807.0,10164.0,8408.0,9682.0,-10.0,1.0,26.0,-1.0,-11.0,-11.0,-9.0,-6.0,0.1695539951324463
71,-179.0,-62.0,133.0,1.0,807.0,10164.0,8408.0,9682.0,1.0,-6.0,-15.0,0.0,10.0,3.0,1.0,1.0,0.171919584274292
72,-179.0,-62.0,133.0,1.0,807.0,10164.0,8408.0,9682.0,-5.0,5.0,22.0,0.0,0.0,0.0,-1.0,0.0,0.1742100715637207
73,-111.0,-52.0,111.0,1.0,804.0,10188.0,8383.0,9679.0,-5.0,5.0,22.0,0.0,0.0,0.0,-1.0,0.0,0.17656493186950684
74,-111.0,-52.0,111.0,1.0,804.0,10188.0,8383.0,9679.0,-2.0,-15.0,-13.0,-4.0,-4.0,-2.0,-6.0,-2.0,0.17926502227783203
75,-111.0,-52.0,111.0,1.0,804.0,10188.0,8383.0,9679.0,0.0,7.0,16.0,3.0,10.0,1.0,-9.0,2.0,0.18189001083374023
76,2.0,-33.0,85.0,1.0,789.0,10208.0,8374.0,9667.0,0.0,7.0,16.0,3.0,10.0,1.0,-9.0,2.0,0.18416357040405273
77,2.0,-33.0,85.0,1.0,789.0,10208.0,8374.0,9667.0,-5.0,-10.0,-6.0,2.0,-13.0,-4.0,-4.0,-1.0,0.18654799461364746
78,2.0,-33.0,85.0,1.0,789.0,10208.0,8374.0,9667.0,-2.0,-7.0,-2.0,-3.0,10.0,2.0,3.0,3.0,0.1888718605041504
79,107.0,-11.0,47.0,1.0,766.0,10223.0,8381.0,9647.0,-2.0,-7.0,-2.0,-3.0,10.0,2.0,3.0,3.0,0.19129371643066406
80,107.0,-11.0,47.0,1.0,766.0,10223.0,8381.0,9647.0,-8.0,-5.0,1.0,0.0,-6.0,-4.0,-2.0,-4.0,0.19363999366760254
81,107.0,-11.0,47.0,1.0,766.0,10223.0,8381.0,9647.0,1.0,-5.0,10.0,-5.0,-1.0,-4.0,-4.0,-3.0,0.19588780403137207
82,157.0,9.0,25.0,1.0,744.0,10229.0,8397.0,9628.0,1.0,-5.0,10.0,-5.0,-1.0,-4.0,-4.0,-3.0,0.19822931289672852
83,157.0,9.0,25.0,1.0,744.0,10229.0,8397.0,9628.0,4.0,15.0,-9.0,0.0,3.0,4.0,5.0,1.0,0.20063042640686035
84,157.0,9.0,25.0,1.0,744.0,10229.0,8397.0,9628.0,4.0,2.0,0.0,4.0,24.0,3.0,1.0,0.0,0.20297837257385254
85,173.0,18.0,2.0,1.0,727.0,10228.0,8418.0,9613.0,4.0,2.0,0.0,4.0,24.0,3.0,1.0,0.0,0.20553064346313477
86,173.0,18.0,2.0,1.0,727.0,10228.0,8418.0,9613.0,-10.0,-16.0,-3.0,2.0,-7.0,-4.0,-4.0,-9.0,0.2079458236694336
87,173.0,18.0,2.0,1.0,727.0,10228.0,8418.0,9613.0,1.0,-6.0,-15.0,-4.0,-3.0,2.0,5.0,2.0,0.21049928665161133
88,172.0,9.0,-14.0,1.0,716.0,10222.0,8441.0,9600.0,1.0,-6.0,-15.0,-4.0,-3.0,2.0,5.0,2.0,0.21331238746643066
89,172.0,9.0,-14.0,1.0,716.0,10222.0,8441.0,9600.0,3.0,-1.0,-16.0,-2.0,7.0,-3.0,-2.0,6.0,0.21566081047058105
90,172.0,9.0,-14.0,1.0,716.0,10222.0,8441.0,9600.0,1.0,-3.0,-3.0,0.0,-9.0,-3.0,-1.0,0.0,0.21791982650756836
91,126.0,3.0,-15.0,1.0,713.0,10214.0,8460.0,9592.0,1.0,-3.0,-3.0,0.0,-9.0,-3.0,-1.0,0.0,0.2202012538909912
92,126.0,3.0,-15.0,1.0,713.0,10214.0,8460.0,9592.0,-7.0,-3.0,15.0,-2.0,0.0,-6.0,-8.0,-7.0,0.22258472442626953
93,126.0,3.0,-15.0,1.0,713.0,10214.0,8460.0,9592.0,5.0,9.0,12.0,1.0,6.0,9.0,12.0,2.0,0.2249152660369873
94,55.0,-14.0,-4.0,1.0,721.0,10208.0,8472.0,9587.0,5.0,9.0,12.0,1.0,6.0,9.0,12.0,2.0,0.2276601791381836
95,55.0,-14.0,-4.0,1.0,721.0,10208.0,8472.0,9587.0,-1.0,-19.0,-1.0,2.0,2.0,1.0,-2.0,-3.0,0.23089170455932617
96,55.0,-14.0,-4.0,1.0,721.0,10208.0,8472.0,9587.0,-2.0,-2.0,-16.0,3.0,5.0,7.0,-1.0,-3.0,0.23317813873291016
97,-34.0,-37.0,14.0,1.0,739.0,10206.0,8471.0,9589.0,-2.0,-2.0,-16.0,3.0,5.0,7.0,-1.0,-3.0,0.23960256576538086
98,-34.0,-37.0,14.0,1.0,739.0,10206.0,8471.0,9589.0,6.0,8.0,-2.0,-4.0,-16.0,-13.0,2.0,6.0,0.24822592735290527
99,-34.0,-37.0,14.0,1.0,739.0,10206.0,8471.0,9589.0,-11.0,-5.0,-1.0,-2.0,-14.0,-13.0,-7.0,-11.0,0.250652551651001
100,-81.0,-62.0,13.0,1.0,761.0,10208.0,8466.0,9589.0,-11.0,-5.0,-1.0,-2.0,-14.0,-13.0,-7.0,-11.0,0.2636582851409912
101,-81.0,-62.0,13.0,1.0,761.0,10208.0,8466.0,9589.0,3.0,3.0,-12.0,-1.0,25.0,10.0,2.0,2.0,0.26601624488830566
102,-81.0,-62.0,13.0,1.0,761.0,10208.0,8466.0,9589.0,3.0,-3.0,-20.0,0.0,-4.0,-1.0,-1.0,0.0,0.2682514190673828
103,-94.0,-74.0,16.0,1.0,784.0,10213.0,8457.0,9589.0,3.0,-3.0,-20.0,0.0,-4.0,-1.0,-1.0,0.0,0.2874715328216553
104,-94.0,-74.0,16.0,1.0,784.0,10213.0,8457.0,9589.0,1.0,2.0,1.0,-2.0,-7.0,2.0,4.0,2.0,0.28992486000061035
105,-94.0,-74.0,16.0,1.0,784.0,10213.0,8457.0,9589.0,-1.0,2.0,25.0,-1.0,-12.0,-10.0,-4.0,-1.0,0.2921915054321289
106,-115.0,-82.0,18.0,1.0,809.0,10221.0,8448.0,9587.0,-1.0,2.0,25.0,-1.0,-12.0,-10.0,-4.0,-1.0,0.3089711666107178
107,-115.0,-82.0,18.0,1.0,809.0,10221.0,8448.0,9587.0,1.0,-6.0,-15.0,-4.0,-6.0,-1.0,-1.0,-1.0,0.31133174896240234
108,-115.0,-82.0,18.0,1.0,809.0,10221.0,8448.0,9587.0,1.0,-6.0,-3.0,-3.0,6.0,4.0,5.0,-1.0,0.31360960006713867
109,-139.0,-81.0,20.0,1.0,833.0,10230.0,8434.0,9588.0,1.0,-6.0,-3.0,-3.0,6.0,4.0,5.0,-1.0,0.323655366897583
110,-139.0,-81.0,20.0,1.0,833.0,10230.0,8434.0,9588.0,-8.0,-17.0,4.0,8.0,6.0,-2.0,-7.0,0.0,0.32599616050720215
111,-139.0,-81.0,20.0,1.0,833.0,10230.0,8434.0,9588.0,1.0,6.0,14.0,-8.0,-62.0,-14.0,-15.0,0.0,0.3282651901245117
112,-156.0,-68.0,19.0,1.0,856.0,10238.0,8417.0,9592.0,1.0,6.0,14.0,-8.0,-62.0,-14.0,-15.0,0.0,0.34616947174072266
113,-156.0,-68.0,19.0,1.0,856.0,10238.0,8417.0,9592.0,-1.0,-15.0,-27.0,-9.0,-8.0,-1.0,0.0,-2.0,0.34848809242248535
114,-156.0,-68.0,19.0,1.0,856.0,10238.0,8417.0,9592.0,3.0,0.0,-5.0,6.0,21.0,6.0,4.0,0.0,0.3507661819458008
115,-153.0,-59.0,9.0,1.0,879.0,10245.0,8402.0,9595.0,3.0,0.0,-5.0,6.0,21.0,6.0,4.0,0.0,0.3596508502960205
116,-153.0,-59.0,9.0,1.0,879.0,10245.0,8402.0,9595.0,-3.0,5.0,9.0,-1.0,2.0,1.0,4.0,1.0,0.36815619468688965
117,-153.0,-59.0,9.0,1.0,879.0,10245.0,8402.0,9595.0,-20.0,-44.0,6.0,4.0,4.0,-2.0,-1.0,-9.0,0.3747587203979492
118,-130.0,-56.0,7.0,1.0,897.0,10252.0,8388.0,9598.0,-20.0,-44.0,6.0,4.0,4.0,-2.0,-1.0,-9.0,0.3910956382751465
119,-130.0,-56.0,7.0,1.0,897.0,10252.0,8388.0,9598.0,8.0,25.0,28.0,5.0,1.0,4.0,0.0,0.0,0.3934595584869385
120,-130.0,-56.0,7.0,1.0,897.0,10252.0,8388.0,9598.0,0.0,6.0,-10.0,0.0,-3.0,-4.0,-7.0,1.0,0.3957407474517822
121,-93.0,-38.0,-8.0,1.0,909.0,10257.0,8379.0,9600.0,0.0,6.0,-10.0,0.0,-3.0,-4.0,-7.0,1.0,0.40703582763671875
122,-93.0,-38.0,-8.0,1.0,909.0,10257.0,8379.0,9600.0,-5.0,-9.0,-9.0,1.0,-6.0,2.0,1.0,-1.0,0.4097473621368408
123,-93.0,-38.0,-8.0,1.0,909.0,10257.0,8379.0,9600.0,-1.0,-5.0,-11.0,-5.0,11.0,-3.0,-1.0,-3.0,0.41219544410705566
124,-68.0,-35.0,-17.0,1.0,921.0,10259.0,8374.0,9602.0,-1.0,-5.0,-11.0,-5.0,11.0,-3.0,-1.0,-3.0,0.41975831985473633
125,-68.0,-35.0,-17.0,1.0,921.0,10259.0,8374.0,9602.0,10.0,15.0,-35.0,-11.0,-6.0,-1.0,2.0,2.0,0.4280509948730469
126,-68.0,-35.0,-17.0,1.0,921.0,10259.0,8374.0,9602.0,10.0,19.0,5.0,-1.0,5.0,0.0,2.0,2.0,0.43076157569885254
127,-50.0,-22.0,-22.0,1.0,931.0,10259.0,8371.0,9604.0,10.0,19.0,5.0,-1.0,5.0,0.0,2.0,2.0,0.443772554397583
128,-50.0,-22.0,-22.0,1.0,931.0,10259.0,8371.0,9604.0,-4.0,2.0,6.0,2.0,3.0,1.0,1.0,-8.0,0.44616079330444336
129,-50.0,-22.0,-22.0,1.0,931.0,10259.0,8371.0,9604.0,1.0,2.0,-26.0,-5.0,-1.0,1.0,1.0,4.0,0.4484426975250244
130,-32.0,-20.0,-14.0,1.0,938.0,10259.0,8369.0,9604.0,1.0,2.0,-26.0,-5.0,-1.0,1.0,1.0,4.0,0.46670985221862793
131,-32.0,-20.0,-14.0,1.0,938.0,10259.0,8369.0,9604.0,6.0,-7.0,-21.0,-3.0,2.0,-2.0,-3.0,6.0,0.4691133499145508
132,-32.0,-20.0,-14.0,1.0,938.0,10259.0,8369.0,9604.0,-16.0,-16.0,0.0,4.0,-14.0,1.0,7.0,-7.0,0.47139930725097656
133,-46.0,-12.0,-4.0,1.0,945.0,10260.0,8365.0,9606.0,-16.0,-16.0,0.0,4.0,-14.0,1.0,7.0,-7.0,0.4887051582336426
134,-46.0,-12.0,-4.0,1.0,945.0,10260.0,8365.0,9606.0,-9.0,-7.0,8.0,2.0,2.0,-3.0,-15.0,-7.0,0.49110865592956543
135,-46.0,-12.0,-4.0,1.0,945.0,10260.0,8365.0,9606.0,-1.0,5.0,4.0,3.0,16.0,3.0,-1.0,-1.0,0.4938335418701172
136,-50.0,-4.0,9.0,1.0,951.0,10261.0,8360.0,9609.0,-1.0,5.0,4.0,3.0,16.0,3.0,-1.0,-1.0,0.5035116672515869
137,-50.0,-4.0,9.0,1.0,951.0,10261.0,8360.0,9609.0,-1.0,-19.0,-2.0,-6.0,-6.0,-3.0,4.0,2.0,0.5059483051300049
138,-50.0,-4.0,9.0,1.0,951.0,10261.0,8360.0,9609.0,3.0,14.0,3.0,-1.0,10.0,5.0,-2.0,-3.0,0.5097527503967285
139,-65.0,-1.0,19.0,1.0,957.0,10263.0,8353.0,9611.0,3.0,14.0,3.0,-1.0,10.0,5.0,-2.0,-3.0,0.5264649391174316
140,-65.0,-1.0,19.0,1.0,957.0,10263.0,8353.0,9611.0,9.0,31.0,27.0,5.0,-2.0,-5.0,7.0,3.0,0.5296492576599121
141,-65.0,-1.0,19.0,1.0,957.0,10263.0,8353.0,9611.0,-1.0,-8.0,-11.0,-9.0,-13.0,-8.0,-2.0,1.0,0.5319430828094482
142,-63.0,5.0,19.0,1.0,963.0,10265.0,8348.0,9613.0,-1.0,-8.0,-11.0,-9.0,-13.0,-8.0,-2.0,1.0,0.5483710765838623
143,-63.0,5.0,19.0,1.0,963.0,10265.0,8348.0,9613.0,-6.0,-12.0,-2.0,1.0,5.0,2.0,-5.0,1.0,0.5507440567016602
144,-63.0,5.0,19.0,1.0,963.0,10265.0,8348.0,9613.0,6.0,13.0,22.0,0.0,-4.0,2.0,1.0,-2.0,0.5532410144805908
145,-51.0,7.0,17.0,1.0,966.0,10268.0,8342.0,9615.0,6.0,13.0,22.0,0.0,-4.0,2.0,1.0,-2.0,0.5714430809020996
146,-51.0,7.0,17.0,1.0,966.0,10268.0,8342.0,9615.0,0.0,-9.0,-19.0,-5.0,-26.0,-11.0,-13.0,-7.0,0.5737886428833008
147,-51.0,7.0,17.0,1.0,966.0,10268.0,8342.0,9615.0,5.0,24.0,28.0,-4.0,-3.0,-1.0,-5.0,4.0,0.5761151313781738
148,-18.0,14.0,7.0,1.0,966.0,10269.0,8343.0,9613.0,5.0,24.0,28.0,-4.0,-3.0,-1.0,-5.0,4.0,0.585132360458374
149,-18.0,14.0,7.0,1.0,966.0,10269.0,8343.0,9613.0,-4.0,-2.0,23.0,2.0,6.0,7.0,5.0,4.0,0.5938169956207275
150,-18.0,14.0,7.0,1.0,966.0,10269.0,8343.0,9613.0,3.0,6.0,-6.0,2.0,4.0,2.0,-10.0,4.0,0.5961086750030518
151,-2.0,21.0,1.0,1.0,965.0,10269.0,8345.0,9612.0,3.0,6.0,-6.0,2.0,4.0,2.0,-10.0,4.0,0.6084580421447754
152,-2.0,21.0,1.0,1.0,965.0,10269.0,8345.0,9612.0,-4.0,7.0,25.0,6.0,11.0,0.0,4.0,-4.0,0.6108095645904541
153,-2.0,21.0,1.0,1.0,965.0,10269.0,8345.0,9612.0,3.0,7.0,9.0,-5.0,-22.0,-4.0,0.0,-1.0,0.6133084297180176
154,4.0,30.0,-5.0,1.0,965.0,10265.0,8349.0,9612.0,3.0,7.0,9.0,-5.0,-22.0,-4.0,0.0,-1.0,0.6314163208007812
155,4.0,30.0,-5.0,1.0,965.0,10265.0,8349.0,9612.0,-9.0,-6.0,15.0,2.0,4.0,2.0,-5.0,-8.0,0.633885383605957
156,4.0,30.0,-5.0,1.0,965.0,10265.0,8349.0,9612.0,5.0,-1.0,-38.0,-1.0,16.0,3.0,6.0,4.0,0.6362874507904053
157,13.0,34.0,-4.0,1.0,964.0,10260.0,8354.0,9613.0,5.0,-1.0,-38.0,-1.0,16.0,3.0,6.0,4.0,0.6448273658752441
158,13.0,34.0,-4.0,1.0,964.0,10260.0,8354.0,9613.0,3.0,1.0,-12.0,-2.0,-27.0,-8.0,1.0,1.0,0.6535489559173584
159,13.0,34.0,-4.0,1.0,964.0,10260.0,8354.0,9613.0,-9.0,-14.0,-8.0,2.0,15.0,-5.0,-3.0,-6.0,0.656259298324585
160,18.0,37.0,-12.0,1.0,964.0,10254.0,8360.0,9615.0,-9.0,-14.0,-8.0,2.0,15.0,-5.0,-3.0,-6.0,0.6702499389648438
161,18.0,37.0,-12.0,1.0,964.0,10254.0,8360.0,9615.0,1.0,4.0,7.0,-1.0,10.0,0.0,1.0,-1.0,0.6750798225402832
162,18.0,37.0,-12.0,1.0,964.0,10254.0,8360.0,9615.0,2.0,-6.0,-7.0,-1.0,11.0,8.0,2.0,2.0,0.6790592670440674
163,18.0,30.0,-14.0,1.0,966.0,10248.0,8368.0,9614.0,2.0,-6.0,-7.0,-1.0,11.0,8.0,2.0,2.0,0.6922991275787354
164,18.0,30.0,-14.0,1.0,966.0,10248.0,8368.0,9614.0,1.0,2.0,-12.0,-4.0,-4.0,1.0,1.0,-1.0,0.696418285369873
165,18.0,30.0,-14.0,1.0,966.0,10248.0,8368.0,9614.0,-2.0,-7.0,0.0,3.0,-3.0,-7.0,7.0,-9.0,0.701296329498291
166,18.0,22.0,-15.0,1.0,969.0,10244.0,8376.0,9611.0,-2.0,-7.0,0.0,3.0,-3.0,-7.0,7.0,-9.0,0.7046310901641846
167,18.0,22.0,-15.0,1.0,969.0,10244.0,8376.0,9611.0,13.0,10.0,-32.0,-9.0,-5.0,2.0,5.0,9.0,0.7133255004882812
168,18.0,22.0,-15.0,1.0,969.0,10244.0,8376.0,9611.0,-5.0,-9.0,3.0,-2.0,0.0,-2.0,-3.0,-10.0,0.716167688369751
169,17.0,26.0,-14.0,1.0,969.0,10240.0,8383.0,9609.0,-5.0,-9.0,3.0,-2.0,0.0,-2.0,-3.0,-10.0,0.7289576530456543
170,17.0,26.0,-14.0,1.0,969.0,10240.0,8383.0,9609.0,2.0,3.0,5.0,2.0,12.0,5.0,2.0,4.0,0.7313358783721924
171,17.0,26.0,-14.0,1.0,969.0,10240.0,8383.0,9609.0,-1.0,9.0,13.0,2.0,-19.0,-4.0,-3.0,-1.0,0.7336094379425049
172,29.0,26.0,-10.0,1.0,968.0,10237.0,8391.0,9605.0,-1.0,9.0,13.0,2.0,-19.0,-4.0,-3.0,-1.0,0.7516632080078125
173,29.0,26.0,-10.0,1.0,968.0,10237.0,8391.0,9605.0,-3.0,-2.0,-4.0,-5.0,-12.0,-5.0,-13.0,3.0,0.7541377544403076
174,29.0,26.0,-10.0,1.0,968.0,10237.0,8391.0,9605.0,1.0,-2.0,2.0,0.0,3.0,1.0,2.0,5.0,0.7564187049865723
175,40.0,26.0,-6.0,1.0,964.0,10234.0,8399.0,9602.0,1.0,-2.0,2.0,0.0,3.0,1.0,2.0,5.0,0.7649667263031006
176,40.0,26.0,-6.0,1.0,964.0,10234.0,8399.0,9602.0,-17.0,-18.0,26.0,6.0,10.0,1.0,3.0,-11.0,0.7742772102355957
177,40.0,26.0,-6.0,1.0,964.0,10234.0,8399.0,9602.0,8.0,9.0,3.0,-6.0,-7.0,-3.0,-2.0,9.0,0.7784576416015625
178,58.0,19.0,-10.0,1.0,960.0,10231.0,8409.0,9596.0,8.0,9.0,3.0,-6.0,-7.0,-3.0,-2.0,9.0,0.7890610694885254
179,58.0,19.0,-10.0,1.0,960.0,10231.0,8409.0,9596.0,-11.0,-1.0,19.0,0.0,0.0,-2.0,-3.0,-8.0,0.7915220260620117
180,58.0,19.0,-10.0,1.0,960.0,10231.0,8409.0,9596.0,-1.0,-3.0,14.0,1.0,16.0,3.0,12.0,5.0,0.7938013076782227
181,52.0,15.0,-5.0,1.0,956.0,10229.0,8418.0,9592.0,-1.0,-3.0,14.0,1.0,16.0,3.0,12.0,5.0,0.8119480609893799
182,52.0,15.0,-5.0,1.0,956.0,10229.0,8418.0,9592.0,0.0,-6.0,-13.0,0.0,-7.0,-3.0,-2.0,2.0,0.8146917819976807
183,52.0,15.0,-5.0,1.0,956.0,10229.0,8418.0,9592.0,1.0,-5.0,-2.0,3.0,11.0,7.0,6.0,3.0,0.81697678565979
184,45.0,15.0,-11.0,1.0,955.0,10224.0,8426.0,9590.0,1.0,-5.0,-2.0,3.0,11.0,7.0,6.0,3.0,0.8251056671142578
185,45.0,15.0,-11.0,1.0,955.0,10224.0,8426.0,9590.0,-4.0,-9.0,-19.0,1.0,-11.0,0.0,-14.0,-6.0,0.8345050811767578
186,45.0,15.0,-11.0,1.0,955.0,10224.0,8426.0,9590.0,-4.0,-6.0,-8.0,10.0,-4.0,-3.0,-5.0,-1.0,0.8387935161590576
187,41.0,17.0,-8.0,1.0,954.0,10219.0,8433.0,9588.0,-4.0,-6.0,-8.0,10.0,-4.0,-3.0,-5.0,-1.0,0.8487675189971924
188,41.0,17.0,-8.0,1.0,954.0,10219.0,8433.0,9588.0,4.0,-1.0,-14.0,-6.0,-18.0,-16.0,-5.0,5.0,0.8511435985565186
189,48.0,25.0,-22.0,1.0,950.0,10215.0,8442.0,9586.0,4.0,-1.0,-14.0,-6.0,-18.0,-16.0,-5.0,5.0,0.8534865379333496
190,48.0,25.0,-22.0,1.0,950.0,10215.0,8442.0,9586.0,3.0,-3.0,-42.0,-10.0,-13.0,-15.0,-45.0,-16.0,0.8558323383331299
191,48.0,25.0,-22.0,1.0,950.0,10215.0,8442.0,9586.0,6.0,7.0,1.0,3.0,22.0,21.0,-8.0,5.0,0.8705015182495117
192,110.0,25.0,-66.0,1.0,941.0,10207.0,8460.0,9579.0,6.0,7.0,1.0,3.0,22.0,21.0,-8.0,5.0,0.8731348514556885
193,110.0,25.0,-66.0,1.0,941.0,10207.0,8460.0,9579.0,-28.0,-44.0,11.0,-4.0,-32.0,-11.0,-1.0,-3.0,0.877671480178833
194,110.0,25.0,-66.0,1.0,941.0,10207.0,8460.0,9579.0,4.0,11.0,8.0,10.0,-17.0,-3.0,21.0,-3.0,0.8943121433258057
195,245.0,11.0,-157.0,1.0,931.0,10189.0,8500.0,9564.0,4.0,11.0,8.0,10.0,-17.0,-3.0,21.0,-3.0,0.8985590934753418
196,245.0,11.0,-157.0,1.0,931.0,10189.0,8500.0,9564.0,9.0,21.0,16.0,-21.0,5.0,-13.0,2.0,-3.0,0.9026000499725342
197,245.0,11.0,-157.0,1.0,931.0,10189.0,8500.0,9564.0,-4.0,-7.0,32.0,8.0,-5.0,6.0,14.0,10.0,0.908196210861206
198,190.0,5.0,-306.0,1.0,951.0,10153.0,8555.0,9552.0,-4.0,-7.0,32.0,8.0,-5.0,6.0,14.0,10.0,0.9104959964752197
199,190.0,5.0,-306.0,1.0,951.0,10153.0,8555.0,9552.0,-8.0,-14.0,5.0,5.0,-28.0,-9.0,15.0,-20.0,0.9151573181152344
200,190.0,5.0,-306.0,1.0,951.0,10153.0,8555.0,9552.0,2.0,0.0,45.0,12.0,45.0,13.0,7.0,-5.0,0.9316837787628174
201,83.0,18.0,-491.0,1.0,1018.0,10082.0,8620.0,9562.0,2.0,0.0,45.0,12.0,45.0,13.0,7.0,-5.0,0.9369034767150879
202,83.0,18.0,-491.0,1.0,1018.0,10082.0,8620.0,9562.0,17.0,43.0,-14.0,-16.0,18.0,13.0,2.0,12.0,0.9450995922088623
203,83.0,18.0,-491.0,1.0,1018.0,10082.0,8620.0,9562.0,-28.0,-51.0,-41.0,1.0,-1.0,-10.0,-6.0,-11.0,0.9529964923858643
204,-85.0,8.0,-712.0,1.0,1130.0,9983.0,8688.0,9592.0,-28.0,-51.0,-41.0,1.0,-1.0,-10.0,-6.0,-11.0,0.955286979675293
205,-85.0,8.0,-712.0,1.0,1130.0,9983.0,8688.0,9592.0,20.0,56.0,62.0,-22.0,89.0,25.0,-17.0,15.0,0.9609599113464355
206,-85.0,8.0,-712.0,1.0,1130.0,9983.0,8688.0,9592.0,-18.0,-19.0,-46.0,-36.0,-34.0,-44.0,-15.0,-24.0,0.9681861400604248
207,-193.0,-48.0,-965.0,1.0,1284.0,9865.0,8770.0,9620.0,-18.0,-19.0,-46.0,-36.0,-34.0,-44.0,-15.0,-24.0,0.9755895137786865
208,-193.0,-48.0,-965.0,1.0,1284.0,9865.0,8770.0,9620.0,16.0,-26.0,-126.0,-10.0,20.0,12.0,18.0,4.0,0.9779636859893799
209,-193.0,-48.0,-965.0,1.0,1284.0,9865.0,8770.0,9620.0,3.0,27.0,47.0,12.0,44.0,2.0,0.0,9.0,0.9917337894439697
210,-281.0,-108.0,-1274.0,1.0,1475.0,9724.0,8864.0,9649.0,3.0,27.0,47.0,12.0,44.0,2.0,0.0,9.0,0.9962832927703857
211,-281.0,-108.0,-1274.0,1.0,1475.0,9724.0,8864.0,9649.0,-4.0,3.0,9.0,20.0,-30.0,-4.0,-1.0,-8.0,1.0018525123596191
212,-281.0,-108.0,-1274.0,1.0,1475.0,9724.0,8864.0,9649.0,-12.0,-36.0,-40.0,-14.0,-21.0,-2.0,-1.0,-8.0,1.0131621360778809
213,-524.0,-137.0,-1468.0,1.0,1730.0,9552.0,8954.0,9695.0,-12.0,-36.0,-40.0,-14.0,-21.0,-2.0,-1.0,-8.0,1.0171680450439453
214,-524.0,-137.0,-1468.0,1.0,1730.0,9552.0,8954.0,9695.0,3.0,9.0,24.0,16.0,-13.0,1.0,4.0,5.0,1.021285057067871
215,-524.0,-137.0,-1468.0,1.0,1730.0,9552.0,8954.0,9695.0,14.0,43.0,27.0,-16.0,-8.0,1.0,-2.0,4.0,1.0278260707855225
216,-764.0,-113.0,-1606.0,1.0,2003.0,9379.0,9038.0,9733.0,14.0,43.0,27.0,-16.0,-8.0,1.0,-2.0,4.0,1.0360617637634277
217,-764.0,-113.0,-1606.0,1.0,2003.0,9379.0,9038.0,9733.0,-24.0,-25.0,2.0,10.0,-11.0,-6.0,-5.0,-4.0,1.0385088920593262
218,-764.0,-113.0,-1606.0,1.0,2003.0,9379.0,9038.0,9733.0,14.0,10.0,-11.0,4.0,7.0,13.0,3.0,3.0,1.0516765117645264
219,-1096.0,-91.0,-1734.0,1.0,2325.0,9176.0,9097.0,9800.0,14.0,10.0,-11.0,4.0,7.0,13.0,3.0,3.0,1.0559561252593994
220,-1096.0,-91.0,-1734.0,1.0,2325.0,9176.0,9097.0,9800.0,19.0,47.0,24.0,0.0,-20.0,-3.0,6.0,9.0,1.0603537559509277
221,-1096.0,-91.0,-1734.0,1.0,2325.0,9176.0,9097.0,9800.0,8.0,3.0,13.0,11.0,-13.0,1.0,3.0,1.0,1.0729641914367676
222,-1351.0,-87.0,-2079.0,1.0,2711.0,8923.0,9155.0,9880.0,8.0,3.0,13.0,11.0,-13.0,1.0,3.0,1.0,1.0768637657165527
223,-1351.0,-87.0,-2079.0,1.0,2711.0,8923.0,9155.0,9880.0,-9.0,-30.0,0.0,1.0,-12.0,-4.0,-7.0,0.0,1.0809943675994873
224,-1351.0,-87.0,-2079.0,1.0,2711.0,8923.0,9155.0,9880.0,29.0,3.0,-18.0,-5.0,8.0,7.0,3.0,14.0,1.0877397060394287
225,-1311.0,-135.0,-2441.0,1.0,3135.0,8632.0,9245.0,9929.0,29.0,3.0,-18.0,-5.0,8.0,7.0,3.0,14.0,1.0964105129241943
226,-1311.0,-135.0,-2441.0,1.0,3135.0,8632.0,9245.0,9929.0,29.0,3.0,-18.0,-5.0,8.0,7.0,3.0,14.0,1.0992498397827148
227,-1311.0,-135.0,-2441.0,1.0,3135.0,8632.0,9245.0,9929.0,6.0,-4.0,15.0,10.0,9.0,-1.0,2.0,-1.0,1.111727237701416
228,-1311.0,-135.0,-2441.0,1.0,3135.0,8632.0,9245.0,9929.0,-23.0,-29.0,-26.0,-3.0,-8.0,-1.0,-4.0,-13.0,1.115767240524292
229,-1486.0,-148.0,-2730.0,1.0,3602.0,8301.0,9334.0,9969.0,-23.0,-29.0,-26.0,-3.0,-8.0,-1.0,-4.0,-13.0,1.1198689937591553
230,-1486.0,-148.0,-2730.0,1.0,3602.0,8301.0,9334.0,9969.0,4.0,-11.0,5.0,1.0,4.0,14.0,14.0,14.0,1.1232547760009766
231,-1486.0,-148.0,-2730.0,1.0,3602.0,8301.0,9334.0,9969.0,-11.0,-3.0,-7.0,-27.0,-8.0,19.0,-1.0,-2.0,1.1327364444732666
232,-1935.0,-160.0,-3281.0,1.0,4159.0,7891.0,9407.0,10018.0,-11.0,-3.0,-7.0,-27.0,-8.0,19.0,-1.0,-2.0,1.1352052688598633
233,-1935.0,-160.0,-3281.0,1.0,4159.0,7891.0,9407.0,10018.0,-1.0,-3.0,-15.0,-4.0,-13.0,1.0,-8.0,-5.0,1.1402537822723389
234,-1935.0,-160.0,-3281.0,1.0,4159.0,7891.0,9407.0,10018.0,11.0,15.0,25.0,1.0,10.0,-12.0,4.0,5.0,1.147456169128418
235,-2492.0,-363.0,-3762.0,1.0,4828.0,7410.0,9426.0,10066.0,11.0,15.0,25.0,1.0,10.0,-12.0,4.0,5.0,1.155287504196167
236,-2492.0,-363.0,-3762.0,1.0,4828.0,7410.0,9426.0,10066.0,-27.0,-21.0,-13.0,-10.0,-4.0,-22.0,-15.0,-16.0,1.1581461429595947
237,-2492.0,-363.0,-3762.0,1.0,4828.0,7410.0,9426.0,10066.0,12.0,8.0,-4.0,3.0,-9.0,-1.0,-6.0,6.0,1.170377254486084
238,-3011.0,-694.0,-3923.0,1.0,5565.0,6914.0,9363.0,10098.0,12.0,8.0,-4.0,3.0,-9.0,-1.0,-6.0,6.0,1.1727344989776611
239,-3011.0,-694.0,-3923.0,1.0,5565.0,6914.0,9363.0,10098.0,-6.0,8.0,18.0,11.0,-2.0,-12.0,-1.0,-5.0,1.1778662204742432
240,-3011.0,-694.0,-3923.0,1.0,5565.0,6914.0,9363.0,10098.0,-16.0,-2.0,-56.0,-17.0,5.0,-4.0,-3.0,-4.0,1.2011263370513916
241,-3650.0,-865.0,-3828.0,1.0,6337.0,6388.0,9178.0,10159.0,-16.0,-2.0,-56.0,-17.0,5.0,-4.0,-3.0,-4.0,1.2054443359375
242,-3650.0,-865.0,-3828.0,1.0,6337.0,6388.0,9178.0,10159.0,9.0,3.0,13.0,5.0,-8.0,-4.0,0.0,2.0,1.2096948623657227
243,-3650.0,-865.0,-3828.0,1.0,6337.0,6388.0,9178.0,10159.0,-6.0,-10.0,9.0,4.0,-4.0,-6.0,2.0,-2.0,1.2136142253875732
244,-4091.0,-785.0,-3878.0,1.0,7104.0,5808.0,8924.0,10226.0,-6.0,-10.0,9.0,4.0,-4.0,-6.0,2.0,-2.0,1.2163481712341309
245,-4091.0,-785.0,-3878.0,1.0,7104.0,5808.0,8924.0,10226.0,0.0,6.0,7.0,-38.0,-22.0,3.0,0.0,-4.0,1.218747615814209
246,-4091.0,-785.0,-3878.0,1.0,7104.0,5808.0,8924.0,10226.0,-1.0,6.0,20.0,13.0,11.0,15.0,3.0,1.0,1.2306301593780518
247,-4711.0,-577.0,-3813.0,1.0,7847.0,5149.0,8588.0,10323.0,-1.0,6.0,20.0,13.0,11.0,15.0,3.0,1.0,1.2329256534576416
248,-4711.0,-577.0,-3813.0,1.0,7847.0,5149.0,8588.0,10323.0,-5.0,15.0,22.0,17.0,25.0,4.0,-1.0,-1.0,1.2376022338867188
249,-4711.0,-577.0,-3813.0,1.0,7847.0,5149.0,8588.0,10323.0,1.0,1.0,-8.0,-24.0,-16.0,-12.0,-4.0,2.0,1.2534022331237793
250,-5278.0,-477.0,-3588.0,1.0,8548.0,4434.0,8158.0,10446.0,1.0,1.0,-8.0,-24.0,-16.0,-12.0,-4.0,2.0,1.2560770511627197
251,-5278.0,-477.0,-3588.0,1.0,8548.0,4434.0,8158.0,10446.0,-4.0,-1.0,5.0,-12.0,-16.0,-3.0,-2.0,-1.0,1.2589821815490723
252,-5278.0,-477.0,-3588.0,1.0,8548.0,4434.0,8158.0,10446.0,6.0,7.0,18.0,18.0,10.0,10.0,-3.0,-1.0,1.2675938606262207
253,-5595.0,-455.0,-3258.0,1.0,9183.0,3697.0,7654.0,10575.0,6.0,7.0,18.0,18.0,10.0,10.0,-3.0,-1.0,1.2754859924316406
254,-5595.0,-455.0,-3258.0,1.0,9183.0,3697.0,7654.0,10575.0,0.0,-11.0,-23.0,-25.0,-39.0,-31.0,10.0,4.0,1.2778637409210205
255,-5595.0,-455.0,-3258.0,1.0,9183.0,3697.0,7654.0,10575.0,2.0,3.0,2.0,9.0,-5.0,-13.0,-7.0,-4.0,1.292104959487915
256,-5556.0,-259.0,-3024.0,1.0,9728.0,2947.0,7136.0,10685.0,2.0,3.0,2.0,9.0,-5.0,-13.0,-7.0,-4.0,1.2971100807189941
257,-5556.0,-259.0,-3024.0,1.0,9728.0,2947.0,7136.0,10685.0,2.0,-3.0,0.0,38.0,106.0,39.0,8.0,6.0,1.3019812107086182
258,-5556.0,-259.0,-3024.0,1.0,9728.0,2947.0,7136.0,10685.0,-4.0,-1.0,6.0,48.0,2.0,7.0,-9.0,-8.0,1.3135395050048828
259,-5465.0,39.0,-2993.0,1.0,10204.0,2157.0,6623.0,10759.0,-4.0,-1.0,6.0,48.0,2.0,7.0,-9.0,-8.0,1.3182291984558105
260,-5465.0,39.0,-2993.0,1.0,10204.0,2157.0,6623.0,10759.0,2.0,-5.0,-8.0,-8.0,106.0,34.0,-2.0,3.0,1.3226613998413086
261,-5465.0,39.0,-2993.0,1.0,10204.0,2157.0,6623.0,10759.0,-4.0,-6.0,-10.0,-2.0,-53.0,-31.0,15.0,-1.0,1.345323085784912
262,-5354.0,266.0,-3171.0,1.0,10642.0,1323.0,6118.0,10769.0,-4.0,-6.0,-10.0,-2.0,-53.0,-31.0,15.0,-1.0,1.3506455421447754
263,-5354.0,266.0,-3171.0,1.0,10642.0,1323.0,6118.0,10769.0,-6.0,-8.0,-9.0,21.0,-59.0,-10.0,-7.0,-10.0,1.3548142910003662
264,-5354.0,266.0,-3171.0,1.0,10642.0,1323.0,6118.0,10769.0,6.0,8.0,8.0,-53.0,85.0,-8.0,-13.0,2.0,1.3573534488677979
265,-5206.0,574.0,-3263.0,1.0,11027.0,451.0,5629.0,10720.0,6.0,8.0,8.0,-53.0,85.0,-8.0,-13.0,2.0,1.3599066734313965
266,-5206.0,574.0,-3263.0,1.0,11027.0,451.0,5629.0,10720.0,-11.0,-16.0,-19.0,-18.0,-90.0,9.0,19.0,12.0,1.3622796535491943
267,-5206.0,574.0,-3263.0,1.0,11027.0,451.0,5629.0,10720.0,8.0,9.0,9.0,36.0,4.0,34.0,67.0,18.0,1.3733012676239014
268,-4946.0,988.0,-3435.0,1.0,11363.0,-459.0,5184.0,10593.0,8.0,9.0,9.0,36.0,4.0,34.0,67.0,18.0,1.3756210803985596
269,-4946.0,988.0,-3435.0,1.0,11363.0,-459.0,5184.0,10593.0,7.0,4.0,6.0,86.0,95.0,-39.0,-9.0,-8.0,1.380016803741455
270,-4946.0,988.0,-3435.0,1.0,11363.0,-459.0,5184.0,10593.0,-1.0,1.0,3.0,-21.0,43.0,14.0,-19.0,1.0,1.3874552249908447
271,-4249.0,1316.0,-3467.0,1.0,11644.0,-1331.0,4836.0,10377.0,-1.0,1.0,3.0,-21.0,43.0,14.0,-19.0,1.0,1.3955914974212646
272,-4249.0,1316.0,-3467.0,1.0,11644.0,-1331.0,4836.0,10377.0,3.0,8.0,13.0,1.0,-48.0,-5.0,5.0,-9.0,1.3979549407958984
273,-4249.0,1316.0,-3467.0,1.0,11644.0,-1331.0,4836.0,10377.0,-17.0,-14.0,-27.0,-49.0,-110.0,-15.0,-68.0,-14.0,1.412238597869873
274,-3720.0,1390.0,-3333.0,1.0,11874.0,-2141.0,4541.0,10110.0,-17.0,-14.0,-27.0,-49.0,-110.0,-15.0,-68.0,-14.0,1.4190900325775146
275,-3720.0,1390.0,-3333.0,1.0,11874.0,-2141.0,4541.0,10110.0,-5.0,-4.0,7.0,-30.0,-28.0,31.0,-7.0,-21.0,1.4228301048278809
276,-3720.0,1390.0,-3333.0,1.0,11874.0,-2141.0,4541.0,10110.0,10.0,2.0,3.0,79.0,76.0,55.0,65.0,55.0,1.4326856136322021
277,-3232.0,1361.0,-3144.0,1.0,12064.0,-2885.0,4278.0,9811.0,10.0,2.0,3.0,79.0,76.0,55.0,65.0,55.0,1.4349851608276367
278,-3232.0,1361.0,-3144.0,1.0,12064.0,-2885.0,4278.0,9811.0,-25.0,-22.0,-25.0,-52.0,-120.0,-70.0,-53.0,1.0,1.4482901096343994
279,-3232.0,1361.0,-3144.0,1.0,12064.0,-2885.0,4278.0,9811.0,7.0,7.0,25.0,68.0,116.0,63.0,-96.0,3.0,1.4560608863830566
280,-2519.0,1296.0,-2764.0,1.0,12214.0,-3536.0,4070.0,9496.0,7.0,7.0,25.0,68.0,116.0,63.0,-96.0,3.0,1.4583311080932617
281,-2519.0,1296.0,-2764.0,1.0,12214.0,-3536.0,4070.0,9496.0,9.0,1.0,-2.0,20.0,88.0,74.0,40.0,-11.0,1.4607162475585938
282,-2519.0,1296.0,-2764.0,1.0,12214.0,-3536.0,4070.0,9496.0,-18.0,-16.0,-25.0,-71.0,-112.0,33.0,110.0,19.0,1.4704389572143555
283,-654.0,1288.0,-1689.0,1.0,12303.0,-3830.0,4108.0,9247.0,-18.0,-16.0,-25.0,-71.0,-112.0,33.0,110.0,19.0,1.4726996421813965
284,-654.0,1288.0,-1689.0,1.0,12303.0,-3830.0,4108.0,9247.0,-22.0,-11.0,-8.0,-37.0,79.0,22.0,-115.0,-101.0,1.4781556129455566
285,-654.0,1288.0,-1689.0,1.0,12303.0,-3830.0,4108.0,9247.0,-1.0,-4.0,-9.0,4.0,-25.0,-33.0,31.0,15.0,1.5009944438934326
286,1671.0,921.0,-249.0,1.0,12354.0,-3709.0,4389.0,9098.0,-1.0,-4.0,-9.0,4.0,-25.0,-33.0,31.0,15.0,1.5034153461456299
287,1671.0,921.0,-249.0,1.0,12354.0,-3709.0,4389.0,9098.0,2.0,1.0,-1.0,-19.0,-31.0,-115.0,4.0,17.0,1.5059051513671875
288,1671.0,921.0,-249.0,1.0,12354.0,-3709.0,4389.0,9098.0,24.0,8.0,3.0,-17.0,9.0,-48.0,-13.0,-48.0,1.5086185932159424
289,3332.0,1175.0,263.0,1.0,12397.0,-3362.0,4885.0,8920.0,24.0,8.0,3.0,-17.0,9.0,-48.0,-13.0,-48.0,1.5153098106384277
290,3332.0,1175.0,263.0,1.0,12397.0,-3362.0,4885.0,8920.0,-26.0,-8.0,-7.0,37.0,-27.0,-33.0,-80.0,-52.0,1.5176897048950195
291,3332.0,1175.0,263.0,1.0,12397.0,-3362.0,4885.0,8920.0,3.0,13.0,26.0,35.0,-128.0,-34.0,-101.0,-29.0,1.5305566787719727
292,4500.0,1698.0,1720.0,1.0,12285.0,-2822.0,5607.0,8837.0,3.0,13.0,26.0,35.0,-128.0,-34.0,-101.0,-29.0,1.5328445434570312
293,4500.0,1698.0,1720.0,1.0,12285.0,-2822.0,5607.0,8837.0,25.0,13.0,2.0,9.0,88.0,127.0,127.0,125.0,1.537813425064087
294,4500.0,1698.0,1720.0,1.0,12285.0,-2822.0,5607.0,8837.0,21.0,15.0,-2.0,2.0,-32.0,-77.0,20.0,38.0,1.561110258102417
295,5273.0,1674.0,3901.0,1.0,11936.0,-2033.0,6442.0,8962.0,21.0,15.0,-2.0,2.0,-32.0,-77.0,20.0,38.0,1.5633885860443115
296,5273.0,1674.0,3901.0,1.0,11936.0,-2033.0,6442.0,8962.0,1.0,-12.0,-29.0,-43.0,75.0,82.0,109.0,49.0,1.5658080577850342
297,5273.0,1674.0,3901.0,1.0,11936.0,-2033.0,6442.0,8962.0,14.0,-6.0,2.0,38.0,127.0,127.0,-11.0,114.0,1.568094253540039
298,6823.0,2159.0,5698.0,1.0,11322.0,-951.0,7480.0,9131.0,14.0,-6.0,2.0,38.0,127.0,127.0,-11.0,114.0,1.5751848220825195
299,6823.0,2159.0,5698.0,1.0,11322.0,-951.0,7480.0,9131.0,27.0,15.0,40.0,54.0,-33.0,-70.0,14.0,116.0,1.5775752067565918
300,6823.0,2159.0,5698.0,1.0,11322.0,-951.0,7480.0,9131.0,1.0,5.0,4.0,-37.0,47.0,-39.0,-78.0,-63.0,1.5904583930969238
301,8490.0,3235.0,7393.0,1.0,10326.0,376.0,8731.0,9242.0,1.0,5.0,4.0,-37.0,47.0,-39.0,-78.0,-63.0,1.592773675918579
302,8490.0,3235.0,7393.0,1.0,10326.0,376.0,8731.0,9242.0,0.0,-17.0,6.0,24.0,19.0,103.0,68.0,-7.0,1.5974278450012207
303,8490.0,3235.0,7393.0,1.0,10326.0,376.0,8731.0,9242.0,-64.0,-71.0,-75.0,-52.0,-98.0,-44.0,-53.0,-76.0,1.612964153289795
304,7756.0,4575.0,8631.0,1.0,8906.0,1596.0,9901.0,9408.0,-64.0,-71.0,-75.0,-52.0,-98.0,-44.0,-53.0,-76.0,1.6154181957244873
305,7756.0,4575.0,8631.0,1.0,8906.0,1596.0,9901.0,9408.0,-67.0,70.0,103.0,85.0,-59.0,-67.0,0.0,-57.0,1.6199133396148682
306,7756.0,4575.0,8631.0,1.0,8906.0,1596.0,9901.0,9408.0,-5.0,92.0,92.0,94.0,98.0,27.0,35.0,-76.0,1.6272032260894775
307,6002.0,5282.0,9487.0,1.0,7191.0,2637.0,10767.0,9685.0,-5.0,92.0,92.0,94.0,98.0,27.0,35.0,-76.0,1.636009931564331
308,6002.0,5282.0,9487.0,1.0,7191.0,2637.0,10767.0,9685.0,1.0,71.0,44.0,-47.0,-32.0,70.0,-61.0,12.0,1.6384940147399902
309,6002.0,5282.0,9487.0,1.0,7191.0,2637.0,10767.0,9685.0,-13.0,48.0,-82.0,-26.0,-45.0,-69.0,-15.0,4.0,1.6505143642425537
310,5544.0,5319.0,11926.0,1.0,5086.0,3865.0,11293.0,10003.0,-13.0,48.0,-82.0,-26.0,-45.0,-69.0,-15.0,4.0,1.6528098583221436
311,5544.0,5319.0,11926.0,1.0,5086.0,3865.0,11293.0,10003.0,64.0,-46.0,-104.0,-108.0,-68.0,-24.0,-37.0,-48.0,1.6574170589447021
312,5544.0,5319.0,11926.0,1.0,5086.0,3865.0,11293.0,10003.0,-3.0,-77.0,104.0,67.0,-66.0,12.0,25.0,-71.0,1.672971487045288
313,5216.0,3358.0,10543.0,1.0,3273.0,5043.0,11502.0,9999.0,-3.0,-77.0,104.0,67.0,-66.0,12.0,25.0,-71.0,1.6752803325653076
314,5216.0,3358.0,10543.0,1.0,3273.0,5043.0,11502.0,9999.0,58.0,33.0,55.0,30.0,81.0,63.0,-83.0,33.0,1.6797215938568115
315,5216.0,3358.0,10543.0,1.0,3273.0,5043.0,11502.0,9999.0,88.0,75.0,114.0,-11.0,44.0,17.0,108.0,28.0,1.6875107288360596
316,2399.0,477.0,4008.0,1.0,2640.0,5572.0,11545.0,9854.0,88.0,75.0,114.0,-11.0,44.0,17.0,108.0,28.0,1.695885419845581
317,2399.0,477.0,4008.0,1.0,2640.0,5572.0,11545.0,9854.0,-73.0,-20.0,-84.0,-35.0,13.0,41.0,27.0,55.0,1.6991164684295654
318,2399.0,477.0,4008.0,1.0,2640.0,5572.0,11545.0,9854.0,-68.0,-13.0,74.0,91.0,-45.0,-101.0,-109.0,61.0,1.7106664180755615
319,447.0,-47.0,851.0,1.0,2627.0,5622.0,11565.0,9806.0,-68.0,-13.0,74.0,91.0,-45.0,-101.0,-109.0,61.0,1.7129387855529785
320,447.0,-47.0,851.0,1.0,2627.0,5622.0,11565.0,9806.0,-103.0,-46.0,-61.0,-42.0,-108.0,-109.0,-70.0,-106.0,1.7175114154815674
321,447.0,-47.0,851.0,1.0,2627.0,5622.0,11565.0,9806.0,-110.0,58.0,-61.0,43.0,127.0,127.0,118.0,98.0,1.7412033081054688
322,356.0,371.0,4535.0,1.0,2082.0,6136.0,11285.0,9953.0,-110.0,58.0,-61.0,43.0,127.0,127.0,118.0,98.0,1.74349045753479
323,356.0,371.0,4535.0,1.0,2082.0,6136.0,11285.0,9953.0,11.0,64.0,78.0,18.0,127.0,-71.0,-12.0,28.0,1.745861291885376
324,356.0,371.0,4535.0,1.0,2082.0,6136.0,11285.0,9953.0,84.0,127.0,27.0,-90.0,122.0,-32.0,-115.0,-126.0,1.7481670379638672
325,1756.0,1393.0,3527.0,1.0,1408.0,6452.0,11259.0,9900.0,84.0,127.0,27.0,-90.0,122.0,-32.0,-115.0,-126.0,1.7555887699127197
326,1756.0,1393.0,3527.0,1.0,1408.0,6452.0,11259.0,9900.0,-86.0,-118.0,-122.0,-34.0,-105.0,-120.0,116.0,-112.0,1.7580602169036865
327,1756.0,1393.0,3527.0,1.0,1408.0,6452.0,11259.0,9900.0,75.0,-120.0,-104.0,-87.0,-27.0,67.0,85.0,1.0,1.7702195644378662
328,2561.0,1135.0,1880.0,1.0,900.0,6571.0,11388.0,9733.0,75.0,-120.0,-104.0,-87.0,-27.0,67.0,85.0,1.0,1.7725214958190918
329,2561.0,1135.0,1880.0,1.0,900.0,6571.0,11388.0,9733.0,52.0,-53.0,77.0,3.0,-71.0,-19.0,34.0,-118.0,1.7776916027069092
330,2561.0,1135.0,1880.0,1.0,900.0,6571.0,11388.0,9733.0,-48.0,-128.0,-20.0,21.0,66.0,-1.0,-6.0,-51.0,1.7928683757781982
331,564.0,1087.0,1128.0,1.0,605.0,6600.0,11376.0,9750.0,-48.0,-128.0,-20.0,21.0,66.0,-1.0,-6.0,-51.0,1.795804500579834
332,564.0,1087.0,1128.0,1.0,605.0,6600.0,11376.0,9750.0,28.0,40.0,-72.0,43.0,74.0,67.0,-70.0,49.0,1.799710988998413
333,564.0,1087.0,1128.0,1.0,605.0,6600.0,11376.0,9750.0,-38.0,-59.0,-55.0,-28.0,-65.0,-12.0,-8.0,50.0,1.8073210716247559
334,-1565.0,816.0,1164.0,1.0,531.0,6646.0,11191.0,9935.0,-38.0,-59.0,-55.0,-28.0,-65.0,-12.0,-8.0,50.0,1.8155837059020996
335,-1565.0,816.0,1164.0,1.0,531.0,6646.0,11191.0,9935.0,127.0,127.0,38.0,82.0,65.0,51.0,31.0,43.0,1.818021535873413
336,-1565.0,816.0,1164.0,1.0,531.0,6646.0,11191.0,9935.0,-21.0,-51.0,-10.0,-100.0,92.0,21.0,96.0,-25.0,1.8312859535217285
337,-997.0,215.0,1078.0,1.0,416.0,6813.0,11053.0,9982.0,-21.0,-51.0,-10.0,-100.0,92.0,21.0,96.0,-25.0,1.83555006980896
338,-997.0,215.0,1078.0,1.0,416.0,6813.0,11053.0,9982.0,-37.0,-37.0,26.0,35.0,-68.0,-12.0,-34.0,4.0,1.839897632598877
339,-997.0,215.0,1078.0,1.0,416.0,6813.0,11053.0,9982.0,29.0,31.0,89.0,77.0,31.0,76.0,-58.0,43.0,1.852877140045166
340,487.0,455.0,137.0,1.0,317.0,6789.0,11121.0,9927.0,29.0,31.0,89.0,77.0,31.0,76.0,-58.0,43.0,1.857346534729004
341,487.0,455.0,137.0,1.0,317.0,6789.0,11121.0,9927.0,41.0,4.0,80.0,22.0,127.0,51.0,54.0,67.0,1.8615806102752686
342,487.0,455.0,137.0,1.0,317.0,6789.0,11121.0,9927.0,23.0,27.0,46.0,111.0,87.0,43.0,91.0,42.0,1.8761401176452637
343,487.0,406.0,-200.0,1.0,275.0,6716.0,11212.0,9874.0,23.0,27.0,46.0,111.0,87.0,43.0,91.0,42.0,1.8784384727478027
344,487.0,406.0,-200.0,1.0,275.0,6716.0,11212.0,9874.0,-29.0,21.0,9.0,-28.0,16.0,-11.0,-80.0,-64.0,1.8809688091278076
345,487.0,406.0,-200.0,1.0,275.0,6716.0,11212.0,9874.0,27.0,36.0,16.0,-97.0,-77.0,-59.0,-29.0,38.0,1.8905367851257324
346,-117.0,168.0,-91.0,1.0,266.0,6697.0,11216.0,9883.0,27.0,36.0,16.0,-97.0,-77.0,-59.0,-29.0,38.0,1.8976752758026123
347,-117.0,168.0,-91.0,1.0,266.0,6697.0,11216.0,9883.0,13.0,-48.0,-79.0,30.0,60.0,5.0,-29.0,45.0,1.9000248908996582
348,-117.0,168.0,-91.0,1.0,266.0,6697.0,11216.0,9883.0,-16.0,-3.0,-27.0,-8.0,76.0,-20.0,63.0,-111.0,1.9128305912017822
349,-69.0,21.0,-129.0,1.0,266.0,6698.0,11226.0,9872.0,-16.0,-3.0,-27.0,-8.0,76.0,-20.0,63.0,-111.0,1.916609764099121
350,-69.0,21.0,-129.0,1.0,266.0,6698.0,11226.0,9872.0,18.0,58.0,79.0,30.0,60.0,-38.0,14.0,25.0,1.921374797821045
351,-69.0,21.0,-129.0,1.0,266.0,6698.0,11226.0,9872.0,-26.0,-7.0,-62.0,-83.0,-128.0,-47.0,-128.0,-36.0,1.9375684261322021
352,156.0,79.0,-37.0,1.0,250.0,6686.0,11250.0,9852.0,-26.0,-7.0,-62.0,-83.0,-128.0,-47.0,-128.0,-36.0,1.9426350593566895
353,156.0,79.0,-37.0,1.0,250.0,6686.0,11250.0,9852.0,-13.0,-26.0,-58.0,-28.0,-81.0,7.0,12.0,-28.0,1.9466867446899414
354,156.0,79.0,-37.0,1.0,250.0,6686.0,11250.0,9852.0,-6.0,-28.0,-17.0,-26.0,-17.0,-11.0,7.0,-11.0,1.9499483108520508
355,45.0,127.0,65.0,1.0,222.0,6681.0,11249.0,9858.0,-6.0,-28.0,-17.0,-26.0,-17.0,-11.0,7.0,-11.0,1.9526054859161377
356,45.0,127.0,65.0,1.0,222.0,6681.0,11249.0,9858.0,-2.0,-38.0,14.0,60.0,79.0,71.0,-69.0,0.0,1.9578032493591309
357,45.0,127.0,65.0,1.0,222.0,6681.0,11249.0,9858.0,26.0,30.0,-12.0,40.0,-72.0,-46.0,-105.0,45.0,1.9724669456481934
358,-134.0,31.0,68.0,1.0,206.0,6692.0,11217.0,9888.0,26.0,30.0,-12.0,40.0,-72.0,-46.0,-105.0,45.0,1.9759178161621094
359,-134.0,31.0,68.0,1.0,206.0,6692.0,11217.0,9888.0,-92.0,-67.0,-36.0,15.0,79.0,62.0,77.0,-74.0,1.980595588684082
360,-134.0,31.0,68.0,1.0,206.0,6692.0,11217.0,9888.0,2.0,17.0,62.0,109.0,76.0,11.0,49.0,-47.0,2.0058932304382324
361,3.0,-44.0,-1.0,1.0,184.0,6712.0,11204.0,9890.0,2.0,17.0,62.0,109.0,76.0,11.0,49.0,-47.0,2.011042833328247
362,3.0,-44.0,-1.0,1.0,184.0,6712.0,11204.0,9890.0,-14.0,-38.0,36.0,74.0,44.0,18.0,9.0,-21.0,2.016094446182251
363,3.0,-44.0,-1.0,1.0,184.0,6712.0,11204.0,9890.0,-8.0,-41.0,-2.0,-36.0,-78.0,-29.0,-3.0,41.0,2.018549919128418
364,117.0,-35.0,-84.0,1.0,173.0,6715.0,11213.0,9877.0,-8.0,-41.0,-2.0,-36.0,-78.0,-29.0,-3.0,41.0,2.0208089351654053
365,117.0,-35.0,-84.0,1.0,173.0,6715.0,11213.0,9877.0,18.0,25.0,25.0,-66.0,39.0,27.0,97.0,43.0,2.0231831073760986
366,117.0,-35.0,-84.0,1.0,173.0,6715.0,11213.0,9877.0,7.0,40.0,-3.0,-22.0,21.0,-12.0,-31.0,-26.0,2.032895088195801
367,5.0,11.0,-108.0,1.0,174.0,6704.0,11215.0,9882.0,7.0,40.0,-3.0,-22.0,21.0,-12.0,-31.0,-26.0,2.035209894180298
368,5.0,11.0,-108.0,1.0,174.0,6704.0,11215.0,9882.0,-2.0,-23.0,5.0,-27.0,22.0,21.0,-23.0,-22.0,2.0480873584747314
369,5.0,11.0,-108.0,1.0,174.0,6704.0,11215.0,9882.0,-40.0,17.0,12.0,27.0,-33.0,-7.0,57.0,-32.0,2.056218385696411
370,-117.0,28.0,-85.0,1.0,175.0,6698.0,11202.0,9901.0,-40.0,17.0,12.0,27.0,-33.0,-7.0,57.0,-32.0,2.058490753173828
371,-117.0,28.0,-85.0,1.0,175.0,6698.0,11202.0,9901.0,4.0,30.0,-71.0,-82.0,-128.0,-43.0,-46.0,23.0,2.06083345413208
372,-117.0,28.0,-85.0,1.0,175.0,6698.0,11202.0,9901.0,-14.0,27.0,21.0,46.0,105.0,57.0,44.0,37.0,2.0708179473876953
373,26.0,9.0,-100.0,1.0,166.0,6692.0,11200.0,9907.0,-14.0,27.0,21.0,46.0,105.0,57.0,44.0,37.0,2.073096513748169
374,26.0,9.0,-100.0,1.0,166.0,6692.0,11200.0,9907.0,47.0,43.0,4.0,-47.0,-22.0,-11.0,-9.0,54.0,2.077643632888794
375,26.0,9.0,-100.0,1.0,166.0,6692.0,11200.0,9907.0,-14.0,-20.0,13.0,-58.0,44.0,5.0,35.0,37.0,2.0931596755981445
376,105.0,42.0,-93.0,1.0,156.0,6681.0,11215.0,9899.0,-14.0,-20.0,13.0,-58.0,44.0,5.0,35.0,37.0,2.095486879348755
377,105.0,42.0,-93.0,1.0,156.0,6681.0,11215.0,9899.0,-15.0,-23.0,59.0,-34.0,15.0,1.0,0.0,13.0,2.0997977256774902
378,105.0,42.0,-93.0,1.0,156.0,6681.0,11215.0,9899.0,37.0,54.0,-47.0,9.0,13.0,6.0,-18.0,71.0,2.116032600402832
379,-29.0,84.0,-45.0,1.0,149.0,6669.0,11216.0,9905.0,37.0,54.0,-47.0,9.0,13.0,6.0,-18.0,71.0,2.118349552154541
380,-29.0,84.0,-45.0,1.0,149.0,6669.0,11216.0,9905.0,6.0,-13.0,-52.0,3.0,-101.0,-48.0,73.0,33.0,2.1206789016723633
381,-29.0,84.0,-45.0,1.0,149.0,6669.0,11216.0,9905.0,1.0,-4.0,25.0,42.0,-6.0,38.0,23.0,17.0,2.130547523498535
382,-96.0,68.0,11.0,1.0,139.0,6669.0,11204.0,9919.0,1.0,-4.0,25.0,42.0,-6.0,38.0,23.0,17.0,2.1381537914276123
383,-96.0,68.0,11.0,1.0,139.0,6669.0,11204.0,9919.0,27.0,13.0,21.0,-10.0,5.0,-76.0,-83.0,-17.0,2.142690658569336
384,-96.0,68.0,11.0,1.0,139.0,6669.0,11204.0,9919.0,-11.0,-25.0,-23.0,-10.0,67.0,0.0,15.0,-27.0,2.1539151668548584
385,-26.0,115.0,6.0,1.0,123.0,6663.0,11206.0,9921.0,-11.0,-25.0,-23.0,-10.0,67.0,0.0,15.0,-27.0,2.1564204692840576
386,-26.0,115.0,6.0,1.0,123.0,6663.0,11206.0,9921.0,13.0,-13.0,-87.0,-20.0,-39.0,35.0,19.0,21.0,2.1589362621307373
387,-26.0,115.0,6.0,1.0,123.0,6663.0,11206.0,9921.0,8.0,-36.0,-25.0,3.0,-38.0,-7.0,-86.0,-82.0,2.1765711307525635
388,-55.0,105.0,30.0,1.0,113.0,6658.0,11206.0,9925.0,8.0,-36.0,-25.0,3.0,-38.0,-7.0,-86.0,-82.0,2.17887806892395
389,-55.0,105.0,30.0,1.0,113.0,6658.0,11206.0,9925.0,-15.0,-3.0,8.0,19.0,6.0,-8.0,-70.0,15.0,2.1813292503356934
390,-55.0,105.0,30.0,1.0,113.0,6658.0,11206.0,9925.0,17.0,14.0,-30.0,0.0,-17.0,14.0,-20.0,17.0,2.190424680709839
391,-99.0,53.0,39.0,1.0,111.0,6660.0,11200.0,9930.0,17.0,14.0,-30.0,0.0,-17.0,14.0,-20.0,17.0,2.192847728729248
392,-99.0,53.0,39.0,1.0,111.0,6660.0,11200.0,9930.0,-10.0,-15.0,-25.0,-36.0,14.0,-29.0,-16.0,25.0,2.2054667472839355
393,-99.0,53.0,39.0,1.0,111.0,6660.0,11200.0,9930.0,-4.0,-9.0,59.0,-19.0,-72.0,-23.0,-15.0,-3.0,2.2129034996032715
394,-56.0,29.0,22.0,1.0,109.0,6662.0,11198.0,9931.0,-4.0,-9.0,59.0,-19.0,-72.0,-23.0,-15.0,-3.0,2.2151787281036377
395,-56.0,29.0,22.0,1.0,109.0,6662.0,11198.0,9931.0,-8.0,2.0,19.0,45.0,25.0,-3.0,-11.0,-30.0,2.2200191020965576
396,-56.0,29.0,22.0,1.0,109.0,6662.0,11198.0,9931.0,31.0,-4.0,-2.0,-21.0,38.0,5.0,-5.0,-12.0,2.2364983558654785
397,22.0,39.0,-31.0,1.0,104.0,6659.0,11207.0,9922.0,31.0,-4.0,-2.0,-21.0,38.0,5.0,-5.0,-12.0,2.239220380783081
398,22.0,39.0,-31.0,1.0,104.0,6659.0,11207.0,9922.0,13.0,12.0,71.0,2.0,15.0,34.0,25.0,47.0,2.241687059402466
399,22.0,39.0,-31.0,1.0,104.0,6659.0,11207.0,9922.0,-12.0,10.0,23.0,19.0,12.0,14.0,24.0,-7.0,2.250791072845459
400,85.0,-9.0,-34.0,1.0,102.0,6659.0,11225.0,9903.0,-12.0,10.0,23.0,19.0,12.0,14.0,24.0,-7.0,2.2530558109283447
401,85.0,-9.0,-34.0,1.0,102.0,6659.0,11225.0,9903.0,-25.0,-8.0,2.0,14.0,79.0,-18.0,53.0,-18.0,2.257525682449341
402,85.0,-9.0,-34.0,1.0,102.0,6659.0,11225.0,9903.0,13.0,26.0,-5.0,-19.0,-6.0,-25.0,52.0,-24.0,2.2730631828308105
403,55.0,-47.0,-45.0,1.0,112.0,6660.0,11240.0,9885.0,13.0,26.0,-5.0,-19.0,-6.0,-25.0,52.0,-24.0,2.275364875793457
404,55.0,-47.0,-45.0,1.0,112.0,6660.0,11240.0,9885.0,5.0,-18.0,-33.0,-26.0,-21.0,13.0,18.0,-26.0,2.2796943187713623
405,55.0,-47.0,-45.0,1.0,112.0,6660.0,11240.0,9885.0,7.0,33.0,1.0,20.0,-12.0,12.0,-15.0,44.0,2.2961204051971436
406,60.0,-47.0,-23.0,1.0,115.0,6663.0,11249.0,9872.0,7.0,33.0,1.0,20.0,-12.0,12.0,-15.0,44.0,2.298769235610962
407,60.0,-47.0,-23.0,1.0,115.0,6663.0,11249.0,9872.0,-19.0,-3.0,48.0,-75.0,-70.0,-18.0,-3.0,-24.0,2.301429271697998
408,60.0,-47.0,-23.0,1.0,115.0,6663.0,11249.0,9872.0,-10.0,-12.0,-12.0,-21.0,-55.0,-33.0,-34.0,20.0,2.318704843521118
409,69.0,-36.0,-36.0,1.0,117.0,6665.0,11261.0,9858.0,-10.0,-12.0,-12.0,-21.0,-55.0,-33.0,-34.0,20.0,2.320988655090332
410,69.0,-36.0,-36.0,1.0,117.0,6665.0,11261.0,9858.0,21.0,-7.0,-30.0,48.0,32.0,-10.0,-6.0,-6.0,2.3233280181884766
411,69.0,-36.0,-36.0,1.0,117.0,6665.0,11261.0,9858.0,-8.0,4.0,-7.0,60.0,54.0,39.0,55.0,7.0,2.3336069583892822
412,48.0,-20.0,-26.0,1.0,117.0,6665.0,11268.0,9849.0,-8.0,4.0,-7.0,60.0,54.0,39.0,55.0,7.0,2.335996389389038
413,48.0,-20.0,-26.0,1.0,117.0,6665.0,11268.0,9849.0,-5.0,0.0,-1.0,0.0,58.0,14.0,-27.0,6.0,2.3396902084350586
414,48.0,-20.0,-26.0,1.0,117.0,6665.0,11268.0,9849.0,-14.0,-23.0,-5.0,-62.0,-33.0,-63.0,-43.0,-15.0,2.355837345123291
415,37.0,-22.0,-20.0,1.0,120.0,6664.0,11274.0,9843.0,-14.0,-23.0,-5.0,-62.0,-33.0,-63.0,-43.0,-15.0,2.3633697032928467
416,37.0,-22.0,-20.0,1.0,120.0,6664.0,11274.0,9843.0,10.0,3.0,-35.0,12.0,-2.0,21.0,-2.0,32.0,2.3661749362945557
417,37.0,-22.0,-20.0,1.0,120.0,6664.0,11274.0,9843.0,-7.0,9.0,7.0,-16.0,21.0,20.0,-13.0,12.0,2.3703129291534424
418,6.0,-14.0,-46.0,1.0,124.0,6662.0,11277.0,9841.0,-7.0,9.0,7.0,-16.0,21.0,20.0,-13.0,12.0,2.3725838661193848
419,6.0,-14.0,-46.0,1.0,124.0,6662.0,11277.0,9841.0,4.0,24.0,41.0,-6.0,-20.0,18.0,-3.0,-5.0,2.3772780895233154
420,6.0,-14.0,-46.0,1.0,124.0,6662.0,11277.0,9841.0,-13.0,-40.0,-38.0,68.0,54.0,-6.0,31.0,9.0,2.393078088760376
421,4.0,-15.0,-54.0,1.0,134.0,6655.0,11283.0,9838.0,-13.0,-40.0,-38.0,68.0,54.0,-6.0,31.0,9.0,2.3980438709259033
422,4.0,-15.0,-54.0,1.0,134.0,6655.0,11283.0,9838.0,-4.0,4.0,-8.0,2.0,-15.0,11.0,-2.0,-16.0,2.4024837017059326
423,4.0,-15.0,-54.0,1.0,134.0,6655.0,11283.0,9838.0,-7.0,-34.0,-27.0,-35.0,-48.0,-28.0,-23.0,-16.0,2.4175219535827637
424,-57.0,-12.0,-45.0,1.0,147.0,6651.0,11285.0,9839.0,-7.0,-34.0,-27.0,-35.0,-48.0,-28.0,-23.0,-16.0,2.4202232360839844
425,-57.0,-12.0,-45.0,1.0,147.0,6651.0,11285.0,9839.0,13.0,-7.0,-41.0,21.0,80.0,19.0,0.0,9.0,2.4225502014160156
426,-57.0,-12.0,-45.0,1.0,147.0,6651.0,11285.0,9839.0,-9.0,-10.0,-17.0,-67.0,-20.0,-30.0,-21.0,0.0,2.4302730560302734
427,-87.0,45.0,-25.0,1.0,150.0,6646.0,11281.0,9847.0,-9.0,-10.0,-17.0,-67.0,-20.0,-30.0,-21.0,0.0,2.4325664043426514
428,-87.0,45.0,-25.0,1.0,150.0,6646.0,11281.0,9847.0,-21.0,-12.0,17.0,-31.0,-88.0,-2.0,19.0,-30.0,2.4374752044677734
429,-87.0,45.0,-25.0,1.0,150.0,6646.0,11281.0,9847.0,16.0,16.0,26.0,23.0,-13.0,23.0,-8.0,4.0,2.453031539916992
430,-87.0,69.0,7.0,1.0,148.0,6640.0,11274.0,9858.0,16.0,16.0,26.0,23.0,-13.0,23.0,-8.0,4.0,2.455671548843384
431,-87.0,69.0,7.0,1.0,148.0,6640.0,11274.0,9858.0,-17.0,-13.0,9.0,28.0,47.0,-31.0,-26.0,-7.0,2.4597930908203125
432,-87.0,69.0,7.0,1.0,148.0,6640.0,11274.0,9858.0,-5.0,-8.0,-30.0,-2.0,-20.0,-36.0,-13.0,-8.0,2.4761478900909424
433,-71.0,52.0,-1.0,1.0,147.0,6635.0,11268.0,9869.0,-5.0,-8.0,-30.0,-2.0,-20.0,-36.0,-13.0,-8.0,2.4784436225891113
434,-71.0,52.0,-1.0,1.0,147.0,6635.0,11268.0,9869.0,2.0,1.0,-6.0,-9.0,-64.0,-20.0,25.0,-11.0,2.4808080196380615
435,-71.0,52.0,-1.0,1.0,147.0,6635.0,11268.0,9869.0,0.0,-4.0,-15.0,1.0,55.0,33.0,-26.0,16.0,2.4906980991363525
436,-37.0,59.0,-4.0,1.0,142.0,6628.0,11265.0,9877.0,0.0,-4.0,-15.0,1.0,55.0,33.0,-26.0,16.0,2.493130683898926
437,-37.0,59.0,-4.0,1.0,142.0,6628.0,11265.0,9877.0,21.0,22.0,-1.0,21.0,65.0,-15.0,-43.0,5.0,2.4975671768188477
438,-37.0,59.0,-4.0,1.0,142.0,6628.0,11265.0,9877.0,10.0,22.0,29.0,21.0,-36.0,-11.0,-3.0,5.0,2.512908935546875
439,14.0,73.0,-20.0,1.0,135.0,6617.0,11268.0,9881.0,10.0,22.0,29.0,21.0,-36.0,-11.0,-3.0,5.0,2.5167880058288574
440,14.0,73.0,-20.0,1.0,135.0,6617.0,11268.0,9881.0,-10.0,-1.0,-32.0,30.0,-45.0,12.0,8.0,-8.0,2.5215234756469727
441,14.0,73.0,-20.0,1.0,135.0,6617.0,11268.0,9881.0,-3.0,-14.0,-10.0,-77.0,-60.0,-61.0,-28.0,-14.0,2.5372989177703857
442,-9.0,77.0,-8.0,1.0,128.0,6607.0,11269.0,9887.0,-3.0,-14.0,-10.0,-77.0,-60.0,-61.0,-28.0,-14.0,2.5399036407470703
443,-9.0,77.0,-8.0,1.0,128.0,6607.0,11269.0,9887.0,-8.0,10.0,-21.0,0.0,-9.0,4.0,-5.0,-20.0,2.5423078536987305
444,-9.0,77.0,-8.0,1.0,128.0,6607.0,11269.0,9887.0,-11.0,-13.0,-36.0,34.0,20.0,34.0,17.0,-10.0,2.5505917072296143
445,-63.0,72.0,-6.0,1.0,125.0,6598.0,11263.0,9899.0,-11.0,-13.0,-36.0,34.0,20.0,34.0,17.0,-10.0,2.5532174110412598
446,-63.0,72.0,-6.0,1.0,125.0,6598.0,11263.0,9899.0,7.0,13.0,26.0,-14.0,59.0,25.0,7.0,9.0,2.5648679733276367
447,-63.0,72.0,-6.0,1.0,125.0,6598.0,11263.0,9899.0,-8.0,1.0,-10.0,-40.0,-8.0,-3.0,9.0,-19.0,2.572892665863037
448,-62.0,80.0,6.0,1.0,118.0,6592.0,11258.0,9909.0,-8.0,1.0,-10.0,-40.0,-8.0,-3.0,9.0,-19.0,2.575204849243164
449,-62.0,80.0,6.0,1.0,118.0,6592.0,11258.0,9909.0,7.0,11.0,47.0,14.0,-25.0,4.0,8.0,20.0,2.580421209335327
450,-62.0,80.0,6.0,1.0,118.0,6592.0,11258.0,9909.0,14.0,18.0,-7.0,51.0,-26.0,10.0,-2.0,25.0,2.5964627265930176
451,-17.0,85.0,-7.0,1.0,106.0,6586.0,11257.0,9915.0,14.0,18.0,-7.0,51.0,-26.0,10.0,-2.0,25.0,2.598785638809204
452,-17.0,85.0,-7.0,1.0,106.0,6586.0,11257.0,9915.0,-22.0,-37.0,-20.0,-14.0,31.0,-17.0,-24.0,-15.0,2.6011133193969727
453,-17.0,85.0,-7.0,1.0,106.0,6586.0,11257.0,9915.0,-4.0,-11.0,22.0,-8.0,88.0,30.0,20.0,-10.0,2.6105666160583496
454,24.0,62.0,-13.0,1.0,99.0,6578.0,11263.0,9914.0,-4.0,-11.0,22.0,-8.0,88.0,30.0,20.0,-10.0,2.6183085441589355
455,24.0,62.0,-13.0,1.0,99.0,6578.0,11263.0,9914.0,0.0,-12.0,-34.0,-54.0,-49.0,-30.0,2.0,-16.0,2.6206917762756348
456,24.0,62.0,-13.0,1.0,99.0,6578.0,11263.0,9914.0,26.0,38.0,85.0,50.0,58.0,6.0,12.0,21.0,2.633455991744995
457,-82.0,42.0,5.0,1.0,105.0,6570.0,11257.0,9925.0,26.0,38.0,85.0,50.0,58.0,6.0,12.0,21.0,2.6380159854888916
458,-82.0,42.0,5.0,1.0,105.0,6570.0,11257.0,9925.0,10.0,12.0,-7.0,-8.0,-44.0,-11.0,-19.0,-4.0,2.642880439758301
459,-82.0,42.0,5.0,1.0,105.0,6570.0,11257.0,9925.0,5.0,-3.0,-41.0,-32.0,-110.0,-50.0,-1.0,7.0,2.6578094959259033
460,-120.0,46.0,19.0,1.0,104.0,6569.0,11244.0,9940.0,5.0,-3.0,-41.0,-32.0,-110.0,-50.0,-1.0,7.0,2.660452127456665
461,-120.0,46.0,19.0,1.0,104.0,6569.0,11244.0,9940.0,-7.0,-25.0,1.0,29.0,54.0,11.0,27.0,-6.0,2.6627907752990723
462,-120.0,46.0,19.0,1.0,104.0,6569.0,11244.0,9940.0,1.0,-1.0,63.0,0.0,-19.0,35.0,5.0,-8.0,2.6697542667388916
463,-70.0,19.0,15.0,1.0,105.0,6571.0,11238.0,9946.0,1.0,-1.0,63.0,0.0,-19.0,35.0,5.0,-8.0,2.6786580085754395
464,-70.0,19.0,15.0,1.0,105.0,6571.0,11238.0,9946.0,-8.0,15.0,24.0,-22.0,-18.0,-10.0,-6.0,-10.0,2.6814064979553223
465,-70.0,19.0,15.0,1.0,105.0,6571.0,11238.0,9946.0,-6.0,6.0,-6.0,-10.0,-8.0,-5.0,6.0,-6.0,2.6930556297302246
466,-92.0,24.0,20.0,1.0,107.0,6572.0,11230.0,9955.0,-6.0,6.0,-6.0,-10.0,-8.0,-5.0,6.0,-6.0,2.6969707012176514
467,-92.0,24.0,20.0,1.0,107.0,6572.0,11230.0,9955.0,-16.0,-7.0,-23.0,38.0,-55.0,1.0,12.0,5.0,2.7010343074798584
468,-92.0,24.0,20.0,1.0,107.0,6572.0,11230.0,9955.0,6.0,9.0,-4.0,-32.0,-27.0,-20.0,3.0,-4.0,2.7172799110412598
469,-86.0,31.0,28.0,1.0,109.0,6570.0,11219.0,9968.0,6.0,9.0,-4.0,-32.0,-27.0,-20.0,3.0,-4.0,2.719951868057251
470,-86.0,31.0,28.0,1.0,109.0,6570.0,11219.0,9968.0,-3.0,-1.0,2.0,29.0,96.0,56.0,25.0,6.0,2.722306966781616
471,-86.0,31.0,28.0,1.0,109.0,6570.0,11219.0,9968.0,-6.0,-6.0,-43.0,-10.0,-69.0,-15.0,-24.0,-9.0,2.730181932449341
472,-57.0,25.0,28.0,1.0,107.0,6570.0,11210.0,9978.0,-6.0,-6.0,-43.0,-10.0,-69.0,-15.0,-24.0,-9.0,2.7380146980285645
473,-57.0,25.0,28.0,1.0,107.0,6570.0,11210.0,9978.0,6.0,12.0,20.0,-2.0,32.0,-8.0,-3.0,6.0,2.740957260131836
474,-57.0,25.0,28.0,1.0,107.0,6570.0,11210.0,9978.0,-3.0,-3.0,-22.0,47.0,122.0,34.0,-60.0,-9.0,2.753073215484619
475,-39.0,16.0,33.0,1.0,106.0,6571.0,11205.0,9983.0,-3.0,-3.0,-22.0,47.0,122.0,34.0,-60.0,-9.0,2.757340908050537
476,-39.0,16.0,33.0,1.0,106.0,6571.0,11205.0,9983.0,-3.0,-1.0,7.0,-2.0,18.0,-35.0,-17.0,-17.0,2.7623209953308105
477,-39.0,16.0,33.0,1.0,106.0,6571.0,11205.0,9983.0,1.0,-2.0,-2.0,-18.0,-24.0,-9.0,-9.0,7.0,2.777765989303589
478,-72.0,20.0,19.0,1.0,106.0,6572.0,11196.0,9993.0,1.0,-2.0,-2.0,-18.0,-24.0,-9.0,-9.0,7.0,2.7802069187164307
479,-72.0,20.0,19.0,1.0,106.0,6572.0,11196.0,9993.0,4.0,9.0,54.0,4.0,0.0,9.0,8.0,-16.0,2.782569646835327
480,-72.0,20.0,19.0,1.0,106.0,6572.0,11196.0,9993.0,7.0,-3.0,-13.0,38.0,21.0,25.0,30.0,22.0,2.789477825164795
481,-44.0,31.0,12.0,1.0,104.0,6570.0,11191.0,10000.0,7.0,-3.0,-13.0,38.0,21.0,25.0,30.0,22.0,2.7981252670288086
482,-44.0,31.0,12.0,1.0,104.0,6570.0,11191.0,10000.0,-3.0,-6.0,15.0,22.0,-35.0,0.0,-12.0,8.0,2.80049729347229
483,-44.0,31.0,12.0,1.0,104.0,6570.0,11191.0,10000.0,-7.0,-22.0,26.0,-21.0,-22.0,-26.0,4.0,-10.0,2.812856435775757
484,-39.0,30.0,15.0,1.0,103.0,6568.0,11186.0,10006.0,-7.0,-22.0,26.0,-21.0,-22.0,-26.0,4.0,-10.0,2.816673517227173
485,-39.0,30.0,15.0,1.0,103.0,6568.0,11186.0,10006.0,5.0,2.0,-63.0,-49.0,-28.0,-18.0,-15.0,10.0,2.8208096027374268
486,-39.0,30.0,15.0,1.0,103.0,6568.0,11186.0,10006.0,-14.0,-22.0,-30.0,-25.0,22.0,7.0,20.0,-21.0,2.839583158493042
487,1.0,42.0,21.0,1.0,95.0,6566.0,11186.0,10008.0,-14.0,-22.0,-30.0,-25.0,22.0,7.0,20.0,-21.0,2.844223737716675
488,1.0,42.0,21.0,1.0,95.0,6566.0,11186.0,10008.0,-5.0,-7.0,-11.0,-15.0,3.0,17.0,16.0,9.0,2.8475842475891113
489,1.0,42.0,21.0,1.0,95.0,6566.0,11186.0,10008.0,3.0,-4.0,3.0,-43.0,-36.0,-1.0,-7.0,-3.0,2.8498713970184326
490,-26.0,43.0,22.0,1.0,95.0,6561.0,11184.0,10014.0,3.0,-4.0,3.0,-43.0,-36.0,-1.0,-7.0,-3.0,2.857841730117798
491,-26.0,43.0,22.0,1.0,95.0,6561.0,11184.0,10014.0,10.0,10.0,-9.0,5.0,23.0,-11.0,3.0,11.0,2.864863157272339
492,-26.0,43.0,22.0,1.0,95.0,6561.0,11184.0,10014.0,-8.0,-19.0,0.0,13.0,-39.0,8.0,20.0,-2.0,2.8725993633270264
493,-90.0,38.0,16.0,1.0,98.0,6556.0,11175.0,10027.0,-8.0,-19.0,0.0,13.0,-39.0,8.0,20.0,-2.0,2.8749780654907227
494,-90.0,38.0,16.0,1.0,98.0,6556.0,11175.0,10027.0,-3.0,-16.0,-2.0,-20.0,-44.0,-11.0,4.0,-12.0,2.879974842071533
495,-90.0,38.0,16.0,1.0,98.0,6556.0,11175.0,10027.0,-15.0,-2.0,25.0,13.0,-25.0,-9.0,-12.0,-19.0,2.8978359699249268
496,-47.0,43.0,7.0,1.0,99.0,6552.0,11173.0,10032.0,-15.0,-2.0,25.0,13.0,-25.0,-9.0,-12.0,-19.0,2.902428150177002
497,-47.0,43.0,7.0,1.0,99.0,6552.0,11173.0,10032.0,5.0,6.0,16.0,23.0,-13.0,-24.0,1.0,8.0,2.9063117504119873
498,-47.0,43.0,7.0,1.0,99.0,6552.0,11173.0,10032.0,3.0,7.0,-15.0,-7.0,38.0,1.0,-10.0,9.0,2.9197840690612793
499,-35.0,40.0,-12.0,1.0,100.0,6546.0,11174.0,10035.0,3.0,7.0,-15.0,-7.0,38.0,1.0,-10.0,9.0,2.924049139022827
