,Gyro 0,Gyro 1,Gyro 2,Label,Orientation 0,Orientation 1,Orientation 2,Orientation 3,Sensor 0,Sensor 1,Sensor 2,Sensor 3,Sensor 4,Sensor 5,Sensor 6,Sensor 7,Timestamp
0,25.0,4.0,-78.0,1.0,-4904.0,3395.0,12348.0,8965.0,-1.0,-2.0,-1.0,-1.0,-10.0,-2.0,-1.0,-3.0,1.6689300537109375e-06
1,25.0,4.0,-78.0,1.0,-4904.0,3395.0,12348.0,8965.0,0.0,-5.0,-4.0,0.0,-4.0,3.0,1.0,1.0,0.002880573272705078
2,25.0,4.0,-78.0,1.0,-4904.0,3395.0,12348.0,8965.0,-4.0,6.0,27.0,5.0,34.0,7.0,11.0,-3.0,0.005509614944458008
3,25.0,4.0,-78.0,1.0,-4904.0,3395.0,12348.0,8965.0,-2.0,-5.0,-5.0,-3.0,-2.0,-7.0,-2.0,-5.0,0.007990121841430664
4,-14.0,-9.0,-92.0,1.0,-4899.0,3389.0,12348.0,8970.0,-2.0,-5.0,-5.0,-3.0,-2.0,-7.0,-2.0,-5.0,0.010261297225952148
5,-14.0,-9.0,-92.0,1.0,-4899.0,3389.0,12348.0,8970.0,-3.0,-8.0,-11.0,4.0,-9.0,-4.0,-7.0,-4.0,0.012766838073730469
6,-14.0,-9.0,-92.0,1.0,-4899.0,3389.0,12348.0,8970.0,5.0,14.0,15.0,-4.0,-5.0,3.0,2.0,3.0,0.015055418014526367
7,1.0,-7.0,-96.0,1.0,-4895.0,3380.0,12348.0,8975.0,5.0,14.0,15.0,-4.0,-5.0,3.0,2.0,3.0,0.017385482788085938
8,1.0,-7.0,-96.0,1.0,-4895.0,3380.0,12348.0,8975.0,1.0,9.0,-8.0,-10.0,-16.0,-15.0,-6.0,-3.0,0.019912242889404297
9,1.0,-7.0,-96.0,1.0,-4895.0,3380.0,12348.0,8975.0,-1.0,2.0,-18.0,1.0,6.0,-4.0,-11.0,-2.0,0.023014545440673828
10,3.0,4.0,-109.0,1.0,-4892.0,3366.0,12347.0,8984.0,-1.0,2.0,-18.0,1.0,6.0,-4.0,-11.0,-2.0,0.02576923370361328
11,3.0,4.0,-109.0,1.0,-4892.0,3366.0,12347.0,8984.0,-1.0,-8.0,-4.0,-3.0,4.0,6.0,-3.0,1.0,0.028395891189575195
12,3.0,4.0,-109.0,1.0,-4892.0,3366.0,12347.0,8984.0,-6.0,-6.0,9.0,7.0,-27.0,-7.0,-8.0,-2.0,0.03104877471923828
13,2.0,31.0,-137.0,1.0,-4890.0,3348.0,12345.0,8994.0,-6.0,-6.0,9.0,7.0,-27.0,-7.0,-8.0,-2.0,0.03333568572998047
14,2.0,31.0,-137.0,1.0,-4890.0,3348.0,12345.0,8994.0,-1.0,-10.0,-12.0,-3.0,-34.0,-5.0,-5.0,2.0,0.03567075729370117
15,2.0,31.0,-137.0,1.0,-4890.0,3348.0,12345.0,8994.0,-4.0,-16.0,-6.0,5.0,27.0,12.0,5.0,1.0,0.037958621978759766
16,0.0,37.0,-128.0,1.0,-4892.0,3331.0,12342.0,9004.0,-4.0,-16.0,-6.0,5.0,27.0,12.0,5.0,1.0,0.040227651596069336
17,0.0,37.0,-128.0,1.0,-4892.0,3331.0,12342.0,9004.0,6.0,13.0,-7.0,2.0,-2.0,-5.0,1.0,1.0,0.04263138771057129
18,0.0,37.0,-128.0,1.0,-4892.0,3331.0,12342.0,9004.0,-14.0,-17.0,-2.0,-6.0,-24.0,-11.0,-4.0,-6.0,0.04492592811584473
19,-11.0,38.0,-153.0,1.0,-4891.0,3311.0,12338.0,9017.0,-14.0,-17.0,-2.0,-6.0,-24.0,-11.0,-4.0,-6.0,0.04725337028503418
20,-11.0,38.0,-153.0,1.0,-4891.0,3311.0,12338.0,9017.0,3.0,-5.0,-14.0,2.0,30.0,20.0,7.0,3.0,0.049596309661865234
21,-11.0,38.0,-153.0,1.0,-4891.0,3311.0,12338.0,9017.0,-2.0,3.0,-7.0,-5.0,-4.0,-18.0,-6.0,-1.0,0.05189633369445801
22,-35.0,67.0,-140.0,1.0,-4893.0,3293.0,12331.0,9031.0,-2.0,3.0,-7.0,-5.0,-4.0,-18.0,-6.0,-1.0,0.05493021011352539
23,-35.0,67.0,-140.0,1.0,-4893.0,3293.0,12331.0,9031.0,-1.0,1.0,3.0,-1.0,7.0,4.0,2.0,1.0,0.05777764320373535
24,-35.0,67.0,-140.0,1.0,-4893.0,3293.0,12331.0,9031.0,11.0,17.0,12.0,-4.0,-12.0,5.0,0.0,2.0,0.06007122993469238
25,12.0,68.0,-116.0,1.0,-4898.0,3274.0,12329.0,9039.0,11.0,17.0,12.0,-4.0,-12.0,5.0,0.0,2.0,0.06236767768859863
26,12.0,68.0,-116.0,1.0,-4898.0,3274.0,12329.0,9039.0,3.0,-6.0,-15.0,2.0,-2.0,-5.0,7.0,0.0,0.06471514701843262
27,12.0,68.0,-116.0,1.0,-4898.0,3274.0,12329.0,9039.0,-11.0,-14.0,-3.0,3.0,2.0,1.0,7.0,-6.0,0.06701397895812988
28,34.0,58.0,-98.0,1.0,-4903.0,3256.0,12331.0,9041.0,-11.0,-14.0,-3.0,3.0,2.0,1.0,7.0,-6.0,0.0693049430847168
29,34.0,58.0,-98.0,1.0,-4903.0,3256.0,12331.0,9041.0,-6.0,17.0,40.0,8.0,24.0,3.0,6.0,-2.0,0.07161569595336914
30,34.0,58.0,-98.0,1.0,-4903.0,3256.0,12331.0,9041.0,0.0,3.0,0.0,-5.0,-42.0,-10.0,3.0,-1.0,0.07388830184936523
31,10.0,42.0,-71.0,1.0,-4906.0,3245.0,12330.0,9043.0,0.0,3.0,0.0,-5.0,-42.0,-10.0,3.0,-1.0,0.07613849639892578
32,10.0,42.0,-71.0,1.0,-4906.0,3245.0,12330.0,9043.0,-6.0,-17.0,3.0,3.0,-5.0,-3.0,-2.0,-2.0,0.07848811149597168
33,10.0,42.0,-71.0,1.0,-4906.0,3245.0,12330.0,9043.0,6.0,11.0,-6.0,1.0,22.0,0.0,-1.0,1.0,0.08075213432312012
34,-36.0,41.0,-37.0,1.0,-4911.0,3242.0,12325.0,9049.0,6.0,11.0,-6.0,1.0,22.0,0.0,-1.0,1.0,0.08298444747924805
35,-36.0,41.0,-37.0,1.0,-4911.0,3242.0,12325.0,9049.0,3.0,6.0,5.0,-5.0,-11.0,-3.0,-8.0,1.0,0.08565235137939453
36,-36.0,41.0,-37.0,1.0,-4911.0,3242.0,12325.0,9049.0,-5.0,-20.0,-9.0,1.0,-2.0,-1.0,-1.0,1.0,0.08829402923583984
37,-34.0,39.0,-16.0,1.0,-4919.0,3243.0,12320.0,9052.0,-5.0,-20.0,-9.0,1.0,-2.0,-1.0,-1.0,1.0,0.09064364433288574
38,-34.0,39.0,-16.0,1.0,-4919.0,3243.0,12320.0,9052.0,-5.0,-11.0,-7.0,0.0,14.0,12.0,-2.0,-1.0,0.09305000305175781
39,-34.0,39.0,-16.0,1.0,-4919.0,3243.0,12320.0,9052.0,6.0,0.0,-20.0,-2.0,-18.0,-29.0,-5.0,-1.0,0.09533834457397461
40,-11.0,43.0,10.0,1.0,-4929.0,3246.0,12317.0,9049.0,6.0,0.0,-20.0,-2.0,-18.0,-29.0,-5.0,-1.0,0.09759235382080078
41,-11.0,43.0,10.0,1.0,-4929.0,3246.0,12317.0,9049.0,-2.0,-2.0,-4.0,-7.0,-7.0,-6.0,-5.0,-3.0,0.09993505477905273
42,-11.0,43.0,10.0,1.0,-4929.0,3246.0,12317.0,9049.0,-3.0,-3.0,10.0,5.0,20.0,16.0,4.0,0.0,0.10218501091003418
43,-6.0,44.0,33.0,1.0,-4941.0,3250.0,12314.0,9045.0,-3.0,-3.0,10.0,5.0,20.0,16.0,4.0,0.0,0.10445713996887207
44,-6.0,44.0,33.0,1.0,-4941.0,3250.0,12314.0,9045.0,-1.0,1.0,-6.0,-3.0,-8.0,-4.0,-5.0,-3.0,0.10677266120910645
45,-6.0,44.0,33.0,1.0,-4941.0,3250.0,12314.0,9045.0,-6.0,-2.0,4.0,1.0,12.0,3.0,-1.0,-4.0,0.10910534858703613
46,-16.0,39.0,39.0,1.0,-4953.0,3257.0,12310.0,9041.0,-6.0,-2.0,4.0,1.0,12.0,3.0,-1.0,-4.0,0.11143636703491211
47,-16.0,39.0,39.0,1.0,-4953.0,3257.0,12310.0,9041.0,5.0,5.0,4.0,3.0,-2.0,2.0,2.0,2.0,0.11375951766967773
48,-16.0,39.0,39.0,1.0,-4953.0,3257.0,12310.0,9041.0,-6.0,-8.0,5.0,-3.0,-16.0,-4.0,-4.0,-3.0,0.11605262756347656
49,-19.0,38.0,37.0,1.0,-4962.0,3264.0,12308.0,9036.0,-6.0,-8.0,5.0,-3.0,-16.0,-4.0,-4.0,-3.0,0.11858987808227539
50,-19.0,38.0,37.0,1.0,-4962.0,3264.0,12308.0,9036.0,-3.0,-2.0,-4.0,-3.0,-3.0,-2.0,0.0,0.0,0.12125062942504883
51,-19.0,38.0,37.0,1.0,-4962.0,3264.0,12308.0,9036.0,6.0,5.0,-3.0,1.0,11.0,5.0,1.0,1.0,0.1235346794128418
52,-18.0,2.0,46.0,1.0,-4969.0,3275.0,12306.0,9031.0,6.0,5.0,-3.0,1.0,11.0,5.0,1.0,1.0,0.12582945823669434
53,-18.0,2.0,46.0,1.0,-4969.0,3275.0,12306.0,9031.0,6.0,5.0,-3.0,1.0,11.0,5.0,1.0,1.0,0.12819814682006836
54,-18.0,2.0,46.0,1.0,-4969.0,3275.0,12306.0,9031.0,-1.0,1.0,0.0,1.0,-2.0,-2.0,-2.0,-1.0,0.13026738166809082
55,-18.0,2.0,46.0,1.0,-4969.0,3275.0,12306.0,9031.0,19.0,39.0,5.0,-8.0,5.0,12.0,4.0,6.0,0.13255953788757324
56,-19.0,4.0,42.0,1.0,-4975.0,3285.0,12304.0,9026.0,19.0,39.0,5.0,-8.0,5.0,12.0,4.0,6.0,0.1348109245300293
57,-19.0,4.0,42.0,1.0,-4975.0,3285.0,12304.0,9026.0,-3.0,-4.0,3.0,-4.0,-17.0,-10.0,-7.0,-1.0,0.13715481758117676
58,-19.0,4.0,42.0,1.0,-4975.0,3285.0,12304.0,9026.0,-5.0,-8.0,1.0,-5.0,-6.0,0.0,-1.0,0.0,0.13941502571105957
59,-20.0,16.0,44.0,1.0,-4983.0,3293.0,12301.0,9024.0,-5.0,-8.0,1.0,-5.0,-6.0,0.0,-1.0,0.0,0.14172053337097168
60,-20.0,16.0,44.0,1.0,-4983.0,3293.0,12301.0,9024.0,-3.0,-7.0,8.0,1.0,3.0,1.0,0.0,-3.0,0.1440277099609375
61,-20.0,16.0,44.0,1.0,-4983.0,3293.0,12301.0,9024.0,7.0,16.0,-1.0,1.0,3.0,4.0,4.0,3.0,0.1463298797607422
62,10.0,-9.0,40.0,1.0,-4987.0,3300.0,12301.0,9019.0,7.0,16.0,-1.0,1.0,3.0,4.0,4.0,3.0,0.14879393577575684
63,10.0,-9.0,40.0,1.0,-4987.0,3300.0,12301.0,9019.0,4.0,-1.0,-26.0,-10.0,-11.0,-4.0,-3.0,1.0,0.15145134925842285
64,10.0,-9.0,40.0,1.0,-4987.0,3300.0,12301.0,9019.0,-5.0,-10.0,7.0,2.0,29.0,-5.0,0.0,-1.0,0.15394210815429688
65,-34.0,-13.0,25.0,1.0,-4989.0,3310.0,12297.0,9019.0,-5.0,-10.0,7.0,2.0,29.0,-5.0,0.0,-1.0,0.1561875343322754
66,-34.0,-13.0,25.0,1.0,-4989.0,3310.0,12297.0,9019.0,-3.0,0.0,5.0,-2.0,-18.0,-6.0,-2.0,-2.0,0.15851354598999023
67,-34.0,-13.0,25.0,1.0,-4989.0,3310.0,12297.0,9019.0,-2.0,-2.0,-10.0,4.0,2.0,4.0,-2.0,-1.0,0.16091346740722656
68,-75.0,-29.0,43.0,1.0,-4987.0,3324.0,12291.0,9023.0,-2.0,-2.0,-10.0,4.0,2.0,4.0,-2.0,-1.0,0.16321063041687012
69,-75.0,-29.0,43.0,1.0,-4987.0,3324.0,12291.0,9023.0,11.0,37.0,44.0,1.0,8.0,6.0,2.0,4.0,0.16558146476745605
70,-75.0,-29.0,43.0,1.0,-4987.0,3324.0,12291.0,9023.0,1.0,10.0,-15.0,-7.0,-8.0,-3.0,0.0,-2.0,0.16781020164489746
71,-92.0,-37.0,42.0,1.0,-4984.0,3340.0,12283.0,9030.0,1.0,10.0,-15.0,-7.0,-8.0,-3.0,0.0,-2.0,0.17014050483703613
72,-92.0,-37.0,42.0,1.0,-4984.0,3340.0,12283.0,9030.0,-5.0,-8.0,-13.0,-5.0,-7.0,0.0,-1.0,-4.0,0.17246675491333008
73,-92.0,-37.0,42.0,1.0,-4984.0,3340.0,12283.0,9030.0,-7.0,-20.0,-4.0,6.0,16.0,9.0,-2.0,-1.0,0.17470240592956543
74,-85.0,-29.0,28.0,1.0,-4983.0,3354.0,12275.0,9037.0,-7.0,-20.0,-4.0,6.0,16.0,9.0,-2.0,-1.0,0.17708730697631836
75,-85.0,-29.0,28.0,1.0,-4983.0,3354.0,12275.0,9037.0,4.0,12.0,6.0,-4.0,-24.0,-4.0,1.0,2.0,0.1797635555267334
76,-85.0,-29.0,28.0,1.0,-4983.0,3354.0,12275.0,9037.0,6.0,7.0,-1.0,-4.0,-5.0,1.0,-2.0,0.0,0.18233609199523926
77,-30.0,-40.0,27.0,1.0,-4981.0,3365.0,12274.0,9036.0,6.0,7.0,-1.0,-4.0,-5.0,1.0,-2.0,0.0,0.18489694595336914
78,-30.0,-40.0,27.0,1.0,-4981.0,3365.0,12274.0,9036.0,-5.0,-8.0,-3.0,4.0,24.0,-5.0,-3.0,-3.0,0.18728017807006836
79,-30.0,-40.0,27.0,1.0,-4981.0,3365.0,12274.0,9036.0,-5.0,-8.0,4.0,1.0,-1.0,0.0,-2.0,-2.0,0.1895444393157959
80,-68.0,-50.0,23.0,1.0,-4976.0,3379.0,12269.0,9039.0,-5.0,-8.0,4.0,1.0,-1.0,0.0,-2.0,-2.0,0.19177651405334473
81,-68.0,-50.0,23.0,1.0,-4976.0,3379.0,12269.0,9039.0,-3.0,-10.0,-10.0,2.0,3.0,0.0,2.0,-1.0,0.19409942626953125
82,-68.0,-50.0,23.0,1.0,-4976.0,3379.0,12269.0,9039.0,-13.0,-24.0,-1.0,5.0,17.0,-2.0,-2.0,-3.0,0.19634366035461426
83,-59.0,-53.0,22.0,1.0,-4969.0,3393.0,12267.0,9040.0,-13.0,-24.0,-1.0,5.0,17.0,-2.0,-2.0,-3.0,0.19858098030090332
84,-59.0,-53.0,22.0,1.0,-4969.0,3393.0,12267.0,9040.0,13.0,16.0,-21.0,-8.0,-15.0,-4.0,-5.0,5.0,0.20096564292907715
85,-59.0,-53.0,22.0,1.0,-4969.0,3393.0,12267.0,9040.0,-3.0,-1.0,4.0,-8.0,-23.0,-6.0,-3.0,-5.0,0.2031998634338379
86,-80.0,-34.0,27.0,1.0,-4965.0,3406.0,12261.0,9045.0,-3.0,-1.0,4.0,-8.0,-23.0,-6.0,-3.0,-5.0,0.2054431438446045
87,-80.0,-34.0,27.0,1.0,-4965.0,3406.0,12261.0,9045.0,-11.0,-22.0,1.0,8.0,22.0,6.0,1.0,-2.0,0.20780277252197266
88,-80.0,-34.0,27.0,1.0,-4965.0,3406.0,12261.0,9045.0,2.0,4.0,0.0,0.0,-3.0,0.0,2.0,1.0,0.2100965976715088
89,-71.0,-41.0,34.0,1.0,-4962.0,3421.0,12256.0,9049.0,2.0,4.0,0.0,0.0,-3.0,0.0,2.0,1.0,0.21266674995422363
90,-71.0,-41.0,34.0,1.0,-4962.0,3421.0,12256.0,9049.0,1.0,2.0,-2.0,-1.0,0.0,4.0,1.0,-2.0,0.21533417701721191
91,-71.0,-41.0,34.0,1.0,-4962.0,3421.0,12256.0,9049.0,0.0,9.0,26.0,-1.0,-5.0,-5.0,-1.0,0.0,0.21764349937438965
92,-53.0,-34.0,39.0,1.0,-4961.0,3435.0,12253.0,9049.0,0.0,9.0,26.0,-1.0,-5.0,-5.0,-1.0,0.0,0.2198960781097412
93,-53.0,-34.0,39.0,1.0,-4961.0,3435.0,12253.0,9049.0,0.0,-7.0,-5.0,0.0,2.0,1.0,-2.0,-3.0,0.22223305702209473
94,-53.0,-34.0,39.0,1.0,-4961.0,3435.0,12253.0,9049.0,-1.0,-5.0,-7.0,-2.0,-2.0,0.0,-2.0,0.0,0.22455716133117676
95,-51.0,-22.0,47.0,1.0,-4962.0,3449.0,12248.0,9049.0,-1.0,-5.0,-7.0,-2.0,-2.0,0.0,-2.0,0.0,0.2267928123474121
96,-51.0,-22.0,47.0,1.0,-4962.0,3449.0,12248.0,9049.0,-2.0,0.0,12.0,0.0,1.0,-2.0,0.0,-1.0,0.2291240692138672
97,-51.0,-22.0,47.0,1.0,-4962.0,3449.0,12248.0,9049.0,6.0,5.0,-3.0,-6.0,-6.0,0.0,1.0,2.0,0.23140454292297363
98,-47.0,-32.0,49.0,1.0,-4961.0,3463.0,12245.0,9049.0,6.0,5.0,-3.0,-6.0,-6.0,0.0,1.0,2.0,0.23365402221679688
99,-47.0,-32.0,49.0,1.0,-4961.0,3463.0,12245.0,9049.0,-4.0,-8.0,-5.0,7.0,-1.0,-2.0,-1.0,-2.0,0.2361752986907959
100,-47.0,-32.0,49.0,1.0,-4961.0,3463.0,12245.0,9049.0,-9.0,-4.0,4.0,3.0,3.0,4.0,-2.0,-4.0,0.23843669891357422
101,-50.0,-33.0,48.0,1.0,-4959.0,3476.0,12241.0,9049.0,-9.0,-4.0,4.0,3.0,3.0,4.0,-2.0,-4.0,0.2406785488128662
102,-50.0,-33.0,48.0,1.0,-4959.0,3476.0,12241.0,9049.0,-4.0,-7.0,-1.0,-2.0,-9.0,-9.0,-2.0,-1.0,0.24316120147705078
103,-50.0,-33.0,48.0,1.0,-4959.0,3476.0,12241.0,9049.0,1.0,5.0,5.0,-1.0,7.0,0.0,-1.0,1.0,0.24584245681762695
104,-54.0,-36.0,49.0,1.0,-4957.0,3490.0,12237.0,9051.0,1.0,5.0,5.0,-1.0,7.0,0.0,-1.0,1.0,0.24832773208618164
105,-54.0,-36.0,49.0,1.0,-4957.0,3490.0,12237.0,9051.0,-4.0,-1.0,-7.0,-1.0,-5.0,-6.0,4.0,-1.0,0.25064563751220703
106,-54.0,-36.0,49.0,1.0,-4957.0,3490.0,12237.0,9051.0,2.0,3.0,9.0,0.0,-9.0,-7.0,-10.0,0.0,0.25289368629455566
107,-65.0,-24.0,48.0,1.0,-4956.0,3504.0,12232.0,9053.0,2.0,3.0,9.0,0.0,-9.0,-7.0,-10.0,0.0,0.2552955150604248
108,-65.0,-24.0,48.0,1.0,-4956.0,3504.0,12232.0,9053.0,0.0,-1.0,4.0,-1.0,14.0,5.0,0.0,0.0,0.25763440132141113
109,-65.0,-24.0,48.0,1.0,-4956.0,3504.0,12232.0,9053.0,23.0,30.0,-5.0,-4.0,-16.0,2.0,3.0,9.0,0.2598693370819092
110,-66.0,-28.0,47.0,1.0,-4953.0,3516.0,12227.0,9056.0,23.0,30.0,-5.0,-4.0,-16.0,2.0,3.0,9.0,0.2621481418609619
111,-66.0,-28.0,47.0,1.0,-4953.0,3516.0,12227.0,9056.0,0.0,2.0,-13.0,-6.0,-15.0,-4.0,-2.0,-2.0,0.2644779682159424
112,-66.0,-28.0,47.0,1.0,-4953.0,3516.0,12227.0,9056.0,-7.0,-12.0,-9.0,0.0,-8.0,2.0,-3.0,-3.0,0.2667105197906494
113,-69.0,-13.0,54.0,1.0,-4952.0,3529.0,12222.0,9059.0,-7.0,-12.0,-9.0,0.0,-8.0,2.0,-3.0,-3.0,0.26897644996643066
114,-69.0,-13.0,54.0,1.0,-4952.0,3529.0,12222.0,9059.0,2.0,-2.0,0.0,0.0,4.0,2.0,1.0,1.0,0.2713949680328369
115,-69.0,-13.0,54.0,1.0,-4952.0,3529.0,12222.0,9059.0,-4.0,-5.0,0.0,2.0,8.0,-2.0,-1.0,-1.0,0.2738046646118164
116,-59.0,-21.0,57.0,1.0,-4951.0,3542.0,12217.0,9061.0,-4.0,-5.0,0.0,2.0,8.0,-2.0,-1.0,-1.0,0.27654027938842773
117,-59.0,-21.0,57.0,1.0,-4951.0,3542.0,12217.0,9061.0,-14.0,-14.0,-2.0,-1.0,0.0,-1.0,-4.0,-8.0,0.2793252468109131
118,-59.0,-21.0,57.0,1.0,-4951.0,3542.0,12217.0,9061.0,10.0,19.0,-6.0,-2.0,9.0,7.0,8.0,2.0,0.2816162109375
119,-80.0,-22.0,50.0,1.0,-4948.0,3556.0,12211.0,9065.0,10.0,19.0,-6.0,-2.0,9.0,7.0,8.0,2.0,0.28386926651000977
120,-80.0,-22.0,50.0,1.0,-4948.0,3556.0,12211.0,9065.0,1.0,5.0,-23.0,0.0,17.0,-23.0,-23.0,-6.0,0.28624820709228516
121,-80.0,-22.0,50.0,1.0,-4948.0,3556.0,12211.0,9065.0,-8.0,-11.0,3.0,2.0,-17.0,-12.0,-5.0,-4.0,0.28850507736206055
122,-64.0,-12.0,43.0,1.0,-4945.0,3566.0,12208.0,9067.0,-8.0,-11.0,3.0,2.0,-17.0,-12.0,-5.0,-4.0,0.2907867431640625
123,-64.0,-12.0,43.0,1.0,-4945.0,3566.0,12208.0,9067.0,7.0,10.0,17.0,0.0,8.0,10.0,10.0,4.0,0.29323244094848633
124,-64.0,-12.0,43.0,1.0,-4945.0,3566.0,12208.0,9067.0,-2.0,-2.0,-4.0,0.0,30.0,6.0,5.0,1.0,0.2954862117767334
125,-61.0,-9.0,39.0,1.0,-4942.0,3574.0,12204.0,9071.0,-2.0,-2.0,-4.0,0.0,30.0,6.0,5.0,1.0,0.29774975776672363
126,-61.0,-9.0,39.0,1.0,-4942.0,3574.0,12204.0,9071.0,-3.0,-8.0,-7.0,-6.0,-34.0,-6.0,0.0,-1.0,0.30020809173583984
127,-61.0,-9.0,39.0,1.0,-4942.0,3574.0,12204.0,9071.0,-9.0,-21.0,-9.0,4.0,5.0,3.0,0.0,-3.0,0.3025038242340088
128,-64.0,0.0,30.0,1.0,-4938.0,3581.0,12200.0,9075.0,-9.0,-21.0,-9.0,4.0,5.0,3.0,0.0,-3.0,0.30481743812561035
129,-64.0,0.0,30.0,1.0,-4938.0,3581.0,12200.0,9075.0,-1.0,6.0,15.0,3.0,-6.0,-3.0,-2.0,-2.0,0.30774998664855957
130,-64.0,0.0,30.0,1.0,-4938.0,3581.0,12200.0,9075.0,-2.0,-10.0,-5.0,-6.0,1.0,-1.0,0.0,-3.0,0.31031155586242676
131,-54.0,12.0,41.0,1.0,-4938.0,3587.0,12196.0,9079.0,-2.0,-10.0,-5.0,-6.0,1.0,-1.0,0.0,-3.0,0.3125946521759033
132,-54.0,12.0,41.0,1.0,-4938.0,3587.0,12196.0,9079.0,-5.0,-13.0,1.0,1.0,-12.0,5.0,4.0,-1.0,0.31494641304016113
133,-54.0,12.0,41.0,1.0,-4938.0,3587.0,12196.0,9079.0,-1.0,-3.0,5.0,-1.0,-27.0,-10.0,0.0,-1.0,0.3172471523284912
134,-50.0,14.0,45.0,1.0,-4938.0,3593.0,12193.0,9080.0,-1.0,-3.0,5.0,-1.0,-27.0,-10.0,0.0,-1.0,0.3195047378540039
135,-50.0,14.0,45.0,1.0,-4938.0,3593.0,12193.0,9080.0,5.0,-15.0,-27.0,-12.0,-13.0,9.0,7.0,5.0,0.32186412811279297
136,-50.0,14.0,45.0,1.0,-4938.0,3593.0,12193.0,9080.0,-1.0,9.0,8.0,-2.0,-13.0,-8.0,-8.0,-3.0,0.3241562843322754
137,-67.0,1.0,40.0,1.0,-4936.0,3601.0,12187.0,9086.0,-1.0,9.0,8.0,-2.0,-13.0,-8.0,-8.0,-3.0,0.32643890380859375
138,-67.0,1.0,40.0,1.0,-4936.0,3601.0,12187.0,9086.0,4.0,-4.0,-10.0,3.0,18.0,3.0,2.0,3.0,0.3287990093231201
139,-67.0,1.0,40.0,1.0,-4936.0,3601.0,12187.0,9086.0,5.0,11.0,5.0,-3.0,-2.0,6.0,3.0,2.0,0.33113813400268555
140,-89.0,-8.0,39.0,1.0,-4933.0,3612.0,12181.0,9091.0,5.0,11.0,5.0,-3.0,-2.0,6.0,3.0,2.0,0.333406925201416
141,-89.0,-8.0,39.0,1.0,-4933.0,3612.0,12181.0,9091.0,-4.0,-5.0,18.0,2.0,0.0,-3.0,-1.0,-1.0,0.3357377052307129
142,-89.0,-8.0,39.0,1.0,-4933.0,3612.0,12181.0,9091.0,-4.0,-10.0,-13.0,1.0,5.0,-8.0,0.0,-1.0,0.338653564453125
143,-75.0,-16.0,43.0,1.0,-4929.0,3623.0,12176.0,9096.0,-4.0,-10.0,-13.0,1.0,5.0,-8.0,0.0,-1.0,0.34122753143310547
144,-75.0,-16.0,43.0,1.0,-4929.0,3623.0,12176.0,9096.0,0.0,15.0,0.0,-5.0,5.0,3.0,-2.0,0.0,0.3437342643737793
145,-75.0,-16.0,43.0,1.0,-4929.0,3623.0,12176.0,9096.0,-8.0,-22.0,-30.0,-1.0,0.0,4.0,0.0,-2.0,0.3460211753845215
146,-66.0,-17.0,40.0,1.0,-4927.0,3634.0,12171.0,9099.0,-8.0,-22.0,-30.0,-1.0,0.0,4.0,0.0,-2.0,0.3482842445373535
147,-66.0,-17.0,40.0,1.0,-4927.0,3634.0,12171.0,9099.0,-4.0,-6.0,-10.0,-5.0,-14.0,-9.0,-5.0,-2.0,0.35061120986938477
148,-67.0,-22.0,27.0,1.0,-4922.0,3644.0,12167.0,9103.0,-4.0,-6.0,-10.0,-5.0,-14.0,-9.0,-5.0,-2.0,0.3529360294342041
149,-67.0,-22.0,27.0,1.0,-4922.0,3644.0,12167.0,9103.0,0.0,-17.0,-19.0,5.0,13.0,4.0,1.0,0.0,0.35529017448425293
150,-67.0,-22.0,27.0,1.0,-4922.0,3644.0,12167.0,9103.0,4.0,14.0,11.0,-1.0,-7.0,2.0,-1.0,1.0,0.35755300521850586
151,-67.0,-18.0,13.0,1.0,-4916.0,3651.0,12164.0,9108.0,4.0,14.0,11.0,-1.0,-7.0,2.0,-1.0,1.0,0.3598358631134033
152,-67.0,-18.0,13.0,1.0,-4916.0,3651.0,12164.0,9108.0,-6.0,1.0,15.0,2.0,6.0,-7.0,-1.0,-2.0,0.36223912239074707
153,-67.0,-18.0,13.0,1.0,-4916.0,3651.0,12164.0,9108.0,3.0,0.0,-4.0,0.0,11.0,-1.0,-1.0,-2.0,0.364518404006958
154,-45.0,-28.0,0.0,1.0,-4908.0,3656.0,12164.0,9111.0,3.0,0.0,-4.0,0.0,11.0,-1.0,-1.0,-2.0,0.366849422454834
155,-45.0,-28.0,0.0,1.0,-4908.0,3656.0,12164.0,9111.0,3.0,16.0,26.0,-2.0,-5.0,2.0,-1.0,0.0,0.3698740005493164
156,-45.0,-28.0,0.0,1.0,-4908.0,3656.0,12164.0,9111.0,-1.0,-4.0,-14.0,1.0,16.0,4.0,-1.0,-1.0,0.3724501132965088
157,-47.0,-21.0,-2.0,1.0,-4901.0,3660.0,12163.0,9114.0,-1.0,-4.0,-14.0,1.0,16.0,4.0,-1.0,-1.0,0.37471985816955566
158,-47.0,-21.0,-2.0,1.0,-4901.0,3660.0,12163.0,9114.0,4.0,10.0,8.0,-6.0,-9.0,-2.0,-1.0,1.0,0.37709832191467285
159,-47.0,-21.0,-2.0,1.0,-4901.0,3660.0,12163.0,9114.0,3.0,12.0,14.0,8.0,11.0,5.0,3.0,1.0,0.37937045097351074
160,-50.0,-16.0,2.0,1.0,-4894.0,3664.0,12161.0,9118.0,3.0,12.0,14.0,8.0,11.0,5.0,3.0,1.0,0.38168787956237793
161,-50.0,-16.0,2.0,1.0,-4894.0,3664.0,12161.0,9118.0,0.0,8.0,3.0,1.0,11.0,1.0,0.0,2.0,0.3840193748474121
162,-50.0,-16.0,2.0,1.0,-4894.0,3664.0,12161.0,9118.0,-4.0,-8.0,-6.0,-5.0,-26.0,-4.0,-4.0,-2.0,0.38631343841552734
163,-56.0,-24.0,5.0,1.0,-4887.0,3670.0,12160.0,9122.0,-4.0,-8.0,-6.0,-5.0,-26.0,-4.0,-4.0,-2.0,0.38862180709838867
164,-56.0,-24.0,5.0,1.0,-4887.0,3670.0,12160.0,9122.0,6.0,-2.0,-9.0,-1.0,8.0,-3.0,1.0,2.0,0.39101624488830566
165,-56.0,-24.0,5.0,1.0,-4887.0,3670.0,12160.0,9122.0,-3.0,-9.0,-16.0,1.0,-1.0,5.0,-1.0,0.0,0.39331793785095215
166,-53.0,-13.0,-5.0,1.0,-4882.0,3675.0,12157.0,9125.0,-3.0,-9.0,-16.0,1.0,-1.0,5.0,-1.0,0.0,0.3955838680267334
167,-53.0,-13.0,-5.0,1.0,-4882.0,3675.0,12157.0,9125.0,-2.0,-9.0,-14.0,1.0,2.0,3.0,-1.0,-2.0,0.3979306221008301
168,-53.0,-13.0,-5.0,1.0,-4882.0,3675.0,12157.0,9125.0,3.0,5.0,6.0,-4.0,-1.0,1.0,0.0,3.0,0.40082740783691406
169,-39.0,-11.0,2.0,1.0,-4877.0,3679.0,12157.0,9127.0,3.0,5.0,6.0,-4.0,-1.0,1.0,0.0,3.0,0.40340304374694824
170,-39.0,-11.0,2.0,1.0,-4877.0,3679.0,12157.0,9127.0,-6.0,-7.0,-4.0,2.0,1.0,-2.0,-1.0,-5.0,0.4057779312133789
171,-39.0,-11.0,2.0,1.0,-4877.0,3679.0,12157.0,9127.0,5.0,17.0,10.0,0.0,5.0,2.0,2.0,2.0,0.40807342529296875
172,-13.0,-9.0,-1.0,1.0,-4877.0,3680.0,12158.0,9126.0,5.0,17.0,10.0,0.0,5.0,2.0,2.0,2.0,0.4136617183685303
173,-13.0,-9.0,-1.0,1.0,-4877.0,3680.0,12158.0,9126.0,-1.0,0.0,-4.0,-4.0,-14.0,-9.0,-2.0,-4.0,0.41602277755737305
174,-13.0,-9.0,-1.0,1.0,-4877.0,3680.0,12158.0,9126.0,-2.0,-4.0,0.0,-2.0,-8.0,-8.0,-2.0,-3.0,0.4183676242828369
175,-25.0,-7.0,-8.0,1.0,-4874.0,3682.0,12159.0,9125.0,-2.0,-4.0,0.0,-2.0,-8.0,-8.0,-2.0,-3.0,0.4279768466949463
176,-25.0,-7.0,-8.0,1.0,-4874.0,3682.0,12159.0,9125.0,-1.0,-6.0,-13.0,1.0,6.0,9.0,0.0,1.0,0.43053102493286133
177,-25.0,-7.0,-8.0,1.0,-4874.0,3682.0,12159.0,9125.0,6.0,11.0,12.0,-5.0,-19.0,-6.0,-1.0,4.0,0.4354422092437744
178,-14.0,2.0,-18.0,1.0,-4871.0,3683.0,12161.0,9123.0,6.0,11.0,12.0,-5.0,-19.0,-6.0,-1.0,4.0,0.4515695571899414
179,-14.0,2.0,-18.0,1.0,-4871.0,3683.0,12161.0,9123.0,-2.0,-6.0,9.0,2.0,4.0,4.0,2.0,2.0,0.45406126976013184
180,-14.0,2.0,-18.0,1.0,-4871.0,3683.0,12161.0,9123.0,-10.0,-12.0,-7.0,-1.0,-3.0,-2.0,-2.0,-8.0,0.45641636848449707
181,3.0,-2.0,-22.0,1.0,-4868.0,3681.0,12165.0,9121.0,-10.0,-12.0,-7.0,-1.0,-3.0,-2.0,-2.0,-8.0,0.48253560066223145
182,3.0,-2.0,-22.0,1.0,-4868.0,3681.0,12165.0,9121.0,-3.0,5.0,1.0,-5.0,14.0,3.0,0.0,-2.0,0.48663878440856934
183,3.0,-2.0,-22.0,1.0,-4868.0,3681.0,12165.0,9121.0,-16.0,-28.0,-2.0,8.0,9.0,2.0,-5.0,-7.0,0.4905726909637451
184,17.0,0.0,-29.0,1.0,-4865.0,3677.0,12169.0,9118.0,-16.0,-28.0,-2.0,8.0,9.0,2.0,-5.0,-7.0,0.4940030574798584
185,17.0,0.0,-29.0,1.0,-4865.0,3677.0,12169.0,9118.0,0.0,6.0,3.0,0.0,-7.0,-1.0,-2.0,1.0,0.4967687129974365
186,17.0,0.0,-29.0,1.0,-4865.0,3677.0,12169.0,9118.0,-1.0,-4.0,-8.0,0.0,7.0,2.0,2.0,-1.0,0.499131441116333
187,16.0,7.0,-28.0,1.0,-4863.0,3673.0,12174.0,9115.0,-1.0,-4.0,-8.0,0.0,7.0,2.0,2.0,-1.0,0.5114636421203613
188,16.0,7.0,-28.0,1.0,-4863.0,3673.0,12174.0,9115.0,-2.0,0.0,4.0,0.0,-9.0,-1.0,-3.0,-2.0,0.5142149925231934
189,16.0,7.0,-28.0,1.0,-4863.0,3673.0,12174.0,9115.0,1.0,-11.0,3.0,5.0,40.0,3.0,4.0,2.0,0.5164737701416016
190,37.0,4.0,-34.0,1.0,-4861.0,3666.0,12180.0,9110.0,1.0,-11.0,3.0,5.0,40.0,3.0,4.0,2.0,0.5339374542236328
191,37.0,4.0,-34.0,1.0,-4861.0,3666.0,12180.0,9110.0,22.0,38.0,-11.0,-18.0,-74.0,-20.0,-3.0,5.0,0.5363070964813232
192,37.0,4.0,-34.0,1.0,-4861.0,3666.0,12180.0,9110.0,1.0,7.0,8.0,0.0,10.0,2.0,-1.0,-1.0,0.5385379791259766
193,14.0,7.0,-30.0,1.0,-4858.0,3662.0,12184.0,9108.0,1.0,7.0,8.0,0.0,10.0,2.0,-1.0,-1.0,0.5484817028045654
194,14.0,7.0,-30.0,1.0,-4858.0,3662.0,12184.0,9108.0,-8.0,-13.0,5.0,5.0,13.0,1.0,1.0,-3.0,0.5508224964141846
195,14.0,7.0,-30.0,1.0,-4858.0,3662.0,12184.0,9108.0,0.0,-4.0,-2.0,-5.0,-2.0,0.0,1.0,-1.0,0.5550858974456787
196,36.0,-1.0,-33.0,1.0,-4856.0,3657.0,12191.0,9102.0,0.0,-4.0,-2.0,-5.0,-2.0,0.0,1.0,-1.0,0.5715279579162598
197,36.0,-1.0,-33.0,1.0,-4856.0,3657.0,12191.0,9102.0,-11.0,-19.0,10.0,6.0,13.0,6.0,-1.0,-3.0,0.5738561153411865
198,36.0,-1.0,-33.0,1.0,-4856.0,3657.0,12191.0,9102.0,4.0,7.0,3.0,-2.0,-6.0,-12.0,-3.0,0.0,0.5760927200317383
199,23.0,9.0,-25.0,1.0,-4854.0,3652.0,12196.0,9098.0,4.0,7.0,3.0,-2.0,-6.0,-12.0,-3.0,0.0,0.5942051410675049
200,23.0,9.0,-25.0,1.0,-4854.0,3652.0,12196.0,9098.0,-3.0,-14.0,-10.0,-2.0,10.0,-1.0,-1.0,-1.0,0.5965862274169922
201,23.0,9.0,-25.0,1.0,-4854.0,3652.0,12196.0,9098.0,-2.0,-6.0,-29.0,-4.0,-7.0,6.0,4.0,0.0,0.5992679595947266
202,18.0,1.0,-17.0,1.0,-4852.0,3648.0,12200.0,9096.0,-2.0,-6.0,-29.0,-4.0,-7.0,6.0,4.0,0.0,0.6084237098693848
203,18.0,1.0,-17.0,1.0,-4852.0,3648.0,12200.0,9096.0,-6.0,0.0,9.0,0.0,13.0,-3.0,3.0,-5.0,0.6107532978057861
204,18.0,1.0,-17.0,1.0,-4852.0,3648.0,12200.0,9096.0,6.0,-6.0,-24.0,-3.0,-11.0,1.0,2.0,0.0,0.6153712272644043
205,24.0,9.0,-22.0,1.0,-4850.0,3642.0,12205.0,9092.0,6.0,-6.0,-24.0,-3.0,-11.0,1.0,2.0,0.0,0.63144850730896
206,24.0,9.0,-22.0,1.0,-4850.0,3642.0,12205.0,9092.0,2.0,-2.0,7.0,2.0,8.0,9.0,-2.0,-1.0,0.6337912082672119
207,24.0,9.0,-22.0,1.0,-4850.0,3642.0,12205.0,9092.0,2.0,14.0,13.0,2.0,11.0,-17.0,-7.0,1.0,0.6360204219818115
208,26.0,-1.0,-9.0,1.0,-4848.0,3640.0,12210.0,9088.0,2.0,14.0,13.0,2.0,11.0,-17.0,-7.0,1.0,0.6540794372558594
209,26.0,-1.0,-9.0,1.0,-4848.0,3640.0,12210.0,9088.0,-4.0,-6.0,-8.0,-4.0,-11.0,-3.0,7.0,-1.0,0.6568777561187744
210,26.0,-1.0,-9.0,1.0,-4848.0,3640.0,12210.0,9088.0,-2.0,1.0,14.0,3.0,-1.0,7.0,-1.0,1.0,0.659146785736084
211,44.0,1.0,-9.0,1.0,-4847.0,3635.0,12216.0,9082.0,-2.0,1.0,14.0,3.0,-1.0,7.0,-1.0,1.0,0.6681876182556152
212,44.0,1.0,-9.0,1.0,-4847.0,3635.0,12216.0,9082.0,9.0,35.0,30.0,1.0,1.0,0.0,-7.0,1.0,0.6705162525177002
213,44.0,1.0,-9.0,1.0,-4847.0,3635.0,12216.0,9082.0,-10.0,-4.0,3.0,-1.0,-8.0,-6.0,-4.0,-7.0,0.6751635074615479
214,17.0,8.0,-4.0,1.0,-4846.0,3632.0,12220.0,9079.0,-10.0,-4.0,3.0,-1.0,-8.0,-6.0,-4.0,-7.0,0.6914520263671875
215,17.0,8.0,-4.0,1.0,-4846.0,3632.0,12220.0,9079.0,-1.0,4.0,-2.0,-1.0,4.0,0.0,-2.0,2.0,0.6938126087188721
216,17.0,8.0,-4.0,1.0,-4846.0,3632.0,12220.0,9079.0,-6.0,-7.0,9.0,-1.0,-11.0,3.0,1.0,-3.0,0.6960594654083252
217,20.0,-4.0,6.0,1.0,-4845.0,3631.0,12223.0,9075.0,-6.0,-7.0,9.0,-1.0,-11.0,3.0,1.0,-3.0,0.7151439189910889
218,20.0,-4.0,6.0,1.0,-4845.0,3631.0,12223.0,9075.0,-5.0,-25.0,-13.0,3.0,3.0,-7.0,-4.0,0.0,0.7197825908660889
219,20.0,-4.0,6.0,1.0,-4845.0,3631.0,12223.0,9075.0,-1.0,2.0,-8.0,-4.0,0.0,-4.0,0.0,2.0,0.723778486251831
220,11.0,-2.0,8.0,1.0,-4844.0,3631.0,12224.0,9074.0,-1.0,2.0,-8.0,-4.0,0.0,-4.0,0.0,2.0,0.7278695106506348
221,11.0,-2.0,8.0,1.0,-4844.0,3631.0,12224.0,9074.0,-1.0,-9.0,-25.0,1.0,12.0,-2.0,-4.0,-1.0,0.7365250587463379
222,11.0,-2.0,8.0,1.0,-4844.0,3631.0,12224.0,9074.0,-4.0,-8.0,-13.0,1.0,6.0,5.0,1.0,-4.0,0.7387757301330566
223,4.0,-10.0,9.0,1.0,-4844.0,3631.0,12224.0,9074.0,-4.0,-8.0,-13.0,1.0,6.0,5.0,1.0,-4.0,0.7521002292633057
224,4.0,-10.0,9.0,1.0,-4844.0,3631.0,12224.0,9074.0,5.0,16.0,7.0,-6.0,-22.0,-5.0,-3.0,2.0,0.7544872760772705
225,4.0,-10.0,9.0,1.0,-4844.0,3631.0,12224.0,9074.0,4.0,2.0,0.0,7.0,6.0,4.0,-4.0,1.0,0.7567429542541504
226,16.0,-8.0,7.0,1.0,-4843.0,3633.0,12228.0,9068.0,4.0,2.0,0.0,7.0,6.0,4.0,-4.0,1.0,0.7740037441253662
227,16.0,-8.0,7.0,1.0,-4843.0,3633.0,12228.0,9068.0,-5.0,-9.0,-12.0,-3.0,8.0,-10.0,-3.0,-5.0,0.7763271331787109
228,16.0,-8.0,7.0,1.0,-4843.0,3633.0,12228.0,9068.0,-1.0,2.0,12.0,-4.0,10.0,3.0,-4.0,0.0,0.7787272930145264
229,26.0,-7.0,13.0,1.0,-4843.0,3634.0,12232.0,9063.0,-1.0,2.0,12.0,-4.0,10.0,3.0,-4.0,0.0,0.7880039215087891
230,26.0,-7.0,13.0,1.0,-4843.0,3634.0,12232.0,9063.0,-2.0,-6.0,-9.0,0.0,6.0,3.0,2.0,-4.0,0.7958087921142578
231,26.0,-7.0,13.0,1.0,-4843.0,3634.0,12232.0,9063.0,-1.0,10.0,21.0,5.0,3.0,2.0,2.0,-1.0,0.7980914115905762
232,24.0,-10.0,17.0,1.0,-4843.0,3634.0,12235.0,9058.0,-1.0,10.0,21.0,5.0,3.0,2.0,2.0,-1.0,0.8139529228210449
233,24.0,-10.0,17.0,1.0,-4843.0,3634.0,12235.0,9058.0,0.0,-4.0,-15.0,-2.0,-10.0,-2.0,0.0,1.0,0.819077730178833
234,24.0,-10.0,17.0,1.0,-4843.0,3634.0,12235.0,9058.0,6.0,12.0,-6.0,-7.0,-2.0,-4.0,1.0,7.0,0.8229970932006836
235,5.0,0.0,16.0,1.0,-4841.0,3634.0,12237.0,9057.0,6.0,12.0,-6.0,-7.0,-2.0,-4.0,1.0,7.0,0.8352301120758057
236,5.0,0.0,16.0,1.0,-4841.0,3634.0,12237.0,9057.0,-3.0,-5.0,14.0,4.0,-22.0,-1.0,-2.0,6.0,0.8395364284515381
237,5.0,0.0,16.0,1.0,-4841.0,3634.0,12237.0,9057.0,-8.0,-13.0,3.0,-1.0,-9.0,-3.0,-1.0,-4.0,0.8438634872436523
238,26.0,-6.0,15.0,1.0,-4840.0,3632.0,12239.0,9055.0,-8.0,-13.0,3.0,-1.0,-9.0,-3.0,-1.0,-4.0,0.8477611541748047
239,26.0,-6.0,15.0,1.0,-4840.0,3632.0,12239.0,9055.0,-1.0,17.0,14.0,-3.0,-38.0,-6.0,-2.0,-7.0,0.855806827545166
240,26.0,-6.0,15.0,1.0,-4840.0,3632.0,12239.0,9055.0,3.0,7.0,-4.0,-10.0,6.0,-1.0,-5.0,-3.0,0.8580882549285889
241,50.0,-11.0,4.0,1.0,-4839.0,3629.0,12245.0,9050.0,3.0,7.0,-4.0,-10.0,6.0,-1.0,-5.0,-3.0,0.8717544078826904
242,50.0,-11.0,4.0,1.0,-4839.0,3629.0,12245.0,9050.0,-21.0,-42.0,-3.0,4.0,29.0,25.0,17.0,-10.0,0.8742578029632568
243,50.0,-11.0,4.0,1.0,-4839.0,3629.0,12245.0,9050.0,18.0,43.0,10.0,9.0,-62.0,-13.0,6.0,8.0,0.8767836093902588
244,105.0,-12.0,-22.0,1.0,-4838.0,3619.0,12256.0,9039.0,18.0,43.0,10.0,9.0,-62.0,-13.0,6.0,8.0,0.8943994045257568
245,105.0,-12.0,-22.0,1.0,-4838.0,3619.0,12256.0,9039.0,4.0,5.0,-14.0,-3.0,9.0,-16.0,-11.0,1.0,0.8967173099517822
246,105.0,-12.0,-22.0,1.0,-4838.0,3619.0,12256.0,9039.0,20.0,22.0,24.0,35.0,82.0,23.0,42.0,20.0,0.8991274833679199
247,237.0,-10.0,-107.0,1.0,-4841.0,3594.0,12279.0,9016.0,20.0,22.0,24.0,35.0,82.0,23.0,42.0,20.0,0.9077184200286865
248,237.0,-10.0,-107.0,1.0,-4841.0,3594.0,12279.0,9016.0,30.0,39.0,-46.0,20.0,-26.0,-23.0,4.0,5.0,0.91593337059021
249,237.0,-10.0,-107.0,1.0,-4841.0,3594.0,12279.0,9016.0,-21.0,0.0,-11.0,-8.0,30.0,-7.0,-19.0,-15.0,0.9182546138763428
250,363.0,25.0,-313.0,1.0,-4838.0,3535.0,12319.0,8987.0,-21.0,0.0,-11.0,-8.0,30.0,-7.0,-19.0,-15.0,0.9316682815551758
251,363.0,25.0,-313.0,1.0,-4838.0,3535.0,12319.0,8987.0,3.0,29.0,69.0,59.0,-25.0,28.0,10.0,-8.0,0.9353859424591064
252,363.0,25.0,-313.0,1.0,-4838.0,3535.0,12319.0,8987.0,5.0,-4.0,-10.0,-17.0,80.0,13.0,11.0,-45.0,0.9399890899658203
253,503.0,3.0,-683.0,1.0,-4805.0,3425.0,12387.0,8954.0,5.0,-4.0,-10.0,-17.0,80.0,13.0,11.0,-45.0,0.9551069736480713
254,503.0,3.0,-683.0,1.0,-4805.0,3425.0,12387.0,8954.0,-5.0,-4.0,81.0,10.0,-34.0,-25.0,-26.0,13.0,0.9591453075408936
255,503.0,3.0,-683.0,1.0,-4805.0,3425.0,12387.0,8954.0,4.0,11.0,-29.0,14.0,60.0,25.0,-17.0,12.0,0.9630401134490967
256,827.0,-54.0,-1069.0,1.0,-4751.0,3260.0,12496.0,8892.0,4.0,11.0,-29.0,14.0,60.0,25.0,-17.0,12.0,0.967998743057251
257,827.0,-54.0,-1069.0,1.0,-4751.0,3260.0,12496.0,8892.0,-6.0,-91.0,-121.0,-70.0,7.0,-16.0,1.0,32.0,0.9759519100189209
258,827.0,-54.0,-1069.0,1.0,-4751.0,3260.0,12496.0,8892.0,68.0,42.0,50.0,-2.0,-43.0,-2.0,39.0,40.0,0.9784400463104248
259,1027.0,-197.0,-1461.0,1.0,-4636.0,3031.0,12641.0,8829.0,68.0,42.0,50.0,-2.0,-43.0,-2.0,39.0,40.0,0.9911844730377197
260,1027.0,-197.0,-1461.0,1.0,-4636.0,3031.0,12641.0,8829.0,-32.0,-1.0,14.0,-4.0,5.0,-11.0,-28.0,-29.0,0.9935288429260254
261,1027.0,-197.0,-1461.0,1.0,-4636.0,3031.0,12641.0,8829.0,-40.0,-38.0,16.0,-17.0,-53.0,-7.0,-27.0,-6.0,1.0062122344970703
262,870.0,-216.0,-1637.0,1.0,-4470.0,2770.0,12781.0,8798.0,-40.0,-38.0,16.0,-17.0,-53.0,-7.0,-27.0,-6.0,1.0152804851531982
263,870.0,-216.0,-1637.0,1.0,-4470.0,2770.0,12781.0,8798.0,31.0,18.0,-21.0,-7.0,-1.0,18.0,27.0,6.0,1.0184476375579834
264,870.0,-216.0,-1637.0,1.0,-4470.0,2770.0,12781.0,8798.0,-30.0,-39.0,-10.0,-17.0,-31.0,-14.0,-10.0,-19.0,1.0207207202911377
265,282.0,-229.0,-1595.0,1.0,-4211.0,2459.0,12838.0,8934.0,-30.0,-39.0,-10.0,-17.0,-31.0,-14.0,-10.0,-19.0,1.0277554988861084
266,282.0,-229.0,-1595.0,1.0,-4211.0,2459.0,12838.0,8934.0,-43.0,-7.0,-3.0,-15.0,27.0,-1.0,-8.0,-26.0,1.036086082458496
267,282.0,-229.0,-1595.0,1.0,-4211.0,2459.0,12838.0,8934.0,24.0,33.0,-14.0,11.0,-14.0,-7.0,-1.0,15.0,1.0383548736572266
268,-391.0,-256.0,-1670.0,1.0,-3974.0,2235.0,12843.0,9092.0,24.0,33.0,-14.0,11.0,-14.0,-7.0,-1.0,15.0,1.0509753227233887
269,-391.0,-256.0,-1670.0,1.0,-3974.0,2235.0,12843.0,9092.0,12.0,9.0,4.0,-3.0,25.0,14.0,0.0,6.0,1.0533130168914795
270,-391.0,-256.0,-1670.0,1.0,-3974.0,2235.0,12843.0,9092.0,3.0,-12.0,-20.0,-9.0,-33.0,-10.0,-2.0,6.0,1.0579116344451904
271,-851.0,-225.0,-1859.0,1.0,-3737.0,2034.0,12811.0,9284.0,3.0,-12.0,-20.0,-9.0,-33.0,-10.0,-2.0,6.0,1.0749740600585938
272,-851.0,-225.0,-1859.0,1.0,-3737.0,2034.0,12811.0,9284.0,-3.0,7.0,32.0,7.0,12.0,3.0,2.0,-6.0,1.0790247917175293
273,-851.0,-225.0,-1859.0,1.0,-3737.0,2034.0,12811.0,9284.0,-31.0,-90.0,-30.0,-2.0,6.0,-1.0,-12.0,-18.0,1.0829212665557861
274,-1382.0,-215.0,-2350.0,1.0,-3437.0,1782.0,12726.0,9564.0,-31.0,-90.0,-30.0,-2.0,6.0,-1.0,-12.0,-18.0,1.0880658626556396
275,-1382.0,-215.0,-2350.0,1.0,-3437.0,1782.0,12726.0,9564.0,11.0,33.0,1.0,8.0,4.0,-12.0,4.0,8.0,1.0961236953735352
276,-1382.0,-215.0,-2350.0,1.0,-3437.0,1782.0,12726.0,9564.0,-1.0,-9.0,7.0,8.0,1.0,8.0,0.0,1.0,1.0989665985107422
277,-1998.0,-410.0,-3196.0,1.0,-3005.0,1455.0,12584.0,9945.0,-1.0,-9.0,7.0,8.0,1.0,8.0,0.0,1.0,1.1107380390167236
278,-1998.0,-410.0,-3196.0,1.0,-3005.0,1455.0,12584.0,9945.0,-13.0,-50.0,-32.0,2.0,-3.0,8.0,0.0,-13.0,1.1131019592285156
279,-1998.0,-410.0,-3196.0,1.0,-3005.0,1455.0,12584.0,9945.0,10.0,30.0,22.0,22.0,3.0,-8.0,-1.0,2.0,1.1180360317230225
280,-2441.0,-692.0,-3995.0,1.0,-2435.0,1060.0,12389.0,10386.0,10.0,30.0,22.0,22.0,3.0,-8.0,-1.0,2.0,1.1339433193206787
281,-2441.0,-692.0,-3995.0,1.0,-2435.0,1060.0,12389.0,10386.0,1.0,17.0,-7.0,-39.0,7.0,13.0,1.0,2.0,1.1363112926483154
282,-2441.0,-692.0,-3995.0,1.0,-2435.0,1060.0,12389.0,10386.0,-37.0,-21.0,-13.0,-5.0,-8.0,-6.0,-7.0,-12.0,1.13859224319458
283,-3078.0,-876.0,-4476.0,1.0,-1771.0,635.0,12094.0,10891.0,-37.0,-21.0,-13.0,-5.0,-8.0,-6.0,-7.0,-12.0,1.1564671993255615
284,-3078.0,-876.0,-4476.0,1.0,-1771.0,635.0,12094.0,10891.0,20.0,-5.0,0.0,28.0,6.0,8.0,-1.0,8.0,1.1590838432312012
285,-3078.0,-876.0,-4476.0,1.0,-1771.0,635.0,12094.0,10891.0,-29.0,-44.0,-19.0,-23.0,-19.0,-2.0,-6.0,-13.0,1.161649465560913
286,-3803.0,-1098.0,-4639.0,1.0,-1046.0,227.0,11670.0,11449.0,-29.0,-44.0,-19.0,-23.0,-19.0,-2.0,-6.0,-13.0,1.1708009243011475
287,-3803.0,-1098.0,-4639.0,1.0,-1046.0,227.0,11670.0,11449.0,22.0,28.0,10.0,2.0,9.0,-3.0,4.0,6.0,1.173128604888916
288,-3803.0,-1098.0,-4639.0,1.0,-1046.0,227.0,11670.0,11449.0,-3.0,23.0,-11.0,-3.0,-2.0,-5.0,-4.0,-4.0,1.1773681640625
289,-4479.0,-1312.0,-4436.0,1.0,-313.0,-123.0,11109.0,12037.0,-3.0,23.0,-11.0,-3.0,-2.0,-5.0,-4.0,-4.0,1.1942365169525146
290,-4479.0,-1312.0,-4436.0,1.0,-313.0,-123.0,11109.0,12037.0,1.0,3.0,8.0,-4.0,5.0,-2.0,1.0,7.0,1.1965854167938232
291,-4479.0,-1312.0,-4436.0,1.0,-313.0,-123.0,11109.0,12037.0,14.0,11.0,12.0,5.0,0.0,-1.0,-2.0,6.0,1.1988427639007568
292,-5174.0,-1332.0,-4143.0,1.0,361.0,-406.0,10429.0,12623.0,14.0,11.0,12.0,5.0,0.0,-1.0,-2.0,6.0,1.2164976596832275
293,-5174.0,-1332.0,-4143.0,1.0,361.0,-406.0,10429.0,12623.0,-14.0,-10.0,-6.0,-24.0,-16.0,-4.0,-4.0,-8.0,1.218839406967163
294,-5174.0,-1332.0,-4143.0,1.0,361.0,-406.0,10429.0,12623.0,1.0,2.0,-3.0,-10.0,-7.0,9.0,1.0,0.0,1.2214481830596924
295,-5626.0,-1163.0,-3815.0,1.0,964.0,-668.0,9648.0,13189.0,1.0,2.0,-3.0,-10.0,-7.0,9.0,1.0,0.0,1.2308530807495117
296,-5626.0,-1163.0,-3815.0,1.0,964.0,-668.0,9648.0,13189.0,-12.0,-4.0,2.0,17.0,11.0,2.0,-3.0,-7.0,1.233288288116455
297,-5626.0,-1163.0,-3815.0,1.0,964.0,-668.0,9648.0,13189.0,11.0,9.0,7.0,-12.0,-1.0,2.0,4.0,7.0,1.2377750873565674
298,-6058.0,-827.0,-3629.0,1.0,1497.0,-961.0,8770.0,13724.0,11.0,9.0,7.0,-12.0,-1.0,2.0,4.0,7.0,1.2539782524108887
299,-6058.0,-827.0,-3629.0,1.0,1497.0,-961.0,8770.0,13724.0,-9.0,-20.0,-6.0,0.0,0.0,-1.0,-4.0,-9.0,1.2607901096343994
300,-6058.0,-827.0,-3629.0,1.0,1497.0,-961.0,8770.0,13724.0,3.0,15.0,13.0,7.0,12.0,0.0,1.0,3.0,1.2630689144134521
301,-6350.0,-341.0,-3608.0,1.0,1973.0,-1326.0,7807.0,14206.0,3.0,15.0,13.0,7.0,12.0,0.0,1.0,3.0,1.2768409252166748
302,-6350.0,-341.0,-3608.0,1.0,1973.0,-1326.0,7807.0,14206.0,5.0,4.0,4.0,0.0,0.0,1.0,7.0,5.0,1.281493902206421
303,-6350.0,-341.0,-3608.0,1.0,1973.0,-1326.0,7807.0,14206.0,-8.0,-2.0,-4.0,-16.0,-18.0,-12.0,3.0,-3.0,1.2872576713562012
304,-6203.0,68.0,-3535.0,1.0,2398.0,-1742.0,6827.0,14595.0,-8.0,-2.0,-4.0,-16.0,-18.0,-12.0,3.0,-3.0,1.2905540466308594
305,-6203.0,68.0,-3535.0,1.0,2398.0,-1742.0,6827.0,14595.0,4.0,-1.0,-1.0,-2.0,-10.0,-8.0,-2.0,2.0,1.2929151058197021
306,-6203.0,68.0,-3535.0,1.0,2398.0,-1742.0,6827.0,14595.0,4.0,0.0,3.0,7.0,17.0,10.0,-1.0,-1.0,1.2979931831359863
307,-5780.0,264.0,-3455.0,1.0,2797.0,-2172.0,5874.0,14878.0,4.0,0.0,3.0,7.0,17.0,10.0,-1.0,-1.0,1.3146953582763672
308,-5780.0,264.0,-3455.0,1.0,2797.0,-2172.0,5874.0,14878.0,0.0,3.0,10.0,26.0,13.0,17.0,-9.0,-4.0,1.3238682746887207
309,-5780.0,264.0,-3455.0,1.0,2797.0,-2172.0,5874.0,14878.0,2.0,2.0,-2.0,-21.0,2.0,9.0,-10.0,-3.0,1.3272831439971924
310,-5244.0,244.0,-3290.0,1.0,3171.0,-2566.0,4982.0,15065.0,2.0,2.0,-2.0,-21.0,2.0,9.0,-10.0,-3.0,1.3365843296051025
311,-5244.0,244.0,-3290.0,1.0,3171.0,-2566.0,4982.0,15065.0,2.0,3.0,-5.0,-13.0,-18.0,21.0,-11.0,3.0,1.3390867710113525
312,-5244.0,244.0,-3290.0,1.0,3171.0,-2566.0,4982.0,15065.0,1.0,1.0,10.0,59.0,35.0,-2.0,-6.0,-2.0,1.3413877487182617
313,-5056.0,201.0,-3083.0,1.0,3507.0,-2926.0,4102.0,15190.0,1.0,1.0,10.0,59.0,35.0,-2.0,-6.0,-2.0,1.3505573272705078
314,-5056.0,201.0,-3083.0,1.0,3507.0,-2926.0,4102.0,15190.0,-7.0,-2.0,6.0,45.0,44.0,24.0,25.0,13.0,1.3583707809448242
315,-5056.0,201.0,-3083.0,1.0,3507.0,-2926.0,4102.0,15190.0,-3.0,-4.0,-8.0,35.0,17.0,-25.0,7.0,-30.0,1.3608992099761963
316,-5040.0,382.0,-2918.0,1.0,3797.0,-3300.0,3208.0,15258.0,-3.0,-4.0,-8.0,35.0,17.0,-25.0,7.0,-30.0,1.3750581741333008
317,-5040.0,382.0,-2918.0,1.0,3797.0,-3300.0,3208.0,15258.0,1.0,-2.0,-13.0,-37.0,12.0,-23.0,-35.0,57.0,1.3802449703216553
318,-5040.0,382.0,-2918.0,1.0,3797.0,-3300.0,3208.0,15258.0,0.0,1.0,-1.0,-42.0,0.0,-29.0,12.0,18.0,1.3850488662719727
319,-4861.0,700.0,-2750.0,1.0,4047.0,-3714.0,2330.0,15258.0,0.0,1.0,-1.0,-42.0,0.0,-29.0,12.0,18.0,1.3966693878173828
320,-4861.0,700.0,-2750.0,1.0,4047.0,-3714.0,2330.0,15258.0,2.0,1.0,-2.0,-26.0,6.0,-1.0,57.0,17.0,1.4007899761199951
321,-4861.0,700.0,-2750.0,1.0,4047.0,-3714.0,2330.0,15258.0,10.0,5.0,11.0,80.0,41.0,8.0,47.0,57.0,1.4049465656280518
322,-4387.0,985.0,-2532.0,1.0,4264.0,-4157.0,1520.0,15187.0,10.0,5.0,11.0,80.0,41.0,8.0,47.0,57.0,1.4109272956848145
323,-4387.0,985.0,-2532.0,1.0,4264.0,-4157.0,1520.0,15187.0,-10.0,-6.0,-12.0,-54.0,36.0,30.0,-2.0,-2.0,1.4185326099395752
324,-4387.0,985.0,-2532.0,1.0,4264.0,-4157.0,1520.0,15187.0,4.0,8.0,18.0,19.0,-54.0,-24.0,-78.0,-58.0,1.4208273887634277
325,-4254.0,1480.0,-2557.0,1.0,4463.0,-4635.0,767.0,15047.0,4.0,8.0,18.0,19.0,-54.0,-24.0,-78.0,-58.0,1.4339556694030762
326,-4254.0,1480.0,-2557.0,1.0,4463.0,-4635.0,767.0,15047.0,6.0,5.0,4.0,26.0,6.0,63.0,-95.0,-35.0,1.4428057670593262
327,-4254.0,1480.0,-2557.0,1.0,4463.0,-4635.0,767.0,15047.0,-5.0,-4.0,-6.0,-67.0,-57.0,-29.0,-50.0,76.0,1.4467861652374268
328,-2177.0,1760.0,-2233.0,1.0,4701.0,-5045.0,382.0,14857.0,-5.0,-4.0,-6.0,-67.0,-57.0,-29.0,-50.0,76.0,1.4640488624572754
329,-2177.0,1760.0,-2233.0,1.0,4701.0,-5045.0,382.0,14857.0,5.0,-2.0,-4.0,0.0,-77.0,58.0,10.0,46.0,1.4680874347686768
330,-2177.0,1760.0,-2233.0,1.0,4701.0,-5045.0,382.0,14857.0,-9.0,-2.0,-6.0,0.0,32.0,52.0,-10.0,3.0,1.472151756286621
331,833.0,1632.0,-1329.0,1.0,4954.0,-5271.0,528.0,14691.0,-9.0,-2.0,-6.0,0.0,32.0,52.0,-10.0,3.0,1.4767522811889648
332,833.0,1632.0,-1329.0,1.0,4954.0,-5271.0,528.0,14691.0,-18.0,0.0,9.0,6.0,38.0,-81.0,-3.0,-73.0,1.479949712753296
333,833.0,1632.0,-1329.0,1.0,4954.0,-5271.0,528.0,14691.0,-2.0,3.0,4.0,6.0,46.0,94.0,90.0,27.0,1.4824259281158447
334,3152.0,1235.0,-337.0,1.0,5179.0,-5297.0,1080.0,14573.0,-2.0,3.0,4.0,6.0,46.0,94.0,90.0,27.0,1.4938271045684814
335,3152.0,1235.0,-337.0,1.0,5179.0,-5297.0,1080.0,14573.0,-7.0,-2.0,0.0,7.0,-81.0,-69.0,-67.0,-48.0,1.4961776733398438
336,3152.0,1235.0,-337.0,1.0,5179.0,-5297.0,1080.0,14573.0,20.0,5.0,-8.0,-41.0,-9.0,-40.0,-25.0,0.0,1.4984445571899414
337,4161.0,1208.0,1126.0,1.0,5220.0,-5234.0,1872.0,14501.0,20.0,5.0,-8.0,-41.0,-9.0,-40.0,-25.0,0.0,1.516404151916504
338,4161.0,1208.0,1126.0,1.0,5220.0,-5234.0,1872.0,14501.0,-11.0,18.0,31.0,25.0,28.0,30.0,14.0,-66.0,1.5187242031097412
339,4161.0,1208.0,1126.0,1.0,5220.0,-5234.0,1872.0,14501.0,1.0,-9.0,-18.0,-4.0,-24.0,-9.0,-42.0,-18.0,1.5214695930480957
340,5024.0,1292.0,3450.0,1.0,4923.0,-5071.0,2931.0,14487.0,1.0,-9.0,-18.0,-4.0,-24.0,-9.0,-42.0,-18.0,1.530193567276001
341,5024.0,1292.0,3450.0,1.0,4923.0,-5071.0,2931.0,14487.0,-9.0,-5.0,4.0,10.0,23.0,-46.0,2.0,-6.0,1.5385854244232178
342,5024.0,1292.0,3450.0,1.0,4923.0,-5071.0,2931.0,14487.0,11.0,19.0,27.0,53.0,34.0,14.0,-59.0,-44.0,1.5412256717681885
343,6494.0,1744.0,5519.0,1.0,4335.0,-4800.0,4337.0,14415.0,11.0,19.0,27.0,53.0,34.0,14.0,-59.0,-44.0,1.5554580688476562
344,6494.0,1744.0,5519.0,1.0,4335.0,-4800.0,4337.0,14415.0,4.0,-2.0,-16.0,-13.0,-30.0,-19.0,10.0,44.0,1.5601534843444824
345,6494.0,1744.0,5519.0,1.0,4335.0,-4800.0,4337.0,14415.0,-15.0,-19.0,-16.0,-67.0,-109.0,-71.0,78.0,7.0,1.5646181106567383
346,8223.0,2062.0,7006.0,1.0,3540.0,-4372.0,6051.0,14148.0,-15.0,-19.0,-16.0,-67.0,-109.0,-71.0,78.0,7.0,1.5770070552825928
347,8223.0,2062.0,7006.0,1.0,3540.0,-4372.0,6051.0,14148.0,-9.0,-20.0,-18.0,-21.0,15.0,-20.0,59.0,36.0,1.5813350677490234
348,8223.0,2062.0,7006.0,1.0,3540.0,-4372.0,6051.0,14148.0,-21.0,-9.0,-9.0,62.0,-67.0,-65.0,-27.0,0.0,1.5854780673980713
349,7834.0,3115.0,8767.0,1.0,2335.0,-3937.0,7731.0,13700.0,-21.0,-9.0,-9.0,62.0,-67.0,-65.0,-27.0,0.0,1.5906157493591309
350,7834.0,3115.0,8767.0,1.0,2335.0,-3937.0,7731.0,13700.0,-24.0,-32.0,-7.0,55.0,53.0,-97.0,52.0,-29.0,1.6087346076965332
351,7834.0,3115.0,8767.0,1.0,2335.0,-3937.0,7731.0,13700.0,61.0,96.0,82.0,21.0,11.0,75.0,82.0,2.0,1.6131784915924072
352,6114.0,3709.0,10109.0,1.0,767.0,-3452.0,9090.0,13163.0,61.0,96.0,82.0,21.0,11.0,75.0,82.0,2.0,1.615541696548462
353,6114.0,3709.0,10109.0,1.0,767.0,-3452.0,9090.0,13163.0,71.0,58.0,62.0,-52.0,-48.0,-21.0,34.0,10.0,1.6178905963897705
354,6114.0,3709.0,10109.0,1.0,767.0,-3452.0,9090.0,13163.0,71.0,58.0,62.0,-52.0,-48.0,-21.0,34.0,10.0,1.6202669143676758
355,6114.0,3709.0,10109.0,1.0,767.0,-3452.0,9090.0,13163.0,19.0,-85.0,36.0,-68.0,42.0,29.0,-17.0,6.0,1.6382777690887451
356,5326.0,3293.0,10105.0,1.0,-804.0,-2854.0,10178.0,12491.0,19.0,-85.0,36.0,-68.0,42.0,29.0,-17.0,6.0,1.6427757740020752
357,5326.0,3293.0,10105.0,1.0,-804.0,-2854.0,10178.0,12491.0,7.0,-28.0,-101.0,9.0,59.0,-38.0,-10.0,-58.0,1.647157907485962
358,5326.0,3293.0,10105.0,1.0,-804.0,-2854.0,10178.0,12491.0,-38.0,87.0,28.0,20.0,30.0,34.0,6.0,-45.0,1.650458812713623
359,5302.0,2506.0,10464.0,1.0,-2323.0,-2063.0,11110.0,11634.0,-38.0,87.0,28.0,20.0,30.0,34.0,6.0,-45.0,1.6528797149658203
360,5302.0,2506.0,10464.0,1.0,-2323.0,-2063.0,11110.0,11634.0,34.0,-29.0,-61.0,-94.0,49.0,31.0,94.0,100.0,1.6582212448120117
361,5302.0,2506.0,10464.0,1.0,-2323.0,-2063.0,11110.0,11634.0,67.0,-48.0,-128.0,-14.0,1.0,60.0,-5.0,16.0,1.6604938507080078
362,4728.0,2356.0,7433.0,1.0,-3429.0,-1573.0,11759.0,10766.0,67.0,-48.0,-128.0,-14.0,1.0,60.0,-5.0,16.0,1.6748857498168945
363,4728.0,2356.0,7433.0,1.0,-3429.0,-1573.0,11759.0,10766.0,-124.0,-11.0,-22.0,70.0,39.0,55.0,-45.0,-65.0,1.6790120601654053
364,4728.0,2356.0,7433.0,1.0,-3429.0,-1573.0,11759.0,10766.0,93.0,97.0,23.0,86.0,-86.0,-40.0,-66.0,123.0,1.682950496673584
365,3712.0,-96.0,1180.0,1.0,-3489.0,-1548.0,12208.0,10238.0,93.0,97.0,23.0,86.0,-86.0,-40.0,-66.0,123.0,1.6962158679962158
366,3712.0,-96.0,1180.0,1.0,-3489.0,-1548.0,12208.0,10238.0,15.0,-45.0,-32.0,-29.0,16.0,107.0,50.0,34.0,1.700986623764038
367,3712.0,-96.0,1180.0,1.0,-3489.0,-1548.0,12208.0,10238.0,13.0,-80.0,-11.0,-123.0,-5.0,24.0,-27.0,-68.0,1.7052438259124756
368,1750.0,-566.0,2533.0,1.0,-3662.0,-1220.0,12441.0,9937.0,13.0,-80.0,-11.0,-123.0,-5.0,24.0,-27.0,-68.0,1.710648536682129
369,1750.0,-566.0,2533.0,1.0,-3662.0,-1220.0,12441.0,9937.0,77.0,-24.0,71.0,80.0,-66.0,-8.0,-46.0,20.0,1.7187371253967285
370,1750.0,-566.0,2533.0,1.0,-3662.0,-1220.0,12441.0,9937.0,-81.0,-22.0,-23.0,-59.0,-40.0,-35.0,99.0,-124.0,1.721010684967041
371,210.0,-32.0,2991.0,1.0,-3977.0,-819.0,12498.0,9784.0,-81.0,-22.0,-23.0,-59.0,-40.0,-35.0,99.0,-124.0,1.7362806797027588
372,210.0,-32.0,2991.0,1.0,-3977.0,-819.0,12498.0,9784.0,66.0,85.0,-43.0,88.0,111.0,100.0,54.0,3.0,1.7410807609558105
373,210.0,-32.0,2991.0,1.0,-3977.0,-819.0,12498.0,9784.0,-128.0,-97.0,-99.0,90.0,51.0,66.0,-3.0,64.0,1.7450635433197021
374,941.0,158.0,2364.0,1.0,-4240.0,-567.0,12578.0,9587.0,-128.0,-97.0,-99.0,90.0,51.0,66.0,-3.0,64.0,1.7569870948791504
375,941.0,158.0,2364.0,1.0,-4240.0,-567.0,12578.0,9587.0,90.0,35.0,15.0,73.0,-115.0,-116.0,-128.0,5.0,1.7613019943237305
376,941.0,158.0,2364.0,1.0,-4240.0,-567.0,12578.0,9587.0,90.0,35.0,15.0,73.0,-115.0,-116.0,-128.0,5.0,1.766700029373169
377,941.0,158.0,2364.0,1.0,-4240.0,-567.0,12578.0,9587.0,-74.0,-8.0,6.0,-8.0,127.0,-54.0,79.0,-98.0,1.7702019214630127
378,1662.0,431.0,1938.0,1.0,-4482.0,-437.0,12722.0,9289.0,-74.0,-8.0,6.0,-8.0,127.0,-54.0,79.0,-98.0,1.7725834846496582
379,1662.0,431.0,1938.0,1.0,-4482.0,-437.0,12722.0,9289.0,-53.0,-7.0,69.0,51.0,74.0,-98.0,23.0,32.0,1.778620719909668
380,1662.0,431.0,1938.0,1.0,-4482.0,-437.0,12722.0,9289.0,6.0,-65.0,-47.0,-87.0,-82.0,-31.0,83.0,41.0,1.7808747291564941
381,887.0,487.0,1246.0,1.0,-4677.0,-366.0,12760.0,9142.0,6.0,-65.0,-47.0,-87.0,-82.0,-31.0,83.0,41.0,1.794679880142212
382,887.0,487.0,1246.0,1.0,-4677.0,-366.0,12760.0,9142.0,-89.0,-29.0,-43.0,-128.0,-128.0,-111.0,-81.0,-128.0,1.797703504562378
383,887.0,487.0,1246.0,1.0,-4677.0,-366.0,12760.0,9142.0,35.0,52.0,-3.0,-67.0,-48.0,-68.0,-12.0,17.0,1.8001222610473633
384,-81.0,295.0,993.0,1.0,-4784.0,-278.0,12752.0,9102.0,35.0,52.0,-3.0,-67.0,-48.0,-68.0,-12.0,17.0,1.8164963722229004
385,-81.0,295.0,993.0,1.0,-4784.0,-278.0,12752.0,9102.0,0.0,11.0,57.0,42.0,20.0,60.0,37.0,29.0,1.8188824653625488
386,-81.0,295.0,993.0,1.0,-4784.0,-278.0,12752.0,9102.0,-11.0,-61.0,102.0,127.0,127.0,55.0,9.0,14.0,1.8212366104125977
387,229.0,187.0,771.0,1.0,-4920.0,-187.0,12734.0,9056.0,-11.0,-61.0,102.0,127.0,127.0,55.0,9.0,14.0,1.830594539642334
388,229.0,187.0,771.0,1.0,-4920.0,-187.0,12734.0,9056.0,72.0,36.0,86.0,-43.0,102.0,115.0,7.0,-22.0,1.8382978439331055
389,229.0,187.0,771.0,1.0,-4920.0,-187.0,12734.0,9056.0,103.0,80.0,108.0,78.0,115.0,-6.0,-56.0,51.0,1.840590000152588
390,754.0,294.0,-84.0,1.0,-4944.0,-276.0,12789.0,8964.0,103.0,80.0,108.0,78.0,115.0,-6.0,-56.0,51.0,1.8552658557891846
391,754.0,294.0,-84.0,1.0,-4944.0,-276.0,12789.0,8964.0,-52.0,-47.0,-24.0,45.0,82.0,49.0,7.0,59.0,1.8610506057739258
392,754.0,294.0,-84.0,1.0,-4944.0,-276.0,12789.0,8964.0,-54.0,-31.0,-43.0,39.0,74.0,54.0,35.0,-78.0,1.8657352924346924
393,339.0,159.0,-385.0,1.0,-4902.0,-374.0,12836.0,8915.0,-54.0,-31.0,-43.0,39.0,74.0,54.0,35.0,-78.0,1.8770320415496826
394,339.0,159.0,-385.0,1.0,-4902.0,-374.0,12836.0,8915.0,-3.0,50.0,28.0,-85.0,-93.0,20.0,-21.0,-38.0,1.8811695575714111
395,339.0,159.0,-385.0,1.0,-4902.0,-374.0,12836.0,8915.0,-22.0,14.0,-42.0,-2.0,44.0,1.0,81.0,-15.0,1.8853013515472412
396,12.0,64.0,-300.0,1.0,-4866.0,-423.0,12862.0,8896.0,-22.0,14.0,-42.0,-2.0,44.0,1.0,81.0,-15.0,1.890753984451294
397,12.0,64.0,-300.0,1.0,-4866.0,-423.0,12862.0,8896.0,-14.0,-93.0,-92.0,23.0,58.0,-20.0,-26.0,15.0,1.898005485534668
398,12.0,64.0,-300.0,1.0,-4866.0,-423.0,12862.0,8896.0,26.0,39.0,-15.0,-30.0,56.0,64.0,39.0,43.0,1.9002783298492432
399,21.0,277.0,-248.0,1.0,-4867.0,-486.0,12869.0,8881.0,26.0,39.0,-15.0,-30.0,56.0,64.0,39.0,43.0,1.914353609085083
400,21.0,277.0,-248.0,1.0,-4867.0,-486.0,12869.0,8881.0,3.0,2.0,-81.0,-13.0,20.0,-25.0,-41.0,69.0,1.9193696975708008
401,21.0,277.0,-248.0,1.0,-4867.0,-486.0,12869.0,8881.0,-50.0,-53.0,-28.0,-67.0,70.0,-18.0,43.0,34.0,1.9241368770599365
402,-142.0,308.0,-46.0,1.0,-4889.0,-523.0,12854.0,8890.0,-50.0,-53.0,-28.0,-67.0,70.0,-18.0,43.0,34.0,1.9371867179870605
403,-142.0,308.0,-46.0,1.0,-4889.0,-523.0,12854.0,8890.0,-27.0,-29.0,104.0,-61.0,19.0,21.0,2.0,72.0,1.9421534538269043
404,-142.0,308.0,-46.0,1.0,-4889.0,-523.0,12854.0,8890.0,81.0,51.0,-49.0,-21.0,-107.0,-61.0,-85.0,127.0,1.9469587802886963
405,-323.0,-51.0,19.0,1.0,-4882.0,-499.0,12831.0,8927.0,81.0,51.0,-49.0,-21.0,-107.0,-61.0,-85.0,127.0,1.9503200054168701
406,-323.0,-51.0,19.0,1.0,-4882.0,-499.0,12831.0,8927.0,-12.0,-29.0,-47.0,13.0,-33.0,34.0,-7.0,-71.0,1.958998441696167
407,-323.0,-51.0,19.0,1.0,-4882.0,-499.0,12831.0,8927.0,-41.0,-69.0,-40.0,-46.0,-35.0,6.0,-9.0,-38.0,1.9613215923309326
408,-147.0,118.0,109.0,1.0,-4902.0,-488.0,12824.0,8927.0,-41.0,-69.0,-40.0,-46.0,-35.0,6.0,-9.0,-38.0,1.9728190898895264
409,-147.0,118.0,109.0,1.0,-4902.0,-488.0,12824.0,8927.0,38.0,122.0,56.0,67.0,0.0,2.0,7.0,6.0,1.980863332748413
410,-147.0,118.0,109.0,1.0,-4902.0,-488.0,12824.0,8927.0,-20.0,-26.0,40.0,-39.0,-45.0,-48.0,-56.0,-35.0,1.9831318855285645
411,-83.0,168.0,87.0,1.0,-4931.0,-485.0,12821.0,8916.0,-20.0,-26.0,40.0,-39.0,-45.0,-48.0,-56.0,-35.0,1.9971649646759033
412,-83.0,168.0,87.0,1.0,-4931.0,-485.0,12821.0,8916.0,22.0,27.0,94.0,45.0,58.0,10.0,41.0,-43.0,2.002121686935425
413,-83.0,168.0,87.0,1.0,-4931.0,-485.0,12821.0,8916.0,-7.0,-3.0,-24.0,32.0,25.0,2.0,-128.0,-10.0,2.006903648376465
414,-88.0,-29.0,77.0,1.0,-4941.0,-460.0,12816.0,8919.0,-7.0,-3.0,-24.0,32.0,25.0,2.0,-128.0,-10.0,2.0103487968444824
415,-88.0,-29.0,77.0,1.0,-4941.0,-460.0,12816.0,8919.0,-12.0,63.0,28.0,15.0,-1.0,-38.0,-56.0,-69.0,2.018587112426758
416,-88.0,-29.0,77.0,1.0,-4941.0,-460.0,12816.0,8919.0,7.0,35.0,39.0,-4.0,73.0,12.0,-56.0,-57.0,2.021348476409912
417,27.0,-81.0,18.0,1.0,-4946.0,-437.0,12825.0,8904.0,7.0,35.0,39.0,-4.0,73.0,12.0,-56.0,-57.0,2.034323215484619
418,27.0,-81.0,18.0,1.0,-4946.0,-437.0,12825.0,8904.0,-27.0,-63.0,-126.0,-3.0,100.0,38.0,-56.0,16.0,2.038635730743408
419,27.0,-81.0,18.0,1.0,-4946.0,-437.0,12825.0,8904.0,11.0,35.0,-102.0,17.0,52.0,33.0,-26.0,-14.0,2.04282808303833
420,95.0,13.0,9.0,1.0,-4945.0,-444.0,12836.0,8889.0,11.0,35.0,-102.0,17.0,52.0,33.0,-26.0,-14.0,2.056490898132324
421,95.0,13.0,9.0,1.0,-4945.0,-444.0,12836.0,8889.0,39.0,46.0,12.0,-20.0,-3.0,44.0,105.0,55.0,2.0607855319976807
422,95.0,13.0,9.0,1.0,-4945.0,-444.0,12836.0,8889.0,5.0,-2.0,111.0,40.0,15.0,-9.0,60.0,11.0,2.064934253692627
423,3.0,-3.0,9.0,1.0,-4945.0,-444.0,12837.0,8888.0,5.0,-2.0,111.0,40.0,15.0,-9.0,60.0,11.0,2.070842742919922
424,3.0,-3.0,9.0,1.0,-4945.0,-444.0,12837.0,8888.0,-29.0,-19.0,-13.0,8.0,-114.0,-43.0,35.0,-18.0,2.07891845703125
425,3.0,-3.0,9.0,1.0,-4945.0,-444.0,12837.0,8888.0,11.0,29.0,30.0,18.0,-75.0,2.0,8.0,39.0,2.0814881324768066
426,-14.0,-52.0,33.0,1.0,-4944.0,-431.0,12838.0,8888.0,11.0,29.0,30.0,18.0,-75.0,2.0,8.0,39.0,2.095505952835083
427,-14.0,-52.0,33.0,1.0,-4944.0,-431.0,12838.0,8888.0,-7.0,36.0,13.0,15.0,56.0,36.0,68.0,55.0,2.1001384258270264
428,-14.0,-52.0,33.0,1.0,-4944.0,-431.0,12838.0,8888.0,-7.0,2.0,9.0,16.0,-128.0,-31.0,-34.0,-22.0,2.104619264602661
429,13.0,-29.0,78.0,1.0,-4942.0,-422.0,12842.0,8883.0,-7.0,2.0,9.0,16.0,-128.0,-31.0,-34.0,-22.0,2.1176791191101074
430,13.0,-29.0,78.0,1.0,-4942.0,-422.0,12842.0,8883.0,-21.0,-75.0,-72.0,-2.0,8.0,2.0,44.0,-12.0,2.121997594833374
431,13.0,-29.0,78.0,1.0,-4942.0,-422.0,12842.0,8883.0,9.0,-17.0,36.0,-19.0,-35.0,-24.0,33.0,42.0,2.12628173828125
432,-52.0,28.0,58.0,1.0,-4947.0,-417.0,12838.0,8886.0,9.0,-17.0,36.0,-19.0,-35.0,-24.0,33.0,42.0,2.1388497352600098
433,-52.0,28.0,58.0,1.0,-4947.0,-417.0,12838.0,8886.0,-18.0,-79.0,-4.0,3.0,-44.0,-13.0,-13.0,39.0,2.1411705017089844
434,-52.0,28.0,58.0,1.0,-4947.0,-417.0,12838.0,8886.0,54.0,81.0,72.0,-69.0,89.0,-1.0,-29.0,-17.0,2.1436049938201904
435,-95.0,59.0,94.0,1.0,-4962.0,-405.0,12831.0,8889.0,54.0,81.0,72.0,-69.0,89.0,-1.0,-29.0,-17.0,2.1532440185546875
436,-95.0,59.0,94.0,1.0,-4962.0,-405.0,12831.0,8889.0,-18.0,-16.0,66.0,30.0,17.0,-16.0,-69.0,-66.0,2.1555583477020264
437,-95.0,59.0,94.0,1.0,-4962.0,-405.0,12831.0,8889.0,-17.0,0.0,5.0,-20.0,-68.0,-18.0,30.0,-30.0,2.160393714904785
438,-36.0,73.0,106.0,1.0,-4979.0,-395.0,12829.0,8881.0,-17.0,0.0,5.0,-20.0,-68.0,-18.0,30.0,-30.0,2.176778793334961
439,-36.0,73.0,106.0,1.0,-4979.0,-395.0,12829.0,8881.0,-10.0,-37.0,-35.0,-46.0,-2.0,11.0,32.0,-5.0,2.1796703338623047
440,-36.0,73.0,106.0,1.0,-4979.0,-395.0,12829.0,8881.0,21.0,-25.0,-82.0,27.0,-50.0,-28.0,-56.0,-14.0,2.181950569152832
441,8.0,87.0,64.0,1.0,-4993.0,-398.0,12827.0,8876.0,21.0,-25.0,-82.0,27.0,-50.0,-28.0,-56.0,-14.0,2.198974609375
442,8.0,87.0,64.0,1.0,-4993.0,-398.0,12827.0,8876.0,-25.0,-2.0,12.0,-36.0,-106.0,-50.0,-17.0,31.0,2.201300859451294
443,8.0,87.0,64.0,1.0,-4993.0,-398.0,12827.0,8876.0,43.0,33.0,47.0,-19.0,89.0,-22.0,-69.0,13.0,2.203585624694824
444,-72.0,104.0,56.0,1.0,-4999.0,-407.0,12820.0,8883.0,43.0,33.0,47.0,-19.0,89.0,-22.0,-69.0,13.0,2.214029312133789
445,-72.0,104.0,56.0,1.0,-4999.0,-407.0,12820.0,8883.0,-13.0,-61.0,-77.0,64.0,117.0,6.0,-128.0,-49.0,2.2163808345794678
446,-72.0,104.0,56.0,1.0,-4999.0,-407.0,12820.0,8883.0,-38.0,-32.0,-32.0,-6.0,-59.0,-70.0,-62.0,-37.0,2.2186262607574463
447,-110.0,159.0,22.0,1.0,-5016.0,-417.0,12808.0,8890.0,-38.0,-32.0,-32.0,-6.0,-59.0,-70.0,-62.0,-37.0,2.2365012168884277
448,-110.0,159.0,22.0,1.0,-5016.0,-417.0,12808.0,8890.0,34.0,46.0,27.0,-10.0,-31.0,-9.0,69.0,-3.0,2.2392399311065674
449,-110.0,159.0,22.0,1.0,-5016.0,-417.0,12808.0,8890.0,6.0,12.0,-49.0,-5.0,-27.0,2.0,-26.0,3.0,2.24189829826355
450,-29.0,164.0,31.0,1.0,-5028.0,-436.0,12802.0,8891.0,6.0,12.0,-49.0,-5.0,-27.0,2.0,-26.0,3.0,2.258967399597168
451,-29.0,164.0,31.0,1.0,-5028.0,-436.0,12802.0,8891.0,-19.0,-4.0,16.0,-17.0,-128.0,1.0,125.0,29.0,2.2613658905029297
452,-29.0,164.0,31.0,1.0,-5028.0,-436.0,12802.0,8891.0,-19.0,-4.0,16.0,-17.0,-128.0,1.0,125.0,29.0,2.2636382579803467
453,-29.0,164.0,31.0,1.0,-5028.0,-436.0,12802.0,8891.0,33.0,19.0,91.0,76.0,87.0,46.0,26.0,27.0,2.273977041244507
454,-34.0,99.0,34.0,1.0,-5035.0,-446.0,12798.0,8892.0,33.0,19.0,91.0,76.0,87.0,46.0,26.0,27.0,2.2763938903808594
455,-34.0,99.0,34.0,1.0,-5035.0,-446.0,12798.0,8892.0,23.0,50.0,94.0,-19.0,106.0,40.0,17.0,32.0,2.278794288635254
456,-34.0,99.0,34.0,1.0,-5035.0,-446.0,12798.0,8892.0,-46.0,-36.0,36.0,-7.0,94.0,60.0,101.0,28.0,2.281078815460205
457,-43.0,26.0,50.0,1.0,-5033.0,-446.0,12799.0,8892.0,-46.0,-36.0,36.0,-7.0,94.0,60.0,101.0,28.0,2.2965619564056396
458,-43.0,26.0,50.0,1.0,-5033.0,-446.0,12799.0,8892.0,22.0,-12.0,-53.0,-8.0,107.0,-10.0,63.0,15.0,2.298973798751831
459,-43.0,26.0,50.0,1.0,-5033.0,-446.0,12799.0,8892.0,-66.0,-31.0,-4.0,1.0,46.0,17.0,-65.0,-62.0,2.30169939994812
460,-54.0,-31.0,35.0,1.0,-5025.0,-439.0,12803.0,8892.0,-66.0,-31.0,-4.0,1.0,46.0,17.0,-65.0,-62.0,2.319016933441162
461,-54.0,-31.0,35.0,1.0,-5025.0,-439.0,12803.0,8892.0,31.0,71.0,33.0,-47.0,25.0,-3.0,-48.0,4.0,2.321411609649658
462,-54.0,-31.0,35.0,1.0,-5025.0,-439.0,12803.0,8892.0,-32.0,-36.0,-15.0,30.0,-45.0,-5.0,-20.0,-36.0,2.323716640472412
463,-29.0,-26.0,-16.0,1.0,-5013.0,-439.0,12808.0,8892.0,-32.0,-36.0,-15.0,30.0,-45.0,-5.0,-20.0,-36.0,2.3335533142089844
464,-29.0,-26.0,-16.0,1.0,-5013.0,-439.0,12808.0,8892.0,-9.0,-15.0,-33.0,-46.0,-25.0,-2.0,-33.0,-31.0,2.340832471847534
465,-29.0,-26.0,-16.0,1.0,-5013.0,-439.0,12808.0,8892.0,-1.0,-29.0,-31.0,13.0,8.0,17.0,61.0,-21.0,2.3431053161621094
466,-35.0,-40.0,-48.0,1.0,-4992.0,-445.0,12817.0,8890.0,-1.0,-29.0,-31.0,13.0,8.0,17.0,61.0,-21.0,2.3562710285186768
467,-35.0,-40.0,-48.0,1.0,-4992.0,-445.0,12817.0,8890.0,48.0,86.0,108.0,-3.0,36.0,-14.0,-96.0,38.0,2.3586173057556152
468,-35.0,-40.0,-48.0,1.0,-4992.0,-445.0,12817.0,8890.0,4.0,4.0,-46.0,-36.0,-122.0,-63.0,-18.0,67.0,2.3609299659729004
469,-39.0,-51.0,-59.0,1.0,-4974.0,-448.0,12822.0,8893.0,4.0,4.0,-46.0,-36.0,-122.0,-63.0,-18.0,67.0,2.379040241241455
470,-39.0,-51.0,-59.0,1.0,-4974.0,-448.0,12822.0,8893.0,-23.0,-40.0,-34.0,-32.0,-59.0,-20.0,4.0,-9.0,2.3813962936401367
471,-39.0,-51.0,-59.0,1.0,-4974.0,-448.0,12822.0,8893.0,-9.0,-13.0,-69.0,-67.0,35.0,12.0,2.0,-19.0,2.3837008476257324
472,-22.0,-70.0,-68.0,1.0,-4956.0,-449.0,12827.0,8895.0,-9.0,-13.0,-69.0,-67.0,35.0,12.0,2.0,-19.0,2.393333911895752
473,-22.0,-70.0,-68.0,1.0,-4956.0,-449.0,12827.0,8895.0,-6.0,14.0,46.0,-14.0,-26.0,-45.0,-18.0,6.0,2.3961093425750732
474,-22.0,-70.0,-68.0,1.0,-4956.0,-449.0,12827.0,8895.0,13.0,26.0,40.0,52.0,69.0,-1.0,-35.0,6.0,2.4001049995422363
475,33.0,-26.0,-79.0,1.0,-4944.0,-458.0,12834.0,8892.0,13.0,26.0,40.0,52.0,69.0,-1.0,-35.0,6.0,2.4163520336151123
476,33.0,-26.0,-79.0,1.0,-4944.0,-458.0,12834.0,8892.0,-1.0,-21.0,-31.0,17.0,-93.0,5.0,-18.0,5.0,2.418712854385376
477,33.0,-26.0,-79.0,1.0,-4944.0,-458.0,12834.0,8892.0,15.0,-11.0,23.0,-5.0,30.0,47.0,22.0,33.0,2.421013116836548
478,19.0,-35.0,-70.0,1.0,-4927.0,-469.0,12841.0,8890.0,15.0,-11.0,23.0,-5.0,30.0,47.0,22.0,33.0,2.43878436088562
479,19.0,-35.0,-70.0,1.0,-4927.0,-469.0,12841.0,8890.0,26.0,24.0,-16.0,21.0,34.0,30.0,-14.0,86.0,2.4411559104919434
480,19.0,-35.0,-70.0,1.0,-4927.0,-469.0,12841.0,8890.0,-22.0,-24.0,-36.0,-28.0,-41.0,-52.0,-46.0,-22.0,2.44342041015625
481,-53.0,-28.0,-40.0,1.0,-4913.0,-473.0,12840.0,8900.0,-22.0,-24.0,-36.0,-28.0,-41.0,-52.0,-46.0,-22.0,2.453403949737549
482,-53.0,-28.0,-40.0,1.0,-4913.0,-473.0,12840.0,8900.0,-11.0,-2.0,-45.0,-21.0,-47.0,-34.0,4.0,-36.0,2.455801248550415
483,-53.0,-28.0,-40.0,1.0,-4913.0,-473.0,12840.0,8900.0,17.0,55.0,58.0,-26.0,110.0,74.0,70.0,18.0,2.46067214012146
484,-58.0,9.0,-28.0,1.0,-4907.0,-479.0,12835.0,8909.0,17.0,55.0,58.0,-26.0,110.0,74.0,70.0,18.0,2.475707769393921
485,-58.0,9.0,-28.0,1.0,-4907.0,-479.0,12835.0,8909.0,-28.0,32.0,61.0,34.0,-40.0,16.0,25.0,-28.0,2.483776569366455
486,-58.0,9.0,-28.0,1.0,-4907.0,-479.0,12835.0,8909.0,-25.0,-10.0,9.0,6.0,0.0,-33.0,24.0,-40.0,2.486304998397827
487,-7.0,33.0,-35.0,1.0,-4903.0,-490.0,12835.0,8910.0,-25.0,-10.0,9.0,6.0,0.0,-33.0,24.0,-40.0,2.4989233016967773
488,-7.0,33.0,-35.0,1.0,-4903.0,-490.0,12835.0,8910.0,11.0,-10.0,-9.0,48.0,16.0,42.0,71.0,29.0,2.5012736320495605
489,-7.0,33.0,-35.0,1.0,-4903.0,-490.0,12835.0,8910.0,6.0,0.0,-60.0,-38.0,-38.0,-25.0,0.0,-2.0,2.503575086593628
490,-15.0,31.0,3.0,1.0,-4903.0,-495.0,12834.0,8912.0,6.0,0.0,-60.0,-38.0,-38.0,-25.0,0.0,-2.0,2.5131754875183105
491,-15.0,31.0,3.0,1.0,-4903.0,-495.0,12834.0,8912.0,13.0,-22.0,-18.0,5.0,127.0,-5.0,11.0,23.0,2.5155465602874756
492,-15.0,31.0,3.0,1.0,-4903.0,-495.0,12834.0,8912.0,-6.0,-7.0,44.0,12.0,55.0,16.0,96.0,26.0,2.5203568935394287
493,-12.0,21.0,-3.0,1.0,-4902.0,-499.0,12834.0,8912.0,-6.0,-7.0,44.0,12.0,55.0,16.0,96.0,26.0,2.5361835956573486
494,-12.0,21.0,-3.0,1.0,-4902.0,-499.0,12834.0,8912.0,6.0,5.0,-81.0,-50.0,-105.0,-13.0,-81.0,-43.0,2.538606643676758
495,-12.0,21.0,-3.0,1.0,-4902.0,-499.0,12834.0,8912.0,-8.0,22.0,30.0,60.0,-64.0,-90.0,-116.0,-23.0,2.5423755645751953
496,-17.0,54.0,-11.0,1.0,-4908.0,-506.0,12830.0,8915.0,-8.0,22.0,30.0,60.0,-64.0,-90.0,-116.0,-23.0,2.559415817260742
497,-17.0,54.0,-11.0,1.0,-4908.0,-506.0,12830.0,8915.0,-5.0,-17.0,50.0,31.0,111.0,55.0,15.0,-24.0,2.5619635581970215
498,-17.0,54.0,-11.0,1.0,-4908.0,-506.0,12830.0,8915.0,10.0,34.0,44.0,34.0,44.0,29.0,43.0,18.0,2.5642788410186768
499,-81.0,46.0,8.0,1.0,-4906.0,-511.0,12822.0,8926.0,10.0,34.0,44.0,34.0,44.0,29.0,43.0,18.0,2.5732483863830566
