,Gyro 0,Gyro 1,Gyro 2,Label,Orientation 0,Orientation 1,Orientation 2,Orientation 3,Sensor 0,Sensor 1,Sensor 2,Sensor 3,Sensor 4,Sensor 5,Sensor 6,Sensor 7,Timestamp
0,11.0,19.0,25.0,1.0,-8232.0,-12956.0,1794.0,-5443.0,6.0,13.0,-3.0,-14.0,4.0,3.0,4.0,4.0,1.9073486328125e-06
1,11.0,19.0,25.0,1.0,-8232.0,-12956.0,1794.0,-5443.0,0.0,11.0,6.0,-9.0,-27.0,-1.0,-13.0,-2.0,0.002064943313598633
2,11.0,19.0,25.0,1.0,-8232.0,-12956.0,1794.0,-5443.0,3.0,5.0,6.0,5.0,-2.0,-1.0,-14.0,0.0,0.0038487911224365234
3,13.0,16.0,24.0,1.0,-8229.0,-12957.0,1793.0,-5444.0,3.0,5.0,6.0,5.0,-2.0,-1.0,-14.0,0.0,0.006289005279541016
4,6.0,10.0,22.0,1.0,-8228.0,-12958.0,1793.0,-5444.0,3.0,5.0,6.0,5.0,-2.0,-1.0,-14.0,0.0,0.008720874786376953
5,6.0,10.0,22.0,1.0,-8228.0,-12958.0,1793.0,-5444.0,1.0,-2.0,1.0,4.0,2.0,-2.0,3.0,7.0,0.010599136352539062
6,6.0,10.0,22.0,1.0,-8228.0,-12958.0,1793.0,-5444.0,-4.0,-5.0,-3.0,3.0,4.0,-3.0,-4.0,4.0,0.012344121932983398
7,1.0,5.0,20.0,1.0,-8227.0,-12958.0,1794.0,-5445.0,-4.0,-5.0,-3.0,3.0,4.0,-3.0,-4.0,4.0,0.014103174209594727
8,1.0,5.0,20.0,1.0,-8227.0,-12958.0,1794.0,-5445.0,-13.0,-38.0,-26.0,2.0,8.0,0.0,24.0,-9.0,0.015921831130981445
9,1.0,5.0,20.0,1.0,-8227.0,-12958.0,1794.0,-5445.0,5.0,7.0,10.0,9.0,-5.0,-1.0,11.0,1.0,0.017943382263183594
10,5.0,7.0,15.0,1.0,-8227.0,-12958.0,1793.0,-5444.0,5.0,7.0,10.0,9.0,-5.0,-1.0,11.0,1.0,0.01983356475830078
11,5.0,7.0,15.0,1.0,-8227.0,-12958.0,1793.0,-5444.0,10.0,0.0,-9.0,-10.0,-1.0,-1.0,6.0,11.0,0.021677017211914062
12,5.0,7.0,15.0,1.0,-8227.0,-12958.0,1793.0,-5444.0,4.0,0.0,-15.0,2.0,9.0,6.0,-2.0,-4.0,0.024111032485961914
13,10.0,-3.0,9.0,1.0,-8227.0,-12959.0,1793.0,-5443.0,4.0,0.0,-15.0,2.0,9.0,6.0,-2.0,-4.0,0.026566743850708008
14,10.0,-3.0,9.0,1.0,-8227.0,-12959.0,1793.0,-5443.0,2.0,19.0,19.0,2.0,-15.0,0.0,3.0,-2.0,0.02843165397644043
15,10.0,-3.0,9.0,1.0,-8227.0,-12959.0,1793.0,-5443.0,-6.0,-8.0,3.0,-2.0,-27.0,-5.0,10.0,0.0,0.030183076858520508
16,28.0,-11.0,-3.0,1.0,-8223.0,-12964.0,1790.0,-5439.0,-6.0,-8.0,3.0,-2.0,-27.0,-5.0,10.0,0.0,0.0319364070892334
17,28.0,-11.0,-3.0,1.0,-8223.0,-12964.0,1790.0,-5439.0,-1.0,20.0,-21.0,-6.0,12.0,-1.0,16.0,-9.0,0.03378582000732422
18,28.0,-11.0,-3.0,1.0,-8223.0,-12964.0,1790.0,-5439.0,-2.0,1.0,-10.0,-2.0,1.0,1.0,6.0,1.0,0.035593271255493164
19,3.0,4.0,-8.0,1.0,-8223.0,-12964.0,1789.0,-5438.0,-2.0,1.0,-10.0,-2.0,1.0,1.0,6.0,1.0,0.0373685359954834
20,3.0,4.0,-8.0,1.0,-8223.0,-12964.0,1789.0,-5438.0,-5.0,-20.0,-7.0,3.0,-2.0,-2.0,-29.0,-11.0,0.03960609436035156
21,3.0,4.0,-8.0,1.0,-8223.0,-12964.0,1789.0,-5438.0,-4.0,-21.0,-9.0,-3.0,5.0,-9.0,-3.0,7.0,0.041639089584350586
22,-9.0,13.0,-8.0,1.0,-8223.0,-12965.0,1789.0,-5437.0,-4.0,-21.0,-9.0,-3.0,5.0,-9.0,-3.0,7.0,0.04341769218444824
23,-9.0,13.0,-8.0,1.0,-8223.0,-12965.0,1789.0,-5437.0,0.0,-11.0,-28.0,4.0,-8.0,3.0,4.0,9.0,0.045322418212890625
24,-9.0,13.0,-8.0,1.0,-8223.0,-12965.0,1789.0,-5437.0,0.0,-15.0,-32.0,1.0,6.0,2.0,-18.0,-5.0,0.04708147048950195
25,6.0,13.0,-3.0,1.0,-8223.0,-12965.0,1789.0,-5437.0,0.0,-15.0,-32.0,1.0,6.0,2.0,-18.0,-5.0,0.04893803596496582
26,6.0,13.0,-3.0,1.0,-8223.0,-12965.0,1789.0,-5437.0,0.0,19.0,-4.0,-10.0,-29.0,-9.0,7.0,9.0,0.051256418228149414
27,6.0,13.0,-3.0,1.0,-8223.0,-12965.0,1789.0,-5437.0,-2.0,8.0,18.0,4.0,-17.0,-10.0,-1.0,-3.0,0.05354118347167969
28,1.0,12.0,-9.0,1.0,-8223.0,-12965.0,1788.0,-5436.0,-2.0,8.0,18.0,4.0,-17.0,-10.0,-1.0,-3.0,0.05550694465637207
29,1.0,12.0,-9.0,1.0,-8223.0,-12965.0,1788.0,-5436.0,9.0,2.0,12.0,5.0,3.0,8.0,5.0,16.0,0.057419776916503906
30,1.0,12.0,-9.0,1.0,-8223.0,-12965.0,1788.0,-5436.0,-4.0,14.0,26.0,-6.0,-6.0,0.0,-5.0,-2.0,0.05918598175048828
31,2.0,4.0,-12.0,1.0,-8222.0,-12966.0,1788.0,-5436.0,-4.0,14.0,26.0,-6.0,-6.0,0.0,-5.0,-2.0,0.06094694137573242
32,2.0,4.0,-12.0,1.0,-8222.0,-12966.0,1788.0,-5436.0,-4.0,15.0,39.0,7.0,-5.0,-1.0,14.0,-7.0,0.06280231475830078
33,2.0,4.0,-12.0,1.0,-8222.0,-12966.0,1788.0,-5436.0,-6.0,-8.0,17.0,1.0,7.0,4.0,0.0,-24.0,0.0645594596862793
34,19.0,-4.0,-15.0,1.0,-8221.0,-12969.0,1783.0,-5432.0,-6.0,-8.0,17.0,1.0,7.0,4.0,0.0,-24.0,0.06661558151245117
35,19.0,-4.0,-15.0,1.0,-8221.0,-12969.0,1783.0,-5432.0,-10.0,-28.0,-24.0,-6.0,27.0,4.0,6.0,0.0,0.06849789619445801
36,19.0,-4.0,-15.0,1.0,-8221.0,-12969.0,1783.0,-5432.0,-3.0,11.0,2.0,-4.0,-34.0,-3.0,1.0,-2.0,0.07034945487976074
37,-1.0,-9.0,-1.0,1.0,-8222.0,-12969.0,1783.0,-5431.0,-3.0,11.0,2.0,-4.0,-34.0,-3.0,1.0,-2.0,0.07216930389404297
38,-1.0,-9.0,-1.0,1.0,-8222.0,-12969.0,1783.0,-5431.0,2.0,-13.0,-2.0,4.0,7.0,0.0,-10.0,-2.0,0.07404303550720215
39,-1.0,-9.0,-1.0,1.0,-8222.0,-12969.0,1783.0,-5431.0,-5.0,-7.0,-20.0,-2.0,11.0,1.0,1.0,1.0,0.07580399513244629
40,14.0,-11.0,0.0,1.0,-8222.0,-12969.0,1783.0,-5431.0,-5.0,-7.0,-20.0,-2.0,11.0,1.0,1.0,1.0,0.07776832580566406
41,14.0,-11.0,0.0,1.0,-8222.0,-12969.0,1783.0,-5431.0,-7.0,-4.0,24.0,-2.0,-1.0,4.0,-13.0,-11.0,0.07969379425048828
42,14.0,-11.0,0.0,1.0,-8222.0,-12969.0,1783.0,-5431.0,-1.0,-26.0,-29.0,1.0,11.0,-3.0,6.0,6.0,0.08188772201538086
43,10.0,-8.0,7.0,1.0,-8222.0,-12969.0,1782.0,-5430.0,-1.0,-26.0,-29.0,1.0,11.0,-3.0,6.0,6.0,0.08419466018676758
44,10.0,-8.0,7.0,1.0,-8222.0,-12969.0,1782.0,-5430.0,1.0,0.0,19.0,3.0,-1.0,-3.0,5.0,6.0,0.08620548248291016
45,10.0,-8.0,7.0,1.0,-8222.0,-12969.0,1782.0,-5430.0,0.0,-3.0,0.0,-3.0,5.0,3.0,-3.0,0.0,0.08797097206115723
46,16.0,-7.0,11.0,1.0,-8219.0,-12971.0,1783.0,-5429.0,0.0,-3.0,0.0,-3.0,5.0,3.0,-3.0,0.0,0.08981156349182129
47,16.0,-7.0,11.0,1.0,-8219.0,-12971.0,1783.0,-5429.0,8.0,-12.0,-66.0,-6.0,-8.0,-2.0,-13.0,-3.0,0.09165620803833008
48,16.0,-7.0,11.0,1.0,-8219.0,-12971.0,1783.0,-5429.0,5.0,18.0,10.0,0.0,16.0,-1.0,-15.0,-3.0,0.09351539611816406
49,24.0,-4.0,12.0,1.0,-8215.0,-12974.0,1783.0,-5430.0,5.0,18.0,10.0,0.0,16.0,-1.0,-15.0,-3.0,0.09544062614440918
50,24.0,-4.0,12.0,1.0,-8215.0,-12974.0,1783.0,-5430.0,-6.0,-11.0,1.0,-1.0,-14.0,-5.0,-11.0,-5.0,0.09730815887451172
51,24.0,-4.0,12.0,1.0,-8215.0,-12974.0,1783.0,-5430.0,9.0,4.0,-1.0,3.0,15.0,7.0,4.0,5.0,0.0991053581237793
52,13.0,5.0,6.0,1.0,-8216.0,-12973.0,1782.0,-5429.0,9.0,4.0,-1.0,3.0,15.0,7.0,4.0,5.0,0.10090017318725586
53,13.0,5.0,6.0,1.0,-8216.0,-12973.0,1782.0,-5429.0,4.0,13.0,15.0,-6.0,24.0,-3.0,1.0,7.0,0.10277843475341797
54,13.0,5.0,6.0,1.0,-8216.0,-12973.0,1782.0,-5429.0,5.0,3.0,-22.0,-5.0,-15.0,-9.0,-17.0,-2.0,0.10454869270324707
55,15.0,2.0,2.0,1.0,-8216.0,-12973.0,1782.0,-5429.0,5.0,3.0,-22.0,-5.0,-15.0,-9.0,-17.0,-2.0,0.10631942749023438
56,15.0,2.0,2.0,1.0,-8216.0,-12973.0,1782.0,-5429.0,-14.0,-22.0,3.0,7.0,0.0,1.0,3.0,-10.0,0.10823225975036621
57,15.0,2.0,2.0,1.0,-8216.0,-12973.0,1782.0,-5429.0,-3.0,5.0,4.0,-8.0,-5.0,6.0,14.0,0.0,0.11019611358642578
58,17.0,3.0,3.0,1.0,-8215.0,-12974.0,1780.0,-5430.0,-3.0,5.0,4.0,-8.0,-5.0,6.0,14.0,0.0,0.11238217353820801
59,17.0,3.0,3.0,1.0,-8215.0,-12974.0,1780.0,-5430.0,-5.0,9.0,13.0,-5.0,-16.0,-4.0,-9.0,0.0,0.11470270156860352
60,17.0,3.0,3.0,1.0,-8215.0,-12974.0,1780.0,-5430.0,-2.0,-3.0,2.0,1.0,-5.0,-2.0,14.0,7.0,0.11649465560913086
61,19.0,8.0,-7.0,1.0,-8214.0,-12975.0,1776.0,-5430.0,-2.0,-3.0,2.0,1.0,-5.0,-2.0,14.0,7.0,0.11859393119812012
62,19.0,8.0,-7.0,1.0,-8214.0,-12975.0,1776.0,-5430.0,11.0,45.0,45.0,6.0,10.0,2.0,-27.0,3.0,0.12048459053039551
63,19.0,8.0,-7.0,1.0,-8214.0,-12975.0,1776.0,-5430.0,-14.0,-14.0,20.0,4.0,-25.0,-5.0,-4.0,-17.0,0.12247395515441895
64,20.0,10.0,-5.0,1.0,-8212.0,-12976.0,1772.0,-5431.0,-14.0,-14.0,20.0,4.0,-25.0,-5.0,-4.0,-17.0,0.12422943115234375
65,20.0,10.0,-5.0,1.0,-8212.0,-12976.0,1772.0,-5431.0,-5.0,-31.0,-42.0,-3.0,-12.0,-2.0,3.0,17.0,0.12625813484191895
66,20.0,10.0,-5.0,1.0,-8212.0,-12976.0,1772.0,-5431.0,0.0,3.0,-10.0,9.0,30.0,-5.0,-26.0,4.0,0.12800860404968262
67,26.0,14.0,-6.0,1.0,-8210.0,-12978.0,1768.0,-5432.0,0.0,3.0,-10.0,9.0,30.0,-5.0,-26.0,4.0,0.12986326217651367
68,26.0,14.0,-6.0,1.0,-8210.0,-12978.0,1768.0,-5432.0,-21.0,-39.0,-14.0,-4.0,-24.0,-29.0,-12.0,-27.0,0.13169240951538086
69,26.0,14.0,-6.0,1.0,-8210.0,-12978.0,1768.0,-5432.0,9.0,9.0,4.0,-6.0,-11.0,3.0,41.0,11.0,0.1334829330444336
70,21.0,22.0,-9.0,1.0,-8209.0,-12979.0,1761.0,-5432.0,9.0,9.0,4.0,-6.0,-11.0,3.0,41.0,11.0,0.13526058197021484
71,21.0,22.0,-9.0,1.0,-8209.0,-12979.0,1761.0,-5432.0,11.0,38.0,17.0,-2.0,7.0,11.0,8.0,-14.0,0.13710808753967285
72,21.0,22.0,-9.0,1.0,-8209.0,-12979.0,1761.0,-5432.0,-6.0,-4.0,32.0,-2.0,-11.0,0.0,-27.0,-10.0,0.13891029357910156
73,26.0,16.0,-12.0,1.0,-8209.0,-12980.0,1754.0,-5432.0,-6.0,-4.0,32.0,-2.0,-11.0,0.0,-27.0,-10.0,0.14130711555480957
74,26.0,16.0,-12.0,1.0,-8209.0,-12980.0,1754.0,-5432.0,-1.0,-14.0,8.0,2.0,-18.0,-1.0,5.0,10.0,0.14514470100402832
75,26.0,16.0,-12.0,1.0,-8209.0,-12980.0,1754.0,-5432.0,-7.0,-9.0,-25.0,1.0,-2.0,6.0,17.0,0.0,0.14803266525268555
76,27.0,2.0,-13.0,1.0,-8208.0,-12983.0,1748.0,-5429.0,-7.0,-9.0,-25.0,1.0,-2.0,6.0,17.0,0.0,0.15006470680236816
77,27.0,2.0,-13.0,1.0,-8208.0,-12983.0,1748.0,-5429.0,-8.0,-13.0,21.0,3.0,1.0,1.0,8.0,-7.0,0.15211129188537598
78,27.0,2.0,-13.0,1.0,-8208.0,-12983.0,1748.0,-5429.0,-6.0,-15.0,2.0,5.0,7.0,-3.0,12.0,-1.0,0.15390610694885254
79,-32.0,8.0,-11.0,1.0,-8214.0,-12980.0,1746.0,-5427.0,-6.0,-15.0,2.0,5.0,7.0,-3.0,12.0,-1.0,0.15571165084838867
80,-32.0,8.0,-11.0,1.0,-8214.0,-12980.0,1746.0,-5427.0,4.0,10.0,16.0,8.0,6.0,-7.0,-18.0,5.0,0.15794110298156738
81,-32.0,8.0,-11.0,1.0,-8214.0,-12980.0,1746.0,-5427.0,10.0,34.0,0.0,2.0,-2.0,0.0,-5.0,17.0,0.15975260734558105
82,-58.0,9.0,-14.0,1.0,-8222.0,-12975.0,1748.0,-5427.0,10.0,34.0,0.0,2.0,-2.0,0.0,-5.0,17.0,0.16150736808776855
83,-58.0,9.0,-14.0,1.0,-8222.0,-12975.0,1748.0,-5427.0,16.0,23.0,-3.0,-1.0,10.0,17.0,33.0,17.0,0.16332268714904785
84,-58.0,9.0,-14.0,1.0,-8222.0,-12975.0,1748.0,-5427.0,5.0,18.0,9.0,2.0,5.0,1.0,-6.0,5.0,0.16509795188903809
85,1.0,54.0,-21.0,1.0,-8222.0,-12973.0,1742.0,-5434.0,5.0,18.0,9.0,2.0,5.0,1.0,-6.0,5.0,0.16695189476013184
86,1.0,54.0,-21.0,1.0,-8222.0,-12973.0,1742.0,-5434.0,-5.0,-1.0,-31.0,-10.0,-15.0,-9.0,0.0,5.0,0.16916775703430176
87,1.0,54.0,-21.0,1.0,-8222.0,-12973.0,1742.0,-5434.0,8.0,-3.0,17.0,14.0,21.0,-5.0,-23.0,-7.0,0.17097949981689453
88,100.0,56.0,-26.0,1.0,-8206.0,-12981.0,1730.0,-5443.0,8.0,-3.0,17.0,14.0,21.0,-5.0,-23.0,-7.0,0.1728980541229248
89,100.0,56.0,-26.0,1.0,-8206.0,-12981.0,1730.0,-5443.0,-19.0,-37.0,16.0,4.0,15.0,7.0,29.0,-4.0,0.1751117706298828
90,100.0,56.0,-26.0,1.0,-8206.0,-12981.0,1730.0,-5443.0,4.0,3.0,-9.0,-5.0,22.0,6.0,-9.0,1.0,0.17708802223205566
91,119.0,24.0,-31.0,1.0,-8187.0,-12994.0,1718.0,-5444.0,4.0,3.0,-9.0,-5.0,22.0,6.0,-9.0,1.0,0.1788654327392578
92,119.0,24.0,-31.0,1.0,-8187.0,-12994.0,1718.0,-5444.0,-2.0,0.0,-16.0,-8.0,-12.0,-12.0,-23.0,-9.0,0.18070244789123535
93,119.0,24.0,-31.0,1.0,-8187.0,-12994.0,1718.0,-5444.0,-15.0,-22.0,13.0,2.0,-14.0,0.0,14.0,-5.0,0.18250346183776855
94,118.0,1.0,-28.0,1.0,-8170.0,-13009.0,1704.0,-5438.0,-15.0,-22.0,13.0,2.0,-14.0,0.0,14.0,-5.0,0.1842663288116455
95,118.0,1.0,-28.0,1.0,-8170.0,-13009.0,1704.0,-5438.0,2.0,12.0,-16.0,0.0,10.0,7.0,22.0,1.0,0.18611550331115723
96,118.0,1.0,-28.0,1.0,-8170.0,-13009.0,1704.0,-5438.0,6.0,22.0,3.0,-5.0,-15.0,-8.0,-25.0,-16.0,0.18787217140197754
97,22.0,-13.0,7.0,1.0,-8165.0,-13013.0,1704.0,-5435.0,6.0,22.0,3.0,-5.0,-15.0,-8.0,-25.0,-16.0,0.18980956077575684
98,22.0,-13.0,7.0,1.0,-8165.0,-13013.0,1704.0,-5435.0,-6.0,-16.0,-17.0,-1.0,-2.0,-8.0,3.0,-9.0,0.19185423851013184
99,22.0,-13.0,7.0,1.0,-8165.0,-13013.0,1704.0,-5435.0,5.0,13.0,10.0,-8.0,-11.0,1.0,4.0,0.0,0.193939208984375
100,44.0,-25.0,24.0,1.0,-8157.0,-13022.0,1703.0,-5427.0,5.0,13.0,10.0,-8.0,-11.0,1.0,4.0,0.0,0.19576001167297363
101,44.0,-25.0,24.0,1.0,-8157.0,-13022.0,1703.0,-5427.0,33.0,57.0,12.0,-2.0,13.0,4.0,4.0,11.0,0.19762802124023438
102,44.0,-25.0,24.0,1.0,-8157.0,-13022.0,1703.0,-5427.0,-16.0,-3.0,6.0,1.0,-5.0,-3.0,5.0,-21.0,0.19941186904907227
103,9.0,-32.0,-15.0,1.0,-8160.0,-13027.0,1696.0,-5412.0,-16.0,-3.0,6.0,1.0,-5.0,-3.0,5.0,-21.0,0.20115137100219727
104,9.0,-32.0,-15.0,1.0,-8160.0,-13027.0,1696.0,-5412.0,6.0,-3.0,-13.0,-6.0,-23.0,0.0,0.0,9.0,0.20299267768859863
105,9.0,-32.0,-15.0,1.0,-8160.0,-13027.0,1696.0,-5412.0,1.0,-6.0,-9.0,-4.0,-3.0,-2.0,16.0,11.0,0.2048485279083252
106,27.0,-22.0,-27.0,1.0,-8164.0,-13030.0,1686.0,-5402.0,1.0,-6.0,-9.0,-4.0,-3.0,-2.0,16.0,11.0,0.20693373680114746
107,27.0,-22.0,-27.0,1.0,-8164.0,-13030.0,1686.0,-5402.0,-24.0,-37.0,4.0,14.0,18.0,-8.0,-20.0,-15.0,0.2087864875793457
108,27.0,-22.0,-27.0,1.0,-8164.0,-13030.0,1686.0,-5402.0,-15.0,-21.0,-2.0,-3.0,1.0,-2.0,0.0,-7.0,0.21061921119689941
109,19.0,-8.0,-46.0,1.0,-8172.0,-13033.0,1671.0,-5389.0,-15.0,-21.0,-2.0,-3.0,1.0,-2.0,0.0,-7.0,0.21236228942871094
110,19.0,-8.0,-46.0,1.0,-8172.0,-13033.0,1671.0,-5389.0,15.0,25.0,7.0,-3.0,9.0,8.0,-5.0,15.0,0.21427369117736816
111,19.0,-8.0,-46.0,1.0,-8172.0,-13033.0,1671.0,-5389.0,-14.0,-53.0,-34.0,4.0,5.0,-5.0,-8.0,-2.0,0.21602320671081543
112,-9.0,12.0,-56.0,1.0,-8184.0,-13030.0,1656.0,-5382.0,-14.0,-53.0,-34.0,4.0,5.0,-5.0,-8.0,-2.0,0.2180013656616211
113,-9.0,12.0,-56.0,1.0,-8184.0,-13030.0,1656.0,-5382.0,8.0,4.0,-42.0,-10.0,-16.0,-10.0,-10.0,-8.0,0.2205641269683838
114,-9.0,12.0,-56.0,1.0,-8184.0,-13030.0,1656.0,-5382.0,-3.0,-8.0,-8.0,-4.0,11.0,6.0,19.0,-2.0,0.22272396087646484
115,-35.0,30.0,-47.0,1.0,-8197.0,-13023.0,1647.0,-5381.0,-3.0,-8.0,-8.0,-4.0,11.0,6.0,19.0,-2.0,0.2246713638305664
116,-35.0,30.0,-47.0,1.0,-8197.0,-13023.0,1647.0,-5381.0,15.0,34.0,5.0,-3.0,5.0,-8.0,-29.0,9.0,0.22670865058898926
117,-35.0,30.0,-47.0,1.0,-8197.0,-13023.0,1647.0,-5381.0,-2.0,1.0,16.0,-1.0,0.0,-2.0,-6.0,8.0,0.22864580154418945
118,-46.0,32.0,-18.0,1.0,-8205.0,-13017.0,1645.0,-5385.0,-2.0,1.0,16.0,-1.0,0.0,-2.0,-6.0,8.0,0.23059368133544922
119,-46.0,32.0,-18.0,1.0,-8205.0,-13017.0,1645.0,-5385.0,20.0,39.0,15.0,0.0,3.0,11.0,20.0,12.0,0.23261189460754395
120,-46.0,32.0,-18.0,1.0,-8205.0,-13017.0,1645.0,-5385.0,10.0,47.0,24.0,-9.0,-30.0,-13.0,-32.0,-4.0,0.23456215858459473
121,-41.0,29.0,1.0,1.0,-8209.0,-13013.0,1645.0,-5387.0,10.0,47.0,24.0,-9.0,-30.0,-13.0,-32.0,-4.0,0.23662352561950684
122,-41.0,29.0,1.0,1.0,-8209.0,-13013.0,1645.0,-5387.0,-19.0,-46.0,-15.0,7.0,-6.0,3.0,-2.0,-5.0,0.23862934112548828
123,-41.0,29.0,1.0,1.0,-8209.0,-13013.0,1645.0,-5387.0,0.0,-19.0,16.0,1.0,12.0,11.0,24.0,7.0,0.2403883934020996
124,-33.0,24.0,-2.0,1.0,-8213.0,-13010.0,1645.0,-5389.0,0.0,-19.0,16.0,1.0,12.0,11.0,24.0,7.0,0.24217796325683594
125,-33.0,24.0,-2.0,1.0,-8213.0,-13010.0,1645.0,-5389.0,-11.0,-24.0,-26.0,-5.0,4.0,-7.0,-18.0,-25.0,0.24448180198669434
126,-33.0,24.0,-2.0,1.0,-8213.0,-13010.0,1645.0,-5389.0,-12.0,6.0,30.0,-4.0,-7.0,-12.0,-12.0,-4.0,0.24694323539733887
127,-33.0,29.0,-6.0,1.0,-8217.0,-13007.0,1643.0,-5391.0,-12.0,6.0,30.0,-4.0,-7.0,-12.0,-12.0,-4.0,0.2488844394683838
128,-33.0,29.0,-6.0,1.0,-8217.0,-13007.0,1643.0,-5391.0,3.0,14.0,26.0,-1.0,11.0,9.0,-1.0,-9.0,0.2507321834564209
129,-33.0,29.0,-6.0,1.0,-8217.0,-13007.0,1643.0,-5391.0,-2.0,-3.0,-3.0,8.0,13.0,5.0,1.0,-3.0,0.25266098976135254
130,-16.0,22.0,-5.0,1.0,-8219.0,-13007.0,1639.0,-5389.0,-2.0,-3.0,-3.0,8.0,13.0,5.0,1.0,-3.0,0.2544379234313965
131,-16.0,22.0,-5.0,1.0,-8219.0,-13007.0,1639.0,-5389.0,-9.0,-17.0,28.0,-2.0,-24.0,-4.0,32.0,-10.0,0.2562520503997803
132,-16.0,22.0,-5.0,1.0,-8219.0,-13007.0,1639.0,-5389.0,11.0,-1.0,-17.0,-7.0,-8.0,3.0,-6.0,13.0,0.2580423355102539
133,-20.0,4.0,-16.0,1.0,-8221.0,-13007.0,1637.0,-5386.0,11.0,-1.0,-17.0,-7.0,-8.0,3.0,-6.0,13.0,0.2597801685333252
134,-20.0,4.0,-16.0,1.0,-8221.0,-13007.0,1637.0,-5386.0,-2.0,-20.0,-38.0,-6.0,6.0,-1.0,13.0,10.0,0.2616097927093506
135,-20.0,4.0,-16.0,1.0,-8221.0,-13007.0,1637.0,-5386.0,11.0,9.0,-7.0,-3.0,2.0,7.0,12.0,3.0,0.26341676712036133
136,-31.0,-10.0,-25.0,1.0,-8226.0,-13007.0,1635.0,-5378.0,11.0,9.0,-7.0,-3.0,2.0,7.0,12.0,3.0,0.2651653289794922
137,-31.0,-10.0,-25.0,1.0,-8226.0,-13007.0,1635.0,-5378.0,-15.0,-27.0,5.0,2.0,-6.0,0.0,-4.0,1.0,0.2677469253540039
138,-31.0,-10.0,-25.0,1.0,-8226.0,-13007.0,1635.0,-5378.0,-4.0,-10.0,-10.0,10.0,16.0,4.0,10.0,-4.0,0.26979804039001465
139,-23.0,-29.0,-17.0,1.0,-8228.0,-13010.0,1636.0,-5370.0,-4.0,-10.0,-10.0,10.0,16.0,4.0,10.0,-4.0,0.27158045768737793
140,-23.0,-29.0,-17.0,1.0,-8228.0,-13010.0,1636.0,-5370.0,-6.0,10.0,4.0,-2.0,5.0,1.0,-19.0,-2.0,0.2734405994415283
141,-23.0,-29.0,-17.0,1.0,-8228.0,-13010.0,1636.0,-5370.0,-4.0,-15.0,-18.0,1.0,-6.0,-3.0,-10.0,-1.0,0.2752339839935303
142,-27.0,-37.0,-13.0,1.0,-8228.0,-13013.0,1639.0,-5360.0,-4.0,-15.0,-18.0,1.0,-6.0,-3.0,-10.0,-1.0,0.2772562503814697
143,-27.0,-37.0,-13.0,1.0,-8228.0,-13013.0,1639.0,-5360.0,3.0,21.0,25.0,-5.0,2.0,2.0,15.0,-1.0,0.27932143211364746
144,-27.0,-37.0,-13.0,1.0,-8228.0,-13013.0,1639.0,-5360.0,-13.0,-21.0,-3.0,2.0,-20.0,-2.0,-19.0,-12.0,0.28127336502075195
145,-27.0,-37.0,-8.0,1.0,-8229.0,-13016.0,1643.0,-5351.0,-13.0,-21.0,-3.0,2.0,-20.0,-2.0,-19.0,-12.0,0.3142833709716797
146,-27.0,-37.0,-8.0,1.0,-8229.0,-13016.0,1643.0,-5351.0,9.0,-6.0,-23.0,-5.0,-1.0,-7.0,-13.0,4.0,0.3178446292877197
147,-27.0,-37.0,-8.0,1.0,-8229.0,-13016.0,1643.0,-5351.0,0.0,-4.0,-13.0,-11.0,-4.0,-1.0,1.0,-1.0,0.32128119468688965
148,-19.0,-28.0,-2.0,1.0,-8230.0,-13017.0,1645.0,-5346.0,0.0,-4.0,-13.0,-11.0,-4.0,-1.0,1.0,-1.0,0.3236536979675293
149,-19.0,-28.0,-2.0,1.0,-8230.0,-13017.0,1645.0,-5346.0,-1.0,-18.0,-30.0,0.0,12.0,5.0,-6.0,-2.0,0.3255162239074707
150,-19.0,-28.0,-2.0,1.0,-8230.0,-13017.0,1645.0,-5346.0,-1.0,17.0,14.0,-5.0,2.0,-10.0,-6.0,3.0,0.32729411125183105
151,-9.0,-22.0,1.0,1.0,-8232.0,-13017.0,1647.0,-5342.0,-1.0,17.0,14.0,-5.0,2.0,-10.0,-6.0,3.0,0.3433680534362793
152,-9.0,-22.0,1.0,1.0,-8232.0,-13017.0,1647.0,-5342.0,3.0,21.0,23.0,2.0,-7.0,-2.0,-7.0,0.0,0.34656620025634766
153,-9.0,-22.0,1.0,1.0,-8232.0,-13017.0,1647.0,-5342.0,-1.0,-3.0,-4.0,-3.0,-17.0,-2.0,1.0,1.0,0.3500216007232666
154,-8.0,-18.0,9.0,1.0,-8234.0,-13016.0,1650.0,-5340.0,-1.0,-3.0,-4.0,-3.0,-17.0,-2.0,1.0,1.0,0.35820674896240234
155,-8.0,-18.0,9.0,1.0,-8234.0,-13016.0,1650.0,-5340.0,2.0,0.0,4.0,7.0,6.0,2.0,5.0,-2.0,0.36090922355651855
156,-8.0,-18.0,9.0,1.0,-8234.0,-13016.0,1650.0,-5340.0,14.0,25.0,2.0,6.0,12.0,1.0,5.0,8.0,0.36309099197387695
157,-9.0,-16.0,9.0,1.0,-8235.0,-13016.0,1650.0,-5340.0,14.0,25.0,2.0,6.0,12.0,1.0,5.0,8.0,0.38268160820007324
158,-9.0,-16.0,9.0,1.0,-8235.0,-13016.0,1650.0,-5340.0,-18.0,-13.0,16.0,0.0,-4.0,-2.0,0.0,-1.0,0.3891103267669678
159,-9.0,-16.0,9.0,1.0,-8235.0,-13016.0,1650.0,-5340.0,9.0,-4.0,-25.0,0.0,10.0,5.0,4.0,2.0,0.3932764530181885
160,-33.0,-22.0,22.0,1.0,-8239.0,-13013.0,1656.0,-5338.0,9.0,-4.0,-25.0,0.0,10.0,5.0,4.0,2.0,0.39561009407043457
161,-33.0,-22.0,22.0,1.0,-8239.0,-13013.0,1656.0,-5338.0,-5.0,-3.0,-5.0,2.0,-14.0,0.0,9.0,-5.0,0.39788174629211426
162,-33.0,-22.0,22.0,1.0,-8239.0,-13013.0,1656.0,-5338.0,-2.0,-9.0,-9.0,-3.0,-3.0,-6.0,-15.0,-3.0,0.40059828758239746
163,-28.0,-20.0,27.0,1.0,-8240.0,-13012.0,1664.0,-5338.0,-2.0,-9.0,-9.0,-3.0,-3.0,-6.0,-15.0,-3.0,0.4177703857421875
164,-28.0,-20.0,27.0,1.0,-8240.0,-13012.0,1664.0,-5338.0,-1.0,1.0,-14.0,-4.0,2.0,-3.0,-11.0,4.0,0.4196178913116455
165,-28.0,-20.0,27.0,1.0,-8240.0,-13012.0,1664.0,-5338.0,-12.0,-14.0,4.0,2.0,-3.0,4.0,14.0,-7.0,0.42220449447631836
166,-29.0,1.0,26.0,1.0,-8242.0,-13009.0,1670.0,-5340.0,-12.0,-14.0,4.0,2.0,-3.0,4.0,14.0,-7.0,0.4313795566558838
167,-29.0,1.0,26.0,1.0,-8242.0,-13009.0,1670.0,-5340.0,11.0,16.0,-12.0,-16.0,-10.0,-5.0,-8.0,2.0,0.4391646385192871
168,-29.0,1.0,26.0,1.0,-8242.0,-13009.0,1670.0,-5340.0,-2.0,2.0,-2.0,0.0,-9.0,-1.0,-5.0,-5.0,0.4409332275390625
169,-2.0,17.0,19.0,1.0,-8240.0,-13008.0,1672.0,-5345.0,-2.0,2.0,-2.0,0.0,-9.0,-1.0,-5.0,-5.0,0.4564087390899658
170,-2.0,17.0,19.0,1.0,-8240.0,-13008.0,1672.0,-5345.0,-18.0,-28.0,-9.0,4.0,2.0,2.0,-10.0,-16.0,0.4600801467895508
171,-2.0,17.0,19.0,1.0,-8240.0,-13008.0,1672.0,-5345.0,12.0,27.0,28.0,3.0,-4.0,-10.0,4.0,14.0,0.464648962020874
172,6.0,21.0,15.0,1.0,-8239.0,-13006.0,1672.0,-5350.0,12.0,27.0,28.0,3.0,-4.0,-10.0,4.0,14.0,0.4849832057952881
173,6.0,21.0,15.0,1.0,-8239.0,-13006.0,1672.0,-5350.0,2.0,-8.0,-25.0,-3.0,22.0,3.0,11.0,0.0,0.4882206916809082
174,6.0,21.0,15.0,1.0,-8239.0,-13006.0,1672.0,-5350.0,-11.0,-24.0,-11.0,-1.0,-6.0,-3.0,11.0,-4.0,0.49137306213378906
175,16.0,27.0,11.0,1.0,-8238.0,-13005.0,1669.0,-5354.0,-11.0,-24.0,-11.0,-1.0,-6.0,-3.0,11.0,-4.0,0.49458909034729004
176,16.0,27.0,11.0,1.0,-8238.0,-13005.0,1669.0,-5354.0,9.0,26.0,46.0,3.0,-4.0,3.0,12.0,5.0,0.4993717670440674
177,16.0,27.0,11.0,1.0,-8238.0,-13005.0,1669.0,-5354.0,4.0,-3.0,-22.0,-3.0,-10.0,-2.0,5.0,5.0,0.5012810230255127
178,4.0,18.0,23.0,1.0,-8239.0,-13005.0,1667.0,-5356.0,4.0,-3.0,-22.0,-3.0,-10.0,-2.0,5.0,5.0,0.5160748958587646
179,4.0,18.0,23.0,1.0,-8239.0,-13005.0,1667.0,-5356.0,8.0,-18.0,-52.0,-13.0,-23.0,-2.0,2.0,5.0,0.5180799961090088
180,4.0,18.0,23.0,1.0,-8239.0,-13005.0,1667.0,-5356.0,-1.0,4.0,1.0,-4.0,1.0,2.0,-2.0,-9.0,0.5198373794555664
181,5.0,14.0,29.0,1.0,-8237.0,-13005.0,1668.0,-5358.0,-1.0,4.0,1.0,-4.0,1.0,2.0,-2.0,-9.0,0.5384111404418945
182,5.0,14.0,29.0,1.0,-8237.0,-13005.0,1668.0,-5358.0,11.0,19.0,20.0,5.0,13.0,7.0,12.0,10.0,0.541759729385376
183,5.0,14.0,29.0,1.0,-8237.0,-13005.0,1668.0,-5358.0,0.0,-2.0,-13.0,0.0,2.0,-12.0,8.0,-3.0,0.5458874702453613
184,-2.0,14.0,45.0,1.0,-8237.0,-13003.0,1671.0,-5361.0,0.0,-2.0,-13.0,0.0,2.0,-12.0,8.0,-3.0,0.5528833866119385
185,-2.0,14.0,45.0,1.0,-8237.0,-13003.0,1671.0,-5361.0,0.0,3.0,6.0,3.0,-22.0,-11.0,-3.0,-4.0,0.5598452091217041
186,-2.0,14.0,45.0,1.0,-8237.0,-13003.0,1671.0,-5361.0,0.0,3.0,3.0,3.0,4.0,7.0,-1.0,0.0,0.5616438388824463
187,-2.0,12.0,47.0,1.0,-8235.0,-13003.0,1674.0,-5364.0,0.0,3.0,3.0,3.0,4.0,7.0,-1.0,0.0,0.5913810729980469
188,-2.0,12.0,47.0,1.0,-8235.0,-13003.0,1674.0,-5364.0,5.0,17.0,1.0,-7.0,1.0,-1.0,19.0,16.0,0.5955793857574463
189,-2.0,12.0,47.0,1.0,-8235.0,-13003.0,1674.0,-5364.0,3.0,5.0,0.0,1.0,10.0,-7.0,-36.0,5.0,0.5994844436645508
190,1.0,14.0,46.0,1.0,-8233.0,-13002.0,1677.0,-5367.0,3.0,5.0,0.0,1.0,10.0,-7.0,-36.0,5.0,0.6027324199676514
191,1.0,14.0,46.0,1.0,-8233.0,-13002.0,1677.0,-5367.0,-14.0,-15.0,6.0,4.0,-9.0,0.0,-10.0,-18.0,0.6046805381774902
192,1.0,14.0,46.0,1.0,-8233.0,-13002.0,1677.0,-5367.0,-3.0,-4.0,-2.0,-4.0,-2.0,2.0,3.0,0.0,0.6074178218841553
193,-12.0,12.0,47.0,1.0,-8233.0,-13001.0,1681.0,-5369.0,-3.0,-4.0,-2.0,-4.0,-2.0,2.0,3.0,0.0,0.6205527782440186
194,-12.0,12.0,47.0,1.0,-8233.0,-13001.0,1681.0,-5369.0,-24.0,-45.0,-13.0,7.0,12.0,-1.0,-11.0,-15.0,0.6225335597991943
195,-12.0,12.0,47.0,1.0,-8233.0,-13001.0,1681.0,-5369.0,30.0,62.0,15.0,-1.0,5.0,11.0,5.0,18.0,0.6243464946746826
196,-21.0,10.0,45.0,1.0,-8235.0,-12998.0,1685.0,-5371.0,30.0,62.0,15.0,-1.0,5.0,11.0,5.0,18.0,0.6368966102600098
197,-21.0,10.0,45.0,1.0,-8235.0,-12998.0,1685.0,-5371.0,-5.0,-7.0,-6.0,3.0,-15.0,-11.0,-16.0,-6.0,0.6394772529602051
198,-21.0,10.0,45.0,1.0,-8235.0,-12998.0,1685.0,-5371.0,-16.0,-20.0,12.0,-7.0,-2.0,-1.0,2.0,-12.0,0.6412839889526367
199,4.0,8.0,38.0,1.0,-8232.0,-13000.0,1687.0,-5372.0,-16.0,-20.0,12.0,-7.0,-2.0,-1.0,2.0,-12.0,0.6574664115905762
200,4.0,8.0,38.0,1.0,-8232.0,-13000.0,1687.0,-5372.0,3.0,4.0,-11.0,1.0,12.0,6.0,-3.0,2.0,0.666473388671875
201,4.0,8.0,38.0,1.0,-8232.0,-13000.0,1687.0,-5372.0,21.0,66.0,46.0,0.0,0.0,0.0,1.0,14.0,0.669170618057251
202,8.0,0.0,27.0,1.0,-8230.0,-13001.0,1688.0,-5372.0,21.0,66.0,46.0,0.0,0.0,0.0,1.0,14.0,0.6710081100463867
203,8.0,0.0,27.0,1.0,-8230.0,-13001.0,1688.0,-5372.0,4.0,-1.0,-7.0,-5.0,-2.0,-4.0,-1.0,7.0,0.6869444847106934
204,8.0,0.0,27.0,1.0,-8230.0,-13001.0,1688.0,-5372.0,-20.0,-51.0,-19.0,4.0,2.0,0.0,-2.0,-21.0,0.696044921875
205,-8.0,-1.0,20.0,1.0,-8231.0,-13001.0,1689.0,-5369.0,-20.0,-51.0,-19.0,4.0,2.0,0.0,-2.0,-21.0,0.698148250579834
206,-8.0,-1.0,20.0,1.0,-8231.0,-13001.0,1689.0,-5369.0,-3.0,13.0,11.0,-1.0,-6.0,-4.0,-15.0,-10.0,0.7001152038574219
207,-8.0,-1.0,20.0,1.0,-8231.0,-13001.0,1689.0,-5369.0,11.0,34.0,31.0,5.0,-12.0,1.0,5.0,8.0,0.7018883228302002
208,-9.0,-9.0,16.0,1.0,-8232.0,-13001.0,1691.0,-5367.0,11.0,34.0,31.0,5.0,-12.0,1.0,5.0,8.0,0.7187333106994629
209,-9.0,-9.0,16.0,1.0,-8232.0,-13001.0,1691.0,-5367.0,10.0,3.0,-10.0,-2.0,5.0,-3.0,27.0,3.0,0.7218234539031982
210,-9.0,-9.0,16.0,1.0,-8232.0,-13001.0,1691.0,-5367.0,-13.0,-25.0,-29.0,-5.0,1.0,3.0,-10.0,-16.0,0.7321741580963135
211,-3.0,-8.0,15.0,1.0,-8232.0,-13001.0,1690.0,-5367.0,-13.0,-25.0,-29.0,-5.0,1.0,3.0,-10.0,-16.0,0.7415010929107666
212,-3.0,-8.0,15.0,1.0,-8232.0,-13001.0,1690.0,-5367.0,-5.0,-5.0,17.0,3.0,-7.0,4.0,-7.0,-5.0,0.7436800003051758
213,-3.0,-8.0,15.0,1.0,-8232.0,-13001.0,1690.0,-5367.0,-10.0,-43.0,-9.0,4.0,-3.0,-2.0,3.0,1.0,0.7648665904998779
214,-2.0,-18.0,7.0,1.0,-8232.0,-13002.0,1692.0,-5363.0,-10.0,-43.0,-9.0,4.0,-3.0,-2.0,3.0,1.0,0.7681717872619629
215,-2.0,-18.0,7.0,1.0,-8232.0,-13002.0,1692.0,-5363.0,18.0,58.0,15.0,-8.0,10.0,7.0,0.0,3.0,0.7716081142425537
216,-2.0,-18.0,7.0,1.0,-8232.0,-13002.0,1692.0,-5363.0,0.0,0.0,13.0,6.0,-10.0,-11.0,-9.0,4.0,0.7736129760742188
217,-17.0,-11.0,16.0,1.0,-8235.0,-13001.0,1695.0,-5361.0,0.0,0.0,13.0,6.0,-10.0,-11.0,-9.0,4.0,0.7776799201965332
218,-17.0,-11.0,16.0,1.0,-8235.0,-13001.0,1695.0,-5361.0,-13.0,-21.0,9.0,2.0,-5.0,-1.0,-4.0,-7.0,0.7799599170684814
219,-17.0,-11.0,16.0,1.0,-8235.0,-13001.0,1695.0,-5361.0,-4.0,-2.0,-21.0,-3.0,16.0,6.0,9.0,-12.0,0.781792163848877
220,-20.0,-5.0,21.0,1.0,-8236.0,-13001.0,1698.0,-5360.0,-4.0,-2.0,-21.0,-3.0,16.0,6.0,9.0,-12.0,0.8000233173370361
221,-20.0,-5.0,21.0,1.0,-8236.0,-13001.0,1698.0,-5360.0,16.0,29.0,62.0,9.0,-1.0,2.0,6.0,37.0,0.801971435546875
222,-20.0,-5.0,21.0,1.0,-8236.0,-13001.0,1698.0,-5360.0,5.0,1.0,-21.0,-8.0,1.0,3.0,13.0,7.0,0.8053755760192871
223,-28.0,3.0,21.0,1.0,-8241.0,-12997.0,1701.0,-5361.0,5.0,1.0,-21.0,-8.0,1.0,3.0,13.0,7.0,0.8246817588806152
224,-28.0,3.0,21.0,1.0,-8241.0,-12997.0,1701.0,-5361.0,-14.0,-30.0,-8.0,-5.0,8.0,-6.0,-26.0,-16.0,0.8285322189331055
225,-28.0,3.0,21.0,1.0,-8241.0,-12997.0,1701.0,-5361.0,-2.0,-7.0,-17.0,-7.0,29.0,-5.0,-12.0,-6.0,0.8315143585205078
226,-13.0,2.0,26.0,1.0,-8241.0,-12996.0,1704.0,-5362.0,-2.0,-7.0,-17.0,-7.0,29.0,-5.0,-12.0,-6.0,0.837932825088501
227,-13.0,2.0,26.0,1.0,-8241.0,-12996.0,1704.0,-5362.0,-3.0,-10.0,-27.0,1.0,16.0,7.0,15.0,8.0,0.8397765159606934
228,-13.0,2.0,26.0,1.0,-8241.0,-12996.0,1704.0,-5362.0,-12.0,-27.0,3.0,2.0,-10.0,1.0,-6.0,-7.0,0.8415608406066895
229,-29.0,11.0,23.0,1.0,-8245.0,-12992.0,1707.0,-5364.0,-12.0,-27.0,3.0,2.0,-10.0,1.0,-6.0,-7.0,0.8686628341674805
230,-29.0,11.0,23.0,1.0,-8245.0,-12992.0,1707.0,-5364.0,-2.0,-2.0,2.0,7.0,11.0,-2.0,4.0,-6.0,0.8719964027404785
231,-29.0,11.0,23.0,1.0,-8245.0,-12992.0,1707.0,-5364.0,-11.0,-35.0,-39.0,-2.0,-20.0,-6.0,-3.0,-1.0,0.8751473426818848
232,-11.0,8.0,20.0,1.0,-8245.0,-12992.0,1708.0,-5364.0,-11.0,-35.0,-39.0,-2.0,-20.0,-6.0,-3.0,-1.0,0.8781366348266602
233,-11.0,8.0,20.0,1.0,-8245.0,-12992.0,1708.0,-5364.0,5.0,-7.0,-19.0,-1.0,-6.0,0.0,1.0,-3.0,0.8800616264343262
234,-11.0,8.0,20.0,1.0,-8245.0,-12992.0,1708.0,-5364.0,4.0,9.0,1.0,-1.0,6.0,6.0,11.0,4.0,0.8822476863861084
235,5.0,0.0,23.0,1.0,-8242.0,-12992.0,1711.0,-5366.0,4.0,9.0,1.0,-1.0,6.0,6.0,11.0,4.0,0.8977572917938232
236,5.0,0.0,23.0,1.0,-8242.0,-12992.0,1711.0,-5366.0,6.0,22.0,8.0,4.0,-8.0,-4.0,-11.0,2.0,0.9001002311706543
237,5.0,0.0,23.0,1.0,-8242.0,-12992.0,1711.0,-5366.0,-4.0,11.0,20.0,-10.0,-31.0,-2.0,1.0,-16.0,0.9019250869750977
238,-2.0,11.0,16.0,1.0,-8241.0,-12992.0,1713.0,-5369.0,-4.0,11.0,20.0,-10.0,-31.0,-2.0,1.0,-16.0,0.9380655288696289
239,-2.0,11.0,16.0,1.0,-8241.0,-12992.0,1713.0,-5369.0,-7.0,-45.0,-51.0,-3.0,1.0,3.0,-6.0,-6.0,0.9422211647033691
240,-2.0,11.0,16.0,1.0,-8241.0,-12992.0,1713.0,-5369.0,8.0,15.0,5.0,4.0,7.0,0.0,4.0,2.0,0.9468193054199219
241,-5.0,11.0,19.0,1.0,-8242.0,-12990.0,1714.0,-5371.0,8.0,15.0,5.0,4.0,7.0,0.0,4.0,2.0,0.9502527713775635
242,-5.0,11.0,19.0,1.0,-8242.0,-12990.0,1714.0,-5371.0,-5.0,11.0,20.0,-3.0,-14.0,-7.0,-3.0,-3.0,0.9521024227142334
243,-5.0,11.0,19.0,1.0,-8242.0,-12990.0,1714.0,-5371.0,9.0,25.0,-4.0,-6.0,24.0,9.0,-7.0,-1.0,0.9539451599121094
244,-22.0,8.0,25.0,1.0,-8244.0,-12987.0,1718.0,-5374.0,9.0,25.0,-4.0,-6.0,24.0,9.0,-7.0,-1.0,0.9659013748168945
245,-22.0,8.0,25.0,1.0,-8244.0,-12987.0,1718.0,-5374.0,-2.0,0.0,-8.0,1.0,8.0,-9.0,18.0,2.0,0.9679882526397705
246,-22.0,8.0,25.0,1.0,-8244.0,-12987.0,1718.0,-5374.0,-3.0,-2.0,-3.0,8.0,4.0,5.0,-1.0,-2.0,0.9699585437774658
247,-3.0,-2.0,19.0,1.0,-8244.0,-12986.0,1721.0,-5376.0,-3.0,-2.0,-3.0,8.0,4.0,5.0,-1.0,-2.0,0.9801025390625
248,-3.0,-2.0,19.0,1.0,-8244.0,-12986.0,1721.0,-5376.0,7.0,10.0,16.0,5.0,-34.0,-5.0,14.0,16.0,0.9822919368743896
249,-3.0,-2.0,19.0,1.0,-8244.0,-12986.0,1721.0,-5376.0,-1.0,8.0,8.0,-3.0,-2.0,-2.0,-6.0,13.0,0.9840726852416992
250,-6.0,8.0,3.0,1.0,-8245.0,-12985.0,1721.0,-5377.0,-1.0,8.0,8.0,-3.0,-2.0,-2.0,-6.0,13.0,0.9944782257080078
251,-6.0,8.0,3.0,1.0,-8245.0,-12985.0,1721.0,-5377.0,-19.0,-7.0,-4.0,-7.0,15.0,7.0,12.0,-21.0,0.9963274002075195
252,-6.0,8.0,3.0,1.0,-8245.0,-12985.0,1721.0,-5377.0,1.0,14.0,30.0,7.0,32.0,-6.0,7.0,2.0,1.0013222694396973
253,36.0,14.0,-24.0,1.0,-8250.0,-12984.0,1709.0,-5375.0,1.0,14.0,30.0,7.0,32.0,-6.0,7.0,2.0,1.0182087421417236
254,36.0,14.0,-24.0,1.0,-8250.0,-12984.0,1709.0,-5375.0,-5.0,-2.0,-1.0,0.0,24.0,3.0,-22.0,-8.0,1.0217974185943604
255,36.0,14.0,-24.0,1.0,-8250.0,-12984.0,1709.0,-5375.0,3.0,5.0,-2.0,-4.0,1.0,7.0,10.0,3.0,1.0247547626495361
256,2.0,9.0,-77.0,1.0,-8268.0,-12978.0,1689.0,-5368.0,3.0,5.0,-2.0,-4.0,1.0,7.0,10.0,3.0,1.0407078266143799
257,2.0,9.0,-77.0,1.0,-8268.0,-12978.0,1689.0,-5368.0,4.0,-1.0,-17.0,0.0,29.0,2.0,-7.0,4.0,1.043821096420288
258,2.0,9.0,-77.0,1.0,-8268.0,-12978.0,1689.0,-5368.0,-5.0,-8.0,-15.0,-13.0,-7.0,-11.0,-25.0,-2.0,1.0473642349243164
259,28.0,-7.0,-188.0,1.0,-8296.0,-12975.0,1648.0,-5346.0,-5.0,-8.0,-15.0,-13.0,-7.0,-11.0,-25.0,-2.0,1.055063009262085
260,28.0,-7.0,-188.0,1.0,-8296.0,-12975.0,1648.0,-5346.0,2.0,9.0,45.0,20.0,-37.0,8.0,-3.0,-8.0,1.0572822093963623
261,28.0,-7.0,-188.0,1.0,-8296.0,-12975.0,1648.0,-5346.0,-4.0,-5.0,1.0,-7.0,-2.0,-1.0,-14.0,4.0,1.0689551830291748
262,46.0,13.0,-315.0,1.0,-8331.0,-12973.0,1585.0,-5314.0,-4.0,-5.0,1.0,-7.0,-2.0,-1.0,-14.0,4.0,1.077986478805542
263,46.0,13.0,-315.0,1.0,-8331.0,-12973.0,1585.0,-5314.0,-10.0,3.0,-7.0,-8.0,-42.0,-14.0,-8.0,-14.0,1.079845905303955
264,55.0,61.0,-438.0,1.0,-8382.0,-12969.0,1491.0,-5270.0,-10.0,3.0,-7.0,-8.0,-42.0,-14.0,-8.0,-14.0,1.0816586017608643
265,55.0,61.0,-438.0,1.0,-8382.0,-12969.0,1491.0,-5270.0,-31.0,-45.0,55.0,-3.0,58.0,-33.0,8.0,-25.0,1.0835144519805908
266,55.0,61.0,-438.0,1.0,-8382.0,-12969.0,1491.0,-5270.0,9.0,14.0,27.0,26.0,58.0,8.0,-6.0,-7.0,1.1076726913452148
267,-42.0,89.0,-590.0,1.0,-8457.0,-12960.0,1372.0,-5204.0,9.0,14.0,27.0,26.0,58.0,8.0,-6.0,-7.0,1.1110835075378418
268,-42.0,89.0,-590.0,1.0,-8457.0,-12960.0,1372.0,-5204.0,15.0,15.0,-3.0,16.0,28.0,29.0,16.0,22.0,1.116743564605713
269,-42.0,89.0,-590.0,1.0,-8457.0,-12960.0,1372.0,-5204.0,3.0,-44.0,-83.0,0.0,-15.0,-3.0,19.0,5.0,1.1222753524780273
270,-257.0,96.0,-810.0,1.0,-8577.0,-12927.0,1237.0,-5125.0,3.0,-44.0,-83.0,0.0,-15.0,-3.0,19.0,5.0,1.1241207122802734
271,-257.0,96.0,-810.0,1.0,-8577.0,-12927.0,1237.0,-5125.0,-21.0,-56.0,8.0,4.0,-20.0,3.0,-25.0,-6.0,1.1546552181243896
272,-257.0,96.0,-810.0,1.0,-8577.0,-12927.0,1237.0,-5125.0,6.0,-34.0,-81.0,-28.0,-8.0,-4.0,-6.0,14.0,1.1587812900543213
273,-272.0,-14.0,-1092.0,1.0,-8719.0,-12893.0,1073.0,-5006.0,6.0,-34.0,-81.0,-28.0,-8.0,-4.0,-6.0,14.0,1.1646618843078613
274,-272.0,-14.0,-1092.0,1.0,-8719.0,-12893.0,1073.0,-5006.0,24.0,54.0,-14.0,-6.0,-51.0,-3.0,15.0,3.0,1.1675889492034912
275,-272.0,-14.0,-1092.0,1.0,-8719.0,-12893.0,1073.0,-5006.0,-33.0,-46.0,-16.0,-27.0,-19.0,-16.0,-23.0,-11.0,1.1694505214691162
276,-355.0,-52.0,-1297.0,1.0,-8894.0,-12846.0,880.0,-4854.0,-33.0,-46.0,-16.0,-27.0,-19.0,-16.0,-23.0,-11.0,1.1712234020233154
277,-355.0,-52.0,-1297.0,1.0,-8894.0,-12846.0,880.0,-4854.0,4.0,-7.0,-7.0,-20.0,-39.0,-10.0,-6.0,-7.0,1.1731898784637451
278,-355.0,-52.0,-1297.0,1.0,-8894.0,-12846.0,880.0,-4854.0,-8.0,34.0,97.0,4.0,-11.0,5.0,6.0,-8.0,1.1820118427276611
279,-470.0,23.0,-1421.0,1.0,-9100.0,-12779.0,655.0,-4682.0,-8.0,34.0,97.0,4.0,-11.0,5.0,6.0,-8.0,1.184049367904663
280,-470.0,23.0,-1421.0,1.0,-9100.0,-12779.0,655.0,-4682.0,5.0,33.0,29.0,5.0,-23.0,1.0,4.0,-21.0,1.1891629695892334
281,-470.0,23.0,-1421.0,1.0,-9100.0,-12779.0,655.0,-4682.0,54.0,102.0,77.0,-38.0,-29.0,4.0,12.0,24.0,1.1972987651824951
282,-696.0,68.0,-1595.0,1.0,-9337.0,-12692.0,402.0,-4476.0,54.0,102.0,77.0,-38.0,-29.0,4.0,12.0,24.0,1.1990857124328613
283,-696.0,68.0,-1595.0,1.0,-9337.0,-12692.0,402.0,-4476.0,1.0,37.0,119.0,20.0,-11.0,-1.0,-7.0,4.0,1.203874111175537
284,-696.0,68.0,-1595.0,1.0,-9337.0,-12692.0,402.0,-4476.0,31.0,51.0,-35.0,0.0,0.0,-4.0,9.0,3.0,1.2379720211029053
285,-912.0,-11.0,-1964.0,1.0,-9569.0,-12599.0,163.0,-4258.0,31.0,51.0,-35.0,0.0,0.0,-4.0,9.0,3.0,1.241926908493042
286,-912.0,-11.0,-1964.0,1.0,-9569.0,-12599.0,163.0,-4258.0,0.0,-26.0,-115.0,-37.0,-8.0,-1.0,0.0,2.0,1.2457830905914307
287,-912.0,-11.0,-1964.0,1.0,-9569.0,-12599.0,163.0,-4258.0,-9.0,-37.0,76.0,35.0,22.0,-4.0,0.0,3.0,1.2480337619781494
288,-808.0,-124.0,-2484.0,1.0,-9807.0,-12512.0,-144.0,-3965.0,-9.0,-37.0,76.0,35.0,22.0,-4.0,0.0,3.0,1.24979829788208
289,-808.0,-124.0,-2484.0,1.0,-9807.0,-12512.0,-144.0,-3965.0,-43.0,-95.0,-19.0,18.0,-31.0,-41.0,-7.0,-10.0,1.2576026916503906
290,-808.0,-124.0,-2484.0,1.0,-9807.0,-12512.0,-144.0,-3965.0,-1.0,4.0,-25.0,6.0,24.0,5.0,-1.0,-2.0,1.2593810558319092
291,-829.0,-160.0,-2884.0,1.0,-10058.0,-12409.0,-503.0,-3617.0,-1.0,4.0,-25.0,6.0,24.0,5.0,-1.0,-2.0,1.2615573406219482
292,-829.0,-160.0,-2884.0,1.0,-10058.0,-12409.0,-503.0,-3617.0,1.0,49.0,-3.0,-18.0,1.0,1.0,4.0,2.0,1.2636597156524658
293,-829.0,-160.0,-2884.0,1.0,-10058.0,-12409.0,-503.0,-3617.0,-12.0,-64.0,-90.0,-14.0,-3.0,-4.0,-7.0,-2.0,1.2876501083374023
294,-862.0,-253.0,-3254.0,1.0,-10317.0,-12285.0,-902.0,-3209.0,-12.0,-64.0,-90.0,-14.0,-3.0,-4.0,-7.0,-2.0,1.2898902893066406
295,-862.0,-253.0,-3254.0,1.0,-10317.0,-12285.0,-902.0,-3209.0,22.0,11.0,6.0,-5.0,-1.0,13.0,4.0,13.0,1.2931499481201172
296,-862.0,-253.0,-3254.0,1.0,-10317.0,-12285.0,-902.0,-3209.0,-62.0,-16.0,-27.0,-16.0,-34.0,-9.0,-9.0,-17.0,1.3027417659759521
297,-1273.0,-303.0,-3633.0,1.0,-10627.0,-12091.0,-1325.0,-2754.0,-62.0,-16.0,-27.0,-16.0,-34.0,-9.0,-9.0,-17.0,1.305814266204834
298,-1273.0,-303.0,-3633.0,1.0,-10627.0,-12091.0,-1325.0,-2754.0,14.0,-11.0,-25.0,49.0,19.0,9.0,8.0,7.0,1.3093507289886475
299,-1273.0,-303.0,-3633.0,1.0,-10627.0,-12091.0,-1325.0,-2754.0,0.0,13.0,65.0,26.0,16.0,15.0,3.0,-6.0,1.3180384635925293
300,-1914.0,-440.0,-4083.0,1.0,-10995.0,-11809.0,-1753.0,-2248.0,0.0,13.0,65.0,26.0,16.0,15.0,3.0,-6.0,1.3246350288391113
301,-1914.0,-440.0,-4083.0,1.0,-10995.0,-11809.0,-1753.0,-2248.0,-3.0,-1.0,26.0,11.0,3.0,1.0,-2.0,2.0,1.3265206813812256
302,-1914.0,-440.0,-4083.0,1.0,-10995.0,-11809.0,-1753.0,-2248.0,-2.0,-2.0,9.0,-1.0,2.0,-2.0,-8.0,-2.0,1.3402040004730225
303,-2422.0,-793.0,-4493.0,1.0,-11414.0,-11434.0,-2174.0,-1651.0,-2.0,-2.0,9.0,-1.0,2.0,-2.0,-8.0,-2.0,1.3436329364776611
304,-2422.0,-793.0,-4493.0,1.0,-11414.0,-11434.0,-2174.0,-1651.0,16.0,1.0,-25.0,-5.0,10.0,6.0,3.0,1.0,1.347188949584961
305,-2422.0,-793.0,-4493.0,1.0,-11414.0,-11434.0,-2174.0,-1651.0,-8.0,-38.0,-27.0,-11.0,4.0,-4.0,-6.0,-11.0,1.364011526107788
306,-2818.0,-862.0,-4764.0,1.0,-11849.0,-10966.0,-2605.0,-1015.0,-8.0,-38.0,-27.0,-11.0,4.0,-4.0,-6.0,-11.0,1.3710930347442627
307,-2818.0,-862.0,-4764.0,1.0,-11849.0,-10966.0,-2605.0,-1015.0,-8.0,-38.0,-27.0,-11.0,4.0,-4.0,-6.0,-11.0,1.3752503395080566
308,-2818.0,-862.0,-4764.0,1.0,-11849.0,-10966.0,-2605.0,-1015.0,10.0,-23.0,-28.0,-3.0,6.0,2.0,3.0,6.0,1.3771395683288574
309,-2818.0,-862.0,-4764.0,1.0,-11849.0,-10966.0,-2605.0,-1015.0,-7.0,-4.0,24.0,11.0,4.0,4.0,1.0,-3.0,1.3859708309173584
310,-3267.0,-870.0,-4957.0,1.0,-12282.0,-10406.0,-3033.0,-375.0,-7.0,-4.0,24.0,11.0,4.0,4.0,1.0,-3.0,1.3893206119537354
311,-3267.0,-870.0,-4957.0,1.0,-12282.0,-10406.0,-3033.0,-375.0,-18.0,-11.0,15.0,-1.0,-42.0,4.0,13.0,-13.0,1.3918898105621338
312,-3267.0,-870.0,-4957.0,1.0,-12282.0,-10406.0,-3033.0,-375.0,19.0,15.0,0.0,12.0,15.0,-4.0,-24.0,-2.0,1.4150481224060059
313,-3748.0,-812.0,-4786.0,1.0,-12704.0,-9760.0,-3430.0,214.0,19.0,15.0,0.0,12.0,15.0,-4.0,-24.0,-2.0,1.4347474575042725
314,-3748.0,-812.0,-4786.0,1.0,-12704.0,-9760.0,-3430.0,214.0,-12.0,-25.0,-41.0,-11.0,-25.0,5.0,-24.0,-12.0,1.4437053203582764
315,-3748.0,-812.0,-4786.0,1.0,-12704.0,-9760.0,-3430.0,214.0,6.0,24.0,8.0,-8.0,-56.0,-8.0,2.0,0.0,1.4472954273223877
316,-4263.0,-777.0,-4604.0,1.0,-13119.0,-9023.0,-3792.0,743.0,6.0,24.0,8.0,-8.0,-56.0,-8.0,2.0,0.0,1.4496238231658936
317,-4263.0,-777.0,-4604.0,1.0,-13119.0,-9023.0,-3792.0,743.0,1.0,0.0,4.0,-8.0,55.0,18.0,14.0,10.0,1.4521722793579102
318,-4263.0,-777.0,-4604.0,1.0,-13119.0,-9023.0,-3792.0,743.0,7.0,-9.0,-17.0,2.0,44.0,-2.0,5.0,11.0,1.4539883136749268
319,-4770.0,-574.0,-4788.0,1.0,-13511.0,-8176.0,-4185.0,1248.0,7.0,-9.0,-17.0,2.0,44.0,-2.0,5.0,11.0,1.4557547569274902
320,-4770.0,-574.0,-4788.0,1.0,-13511.0,-8176.0,-4185.0,1248.0,1.0,9.0,13.0,-12.0,-2.0,1.0,-33.0,-2.0,1.457772970199585
321,-4770.0,-574.0,-4788.0,1.0,-13511.0,-8176.0,-4185.0,1248.0,-2.0,1.0,5.0,11.0,2.0,-3.0,-31.0,0.0,1.4682598114013672
322,-5031.0,-475.0,-4839.0,1.0,-13853.0,-7249.0,-4582.0,1736.0,-2.0,1.0,5.0,11.0,2.0,-3.0,-31.0,0.0,1.4702746868133545
323,-5031.0,-475.0,-4839.0,1.0,-13853.0,-7249.0,-4582.0,1736.0,-5.0,-10.0,-6.0,14.0,49.0,6.0,-16.0,0.0,1.4721338748931885
324,-5031.0,-475.0,-4839.0,1.0,-13853.0,-7249.0,-4582.0,1736.0,-8.0,-17.0,-8.0,-18.0,-6.0,1.0,-2.0,-9.0,1.4821536540985107
325,-4947.0,-485.0,-4827.0,1.0,-14123.0,-6287.0,-4954.0,2222.0,-8.0,-17.0,-8.0,-18.0,-6.0,1.0,-2.0,-9.0,1.4839494228363037
326,-4947.0,-485.0,-4827.0,1.0,-14123.0,-6287.0,-4954.0,2222.0,6.0,8.0,5.0,30.0,3.0,0.0,9.0,17.0,1.489062786102295
327,-4947.0,-485.0,-4827.0,1.0,-14123.0,-6287.0,-4954.0,2222.0,-12.0,-23.0,4.0,-12.0,11.0,6.0,9.0,-9.0,1.4974346160888672
328,-4678.0,-444.0,-4934.0,1.0,-14302.0,-5316.0,-5310.0,2730.0,-12.0,-23.0,4.0,-12.0,11.0,6.0,9.0,-9.0,1.5000011920928955
329,-4678.0,-444.0,-4934.0,1.0,-14302.0,-5316.0,-5310.0,2730.0,-3.0,1.0,-5.0,-29.0,-14.0,-12.0,5.0,-7.0,1.50355863571167
330,-4678.0,-444.0,-4934.0,1.0,-14302.0,-5316.0,-5310.0,2730.0,5.0,-6.0,-8.0,46.0,2.0,0.0,18.0,12.0,1.5198688507080078
331,-4341.0,-415.0,-5045.0,1.0,-14387.0,-4354.0,-5643.0,3266.0,5.0,-6.0,-8.0,46.0,2.0,0.0,18.0,12.0,1.5217351913452148
332,-4341.0,-415.0,-5045.0,1.0,-14387.0,-4354.0,-5643.0,3266.0,4.0,14.0,2.0,45.0,51.0,12.0,15.0,-9.0,1.5264382362365723
333,-4341.0,-415.0,-5045.0,1.0,-14387.0,-4354.0,-5643.0,3266.0,16.0,27.0,22.0,-26.0,28.0,-20.0,45.0,19.0,1.5504014492034912
334,-4142.0,-377.0,-5077.0,1.0,-14388.0,-3390.0,-5955.0,3806.0,16.0,27.0,22.0,-26.0,28.0,-20.0,45.0,19.0,1.5522575378417969
335,-4142.0,-377.0,-5077.0,1.0,-14388.0,-3390.0,-5955.0,3806.0,-4.0,2.0,-10.0,-58.0,-43.0,-2.0,26.0,-8.0,1.554520845413208
336,-4142.0,-377.0,-5077.0,1.0,-14388.0,-3390.0,-5955.0,3806.0,11.0,10.0,22.0,38.0,82.0,31.0,23.0,35.0,1.5567104816436768
337,-3986.0,-284.0,-4911.0,1.0,-14313.0,-2432.0,-6249.0,4317.0,11.0,10.0,22.0,38.0,82.0,31.0,23.0,35.0,1.5646874904632568
338,-3986.0,-284.0,-4911.0,1.0,-14313.0,-2432.0,-6249.0,4317.0,11.0,10.0,22.0,38.0,82.0,31.0,23.0,35.0,1.5671226978302002
339,-3986.0,-284.0,-4911.0,1.0,-14313.0,-2432.0,-6249.0,4317.0,-5.0,7.0,-2.0,4.0,92.0,-58.0,-20.0,23.0,1.5800292491912842
340,-3986.0,-284.0,-4911.0,1.0,-14313.0,-2432.0,-6249.0,4317.0,2.0,8.0,0.0,-16.0,-54.0,27.0,45.0,60.0,1.5831117630004883
341,-3612.0,-257.0,-4474.0,1.0,-14174.0,-1535.0,-6513.0,4771.0,2.0,8.0,0.0,-16.0,-54.0,27.0,45.0,60.0,1.5862486362457275
342,-3612.0,-257.0,-4474.0,1.0,-14174.0,-1535.0,-6513.0,4771.0,3.0,8.0,28.0,107.0,79.0,-2.0,-15.0,28.0,1.589669942855835
343,-3612.0,-257.0,-4474.0,1.0,-14174.0,-1535.0,-6513.0,4771.0,-3.0,-6.0,-19.0,-13.0,-92.0,21.0,-64.0,-32.0,1.60198974609375
344,-3512.0,-32.0,-3641.0,1.0,-14025.0,-731.0,-6742.0,5077.0,-3.0,-6.0,-19.0,-13.0,-92.0,21.0,-64.0,-32.0,1.6041476726531982
345,-3512.0,-32.0,-3641.0,1.0,-14025.0,-731.0,-6742.0,5077.0,-7.0,-6.0,-3.0,-30.0,-2.0,26.0,-67.0,-26.0,1.6083695888519287
346,-3512.0,-32.0,-3641.0,1.0,-14025.0,-731.0,-6742.0,5077.0,-8.0,1.0,-12.0,-89.0,69.0,40.0,23.0,-5.0,1.6169321537017822
347,-1990.0,495.0,-2661.0,1.0,-13847.0,-258.0,-6944.0,5330.0,-8.0,1.0,-12.0,-89.0,69.0,40.0,23.0,-5.0,1.6190786361694336
348,-1990.0,495.0,-2661.0,1.0,-13847.0,-258.0,-6944.0,5330.0,-2.0,5.0,-5.0,-19.0,-83.0,-66.0,-10.0,-25.0,1.624668836593628
349,-1990.0,495.0,-2661.0,1.0,-13847.0,-258.0,-6944.0,5330.0,13.0,-1.0,-2.0,31.0,20.0,52.0,60.0,11.0,1.6405606269836426
350,-114.0,1332.0,-1880.0,1.0,-13633.0,-176.0,-7155.0,5600.0,13.0,-1.0,-2.0,31.0,20.0,52.0,60.0,11.0,1.647740125656128
351,-114.0,1332.0,-1880.0,1.0,-13633.0,-176.0,-7155.0,5600.0,5.0,13.0,26.0,29.0,10.0,-20.0,104.0,-12.0,1.650815486907959
352,-114.0,1332.0,-1880.0,1.0,-13633.0,-176.0,-7155.0,5600.0,-7.0,-5.0,-1.0,-29.0,-99.0,-63.0,-64.0,-29.0,1.6635501384735107
353,601.0,1414.0,-743.0,1.0,-13474.0,-294.0,-7329.0,5754.0,-7.0,-5.0,-1.0,-29.0,-99.0,-63.0,-64.0,-29.0,1.667609453201294
354,601.0,1414.0,-743.0,1.0,-13474.0,-294.0,-7329.0,5754.0,21.0,4.0,-16.0,-31.0,52.0,121.0,110.0,91.0,1.671795129776001
355,601.0,1414.0,-743.0,1.0,-13474.0,-294.0,-7329.0,5754.0,-9.0,-1.0,3.0,3.0,-2.0,-104.0,-128.0,-47.0,1.6779694557189941
356,1841.0,1241.0,1157.0,1.0,-13436.0,-735.0,-7389.0,5725.0,-9.0,-1.0,3.0,3.0,-2.0,-104.0,-128.0,-47.0,1.6797761917114258
357,1841.0,1241.0,1157.0,1.0,-13436.0,-735.0,-7389.0,5725.0,-9.0,-8.0,-18.0,-23.0,-128.0,-43.0,-44.0,-43.0,1.6842384338378906
358,1841.0,1241.0,1157.0,1.0,-13436.0,-735.0,-7389.0,5725.0,-2.0,-2.0,1.0,12.0,87.0,34.0,83.0,20.0,1.708174705505371
359,3609.0,1314.0,3556.0,1.0,-13502.0,-1630.0,-7316.0,5475.0,-2.0,-2.0,1.0,12.0,87.0,34.0,83.0,20.0,1.7105093002319336
360,3609.0,1314.0,3556.0,1.0,-13502.0,-1630.0,-7316.0,5475.0,19.0,11.0,7.0,-7.0,8.0,-59.0,9.0,32.0,1.7147438526153564
361,3609.0,1314.0,3556.0,1.0,-13502.0,-1630.0,-7316.0,5475.0,1.0,8.0,8.0,41.0,-62.0,1.0,51.0,6.0,1.7225587368011475
362,4482.0,1766.0,5787.0,1.0,-13591.0,-2837.0,-7162.0,4938.0,1.0,8.0,8.0,41.0,-62.0,1.0,51.0,6.0,1.7245028018951416
363,4482.0,1766.0,5787.0,1.0,-13591.0,-2837.0,-7162.0,4938.0,-10.0,-13.0,-21.0,-33.0,74.0,-18.0,-50.0,-31.0,1.7369873523712158
364,4482.0,1766.0,5787.0,1.0,-13591.0,-2837.0,-7162.0,4938.0,2.0,-5.0,-10.0,-101.0,-7.0,64.0,-3.0,12.0,1.7387804985046387
365,4897.0,2417.0,7831.0,1.0,-13599.0,-4282.0,-6977.0,4063.0,2.0,-5.0,-10.0,-101.0,-7.0,64.0,-3.0,12.0,1.7634851932525635
366,4897.0,2417.0,7831.0,1.0,-13599.0,-4282.0,-6977.0,4063.0,3.0,4.0,11.0,29.0,90.0,120.0,89.0,78.0,1.7669029235839844
367,4897.0,2417.0,7831.0,1.0,-13599.0,-4282.0,-6977.0,4063.0,20.0,18.0,16.0,87.0,113.0,-81.0,-63.0,-6.0,1.7692821025848389
368,5385.0,3095.0,9600.0,1.0,-13434.0,-5903.0,-6697.0,2881.0,20.0,18.0,16.0,87.0,113.0,-81.0,-63.0,-6.0,1.7712552547454834
369,5385.0,3095.0,9600.0,1.0,-13434.0,-5903.0,-6697.0,2881.0,-12.0,-1.0,-1.0,-68.0,-128.0,-99.0,-50.0,-54.0,1.7897629737854004
370,5385.0,3095.0,9600.0,1.0,-13434.0,-5903.0,-6697.0,2881.0,-12.0,-12.0,-2.0,6.0,30.0,-31.0,55.0,-24.0,1.8003928661346436
371,5515.0,3391.0,10824.0,1.0,-13048.0,-7537.0,-6265.0,1466.0,-12.0,-12.0,-2.0,6.0,30.0,-31.0,55.0,-24.0,1.8035635948181152
372,5515.0,3391.0,10824.0,1.0,-13048.0,-7537.0,-6265.0,1466.0,-19.0,5.0,11.0,-88.0,-20.0,9.0,-56.0,-11.0,1.8068485260009766
373,5515.0,3391.0,10824.0,1.0,-13048.0,-7537.0,-6265.0,1466.0,24.0,16.0,-18.0,54.0,-41.0,-39.0,-25.0,23.0,1.8101284503936768
374,5341.0,3110.0,11192.0,1.0,-12455.0,-9025.0,-5647.0,-17.0,24.0,16.0,-18.0,54.0,-41.0,-39.0,-25.0,23.0,1.8146202564239502
375,5341.0,3110.0,11192.0,1.0,-12455.0,-9025.0,-5647.0,-17.0,24.0,16.0,-18.0,54.0,-41.0,-39.0,-25.0,23.0,1.8167524337768555
376,5341.0,3110.0,11192.0,1.0,-12455.0,-9025.0,-5647.0,-17.0,80.0,-56.0,-54.0,9.0,109.0,93.0,23.0,-5.0,1.8288538455963135
377,5341.0,3110.0,11192.0,1.0,-12455.0,-9025.0,-5647.0,-17.0,-47.0,24.0,74.0,14.0,50.0,37.0,27.0,-35.0,1.8320684432983398
378,5719.0,2761.0,10350.0,1.0,-11618.0,-10349.0,-4961.0,-1332.0,-47.0,24.0,74.0,14.0,50.0,37.0,27.0,-35.0,1.8352947235107422
379,5719.0,2761.0,10350.0,1.0,-11618.0,-10349.0,-4961.0,-1332.0,-105.0,54.0,115.0,-24.0,-67.0,-106.0,-83.0,-82.0,1.8383901119232178
380,5719.0,2761.0,10350.0,1.0,-11618.0,-10349.0,-4961.0,-1332.0,-85.0,-75.0,26.0,33.0,-71.0,4.0,-35.0,-83.0,1.8414132595062256
381,4748.0,2906.0,7783.0,1.0,-10754.0,-11268.0,-4495.0,-2376.0,-85.0,-75.0,26.0,33.0,-71.0,4.0,-35.0,-83.0,1.8432016372680664
382,4748.0,2906.0,7783.0,1.0,-10754.0,-11268.0,-4495.0,-2376.0,111.0,55.0,62.0,-77.0,41.0,127.0,60.0,-26.0,1.8831212520599365
383,4748.0,2906.0,7783.0,1.0,-10754.0,-11268.0,-4495.0,-2376.0,-109.0,-80.0,-105.0,-27.0,45.0,72.0,40.0,8.0,1.8864552974700928
384,2996.0,1919.0,5278.0,1.0,-10130.0,-11800.0,-4139.0,-3077.0,-109.0,-80.0,-105.0,-27.0,45.0,72.0,40.0,8.0,1.8885366916656494
385,2996.0,1919.0,5278.0,1.0,-10130.0,-11800.0,-4139.0,-3077.0,2.0,28.0,39.0,46.0,-73.0,-13.0,-73.0,-5.0,1.8904073238372803
386,2996.0,1919.0,5278.0,1.0,-10130.0,-11800.0,-4139.0,-3077.0,-45.0,-69.0,-49.0,102.0,69.0,82.0,-97.0,-111.0,1.8921608924865723
387,877.0,-649.0,678.0,1.0,-10023.0,-11948.0,-4009.0,-3029.0,-45.0,-69.0,-49.0,102.0,69.0,82.0,-97.0,-111.0,1.8939473628997803
388,877.0,-649.0,678.0,1.0,-10023.0,-11948.0,-4009.0,-3029.0,73.0,53.0,-128.0,23.0,-108.0,-109.0,78.0,-47.0,1.8958024978637695
389,877.0,-649.0,678.0,1.0,-10023.0,-11948.0,-4009.0,-3029.0,111.0,31.0,120.0,24.0,87.0,67.0,-22.0,115.0,1.9018027782440186
390,104.0,-554.0,1797.0,1.0,-9985.0,-12043.0,-3720.0,-3145.0,111.0,31.0,120.0,24.0,87.0,67.0,-22.0,115.0,1.917069673538208
391,104.0,-554.0,1797.0,1.0,-9985.0,-12043.0,-3720.0,-3145.0,27.0,-49.0,-4.0,20.0,29.0,-35.0,31.0,10.0,1.9259264469146729
392,104.0,-554.0,1797.0,1.0,-9985.0,-12043.0,-3720.0,-3145.0,-21.0,51.0,-104.0,-113.0,-1.0,17.0,127.0,119.0,1.9340717792510986
393,1147.0,849.0,4274.0,1.0,-9683.0,-12266.0,-3311.0,-3644.0,-21.0,51.0,-104.0,-113.0,-1.0,17.0,127.0,119.0,1.9373364448547363
394,1147.0,849.0,4274.0,1.0,-9683.0,-12266.0,-3311.0,-3644.0,1.0,20.0,31.0,28.0,86.0,78.0,-89.0,8.0,1.940643072128296
395,1147.0,849.0,4274.0,1.0,-9683.0,-12266.0,-3311.0,-3644.0,127.0,-12.0,52.0,-107.0,-13.0,28.0,-55.0,-76.0,1.9437758922576904
396,1878.0,444.0,2473.0,1.0,-9344.0,-12504.0,-3102.0,-3897.0,127.0,-12.0,52.0,-107.0,-13.0,28.0,-55.0,-76.0,1.9466121196746826
397,1878.0,444.0,2473.0,1.0,-9344.0,-12504.0,-3102.0,-3897.0,-67.0,-76.0,-27.0,-16.0,34.0,93.0,-29.0,108.0,1.9485604763031006
398,1878.0,444.0,2473.0,1.0,-9344.0,-12504.0,-3102.0,-3897.0,12.0,25.0,-35.0,16.0,-101.0,-128.0,-99.0,-90.0,1.962571144104004
399,1547.0,823.0,2201.0,1.0,-9033.0,-12673.0,-2942.0,-4196.0,12.0,25.0,-35.0,16.0,-101.0,-128.0,-99.0,-90.0,1.9656131267547607
400,1547.0,823.0,2201.0,1.0,-9033.0,-12673.0,-2942.0,-4196.0,96.0,105.0,41.0,127.0,49.0,61.0,8.0,-23.0,1.9701614379882812
401,1547.0,823.0,2201.0,1.0,-9033.0,-12673.0,-2942.0,-4196.0,87.0,-28.0,59.0,-8.0,17.0,48.0,127.0,127.0,1.9772415161132812
402,571.0,624.0,1587.0,1.0,-8933.0,-12681.0,-2769.0,-4493.0,87.0,-28.0,59.0,-8.0,17.0,48.0,127.0,127.0,1.9795067310333252
403,571.0,624.0,1587.0,1.0,-8933.0,-12681.0,-2769.0,-4493.0,-49.0,-28.0,49.0,-2.0,-14.0,-125.0,-71.0,-4.0,1.9841325283050537
404,571.0,624.0,1587.0,1.0,-8933.0,-12681.0,-2769.0,-4493.0,1.0,24.0,-5.0,-50.0,-49.0,-8.0,-22.0,-23.0,2.0093934535980225
405,164.0,323.0,672.0,1.0,-8879.0,-12686.0,-2693.0,-4631.0,1.0,24.0,-5.0,-50.0,-49.0,-8.0,-22.0,-23.0,2.0142807960510254
406,164.0,323.0,672.0,1.0,-8879.0,-12686.0,-2693.0,-4631.0,18.0,-47.0,-24.0,91.0,-110.0,-63.0,-38.0,31.0,2.016151189804077
407,164.0,323.0,672.0,1.0,-8879.0,-12686.0,-2693.0,-4631.0,-125.0,-100.0,-85.0,50.0,33.0,-80.0,-49.0,-40.0,2.0220723152160645
408,112.0,351.0,340.0,1.0,-8834.0,-12685.0,-2670.0,-4730.0,-125.0,-100.0,-85.0,50.0,33.0,-80.0,-49.0,-40.0,2.0248630046844482
409,112.0,351.0,340.0,1.0,-8834.0,-12685.0,-2670.0,-4730.0,-13.0,1.0,-31.0,18.0,121.0,56.0,76.0,-52.0,2.029085397720337
410,112.0,351.0,340.0,1.0,-8834.0,-12685.0,-2670.0,-4730.0,-43.0,-13.0,7.0,-59.0,-9.0,-25.0,-12.0,9.0,2.046178102493286
411,212.0,414.0,-43.0,1.0,-8777.0,-12694.0,-2717.0,-4785.0,-43.0,-13.0,7.0,-59.0,-9.0,-25.0,-12.0,9.0,2.049582004547119
412,212.0,414.0,-43.0,1.0,-8777.0,-12694.0,-2717.0,-4785.0,-108.0,-67.0,28.0,-104.0,-112.0,-2.0,12.0,-42.0,2.052000045776367
413,212.0,414.0,-43.0,1.0,-8777.0,-12694.0,-2717.0,-4785.0,-9.0,41.0,82.0,127.0,-17.0,61.0,-36.0,-81.0,2.0590550899505615
414,102.0,278.0,-233.0,1.0,-8751.0,-12690.0,-2766.0,-4815.0,-9.0,41.0,82.0,127.0,-17.0,61.0,-36.0,-81.0,2.067736864089966
415,102.0,278.0,-233.0,1.0,-8751.0,-12690.0,-2766.0,-4815.0,3.0,-97.0,-69.0,-122.0,-54.0,22.0,1.0,67.0,2.07088303565979
416,102.0,278.0,-233.0,1.0,-8751.0,-12690.0,-2766.0,-4815.0,69.0,102.0,14.0,72.0,-64.0,-48.0,101.0,82.0,2.0844309329986572
417,-222.0,258.0,-297.0,1.0,-8772.0,-12659.0,-2814.0,-4831.0,69.0,102.0,14.0,72.0,-64.0,-48.0,101.0,82.0,2.0882010459899902
418,-222.0,258.0,-297.0,1.0,-8772.0,-12659.0,-2814.0,-4831.0,26.0,-44.0,-75.0,127.0,125.0,27.0,-5.0,12.0,2.090862512588501
419,-222.0,258.0,-297.0,1.0,-8772.0,-12659.0,-2814.0,-4831.0,39.0,28.0,3.0,-98.0,35.0,-11.0,-2.0,18.0,2.096792459487915
420,-411.0,315.0,-132.0,1.0,-8794.0,-12625.0,-2842.0,-4864.0,39.0,28.0,3.0,-98.0,35.0,-11.0,-2.0,18.0,2.105396270751953
421,-411.0,315.0,-132.0,1.0,-8794.0,-12625.0,-2842.0,-4864.0,-41.0,-19.0,-33.0,-84.0,107.0,35.0,127.0,-34.0,2.111891269683838
422,-411.0,315.0,-132.0,1.0,-8794.0,-12625.0,-2842.0,-4864.0,-88.0,-109.0,-65.0,-39.0,74.0,-53.0,-118.0,-125.0,2.119171380996704
423,-403.0,363.0,31.0,1.0,-8797.0,-12600.0,-2852.0,-4917.0,-88.0,-109.0,-65.0,-39.0,74.0,-53.0,-118.0,-125.0,2.121028184890747
424,-403.0,363.0,31.0,1.0,-8797.0,-12600.0,-2852.0,-4917.0,53.0,36.0,-27.0,-15.0,43.0,-37.0,39.0,37.0,2.126451015472412
425,-403.0,363.0,31.0,1.0,-8797.0,-12600.0,-2852.0,-4917.0,1.0,55.0,-19.0,-32.0,-4.0,34.0,82.0,-1.0,2.1508524417877197
426,-327.0,333.0,66.0,1.0,-8774.0,-12596.0,-2854.0,-4968.0,1.0,55.0,-19.0,-32.0,-4.0,34.0,82.0,-1.0,2.1538119316101074
427,-327.0,333.0,66.0,1.0,-8774.0,-12596.0,-2854.0,-4968.0,-56.0,-73.0,-30.0,34.0,-13.0,-12.0,6.0,-47.0,2.1577625274658203
428,-327.0,333.0,66.0,1.0,-8774.0,-12596.0,-2854.0,-4968.0,26.0,15.0,-9.0,-9.0,44.0,8.0,-38.0,-3.0,2.160130739212036
429,-354.0,164.0,96.0,1.0,-8791.0,-12577.0,-2848.0,-4990.0,26.0,15.0,-9.0,-9.0,44.0,8.0,-38.0,-3.0,2.17339825630188
430,-354.0,164.0,96.0,1.0,-8791.0,-12577.0,-2848.0,-4990.0,-17.0,17.0,94.0,3.0,-17.0,2.0,71.0,11.0,2.1769425868988037
431,-354.0,164.0,96.0,1.0,-8791.0,-12577.0,-2848.0,-4990.0,-14.0,10.0,79.0,-15.0,-29.0,-17.0,24.0,0.0,2.181560754776001
432,-450.0,37.0,43.0,1.0,-8816.0,-12558.0,-2816.0,-5010.0,-14.0,10.0,79.0,-15.0,-29.0,-17.0,24.0,0.0,2.1855413913726807
433,-450.0,37.0,43.0,1.0,-8816.0,-12558.0,-2816.0,-5010.0,14.0,1.0,-5.0,-18.0,17.0,-54.0,46.0,61.0,2.187767267227173
434,-450.0,37.0,43.0,1.0,-8816.0,-12558.0,-2816.0,-5010.0,40.0,66.0,90.0,0.0,6.0,17.0,-54.0,77.0,2.2026965618133545
435,-236.0,17.0,28.0,1.0,-8813.0,-12556.0,-2780.0,-5040.0,40.0,66.0,90.0,0.0,6.0,17.0,-54.0,77.0,2.20621657371521
436,-236.0,17.0,28.0,1.0,-8813.0,-12556.0,-2780.0,-5040.0,14.0,127.0,80.0,2.0,14.0,17.0,-72.0,-37.0,2.2182257175445557
437,-236.0,17.0,28.0,1.0,-8813.0,-12556.0,-2780.0,-5040.0,-3.0,-51.0,24.0,0.0,35.0,20.0,3.0,9.0,2.221386671066284
438,-23.0,84.0,2.0,1.0,-8789.0,-12567.0,-2775.0,-5059.0,-3.0,-51.0,24.0,0.0,35.0,20.0,3.0,9.0,2.225215196609497
439,-23.0,84.0,2.0,1.0,-8789.0,-12567.0,-2775.0,-5059.0,-13.0,-5.0,18.0,-1.0,-92.0,28.0,-48.0,-50.0,2.2283177375793457
440,-23.0,84.0,2.0,1.0,-8789.0,-12567.0,-2775.0,-5059.0,-8.0,10.0,80.0,-7.0,-19.0,-12.0,62.0,-14.0,2.2398500442504883
441,38.0,46.0,-22.0,1.0,-8768.0,-12577.0,-2776.0,-5069.0,-8.0,10.0,80.0,-7.0,-19.0,-12.0,62.0,-14.0,2.243037223815918
442,38.0,46.0,-22.0,1.0,-8768.0,-12577.0,-2776.0,-5069.0,13.0,19.0,44.0,3.0,-17.0,-21.0,-16.0,-3.0,2.247208833694458
443,38.0,46.0,-22.0,1.0,-8768.0,-12577.0,-2776.0,-5069.0,-13.0,-68.0,-121.0,-1.0,21.0,27.0,-50.0,-17.0,2.2628233432769775
444,-41.0,51.0,17.0,1.0,-8763.0,-12575.0,-2768.0,-5088.0,-13.0,-68.0,-121.0,-1.0,21.0,27.0,-50.0,-17.0,2.2661824226379395
445,-41.0,51.0,17.0,1.0,-8763.0,-12575.0,-2768.0,-5088.0,-7.0,-1.0,8.0,3.0,36.0,-6.0,53.0,12.0,2.26973557472229
446,-41.0,51.0,17.0,1.0,-8763.0,-12575.0,-2768.0,-5088.0,-42.0,-56.0,16.0,3.0,-28.0,22.0,15.0,3.0,2.2852206230163574
447,-49.0,72.0,124.0,1.0,-8760.0,-12568.0,-2746.0,-5122.0,-42.0,-56.0,16.0,3.0,-28.0,22.0,15.0,3.0,2.2870352268218994
448,-49.0,72.0,124.0,1.0,-8760.0,-12568.0,-2746.0,-5122.0,-27.0,11.0,-75.0,1.0,-118.0,-22.0,-74.0,-54.0,2.288872480392456
449,-49.0,72.0,124.0,1.0,-8760.0,-12568.0,-2746.0,-5122.0,25.0,48.0,-68.0,4.0,-86.0,-51.0,-21.0,-6.0,2.3090639114379883
450,35.0,53.0,165.0,1.0,-8741.0,-12573.0,-2724.0,-5153.0,25.0,48.0,-68.0,4.0,-86.0,-51.0,-21.0,-6.0,2.3124423027038574
451,35.0,53.0,165.0,1.0,-8741.0,-12573.0,-2724.0,-5153.0,-33.0,-21.0,60.0,-3.0,31.0,-10.0,-12.0,-85.0,2.3152594566345215
452,35.0,53.0,165.0,1.0,-8741.0,-12573.0,-2724.0,-5153.0,14.0,-25.0,-32.0,-6.0,69.0,-5.0,39.0,-7.0,2.322040319442749
453,81.0,54.0,220.0,1.0,-8720.0,-12581.0,-2703.0,-5181.0,14.0,-25.0,-32.0,-6.0,69.0,-5.0,39.0,-7.0,2.323852300643921
454,81.0,54.0,220.0,1.0,-8720.0,-12581.0,-2703.0,-5181.0,22.0,-50.0,7.0,-3.0,-24.0,-8.0,-93.0,15.0,2.3467814922332764
455,81.0,54.0,220.0,1.0,-8720.0,-12581.0,-2703.0,-5181.0,36.0,84.0,41.0,-4.0,119.0,23.0,-20.0,14.0,2.350515604019165
456,-87.0,43.0,254.0,1.0,-8717.0,-12578.0,-2669.0,-5211.0,36.0,84.0,41.0,-4.0,119.0,23.0,-20.0,14.0,2.353729009628296
457,-87.0,43.0,254.0,1.0,-8717.0,-12578.0,-2669.0,-5211.0,-52.0,-76.0,-58.0,4.0,48.0,-35.0,-9.0,21.0,2.357375144958496
458,-87.0,43.0,254.0,1.0,-8717.0,-12578.0,-2669.0,-5211.0,55.0,4.0,30.0,-1.0,-21.0,-9.0,-30.0,37.0,2.3767144680023193
459,-56.0,78.0,273.0,1.0,-8700.0,-12580.0,-2632.0,-5252.0,55.0,4.0,30.0,-1.0,-21.0,-9.0,-30.0,37.0,2.3877055644989014
460,-56.0,78.0,273.0,1.0,-8700.0,-12580.0,-2632.0,-5252.0,-16.0,-11.0,-81.0,-3.0,51.0,0.0,8.0,6.0,2.391138792037964
461,-56.0,78.0,273.0,1.0,-8700.0,-12580.0,-2632.0,-5252.0,-25.0,-47.0,-47.0,-1.0,-109.0,-11.0,-4.0,-62.0,2.3939664363861084
462,60.0,59.0,252.0,1.0,-8666.0,-12598.0,-2608.0,-5277.0,-25.0,-47.0,-47.0,-1.0,-109.0,-11.0,-4.0,-62.0,2.396927833557129
463,60.0,59.0,252.0,1.0,-8666.0,-12598.0,-2608.0,-5277.0,30.0,29.0,15.0,1.0,-63.0,4.0,5.0,-1.0,2.3998448848724365
464,60.0,59.0,252.0,1.0,-8666.0,-12598.0,-2608.0,-5277.0,-3.0,8.0,-8.0,3.0,15.0,9.0,18.0,65.0,2.4023406505584717
465,78.0,48.0,255.0,1.0,-8635.0,-12615.0,-2588.0,-5297.0,-3.0,8.0,-8.0,3.0,15.0,9.0,18.0,65.0,2.4122354984283447
466,78.0,48.0,255.0,1.0,-8635.0,-12615.0,-2588.0,-5297.0,25.0,30.0,-1.0,-4.0,47.0,18.0,-54.0,6.0,2.41416335105896
467,78.0,48.0,255.0,1.0,-8635.0,-12615.0,-2588.0,-5297.0,-16.0,11.0,40.0,1.0,-50.0,-20.0,-7.0,-14.0,2.4351389408111572
468,7.0,11.0,288.0,1.0,-8625.0,-12621.0,-2560.0,-5314.0,-16.0,11.0,40.0,1.0,-50.0,-20.0,-7.0,-14.0,2.4369521141052246
469,7.0,11.0,288.0,1.0,-8625.0,-12621.0,-2560.0,-5314.0,50.0,-9.0,-5.0,-7.0,48.0,-3.0,26.0,55.0,2.4389212131500244
470,7.0,11.0,288.0,1.0,-8625.0,-12621.0,-2560.0,-5314.0,-15.0,-13.0,-18.0,-1.0,8.0,11.0,5.0,-95.0,2.4408719539642334
471,2.0,-15.0,274.0,1.0,-8613.0,-12629.0,-2530.0,-5327.0,-15.0,-13.0,-18.0,-1.0,8.0,11.0,5.0,-95.0,2.4503021240234375
472,2.0,-15.0,274.0,1.0,-8613.0,-12629.0,-2530.0,-5327.0,-27.0,-33.0,-13.0,6.0,-47.0,-12.0,-25.0,-13.0,2.4677085876464844
473,2.0,-15.0,274.0,1.0,-8613.0,-12629.0,-2530.0,-5327.0,27.0,53.0,40.0,-2.0,-57.0,-8.0,66.0,11.0,2.4711251258850098
474,137.0,-45.0,214.0,1.0,-8578.0,-12656.0,-2507.0,-5331.0,27.0,53.0,40.0,-2.0,-57.0,-8.0,66.0,11.0,2.474492311477661
475,137.0,-45.0,214.0,1.0,-8578.0,-12656.0,-2507.0,-5331.0,-34.0,-23.0,0.0,4.0,97.0,49.0,23.0,-11.0,2.4784116744995117
476,137.0,-45.0,214.0,1.0,-8578.0,-12656.0,-2507.0,-5331.0,-9.0,-9.0,-62.0,4.0,19.0,18.0,-28.0,55.0,2.4804911613464355
477,164.0,-48.0,162.0,1.0,-8549.0,-12680.0,-2498.0,-5325.0,-9.0,-9.0,-62.0,4.0,19.0,18.0,-28.0,55.0,2.504361867904663
478,164.0,-48.0,162.0,1.0,-8549.0,-12680.0,-2498.0,-5325.0,11.0,42.0,39.0,1.0,-69.0,-13.0,-19.0,40.0,2.507903575897217
479,164.0,-48.0,162.0,1.0,-8549.0,-12680.0,-2498.0,-5325.0,-26.0,-32.0,-24.0,-4.0,46.0,-7.0,-103.0,-62.0,2.5114550590515137
480,116.0,-43.0,139.0,1.0,-8530.0,-12698.0,-2492.0,-5316.0,-26.0,-32.0,-24.0,-4.0,46.0,-7.0,-103.0,-62.0,2.51455020904541
481,116.0,-43.0,139.0,1.0,-8530.0,-12698.0,-2492.0,-5316.0,25.0,38.0,30.0,-10.0,-61.0,-4.0,-54.0,-56.0,2.5166943073272705
482,116.0,-43.0,139.0,1.0,-8530.0,-12698.0,-2492.0,-5316.0,4.0,-19.0,59.0,5.0,32.0,1.0,-19.0,-3.0,2.534207344055176
483,115.0,-49.0,104.0,1.0,-8511.0,-12715.0,-2485.0,-5309.0,4.0,-19.0,59.0,5.0,32.0,1.0,-19.0,-3.0,2.5373806953430176
484,115.0,-49.0,104.0,1.0,-8511.0,-12715.0,-2485.0,-5309.0,-52.0,-30.0,-23.0,5.0,-10.0,24.0,50.0,10.0,2.5399258136749268
485,115.0,-49.0,104.0,1.0,-8511.0,-12715.0,-2485.0,-5309.0,-6.0,-47.0,-42.0,0.0,-10.0,0.0,-1.0,13.0,2.541754722595215
486,131.0,-20.0,75.0,1.0,-8488.0,-12732.0,-2484.0,-5305.0,-6.0,-47.0,-42.0,0.0,-10.0,0.0,-1.0,13.0,2.543532133102417
487,131.0,-20.0,75.0,1.0,-8488.0,-12732.0,-2484.0,-5305.0,-7.0,14.0,-41.0,-3.0,55.0,-45.0,12.0,55.0,2.571631908416748
488,131.0,-20.0,75.0,1.0,-8488.0,-12732.0,-2484.0,-5305.0,7.0,33.0,7.0,3.0,30.0,10.0,26.0,46.0,2.5750513076782227
489,97.0,9.0,66.0,1.0,-8472.0,-12743.0,-2486.0,-5304.0,7.0,33.0,7.0,3.0,30.0,10.0,26.0,46.0,2.5787277221679688
490,97.0,9.0,66.0,1.0,-8472.0,-12743.0,-2486.0,-5304.0,11.0,6.0,21.0,1.0,14.0,32.0,55.0,2.0,2.586869955062866
491,97.0,9.0,66.0,1.0,-8472.0,-12743.0,-2486.0,-5304.0,-1.0,29.0,29.0,-3.0,13.0,-22.0,4.0,-8.0,2.588831901550293
492,90.0,19.0,74.0,1.0,-8455.0,-12754.0,-2488.0,-5304.0,-1.0,29.0,29.0,-3.0,13.0,-22.0,4.0,-8.0,2.5908188819885254
493,90.0,19.0,74.0,1.0,-8455.0,-12754.0,-2488.0,-5304.0,22.0,-1.0,-7.0,-1.0,-6.0,-10.0,28.0,14.0,2.5929224491119385
494,90.0,19.0,74.0,1.0,-8455.0,-12754.0,-2488.0,-5304.0,-8.0,-22.0,54.0,-3.0,-60.0,-28.0,-15.0,-10.0,2.600067615509033
495,69.0,10.0,79.0,1.0,-8442.0,-12763.0,-2488.0,-5302.0,-8.0,-22.0,54.0,-3.0,-60.0,-28.0,-15.0,-10.0,2.6020400524139404
496,69.0,10.0,79.0,1.0,-8442.0,-12763.0,-2488.0,-5302.0,-4.0,25.0,63.0,0.0,-34.0,12.0,-7.0,-8.0,2.606207847595215
497,69.0,10.0,79.0,1.0,-8442.0,-12763.0,-2488.0,-5302.0,-35.0,-5.0,-93.0,-1.0,5.0,-8.0,-50.0,-35.0,2.621699333190918
498,-3.0,32.0,67.0,1.0,-8435.0,-12767.0,-2487.0,-5305.0,-35.0,-5.0,-93.0,-1.0,5.0,-8.0,-50.0,-35.0,2.638132333755493
499,-3.0,32.0,67.0,1.0,-8435.0,-12767.0,-2487.0,-5305.0,30.0,40.0,45.0,-1.0,40.0,3.0,5.0,7.0,2.6420319080352783
