Gyro 0,Gyro 1,Gyro 2,Orientation 0,Orientation 1,Orientation 2,Orientation 3,Sensor 0,Sensor 1,Sensor 2,Sensor 3,Sensor 4,Sensor 5,Sensor 6,Sensor 7,Sensor Mean,Sensor Variance,Gyro Mean,Gyro Variance,Orientation Mean,Orientation Variance,Label
25.449206925777947,9.865665236051512,-52.14139693356048,127.0,-102.49611748818364,126.99999999999999,-127.0,10.26808510638298,3.25641025641025,10.297297297297314,-7.470588235294115,-24.974895397489544,-8.698630136986292,20.801724137931043,29.75428571428573,14.44023953525966,89.59406698405314,29.15208969846331,1684.6707229597255,63.002354056537335,3518.583387368544,0
25.449206925777947,9.865665236051512,-52.14139693356048,127.0,-102.49611748818364,126.99999999999999,-127.0,1.621276595744682,9.769230769230763,59.49549549549552,7.470588235294121,0.5313807531380714,-63.21004566210045,-20.80172413793103,7.982857142857156,21.360324848973974,647.9588903731648,29.15208969846331,1684.6707229597255,63.002354056537335,3518.583387368544,0
25.449206925777947,9.865665236051512,-52.14139693356048,127.0,-102.49611748818364,126.99999999999999,-127.0,1.621276595744682,-42.333333333333336,-27.459459459459445,-4.754010695187163,7.9707112970711265,-16.817351598173506,-6.568965517241372,22.49714285714287,16.25278141916919,193.3953210845127,29.15208969846331,1684.6707229597255,63.002354056537335,3518.583387368544,0
6.012471243491955,-7.73991416309012,-64.49763392012115,124.03487523712244,-105.30452397029035,123.49838761689776,-123.56969613450012,1.621276595744682,-42.333333333333336,-27.459459459459445,-4.754010695187163,7.9707112970711265,-16.817351598173506,-6.568965517241372,22.49714285714287,16.25278141916919,193.3953210845127,26.08333977556774,1397.0402977621034,65.4241411067779,3381.773304477868,0
6.012471243491955,-7.73991416309012,-64.49763392012115,124.03487523712244,-105.30452397029035,123.49838761689776,-123.56969613450012,16.753191489361704,17.36752136752136,10.297297297297314,33.27807486631016,-0.5313807531380794,0.5799086757990963,-17.517241379310338,26.851428571428585,15.397005550020829,132.52774345040737,26.08333977556774,1397.0402977621034,65.4241411067779,3381.773304477868,0
-0.26141179319529595,-23.81931330472102,-76.96605464067133,120.47672552166932,-108.7989534098582,119.73057078361818,-118.82677599393648,16.753191489361704,17.36752136752136,10.297297297297314,33.27807486631016,-0.5313807531380794,0.5799086757990963,-17.517241379310338,26.851428571428585,15.397005550020829,132.52774345040737,33.68225991286255,1543.858845436002,73.75403115568723,2343.4016552703333,0
-0.26141179319529595,-23.81931330472102,-76.96605464067133,120.47672552166932,-108.7989534098582,119.73057078361818,-118.82677599393648,-5.944680851063829,-22.7948717948718,9.15315315315317,4.754010695187169,-24.974895397489544,-17.97716894977168,7.993605777301127e-15,15.240000000000013,12.604847605192152,81.35005418055887,33.68225991286255,1543.858845436002,73.75403115568723,2343.4016552703333,0
-0.26141179319529595,-23.81931330472102,-76.96605464067133,120.47672552166932,-108.7989534098582,119.73057078361818,-118.82677599393648,-5.944680851063829,-22.7948717948718,9.15315315315317,4.754010695187169,-24.974895397489544,-17.97716894977168,7.993605777301127e-15,15.240000000000013,12.604847605192152,81.35005418055887,33.68225991286255,1543.858845436002,73.75403115568723,2343.4016552703333,0
-0.26141179319529595,-23.81931330472102,-76.96605464067133,120.47672552166932,-108.7989534098582,119.73057078361818,-118.82677599393648,10.26808510638298,-19.538461538461544,-61.783783783783775,-14.262032085561495,27.10041841004184,21.456621004566223,17.517241379310352,28.302857142857157,25.02868755637067,257.00995335147593,33.68225991286255,1543.858845436002,73.75403115568723,2343.4016552703333,0
-8.226782903499206,-38.31802575107295,-83.10410751466969,115.1765650080257,-112.46488858879138,115.6555949693647,-112.61372562530147,10.26808510638298,-19.538461538461544,-61.783783783783775,-14.262032085561495,27.10041841004184,21.456621004566223,17.517241379310352,28.302857142857157,25.02868755637067,257.00995335147593,43.21630538974728,1419.648292795638,78.86623275792279,1490.2784510185415,0
-8.226782903499206,-38.31802575107295,-83.10410751466969,115.1765650080257,-112.46488858879138,115.6555949693647,-112.61372562530147,11.348936170212767,-1.0854700854700914,-13.729729729729716,-14.262032085561495,-15.410041841004187,-5.219178082191771,-5.474137931034475,19.594285714285725,10.765476454936278,39.04788526927248,43.21630538974728,1419.648292795638,78.86623275792279,1490.2784510185415,0
-8.226782903499206,-38.31802575107295,-83.10410751466969,115.1765650080257,-112.46488858879138,115.6555949693647,-112.61372562530147,5.944680851063831,-5.427350427350433,26.315315315315335,-11.545454545454543,-50.48117154811716,-27.25570776255707,-5.474137931034475,18.142857142857157,18.82333444046875,243.77101230406535,43.21630538974728,1419.648292795638,78.86623275792279,1490.2784510185415,0
-3.213827339871649,-41.47939914163089,-84.54646980882075,110.84007004231722,-116.36664415935178,111.19155111254432,-106.20815820299043,5.944680851063831,-5.427350427350433,26.315315315315335,-11.545454545454543,-50.48117154811716,-27.25570776255707,-5.474137931034475,18.142857142857157,18.82333444046875,243.77101230406535,43.07989876344109,1655.6708820250365,78.95531299758962,1226.171442814161,0
-3.213827339871649,-41.47939914163089,-84.54646980882075,110.84007004231722,-116.36664415935178,111.19155111254432,-106.20815820299043,9.187234042553193,-5.427350427350433,17.16216216216218,-10.187165775401066,-27.100418410041843,-0.5799086757990768,6.568965517241387,28.302857142857157,13.064507769175792,103.67152215860212,43.07989876344109,1655.6708820250365,78.95531299758962,1226.171442814161,0
-3.213827339871649,-41.47939914163089,-84.54646980882075,110.84007004231722,-116.36664415935178,111.19155111254432,-106.20815820299043,9.187234042553193,-8.683760683760688,8.009009009009027,-19.6951871657754,-3.719665271966531,-6.378995433789944,3.2844827586206975,26.851428571428585,10.726220367113008,68.25110009340334,43.07989876344109,1655.6708820250365,78.95531299758962,1226.171442814161,0
-20.836057634096132,-31.068669527896986,-77.6391570446085,104.57624398073835,-118.33896016205267,108.42712028377942,-100.50265279404672,9.187234042553193,-8.683760683760688,8.009009009009027,-19.6951871657754,-3.719665271966531,-6.378995433789944,3.2844827586206975,26.851428571428585,10.726220367113008,68.25110009340334,43.18129473553387,916.6847927256479,71.09469018441462,1382.9634103481362,0
-20.836057634096132,-31.068669527896986,-77.6391570446085,104.57624398073835,-118.33896016205267,108.42712028377942,-100.50265279404672,3.7829787234042556,-15.196581196581201,-38.900900900900886,-11.545454545454543,-5.845188284518832,-4.059360730593597,8.758620689655181,29.75428571428573,14.730421348174279,166.94538646658,43.18129473553387,916.6847927256479,71.09469018441462,1382.9634103481362,0
-20.836057634096132,-31.068669527896986,-77.6391570446085,104.57624398073835,-118.33896016205267,108.42712028377942,-100.50265279404672,12.429787234042553,2.170940170940165,24.027027027027046,-4.754010695187163,-63.23430962343097,-51.61187214611871,-20.80172413793103,5.0800000000000125,23.013708879334704,520.4208933406399,43.18129473553387,916.6847927256479,71.09469018441462,1382.9634103481362,0
-32.614965492190336,-15.588841201716733,-67.55864723326393,97.86764920472785,-118.68197164078327,107.54659787165428,-96.12726521050094,12.429787234042553,2.170940170940165,24.027027027027046,-4.754010695187163,-63.23430962343097,-51.61187214611871,-20.80172413793103,5.0800000000000125,23.013708879334704,520.4208933406399,38.58748464239033,701.9684234887891,60.33837921323617,1731.5497643098684,0
-32.614965492190336,-15.588841201716733,-67.55864723326393,97.86764920472785,-118.68197164078327,107.54659787165428,-96.12726521050094,2.7021276595744688,-17.36752136752137,-3.4324324324324156,-19.6951871657754,18.598326359832633,-15.657534246575333,-2.1896551724137856,23.94857142857144,12.948919479087106,76.65756316343234,38.58748464239033,701.9684234887891,60.33837921323617,1731.5497643098684,0
-32.614965492190336,-15.588841201716733,-67.55864723326393,97.86764920472785,-118.68197164078327,107.54659787165428,-96.12726521050094,9.187234042553193,-9.769230769230774,-9.153153153153138,-16.978609625668447,23.912133891213387,-2.899543378995423,14.232758620689664,38.46285714285716,15.57444007804515,124.7930518955352,38.58748464239033,701.9684234887891,60.33837921323617,1731.5497643098684,0
-37.781692698873954,-6.3227467811158675,-58.40765978926115,92.08565591711658,-118.0388251181634,108.48855207997418,-93.01198925101635,9.187234042553193,-9.769230769230774,-9.153153153153138,-16.978609625668447,23.912133891213387,-2.899543378995423,14.232758620689664,38.46285714285716,15.57444007804515,124.7930518955352,34.17069975641699,687.9889932893709,52.27202082916454,1867.0536949539705,0
-37.781692698873954,-6.3227467811158675,-58.40765978926115,92.08565591711658,-118.0388251181634,108.48855207997418,-93.01198925101635,10.26808510638298,-2.1709401709401766,10.297297297297314,-14.262032085561495,-83.42677824267783,-20.296803652968027,-2.1896551724137856,19.594285714285725,20.313234680315915,697.040658186106,34.17069975641699,687.9889932893709,52.27202082916454,1867.0536949539705,0
-37.781692698873954,-6.3227467811158675,-58.40765978926115,92.08565591711658,-118.0388251181634,108.48855207997418,-93.01198925101635,13.51063829787234,-6.512820512820518,21.738738738738757,3.3957219251336923,23.912133891213387,1.7397260273972712,19.706896551724146,32.65714285714287,15.396727350255372,120.32167256874638,34.17069975641699,687.9889932893709,52.27202082916454,1867.0536949539705,0
-38.427533599709406,-1.471673819742481,-55.426777714682316,86.97081570115279,-116.83828494260638,110.14721057723314,-90.80679390890926,13.51063829787234,-6.512820512820518,21.738738738738757,3.3957219251336923,23.912133891213387,1.7397260273972712,19.706896551724146,32.65714285714287,15.396727350255372,120.32167256874638,31.775328378044733,760.977184811795,47.956422411859194,1869.3804718771958,0
-38.427533599709406,-1.471673819742481,-55.426777714682316,86.97081570115279,-116.83828494260638,110.14721057723314,-90.80679390890926,16.753191489361704,-3.256410256410262,12.585585585585603,-35.99465240641711,-40.9163179916318,-63.21004566210045,-8.758620689655165,23.94857142857144,25.677924438716694,398.6202331194875,31.775328378044733,760.977184811795,47.956422411859194,1869.3804718771958,0
-38.427533599709406,-1.471673819742481,-55.426777714682316,86.97081570115279,-116.83828494260638,110.14721057723314,-90.80679390890926,3.7829787234042556,-15.196581196581201,13.729729729729748,-4.754010695187163,-3.719665271966531,-14.49771689497716,-1.0948275862068888,19.594285714285725,9.546224476542333,48.06632502486672,31.775328378044733,760.977184811795,47.956422411859194,1869.3804718771958,0
-23.511684223271576,-2.071244635193125,-54.30494037478706,85.41412520064205,-116.45239702903444,111.99016446307641,-89.44167298284297,3.7829787234042556,-15.196581196581201,13.729729729729748,-4.754010695187163,-3.719665271966531,-14.49771689497716,-1.0948275862068888,19.594285714285725,9.546224476542333,48.06632502486672,26.629289744417253,689.3793407932269,47.26343673687408,1773.696015348727,0
-23.511684223271576,-2.071244635193125,-54.30494037478706,85.41412520064205,-116.45239702903444,111.99016446307641,-89.44167298284297,8.106382978723405,-7.598290598290603,17.16216216216218,12.903743315508024,54.73221757322175,17.977168949771702,8.758620689655181,26.851428571428585,19.26125185484518,247.57631130905278,26.629289744417253,689.3793407932269,47.26343673687408,1773.696015348727,0
-23.511684223271576,-2.071244635193125,-54.30494037478706,85.41412520064205,-116.45239702903444,111.99016446307641,-89.44167298284297,5.944680851063831,-19.538461538461544,-11.441441441441425,-11.545454545454543,-39.853556485355654,-17.97716894977168,8.758620689655181,25.400000000000013,17.557423062650486,121.22114002689038,26.629289744417253,689.3793407932269,47.26343673687408,1773.696015348727,0
-9.579973362392536,-1.5806866952789598,-53.58375922771153,85.93302203414567,-116.66677920324105,113.32118671396321,-88.58409701646801,5.944680851063831,-19.538461538461544,-11.441441441441425,-11.545454545454543,-39.853556485355654,-17.97716894977168,8.758620689655181,25.400000000000013,17.557423062650486,121.22114002689038,21.581473095127677,784.106885079492,47.03248931904539,1811.018472342301,0
-9.579973362392536,-1.5806866952789598,-53.58375922771153,85.93302203414567,-116.66677920324105,113.32118671396321,-88.58409701646801,16.753191489361704,13.025641025641018,12.585585585585603,-6.112299465240639,2.656903765690373,-0.5799086757990768,4.379310344827594,15.240000000000013,8.916605044018253,38.411220741941726,21.581473095127677,784.106885079492,47.03248931904539,1811.018472342301,0
-9.579973362392536,-1.5806866952789598,-53.58375922771153,85.93302203414567,-116.66677920324105,113.32118671396321,-88.58409701646801,9.187234042553193,-1.0854700854700914,13.729729729729748,3.3957219251336923,0.5313807531380714,-5.219178082191771,-2.1896551724137856,25.400000000000013,7.592296223828796,71.707571433279,21.581473095127677,784.106885079492,47.03248931904539,1811.018472342301,0
-1.368567623198928,2.0712446351931426,-53.840179191116164,87.15613599883261,-117.39567859554359,113.83311834891968,-87.70901949975885,9.187234042553193,-1.0854700854700914,13.729729729729748,3.3957219251336923,0.5313807531380714,-5.219178082191771,-2.1896551724137856,25.400000000000013,7.592296223828796,71.707571433279,19.093330483169414,981.8649405320929,47.689186608380645,1838.2357169052327,0
-1.368567623198928,2.0712446351931426,-53.840179191116164,87.15613599883261,-117.39567859554359,113.83311834891968,-87.70901949975885,15.672340425531916,-19.538461538461544,-4.57657657657656,0.6791443850267411,6.907949790794975,-13.337899543378985,4.379310344827594,34.108571428571445,12.40003175414622,118.1265803522424,19.093330483169414,981.8649405320929,47.689186608380645,1838.2357169052327,0
-1.368567623198928,2.0712446351931426,-53.840179191116164,87.15613599883261,-117.39567859554359,113.83311834891968,-87.70901949975885,14.591489361702129,1.0854700854700798,-1.1441441441441276,-15.62032085561497,-10.096234309623435,-17.97716894977168,3.2844827586206975,26.851428571428585,11.331342379546964,84.1569042250829,19.093330483169414,981.8649405320929,47.689186608380645,1838.2357169052327,0
4.351737498486506,4.142489270386275,-52.7183418512209,88.89814679702323,-118.48902768399728,113.85359561431794,-86.76393578171296,14.591489361702129,1.0854700854700798,-1.1441441441441276,-15.62032085561497,-10.096234309623435,-17.97716894977168,3.2844827586206975,26.851428571428585,11.331342379546964,84.1569042250829,20.404189540031226,1081.6986429404656,48.58632597287681,1808.6855371073086,0
4.351737498486506,4.142489270386275,-52.7183418512209,88.89814679702323,-118.48902768399728,113.85359561431794,-86.76393578171296,8.106382978723405,-6.512820512820518,25.17117117117119,3.3957219251336923,15.41004184100418,9.858447488584485,3.2844827586206975,28.302857142857157,12.505240727364416,92.67123174626431,20.404189540031226,1081.6986429404656,48.58632597287681,1808.6855371073086,0
4.351737498486506,4.142489270386275,-52.7183418512209,88.89814679702323,-118.48902768399728,113.85359561431794,-86.76393578171296,11.348936170212767,-7.598290598290603,8.009009009009027,-8.828877005347591,-12.221757322175737,-19.136986301369852,-2.1896551724137856,23.94857142857144,11.660260375923851,47.83665005761429,20.404189540031226,1081.6986429404656,48.58632597287681,1808.6855371073086,0
3.1523186826492378,6.595278969957089,-51.69266199760238,89.89887640449439,-119.38943281566509,113.71025475653013,-85.74884586233033,11.348936170212767,-7.598290598290603,8.009009009009027,-8.828877005347591,-12.221757322175737,-19.136986301369852,-2.1896551724137856,23.94857142857144,11.660260375923851,47.83665005761429,20.48008655006957,1069.5516572658084,49.39560579068462,1738.829686797167,0
3.1523186826492378,6.595278969957089,-51.69266199760238,89.89887640449439,-119.38943281566509,113.71025475653013,-85.74884586233033,10.26808510638298,-2.1709401709401766,5.720720720720738,-2.037433155080211,-1.5941422594142303,-1.73972602739725,2.1896551724138007,28.302857142857157,6.752944969400819,84.80292210604223,20.48008655006957,1069.5516572658084,49.39560579068462,1738.829686797167,0
3.1523186826492378,6.595278969957089,-51.69266199760238,89.89887640449439,-119.38943281566509,113.71025475653013,-85.74884586233033,9.187234042553193,-8.683760683760688,1.687538997430238e-14,-11.545454545454543,-18.59832635983264,-20.296803652968027,-2.1896551724137856,21.045714285714297,11.44336859283715,64.43995329976556,20.48008655006957,1069.5516572658084,49.39560579068462,1738.829686797167,0
2.075917181256817,8.830042918454943,-50.20222096031296,90.38070917846198,-120.18264686022957,113.46452757175103,-84.61124509060843,9.187234042553193,-8.683760683760688,1.687538997430238e-14,-11.545454545454543,-18.59832635983264,-20.296803652968027,-2.1896551724137856,21.045714285714297,11.44336859283715,64.43995329976556,20.369393686674908,1043.9050201125701,49.804324352409964,1662.7465331456983,0
2.075917181256817,8.830042918454943,-50.20222096031296,90.38070917846198,-120.18264686022957,113.46452757175103,-84.61124509060843,11.348936170212767,-8.683760683760688,-22.882882882882868,-12.90374331550802,12.22175732217573,-36.53424657534246,-1.0948275862068888,26.851428571428585,16.56519788843975,129.34473033820316,20.369393686674908,1043.9050201125701,49.804324352409964,1662.7465331456983,0
2.075917181256817,8.830042918454943,-50.20222096031296,90.38070917846198,-120.18264686022957,113.46452757175103,-84.61124509060843,14.591489361702129,-6.512820512820518,-4.57657657657656,-18.336898395721924,-26.037656903765694,-8.698630136986292,4.379310344827594,31.2057142857143,14.292387064764377,103.5624815950113,20.369393686674908,1043.9050201125701,49.804324352409964,1662.7465331456983,0
1.4608306090325769,12.372961373390567,-46.532210234084175,90.78841383335765,-120.80435516542877,113.50548210254755,-83.5961551712258,14.591489361702129,-6.512820512820518,-4.57657657657656,-18.336898395721924,-26.037656903765694,-8.698630136986292,4.379310344827594,31.2057142857143,14.292387064764377,103.5624815950113,20.122000738835773,982.0376348822615,49.8978618136108,1545.741504041417,0
1.4608306090325769,12.372961373390567,-46.532210234084175,90.78841383335765,-120.80435516542877,113.50548210254755,-83.5961551712258,4.863829787234043,-8.683760683760688,4.576576576576594,3.3957219251336923,-5.845188284518832,-4.059360730593597,5.474137931034491,29.75428571428573,8.331607704142208,77.4490521368917,20.122000738835773,982.0376348822615,49.8978618136108,1545.741504041417,0
1.4608306090325769,12.372961373390567,-46.532210234084175,90.78841383335765,-120.80435516542877,113.50548210254755,-83.5961551712258,13.51063829787234,-2.1709401709401766,5.720720720720738,-7.470588235294115,6.907949790794975,-14.49771689497716,4.379310344827594,42.81714285714287,12.184375914071245,171.2148826126692,20.122000738835773,982.0376348822615,49.8978618136108,1545.741504041417,0
-0.13839447875044764,17.224034334763957,-41.67625717710897,91.23318254778928,-120.99729912221471,114.18123186069009,-83.0886102115345,13.51063829787234,-2.1709401709401766,5.720720720720738,-7.470588235294115,6.907949790794975,-14.49771689497716,4.379310344827594,42.81714285714287,12.184375914071245,171.2148826126692,19.679561996874458,916.0153853392751,50.044491353220735,1421.8590122240712,0
-0.13839447875044764,17.224034334763957,-41.67625717710897,91.23318254778928,-120.99729912221471,114.18123186069009,-83.0886102115345,10.26808510638298,-4.341880341880348,8.009009009009027,-16.978609625668447,-13.284518828451887,-11.018264840182638,-2.1896551724137856,13.78857142857144,9.98482429407007,24.56129567450541,19.679561996874458,916.0153853392751,50.044491353220735,1421.8590122240712,0
-0.13839447875044764,17.224034334763957,-41.67625717710897,91.23318254778928,-120.99729912221471,114.18123186069009,-83.0886102115345,11.348936170212767,-2.1709401709401766,-2.288288288288272,-4.754010695187163,-7.970711297071134,-9.858447488584465,-1.0948275862068888,39.914285714285725,9.925055926347074,161.194915752041,19.679561996874458,916.0153853392751,50.044491353220735,1421.8590122240712,0
-3.6136336118174053,24.582403433476404,-38.166508928008085,91.04786225010946,-120.46134368669817,115.36891325378909,-83.29862881554469,11.348936170212767,-2.1709401709401766,-2.288288288288272,-4.754010695187163,-7.970711297071134,-9.858447488584465,-1.0948275862068888,39.914285714285725,9.925055926347074,161.194915752041,22.120848657767297,987.7239500375101,51.265591537197984,1233.1037778281723,0
-3.6136336118174053,24.582403433476404,-38.166508928008085,91.04786225010946,-120.46134368669817,115.36891325378909,-83.29862881554469,12.429787234042553,-4.341880341880348,12.585585585585603,-0.6791443850267349,-17.535564853556487,-5.219178082191771,5.474137931034491,26.851428571428585,10.639588373093321,73.18632403216075,22.120848657767297,987.7239500375101,51.265591537197984,1233.1037778281723,0
-3.6136336118174053,24.582403433476404,-38.166508928008085,91.04786225010946,-120.46134368669817,115.36891325378909,-83.29862881554469,11.348936170212767,-2.1709401709401766,9.15315315315317,-2.037433155080211,2.656903765690373,-8.698630136986292,3.2844827586206975,13.78857142857144,6.642381342406891,21.730096236705865,22.120848657767297,987.7239500375101,51.265591537197984,1233.1037778281723,0
-0.13839447875044764,25.89055793991417,-35.45807306454667,91.52969502407706,-119.86107359891963,116.86375362786197,-83.96368772824366,11.348936170212767,-2.1709401709401766,9.15315315315317,-2.037433155080211,2.656903765690373,-8.698630136986292,3.2844827586206975,13.78857142857144,6.642381342406891,21.730096236705865,20.495675161070427,948.1067642564253,50.959442009512635,1257.3434086643483,0
-0.13839447875044764,25.89055793991417,-35.45807306454667,91.52969502407706,-119.86107359891963,116.86375362786197,-83.96368772824366,7.025531914893618,-7.598290598290603,2.288288288288305,-2.037433155080211,-17.535564853556487,-19.136986301369852,3.2844827586206975,29.75428571428573,11.082607948048189,100.53022131499974,20.495675161070427,948.1067642564253,50.959442009512635,1257.3434086643483,0
-0.13839447875044764,25.89055793991417,-35.45807306454667,91.52969502407706,-119.86107359891963,116.86375362786197,-83.96368772824366,13.51063829787234,1.0854700854700798,5.720720720720738,-6.112299465240639,-6.907949790794983,-6.378995433789944,5.474137931034491,29.75428571428573,9.368062179901118,79.34468404278516,20.495675161070427,948.1067642564253,50.959442009512635,1257.3434086643483,0
-1.9836541954231683,30.36008583690988,-35.8587292573664,91.19611848825332,-119.06785955435515,118.03095775556271,-84.62874664094261,13.51063829787234,1.0854700854700798,5.720720720720738,-6.112299465240639,-6.907949790794983,-6.378995433789944,5.474137931034491,29.75428571428573,9.368062179901118,79.34468404278516,22.734156429899816,1096.428283703564,52.47164452750987,1132.2474325185558,0
-1.9836541954231683,30.36008583690988,-35.8587292573664,91.19611848825332,-119.06785955435515,118.03095775556271,-84.62874664094261,10.26808510638298,-4.341880341880348,10.297297297297314,10.187165775401073,0.5313807531380714,-2.899543378995423,3.2844827586206975,22.49714285714287,8.038372283607346,48.96767487121127,22.734156429899816,1096.428283703564,52.47164452750987,1132.2474325185558,0
-1.9836541954231683,30.36008583690988,-35.8587292573664,91.19611848825332,-119.06785955435515,118.03095775556271,-84.62874664094261,10.26808510638298,-6.512820512820518,-4.57657657657656,-7.470588235294115,-6.907949790794983,-11.018264840182638,3.2844827586206975,22.49714285714287,9.06698883472692,36.136292345877585,22.734156429899816,1096.428283703564,52.47164452750987,1132.2474325185558,0
-12.870686523792221,36.4648068669528,-36.90043535869771,88.67576243980739,-117.54574611748819,119.13673008706867,-85.15379315096811,10.26808510638298,-6.512820512820518,-4.57657657657656,-7.470588235294115,-6.907949790794983,-11.018264840182638,3.2844827586206975,22.49714285714287,9.06698883472692,36.136292345877585,28.745309583147577,1398.9797506675434,54.0136682218193,901.1430247282174,0
-12.870686523792221,36.4648068669528,-36.90043535869771,88.67576243980739,-117.54574611748819,119.13673008706867,-85.15379315096811,7.025531914893618,-8.683760683760688,-1.1441441441441276,-8.828877005347591,-10.096234309623435,-9.858447488584465,1.0948275862069043,21.045714285714297,8.472192177284391,39.00618319241058,28.745309583147577,1398.9797506675434,54.0136682218193,901.1430247282174,0
-12.870686523792221,36.4648068669528,-36.90043535869771,88.67576243980739,-117.54574611748819,119.13673008706867,-85.15379315096811,13.51063829787234,-4.341880341880348,13.729729729729748,-4.754010695187163,-5.845188284518832,-13.337899543378985,3.2844827586206975,22.49714285714287,10.162621563541371,45.0342008496555,28.745309583147577,1398.9797506675434,54.0136682218193,901.1430247282174,0
-21.72793316382128,38.699570815450656,-39.03192630449871,84.59871589085071,-115.55199189736663,120.20154788777812,-85.4688210569834,13.51063829787234,-4.341880341880348,13.729729729729748,-4.754010695187163,-5.845188284518832,-13.337899543378985,3.2844827586206975,22.49714285714287,10.162621563541371,45.0342008496555,33.153143427923546,1665.5161767143725,54.110071003600034,697.1957153384332,0
-21.72793316382128,38.699570815450656,-39.03192630449871,84.59871589085071,-115.55199189736663,120.20154788777812,-85.4688210569834,8.106382978723405,-4.341880341880348,2.288288288288305,-12.90374331550802,-19.66108786610879,-11.018264840182638,2.1896551724138007,29.75428571428573,11.28294856467388,90.84877750683566,33.153143427923546,1665.5161767143725,54.110071003600034,697.1957153384332,0
-21.72793316382128,38.699570815450656,-39.03192630449871,84.59871589085071,-115.55199189736663,120.20154788777812,-85.4688210569834,12.429787234042553,-3.256410256410262,5.720720720720738,-10.187165775401066,-9.033472803347284,-8.698630136986292,3.2844827586206975,22.49714285714287,9.38847656783397,38.66284761410566,33.153143427923546,1665.5161767143725,54.110071003600034,697.1957153384332,0
-26.863906041893685,39.95321888412018,-41.804467158811285,79.74332409163873,-113.36529372045914,121.12302483069976,-85.59133190932269,12.429787234042553,-3.256410256410262,5.720720720720738,-10.187165775401066,-9.033472803347284,-8.698630136986292,3.2844827586206975,22.49714285714287,9.38847656783397,38.66284761410566,36.20719736160839,1895.344629493574,53.83367004485674,504.33940966158167,0
-26.863906041893685,39.95321888412018,-41.804467158811285,79.74332409163873,-113.36529372045914,121.12302483069976,-85.59133190932269,12.429787234042553,-2.1709401709401766,11.441441441441459,2.037433155080217,-12.221757322175737,-9.858447488584465,5.474137931034491,28.302857142857157,10.49210023576953,70.16788809050674,36.20719736160839,1895.344629493574,53.83367004485674,504.33940966158167,0
-26.863906041893685,39.95321888412018,-41.804467158811285,79.74332409163873,-113.36529372045914,121.12302483069976,-85.59133190932269,12.429787234042553,-9.769230769230774,-6.864864864864849,-31.919786096256683,-24.974895397489544,-24.936073059360723,2.1896551724138007,28.302857142857157,17.67339371706451,124.07789752615233,36.20719736160839,1895.344629493574,53.83367004485674,504.33940966158167,0
-26.31032812689187,40.55278969957082,-43.87185311376113,75.11031664964253,-111.35010128291697,121.77829732344404,-85.62633500999105,12.429787234042553,-9.769230769230774,-6.864864864864849,-31.919786096256683,-24.974895397489544,-24.936073059360723,2.1896551724138007,28.302857142857157,17.67339371706451,124.07789752615233,36.91165698007461,1984.433999916425,53.1783198209915,363.5134091558234,0
-26.31032812689187,40.55278969957082,-43.87185311376113,75.11031664964253,-111.35010128291697,121.77829732344404,-85.62633500999105,8.106382978723405,-8.683760683760688,-13.729729729729716,-15.62032085561497,-5.845188284518832,-4.059360730593597,7.993605777301127e-15,23.94857142857144,9.999164336439081,56.847636624196646,36.91165698007461,1984.433999916425,53.1783198209915,363.5134091558234,0
-26.31032812689187,40.55278969957082,-43.87185311376113,75.11031664964253,-111.35010128291697,121.77829732344404,-85.62633500999105,9.187234042553193,-6.217248937900877e-15,14.873873873873892,3.3957219251336923,0.5313807531380714,-9.858447488584465,3.2844827586206975,26.851428571428585,8.497821176666577,81.24614263782257,36.91165698007461,1984.433999916425,53.1783198209915,363.5134091558234,0
-23.450175566049154,41.75193133047211,-45.55460912360402,70.95914198161393,-109.67792032410534,122.00354724282488,-85.55632880865431,9.187234042553193,-6.217248937900877e-15,14.873873873873892,3.3957219251336923,0.5313807531380714,-9.858447488584465,3.2844827586206975,26.851428571428585,8.497821176666577,81.24614263782257,36.91890534004176,2060.392122117496,52.75522747856335,252.1519670253759,0
-23.450175566049154,41.75193133047211,-45.55460912360402,70.95914198161393,-109.67792032410534,122.00354724282488,-85.55632880865431,12.429787234042553,-3.256410256410262,8.009009009009027,4.754010695187169,-16.47280334728034,-8.698630136986292,4.379310344827594,23.94857142857144,10.243566556539335,50.30503771370182,36.91890534004176,2060.392122117496,52.75522747856335,252.1519670253759,0
-23.450175566049154,41.75193133047211,-45.55460912360402,70.95914198161393,-109.67792032410534,122.00354724282488,-85.55632880865431,12.429787234042553,-5.427350427350433,21.738738738738757,-8.828877005347591,-7.970711297071134,-8.698630136986292,3.2844827586206975,23.94857142857144,11.540893628341113,56.0657248354939,36.91890534004176,2060.392122117496,52.75522747856335,252.1519670253759,0
-16.745731928804936,43.87768240343348,-47.83033629882012,67.95695315920034,-108.69176232275493,121.57352466946145,-85.43381795631504,12.429787234042553,-5.427350427350433,21.738738738738757,-8.828877005347591,-7.970711297071134,-8.698630136986292,3.2844827586206975,23.94857142857144,11.540893628341113,56.0657248354939,36.15125021035285,2175.301948071919,53.22165728715132,166.75257653179756,0
-16.745731928804936,43.87768240343348,-47.83033629882012,67.95695315920034,-108.69176232275493,121.57352466946145,-85.43381795631504,7.025531914893618,-11.940170940170946,-9.153153153153138,-16.978609625668447,-12.221757322175737,-16.817351598173506,2.1896551724138007,22.49714285714287,12.352921572974008,40.904642922393585,36.15125021035285,2175.301948071919,53.22165728715132,166.75257653179756,0
-16.745731928804936,43.87768240343348,-47.83033629882012,67.95695315920034,-108.69176232275493,121.57352466946145,-85.43381795631504,11.348936170212767,-7.598290598290603,19.450450450450468,7.470588235294121,-6.907949790794983,-13.337899543378985,2.1896551724138007,26.851428571428585,11.894399816533038,62.894464028010404,36.15125021035285,2175.301948071919,53.22165728715132,166.75257653179756,0
-12.901440852403432,43.98669527896997,-52.15742318127327,65.14008463446669,-108.22012153950033,120.2629796839729,-84.96127609729209,11.348936170212767,-7.598290598290603,19.450450450450468,7.470588235294121,-6.907949790794983,-13.337899543378985,2.1896551724138007,26.851428571428585,11.894399816533038,62.894464028010404,36.34851977088223,2336.8306159339163,53.76140103156998,113.79602901449232,0
-12.901440852403432,43.98669527896997,-52.15742318127327,65.14008463446669,-108.22012153950033,120.2629796839729,-84.96127609729209,19.995744680851065,9.769230769230763,9.15315315315317,-18.336898395721924,-1.5941422594142303,-7.538812785388117,5.474137931034491,32.65714285714287,13.064907853992079,100.79790659345063,36.34851977088223,2336.8306159339163,53.76140103156998,113.79602901449232,0
-12.901440852403432,43.98669527896997,-52.15742318127327,65.14008463446669,-108.22012153950033,120.2629796839729,-84.96127609729209,2.7021276595744688,-11.940170940170946,-10.29729729729728,-2.037433155080211,-3.719665271966531,-8.698630136986292,3.2844827586206975,22.49714285714287,8.147118759604911,47.923089788080986,36.34851977088223,2336.8306159339163,53.76140103156998,113.79602901449232,0
-6.996609759050727,44.47725321888413,-54.03249416366964,63.24981759813221,-108.32731262660366,118.46098032892614,-84.45373113760078,2.7021276595744688,-11.940170940170946,-10.29729729729728,-2.037433155080211,-3.719665271966531,-8.698630136986292,3.2844827586206975,22.49714285714287,8.147118759604911,47.923089788080986,35.16878571386817,2427.6838868284076,53.91985499356199,88.11180903023538,0
-6.996609759050727,44.47725321888413,-54.03249416366964,63.24981759813221,-108.32731262660366,118.46098032892614,-84.45373113760078,28.642553191489363,18.452991452991444,29.747747747747766,-3.395721925133687,-13.284518828451887,-8.698630136986292,22.991379310344836,32.65714285714287,19.733835681286017,112.74444481821861,35.16878571386817,2427.6838868284076,53.91985499356199,88.11180903023538,0
-6.996609759050727,44.47725321888413,-54.03249416366964,63.24981759813221,-108.32731262660366,118.46098032892614,-84.45373113760078,15.672340425531916,-22.7948717948718,-4.57657657657656,-7.470588235294115,-7.970711297071134,-16.817351598173506,-27.370689655172406,23.94857142857144,15.82771262640786,72.41365135068258,35.16878571386817,2427.6838868284076,53.91985499356199,88.11180903023538,0
-3.029301368204377,41.69742489270387,-54.88188529244748,62.434408288340876,-108.82039162727887,116.65898097387938,-83.96368772824366,15.672340425531916,-22.7948717948718,-4.57657657657656,-7.470588235294115,-7.970711297071134,-16.817351598173506,-27.370689655172406,23.94857142857144,15.82771262640786,72.41365135068258,33.20287051778524,2336.122276246429,53.004572824497416,110.14884666447179,0
-3.029301368204377,41.69742489270387,-54.88188529244748,62.434408288340876,-108.82039162727887,116.65898097387938,-83.96368772824366,3.7829787234042556,-11.940170940170946,17.16216216216218,-12.90374331550802,-0.5313807531380794,4.0593607305936175,18.61206896551725,21.045714285714297,11.25469748452608,58.66732342978571,33.20287051778524,2336.122276246429,53.004572824497416,110.14884666447179,0
-3.029301368204377,41.69742489270387,-54.88188529244748,62.434408288340876,-108.82039162727887,116.65898097387938,-83.96368772824366,7.025531914893618,-2.1709401709401766,8.009009009009027,-25.1283422459893,-53.669456066945614,-16.817351598173506,8.758620689655181,19.594285714285725,17.64669217623652,268.89803278355475,33.20287051778524,2336.122276246429,53.004572824497416,110.14884666447179,0
0.015377164305612201,35.97424892703864,-54.080572906808,62.508536407412805,-109.52785280216068,115.22557239600127,-83.54365052022325,7.025531914893618,-2.1709401709401766,8.009009009009027,-25.1283422459893,-53.669456066945614,-16.817351598173506,8.758620689655181,19.594285714285725,17.64669217623652,268.89803278355475,30.02339966605075,2054.880534678493,50.85445274708648,183.82299148650654,0
0.015377164305612201,35.97424892703864,-54.080572906808,62.508536407412805,-109.52785280216068,115.22557239600127,-83.54365052022325,4.863829787234043,-19.538461538461544,10.297297297297314,19.695187165775405,35.60251046025104,14.49771689497718,16.422413793103456,34.108571428571445,19.378248545708928,115.14625442112599,30.02339966605075,2054.880534678493,50.85445274708648,183.82299148650654,0
0.015377164305612201,35.97424892703864,-54.080572906808,62.508536407412805,-109.52785280216068,115.22557239600127,-83.54365052022325,13.51063829787234,-4.341880341880348,19.450450450450468,-6.112299465240639,-65.35983263598327,-40.01369863013698,-6.568965517241372,22.49714285714287,22.231863524493534,440.7571426274675,30.02339966605075,2054.880534678493,50.85445274708648,183.82299148650654,0
-1.1225329943092321,33.41244635193134,-55.1543315035649,62.06376769298117,-109.87086428089128,113.91502741051272,-83.26362571487633,13.51063829787234,-4.341880341880348,19.450450450450468,-6.112299465240639,-65.35983263598327,-40.01369863013698,-6.568965517241372,22.49714285714287,22.231863524493534,440.7571426274675,29.896436949935154,1992.6956980491473,50.21018184949247,223.5580154984228,0
-1.1225329943092321,33.41244635193134,-55.1543315035649,62.06376769298117,-109.87086428089128,113.91502741051272,-83.26362571487633,8.106382978723405,-8.683760683760688,-59.49549549549548,-29.203208556149733,-41.979079497907954,-43.4931506849315,-7.663793103448269,21.045714285714297,27.458823160766418,379.6171214810487,29.896436949935154,1992.6956980491473,50.21018184949247,223.5580154984228,0
-1.1225329943092321,33.41244635193134,-55.1543315035649,62.06376769298117,-109.87086428089128,113.91502741051272,-83.26362571487633,2.7021276595744688,-3.256410256410262,36.61261261261263,7.470588235294121,40.91631799163179,-2.899543378995423,12.04310344827587,25.400000000000013,16.412587947849325,247.42331683528852,29.896436949935154,1992.6956980491473,50.21018184949247,223.5580154984228,0
-1.3378132945877161,31.50472103004293,-56.91721875197174,61.47074274040568,-110.27819041188388,112.46114156723635,-82.86109005719011,2.7021276595744688,-3.256410256410262,36.61261261261263,7.470588235294121,40.91631799163179,-2.899543378995423,12.04310344827587,25.400000000000013,16.412587947849325,247.42331683528852,29.919917692200794,1997.69030111251,49.96422750747345,260.7486797210354,0
-1.3378132945877161,31.50472103004293,-56.91721875197174,61.47074274040568,-110.27819041188388,112.46114156723635,-82.86109005719011,1.621276595744682,-27.13675213675214,-17.162162162162147,-6.112299465240639,64.2970711297071,11.01826484018266,-5.474137931034475,25.400000000000013,19.77774553260298,410.3285463400566,29.919917692200794,1997.69030111251,49.96422750747345,260.7486797210354,0
-1.3378132945877161,31.50472103004293,-56.91721875197174,61.47074274040568,-110.27819041188388,112.46114156723635,-82.86109005719011,14.591489361702129,18.452991452991444,16.018018018018036,-7.470588235294115,-1.5941422594142303,-4.059360730593597,2.1896551724138007,22.49714285714287,10.859173510946277,64.62479657573103,29.919917692200794,1997.69030111251,49.96422750747345,260.7486797210354,0
3.9826855551519618,21.966094420600868,-56.08385387090669,62.1378958120531,-111.24291019581364,111.27346017413736,-82.17852959415697,14.591489361702129,18.452991452991444,16.018018018018036,-7.470588235294115,-1.5941422594142303,-4.059360730593597,2.1896551724138007,22.49714285714287,10.859173510946277,64.62479657573103,27.344211282219835,1670.5310968918611,46.72928136785355,469.0744267947293,0
3.9826855551519618,21.966094420600868,-56.08385387090669,62.1378958120531,-111.24291019581364,111.27346017413736,-82.17852959415697,10.26808510638298,-8.683760683760688,4.576576576576594,-0.6791443850267349,5.845188284518825,-14.49771689497716,-4.379310344827578,25.400000000000013,9.291222784508822,60.045910759346384,27.344211282219835,1670.5310968918611,46.72928136785355,469.0744267947293,0
3.9826855551519618,21.966094420600868,-56.08385387090669,62.1378958120531,-111.24291019581364,111.27346017413736,-82.17852959415697,7.025531914893618,-8.683760683760688,-19.450450450450436,2.037433155080217,-4.782426778242682,-16.817351598173506,6.568965517241387,29.75428571428573,11.890025726516033,87.20271538129363,27.344211282219835,1670.5310968918611,46.72928136785355,469.0744267947293,0
6.87359244460589,14.880257510729622,-54.22480913622311,63.361009776740104,-112.31482106684672,110.43389229280875,-81.44346448012128,7.025531914893618,-8.683760683760688,-19.450450450450436,2.037433155080217,-4.782426778242682,-16.817351598173506,6.568965517241387,29.75428571428573,11.890025726516033,87.20271538129363,25.326219697186207,1428.7719329155186,44.15535880789761,663.6412075055309,0
6.87359244460589,14.880257510729622,-54.22480913622311,63.361009776740104,-112.31482106684672,110.43389229280875,-81.44346448012128,11.348936170212767,-1.0854700854700914,20.594594594594614,0.6791443850267411,-38.7907949790795,-17.97716894977168,-2.1896551724137856,22.49714285714287,14.395363399214006,176.5119524309112,25.326219697186207,1428.7719329155186,44.15535880789761,663.6412075055309,0
6.87359244460589,14.880257510729622,-54.22480913622311,63.361009776740104,-112.31482106684672,110.43389229280875,-81.44346448012128,9.187234042553193,-8.683760683760688,-5.7207207207207045,-12.90374331550802,-19.66108786610879,-0.5799086757990768,8.758620689655181,21.045714285714297,10.817598784977495,47.05897923325669,25.326219697186207,1428.7719329155186,44.15535880789761,663.6412075055309,0
1.9836541954231812,16.624463519313316,-52.79847308978485,63.65752225302788,-112.87221471978393,109.94243792325055,-80.88341486942741,9.187234042553193,-8.683760683760688,-5.7207207207207045,-12.90374331550802,-19.66108786610879,-0.5799086757990768,8.758620689655181,21.045714285714297,10.817598784977495,47.05897923325669,23.80219693484045,1339.163149163684,44.36015295404201,606.4310884972231,0
1.9836541954231812,16.624463519313316,-52.79847308978485,63.65752225302788,-112.87221471978393,109.94243792325055,-80.88341486942741,10.26808510638298,-8.683760683760688,4.576576576576594,-7.470588235294115,-45.16736401673641,-22.616438356164373,-7.663793103448269,23.94857142857144,16.299397188366857,188.01358254494457,23.80219693484045,1339.163149163684,44.36015295404201,606.4310884972231,0
1.9836541954231812,16.624463519313316,-52.79847308978485,63.65752225302788,-112.87221471978393,109.94243792325055,-80.88341486942741,9.187234042553193,-19.538461538461544,-27.459459459459445,-10.187165775401066,18.598326359832633,-5.219178082191771,9.853448275862076,25.400000000000013,15.680409191720218,67.47759368444059,23.80219693484045,1339.163149163684,44.36015295404201,606.4310884972231,0
-1.1225329943092321,19.34978540772533,-50.474667171430376,63.546330074419984,-113.00084402430792,109.77861980006448,-80.55088541307794,9.187234042553193,-19.538461538461544,-27.459459459459445,-10.187165775401066,18.598326359832633,-5.219178082191771,9.853448275862076,25.400000000000013,15.680409191720218,67.47759368444059,23.64899519115498,1288.367191094936,44.4569275511919,515.4935327215248,0
-1.1225329943092321,19.34978540772533,-50.474667171430376,63.546330074419984,-113.00084402430792,109.77861980006448,-80.55088541307794,18.914893617021278,-6.217248937900877e-15,6.864864864864882,-11.545454545454543,-21.786610878661094,-13.337899543378985,-3.2844827586206815,29.75428571428573,13.1860614902859,99.41152471127523,23.64899519115498,1288.367191094936,44.4569275511919,515.4935327215248,0
-1.1225329943092321,19.34978540772533,-50.474667171430376,63.546330074419984,-113.00084402430792,109.77861980006448,-80.55088541307794,11.348936170212767,-10.854700854700859,-5.7207207207207045,2.037433155080217,-0.5313807531380794,-11.018264840182638,2.1896551724138007,28.302857142857157,9.000493601163278,80.42291708087586,23.64899519115498,1288.367191094936,44.4569275511919,515.4935327215248,0
-4.474754812931342,21.748068669527907,-48.72780617073633,63.02743324091642,-112.80790006752193,109.96291518864881,-80.44587611107283,11.348936170212767,-10.854700854700859,-5.7207207207207045,2.037433155080217,-0.5313807531380794,-11.018264840182638,2.1896551724138007,28.302857142857157,9.000493601163278,80.42291708087586,24.98354321773186,1268.8029933948887,44.501102693726885,439.39525156632413,0
-4.474754812931342,21.748068669527907,-48.72780617073633,63.02743324091642,-112.80790006752193,109.96291518864881,-80.44587611107283,7.025531914893618,-8.683760683760688,-8.009009009008993,-6.112299465240639,-9.033472803347284,-19.136986301369852,-3.2844827586206815,23.94857142857144,10.65426429560165,50.044746137660745,24.98354321773186,1268.8029933948887,44.501102693726885,439.39525156632413,0
-4.474754812931342,21.748068669527907,-48.72780617073633,63.02743324091642,-112.80790006752193,109.96291518864881,-80.44587611107283,18.914893617021278,1.0854700854700798,-3.4324324324324156,-34.63636363636364,5.845188284518825,1.7397260273972712,7.993605777301127e-15,31.2057142857143,12.107473546114726,201.23898223683997,24.98354321773186,1268.8029933948887,44.501102693726885,439.39525156632413,0
-6.781329458772243,21.584549356223185,-48.1668875007887,62.36028016926895,-112.46488858879138,110.37246049661398,-80.32336525873356,18.914893617021278,1.0854700854700798,-3.4324324324324156,-34.63636363636364,5.845188284518825,1.7397260273972712,7.993605777301127e-15,31.2057142857143,12.107473546114726,201.23898223683997,25.510922105261375,1230.441739835639,44.03723900876028,428.4555533352769,0
-6.781329458772243,21.584549356223185,-48.1668875007887,62.36028016926895,-112.46488858879138,110.37246049661398,-80.32336525873356,7.025531914893618,-7.598290598290603,1.687538997430238e-14,0.6791443850267411,-10.096234309623435,-15.657534246575333,1.0948275862069043,22.49714285714287,8.08108823721994,62.79055273040121,25.510922105261375,1230.441739835639,44.03723900876028,428.4555533352769,0
-6.781329458772243,21.584549356223185,-48.1668875007887,62.36028016926895,-112.46488858879138,110.37246049661398,-80.32336525873356,5.944680851063831,-7.598290598290603,18.306306306306325,-0.6791443850267349,-7.970711297071134,0.5799086757990963,13.137931034482767,25.400000000000013,9.952121643505063,73.99018585378224,25.510922105261375,1230.441739835639,44.03723900876028,428.4555533352769,0
-7.796222302942239,19.13175965665237,-47.990598775948015,61.69312709762147,-112.16475354490211,110.92534666236696,-80.04334045338663,5.944680851063831,-7.598290598290603,18.306306306306325,-0.6791443850267349,-7.970711297071134,0.5799086757990963,13.137931034482767,25.400000000000013,9.952121643505063,73.99018585378224,24.97286024518088,1141.0191856707422,42.938495176740616,472.01031269413943,0
-7.796222302942239,19.13175965665237,-47.990598775948015,61.69312709762147,-112.16475354490211,110.92534666236696,-80.04334045338663,11.348936170212767,1.0854700854700798,10.297297297297314,-19.6951871657754,-14.347280334728037,-30.73515981735159,-7.663793103448269,23.94857142857144,14.890211925356862,90.41804819611632,24.97286024518088,1141.0191856707422,42.938495176740616,472.01031269413943,0
-7.796222302942239,19.13175965665237,-47.990598775948015,61.69312709762147,-112.16475354490211,110.92534666236696,-80.04334045338663,8.106382978723405,-9.769230769230774,2.288288288288305,-4.754010695187163,2.656903765690373,-11.018264840182638,5.474137931034491,26.851428571428585,8.864830979970716,62.819009927995864,24.97286024518088,1141.0191856707422,42.938495176740616,472.01031269413943,0
-7.550187674052543,17.33304721030044,-48.182913748501484,61.35955056179779,-112.01468602295745,111.56014188971298,-79.64080479570042,8.106382978723405,-9.769230769230774,2.288288288288305,-4.754010695187163,2.656903765690373,-11.018264840182638,5.474137931034491,26.851428571428585,8.864830979970716,62.819009927995864,24.355382877618155,1093.7558244843904,42.29183717353323,510.6118367489566,0
-7.550187674052543,17.33304721030044,-48.182913748501484,61.35955056179779,-112.01468602295745,111.56014188971298,-79.64080479570042,14.591489361702129,-7.598290598290603,-3.4324324324324156,-12.90374331550802,-22.84937238493724,6.378995433789964,7.663793103448284,28.302857142857157,12.965121721620726,75.24993771774635,24.355382877618155,1093.7558244843904,42.29183717353323,510.6118367489566,0
-7.550187674052543,17.33304721030044,-48.182913748501484,61.35955056179779,-112.01468602295745,111.56014188971298,-79.64080479570042,2.7021276595744688,-18.45299145299146,6.864864864864882,-4.754010695187163,-16.47280334728034,-4.059360730593597,10.948275862068973,25.400000000000013,11.206804326570111,66.52258186494248,24.355382877618155,1093.7558244843904,42.29183717353323,510.6118367489566,0
-7.580942002663755,17.823605150214604,-48.3111237302038,61.137166204581945,-111.92893315327484,112.194937117059,-79.2382691380142,2.7021276595744688,-18.45299145299146,6.864864864864882,-4.754010695187163,-16.47280334728034,-4.059360730593597,10.948275862068973,25.400000000000013,11.206804326570111,66.52258186494248,24.571890294360724,1113.023513947951,42.42396502833345,495.0101209883577,0
-7.580942002663755,17.823605150214604,-48.3111237302038,61.137166204581945,-111.92893315327484,112.194937117059,-79.2382691380142,7.025531914893618,-7.598290598290603,28.603603603603624,-18.336898395721924,-55.794979079497914,-28.41552511415524,2.1896551724138007,19.594285714285725,20.944846199107808,294.46568893972386,24.571890294360724,1113.023513947951,42.42396502833345,495.0101209883577,0
-7.580942002663755,17.823605150214604,-48.3111237302038,61.137166204581945,-111.92893315327484,112.194937117059,-79.2382691380142,12.429787234042553,-14.111111111111116,-10.29729729729728,-6.112299465240639,-3.719665271966531,-8.698630136986292,4.379310344827594,28.302857142857157,11.006369750541147,62.51833724446211,24.571890294360724,1113.023513947951,42.42396502833345,495.0101209883577,0
-4.136457198208009,18.804721030042927,-49.368856079247905,61.35955056179779,-112.12187711006078,112.48161883263462,-78.8182319299938,12.429787234042553,-14.111111111111116,-10.29729729729728,-6.112299465240639,-3.719665271966531,-8.698630136986292,4.379310344827594,28.302857142857157,11.006369750541147,62.51833724446211,24.10334476916628,1203.3173638183828,43.177709223696205,481.47610365943467,0
-4.136457198208009,18.804721030042927,-49.368856079247905,61.35955056179779,-112.12187711006078,112.48161883263462,-78.8182319299938,12.429787234042553,-19.538461538461544,-81.23423423423422,-25.1283422459893,17.53556485355648,23.776255707762566,24.086206896551733,34.108571428571445,29.72967801739623,473.1716890369633,24.10334476916628,1203.3173638183828,43.177709223696205,481.47610365943467,0
-4.136457198208009,18.804721030042927,-49.368856079247905,61.35955056179779,-112.12187711006078,112.48161883263462,-78.8182319299938,15.672340425531916,7.598290598290593,17.16216216216218,-7.470588235294115,-13.284518828451887,-17.97716894977168,-13.137931034482751,26.851428571428585,14.894303600676713,38.89214674913325,24.10334476916628,1203.3173638183828,43.177709223696205,481.47610365943467,0
-3.521370625983769,21.639055793991425,-49.56117105180138,61.61899897854954,-112.35769750168805,112.58400515962592,-78.45069937297596,15.672340425531916,7.598290598290593,17.16216216216218,-7.470588235294115,-13.284518828451887,-17.97716894977168,-13.137931034482751,26.851428571428585,14.894303600676713,38.89214674913325,24.90719915725886,1303.697097296076,44.27307527478078,420.57193197033104,0
-3.521370625983769,21.639055793991425,-49.56117105180138,61.61899897854954,-112.35769750168805,112.58400515962592,-78.45069937297596,8.106382978723405,-6.512820512820518,20.594594594594614,-7.470588235294115,-13.284518828451887,-17.97716894977168,-9.85344827586206,22.49714285714287,13.287083154082644,39.79622639868996,24.90719915725886,1303.697097296076,44.27307527478078,420.57193197033104,0
-3.521370625983769,21.639055793991425,-49.56117105180138,61.61899897854954,-112.35769750168805,112.58400515962592,-78.45069937297596,4.863829787234043,-15.196581196581201,-28.603603603603588,-11.545454545454543,4.782426778242673,-8.698630136986292,7.993605777301127e-15,22.49714285714287,12.023458613155652,93.45819039180142,24.90719915725886,1303.697097296076,44.27307527478078,420.57193197033104,0
-0.876498365419536,23.4922746781116,-50.20222096031296,61.989639573909244,-112.70070898041865,112.35875524024506,-78.18817611796321,4.863829787234043,-15.196581196581201,-28.603603603603588,-11.545454545454543,4.782426778242673,-8.698630136986292,7.993605777301127e-15,22.49714285714287,12.023458613155652,93.45819039180142,24.856998001281365,1409.6237827595473,45.22804507077793,389.06859531507183,0
-0.876498365419536,23.4922746781116,-50.20222096031296,61.989639573909244,-112.70070898041865,112.35875524024506,-78.18817611796321,12.429787234042553,-2.1709401709401766,20.594594594594614,-2.037433155080211,-2.6569037656903802,-15.657534246575333,7.663793103448284,29.75428571428573,11.62065899808216,100.49315532735145,24.856998001281365,1409.6237827595473,45.22804507077793,389.06859531507183,0
-0.876498365419536,23.4922746781116,-50.20222096031296,61.989639573909244,-112.70070898041865,112.35875524024506,-78.18817611796321,28.642553191489363,35.82051282051281,34.324324324324344,-7.470588235294115,-10.096234309623435,-19.136986301369852,8.758620689655181,35.56000000000002,22.47622748403364,157.9161048515996,24.856998001281365,1409.6237827595473,45.22804507077793,389.06859531507183,0
-1.061024337086808,27.19871244635194,-49.73745977664206,61.95257551437328,-112.85077650236326,111.96968719767816,-78.08316681595811,28.642553191489363,35.82051282051281,34.324324324324344,-7.470588235294115,-10.096234309623435,-19.136986301369852,8.758620689655181,35.56000000000002,22.47622748403364,157.9161048515996,25.999065520026935,1514.5304477494376,46.29624924578909,310.83919697593444,0
-1.061024337086808,27.19871244635194,-49.73745977664206,61.95257551437328,-112.85077650236326,111.96968719767816,-78.08316681595811,7.025531914893618,-16.282051282051285,9.15315315315317,-2.037433155080211,-10.096234309623435,-13.337899543378985,-3.2844827586206815,21.045714285714297,10.28281255031446,41.43545654821144,25.999065520026935,1514.5304477494376,46.29624924578909,310.83919697593444,0
-1.061024337086808,27.19871244635194,-49.73745977664206,61.95257551437328,-112.85077650236326,111.96968719767816,-78.08316681595811,10.26808510638298,-6.217248937900877e-15,-1.1441441441441276,-16.978609625668447,-34.5397489539749,-20.296803652968027,7.663793103448284,28.302857142857157,14.89925521618049,154.83618827606864,25.999065520026935,1514.5304477494376,46.29624924578909,310.83919697593444,0
-0.6919723937522639,29.9785407725322,-49.51309230866301,61.915511454837315,-112.91509115462526,111.56014188971298,-78.2056776682974,10.26808510638298,-6.217248937900877e-15,-1.1441441441441276,-16.978609625668447,-34.5397489539749,-20.296803652968027,7.663793103448284,28.302857142857157,14.89925521618049,154.83618827606864,26.727868491649158,1607.1836429241157,47.135714845344175,259.23146679292637,0
-0.6919723937522639,29.9785407725322,-49.51309230866301,61.915511454837315,-112.91509115462526,111.56014188971298,-78.2056776682974,9.187234042553193,1.0854700854700798,13.729729729729748,-10.187165775401066,-6.907949790794983,2.8995433789954443,2.1896551724138007,26.851428571428585,9.129772068348363,70.42376624364364,26.727868491649158,1607.1836429241157,47.135714845344175,259.23146679292637,0
-0.6919723937522639,29.9785407725322,-49.51309230866301,61.915511454837315,-112.91509115462526,111.56014188971298,-78.2056776682974,8.106382978723405,-17.36752136752137,-11.441441441441425,0.6791443850267411,-9.033472803347284,-12.178082191780812,2.1896551724138007,25.400000000000013,10.799462542531856,63.64983423928123,26.727868491649158,1607.1836429241157,47.135714845344175,259.23146679292637,0
0.10764015013924855,30.305579399141642,-48.759858666161904,61.95257551437328,-112.95796758946659,111.17107384714606,-78.38069317163922,8.106382978723405,-17.36752136752137,-11.441441441441425,0.6791443850267411,-9.033472803347284,-12.178082191780812,2.1896551724138007,25.400000000000013,10.799462542531856,63.64983423928123,26.391026071814263,1591.8819119843306,47.00600452655894,252.69009403662344,0
0.10764015013924855,30.305579399141642,-48.759858666161904,61.95257551437328,-112.95796758946659,111.17107384714606,-78.38069317163922,7.025531914893618,-7.598290598290603,20.594594594594614,6.112299465240646,-0.5313807531380794,-8.698630136986292,2.1896551724138007,25.400000000000013,9.768797829444708,75.86535475002982,26.391026071814263,1591.8819119843306,47.00600452655894,252.69009403662344,0
0.10764015013924855,30.305579399141642,-48.759858666161904,61.95257551437328,-112.95796758946659,111.17107384714606,-78.38069317163922,9.187234042553193,-14.111111111111116,-9.153153153153138,-10.187165775401066,-11.158995815899585,-37.69406392694063,-12.043103448275854,19.594285714285725,15.391139123452538,92.90399906429536,26.391026071814263,1591.8819119843306,47.00600452655894,252.69009403662344,0
-2.4449691245913487,30.46909871244636,-48.4713862073317,61.54487085947761,-112.78646185010126,110.88439213157045,-78.55570867498106,9.187234042553193,-14.111111111111116,-9.153153153153138,-10.187165775401066,-11.158995815899585,-37.69406392694063,-12.043103448275854,19.594285714285725,15.391139123452538,92.90399906429536,27.128484681456467,1572.2278484042,46.82845192641856,243.45032842210054,0
-2.4449691245913487,30.46909871244636,-48.4713862073317,61.54487085947761,-112.78646185010126,110.88439213157045,-78.55570867498106,18.914893617021278,19.53846153846153,34.324324324324344,-2.037433155080211,-14.347280334728037,-15.657534246575333,-6.568965517241372,31.2057142857143,17.8243258773933,121.16186484031286,27.128484681456467,1572.2278484042,46.82845192641856,243.45032842210054,0
-2.4449691245913487,30.46909871244636,-48.4713862073317,61.54487085947761,-112.78646185010126,110.88439213157045,-78.55570867498106,19.995744680851065,3.25641025641025,1.687538997430238e-14,-10.187165775401066,-14.347280334728037,-9.858447488584465,4.379310344827594,31.2057142857143,11.6537591458146,103.39142069606852,27.128484681456467,1572.2278484042,46.82845192641856,243.45032842210054,0
-4.167211526819221,32.213304721030056,-48.45535995961891,60.877717787830136,-112.50776502363271,110.63866494679134,-78.76572727899126,19.995744680851065,3.25641025641025,1.687538997430238e-14,-10.187165775401066,-14.347280334728037,-9.858447488584465,4.379310344827594,31.2057142857143,11.6537591458146,103.39142069606852,28.278625402489396,1632.069252570784,47.182127489493034,206.62798480827195,0
-4.167211526819221,32.213304721030056,-48.45535995961891,60.877717787830136,-112.50776502363271,110.63866494679134,-78.76572727899126,13.51063829787234,-6.512820512820518,-29.74774774774773,-19.6951871657754,6.907949790794975,-17.97716894977168,5.474137931034491,28.302857142857157,16.016063442334286,92.51214979906295,28.278625402489396,1632.069252570784,47.182127489493034,206.62798480827195,0
-4.167211526819221,32.213304721030056,-48.45535995961891,60.877717787830136,-112.50776502363271,110.63866494679134,-78.76572727899126,1.621276595744682,-22.7948717948718,-3.4324324324324156,3.3957219251336923,1.5941422594142214,-6.378995433789944,1.0948275862069043,19.594285714285725,7.488319217734923,75.04505606730831,28.278625402489396,1632.069252570784,47.182127489493034,206.62798480827195,0
-6.627557815716182,33.52145922746782,-48.1668875007887,59.839924120823014,-112.03612424037811,110.47484682360528,-78.99324743333564,1.621276595744682,-22.7948717948718,-3.4324324324324156,3.3957219251336923,1.5941422594142214,-6.378995433789944,1.0948275862069043,19.594285714285725,7.488319217734923,75.04505606730831,29.438634847990897,1668.4075785691473,47.17609028302652,173.90165793073638,0
-6.627557815716182,33.52145922746782,-48.1668875007887,59.839924120823014,-112.03612424037811,110.47484682360528,-78.99324743333564,11.348936170212767,1.0854700854700798,20.594594594594614,-3.395721925133687,-5.845188284518832,-15.657534246575333,5.474137931034491,23.94857142857144,10.918769333263906,70.67336081541335,29.438634847990897,1668.4075785691473,47.17609028302652,173.90165793073638,0
-6.627557815716182,33.52145922746782,-48.1668875007887,59.839924120823014,-112.03612424037811,110.47484682360528,-78.99324743333564,4.863829787234043,-21.709401709401714,-33.180180180180166,-18.336898395721924,-7.970711297071134,-7.538812785388117,1.0948275862069043,25.400000000000013,15.011832717650503,128.00068203424885,29.438634847990897,1668.4075785691473,47.17609028302652,173.90165793073638,0
-8.811115147112236,33.73948497854078,-48.1668875007887,58.653874215671976,-111.43585415259957,110.45436955820702,-79.22076758768002,4.863829787234043,-21.709401709401714,-33.180180180180166,-18.336898395721924,-7.970711297071134,-7.538812785388117,1.0948275862069043,25.400000000000013,15.011832717650503,128.00068203424885,30.239162542147238,1678.0140402217146,46.85341556500049,156.47560415939714,0
-8.811115147112236,33.73948497854078,-48.1668875007887,58.653874215671976,-111.43585415259957,110.45436955820702,-79.22076758768002,9.187234042553193,-14.111111111111116,-14.873873873873858,-6.112299465240639,-9.033472803347284,-19.136986301369852,1.0948275862069043,26.851428571428585,12.550154219391429,64.58511811786795,30.239162542147238,1678.0140402217146,46.85341556500049,156.47560415939714,0
-8.811115147112236,33.73948497854078,-48.1668875007887,58.653874215671976,-111.43585415259957,110.45436955820702,-79.22076758768002,22.157446808510638,16.282051282051274,19.450450450450468,-6.112299465240639,-9.033472803347284,-9.858447488584465,5.474137931034491,34.108571428571445,15.309609707223837,95.54544630875714,30.239162542147238,1678.0140402217146,46.85341556500049,156.47560415939714,0
-8.934132461557084,33.957510729613745,-48.35920247334217,57.504888370056904,-110.89989871708303,110.43389229280875,-79.43078619169022,22.157446808510638,16.282051282051274,19.450450450450468,-6.112299465240639,-9.033472803347284,-9.858447488584465,5.474137931034491,34.108571428571445,15.309609707223837,95.54544630875714,30.41694855483767,1695.0117456017606,46.60720052433761,140.92188155739746,0
-8.934132461557084,33.957510729613745,-48.35920247334217,57.504888370056904,-110.89989871708303,110.43389229280875,-79.43078619169022,8.106382978723405,-15.196581196581201,1.1441441441441609,0.6791443850267411,-6.907949790794983,-14.49771689497716,3.2844827586206975,21.045714285714297,8.85776455432283,54.62190957834532,30.41694855483767,1695.0117456017606,46.60720052433761,140.92188155739746,0
-8.934132461557084,33.957510729613745,-48.35920247334217,57.504888370056904,-110.89989871708303,110.43389229280875,-79.43078619169022,4.863829787234043,-15.196581196581201,10.297297297297314,-2.037433155080211,-9.033472803347284,-11.018264840182638,3.2844827586206975,21.045714285714297,9.59713451550721,40.66488089267342,30.41694855483767,1695.0117456017606,46.60720052433761,140.92188155739746,0
-9.364693062114052,34.1755364806867,-48.567543693608435,56.39296658397785,-110.34250506414583,110.4134150274105,-79.62330324536623,4.863829787234043,-15.196581196581201,10.297297297297314,-2.037433155080211,-9.033472803347284,-11.018264840182638,3.2844827586206975,21.045714285714297,9.59713451550721,40.66488089267342,30.702591078803064,1713.1720671674789,46.37868225275766,126.99688590408945,0
-9.364693062114052,34.1755364806867,-48.567543693608435,56.39296658397785,-110.34250506414583,110.4134150274105,-79.62330324536623,13.51063829787234,-1.0854700854700914,16.018018018018036,-8.828877005347591,-19.66108786610879,-8.698630136986292,2.1896551724138007,26.851428571428585,12.10547564420569,76.27422668333999,30.702591078803064,1713.1720671674789,46.37868225275766,126.99688590408945,0
-9.364693062114052,34.1755364806867,-48.567543693608435,56.39296658397785,-110.34250506414583,110.4134150274105,-79.62330324536623,7.025531914893618,-4.341880341880348,12.585585585585603,-4.754010695187163,-4.782426778242682,-19.136986301369852,-1.0948275862068888,23.94857142857144,9.7087275789922,65.56586395553686,30.702591078803064,1713.1720671674789,46.37868225275766,126.99688590408945,0
-7.21189005932921,34.23004291845494,-48.759858666161904,55.65168539325845,-109.95661715057395,110.29055143502094,-79.8508233997106,7.025531914893618,-4.341880341880348,12.585585585585603,-4.754010695187163,-4.782426778242682,-19.136986301369852,-1.0948275862068888,23.94857142857144,9.7087275789922,65.56586395553686,30.067263881315352,1721.831878218983,46.21386232595844,119.58326460282353,0
-7.21189005932921,34.23004291845494,-48.759858666161904,55.65168539325845,-109.95661715057395,110.29055143502094,-79.8508233997106,4.863829787234043,-14.111111111111116,1.687538997430238e-14,-15.62032085561497,-15.410041841004187,-34.21461187214611,1.0948275862069043,23.94857142857144,13.657914310236098,136.758215741666,30.067263881315352,1721.831878218983,46.21386232595844,119.58326460282353,0
-7.21189005932921,34.23004291845494,-48.759858666161904,55.65168539325845,-109.95661715057395,110.29055143502094,-79.8508233997106,8.106382978723405,-10.854700854700859,2.288288288288305,-7.470588235294115,2.656903765690373,-9.858447488584465,7.993605777301127e-15,23.94857142857144,8.147985379981622,55.89268563856625,30.067263881315352,1721.831878218983,46.21386232595844,119.58326460282353,0
-5.735682285991034,34.72060085836911,-49.00025238185375,55.0586604406829,-109.67792032410534,110.02434698484359,-80.078343554055,8.106382978723405,-10.854700854700859,2.288288288288305,-7.470588235294115,2.656903765690373,-9.858447488584465,7.993605777301127e-15,23.94857142857144,8.147985379981622,55.89268563856625,29.81884517540463,1752.9525231178986,46.25983789363525,109.04157056886481,0
-5.735682285991034,34.72060085836911,-49.00025238185375,55.0586604406829,-109.67792032410534,110.02434698484359,-80.078343554055,12.429787234042553,-13.02564102564103,-58.35135135135134,-25.1283422459893,-10.096234309623435,-6.378995433789944,3.2844827586206975,28.302857142857157,19.624711437739432,319.13020152518754,29.81884517540463,1752.9525231178986,46.25983789363525,109.04157056886481,0
-5.735682285991034,34.72060085836911,-49.00025238185375,55.0586604406829,-109.67792032410534,110.02434698484359,-80.078343554055,11.348936170212767,-9.769230769230774,-4.57657657657656,-7.470588235294115,-2.6569037656903802,-12.178082191780812,2.1896551724138007,26.851428571428585,9.630175181578473,62.88962873257593,29.81884517540463,1752.9525231178986,46.25983789363525,109.04157056886481,0
-5.305121685434066,33.52145922746782,-49.064357372704904,54.46563548810741,-109.44209993247807,109.77861980006448,-80.25335905739682,11.348936170212767,-9.769230769230774,-4.57657657657656,-7.470588235294115,-2.6569037656903802,-12.178082191780812,2.1896551724138007,26.851428571428585,9.630175181578473,62.88962873257593,29.296979428535597,1707.1318661396,45.683817362760045,118.23566787831321,0
-5.305121685434066,33.52145922746782,-49.064357372704904,54.46563548810741,-109.44209993247807,109.77861980006448,-80.25335905739682,9.187234042553193,-7.598290598290603,19.450450450450468,7.470588235294121,-6.907949790794983,-9.858447488584465,4.379310344827594,26.851428571428585,11.462962440278002,58.5941814339767,29.296979428535597,1707.1318661396,45.683817362760045,118.23566787831321,0
-5.305121685434066,33.52145922746782,-49.064357372704904,54.46563548810741,-109.44209993247807,109.77861980006448,-80.25335905739682,8.106382978723405,-11.940170940170946,-3.4324324324324156,-14.262032085561495,-19.66108786610879,-8.698630136986292,2.1896551724138007,23.94857142857144,11.529870380121073,57.216885202042285,29.296979428535597,1707.1318661396,45.683817362760045,118.23566787831321,0
-4.720789441821037,32.70386266094422,-49.04833112499212,54.09499489274771,-109.27059419311274,109.55336988068363,-80.41087301040447,8.106382978723405,-11.940170940170946,-3.4324324324324156,-14.262032085561495,-19.66108786610879,-8.698630136986292,2.1896551724138007,23.94857142857144,11.529870380121073,57.216885202042285,28.82432774258579,1674.8261209165948,45.28239622622802,125.03183378592257,0
-4.720789441821037,32.70386266094422,-49.04833112499212,54.09499489274771,-109.27059419311274,109.55336988068363,-80.41087301040447,14.591489361702129,-6.512820512820518,2.288288288288305,-3.395721925133687,-4.782426778242682,-8.698630136986292,5.474137931034491,26.851428571428585,9.074367938204587,66.12079003551015,28.82432774258579,1674.8261209165948,45.28239622622802,125.03183378592257,0
-4.720789441821037,32.70386266094422,-49.04833112499212,54.09499489274771,-109.27059419311274,109.55336988068363,-80.41087301040447,22.157446808510638,7.598290598290593,14.873873873873892,-4.754010695187163,-18.59832635983264,-7.538812785388117,13.137931034482767,32.65714285714287,15.164479376588586,84.95048367838679,28.82432774258579,1674.8261209165948,45.28239622622802,125.03183378592257,0
-4.6592807845986135,32.59484978540773,-48.85601615243864,53.724354297388004,-109.09908845374747,109.34859722670105,-80.60339006408049,22.157446808510638,7.598290598290593,14.873873873873892,-4.754010695187163,-18.59832635983264,-7.538812785388117,13.137931034482767,32.65714285714287,15.164479376588586,84.95048367838679,28.703382240815,1662.577537287831,45.05840674507812,122.43036813860348,0
-4.6592807845986135,32.59484978540773,-48.85601615243864,53.724354297388004,-109.09908845374747,109.34859722670105,-80.60339006408049,10.26808510638298,-6.217248937900877e-15,17.16216216216218,-2.037433155080211,2.656903765690373,-16.817351598173506,-8.758620689655165,21.045714285714297,9.843283845357341,62.64579991277372,28.703382240815,1662.577537287831,45.05840674507812,122.43036813860348,0
-4.6592807845986135,32.59484978540773,-48.85601615243864,53.724354297388004,-109.09908845374747,109.34859722670105,-80.60339006408049,9.187234042553193,-7.598290598290603,20.594594594594614,-6.112299465240639,-34.5397489539749,-9.858447488584465,3.2844827586206975,26.851428571428585,14.753315809160963,126.33206996078454,28.703382240815,1662.577537287831,45.05840674507812,122.43036813860348,0
-5.305121685434066,31.286695278969965,-48.66370117988517,53.390777761564266,-108.90614449696153,109.28716543050628,-80.72590091641977,9.187234042553193,-7.598290598290603,20.594594594594614,-6.112299465240639,-34.5397489539749,-9.858447488584465,3.2844827586206975,26.851428571428585,14.753315809160963,126.33206996078454,28.4185060480964,1601.8322297435332,44.44705807347314,135.48267491447217,0
-5.305121685434066,31.286695278969965,-48.66370117988517,53.390777761564266,-108.90614449696153,109.28716543050628,-80.72590091641977,10.26808510638298,-3.256410256410262,13.729729729729748,3.3957219251336923,7.9707112970711265,0.5799086757990963,5.474137931034491,25.400000000000013,8.759338115195176,63.037267195037735,28.4185060480964,1601.8322297435332,44.44705807347314,135.48267491447217,0
-5.305121685434066,31.286695278969965,-48.66370117988517,53.390777761564266,-108.90614449696153,109.28716543050628,-80.72590091641977,8.106382978723405,-4.341880341880348,19.450450450450468,-7.470588235294115,-28.163179916317997,-20.296803652968027,-4.379310344827578,23.94857142857144,14.519645918629173,89.9959306400721,28.4185060480964,1601.8322297435332,44.44705807347314,135.48267491447217,0
-5.612664971546186,29.651502145922755,-48.93614739100259,53.02013716620462,-108.71320054017554,109.28716543050628,-80.7959071177565,8.106382978723405,-4.341880341880348,19.450450450450468,-7.470588235294115,-28.163179916317997,-20.296803652968027,-4.379310344827578,23.94857142857144,14.519645918629173,89.9959306400721,28.066771502823844,1549.417378529388,43.86926223437666,155.7782695706132,0
-5.612664971546186,29.651502145922755,-48.93614739100259,53.02013716620462,-108.71320054017554,109.28716543050628,-80.7959071177565,5.944680851063831,-16.282051282051285,-16.018018018018,-4.754010695187163,11.158995815899576,6.378995433789964,5.474137931034491,29.75428571428573,11.970646967666255,73.39275821582767,28.066771502823844,1549.417378529388,43.86926223437666,155.7782695706132,0
-5.612664971546186,29.651502145922755,-48.93614739100259,53.02013716620462,-108.71320054017554,109.28716543050628,-80.7959071177565,8.106382978723405,-7.598290598290603,-13.729729729729716,-6.112299465240639,4.782426778242673,-31.89497716894976,7.663793103448284,21.045714285714297,12.616701763542423,88.24011858886809,28.066771502823844,1549.417378529388,43.86926223437666,155.7782695706132,0
-5.397384671267702,28.724892703862672,-48.66370117988517,52.83481686852474,-108.5845712356516,109.3690744920993,-80.86591331909324,8.106382978723405,-7.598290598290603,-13.729729729729716,-6.112299465240639,4.782426778242673,-31.89497716894976,7.663793103448284,21.045714285714297,12.616701763542423,88.24011858886809,27.59532618500518,1504.2164034654754,43.407803584090864,166.0404554595463,0
-5.397384671267702,28.724892703862672,-48.66370117988517,52.83481686852474,-108.5845712356516,109.3690744920993,-80.86591331909324,8.106382978723405,-14.111111111111116,6.864864864864882,-11.545454545454543,-12.221757322175737,-20.296803652968027,-17.517241379310338,22.49714285714287,14.145094838968864,31.271128697070544,27.59532618500518,1504.2164034654754,43.407803584090864,166.0404554595463,0
-5.397384671267702,28.724892703862672,-48.66370117988517,52.83481686852474,-108.5845712356516,109.3690744920993,-80.86591331909324,13.51063829787234,8.683760683760678,18.306306306306325,-4.754010695187163,5.845188284518825,-2.899543378995423,3.2844827586206975,26.851428571428585,10.516919872086254,72.16890107690361,27.59532618500518,1504.2164034654754,43.407803584090864,166.0404554595463,0
-4.6900351132098255,26.599141630901297,-48.45535995961891,52.797752808988776,-108.49881836596893,109.55336988068363,-80.9009164197616,13.51063829787234,8.683760683760678,18.306306306306325,-4.754010695187163,5.845188284518825,-2.899543378995423,3.2844827586206975,26.851428571428585,10.516919872086254,72.16890107690361,26.581512234576678,1421.2657415395563,42.61741813316966,197.15298049190673,0
-4.6900351132098255,26.599141630901297,-48.45535995961891,52.797752808988776,-108.49881836596893,109.55336988068363,-80.9009164197616,7.025531914893618,-14.111111111111116,3.4324324324324493,-0.6791443850267349,-5.845188284518832,-11.018264840182638,18.61206896551725,26.851428571428585,10.946896313138904,75.00354107498713,26.581512234576678,1421.2657415395563,42.61741813316966,197.15298049190673,0
-4.6900351132098255,26.599141630901297,-48.45535995961891,52.797752808988776,-108.49881836596893,109.55336988068363,-80.9009164197616,7.025531914893618,-17.36752136752137,-8.009009009008993,-4.754010695187163,-1.5941422594142303,-12.178082191780812,-4.379310344827578,22.49714285714287,9.72559382997208,51.02615837344871,26.581512234576678,1421.2657415395563,42.61741813316966,197.15298049190673,0
-3.582879283206193,26.163090128755375,-48.263044987065435,53.02013716620462,-108.49881836596893,109.77861980006448,-80.97092262109834,7.025531914893618,-17.36752136752137,-8.009009009008993,-4.754010695187163,-1.5941422594142303,-12.178082191780812,-4.379310344827578,22.49714285714287,9.72559382997208,51.02615837344871,26.003004799675665,1403.3982486433479,42.48209076067514,205.38981771865514,0
-3.582879283206193,26.163090128755375,-48.263044987065435,53.02013716620462,-108.49881836596893,109.77861980006448,-80.97092262109834,9.187234042553193,-3.256410256410262,34.324324324324344,-8.828877005347591,-21.786610878661094,-13.337899543378985,1.0948275862069043,23.94857142857144,14.470594383181727,129.0316672724955,26.003004799675665,1403.3982486433479,42.48209076067514,205.38981771865514,0
-3.582879283206193,26.163090128755375,-48.263044987065435,53.02013716620462,-108.49881836596893,109.77861980006448,-80.97092262109834,13.51063829787234,-1.0854700854700914,-10.29729729729728,-15.62032085561497,-2.6569037656903802,-0.5799086757990768,4.379310344827594,26.851428571428585,9.37265973675004,82.64905008168009,26.003004799675665,1403.3982486433479,42.48209076067514,205.38981771865514,0
-2.721758082092257,26.490128755364815,-48.45535995961891,53.3537137020283,-108.56313301823093,109.90148339245403,-81.04092882243506,13.51063829787234,-1.0854700854700914,-10.29729729729728,-15.62032085561497,-2.6569037656903802,-0.5799086757990768,4.379310344827594,26.851428571428585,9.37265973675004,82.64905008168009,25.889082265691997,1426.9538253373767,42.76640080567068,204.6862412381198,0
-2.721758082092257,26.490128755364815,-48.45535995961891,53.3537137020283,-108.56313301823093,109.90148339245403,-81.04092882243506,14.591489361702129,-1.0854700854700914,3.4324324324324493,-4.754010695187163,-21.786610878661094,-27.25570776255707,5.474137931034491,26.851428571428585,13.153910964809134,118.96634992312953,25.889082265691997,1426.9538253373767,42.76640080567068,204.6862412381198,0
-2.721758082092257,26.490128755364815,-48.45535995961891,53.3537137020283,-108.56313301823093,109.90148339245403,-81.04092882243506,12.429787234042553,-8.683760683760688,22.8828828828829,-0.6791443850267349,-9.033472803347284,-6.378995433789944,6.568965517241387,31.2057142857143,12.232840403225723,99.44270392271116,25.889082265691997,1426.9538253373767,42.76640080567068,204.6862412381198,0
-0.5382007506962037,25.945064377682414,-48.32714997791659,54.02086677367578,-108.75607697501687,110.00386971944532,-81.18094122510853,12.429787234042553,-8.683760683760688,22.8828828828829,-0.6791443850267349,-9.033472803347284,-6.378995433789944,6.568965517241387,31.2057142857143,12.232840403225723,99.44270392271116,24.936805035431735,1416.918137564315,42.764360376424925,220.27114115756453,0
-0.5382007506962037,25.945064377682414,-48.32714997791659,54.02086677367578,-108.75607697501687,110.00386971944532,-81.18094122510853,10.26808510638298,-13.02564102564103,-13.729729729729716,-12.90374331550802,0.5313807531380714,-6.378995433789944,1.0948275862069043,25.400000000000013,10.416550368799584,64.20134127020819,24.936805035431735,1416.918137564315,42.764360376424925,220.27114115756453,0
-0.5382007506962037,25.945064377682414,-48.32714997791659,54.02086677367578,-108.75607697501687,110.00386971944532,-81.18094122510853,5.944680851063831,-11.940170940170946,11.441441441441459,2.037433155080217,-18.59832635983264,-24.936073059360723,-14.232758620689648,19.594285714285725,13.590646267740649,55.64746206264824,24.936805035431735,1416.918137564315,42.764360376424925,220.27114115756453,0
1.276304637365305,25.67253218884121,-48.37522872105496,54.98453232161097,-109.09908845374747,110.00386971944532,-81.28595052711363,5.944680851063831,-11.940170940170946,11.441441441441459,2.037433155080217,-18.59832635983264,-24.936073059360723,-14.232758620689648,19.594285714285725,13.590646267740649,55.64746206264824,25.108021849087162,1423.9202632258098,43.01076441050238,236.38144595026787,0
1.276304637365305,25.67253218884121,-48.37522872105496,54.98453232161097,-109.09908845374747,110.00386971944532,-81.28595052711363,11.348936170212767,3.25641025641025,21.738738738738757,-14.262032085561495,-15.410041841004187,-15.657534246575333,7.993605777301127e-15,23.94857142857144,13.202783095884278,68.14783871316716,25.108021849087162,1423.9202632258098,43.01076441050238,236.38144595026787,0
1.276304637365305,25.67253218884121,-48.37522872105496,54.98453232161097,-109.09908845374747,110.00386971944532,-81.28595052711363,13.51063829787234,-6.217248937900877e-15,9.15315315315317,-3.395721925133687,3.719665271966523,-0.5799086757990768,7.663793103448284,28.302857142857157,8.29071719627878,85.98831503052106,25.108021849087162,1423.9202632258098,43.01076441050238,236.38144595026787,0
1.0917786656980328,25.61802575107297,-48.32714997791659,55.799941631402305,-109.4206617150574,109.98339245404706,-81.37345827878454,13.51063829787234,-6.217248937900877e-15,9.15315315315317,-3.395721925133687,3.719665271966523,-0.5799086757990768,7.663793103448284,28.302857142857157,8.29071719627878,85.98831503052106,25.012318131562534,1418.6093863277806,43.24837245346396,247.08249740898296,0
1.0917786656980328,25.61802575107297,-48.32714997791659,55.799941631402305,-109.4206617150574,109.98339245404706,-81.37345827878454,7.025531914893618,-11.940170940170946,-9.153153153153138,-3.395721925133687,-2.6569037656903802,-11.018264840182638,7.993605777301127e-15,25.400000000000013,8.823718317403053,62.570596993593476,25.012318131562534,1418.6093863277806,43.24837245346396,247.08249740898296,0
1.0917786656980328,25.61802575107297,-48.32714997791659,55.799941631402305,-109.4206617150574,109.98339245404706,-81.37345827878454,9.187234042553193,-1.0854700854700914,27.459459459459477,-6.112299465240639,-1.5941422594142303,15.657534246575352,3.2844827586206975,25.400000000000013,11.222577789666712,110.4347300677459,25.012318131562534,1418.6093863277806,43.24837245346396,247.08249740898296,0
-0.63046373652984,24.636909871244644,-48.08675626222475,56.35590252444189,-109.59216745442268,110.08577878103836,-81.39095982911873,9.187234042553193,-1.0854700854700914,27.459459459459477,-6.112299465240639,-1.5941422594142303,15.657534246575352,3.2844827586206975,25.400000000000013,11.222577789666712,110.4347300677459,24.45137662333308,1363.2119142019183,43.02652288597043,270.7280951000139,0
-0.63046373652984,24.636909871244644,-48.08675626222475,56.35590252444189,-109.59216745442268,110.08577878103836,-81.39095982911873,16.753191489361704,3.25641025641025,19.450450450450468,2.037433155080217,-30.288702928870297,-14.49771689497716,1.0948275862069043,28.302857142857157,14.460198738026769,132.97224275014838,24.45137662333308,1363.2119142019183,43.02652288597043,270.7280951000139,0
-0.63046373652984,24.636909871244644,-48.08675626222475,56.35590252444189,-109.59216745442268,110.08577878103836,-81.39095982911873,12.429787234042553,-11.940170940170946,-2.288288288288272,-0.6791443850267349,2.656903765690373,4.0593607305936175,12.04310344827587,26.851428571428585,9.118523420439619,75.30830605012636,24.45137662333308,1363.2119142019183,43.02652288597043,270.7280951000139,0
-2.691003753481045,23.98283261802576,-48.0066250236608,56.61535094119364,-109.63504388926401,110.3110287004192,-81.39095982911873,12.429787234042553,-11.940170940170946,-2.288288288288272,-0.6791443850267349,2.656903765690373,4.0593607305936175,12.04310344827587,26.851428571428585,9.118523420439619,75.30830605012636,24.893487131722537,1324.5801815700788,42.86826952762673,286.02233593068945,0
-2.691003753481045,23.98283261802576,-48.0066250236608,56.61535094119364,-109.63504388926401,110.3110287004192,-81.39095982911873,4.863829787234043,-21.709401709401714,-3.4324324324324156,-11.545454545454543,-0.5313807531380794,-16.817351598173506,7.663793103448284,22.49714285714287,11.132598348303183,70.93099281644838,24.893487131722537,1324.5801815700788,42.86826952762673,286.02233593068945,0
-2.691003753481045,23.98283261802576,-48.0066250236608,56.61535094119364,-109.63504388926401,110.3110287004192,-81.39095982911873,12.429787234042553,-3.256410256410262,-1.1441441441441276,-21.053475935828875,-30.288702928870297,-20.296803652968027,-13.137931034482751,26.851428571428585,16.057335469771935,109.98968085260108,24.893487131722537,1324.5801815700788,42.86826952762673,286.02233593068945,0
-2.752512410703469,23.81931330472104,-47.734178812543384,56.94892747701738,-109.65648210668468,110.61818768139308,-81.42596292978709,12.429787234042553,-3.256410256410262,-1.1441441441441276,-21.053475935828875,-30.288702928870297,-20.296803652968027,-13.137931034482751,26.851428571428585,16.057335469771935,109.98968085260108,24.7686681759893,1308.2190780521216,42.8341398647606,292.40062006864576,0
-2.752512410703469,23.81931330472104,-47.734178812543384,56.94892747701738,-109.65648210668468,110.61818768139308,-81.42596292978709,14.591489361702129,5.4273504273504205,-5.7207207207207045,-18.336898395721924,-6.907949790794983,-26.095890410958894,3.2844827586206975,26.851428571428585,13.402026304662293,90.70343145681262,24.7686681759893,1308.2190780521216,42.8341398647606,292.40062006864576,0
-2.752512410703469,23.81931330472104,-47.734178812543384,56.94892747701738,-109.65648210668468,110.61818768139308,-81.42596292978709,4.863829787234043,-7.598290598290603,28.603603603603624,4.754010695187169,-3.719665271966531,-11.018264840182638,7.663793103448284,22.49714285714287,11.33982509463197,84.78825469908166,24.7686681759893,1308.2190780521216,42.8341398647606,292.40062006864576,0
-2.383460467368925,23.71030042918456,-47.7021263171178,57.31956807237708,-109.72079675894668,110.9048693969687,-81.46096603045547,4.863829787234043,-7.598290598290603,28.603603603603624,4.754010695187169,-3.719665271966531,-11.018264840182638,7.663793103448284,22.49714285714287,11.33982509463197,84.78825469908166,24.59862907122376,1305.7334209872831,42.91066493955981,299.6142944774094,0
-2.383460467368925,23.71030042918456,-47.7021263171178,57.31956807237708,-109.72079675894668,110.9048693969687,-81.46096603045547,9.187234042553193,-9.769230769230774,24.027027027027046,7.470588235294121,-4.782426778242682,12.178082191780831,4.379310344827594,31.2057142857143,12.874951709333818,92.99829404421199,24.59862907122376,1305.7334209872831,42.91066493955981,299.6142944774094,0
-2.383460467368925,23.71030042918456,-47.7021263171178,57.31956807237708,-109.72079675894668,110.9048693969687,-81.46096603045547,8.106382978723405,-18.45299145299146,-18.30630630630629,-6.112299465240639,-15.410041841004187,-29.575342465753415,4.379310344827594,22.49714285714287,15.354977213998732,75.71069418496371,24.59862907122376,1305.7334209872831,42.91066493955981,299.6142944774094,0
-2.1989344957016526,24.473390557939922,-47.990598775948015,57.69020866773678,-109.76367319378801,111.1505965817478,-81.51347068145802,8.106382978723405,-18.45299145299146,-18.30630630630629,-6.112299465240639,-15.410041841004187,-29.575342465753415,4.379310344827594,22.49714285714287,15.354977213998732,75.71069418496371,24.887641276529862,1343.219865250622,43.38473266720823,291.74975329356045,0
-2.1989344957016526,24.473390557939922,-47.990598775948015,57.69020866773678,-109.76367319378801,111.1505965817478,-81.51347068145802,10.26808510638298,-11.940170940170946,1.1441441441441609,-7.470588235294115,-5.845188284518832,-7.538812785388117,10.948275862068973,26.851428571428585,10.25083674117459,56.6209517222433,24.887641276529862,1343.219865250622,43.38473266720823,291.74975329356045,0
-2.1989344957016526,24.473390557939922,-47.990598775948015,57.69020866773678,-109.76367319378801,111.1505965817478,-81.51347068145802,7.025531914893618,-9.769230769230774,-5.7207207207207045,-3.395721925133687,5.845188284518825,-7.538812785388117,-1.0948275862068888,25.400000000000013,8.223754248261578,55.05300595981654,24.887641276529862,1343.219865250622,43.38473266720823,291.74975329356045,0
-0.661218065141052,24.309871244635204,-47.97457252823522,58.32029767984824,-109.95661715057395,111.29393743953561,-81.56597533246057,7.025531914893618,-9.769230769230774,-5.7207207207207045,-3.395721925133687,5.845188284518825,-7.538812785388117,-1.0948275862068888,25.400000000000013,8.223754248261578,55.05300595981654,24.31522061267049,1347.85827057008,43.534913817572885,303.96020367662936,0
-0.661218065141052,24.309871244635204,-47.97457252823522,58.32029767984824,-109.95661715057395,111.29393743953561,-81.56597533246057,14.591489361702129,3.25641025641025,-5.7207207207207045,-6.112299465240639,-12.221757322175737,-7.538812785388117,25.18103448275863,31.2057142857143,13.228529835013813,101.10525129428288,24.31522061267049,1347.85827057008,43.534913817572885,303.96020367662936,0
-0.661218065141052,24.309871244635204,-47.97457252823522,58.32029767984824,-109.95661715057395,111.29393743953561,-81.56597533246057,9.187234042553193,-10.854700854700859,-13.729729729729716,-6.112299465240639,-16.47280334728034,-26.095890410958894,-16.42241379310344,18.142857142857157,14.62724109830303,38.23624465368555,24.31522061267049,1347.85827057008,43.534913817572885,303.96020367662936,0
-0.4151834362513558,24.25536480686696,-47.94252003280965,58.95038669195975,-110.17099932478055,111.43727829732343,-81.58347688279474,9.187234042553193,-10.854700854700859,-13.729729729729716,-6.112299465240639,-16.47280334728034,-26.095890410958894,-16.42241379310344,18.142857142857157,14.62724109830303,38.23624465368555,24.204356091975985,1346.6697083169638,43.716090510545456,314.33316578176664,0
-0.4151834362513558,24.25536480686696,-47.94252003280965,58.95038669195975,-110.17099932478055,111.43727829732343,-81.58347688279474,10.26808510638298,-4.341880341880348,10.297297297297314,-3.395721925133687,0.5313807531380714,-4.059360730593597,-6.568965517241372,22.49714285714287,7.74497931610128,46.8580912242128,24.204356091975985,1346.6697083169638,43.716090510545456,314.33316578176664,0
-0.4151834362513558,24.25536480686696,-47.94252003280965,58.95038669195975,-110.17099932478055,111.43727829732343,-81.58347688279474,15.672340425531916,-2.1709401709401766,-24.02702702702701,-12.90374331550802,-5.845188284518832,-11.018264840182638,15.32758620689656,32.65714285714287,14.952779140968502,94.63532676178149,24.204356091975985,1346.6697083169638,43.716090510545456,314.33316578176664,0
-2.1066715098680167,24.800429184549365,-48.07073001451196,59.28396322778349,-110.25675219446322,111.58061915511124,-81.60097843312893,15.672340425531916,-2.1709401709401766,-24.02702702702701,-12.90374331550802,-5.845188284518832,-11.018264840182638,15.32758620689656,32.65714285714287,14.952779140968502,94.63532676178149,24.992610236309776,1357.8154308354647,44.05170747561493,309.3929366538434,0
-2.1066715098680167,24.800429184549365,-48.07073001451196,59.28396322778349,-110.25675219446322,111.58061915511124,-81.60097843312893,4.863829787234043,-3.256410256410262,-2.288288288288272,-11.545454545454543,-5.845188284518832,-17.97716894977168,7.993605777301127e-15,19.594285714285725,8.171328228245422,54.27297914030324,24.992610236309776,1357.8154308354647,44.05170747561493,309.3929366538434,0
-2.1066715098680167,24.800429184549365,-48.07073001451196,59.28396322778349,-110.25675219446322,111.58061915511124,-81.60097843312893,18.914893617021278,16.282051282051274,8.009009009009027,-19.6951871657754,-19.66108786610879,-34.21461187214611,7.663793103448284,32.65714285714287,19.637222096587877,96.0542614135555,24.992610236309776,1357.8154308354647,44.05170747561493,309.3929366538434,0
-1.6761109093110482,26.435622317596575,-48.08675626222475,59.580475704071205,-110.29962862930455,111.66252821670427,-81.70598773513403,18.914893617021278,16.282051282051274,8.009009009009027,-19.6951871657754,-19.66108786610879,-34.21461187214611,7.663793103448284,32.65714285714287,19.637222096587877,96.0542614135555,25.399496496377463,1416.300409381494,44.70095142796418,283.2430822845014,0
-1.6761109093110482,26.435622317596575,-48.08675626222475,59.580475704071205,-110.29962862930455,111.66252821670427,-81.70598773513403,17.83404255319149,-4.341880341880348,-17.162162162162147,-18.336898395721924,-32.4142259414226,-22.616438356164373,-4.379310344827578,31.2057142857143,18.5363340476356,110.58307180301124,25.399496496377463,1416.300409381494,44.70095142796418,283.2430822845014,0
-1.6761109093110482,26.435622317596575,-48.08675626222475,59.580475704071205,-110.29962862930455,111.66252821670427,-81.70598773513403,9.187234042553193,-19.538461538461544,2.288288288288305,-0.6791443850267349,-7.970711297071134,-4.059360730593597,6.568965517241387,28.302857142857157,9.824377867761632,89.13153195116185,25.399496496377463,1416.300409381494,44.70095142796418,283.2430822845014,0
-1.7068652379222604,26.272103004291854,-48.134835005363115,59.87698818035898,-110.38538149898716,111.70348274750079,-81.75849238613658,9.187234042553193,-19.538461538461544,2.288288288288305,-0.6791443850267349,-7.970711297071134,-4.059360730593597,6.568965517241387,28.302857142857157,9.824377867761632,89.13153195116185,25.371267749192413,1412.4619107663107,44.76130873000465,290.85758657206446,0
-1.7068652379222604,26.272103004291854,-48.134835005363115,59.87698818035898,-110.38538149898716,111.70348274750079,-81.75849238613658,8.106382978723405,-8.683760683760688,4.576576576576594,-8.828877005347591,-15.410041841004187,-13.337899543378985,1.0948275862069043,23.94857142857144,10.498367205446224,49.77017568399377,25.371267749192413,1412.4619107663107,44.76130873000465,290.85758657206446,0
-1.7068652379222604,26.272103004291854,-48.134835005363115,59.87698818035898,-110.38538149898716,111.70348274750079,-81.75849238613658,4.863829787234043,-34.73504273504274,-22.882882882882868,-7.470588235294115,-4.782426778242682,-8.698630136986292,1.0948275862069043,25.400000000000013,13.741028517736208,149.1407933440601,25.371267749192413,1412.4619107663107,44.76130873000465,290.85758657206446,0
-1.6453565806998363,25.83605150214593,-48.3111237302038,60.17350065664675,-110.47113436866982,111.74443727829731,-81.77599393647075,4.863829787234043,-34.73504273504274,-22.882882882882868,-7.470588235294115,-4.782426778242682,-8.698630136986292,1.0948275862069043,25.400000000000013,13.741028517736208,149.1407933440601,25.264177271016525,1405.120868134067,44.7735586296655,304.1508787398922,0
-1.6453565806998363,25.83605150214593,-48.3111237302038,60.17350065664675,-110.47113436866982,111.74443727829731,-81.77599393647075,11.348936170212767,4.341880341880335,16.018018018018036,-11.545454545454543,-1.5941422594142303,-0.5799086757990768,9.853448275862076,26.851428571428585,10.266652107258707,73.60839684582557,25.264177271016525,1405.120868134067,44.7735586296655,304.1508787398922,0
-1.6453565806998363,25.83605150214593,-48.3111237302038,60.17350065664675,-110.47113436866982,111.74443727829731,-81.77599393647075,5.944680851063831,-5.427350427350433,10.297297297297314,-6.112299465240639,-15.410041841004187,-19.136986301369852,-12.043103448275854,21.045714285714297,11.92718423966455,37.39716758155195,25.264177271016525,1405.120868134067,44.7735586296655,304.1508787398922,0
-2.9370383823707407,26.381115879828336,-48.295097482491016,60.17350065664675,-110.47113436866982,111.76491454369557,-81.79349548680494,5.944680851063831,-5.427350427350433,10.297297297297314,-6.112299465240639,-15.410041841004187,-19.136986301369852,-12.043103448275854,21.045714285714297,11.92718423966455,37.39716758155195,25.871083914896698,1415.5740894677913,44.9499046729887,293.87405342569673,0
-2.9370383823707407,26.381115879828336,-48.295097482491016,60.17350065664675,-110.47113436866982,111.76491454369557,-81.79349548680494,11.348936170212767,-2.1709401709401766,-42.33333333333332,-15.62032085561497,-14.347280334728037,-17.97716894977168,6.568965517241387,22.49714285714287,16.608011023623153,148.75777543312006,25.871083914896698,1415.5740894677913,44.9499046729887,293.87405342569673,0
-2.9370383823707407,26.381115879828336,-48.295097482491016,60.17350065664675,-110.47113436866982,111.76491454369557,-81.79349548680494,5.944680851063831,-13.02564102564103,-14.873873873873858,-6.112299465240639,-9.033472803347284,-8.698630136986292,10.948275862068973,26.851428571428585,11.936037823706311,45.99723567348129,25.871083914896698,1415.5740894677913,44.9499046729887,293.87405342569673,0
-4.843806756265886,26.490128755364815,-47.990598775948015,59.87698818035898,-110.32106684672522,111.92873266688163,-81.79349548680494,5.944680851063831,-13.02564102564103,-14.873873873873858,-6.112299465240639,-9.033472803347284,-8.698630136986292,10.948275862068973,26.851428571428585,11.936037823706311,45.99723567348129,26.441511429192904,1398.473324971733,44.785905237223936,286.3731410739353,0
-4.843806756265886,26.490128755364815,-47.990598775948015,59.87698818035898,-110.32106684672522,111.92873266688163,-81.79349548680494,14.591489361702129,-7.598290598290603,30.89189189189191,2.037433155080217,-4.782426778242682,-15.657534246575333,-1.0948275862068888,26.851428571428585,12.938165273677294,125.73779764008081,26.441511429192904,1398.473324971733,44.785905237223936,286.3731410739353,0
-4.843806756265886,26.490128755364815,-47.990598775948015,59.87698818035898,-110.32106684672522,111.92873266688163,-81.79349548680494,5.944680851063831,9.769230769230763,27.459459459459477,4.754010695187169,3.719665271966523,-9.858447488584465,1.0948275862069043,22.49714285714287,10.63718312235525,88.64961347283611,26.441511429192904,1398.473324971733,44.785905237223936,286.3731410739353,0
-5.182104370989218,26.381115879828336,-47.862388794245696,59.61753976360717,-110.10668467251855,112.13350532086422,-81.8460001378075,5.944680851063831,9.769230769230763,27.459459459459477,4.754010695187169,3.719665271966523,-9.858447488584465,1.0948275862069043,22.49714285714287,10.63718312235525,88.64961347283611,26.475203015021084,1388.3235895568237,44.620348145893736,284.0480888197308,0
-5.182104370989218,26.381115879828336,-47.862388794245696,59.61753976360717,-110.10668467251855,112.13350532086422,-81.8460001378075,11.348936170212767,-5.427350427350433,1.1441441441441609,-6.112299465240639,-6.907949790794983,-11.018264840182638,5.474137931034491,26.851428571428585,9.285563917548588,61.033930016030595,26.475203015021084,1388.3235895568237,44.620348145893736,284.0480888197308,0
-5.182104370989218,26.381115879828336,-47.862388794245696,59.61753976360717,-110.10668467251855,112.13350532086422,-81.8460001378075,5.944680851063831,-17.36752136752137,1.687538997430238e-14,0.6791443850267411,-26.037656903765694,-11.018264840182638,2.1896551724138007,25.400000000000013,11.079615439996763,114.95493806900197,26.475203015021084,1388.3235895568237,44.620348145893736,284.0480888197308,0
-5.4281389998789145,26.98068669527898,-48.02265127137359,59.32102728731945,-109.89230249831195,112.35875524024506,-81.89850478881004,5.944680851063831,-17.36752136752137,1.687538997430238e-14,0.6791443850267411,-26.037656903765694,-11.018264840182638,2.1896551724138007,25.400000000000013,11.079615439996763,114.95493806900197,26.810492322177158,1415.0208607875907,44.77478841799067,269.3858672380837,0
-5.4281389998789145,26.98068669527898,-48.02265127137359,59.32102728731945,-109.89230249831195,112.35875524024506,-81.89850478881004,7.025531914893618,-14.111111111111116,1.1441441441441609,-2.037433155080211,-0.5313807531380794,-6.378995433789944,7.663793103448284,26.851428571428585,8.217977273379251,76.3382058204572,26.810492322177158,1415.0208607875907,44.77478841799067,269.3858672380837,0
-5.4281389998789145,26.98068669527898,-48.02265127137359,59.32102728731945,-109.89230249831195,112.35875524024506,-81.89850478881004,15.672340425531916,6.512820512820506,25.17117117117119,-4.754010695187163,-30.288702928870297,-11.018264840182638,27.370689655172423,25.400000000000013,18.273500028617015,100.85478175698942,26.810492322177158,1415.0208607875907,44.77478841799067,269.3858672380837,0
-5.028332727933158,27.30772532188842,-48.24701873935265,59.09864293010361,-109.76367319378801,112.48161883263462,-81.91600633914422,15.672340425531916,6.512820512820506,25.17117117117119,-4.754010695187163,-30.288702928870297,-11.018264840182638,27.370689655172423,25.400000000000013,18.273500028617015,100.85478175698942,26.861025596391404,1436.9991368191231,44.88446233044823,261.1456997953798,0
-5.028332727933158,27.30772532188842,-48.24701873935265,59.09864293010361,-109.76367319378801,112.48161883263462,-81.91600633914422,11.348936170212767,-15.196581196581201,-2.288288288288272,2.037433155080217,-14.347280334728037,-13.337899543378985,-9.85344827586206,21.045714285714297,11.18194765623073,41.79867889595231,26.861025596391404,1436.9991368191231,44.88446233044823,261.1456997953798,0
-5.028332727933158,27.30772532188842,-48.24701873935265,59.09864293010361,-109.76367319378801,112.48161883263462,-81.91600633914422,8.106382978723405,-6.512820512820518,16.018018018018036,-3.395721925133687,13.28451882845188,4.0593607305936175,15.32758620689656,28.302857142857157,11.875908292936858,68.12628483053844,26.861025596391404,1436.9991368191231,44.88446233044823,261.1456997953798,0
-5.67417362876861,27.19871244635194,-48.63164868445959,58.802130453815835,-109.59216745442268,112.60448242502417,-81.89850478881004,8.106382978723405,-6.512820512820518,16.018018018018036,-3.395721925133687,13.28451882845188,4.0593607305936175,15.32758620689656,28.302857142857157,11.875908292936858,68.12628483053844,27.16817825319338,1446.0358285495763,44.87749719487579,260.2642474936815,0
-5.67417362876861,27.19871244635194,-48.63164868445959,58.802130453815835,-109.59216745442268,112.60448242502417,-81.89850478881004,21.07659574468085,5.4273504273504205,-4.57657657657656,-10.187165775401066,-4.782426778242682,-7.538812785388117,3.2844827586206975,31.2057142857143,11.009890641496836,98.99294574523842,27.16817825319338,1446.0358285495763,44.87749719487579,260.2642474936815,0
-5.67417362876861,27.19871244635194,-48.63164868445959,58.802130453815835,-109.59216745442268,112.60448242502417,-81.89850478881004,24.319148936170215,17.36752136752136,1.1441441441441609,-6.112299465240639,-7.970711297071134,-34.21461187214611,-1.0948275862068888,28.302857142857157,15.065765226419709,164.6178704544116,27.16817825319338,1446.0358285495763,44.87749719487579,260.2642474936815,0
-4.474754812931342,26.217596566523614,-49.016278629566536,58.653874215671976,-109.57072923700201,112.64543695582068,-81.81099703713913,24.319148936170215,17.36752136752136,1.1441441441441609,-6.112299465240639,-7.970711297071134,-34.21461187214611,-1.0948275862068888,28.302857142857157,15.065765226419709,164.6178704544116,26.569543336340498,1431.0172923547798,44.62924980392071,277.462543370946,0
-4.474754812931342,26.217596566523614,-49.016278629566536,58.653874215671976,-109.57072923700201,112.64543695582068,-81.81099703713913,14.591489361702129,-4.341880341880348,-9.153153153153138,-7.470588235294115,-12.221757322175737,-14.49771689497716,-5.474137931034475,28.302857142857157,12.006697547884283,58.377165088190736,26.569543336340498,1431.0172923547798,44.62924980392071,277.462543370946,0
-4.474754812931342,26.217596566523614,-49.016278629566536,58.653874215671976,-109.57072923700201,112.64543695582068,-81.81099703713913,22.157446808510638,20.623931623931618,19.450450450450468,-18.336898395721924,-23.912133891213394,-20.296803652968027,-4.379310344827578,34.108571428571445,20.408193324524387,66.46134596921083,26.569543336340498,1431.0172923547798,44.62924980392071,277.462543370946,0
-3.8904225693183134,24.854935622317605,-49.641302290365324,58.46855391799215,-109.57072923700201,112.62495969042243,-81.68848618479984,22.157446808510638,20.623931623931618,19.450450450450468,-18.336898395721924,-23.912133891213394,-20.296803652968027,-4.379310344827578,34.108571428571445,20.408193324524387,66.46134596921083,26.128886827333748,1411.5213459930364,44.3215972768917,303.693279804609,0
-3.8904225693183134,24.854935622317605,-49.641302290365324,58.46855391799215,-109.57072923700201,112.62495969042243,-81.68848618479984,11.348936170212767,-30.393162393162395,-28.603603603603588,-8.828877005347591,0.5313807531380714,5.219178082191792,18.61206896551725,32.65714285714287,17.02429372878954,152.9236487364237,26.128886827333748,1411.5213459930364,44.3215972768917,303.693279804609,0
-3.8904225693183134,24.854935622317605,-49.641302290365324,58.46855391799215,-109.57072923700201,112.62495969042243,-81.68848618479984,0.5404255319148952,-47.76068376068376,-45.76576576576575,-21.053475935828875,-16.47280334728034,-23.776255707762548,-13.137931034482751,15.240000000000013,22.968417635464867,262.8956980285554,26.128886827333748,1411.5213459930364,44.3215972768917,303.693279804609,0
0.13839447875046051,21.03948497854078,-51.03558584137801,59.28396322778349,-110.06380823767728,112.52257336343114,-81.40846137945292,0.5404255319148952,-47.76068376068376,-45.76576576576575,-21.053475935828875,-16.47280334728034,-23.776255707762548,-13.137931034482751,15.240000000000013,22.968417635464867,262.8956980285554,24.071155099556417,1375.074613263605,43.786344682567425,405.07365217314475,0
0.13839447875046051,21.03948497854078,-51.03558584137801,59.28396322778349,-110.06380823767728,112.52257336343114,-81.40846137945292,1.621276595744682,-2.1709401709401766,44.62162162162164,6.112299465240646,-11.158995815899585,-1.73972602739725,15.32758620689656,21.045714285714297,12.974770023681856,213.49148651109013,24.071155099556417,1375.074613263605,43.786344682567425,405.07365217314475,0
0.13839447875046051,21.03948497854078,-51.03558584137801,59.28396322778349,-110.06380823767728,112.52257336343114,-81.40846137945292,14.591489361702129,-22.7948717948718,-21.738738738738725,-6.112299465240639,47.2928870292887,0.5799086757990963,-14.232758620689648,28.302857142857157,19.455726353648487,207.83214329970534,24.071155099556417,1375.074613263605,43.786344682567425,405.07365217314475,0
2.7217580820922693,17.278540772532196,-53.55170673228595,60.32175689479061,-111.00708980418636,111.96968719767816,-80.67339626541722,14.591489361702129,-22.7948717948718,-21.738738738738725,-6.112299465240639,47.2928870292887,0.5799086757990963,-14.232758620689648,28.302857142857157,19.455726353648487,207.83214329970534,24.517335195636804,1399.2544543509255,43.71733479986958,535.7157670156857,0
2.7217580820922693,17.278540772532196,-53.55170673228595,60.32175689479061,-111.00708980418636,111.96968719767816,-80.67339626541722,12.429787234042553,21.709401709401703,12.585585585585603,-40.06951871657754,-28.163179916317997,-34.21461187214611,2.1896551724138007,22.49714285714287,21.732360382953523,155.15964578953268,24.517335195636804,1399.2544543509255,43.71733479986958,535.7157670156857,0
2.7217580820922693,17.278540772532196,-53.55170673228595,60.32175689479061,-111.00708980418636,111.96968719767816,-80.67339626541722,-17.834042553191487,-49.93162393162393,20.594594594594614,-3.395721925133687,3.719665271966523,1.7397260273972712,9.853448275862076,16.691428571428585,15.470031393899774,246.41003036954524,24.517335195636804,1399.2544543509255,43.71733479986958,535.7157670156857,0
3.2753359970940856,17.932618025751083,-55.92359139377879,61.2854224427258,-112.07900067521945,111.04821025475651,-79.79831874870807,-17.834042553191487,-49.93162393162393,20.594594594594614,-3.395721925133687,3.719665271966523,1.7397260273972712,9.853448275862076,16.691428571428585,15.470031393899774,246.41003036954524,25.710515138874655,1529.0147650864806,45.04721062075189,558.5881567440177,0
3.2753359970940856,17.932618025751083,-55.92359139377879,61.2854224427258,-112.07900067521945,111.04821025475651,-79.79831874870807,3.7829787234042556,-18.45299145299146,10.297297297297314,50.935828877005356,-1.5941422594142303,-11.018264840182638,-1.0948275862068888,25.400000000000013,15.32204137956277,278.2141853401871,25.710515138874655,1529.0147650864806,45.04721062075189,558.5881567440177,0
3.2753359970940856,17.932618025751083,-55.92359139377879,61.2854224427258,-112.07900067521945,111.04821025475651,-79.79831874870807,-10.268085106382976,-54.27350427350427,3.4324324324324493,22.41176470588236,-13.284518828451887,-8.698630136986292,1.0948275862069043,18.142857142857157,16.45082752658804,283.2263337928438,25.710515138874655,1529.0147650864806,45.04721062075189,558.5881567440177,0
3.79815958348469,29.487982832618034,-56.08385387090669,61.841383335765386,-112.95796758946659,109.55336988068363,-79.32577688968512,-10.268085106382976,-54.27350427350427,3.4324324324324493,22.41176470588236,-13.284518828451887,-8.698630136986292,1.0948275862069043,18.142857142857157,16.45082752658804,283.2263337928438,29.789998762336467,1928.0602984563873,49.1377400130967,297.8720043235088,0
3.79815958348469,29.487982832618034,-56.08385387090669,61.841383335765386,-112.95796758946659,109.55336988068363,-79.32577688968512,15.672340425531916,-8.683760683760688,-11.441441441441425,-40.06951871657754,-13.284518828451887,-35.374429223744286,-7.663793103448269,25.400000000000013,19.698725302869505,154.9867208772914,29.789998762336467,1928.0602984563873,49.1377400130967,297.8720043235088,0
3.79815958348469,29.487982832618034,-56.08385387090669,61.841383335765386,-112.95796758946659,109.55336988068363,-79.32577688968512,9.187234042553193,-15.196581196581201,-34.32432432432431,10.187165775401073,-24.974895397489544,-24.936073059360723,4.379310344827594,26.851428571428585,18.754626588995777,109.874500498952,29.789998762336467,1928.0602984563873,49.1377400130967,297.8720043235088,0
4.9668240707107465,42.6785407725322,-54.17673039308474,62.1378958120531,-113.4510465901418,107.75137052563687,-79.65830634603459,9.187234042553193,-15.196581196581201,-34.32432432432431,10.187165775401073,-24.974895397489544,-24.936073059360723,4.379310344827594,26.851428571428585,18.754626588995777,109.874500498952,33.94069841210923,2383.512860629262,52.99772232589002,95.70916965541454,0
4.9668240707107465,42.6785407725322,-54.17673039308474,62.1378958120531,-113.4510465901418,107.75137052563687,-79.65830634603459,15.672340425531916,15.196581196581189,8.009009009009027,-10.187165775401066,-32.4142259414226,-4.059360730593597,12.04310344827587,28.302857142857157,15.735580458709052,96.69449762534593,33.94069841210923,2383.512860629262,52.99772232589002,95.70916965541454,0
4.9668240707107465,42.6785407725322,-54.17673039308474,62.1378958120531,-113.4510465901418,107.75137052563687,-79.65830634603459,15.672340425531916,-9.769230769230774,6.864864864864882,-19.6951871657754,-12.221757322175737,-15.657534246575333,5.474137931034491,25.400000000000013,13.844381590648567,44.62965644813466,33.94069841210923,2383.512860629262,52.99772232589002,95.70916965541454,0
12.286354280179205,41.58841201716739,-50.602877153132695,63.91697066977969,-114.137069547603,106.37939374395354,-80.55088541307794,15.672340425531916,-9.769230769230774,6.864864864864882,-19.6951871657754,-12.221757322175737,-15.657534246575333,5.474137931034491,25.400000000000013,13.844381590648567,44.62965644813466,34.825881150159766,2218.816636129391,52.03608661335992,126.18169989345047,0
12.286354280179205,41.58841201716739,-50.602877153132695,63.91697066977969,-114.137069547603,106.37939374395354,-80.55088541307794,7.025531914893618,-29.30769230769231,-6.864864864864849,-8.828877005347591,2.656903765690373,-8.698630136986292,-6.568965517241372,23.94857142857144,11.737504617660981,90.09041914248353,34.825881150159766,2218.816636129391,52.03608661335992,126.18169989345047,0
12.286354280179205,41.58841201716739,-50.602877153132695,63.91697066977969,-114.137069547603,106.37939374395354,-80.55088541307794,8.106382978723405,9.769230769230763,42.33333333333335,-16.978609625668447,-9.033472803347284,-2.899543378995423,3.2844827586206975,23.94857142857144,14.544203384561353,174.79966816812066,34.825881150159766,2218.816636129391,52.03608661335992,126.18169989345047,0
15.115752512410712,35.538197424892715,-50.795192125686164,65.62191740843429,-115.03747467927076,104.74121251209286,-80.98842417143251,8.106382978723405,9.769230769230763,42.33333333333335,-16.978609625668447,-9.033472803347284,-2.899543378995423,3.2844827586206975,23.94857142857144,14.544203384561353,174.79966816812066,33.81638068766319,2035.797171763606,50.65176898633772,226.27297965971005,0
15.115752512410712,35.538197424892715,-50.795192125686164,65.62191740843429,-115.03747467927076,104.74121251209286,-80.98842417143251,27.561702127659576,2.170940170940165,-13.729729729729716,-4.754010695187163,-5.845188284518832,-7.538812785388117,7.993605777301127e-15,32.65714285714287,11.782190831320806,146.05646273459698,33.81638068766319,2035.797171763606,50.65176898633772,226.27297965971005,0
15.115752512410712,35.538197424892715,-50.795192125686164,65.62191740843429,-115.03747467927076,104.74121251209286,-80.98842417143251,18.914893617021278,24.96581196581196,28.603603603603624,-14.262032085561495,-7.970711297071134,-12.178082191780812,2.1896551724138007,26.851428571428585,16.992027313086584,90.06235126562508,33.81638068766319,2035.797171763606,50.65176898633772,226.27297965971005,0
9.026395447390732,27.525751072961384,-52.18947567669885,65.39953305121844,-115.68062120189063,102.85730409545306,-80.44587611107283,18.914893617021278,24.96581196581196,28.603603603603624,-14.262032085561495,-7.970711297071134,-12.178082191780812,2.1896551724138007,26.851428571428585,16.992027313086584,90.06235126562508,29.580540732350318,1740.687735298704,48.37158660029289,369.5380480839422,0
9.026395447390732,27.525751072961384,-52.18947567669885,65.39953305121844,-115.68062120189063,102.85730409545306,-80.44587611107283,1.621276595744682,-10.854700854700859,-1.1441441441441276,-10.187165775401066,-10.096234309623435,-13.337899543378985,-1.0948275862068888,23.94857142857144,9.035602529721436,60.995686939880365,29.580540732350318,1740.687735298704,48.37158660029289,369.5380480839422,0
9.026395447390732,27.525751072961384,-52.18947567669885,65.39953305121844,-115.68062120189063,102.85730409545306,-80.44587611107283,35.12765957446808,45.58974358974358,3.4324324324324493,-19.6951871657754,-15.410041841004187,-9.858447488584465,3.2844827586206975,37.01142857142858,21.17617792775718,262.8438761354991,29.580540732350318,1740.687735298704,48.37158660029289,369.5380480839422,0
-0.0768858215280237,27.19871244635194,-54.978042778724216,62.28615205019702,-115.6377447670493,100.40003224766203,-79.2382691380142,35.12765957446808,45.58974358974358,3.4324324324324493,-19.6951871657754,-15.410041841004187,-9.858447488584465,3.2844827586206975,37.01142857142858,21.17617792775718,262.8438761354991,27.417880348868056,1751.8523992385915,48.15430242509106,342.7046787987202,0
-0.0768858215280237,27.19871244635194,-54.978042778724216,62.28615205019702,-115.6377447670493,100.40003224766203,-79.2382691380142,-5.944680851063829,-6.512820512820518,2.288288288288305,-12.90374331550802,-5.845188284518832,-14.49771689497716,-5.474137931034475,12.337142857142869,8.22546486691925,19.25057704208524,27.417880348868056,1751.8523992385915,48.15430242509106,342.7046787987202,0
-0.0768858215280237,27.19871244635194,-54.978042778724216,62.28615205019702,-115.6377447670493,100.40003224766203,-79.2382691380142,11.348936170212767,24.96581196581196,28.603603603603624,-11.545454545454543,-14.347280334728037,-2.899543378995423,2.1896551724138007,31.2057142857143,15.888249932116805,125.27212721478155,27.417880348868056,1751.8523992385915,48.15430242509106,342.7046787987202,0
-7.580942002663755,32.10429184549357,-59.048709697772736,56.578286881657675,-115.01603646185009,96.87794259916154,-77.40060635292497,11.348936170212767,24.96581196581196,28.603603603603624,-11.545454545454543,-14.347280334728037,-2.899543378995423,2.1896551724138007,31.2057142857143,15.888249932116805,125.27212721478155,32.91131451531002,2088.786431241224,49.243762808308,221.84684588646456,0
-7.580942002663755,32.10429184549357,-59.048709697772736,56.578286881657675,-115.01603646185009,96.87794259916154,-77.40060635292497,-0.5404255319148934,-24.96581196581197,-3.4324324324324156,-4.754010695187163,-4.782426778242682,-16.817351598173506,-1.0948275862068888,23.94857142857144,10.04198225206762,104.52320259043064,32.91131451531002,2088.786431241224,49.243762808308,221.84684588646456,0
-7.580942002663755,32.10429184549357,-59.048709697772736,56.578286881657675,-115.01603646185009,96.87794259916154,-77.40060635292497,37.289361702127664,26.051282051282044,-3.4324324324324156,-6.112299465240639,-13.284518828451887,-14.49771689497716,4.379310344827594,28.302857142857157,16.66872235777457,157.48992381637896,32.91131451531002,2088.786431241224,49.243762808308,221.84684588646456,0
-15.700084756023726,30.632618025751082,-66.05217994826172,48.75777031956807,-114.00844024307901,92.4958078039342,-74.65286295045821,37.289361702127664,26.051282051282044,-3.4324324324324156,-6.112299465240639,-13.284518828451887,-14.49771689497716,4.379310344827594,28.302857142857157,16.66872235777457,157.48992381637896,37.46162757667884,2338.333832764692,48.48085609786029,313.69385281027945,0
-15.700084756023726,30.632618025751082,-66.05217994826172,48.75777031956807,-114.00844024307901,92.4958078039342,-74.65286295045821,16.753191489361704,48.84615384615384,61.783783783783804,-11.545454545454543,-6.907949790794983,-2.899543378995423,3.2844827586206975,29.75428571428573,22.72185566343134,491.30289987189207,37.46162757667884,2338.333832764692,48.48085609786029,313.69385281027945,0
-15.700084756023726,30.632618025751082,-66.05217994826172,48.75777031956807,-114.00844024307901,92.4958078039342,-74.65286295045821,-10.268085106382976,-33.649572649572654,-14.873873873873858,-3.395721925133687,-7.970711297071134,-12.178082191780812,3.2844827586206975,15.240000000000013,12.60756622530448,93.39541501410433,37.46162757667884,2338.333832764692,48.48085609786029,313.69385281027945,0
0.015377164305612201,26.381115879828336,-78.34431194397123,45.19962060411501,-115.08035111411209,86.86455981941307,-71.32756838696342,-10.268085106382976,-33.649572649572654,-14.873873873873858,-3.395721925133687,-7.970711297071134,-12.178082191780812,3.2844827586206975,15.240000000000013,12.60756622530448,93.39541501410433,34.91360166270173,2967.134714673144,49.9750161426382,692.1467382121493,0
0.015377164305612201,26.381115879828336,-78.34431194397123,45.19962060411501,-115.08035111411209,86.86455981941307,-71.32756838696342,2.7021276595744688,-39.07692307692308,1.1441441441441609,0.6791443850267411,-10.096234309623435,-17.97716894977168,2.1896551724138007,22.49714285714287,12.04531756932753,187.34126977018792,34.91360166270173,2967.134714673144,49.9750161426382,692.1467382121493,0
0.015377164305612201,26.381115879828336,-78.34431194397123,45.19962060411501,-115.08035111411209,86.86455981941307,-71.32756838696342,14.591489361702129,-8.683760683760688,-4.57657657657656,-10.187165775401066,-9.033472803347284,-15.657534246575333,7.993605777301127e-15,26.851428571428585,11.197678502348957,65.38569375207832,34.91360166270173,2967.134714673144,49.9750161426382,692.1467382121493,0
6.965855430439527,16.842489270386274,-91.51788756388416,41.75266306726979,-117.15985820391626,78.89890357949048,-66.00709708537174,14.591489361702129,-8.683760683760688,-4.57657657657656,-10.187165775401066,-9.033472803347284,-15.657534246575333,7.993605777301127e-15,26.851428571428585,11.197678502348957,65.38569375207832,38.442077421569984,3589.761132974246,50.037679967180075,1445.584906346986,0
6.965855430439527,16.842489270386274,-91.51788756388416,41.75266306726979,-117.15985820391626,78.89890357949048,-66.00709708537174,35.12765957446808,32.564102564102555,43.4774774774775,2.037433155080217,-7.970711297071134,-14.49771689497716,3.2844827586206975,37.01142857142858,21.99637653665324,281.7772120501514,38.442077421569984,3589.761132974246,50.037679967180075,1445.584906346986,0
6.965855430439527,16.842489270386274,-91.51788756388416,41.75266306726979,-117.15985820391626,78.89890357949048,-66.00709708537174,24.319148936170215,4.341880341880335,-4.57657657657656,-11.545454545454543,-5.845188284518832,-5.219178082191771,4.379310344827594,28.302857142857157,11.066199281809626,95.20935697541037,38.442077421569984,3589.761132974246,50.037679967180075,1445.584906346986,0
-17.699116115752506,3.7064377682403524,-102.3836835131554,34.48810739821977,-117.84588116137746,70.62608835859399,-58.86646454902502,24.319148936170215,4.341880341880335,-4.57657657657656,-11.545454545454543,-5.845188284518832,-5.219178082191771,4.379310344827594,28.302857142857157,11.066199281809626,95.20935697541037,41.26307913238276,3147.4645876445093,46.859409559871835,2549.0865448317622,0
-17.699116115752506,3.7064377682403524,-102.3836835131554,34.48810739821977,-117.84588116137746,70.62608835859399,-58.86646454902502,14.591489361702129,-16.282051282051285,-3.4324324324324156,-3.395721925133687,-4.782426778242682,-11.018264840182638,2.1896551724138007,29.75428571428573,10.680790938305545,89.01154130240384,41.26307913238276,3147.4645876445093,46.859409559871835,2549.0865448317622,0
-17.699116115752506,3.7064377682403524,-102.3836835131554,34.48810739821977,-117.84588116137746,70.62608835859399,-58.86646454902502,2.7021276595744688,-35.820512820512825,-3.4324324324324156,-6.112299465240639,-10.096234309623435,-13.337899543378985,3.2844827586206975,21.045714285714297,11.97896290938722,132.16163413500576,41.26307913238276,3147.4645876445093,46.859409559871835,2549.0865448317622,0
-55.09637970698631,-8.993562231759647,-110.47693860811407,21.033853786662803,-115.72349763673196,62.31231860690099,-49.765658375249785,2.7021276595744688,-35.820512820512825,-3.4324324324324156,-6.112299465240639,-10.096234309623435,-13.337899543378985,3.2844827586206975,21.045714285714297,11.97896290938722,132.16163413500576,58.18896018228668,2581.8919606833597,46.83478487551218,3073.984953974868,0
