Gyro 0,Gyro 1,Gyro 2,Orientation 0,Orientation 1,Orientation 2,Orientation 3,Sensor 0,Sensor 1,Sensor 2,Sensor 3,Sensor 4,Sensor 5,Sensor 6,Sensor 7,Sensor Mean,Sensor Variance,Gyro Mean,Gyro Variance,Orientation Mean,Orientation Variance,Label
-22.849044978434996,-91.88684699566386,125.24525043177893,119.60760786316052,-84.66666666666674,32.1974231646759,-126.9599684791174,-10.409836065573765,2.0991735537190084,-5.125560538116604,-4.482352941176469,-3.463636363636364,-25.17117117117116,-2.490196078431371,-15.954773869346731,8.649587572646434,66.7073820776878,79.99371413529259,12307.414362276384,112.2465684302011,318.8344461018411,0
-22.849044978434996,-91.88684699566386,125.24525043177893,119.60760786316052,-84.66666666666674,32.1974231646759,-126.9599684791174,-9.021857923497262,-9.446280991735538,-26.76681614349777,0.4980392156862763,-9.236363636363636,-18.306306306306297,3.4862745098039234,-8.296482412060298,10.632302642368874,69.19810754716572,79.99371413529259,12307.414362276384,112.2465684302011,318.8344461018411,0
-22.849044978434996,-91.88684699566386,125.24525043177893,119.60760786316052,-84.66666666666674,32.1974231646759,-126.9599684791174,-9.021857923497262,-4.198347107438017,-13.09865470852019,4.482352941176472,12.7,-10.297297297297288,2.4901960784313744,-7.02010050251256,7.913600819859146,16.070411086192916,79.99371413529259,12307.414362276384,112.2465684302011,318.8344461018411,0
-30.282809611829947,-93.11934751187282,114.38773747841105,119.93183558846044,-80.16312056737593,37.48127768084822,-127.0,-9.021857923497262,-4.198347107438017,-13.09865470852019,4.482352941176472,12.7,-10.297297297297288,2.4901960784313744,-7.02010050251256,7.913600819859146,16.070411086192916,79.2632982007046,11322.864668636343,109.14630685958144,200.33182541329185,0
-30.282809611829947,-93.11934751187282,114.38773747841105,119.93183558846044,-80.16312056737593,37.48127768084822,-127.0,-13.185792349726771,-9.446280991735538,-26.76681614349777,-0.49803921568627274,-4.618181818181818,-19.45045045045044,-1.4941176470588218,-10.849246231155776,10.788615605936652,81.17716825750655,79.2632982007046,11322.864668636343,109.14630685958144,200.33182541329185,0
-30.282809611829947,-93.11934751187282,114.38773747841105,119.93183558846044,-80.16312056737593,37.48127768084822,-127.0,-0.6939890710382457,-7.347107438016529,-44.99103139013454,-5.478431372549018,-4.618181818181818,-28.603603603603595,-8.466666666666665,-9.572864321608037,13.721484460224806,229.32179374756893,79.2632982007046,11322.864668636343,109.14630685958144,200.33182541329185,0
-32.23906346272335,-93.90604996902746,104.07858376511226,119.80214449834045,-75.65957446808511,42.62877466111934,-126.59968479117416,-0.6939890710382457,-7.347107438016529,-44.99103139013454,-5.478431372549018,-4.618181818181818,-28.603603603603595,-8.466666666666665,-9.572864321608037,13.721484460224806,229.32179374756893,76.74123239895435,10263.87222755713,105.92892607749339,170.2197529725195,0
-32.23906346272335,-93.90604996902746,104.07858376511226,119.80214449834045,-75.65957446808511,42.62877466111934,-126.59968479117416,-2.0819672131147486,15.743801652892563,-11.959641255605392,1.4941176470588253,-2.309090909090909,-17.162162162162154,4.482352941176472,-12.125628140703515,8.419845240225573,42.4729985880051,76.74123239895435,10263.87222755713,105.92892607749339,170.2197529725195,0
-32.23906346272335,-93.90604996902746,104.07858376511226,119.80214449834045,-75.65957446808511,42.62877466111934,-126.59968479117416,-13.185792349726771,-3.1487603305785123,-16.515695067264584,2.4901960784313744,1.1545454545454545,-12.585585585585576,2.4901960784313744,-10.849246231155776,7.802502146964928,37.05055908261371,76.74123239895435,10263.87222755713,105.92892607749339,170.2197529725195,0
-28.052680221811464,-93.87982655378899,95.74352331606218,120.51544549400046,-72.95744680851067,47.162662729834935,-125.91914893617022,-13.185792349726771,-3.1487603305785123,-16.515695067264584,2.4901960784313744,1.1545454545454545,-12.585585585585576,2.4901960784313744,-10.849246231155776,7.802502146964928,37.05055908261371,72.55867669722087,9269.288003411035,103.37959845461721,221.0962817232817,0
-28.052680221811464,-93.87982655378899,95.74352331606218,120.51544549400046,-72.95744680851067,47.162662729834935,-125.91914893617022,-15.961748633879775,-18.892561983471076,-31.32286995515696,-0.49803921568627274,-38.1,-30.891891891891884,-0.49803921568627274,-12.125628140703515,18.53634737955947,199.64357645145768,72.55867669722087,9269.288003411035,103.37959845461721,221.0962817232817,0
-28.052680221811464,-93.87982655378899,95.74352331606218,120.51544549400046,-72.95744680851067,47.162662729834935,-125.91914893617022,-4.857923497267754,10.495867768595042,13.098654708520169,4.482352941176472,0.0,-21.73873873873873,-6.474509803921567,-13.402010050251253,9.318757188558873,46.40299031545142,72.55867669722087,9269.288003411035,103.37959845461721,221.0962817232817,0
-23.827171903881702,-93.06690068139584,91.68566493955095,121.94204748532036,-71.79939209726444,51.08294188699506,-125.15855003940109,-4.857923497267754,10.495867768595042,13.098654708520169,4.482352941176472,0.0,-21.73873873873873,-6.474509803921567,-13.402010050251253,9.318757188558873,46.40299031545142,69.52657917494282,8711.811003387244,102.23153770208906,291.8550999797804,0
-23.827171903881702,-93.06690068139584,91.68566493955095,121.94204748532036,-71.79939209726444,51.08294188699506,-125.15855003940109,-7.6338797814207595,2.0991735537190084,-22.210762331838577,2.4901960784313744,11.545454545454545,-12.585585585585576,1.4941176470588253,-8.296482412060298,8.544456491946121,48.69975560061795,69.52657917494282,8711.811003387244,102.23153770208906,291.8550999797804,0
-23.827171903881702,-93.06690068139584,91.68566493955095,121.94204748532036,-71.79939209726444,51.08294188699506,-125.15855003940109,-11.797814207650267,-2.0991735537190084,-30.183856502242165,-0.49803921568627274,-2.309090909090909,-21.73873873873873,0.4980392156862763,-9.572864321608037,9.83720208305271,121.50518066721531,69.52657917494282,8711.811003387244,102.23153770208906,291.8550999797804,0
-21.831792975970426,-92.56865579186456,84.77633851468048,123.62803165688024,-71.67071935157037,54.49188028452559,-124.23782505910165,-11.797814207650267,-2.0991735537190084,-30.183856502242165,-0.49803921568627274,-2.309090909090909,-21.73873873873873,0.4980392156862763,-9.572864321608037,9.83720208305271,121.50518066721531,66.39226242750516,7970.040744425171,100.32434198780841,422.47651628137874,0
-21.831792975970426,-92.56865579186456,84.77633851468048,123.62803165688024,-71.67071935157037,54.49188028452559,-124.23782505910165,-6.245901639344257,-2.0991735537190084,-19.93273542600898,-1.4941176470588218,0.0,-13.72972972972972,-2.490196078431371,-12.125628140703515,7.2646852768744585,51.78519162775861,66.39226242750516,7970.040744425171,100.32434198780841,422.47651628137874,0
-21.831792975970426,-92.56865579186456,84.77633851468048,123.62803165688024,-71.67071935157037,54.49188028452559,-124.23782505910165,-11.797814207650267,-2.0991735537190084,-14.23766816143499,1.4941176470588253,-13.854545454545455,-22.882882882882875,2.4901960784313744,-10.849246231155776,9.963205527109821,56.27097085412707,66.39226242750516,7970.040744425171,100.32434198780841,422.47651628137874,0
-24.218422674060385,-92.28019822424118,78.52504317789291,124.40617819760018,-71.28470111448837,57.628103610253675,-122.91678486997637,-11.797814207650267,-2.0991735537190084,-14.23766816143499,1.4941176470588253,-13.854545454545455,-22.882882882882875,2.4901960784313744,-10.849246231155776,9.963205527109821,56.27097085412707,65.00788802539816,7393.842592792664,98.40380653324478,554.3935717157256,0
-24.218422674060385,-92.28019822424118,78.52504317789291,124.40617819760018,-71.28470111448837,57.628103610253675,-122.91678486997637,-9.021857923497262,2.0991735537190084,-19.93273542600898,-0.49803921568627274,5.7727272727272725,-20.594594594594586,3.4862745098039234,-10.849246231155776,9.031831090899136,59.72751603010436,65.00788802539816,7393.842592792664,98.40380653324478,554.3935717157256,0
-24.218422674060385,-92.28019822424118,78.52504317789291,124.40617819760018,-71.28470111448837,57.628103610253675,-122.91678486997637,-6.245901639344257,2.0991735537190084,-11.959641255605392,1.4941176470588253,5.7727272727272725,-18.306306306306297,-0.49803921568627274,-9.572864321608037,6.99359640150692,36.819014787362825,65.00788802539816,7393.842592792664,98.40380653324478,554.3935717157256,0
-27.70055452865065,-91.67705967375595,70.18998272884284,124.08195047230015,-69.99797365754807,60.52570124815463,-121.2354609929078,-6.245901639344257,2.0991735537190084,-11.959641255605392,1.4941176470588253,5.7727272727272725,-18.306306306306297,-0.49803921568627274,-9.572864321608037,6.99359640150692,36.819014787362825,63.189198977083144,6646.0816518845195,95.31633095829964,736.0192684273392,0
-27.70055452865065,-91.67705967375595,70.18998272884284,124.08195047230015,-69.99797365754807,60.52570124815463,-121.2354609929078,-6.245901639344257,0.0,-18.793721973094183,-0.49803921568627274,0.0,-18.306306306306297,-3.48627450980392,-8.296482412060298,6.953340757036903,60.25404506208109,63.189198977083144,6646.0816518845195,95.31633095829964,736.0192684273392,0
-27.70055452865065,-91.67705967375595,70.18998272884284,124.08195047230015,-69.99797365754807,60.52570124815463,-121.2354609929078,-14.573770491803273,-5.247933884297521,-19.93273542600898,-0.49803921568627274,-2.309090909090909,-19.45045045045044,1.4941176470588253,-14.678391959798992,9.773066248024401,67.81921307711097,63.189198977083144,6646.0816518845195,95.31633095829964,736.0192684273392,0
-28.874306839186694,-91.04769770803222,66.89982728842833,123.36864947664026,-68.32522796352578,63.286941350154365,-119.55413711583924,-14.573770491803273,-5.247933884297521,-19.93273542600898,-0.49803921568627274,-2.309090909090909,-19.45045045045044,1.4941176470588253,-14.678391959798992,9.773066248024401,67.81921307711097,62.27394394521574,6330.939325422028,93.77205815770026,802.7485747257606,0
-28.874306839186694,-91.04769770803222,66.89982728842833,123.36864947664026,-68.32522796352578,63.286941350154365,-119.55413711583924,-14.573770491803273,-5.247933884297521,-19.93273542600898,-0.49803921568627274,-2.309090909090909,-19.45045045045044,1.4941176470588253,-14.678391959798992,9.773066248024401,67.81921307711097,62.27394394521574,6330.939325422028,93.77205815770026,802.7485747257606,0
-28.874306839186694,-91.04769770803222,66.89982728842833,123.36864947664026,-68.32522796352578,63.286941350154365,-119.55413711583924,-10.409836065573765,0.0,-11.959641255605392,-1.4941176470588218,5.7727272727272725,-20.594594594594586,-1.4941176470588218,-10.849246231155776,7.821785089221805,48.79825079583788,62.27394394521574,6330.939325422028,93.77205815770026,802.7485747257606,0
-28.874306839186694,-91.04769770803222,66.89982728842833,123.36864947664026,-68.32522796352578,63.286941350154365,-119.55413711583924,-13.185792349726771,-15.743801652892563,-24.488789237668172,-2.490196078431371,0.0,-18.306306306306297,1.4941176470588253,-10.849246231155776,10.819781187904972,78.02176392662493,62.27394394521574,6330.939325422028,93.77205815770026,802.7485747257606,0
-27.191928527418362,-91.49349576708653,63.829015544041454,122.8498851161603,-67.29584599797363,65.84364514830227,-117.75271867612292,-13.185792349726771,-15.743801652892563,-24.488789237668172,-2.490196078431371,0.0,-18.306306306306297,1.4941176470588253,-10.849246231155776,10.819781187904972,78.02176392662493,60.83814661284878,6090.764388188811,92.72413214242943,872.0016106785038,0
-27.191928527418362,-91.49349576708653,63.829015544041454,122.8498851161603,-67.29584599797363,65.84364514830227,-117.75271867612292,-10.409836065573765,0.0,-18.793721973094183,0.4980392156862763,8.081818181818182,-21.73873873873873,-1.4941176470588218,-10.849246231155776,8.983189756640716,67.7231726209335,60.83814661284878,6090.764388188811,92.72413214242943,872.0016106785038,0
-27.191928527418362,-91.49349576708653,63.829015544041454,122.8498851161603,-67.29584599797363,65.84364514830227,-117.75271867612292,-11.797814207650267,4.198347107438017,-7.403587443946201,-1.4941176470588218,3.463636363636364,-20.594594594594586,-0.49803921568627274,-12.125628140703515,7.696970590089256,46.18945531725394,60.83814661284878,6090.764388188811,92.72413214242943,872.0016106785038,0
-26.683302526186075,-91.83440016518688,58.23575129533678,122.20142966556034,-66.90982776089163,68.0935444906724,-115.59101654846336,-11.797814207650267,4.198347107438017,-7.403587443946201,-1.4941176470588218,3.463636363636364,-20.594594594594586,-0.49803921568627274,-12.125628140703515,7.696970590089256,46.18945531725394,58.91781799556992,5662.826930815638,90.75719370869467,1023.7722826531528,0
-26.683302526186075,-91.83440016518688,58.23575129533678,122.20142966556034,-66.90982776089163,68.0935444906724,-115.59101654846336,-4.857923497267754,1.0495867768595042,-19.93273542600898,-0.49803921568627274,0.0,-17.162162162162154,-1.4941176470588218,-9.572864321608037,6.820928630831441,62.639203939921394,58.91781799556992,5662.826930815638,90.75719370869467,1023.7722826531528,0
-26.683302526186075,-91.83440016518688,58.23575129533678,122.20142966556034,-66.90982776089163,68.0935444906724,-115.59101654846336,-9.021857923497262,-2.0991735537190084,-21.071748878923778,1.4941176470588253,1.1545454545454545,-17.162162162162154,-0.49803921568627274,-10.849246231155776,7.918861383343567,63.45878366039613,58.91781799556992,5662.826930815638,90.75719370869467,1023.7722826531528,0
-28.2483056069008,-92.14908114804874,55.82297063903282,121.16390094460041,-66.26646403242148,70.34344383304256,-113.22915681639086,-9.021857923497262,-2.0991735537190084,-21.071748878923778,1.4941176470588253,1.1545454545454545,-17.162162162162154,-0.49803921568627274,-10.849246231155776,7.918861383343567,63.45878366039613,58.74011913132745,5507.8361190765,89.711984243894,1071.813874289441,0
-28.2483056069008,-92.14908114804874,55.82297063903282,121.16390094460041,-66.26646403242148,70.34344383304256,-113.22915681639086,-9.021857923497262,0.0,-19.93273542600898,-4.482352941176469,-13.854545454545455,-19.45045045045044,-1.4941176470588218,-10.849246231155776,9.885663259236651,58.170804149877156,58.74011913132745,5507.8361190765,89.711984243894,1071.813874289441,0
-28.2483056069008,-92.14908114804874,55.82297063903282,121.16390094460041,-66.26646403242148,70.34344383304256,-113.22915681639086,-6.245901639344257,2.0991735537190084,-19.93273542600898,2.4901960784313744,1.1545454545454545,-19.45045045045044,0.4980392156862763,-7.02010050251256,7.361392790087294,63.227836649641304,58.74011913132745,5507.8361190765,89.711984243894,1071.813874289441,0
-30.556685150955023,-91.44104893660955,54.61658031088083,119.34822568292054,-64.59371833839919,72.52516440746211,-110.82726556343579,-6.245901639344257,2.0991735537190084,-19.93273542600898,2.4901960784313744,1.1545454545454545,-19.45045045045044,0.4980392156862763,-7.02010050251256,7.361392790087294,63.227836649641304,58.871438132815136,5382.370327402274,88.46861831013696,1054.1729860147718,0
-30.556685150955023,-91.44104893660955,54.61658031088083,119.34822568292054,-64.59371833839919,72.52516440746211,-110.82726556343579,-11.797814207650267,-1.0495867768595042,-17.654708520179383,1.4941176470588253,2.309090909090909,-16.018018018018008,0.4980392156862763,-10.849246231155776,7.7088276907123685,51.23799527599924,58.871438132815136,5382.370327402274,88.46861831013696,1054.1729860147718,0
-30.556685150955023,-91.44104893660955,54.61658031088083,119.34822568292054,-64.59371833839919,72.52516440746211,-110.82726556343579,-7.6338797814207595,0.0,-26.76681614349777,-4.482352941176469,-1.1545454545454545,-19.45045045045044,-0.49803921568627274,-9.572864321608037,8.69486853854815,94.50927370821601,58.871438132815136,5382.370327402274,88.46861831013696,1054.1729860147718,0
-33.21719038817005,-89.65785670039233,53.30051813471503,116.49502170028074,-61.50557244174274,74.53643806200512,-108.62553191489363,-7.6338797814207595,0.0,-26.76681614349777,-4.482352941176469,-1.1545454545454545,-19.45045045045044,-0.49803921568627274,-9.572864321608037,8.69486853854815,94.50927370821601,58.725188407759134,5184.659939552263,86.48446551179603,1005.93912895147,0
-33.21719038817005,-89.65785670039233,53.30051813471503,116.49502170028074,-61.50557244174274,74.53643806200512,-108.62553191489363,-10.409836065573765,-3.1487603305785123,-21.071748878923778,0.4980392156862763,0.0,-17.162162162162154,0.4980392156862763,-9.572864321608037,7.79518127377735,66.12211402008106,58.725188407759134,5184.659939552263,86.48446551179603,1005.93912895147,0
-33.21719038817005,-89.65785670039233,53.30051813471503,116.49502170028074,-61.50557244174274,74.53643806200512,-108.62553191489363,-6.245901639344257,2.0991735537190084,-11.959641255605392,2.4901960784313744,-1.1545454545454545,-19.45045045045044,2.4901960784313744,-10.849246231155776,7.0924188427103845,41.97041289580939,58.725188407759134,5184.659939552263,86.48446551179603,1005.93912895147,0
-35.642945163277886,-87.4288664051208,53.08117443868739,112.79882563186106,-57.00202634245193,76.3772647966716,-106.74405043341213,-6.245901639344257,2.0991735537190084,-11.959641255605392,2.4901960784313744,-1.1545454545454545,-19.45045045045044,2.4901960784313744,-10.849246231155776,7.0924188427103845,41.97041289580939,58.717662002362026,5049.470435989808,84.43628882522309,898.2661064361691,0
-35.642945163277886,-87.4288664051208,53.08117443868739,112.79882563186106,-57.00202634245193,76.3772647966716,-106.74405043341213,-6.245901639344257,0.0,-17.654708520179383,-0.49803921568627274,-1.1545454545454545,-22.882882882882875,-1.4941176470588218,-9.572864321608037,7.437882460163138,75.31467463615913,58.717662002362026,5049.470435989808,84.43628882522309,898.2661064361691,0
-35.642945163277886,-87.4288664051208,53.08117443868739,112.79882563186106,-57.00202634245193,76.3772647966716,-106.74405043341213,-7.6338797814207595,-2.0991735537190084,-17.654708520179383,-0.49803921568627274,1.1545454545454545,-18.306306306306297,1.4941176470588253,-10.849246231155776,7.461252088758973,55.09278876814494,58.717662002362026,5049.470435989808,84.43628882522309,898.2661064361691,0
-35.91682070240296,-85.98657856700393,54.61658031088083,108.97293847332139,-51.72644376899689,78.1840021473628,-105.30291568163909,-7.6338797814207595,-2.0991735537190084,-17.654708520179383,-0.49803921568627274,1.1545454545454545,-18.306306306306297,1.4941176470588253,-10.849246231155776,7.461252088758973,55.09278876814494,58.839993193429244,5078.754273015255,83.19203245040205,744.5105341692406,0
-35.91682070240296,-85.98657856700393,54.61658031088083,108.97293847332139,-51.72644376899689,78.1840021473628,-105.30291568163909,-7.6338797814207595,-1.0495867768595042,-19.93273542600898,-3.48627450980392,1.1545454545454545,-19.45045045045044,0.4980392156862763,-9.572864321608037,7.847296992047921,63.96371658591527,58.839993193429244,5078.754273015255,83.19203245040205,744.5105341692406,0
-35.91682070240296,-85.98657856700393,54.61658031088083,108.97293847332139,-51.72644376899689,78.1840021473628,-105.30291568163909,-7.6338797814207595,-1.0495867768595042,-18.793721973094183,2.4901960784313744,0.0,-19.45045045045044,-0.49803921568627274,-12.125628140703515,7.755187802080756,66.1768908369163,58.839993193429244,5078.754273015255,83.19203245040205,744.5105341692406,0
-35.09519408502773,-85.30476977080323,50.887737478411054,105.1470513147816,-46.57953394123615,79.68393504227623,-103.90181245074862,-7.6338797814207595,-1.0495867768595042,-18.793721973094183,2.4901960784313744,0.0,-19.45045045045044,-0.49803921568627274,-12.125628140703515,7.755187802080756,66.1768908369163,57.095900444747336,4743.74417360265,80.44651952133196,753.720231113304,0
-35.09519408502773,-85.30476977080323,50.887737478411054,105.1470513147816,-46.57953394123615,79.68393504227623,-103.90181245074862,-9.021857923497262,0.0,-15.376681614349787,-1.4941176470588218,0.0,-19.45045045045044,-2.490196078431371,-10.849246231155776,7.3353187431179325,55.977239988245465,57.095900444747336,4743.74417360265,80.44651952133196,753.720231113304,0
-35.09519408502773,-85.30476977080323,50.887737478411054,105.1470513147816,-46.57953394123615,79.68393504227623,-103.90181245074862,-10.409836065573765,-1.0495867768595042,-18.793721973094183,-2.490196078431371,-1.1545454545454545,-19.45045045045044,-1.4941176470588218,-10.849246231155776,8.211462584646164,61.2911383503522,57.095900444747336,4743.74417360265,80.44651952133196,753.720231113304,0
-34.58656808379544,-85.19987610984927,44.96545768566494,101.256318611182,-41.94731509625126,80.91115286538721,-102.30055161544524,-10.409836065573765,-1.0495867768595042,-18.793721973094183,-2.490196078431371,-1.1545454545454545,-19.45045045045044,-1.4941176470588218,-10.849246231155776,8.211462584646164,61.2911383503522,54.91730062643655,4305.540979243788,77.14055080223207,840.8797992444751,0
-34.58656808379544,-85.19987610984927,44.96545768566494,101.256318611182,-41.94731509625126,80.91115286538721,-102.30055161544524,-6.245901639344257,1.0495867768595042,-16.515695067264584,2.4901960784313744,-1.1545454545454545,-17.162162162162154,0.4980392156862763,-9.572864321608037,6.836123839487705,47.568860890166675,54.91730062643655,4305.540979243788,77.14055080223207,840.8797992444751,0
-34.58656808379544,-85.19987610984927,44.96545768566494,101.256318611182,-41.94731509625126,80.91115286538721,-102.30055161544524,-7.6338797814207595,-1.0495867768595042,-18.793721973094183,-2.490196078431371,-1.1545454545454545,-20.594594594594586,-1.4941176470588218,-7.02010050251256,7.528842851064655,63.18564542186685,54.91730062643655,4305.540979243788,77.14055080223207,840.8797992444751,0
-36.151571164510166,-84.72785463555648,35.6433506044905,96.71713045698232,-37.31509625126637,81.76338746476986,-100.41907013396374,-7.6338797814207595,-1.0495867768595042,-18.793721973094183,-2.490196078431371,-1.1545454545454545,-20.594594594594586,-1.4941176470588218,-7.02010050251256,7.528842851064655,63.18564542186685,52.17425880151905,3667.232193102981,72.36277856567644,1047.1729760280991,0
-36.151571164510166,-84.72785463555648,35.6433506044905,96.71713045698232,-37.31509625126637,81.76338746476986,-100.41907013396374,-6.245901639344257,-4.198347107438017,-18.793721973094183,-0.49803921568627274,-1.1545454545454545,-18.306306306306297,-1.4941176470588218,-10.849246231155776,7.6925281968286345,56.15455300394482,52.17425880151905,3667.232193102981,72.36277856567644,1047.1729760280991,0
-36.151571164510166,-84.72785463555648,35.6433506044905,96.71713045698232,-37.31509625126637,81.76338746476986,-100.41907013396374,-7.6338797814207595,0.0,-16.515695067264584,0.4980392156862763,-1.1545454545454545,-18.306306306306297,-1.4941176470588218,-9.572864321608037,6.8969309742362785,54.43957669649507,52.17425880151905,3667.232193102981,72.36277856567644,1047.1729760280991,0
-38.616451016635864,-84.75407805079497,23.031088082901555,91.46464130712275,-32.425531914893554,82.30881760837474,-98.09724192277383,-7.6338797814207595,0.0,-16.515695067264584,0.4980392156862763,-1.1545454545454545,-18.306306306306297,-1.4941176470588218,-9.572864321608037,6.8969309742362785,54.43957669649507,48.80053905011079,2924.4569573067874,66.4166024802731,1422.9850594476939,0
-38.616451016635864,-84.75407805079497,23.031088082901555,91.46464130712275,-32.425531914893554,82.30881760837474,-98.09724192277383,-11.797814207650267,-3.1487603305785123,-22.210762331838577,-0.49803921568627274,1.1545454545454545,-20.594594594594586,0.4980392156862763,-10.849246231155776,8.843975197716965,80.05234690052899,48.80053905011079,2924.4569573067874,66.4166024802731,1422.9850594476939,0
-38.616451016635864,-84.75407805079497,23.031088082901555,91.46464130712275,-32.425531914893554,82.30881760837474,-98.09724192277383,-10.409836065573765,0.0,-22.210762331838577,-2.490196078431371,-4.618181818181818,-20.594594594594586,-0.49803921568627274,-13.402010050251253,9.277952519319705,77.79533563506492,48.80053905011079,2924.4569573067874,66.4166024802731,1422.9850594476939,0
-39.75107825015404,-84.49184389841008,10.747841105354063,85.69338779678321,-27.92198581560274,82.47926452825126,-95.41513002364067,-10.409836065573765,0.0,-22.210762331838577,-2.490196078431371,-4.618181818181818,-20.594594594594586,-0.49803921568627274,-13.402010050251253,9.277952519319705,77.79533563506492,44.99692108463939,2270.412427747083,60.311024266849124,1842.7427707598597,0
-39.75107825015404,-84.49184389841008,10.747841105354063,85.69338779678321,-27.92198581560274,82.47926452825126,-95.41513002364067,-9.021857923497262,0.0,-18.793721973094183,0.4980392156862763,-2.309090909090909,-19.45045045045044,0.4980392156862763,-10.849246231155776,7.67755573983264,66.41330890638301,44.99692108463939,2270.412427747083,60.311024266849124,1842.7427707598597,0
-39.75107825015404,-84.49184389841008,10.747841105354063,85.69338779678321,-27.92198581560274,82.47926452825126,-95.41513002364067,-7.6338797814207595,0.0,-17.654708520179383,-1.4941176470588218,2.309090909090909,-19.45045045045044,-0.49803921568627274,-10.849246231155776,7.486191594380295,60.77983352675051,44.99692108463939,2270.412427747083,60.311024266849124,1842.7427707598597,0
-36.542821934688845,-84.78030146603346,-0.7677029360967182,80.57058973704363,-25.34853090172237,82.10428130452291,-92.33270291568164,-7.6338797814207595,0.0,-17.654708520179383,-1.4941176470588218,2.309090909090909,-19.45045045045044,-0.49803921568627274,-10.849246231155776,7.486191594380295,60.77983352675051,40.69694211227301,1777.4717137754415,55.372864713057936,2240.7231877263785,0
-36.542821934688845,-84.78030146603346,-0.7677029360967182,80.57058973704363,-25.34853090172237,82.10428130452291,-92.33270291568164,-7.6338797814207595,0.0,-18.793721973094183,0.4980392156862763,-2.309090909090909,-20.594594594594586,0.4980392156862763,-10.849246231155776,7.647076490091095,70.18990465769109,40.69694211227301,1777.4717137754415,55.372864713057936,2240.7231877263785,0
-36.542821934688845,-84.78030146603346,-0.7677029360967182,80.57058973704363,-25.34853090172237,82.10428130452291,-92.33270291568164,-9.021857923497262,-4.198347107438017,-18.793721973094183,0.4980392156862763,0.0,-19.45045045045044,0.4980392156862763,-10.849246231155776,7.913712764626029,63.96163989866077,40.69694211227301,1777.4717137754415,55.372864713057936,2240.7231877263785,0
-32.160813308687615,-84.83274829651043,-6.5803108808290105,76.55016594332392,-24.96251266464037,81.28613608911559,-89.17021276595744,-9.021857923497262,-4.198347107438017,-18.793721973094183,0.4980392156862763,0.0,-19.45045045045044,0.4980392156862763,-10.849246231155776,7.913712764626029,63.96163989866077,41.19129082867568,1592.0231335530416,55.98774170688779,1847.9709582331666,0
-32.160813308687615,-84.83274829651043,-6.5803108808290105,76.55016594332392,-24.96251266464037,81.28613608911559,-89.17021276595744,-9.021857923497262,1.0495867768595042,-14.23766816143499,-0.49803921568627274,1.1545454545454545,-17.162162162162154,0.4980392156862763,-12.125628140703515,6.9684408813219285,48.590447164506294,41.19129082867568,1592.0231335530416,55.98774170688779,1847.9709582331666,0
-32.160813308687615,-84.83274829651043,-6.5803108808290105,76.55016594332392,-24.96251266464037,81.28613608911559,-89.17021276595744,-10.409836065573765,-2.0991735537190084,-19.93273542600898,-2.490196078431371,-2.309090909090909,-19.45045045045044,-0.49803921568627274,-9.572864321608037,8.345298252571098,62.09627273289767,41.19129082867568,1592.0231335530416,55.98774170688779,1847.9709582331666,0
-28.91343191620456,-83.67891802601694,-5.483592400690846,73.43757978044414,-25.60587639311052,80.2634545698564,-86.28794326241135,-10.409836065573765,-2.0991735537190084,-19.93273542600898,-2.490196078431371,-2.309090909090909,-19.45045045045044,-0.49803921568627274,-9.572864321608037,8.345298252571098,62.09627273289767,39.35864744763745,1610.4541330362604,54.20003006905065,1806.1897265864473,0
-28.91343191620456,-83.67891802601694,-5.483592400690846,73.43757978044414,-25.60587639311052,80.2634545698564,-86.28794326241135,-9.021857923497262,1.0495867768595042,-18.793721973094183,0.4980392156862763,1.1545454545454545,-20.594594594594586,-1.4941176470588218,-10.849246231155776,7.931963727061484,68.28971799524528,39.35864744763745,1610.4541330362604,54.20003006905065,1806.1897265864473,0
-28.91343191620456,-83.67891802601694,-5.483592400690846,73.43757978044414,-25.60587639311052,80.2634545698564,-86.28794326241135,-7.6338797814207595,1.0495867768595042,-16.515695067264584,1.4941176470588253,2.309090909090909,-18.306306306306297,1.4941176470588253,-9.572864321608037,7.296957307083468,48.96264382231392,39.35864744763745,1610.4541330362604,54.20003006905065,1806.1897265864473,0
-26.05730129390019,-81.63349163741483,-0.3290155440414466,71.16798570334436,-26.89260385005059,79.10441551469603,-84.0461780929866,-7.6338797814207595,1.0495867768595042,-16.515695067264584,1.4941176470588253,2.309090909090909,-18.306306306306297,1.4941176470588253,-9.572864321608037,7.296957307083468,48.96264382231392,36.006602825118826,1726.8459089238136,51.043497628266884,1956.350723417433,0
-26.05730129390019,-81.63349163741483,-0.3290155440414466,71.16798570334436,-26.89260385005059,79.10441551469603,-84.0461780929866,-9.021857923497262,-1.0495867768595042,-18.793721973094183,-0.49803921568627274,0.0,-19.45045045045044,-0.49803921568627274,-8.296482412060298,7.2010222459167785,66.9299280808802,36.006602825118826,1726.8459089238136,51.043497628266884,1956.350723417433,0
-26.05730129390019,-81.63349163741483,-0.3290155440414466,71.16798570334436,-26.89260385005059,79.10441551469603,-84.0461780929866,-6.245901639344257,0.0,-17.654708520179383,2.4901960784313744,-2.309090909090909,-20.594594594594586,1.4941176470588253,-8.296482412060298,7.3856364750949535,60.1504746986997,36.006602825118826,1726.8459089238136,51.043497628266884,1956.350723417433,0
-22.496919285274185,-79.06359694404296,9.870466321243526,70.19530252744437,-28.565349544072888,77.97946584351095,-82.80520094562647,-6.245901639344257,0.0,-17.654708520179383,2.4901960784313744,-2.309090909090909,-20.594594594594586,1.4941176470588253,-8.296482412060298,7.3856364750949535,60.1504746986997,37.14366085018689,2026.11738020434,53.04312193091028,1417.5703057580363,0
-22.496919285274185,-79.06359694404296,9.870466321243526,70.19530252744437,-28.565349544072888,77.97946584351095,-82.80520094562647,-9.021857923497262,-2.0991735537190084,-19.93273542600898,0.4980392156862763,-2.309090909090909,-18.306306306306297,-0.49803921568627274,-12.125628140703515,8.098858836337316,63.76599589863209,37.14366085018689,2026.11738020434,53.04312193091028,1417.5703057580363,0
-22.496919285274185,-79.06359694404296,9.870466321243526,70.19530252744437,-28.565349544072888,77.97946584351095,-82.80520094562647,-10.409836065573765,-2.0991735537190084,-21.071748878923778,-36.35686274509804,-3.463636363636364,-17.162162162162154,-0.49803921568627274,-13.402010050251253,13.05793362938133,142.99039200510077,37.14366085018689,2026.11738020434,53.04312193091028,1417.5703057580363,0
-21.714417744916823,-76.93950030972539,18.20552677029361,69.41715598672442,-29.08004052684896,76.9908737082271,-82.52498029944837,-10.409836065573765,-2.0991735537190084,-21.071748878923778,-36.35686274509804,-3.463636363636364,-17.162162162162154,-0.49803921568627274,-13.402010050251253,13.05793362938133,142.99039200510077,38.95314827497861,2282.6646487408248,54.854061022247805,1021.4827131409413,0
-21.714417744916823,-76.93950030972539,18.20552677029361,69.41715598672442,-29.08004052684896,76.9908737082271,-82.52498029944837,-9.021857923497262,-1.0495867768595042,-23.349775784753376,-12.450980392156861,-6.927272727272728,-21.73873873873873,-1.4941176470588218,-12.125628140703515,11.0197447663801,68.72563024682795,38.95314827497861,2282.6646487408248,54.854061022247805,1021.4827131409413,0
-21.714417744916823,-76.93950030972539,18.20552677029361,69.41715598672442,-29.08004052684896,76.9908737082271,-82.52498029944837,-11.797814207650267,0.0,-15.376681614349787,19.423529411764708,-2.309090909090909,-24.027027027027017,-0.49803921568627274,-10.849246231155776,10.535178577090592,80.79549522514854,38.95314827497861,2282.6646487408248,54.854061022247805,1021.4827131409413,0
-14.750154035736292,-77.20173446211027,19.192573402417963,70.19530252744437,-31.782168186423405,75.7295665011408,-82.60504334121356,-11.797814207650267,0.0,-15.376681614349787,19.423529411764708,-2.309090909090909,-24.027027027027017,-0.49803921568627274,-10.849246231155776,10.535178577090592,80.79549522514854,37.04815396675484,2390.6952053956893,55.529870130657535,1002.5718722508741,0
-14.750154035736292,-77.20173446211027,19.192573402417963,70.19530252744437,-31.782168186423405,75.7295665011408,-82.60504334121356,-10.409836065573765,-2.0991735537190084,-22.210762331838577,-11.454901960784312,0.0,-16.018018018018008,1.4941176470588253,-9.572864321608037,9.157459237325067,59.55435734798714,37.04815396675484,2390.6952053956893,55.529870130657535,1002.5718722508741,0
-14.750154035736292,-77.20173446211027,19.192573402417963,70.19530252744437,-31.782168186423405,75.7295665011408,-82.60504334121356,-4.857923497267754,-1.0495867768595042,-19.93273542600898,-2.490196078431371,-2.309090909090909,-18.306306306306297,-1.4941176470588218,-12.125628140703515,7.820698097715894,61.23221686449519,37.04815396675484,2390.6952053956893,55.529870130657535,1002.5718722508741,0
-5.047134935304992,-79.1947140202354,16.999136442141623,72.72427878478425,-37.82978723404244,73.99100791840024,-82.48494877856581,-4.857923497267754,-1.0495867768595042,-19.93273542600898,-2.490196078431371,-2.309090909090909,-18.306306306306297,-1.4941176470588218,-12.125628140703515,7.820698097715894,61.23221686449519,33.74699513256067,2539.5264054303634,56.306043082387085,1169.2413152527715,0
-5.047134935304992,-79.1947140202354,16.999136442141623,72.72427878478425,-37.82978723404244,73.99100791840024,-82.48494877856581,-7.6338797814207595,-2.0991735537190084,-14.23766816143499,-6.474509803921567,3.463636363636364,-13.72972972972972,7.4705882352941195,-10.849246231155776,8.24480398253904,19.645266856370338,33.74699513256067,2539.5264054303634,56.306043082387085,1169.2413152527715,0
-5.047134935304992,-79.1947140202354,16.999136442141623,72.72427878478425,-37.82978723404244,73.99100791840024,-82.48494877856581,-10.409836065573765,-2.0991735537190084,-15.376681614349787,6.4745098039215705,-1.1545454545454545,-28.603603603603595,-9.462745098039214,-12.125628140703515,10.71334041680699,75.57157785936772,33.74699513256067,2539.5264054303634,56.306043082387085,1169.2413152527715,0
5.9078866296980905,-82.05306628123066,17.54749568221071,77.19862139392387,-47.22289766970607,71.77519796000539,-82.16469661150512,-10.409836065573765,-2.0991735537190084,-15.376681614349787,6.4745098039215705,-1.1545454545454545,-28.603603603603595,-9.462745098039214,-12.125628140703515,10.71334041680699,75.57157785936772,35.169482864379816,2965.48027988788,58.93306111912174,1290.4651786906088,0
5.9078866296980905,-82.05306628123066,17.54749568221071,77.19862139392387,-47.22289766970607,71.77519796000539,-82.16469661150512,-9.021857923497262,-1.0495867768595042,-23.349775784753376,-24.40392156862745,-5.7727272727272725,-10.297297297297288,1.4941176470588253,-10.849246231155776,10.779816312747094,78.9886707355818,35.169482864379816,2965.48027988788,58.93306111912174,1290.4651786906088,0
5.9078866296980905,-82.05306628123066,17.54749568221071,77.19862139392387,-47.22289766970607,71.77519796000539,-82.16469661150512,-4.857923497267754,1.0495867768595042,-13.09865470852019,5.4784313725490215,0.0,-20.594594594594586,2.4901960784313744,-8.296482412060298,6.98323368003534,47.904945854679696,35.169482864379816,2965.48027988788,58.93306111912174,1290.4651786906088,0
15.689155884165125,-84.04604583935578,21.495682210708118,83.55348480980331,-59.961499493414294,69.15031539390688,-81.68431836091409,-4.857923497267754,1.0495867768595042,-13.09865470852019,5.4784313725490215,0.0,-20.594594594594586,2.4901960784313744,-8.296482412060298,6.98323368003534,47.904945854679696,40.410294644743004,3519.9804284343145,63.03173761995573,1293.9935783120247,0
15.689155884165125,-84.04604583935578,21.495682210708118,83.55348480980331,-59.961499493414294,69.15031539390688,-81.68431836091409,-11.797814207650267,1.0495867768595042,-18.793721973094183,23.407843137254904,3.463636363636364,-9.153153153153143,-5.478431372549018,-12.125628140703515,10.658726890612613,57.91064922946743,40.410294644743004,3519.9804284343145,63.03173761995573,1293.9935783120247,0
15.689155884165125,-84.04604583935578,21.495682210708118,83.55348480980331,-59.961499493414294,69.15031539390688,-81.68431836091409,-10.409836065573765,-1.0495867768595042,-17.654708520179383,9.462745098039218,5.7727272727272725,-19.45045045045044,-0.49803921568627274,-14.678391959798992,9.872060669914356,51.19793979286419,40.410294644743004,3519.9804284343145,63.03173761995573,1293.9935783120247,0
16.667282809611827,-84.07226925459426,29.940414507772022,89.51927495532289,-71.67071935157037,66.52543282780837,-81.32403467297084,-10.409836065573765,-1.0495867768595042,-17.654708520179383,9.462745098039218,5.7727272727272725,-19.45045045045044,-0.49803921568627274,-14.678391959798992,9.872060669914356,51.19793979286419,43.55998885732604,3887.2542389784885,67.84398623922972,1084.9280302772622,0
16.667282809611827,-84.07226925459426,29.940414507772022,89.51927495532289,-71.67071935157037,66.52543282780837,-81.32403467297084,-3.4699453551912516,3.1487603305785123,-5.125560538116604,27.3921568627451,8.081818181818182,-22.882882882882875,0.4980392156862763,-8.296482412060298,9.861955722384888,96.93046472543112,43.55998885732604,3887.2542389784885,67.84398623922972,1084.9280302772622,0
16.667282809611827,-84.07226925459426,29.940414507772022,89.51927495532289,-71.67071935157037,66.52543282780837,-81.32403467297084,-6.245901639344257,5.247933884297521,-17.654708520179383,11.454901960784316,11.545454545454545,-11.441441441441432,2.4901960784313744,-10.849246231155776,9.616223037636075,22.541852620266727,43.55998885732604,3887.2542389784885,67.84398623922972,1084.9280302772622,0
17.488909426987057,-83.67891802601694,44.0880829015544,95.5499106459024,-82.3505572441743,64.20735471748762,-81.404097714736,-6.245901639344257,5.247933884297521,-17.654708520179383,11.454901960784316,11.545454545454545,-11.441441441441432,2.4901960784313744,-10.849246231155776,9.616223037636075,22.541852620266727,48.4186367848528,4544.475311186156,74.43897052449125,726.1124010704496,0
17.488909426987057,-83.67891802601694,44.0880829015544,95.5499106459024,-82.3505572441743,64.20735471748762,-81.404097714736,-4.857923497267754,2.0991735537190084,-19.93273542600898,1.4941176470588253,-10.39090909090909,-22.882882882882875,1.4941176470588253,-7.02010050251256,8.77149503092724,70.73582831081661,48.4186367848528,4544.475311186156,74.43897052449125,726.1124010704496,0
17.488909426987057,-83.67891802601694,44.0880829015544,95.5499106459024,-82.3505572441743,64.20735471748762,-81.404097714736,-9.021857923497262,-1.0495867768595042,-18.793721973094183,-8.466666666666665,-15.00909090909091,-17.162162162162154,3.4862745098039234,-8.296482412060298,10.160730416654362,40.322684629996466,48.4186367848528,4544.475311186156,74.43897052449125,726.1124010704496,0
18.467036352433766,-83.83625851744787,58.3454231433506,102.03446515190194,-92.38703140830808,62.40061736679641,-81.88447596532703,-9.021857923497262,-1.0495867768595042,-18.793721973094183,-8.466666666666665,-15.00909090909091,-17.162162162162154,3.4862745098039234,-8.296482412060298,10.160730416654362,40.322684629996466,53.549572671077414,5378.646745695427,81.40538227090013,481.6149674007634,0
18.467036352433766,-83.83625851744787,58.3454231433506,102.03446515190194,-92.38703140830808,62.40061736679641,-81.88447596532703,-13.185792349726771,0.0,-11.959641255605392,-5.478431372549018,-23.09090909090909,-32.03603603603602,-6.474509803921567,-13.402010050251253,13.203416244874889,104.75722614402153,53.549572671077414,5378.646745695427,81.40538227090013,481.6149674007634,0
18.467036352433766,-83.83625851744787,58.3454231433506,102.03446515190194,-92.38703140830808,62.40061736679641,-81.88447596532703,-11.797814207650267,-2.0991735537190084,-21.071748878923778,2.4901960784313744,40.40909090909091,-13.72972972972972,-2.490196078431371,-15.954773869346731,13.755340413165394,166.04221431963728,53.549572671077414,5378.646745695427,81.40538227090013,481.6149674007634,0
22.223043746149102,-84.96386537270288,73.9188255613126,109.94562164922127,-103.06686930091178,61.10522077573481,-82.60504334121356,-11.797814207650267,-2.0991735537190084,-21.071748878923778,2.4901960784313744,40.40909090909091,-13.72972972972972,-2.490196078431371,-15.954773869346731,13.755340413165394,166.04221431963728,60.368578226721525,6567.532803727985,89.60943752774558,340.6685145757188,0
22.223043746149102,-84.96386537270288,73.9188255613126,109.94562164922127,-103.06686930091178,61.10522077573481,-82.60504334121356,-7.6338797814207595,3.1487603305785123,-11.959641255605392,7.4705882352941195,16.163636363636364,-17.162162162162154,-1.4941176470588218,-13.402010050251253,9.804349478250924,33.668654521968044,60.368578226721525,6567.532803727985,89.60943752774558,340.6685145757188,0
22.223043746149102,-84.96386537270288,73.9188255613126,109.94562164922127,-103.06686930091178,61.10522077573481,-82.60504334121356,-14.573770491803273,-5.247933884297521,-25.62780269058297,1.4941176470588253,10.39090909090909,-11.441441441441432,2.4901960784313744,-9.572864321608037,10.104879455766566,59.828846570036326,60.368578226721525,6567.532803727985,89.60943752774558,340.6685145757188,0
23.122920517560075,-85.12120586413381,78.52504317789291,118.11616032678057,-114.26139817629178,59.80982418467323,-83.08542159180456,-14.573770491803273,-5.247933884297521,-25.62780269058297,1.4941176470588253,10.39090909090909,-11.441441441441432,2.4901960784313744,-9.572864321608037,10.104879455766566,59.828846570036326,62.2563898531956,6927.713486155286,93.92080312293577,449.9388232120728,0
23.122920517560075,-85.12120586413381,78.52504317789291,118.11616032678057,-114.26139817629178,59.80982418467323,-83.08542159180456,-10.409836065573765,4.198347107438017,-13.09865470852019,10.458823529411767,33.481818181818184,-22.882882882882875,-1.4941176470588218,-12.125628140703515,13.518763532925892,105.54550480109594,62.2563898531956,6927.713486155286,93.92080312293577,449.9388232120728,0
23.122920517560075,-85.12120586413381,78.52504317789291,118.11616032678057,-114.26139817629178,59.80982418467323,-83.08542159180456,-13.185792349726771,-22.041322314049587,-48.40807174887894,-7.470588235294116,-34.63636363636363,-21.73873873873873,0.4980392156862763,-8.296482412060298,19.534424831349796,249.6308845300223,62.2563898531956,6927.713486155286,93.92080312293577,449.9388232120728,0
17.058533579790513,-83.1020028907702,75.45423143350604,124.40617819760018,-123.13981762917933,58.37807005771039,-83.56579984239559,-13.185792349726771,-22.041322314049587,-48.40807174887894,-7.470588235294116,-34.63636363636363,-21.73873873873873,0.4980392156862763,-8.296482412060298,19.534424831349796,249.6308845300223,58.53825596802225,6430.378339497958,94.32080417395882,693.4693996724327,0
17.058533579790513,-83.1020028907702,75.45423143350604,124.40617819760018,-123.13981762917933,58.37807005771039,-83.56579984239559,-10.409836065573765,4.198347107438017,-18.793721973094183,-17.431372549019606,-2.309090909090909,-21.73873873873873,-0.49803921568627274,-10.849246231155776,10.778549098724657,64.2127748749402,58.53825596802225,6430.378339497958,94.32080417395882,693.4693996724327,0
17.058533579790513,-83.1020028907702,75.45423143350604,124.40617819760018,-123.13981762917933,58.37807005771039,-83.56579984239559,3.4699453551912622,19.94214876033058,-13.09865470852019,1.4941176470588253,73.89090909090909,-27.459459459459453,4.482352941176472,-5.743718592964822,18.697663319451337,579.0980290077347,58.53825596802225,6430.378339497958,94.32080417395882,693.4693996724327,0
1.252002464571781,-80.50588478215982,78.85405872193436,126.99999999999989,-127.0,57.42356730640185,-83.68589440504334,3.4699453551912622,19.94214876033058,-13.09865470852019,1.4941176470588253,73.89090909090909,-27.459459459459453,4.482352941176472,-5.743718592964822,18.697663319451337,579.0980290077347,53.53731532288865,6350.337142674706,95.45331450136469,747.07715679566,0
1.252002464571781,-80.50588478215982,78.85405872193436,126.99999999999989,-127.0,57.42356730640185,-83.68589440504334,-4.857923497267754,-4.198347107438017,-15.376681614349787,4.482352941176472,49.64545454545455,-6.864864864864854,-2.490196078431371,-9.572864321608037,12.186085621323855,245.62746240041542,53.53731532288865,6350.337142674706,95.45331450136469,747.07715679566,0
1.252002464571781,-80.50588478215982,78.85405872193436,126.99999999999989,-127.0,57.42356730640185,-83.68589440504334,-11.797814207650267,-18.892561983471076,-32.461883408071756,-6.474509803921567,-16.163636363636364,-9.153153153153143,-5.478431372549018,-10.849246231155776,13.90890456545112,76.7017382171654,53.53731532288865,6350.337142674706,95.45331450136469,747.07715679566,0
-30.04805914972274,-81.2401404088375,100.67875647668393,122.97957620628029,-122.36778115501511,58.71896389746345,-82.40488573680062,-11.797814207650267,-18.892561983471076,-32.461883408071756,-6.474509803921567,-16.163636363636364,-9.153153153153143,-5.478431372549018,-10.849246231155776,13.90890456545112,76.7017382171654,70.65565201174806,8800.769091917553,101.63282436393392,436.2278093223232,0
-30.04805914972274,-81.2401404088375,100.67875647668393,122.97957620628029,-122.36778115501511,58.71896389746345,-82.40488573680062,-2.0819672131147486,0.0,3.9865470852017815,2.4901960784313744,-48.49090909090909,-38.90090090090089,8.466666666666669,-4.4673366834170825,13.610565464830206,357.24831147437027,70.65565201174806,8800.769091917553,101.63282436393392,436.2278093223232,0
-30.04805914972274,-81.2401404088375,100.67875647668393,122.97957620628029,-122.36778115501511,58.71896389746345,-82.40488573680062,-2.0819672131147486,7.347107438016529,-13.09865470852019,-3.48627450980392,-9.236363636363636,-13.72972972972972,1.4941176470588253,-7.02010050251256,7.186789423140016,22.024856127960852,70.65565201174806,8800.769091917553,101.63282436393392,436.2278093223232,0
-55.98798521256932,-82.10551311170762,111.09758203799655,114.54965534848088,-110.52988855116519,62.09381291101869,-80.4033096926714,-2.0819672131147486,7.347107438016529,-13.09865470852019,-3.48627450980392,-9.236363636363636,-13.72972972972972,1.4941176470588253,-7.02010050251256,7.186789423140016,22.024856127960852,83.06369345409117,10987.858003738545,102.58425016606168,317.51320604127005,0
-55.98798521256932,-82.10551311170762,111.09758203799655,114.54965534848088,-110.52988855116519,62.09381291101869,-80.4033096926714,6.245901639344268,8.396694214876034,-50.68609865470853,19.423529411764708,4.618181818181818,-8.009009009008999,11.454901960784316,-3.1909547738693433,14.003158935317252,244.86156732017426,83.06369345409117,10987.858003738545,102.58425016606168,317.51320604127005,0
-55.98798521256932,-82.10551311170762,111.09758203799655,114.54965534848088,-110.52988855116519,62.09381291101869,-80.4033096926714,-17.349726775956277,-4.198347107438017,-25.62780269058297,5.4784313725490215,-31.172727272727272,-25.17117117117116,-12.450980392156861,-21.060301507537687,17.81368603626491,95.81533330851357,83.06369345409117,10987.858003738545,102.58425016606168,317.51320604127005,0
-57.47473813924831,-85.30476977080323,71.286701208981,105.73066122032162,-99.07801418439726,64.92323178096902,-77.8012608353034,-17.349726775956277,-4.198347107438017,-25.62780269058297,5.4784313725490215,-31.172727272727272,-25.17117117117116,-12.450980392156861,-21.060301507537687,17.81368603626491,95.81533330851357,71.35540303967751,6979.151284542281,87.44071073336862,300.01827816238153,0
-57.47473813924831,-85.30476977080323,71.286701208981,105.73066122032162,-99.07801418439726,64.92323178096902,-77.8012608353034,-15.961748633879775,9.446280991735538,6.2645739910313765,0.4980392156862763,26.554545454545455,-14.873873873873865,-5.478431372549018,-13.402010050251253,11.559937947944071,64.34976335672994,71.35540303967751,6979.151284542281,87.44071073336862,300.01827816238153,0
-57.47473813924831,-85.30476977080323,71.286701208981,105.73066122032162,-99.07801418439726,64.92323178096902,-77.8012608353034,-7.6338797814207595,5.247933884297521,-15.376681614349787,-6.474509803921567,-32.32727272727273,-36.61261261261261,-5.478431372549018,-8.296482412060298,14.680975526060536,160.61585729843725,71.35540303967751,6979.151284542281,87.44071073336862,300.01827816238153,0
-40.650955021565004,-85.12120586413381,47.26856649395509,100.02425325504203,-92.90172239108415,66.1163602201047,-75.59952718676124,-7.6338797814207595,5.247933884297521,-15.376681614349787,-6.474509803921567,-32.32727272727273,-36.61261261261261,-5.478431372549018,-8.296482412060298,14.680975526060536,160.61585729843725,57.68024245988463,4539.082883090932,77.47134187104363,739.6809357430639,0
-40.650955021565004,-85.12120586413381,47.26856649395509,100.02425325504203,-92.90172239108415,66.1163602201047,-75.59952718676124,-20.12568306010928,-19.94214876033058,-30.183856502242165,-7.470588235294116,-12.7,-10.297297297297288,5.4784313725490215,-9.572864321608037,14.47135869367881,69.03182735257867,57.68024245988463,4539.082883090932,77.47134187104363,739.6809357430639,0
-40.650955021565004,-85.12120586413381,47.26856649395509,100.02425325504203,-92.90172239108415,66.1163602201047,-75.59952718676124,-14.573770491803273,-5.247933884297521,-7.403587443946201,9.462745098039218,-1.1545454545454545,-24.027027027027017,0.4980392156862763,-9.572864321608037,8.992564117119125,58.26876433896073,57.68024245988463,4539.082883090932,77.47134187104363,739.6809357430639,0
-29.930683918669132,-81.266363824076,29.28238341968912,95.87413837120243,-89.55623100303956,65.67319822842575,-74.31851851851852,-14.573770491803273,-5.247933884297521,-7.403587443946201,9.462745098039218,-1.1545454545454545,-24.027027027027017,0.4980392156862763,-9.572864321608037,8.992564117119125,58.26876433896073,46.82647705414475,3060.4274820222017,68.80762853832252,1225.0305205709587,0
-29.930683918669132,-81.266363824076,29.28238341968912,95.87413837120243,-89.55623100303956,65.67319822842575,-74.31851851851852,-11.797814207650267,-8.396694214876034,-26.76681614349777,-12.450980392156861,-17.318181818181817,-22.882882882882875,-2.490196078431371,-13.402010050251253,14.438196973491031,60.40724266497971,46.82647705414475,3060.4274820222017,68.80762853832252,1225.0305205709587,0
-29.930683918669132,-81.266363824076,29.28238341968912,95.87413837120243,-89.55623100303956,65.67319822842575,-74.31851851851852,-7.6338797814207595,-1.0495867768595042,-16.515695067264584,2.4901960784313744,-27.70909090909091,-19.45045045045044,2.4901960784313744,-12.125628140703515,11.183090410331559,91.02865714677095,46.82647705414475,3060.4274820222017,68.80762853832252,1225.0305205709587,0
-20.892791127541592,-79.06359694404296,15.46373056994819,93.47485320398255,-89.2988855116514,64.0369077976111,-73.39779353821908,-7.6338797814207595,-1.0495867768595042,-16.515695067264584,2.4901960784313744,-27.70909090909091,-19.45045045045044,2.4901960784313744,-12.125628140703515,11.183090410331559,91.02865714677095,38.47337288051091,2273.5091610364166,62.66739357265789,1723.0604274024508,0
-20.892791127541592,-79.06359694404296,15.46373056994819,93.47485320398255,-89.2988855116514,64.0369077976111,-73.39779353821908,-0.6939890710382457,7.347107438016529,-30.183856502242165,-4.482352941176469,-11.545454545454545,-20.594594594594586,-3.48627450980392,-8.296482412060298,10.828764001798344,97.99168983839208,38.47337288051091,2273.5091610364166,62.66739357265789,1723.0604274024508,0
-20.892791127541592,-79.06359694404296,15.46373056994819,93.47485320398255,-89.2988855116514,64.0369077976111,-73.39779353821908,-4.857923497267754,4.198347107438017,-17.654708520179383,1.4941176470588253,1.1545454545454545,-13.72972972972972,5.4784313725490215,-8.296482412060298,7.108035717603559,34.23379569845054,38.47337288051091,2273.5091610364166,62.66739357265789,1723.0604274024508,0
-17.33240911891559,-78.5129052240347,14.037996545768564,91.72402348736273,-90.5856129685917,61.95745537511746,-72.35697399527186,-4.857923497267754,4.198347107438017,-17.654708520179383,1.4941176470588253,1.1545454545454545,-13.72972972972972,5.4784313725490215,-8.296482412060298,7.108035717603559,34.23379569845054,36.62777029623962,2215.4708122731854,61.424975085722,1727.7777128014154,0
-17.33240911891559,-78.5129052240347,14.037996545768564,91.72402348736273,-90.5856129685917,61.95745537511746,-72.35697399527186,-13.185792349726771,-8.396694214876034,-17.654708520179383,7.4705882352941195,-1.1545454545454545,-25.17117117117116,-7.470588235294116,-14.678391959798992,11.897810017610754,55.08438026608584,36.62777029623962,2215.4708122731854,61.424975085722,1727.7777128014154,0
-17.33240911891559,-78.5129052240347,14.037996545768564,91.72402348736273,-90.5856129685917,61.95745537511746,-72.35697399527186,-4.857923497267754,5.247933884297521,-13.09865470852019,-4.482352941176469,8.081818181818182,-16.018018018018008,2.4901960784313744,-7.02010050251256,7.662124726505256,21.502400735616884,36.62777029623962,2215.4708122731854,61.424975085722,1727.7777128014154,0
-17.5671595810228,-78.5129052240347,15.354058721934372,90.36226704110277,-91.35764944275593,60.21889679237688,-71.7565011820331,-4.857923497267754,5.247933884297521,-13.09865470852019,-4.482352941176469,8.081818181818182,-16.018018018018008,2.4901960784313744,-7.02010050251256,7.662124726505256,21.502400735616884,37.144707842330625,2268.1995744945866,61.40974366235727,1625.946430366571,0
-17.5671595810228,-78.5129052240347,15.354058721934372,90.36226704110277,-91.35764944275593,60.21889679237688,-71.7565011820331,-14.573770491803273,-10.495867768595042,-21.071748878923778,0.4980392156862763,3.463636363636364,-9.153153153153143,-0.49803921568627274,-10.849246231155776,8.825437664829991,51.06414956902385,37.144707842330625,2268.1995744945866,61.40974366235727,1625.946430366571,0
-17.5671595810228,-78.5129052240347,15.354058721934372,90.36226704110277,-91.35764944275593,60.21889679237688,-71.7565011820331,-9.021857923497262,-2.0991735537190084,-39.295964125560545,-2.490196078431371,-33.481818181818184,-33.18018018018017,-2.490196078431371,-12.125628140703515,16.77312678279268,251.52292947984157,37.144707842330625,2268.1995744945866,61.40974366235727,1625.946430366571,0
-10.79852125693161,-77.85731984307249,17.328151986183077,90.49195813122276,-93.80243161094222,58.24171252180918,-71.71646966115051,-9.021857923497262,-2.0991735537190084,-39.295964125560545,-2.490196078431371,-33.481818181818184,-33.18018018018017,-2.490196078431371,-12.125628140703515,16.77312678279268,251.52292947984157,35.32799769539572,2391.3777104832598,61.892476653492785,1529.3927959581388,0
-10.79852125693161,-77.85731984307249,17.328151986183077,90.49195813122276,-93.80243161094222,58.24171252180918,-71.71646966115051,-11.797814207650267,-3.1487603305785123,-21.071748878923778,-5.478431372549018,-20.78181818181818,-21.73873873873873,0.4980392156862763,-12.125628140703515,12.080122383331034,72.49081402972021,35.32799769539572,2391.3777104832598,61.892476653492785,1529.3927959581388,0
-10.79852125693161,-77.85731984307249,17.328151986183077,90.49195813122276,-93.80243161094222,58.24171252180918,-71.71646966115051,-13.185792349726771,-6.297520661157025,-9.681614349775796,2.4901960784313744,19.62727272727273,-6.864864864864854,2.4901960784313744,-10.849246231155776,8.935837917601962,32.98977851347015,35.32799769539572,2391.3777104832598,61.892476653492785,1529.3927959581388,0
-4.655884165126311,-77.33285153830272,24.34715025906736,92.24278784784269,-98.04863221884489,56.12817071534025,-72.07675334909376,-13.185792349726771,-6.297520661157025,-9.681614349775796,2.4901960784313744,19.62727272727273,-6.864864864864854,2.4901960784313744,-10.849246231155776,8.935837917601962,32.98977851347015,35.44529532083213,2743.6567263143156,64.64092988173759,1273.2680573988705,0
-4.655884165126311,-77.33285153830272,24.34715025906736,92.24278784784269,-98.04863221884489,56.12817071534025,-72.07675334909376,-10.409836065573765,-8.396694214876034,-27.905829596412566,-5.478431372549018,-3.463636363636364,-21.73873873873873,-0.49803921568627274,-13.402010050251253,11.4116519522155,87.17753563542973,35.44529532083213,2743.6567263143156,64.64092988173759,1273.2680573988705,0
-4.655884165126311,-77.33285153830272,24.34715025906736,92.24278784784269,-98.04863221884489,56.12817071534025,-72.07675334909376,-4.857923497267754,3.1487603305785123,3.9865470852017815,0.4980392156862763,1.1545454545454545,-19.45045045045044,-0.49803921568627274,-9.572864321608037,5.395896196378066,41.181417037605975,35.44529532083213,2743.6567263143156,64.64092988173759,1273.2680573988705,0
-4.264633394947628,-78.38178814784226,29.940414507772022,93.73423538422253,-102.03748733535963,54.11689706079723,-72.2769109535067,-4.857923497267754,3.1487603305785123,3.9865470852017815,0.4980392156862763,1.1545454545454545,-19.45045045045044,-0.49803921568627274,-9.572864321608037,5.395896196378066,41.181417037605975,37.5289453501873,3066.1729198093076,67.35214601327894,1108.6526497165642,0
-4.264633394947628,-78.38178814784226,29.940414507772022,93.73423538422253,-102.03748733535963,54.11689706079723,-72.2769109535067,-10.409836065573765,0.0,-15.376681614349787,4.482352941176472,2.309090909090909,-22.882882882882875,-3.48627450980392,-13.402010050251253,9.043641121641123,61.617881082442075,37.5289453501873,3066.1729198093076,67.35214601327894,1108.6526497165642,0
-7.668515095502158,-79.06359694404296,29.392055267702936,94.25299974470249,-104.61094224924022,52.31015971010605,-72.19684791174151,-10.409836065573765,0.0,-15.376681614349787,4.482352941176472,2.309090909090909,-22.882882882882875,-3.48627450980392,-13.402010050251253,9.043641121641123,61.617881082442075,38.708055769082684,3038.895347413517,67.56955065214946,1150.8203547322478,0
-7.668515095502158,-79.06359694404296,29.392055267702936,94.25299974470249,-104.61094224924022,52.31015971010605,-72.19684791174151,-11.797814207650267,-5.247933884297521,-30.183856502242165,-6.474509803921567,2.309090909090909,-18.306306306306297,-0.49803921568627274,-13.402010050251253,11.027445109930781,95.31314333072545,38.708055769082684,3038.895347413517,67.56955065214946,1150.8203547322478,0
-7.668515095502158,-79.06359694404296,29.392055267702936,94.25299974470249,-104.61094224924022,52.31015971010605,-72.19684791174151,-6.245901639344257,2.0991735537190084,-9.681614349775796,1.4941176470588253,0.0,-18.306306306306297,-0.49803921568627274,-9.572864321608037,5.987252129187311,39.944997335851,38.708055769082684,3038.895347413517,67.56955065214946,1150.8203547322478,0
-9.859519408502774,-80.06008672310551,29.392055267702936,93.99361756446251,-106.28368794326252,50.673869279291395,-72.0367218282112,-6.245901639344257,2.0991735537190084,-9.681614349775796,1.4941176470588253,0.0,-18.306306306306297,-0.49803921568627274,-9.572864321608037,5.987252129187311,39.944997335851,39.770553799770404,3074.7628587049867,67.81525318509033,1155.7924240758034,0
-9.859519408502774,-80.06008672310551,29.392055267702936,93.99361756446251,-106.28368794326252,50.673869279291395,-72.0367218282112,-10.409836065573765,-4.198347107438017,-17.654708520179383,-0.49803921568627274,3.463636363636364,-18.306306306306297,0.4980392156862763,-12.125628140703515,8.394317616901237,52.65822337413685,39.770553799770404,3074.7628587049867,67.81525318509033,1155.7924240758034,0
-9.859519408502774,-80.06008672310551,29.392055267702936,93.99361756446251,-106.28368794326252,50.673869279291395,-72.0367218282112,-2.0819672131147486,7.347107438016529,-13.09865470852019,-1.4941176470588218,-1.1545454545454545,-20.594594594594586,1.4941176470588253,-7.02010050251256,6.785650650677715,48.67796860073371,39.770553799770404,3074.7628587049867,67.81525318509033,1155.7924240758034,0
-10.289895255699324,-81.21391699359901,28.295336787564768,93.5396987490426,-107.95643363728459,49.07166823245204,-71.43624901497242,-2.0819672131147486,7.347107438016529,-13.09865470852019,-1.4941176470588218,-1.1545454545454545,-20.594594594594586,1.4941176470588253,-7.02010050251256,6.785650650677715,48.67796860073371,39.93304967895437,3085.218942502989,67.68298417673546,1201.5212991109402,0
-10.289895255699324,-81.21391699359901,28.295336787564768,93.5396987490426,-107.95643363728459,49.07166823245204,-71.43624901497242,-6.245901639344257,0.0,5.125560538116581,0.4980392156862763,0.0,-12.585585585585576,-0.49803921568627274,-8.296482412060298,4.156201075809907,22.116467160600262,39.93304967895437,3085.218942502989,67.68298417673546,1201.5212991109402,0
-10.289895255699324,-81.21391699359901,28.295336787564768,93.5396987490426,-107.95643363728459,49.07166823245204,-71.43624901497242,2.08196721311476,6.297520661157025,-15.376681614349787,-0.49803921568627274,-11.545454545454545,-25.17117117117116,0.4980392156862763,-7.02010050251256,8.561121767391548,72.96521715286845,39.93304967895437,3085.218942502989,67.68298417673546,1201.5212991109402,0
-16.119531731361675,-82.94466239933926,28.075993091537132,91.78886903242267,-108.08510638297867,47.91262917729166,-70.31536643026004,2.08196721311476,6.297520661157025,-15.376681614349787,-0.49803921568627274,-11.545454545454545,-25.17117117117116,0.4980392156862763,-7.02010050251256,8.561121767391548,72.96521715286845,42.38006240741269,3124.0714081312676,67.60317484109969,1191.3535705393826,0
-16.119531731361675,-82.94466239933926,28.075993091537132,91.78886903242267,-108.08510638297867,47.91262917729166,-70.31536643026004,-10.409836065573765,-1.0495867768595042,-27.905829596412566,4.482352941176472,4.618181818181818,-20.594594594594586,0.4980392156862763,-12.125628140703515,10.210506143648562,95.28592538287988,42.38006240741269,3124.0714081312676,67.60317484109969,1191.3535705393826,0
-16.119531731361675,-82.94466239933926,28.075993091537132,91.78886903242267,-108.08510638297867,47.91262917729166,-70.31536643026004,-13.185792349726771,-5.247933884297521,-24.488789237668172,-5.478431372549018,4.618181818181818,-14.873873873873865,-1.4941176470588218,-12.125628140703515,10.189093540507438,56.057413404087995,42.38006240741269,3124.0714081312676,67.60317484109969,1191.3535705393826,0
-22.301293900184845,-84.64918438984101,31.69516407599309,89.00051059484292,-106.66970618034452,47.469467185612686,-68.79416863672182,-13.185792349726771,-5.247933884297521,-24.488789237668172,-5.478431372549018,4.618181818181818,-14.873873873873865,-1.4941176470588218,-12.125628140703515,10.189093540507438,56.057413404087995,46.21521412200631,3389.8140570704572,68.44828635355901,1017.8275077978681,0
-22.301293900184845,-84.64918438984101,31.69516407599309,89.00051059484292,-106.66970618034452,47.469467185612686,-68.79416863672182,-4.857923497267754,8.396694214876034,-16.515695067264584,-4.482352941176469,-8.081818181818182,-18.306306306306297,1.4941176470588253,-8.296482412060298,8.803923783478556,34.055945380905726,46.21521412200631,3389.8140570704572,68.44828635355901,1017.8275077978681,0
-22.301293900184845,-84.64918438984101,31.69516407599309,89.00051059484292,-106.66970618034452,47.469467185612686,-68.79416863672182,-9.021857923497262,-3.1487603305785123,-3.9865470852018063,1.4941176470588253,19.62727272727273,-13.72972972972972,2.4901960784313744,-8.296482412060298,7.724370491728816,40.12491019341154,46.21521412200631,3389.8140570704572,68.44828635355901,1017.8275077978681,0
-24.49229821318546,-85.88168490604997,33.77892918825562,86.27699770232311,-104.86828774062815,47.503556569588,-67.11284475965326,-9.021857923497262,-3.1487603305785123,-3.9865470852018063,1.4941176470588253,19.62727272727273,-13.72972972972972,2.4901960784313744,-8.296482412060298,7.724370491728816,40.12491019341154,48.05097076916368,3580.475884470472,68.64587059887623,911.8167705504624,0
-24.49229821318546,-85.88168490604997,33.77892918825562,86.27699770232311,-104.86828774062815,47.503556569588,-67.11284475965326,-13.185792349726771,5.247933884297521,-13.09865470852019,-7.470588235294116,-24.245454545454546,-25.17117117117116,-0.49803921568627274,-15.954773869346731,13.109050997437162,75.74934368537274,48.05097076916368,3580.475884470472,68.64587059887623,911.8167705504624,0
-24.49229821318546,-85.88168490604997,33.77892918825562,86.27699770232311,-104.86828774062815,47.503556569588,-67.11284475965326,-7.6338797814207595,6.297520661157025,-8.542600896860998,4.482352941176472,12.7,-19.45045045045044,-2.490196078431371,-12.125628140703515,9.215328618775072,29.209444227453222,48.05097076916368,3580.475884470472,68.64587059887623,911.8167705504624,0
-21.94916820702403,-86.53727028701219,41.4559585492228,84.9800868011232,-104.224924012158,47.94671856126696,-65.63167848699763,-7.6338797814207595,6.297520661157025,-8.542600896860998,4.482352941176472,12.7,-19.45045045045044,-2.490196078431371,-12.125628140703515,9.215328618775072,29.209444227453222,49.98079901441967,4095.6832761992523,70.99110521245272,654.849871416058,0
-21.94916820702403,-86.53727028701219,41.4559585492228,84.9800868011232,-104.224924012158,47.94671856126696,-65.63167848699763,-13.185792349726771,-4.198347107438017,-15.376681614349787,3.4862745098039234,10.39090909090909,-13.72972972972972,1.4941176470588253,-8.296482412060298,8.769791807634554,27.4791681573206,49.98079901441967,4095.6832761992523,70.99110521245272,654.849871416058,0
-21.94916820702403,-86.53727028701219,41.4559585492228,84.9800868011232,-104.224924012158,47.94671856126696,-65.63167848699763,-9.021857923497262,-7.347107438016529,-30.183856502242165,14.443137254901963,5.7727272727272725,-18.306306306306297,0.4980392156862763,-9.572864321608037,11.893237029373225,83.3976605772075,49.98079901441967,4095.6832761992523,70.99110521245272,654.849871416058,0
-21.244916820702404,-87.35019615940533,52.09412780656304,84.5261679857033,-104.224924012158,48.935310696550815,-64.150512214342,-9.021857923497262,-7.347107438016529,-30.183856502242165,14.443137254901963,5.7727272727272725,-18.306306306306297,0.4980392156862763,-9.572864321608037,11.893237029373225,83.3976605772075,53.56308026222359,4865.540484935653,74.65683065055721,383.8004535012532,0
-21.244916820702404,-87.35019615940533,52.09412780656304,84.5261679857033,-104.224924012158,48.935310696550815,-64.150512214342,-6.245901639344257,1.0495867768595042,-24.488789237668172,-6.474509803921567,-16.163636363636364,-21.73873873873873,-2.490196078431371,-10.849246231155776,11.187575608719467,76.88304770747185,53.56308026222359,4865.540484935653,74.65683065055721,383.8004535012532,0
-21.244916820702404,-87.35019615940533,52.09412780656304,84.5261679857033,-104.224924012158,48.935310696550815,-64.150512214342,-4.857923497267754,0.0,-21.071748878923778,-1.4941176470588218,-9.236363636363636,-18.306306306306297,0.4980392156862763,-7.02010050251256,7.810574960514891,64.53869675479936,53.56308026222359,4865.540484935653,74.65683065055721,383.8004535012532,0
-21.988293284041898,-87.48131323559778,60.97754749568221,84.3964768955833,-104.224924012158,50.29888605556303,-62.70937746256894,-4.857923497267754,0.0,-21.071748878923778,-1.4941176470588218,-9.236363636363636,-18.306306306306297,0.4980392156862763,-7.02010050251256,7.810574960514891,64.53869675479936,56.8157180051073,5535.449954715169,77.6184458756211,210.06867797975804,0
-21.988293284041898,-87.48131323559778,60.97754749568221,84.3964768955833,-104.224924012158,50.29888605556303,-62.70937746256894,-7.6338797814207595,-2.0991735537190084,-32.461883408071756,-3.48627450980392,9.236363636363636,-16.018018018018008,8.466666666666669,-9.572864321608037,11.121890486958975,92.03579152350763,56.8157180051073,5535.449954715169,77.6184458756211,210.06867797975804,0
-21.988293284041898,-87.48131323559778,60.97754749568221,84.3964768955833,-104.224924012158,50.29888605556303,-62.70937746256894,-10.409836065573765,-5.247933884297521,-15.376681614349787,-0.49803921568627274,-10.39090909090909,-17.162162162162154,12.450980392156865,-8.296482412060298,9.979128104649469,28.900175802695912,56.8157180051073,5535.449954715169,77.6184458756211,210.06867797975804,0
-23.631546518792362,-87.11418542225894,63.280656303972364,84.13709471534332,-103.71023302938193,51.86699771842707,-61.34830575256106,-10.409836065573765,-5.247933884297521,-15.376681614349787,-0.49803921568627274,-10.39090909090909,-17.162162162162154,12.450980392156865,-8.296482412060298,9.979128104649469,28.900175802695912,58.008796081674554,5700.397476585247,78.17731214719154,168.6485337527879,0
-23.631546518792362,-87.11418542225894,63.280656303972364,84.13709471534332,-103.71023302938193,51.86699771842707,-61.34830575256106,-21.513661202185787,-15.743801652892563,-25.62780269058297,8.466666666666669,2.309090909090909,-13.72972972972972,4.482352941176472,-12.125628140703515,12.999841741628575,64.02375235922975,58.008796081674554,5700.397476585247,78.17731214719154,168.6485337527879,0
-17.841035120147875,-80.66322527359075,39.810880829015545,62.673219300485016,-96.24721377912874,54.014628908871316,-37.1692671394799,-21.513661202185787,-15.743801652892563,-25.62780269058297,8.466666666666669,2.309090909090909,-13.72972972972972,4.482352941176472,-12.125628140703515,12.999841741628575,64.02375235922975,46.10504707425139,3630.730204917796,61.0491084676971,419.206813652438,0
-17.841035120147875,-80.66322527359075,39.810880829015545,62.673219300485016,-96.24721377912874,54.014628908871316,-37.1692671394799,-6.245901639344257,-1.0495867768595042,-21.071748878923778,-4.482352941176469,28.863636363636363,-8.009009009008999,2.4901960784313744,-8.296482412060298,10.063614262430132,95.185539796229,46.10504707425139,3630.730204917796,61.0491084676971,419.206813652438,0
-17.841035120147875,-80.66322527359075,39.810880829015545,62.673219300485016,-96.24721377912874,54.014628908871316,-37.1692671394799,-14.573770491803273,-11.545454545454547,-19.93273542600898,4.482352941176472,-2.309090909090909,-34.324324324324316,2.4901960784313744,-18.507537688442206,13.520682800591509,118.97828546482326,46.10504707425139,3630.730204917796,61.0491084676971,419.206813652438,0
-17.175908810844117,-80.7943423497832,42.66234887737478,62.543528210365025,-96.50455927051667,53.77600322104418,-37.129235618597306,-14.573770491803273,-11.545454545454547,-19.93273542600898,4.482352941176472,-2.309090909090909,-34.324324324324316,2.4901960784313744,-18.507537688442206,13.520682800591509,118.97828546482326,46.877533346000696,3811.579462977987,62.00007314584101,363.73373910031705,0
-17.175908810844117,-80.7943423497832,42.66234887737478,62.543528210365025,-96.50455927051667,53.77600322104418,-37.129235618597306,-10.409836065573765,-2.0991735537190084,-18.793721973094183,-2.490196078431371,6.927272727272728,-16.018018018018008,-2.490196078431371,-12.125628140703515,8.919255329405495,41.93532808027818,46.877533346000696,3811.579462977987,62.00007314584101,363.73373910031705,0
-17.175908810844117,-80.7943423497832,42.66234887737478,62.543528210365025,-96.50455927051667,53.77600322104418,-37.129235618597306,-17.349726775956277,-6.297520661157025,-13.09865470852019,8.466666666666669,9.236363636363636,-18.306306306306297,0.4980392156862763,-12.125628140703515,10.672363263919985,34.349492695628314,46.877533346000696,3811.579462977987,62.00007314584101,363.73373910031705,0
-17.019408502772645,-80.7943423497832,45.18480138169257,62.47868266530497,-96.37588652482259,53.63964568514295,-37.1692671394799,-17.349726775956277,-6.297520661157025,-13.09865470852019,8.466666666666669,9.236363636363636,-18.306306306306297,0.4980392156862763,-12.125628140703515,10.672363263919985,34.349492695628314,47.66618407808281,3967.8917616428344,62.819275465593584,317.0968545812374,0
-17.019408502772645,-80.7943423497832,45.18480138169257,62.47868266530497,-96.37588652482259,53.63964568514295,-37.1692671394799,-2.0819672131147486,4.198347107438017,-21.071748878923778,12.450980392156865,17.318181818181817,-4.576576576576567,5.4784313725490215,-5.743718592964822,9.114993993988204,48.60132622822308,47.66618407808281,3967.8917616428344,62.819275465593584,317.0968545812374,0
-17.019408502772645,-80.7943423497832,45.18480138169257,62.47868266530497,-96.37588652482259,53.63964568514295,-37.1692671394799,6.245901639344268,5.247933884297521,-38.15695067264575,-14.44313725490196,-4.618181818181818,-33.18018018018017,-5.478431372549018,-5.743718592964822,14.139304426883166,188.14360457232306,47.66618407808281,3967.8917616428344,62.819275465593584,317.0968545812374,0
-15.689155884165128,-80.00763989262855,42.66234887737478,62.673219300485016,-96.89057750759889,53.2646624614146,-37.4094562647754,6.245901639344268,5.247933884297521,-38.15695067264575,-14.44313725490196,-4.618181818181818,-33.18018018018017,-5.478431372549018,-5.743718592964822,14.139304426883166,188.14360457232306,46.11971488472282,3764.948606319287,61.78106935682945,349.2646388949719,0
-15.689155884165128,-80.00763989262855,42.66234887737478,62.673219300485016,-96.89057750759889,53.2646624614146,-37.4094562647754,-10.409836065573765,1.0495867768595042,-10.820627802690595,-6.474509803921567,-31.172727272727272,-28.603603603603595,2.4901960784313744,-10.849246231155776,12.73379170437043,126.44117974608172,46.11971488472282,3764.948606319287,61.78106935682945,349.2646388949719,0
-15.689155884165128,-80.00763989262855,42.66234887737478,62.673219300485016,-96.89057750759889,53.2646624614146,-37.4094562647754,-13.185792349726771,-4.198347107438017,-7.403587443946201,6.4745098039215705,10.39090909090909,-13.72972972972972,3.4862745098039234,-12.125628140703515,8.874347272022352,16.264677783081016,46.11971488472282,3764.948606319287,61.78106935682945,349.2646388949719,0
-14.006777572396796,-80.3485442907289,44.63644214162349,63.38652029614491,-97.91995947315104,52.99194738961215,-37.689676910953494,-13.185792349726771,-4.198347107438017,-7.403587443946201,6.4745098039215705,10.39090909090909,-13.72972972972972,3.4862745098039234,-12.125628140703515,8.874347272022352,16.264677783081016,46.33058800158307,3910.250677205294,62.79050224283244,319.1049881169405,0
-14.006777572396796,-80.3485442907289,44.63644214162349,63.38652029614491,-97.91995947315104,52.99194738961215,-37.689676910953494,-6.245901639344257,-5.247933884297521,-18.793721973094183,-0.49803921568627274,5.7727272727272725,-18.306306306306297,0.4980392156862763,-8.296482412060298,7.9573939899002974,50.13829533431731,46.33058800158307,3910.250677205294,62.79050224283244,319.1049881169405,0
-14.006777572396796,-80.3485442907289,44.63644214162349,63.38652029614491,-97.91995947315104,52.99194738961215,-37.689676910953494,-7.6338797814207595,0.0,-17.654708520179383,-6.474509803921567,-10.39090909090909,-14.873873873873865,-0.49803921568627274,-10.849246231155776,8.546895814643339,39.23514410226671,46.33058800158307,3910.250677205294,62.79050224283244,319.1049881169405,0
-13.380776340110907,-80.7943423497832,44.30742659758204,64.09982129180491,-99.07801418439726,52.6851429338344,-37.88983451536643,-7.6338797814207595,0.0,-17.654708520179383,-6.474509803921567,-10.39090909090909,-14.873873873873865,-0.49803921568627274,-10.849246231155776,8.546895814643339,39.23514410226671,46.16084842915871,3920.4950390134736,63.067196746390046,333.62349036590115,0
-13.380776340110907,-80.7943423497832,44.30742659758204,64.09982129180491,-99.07801418439726,52.6851429338344,-37.88983451536643,-15.961748633879775,-10.495867768595042,-27.905829596412566,0.4980392156862763,4.618181818181818,-21.73873873873873,-0.49803921568627274,-13.402010050251253,11.889806879678966,98.1066069724577,46.16084842915871,3920.4950390134736,63.067196746390046,333.62349036590115,0
-13.380776340110907,-80.7943423497832,44.30742659758204,64.09982129180491,-99.07801418439726,52.6851429338344,-37.88983451536643,-10.409836065573765,0.0,-15.376681614349787,-0.49803921568627274,-9.236363636363636,-18.306306306306297,-1.4941176470588218,-9.572864321608037,8.111776100868326,47.5644511461764,46.16084842915871,3920.4950390134736,63.067196746390046,333.62349036590115,0
-14.202402957486138,-80.53210819739832,44.19775474956822,64.61858565228488,-99.85005065856126,52.37833847805666,-38.170055161544525,-10.409836065573765,0.0,-15.376681614349787,-0.49803921568627274,-9.236363636363636,-18.306306306306297,-1.4941176470588218,-9.572864321608037,8.111776100868326,47.5644511461764,46.31075530148422,3894.624488031918,63.11614953308381,331.73929583717074,0
-14.202402957486138,-80.53210819739832,44.19775474956822,64.61858565228488,-99.85005065856126,52.37833847805666,-38.170055161544525,-13.185792349726771,-15.743801652892563,-44.99103139013454,-6.474509803921567,0.0,-21.73873873873873,-2.490196078431371,-13.402010050251253,14.753260008012097,200.70897972286008,46.31075530148422,3894.624488031918,63.11614953308381,331.73929583717074,0
-14.202402957486138,-80.53210819739832,44.19775474956822,64.61858565228488,-99.85005065856126,52.37833847805666,-38.170055161544525,-2.0819672131147486,1.0495867768595042,-34.739910313901355,0.4980392156862763,-3.463636363636364,-19.45045045045044,4.482352941176472,-5.743718592964822,8.938707733473748,145.24860782151174,46.31075530148422,3894.624488031918,63.11614953308381,331.73929583717074,0
-14.593653727664819,-80.61077844311377,44.96545768566494,65.13735001276484,-100.62208713272548,52.17380217420482,-38.410244286840026,-2.0819672131147486,1.0495867768595042,-34.739910313901355,0.4980392156862763,-3.463636363636364,-19.45045045045044,4.482352941176472,-5.743718592964822,8.938707733473748,145.24860782151174,46.72329661881451,3945.8232647185596,63.57119538051452,319.4868532244426,0
-14.593653727664819,-80.61077844311377,44.96545768566494,65.13735001276484,-100.62208713272548,52.17380217420482,-38.410244286840026,-10.409836065573765,6.297520661157025,7.403587443946176,5.4784313725490215,15.00909090909091,-11.441441441441432,-0.49803921568627274,-10.849246231155776,8.423399167575047,19.9077316375961,46.72329661881451,3945.8232647185596,63.57119538051452,319.4868532244426,0
-14.593653727664819,-80.61077844311377,44.96545768566494,65.13735001276484,-100.62208713272548,52.17380217420482,-38.410244286840026,-18.737704918032783,-9.446280991735538,-21.071748878923778,-4.482352941176469,-45.027272727272724,-30.891891891891884,9.462745098039218,-12.125628140703515,18.90570319847199,180.48252399424297,46.72329661881451,3945.8232647185596,63.57119538051452,319.4868532244426,0
-15.102279728897106,-81.21391699359901,47.597582037996546,65.46157773806476,-100.8794326241134,52.07153402227891,-38.57037037037037,-18.737704918032783,-9.446280991735538,-21.071748878923778,-4.482352941176469,-45.027272727272724,-30.891891891891884,9.462745098039218,-12.125628140703515,18.90570319847199,180.48252399424297,47.97125958683089,4149.070588362307,64.75769225655344,282.88608504012694,0
-15.102279728897106,-81.21391699359901,47.597582037996546,65.46157773806476,-100.8794326241134,52.07153402227891,-38.57037037037037,3.4699453551912622,32.53719008264463,30.183856502242136,1.4941176470588253,1.1545454545454545,-11.441441441441432,8.466666666666669,-9.572864321608037,12.290078433924805,153.02890715229654,47.97125958683089,4149.070588362307,64.75769225655344,282.88608504012694,0
-15.102279728897106,-81.21391699359901,47.597582037996546,65.46157773806476,-100.8794326241134,52.07153402227891,-38.57037037037037,-3.4699453551912516,-7.347107438016529,-17.654708520179383,-2.490196078431371,0.0,-24.027027027027017,-19.423529411764704,-12.125628140703515,10.81726774641422,78.48663518688423,47.97125958683089,4149.070588362307,64.75769225655344,282.88608504012694,0
-15.963031423290204,-81.21391699359901,46.17184801381693,65.46157773806476,-101.00810536980748,52.07153402227891,-38.57037037037037,-3.4699453551912516,-7.347107438016529,-17.654708520179383,-2.490196078431371,0.0,-24.027027027027017,-19.423529411764704,-12.125628140703515,10.81726774641422,78.48663518688423,47.78293214356872,4057.5924061496617,64.2824475818269,308.02941053996364,0
-15.963031423290204,-81.21391699359901,46.17184801381693,65.46157773806476,-101.00810536980748,52.07153402227891,-38.57037037037037,-7.6338797814207595,4.198347107438017,-26.76681614349777,-2.490196078431371,16.163636363636364,-18.306306306306297,0.4980392156862763,-9.572864321608037,10.703760664753112,81.46765549007041,47.78293214356872,4057.5924061496617,64.2824475818269,308.02941053996364,0
-15.963031423290204,-81.21391699359901,46.17184801381693,65.46157773806476,-101.00810536980748,52.07153402227891,-38.57037037037037,-14.573770491803273,8.396694214876034,-2.847533632287007,3.4862745098039234,8.081818181818182,-18.306306306306297,9.462745098039218,-9.572864321608037,9.341000844567747,26.678193631362554,47.78293214356872,4057.5924061496617,64.2824475818269,308.02941053996364,0
-16.31515711645102,-81.52859797646087,46.939550949913645,65.46157773806476,-101.00810536980748,52.10562340625421,-38.57037037037037,-14.573770491803273,8.396694214876034,-2.847533632287007,3.4862745098039234,8.081818181818182,-18.306306306306297,9.462745098039218,-9.572864321608037,9.341000844567747,26.678193631362554,48.261102014275174,4126.336041655361,64.64324222147975,299.60279831445223,0
-16.31515711645102,-81.52859797646087,46.939550949913645,65.46157773806476,-101.00810536980748,52.10562340625421,-38.57037037037037,-2.0819672131147486,13.644628099173554,2.847533632286982,3.4862745098039234,-12.7,-16.018018018018008,-10.458823529411763,-8.296482412060298,8.691715926733659,28.92730377660335,48.261102014275174,4126.336041655361,64.64324222147975,299.60279831445223,0
-16.31515711645102,-81.52859797646087,46.939550949913645,65.46157773806476,-101.00810536980748,52.10562340625421,-38.57037037037037,-11.797814207650267,-18.892561983471076,-60.93721973094171,-0.49803921568627274,-4.618181818181818,-9.153153153153143,-6.474509803921567,-10.849246231155776,15.402590768020204,368.07498971062023,48.261102014275174,4126.336041655361,64.64324222147975,299.60279831445223,0
-15.767406038200864,-81.84327895932275,45.18480138169257,65.72095991830474,-101.39412360688948,52.0374446383036,-38.490307328605184,-11.797814207650267,-18.892561983471076,-60.93721973094171,-0.49803921568627274,-4.618181818181818,-9.153153153153143,-6.474509803921567,-10.849246231155776,15.402590768020204,368.07498971062023,47.59849545973873,4036.220961128234,64.24968008644002,337.58449283514244,0
-15.767406038200864,-81.84327895932275,45.18480138169257,65.72095991830474,-101.39412360688948,52.0374446383036,-38.490307328605184,-7.6338797814207595,4.198347107438017,-6.264573991031401,4.482352941176472,-24.245454545454546,-4.576576576576567,31.376470588235296,-8.296482412060298,11.384267242924171,108.64684787550861,47.59849545973873,4036.220961128234,64.24968008644002,337.58449283514244,0
-15.767406038200864,-81.84327895932275,45.18480138169257,65.72095991830474,-101.39412360688948,52.0374446383036,-38.490307328605184,-13.185792349726771,8.396694214876034,-17.654708520179383,-13.44705882352941,-83.12727272727273,-37.756756756756744,-22.41176470588235,-18.507537688442206,26.810948223333202,595.2569229820555,47.59849545973873,4036.220961128234,64.24968008644002,337.58449283514244,0
-14.750154035736292,-83.3117902126781,47.48791018998273,66.43426091396475,-102.5521783181357,52.20789155818014,-38.21008668242709,-13.185792349726771,8.396694214876034,-17.654708520179383,-13.44705882352941,-83.12727272727273,-37.756756756756744,-22.41176470588235,-18.507537688442206,26.810948223333202,595.2569229820555,48.51661814613237,4280.472703208316,65.74465377220852,321.1942634775892,0
-14.750154035736292,-83.3117902126781,47.48791018998273,66.43426091396475,-102.5521783181357,52.20789155818014,-38.21008668242709,-25.677595628415293,-23.090909090909093,-25.62780269058297,1.4941176470588253,12.7,-35.46846846846846,-10.458823529411763,-15.954773869346731,18.809061365524144,114.93477098791845,48.51661814613237,4280.472703208316,65.74465377220852,321.1942634775892,0
-14.750154035736292,-83.3117902126781,47.48791018998273,66.43426091396475,-102.5521783181357,52.20789155818014,-38.21008668242709,-6.245901639344257,3.1487603305785123,-11.959641255605392,6.4745098039215705,-1.1545454545454545,-19.45045045045044,4.482352941176472,-7.02010050251256,7.492032797266832,33.408589782251134,48.51661814613237,4280.472703208316,65.74465377220852,321.1942634775892,0
-16.197781885397415,-84.30827999174066,45.29447322970639,66.88817972938466,-103.452887537994,52.480606629982574,-37.569582348305744,-6.245901639344257,3.1487603305785123,-11.959641255605392,6.4745098039215705,-1.1545454545454545,-19.45045045045044,4.482352941176472,-7.02010050251256,7.492032797266832,33.408589782251134,48.60017836894816,4202.868505669084,65.49697765027724,381.97086193502236,0
-16.197781885397415,-84.30827999174066,45.29447322970639,66.88817972938466,-103.452887537994,52.480606629982574,-37.569582348305744,-6.245901639344257,-1.0495867768595042,-15.376681614349787,2.4901960784313744,20.78181818181818,-20.594594594594586,-7.470588235294116,-4.4673366834170825,9.80958797551361,63.531468965154524,48.60017836894816,4202.868505669084,65.49697765027724,381.97086193502236,0
-16.197781885397415,-84.30827999174066,45.29447322970639,66.88817972938466,-103.452887537994,52.480606629982574,-37.569582348305744,-0.6939890710382457,35.68595041322314,67.77130044843048,-3.48627450980392,-4.618181818181818,-6.864864864864854,14.443137254901963,-9.572864321608037,17.892070337756557,526.6800603410791,48.60017836894816,4202.868505669084,65.49697765027724,381.97086193502236,0
-18.271410967344426,-85.12120586413381,44.52677029360967,66.95302527444471,-103.96757852077008,52.88967923768624,-36.56879432624112,-0.6939890710382457,35.68595041322314,67.77130044843048,-3.48627450980392,-4.618181818181818,-6.864864864864854,14.443137254901963,-9.572864321608037,17.892070337756557,526.6800603410791,49.3064623750293,4203.51739487088,65.53366714406273,413.48798294907,0
-18.271410967344426,-85.12120586413381,44.52677029360967,66.95302527444471,-103.96757852077008,52.88967923768624,-36.56879432624112,-7.6338797814207595,22.041322314049587,33.60089686098653,-0.49803921568627274,-13.854545454545455,-6.864864864864854,-1.4941176470588218,-14.678391959798992,12.583257262301409,123.3456847987997,49.3064623750293,4203.51739487088,65.53366714406273,413.48798294907,0
-18.271410967344426,-85.12120586413381,44.52677029360967,66.95302527444471,-103.96757852077008,52.88967923768624,-36.56879432624112,-17.349726775956277,-1.0495867768595042,-19.93273542600898,-7.470588235294116,30.01818181818182,-14.873873873873865,-0.49803921568627274,-14.678391959798992,13.233890510207477,98.88257353271236,49.3064623750293,4203.51739487088,65.53366714406273,413.48798294907,0
-19.601663585951943,-86.98306834606649,45.62348877374784,66.88817972938466,-104.35359675785207,53.60555630116765,-35.20772261623324,-17.349726775956277,-1.0495867768595042,-19.93273542600898,-7.470588235294116,30.01818181818182,-14.873873873873865,-0.49803921568627274,-14.678391959798992,13.233890510207477,98.88257353271236,50.73607356858876,4396.51219982717,66.49824561639967,427.7677420590916,0
-19.601663585951943,-86.98306834606649,45.62348877374784,66.88817972938466,-104.35359675785207,53.60555630116765,-35.20772261623324,15.961748633879786,15.743801652892563,-42.713004484304946,-8.466666666666665,-3.463636363636364,-16.018018018018008,0.4980392156862763,5.743718592964827,13.576079203506179,175.15178836558366,50.73607356858876,4396.51219982717,66.49824561639967,427.7677420590916,0
-19.601663585951943,-86.98306834606649,45.62348877374784,66.88817972938466,-104.35359675785207,53.60555630116765,-35.20772261623324,-22.90163934426229,-28.338842975206614,-32.461883408071756,19.423529411764708,61.19090909090909,-8.009009009008999,-4.482352941176469,-15.954773869346731,24.09536750621833,313.8637815355408,50.73607356858876,4396.51219982717,66.49824561639967,427.7677420590916,0
-22.536044362292053,-90.02498451373117,47.26856649395509,66.30456982384476,-103.71023302938193,55.00322104415517,-33.44633569739952,-22.90163934426229,-28.338842975206614,-32.461883408071756,19.423529411764708,61.19090909090909,-8.009009009008999,-4.482352941176469,-15.954773869346731,24.09536750621833,313.8637815355408,53.27653178999277,4712.82664797613,67.866040277177,458.8564629529303,0
-22.536044362292053,-90.02498451373117,47.26856649395509,66.30456982384476,-103.71023302938193,55.00322104415517,-33.44633569739952,-15.961748633879775,-16.793388429752067,-59.79820627802692,-12.450980392156861,-2.309090909090909,-45.76576576576576,-15.439215686274508,-22.336683417085425,23.85688493900403,364.5105790416851,53.27653178999277,4712.82664797613,67.866040277177,458.8564629529303,0
-22.536044362292053,-90.02498451373117,47.26856649395509,66.30456982384476,-103.71023302938193,55.00322104415517,-33.44633569739952,2.08196721311476,37.78512396694215,25.627802690582946,9.462745098039218,3.463636363636364,-22.882882882882875,1.4941176470588253,0.6381909547738722,12.929558352128877,197.0361348417126,53.27653178999277,4712.82664797613,67.866040277177,458.8564629529303,0
-24.883548983364143,-93.93227338426595,38.82383419689119,65.26704110288483,-103.06686930091178,56.60542209099452,-30.604097714736014,2.08196721311476,37.78512396694215,25.627802690582946,9.462745098039218,3.463636363636364,-22.882882882882875,1.4941176470588253,0.6381909547738722,12.929558352128877,197.0361348417126,52.54655218817376,4408.423518861224,66.00771622801399,759.6464671478844,0
-24.883548983364143,-93.93227338426595,38.82383419689119,65.26704110288483,-103.06686930091178,56.60542209099452,-30.604097714736014,-14.573770491803273,-50.3801652892562,-98.52466367713005,-8.466666666666665,-12.7,-19.45045045045044,-4.482352941176469,-15.954773869346731,28.066605423228726,1005.9616054325081,52.54655218817376,4408.423518861224,66.00771622801399,759.6464671478844,0
-24.883548983364143,-93.93227338426595,38.82383419689119,65.26704110288483,-103.06686930091178,56.60542209099452,-30.604097714736014,-15.961748633879775,20.991735537190085,42.71300448430492,-0.49803921568627274,3.463636363636364,-14.873873873873865,-4.482352941176469,-27.442211055276378,16.303325263128016,200.01245639076257,52.54655218817376,4408.423518861224,66.00771622801399,759.6464671478844,0
-28.013555144793592,-97.9444559157547,26.75993091537133,64.03497574674486,-102.68085106382978,58.54851697758693,-26.60094562647754,-15.961748633879775,20.991735537190085,42.71300448430492,-0.49803921568627274,3.463636363636364,-14.873873873873865,-4.482352941176469,-27.442211055276378,16.303325263128016,200.01245639076257,50.90598065863988,3906.9416254580347,62.9131208592903,1267.7530686739306,0
-28.013555144793592,-97.9444559157547,26.75993091537133,64.03497574674486,-102.68085106382978,58.54851697758693,-26.60094562647754,63.153005464480884,70.32231404958678,6.2645739910313765,-6.474509803921567,19.62727272727273,-12.585585585585576,19.423529411764708,12.125628140703519,26.247052396793393,653.051884667808,50.90598065863988,3906.9416254580347,62.9131208592903,1267.7530686739306,0
-28.013555144793592,-97.9444559157547,26.75993091537133,64.03497574674486,-102.68085106382978,58.54851697758693,-26.60094562647754,-14.573770491803273,-4.198347107438017,-18.793721973094183,5.4784313725490215,24.245454545454546,-20.594594594594586,-0.49803921568627274,-1.9145728643216051,11.287116520617687,87.13416154750578,50.90598065863988,3906.9416254580347,62.9131208592903,1267.7530686739306,0
-25.196549599507087,-105.73281024158581,33.23056994818653,65.26704110288483,-104.99696048632222,61.889276607166835,-21.436879432624096,-14.573770491803273,-4.198347107438017,-18.793721973094183,5.4784313725490215,24.245454545454546,-20.594594594594586,-0.49803921568627274,-1.9145728643216051,11.287116520617687,87.13416154750578,54.71997659642648,4868.439768436087,68.07680709755239,1320.0648005990452,0
-25.196549599507087,-105.73281024158581,33.23056994818653,65.26704110288483,-104.99696048632222,61.889276607166835,-21.436879432624096,-71.48087431693989,-69.27272727272728,76.88340807174886,16.43529411764706,50.8,5.720720720720731,-11.454901960784312,-36.37688442211055,42.303101360334836,834.4062190727973,54.71997659642648,4868.439768436087,68.07680709755239,1320.0648005990452,0
-25.196549599507087,-105.73281024158581,33.23056994818653,65.26704110288483,-104.99696048632222,61.889276607166835,-21.436879432624096,-13.185792349726771,-2.0991735537190084,-27.905829596412566,-12.450980392156861,-23.09090909090909,-29.747747747747738,4.482352941176472,-5.743718592964822,14.838313033101667,117.4042840306886,54.71997659642648,4868.439768436087,68.07680709755239,1320.0648005990452,0
-30.674060382008626,-111.76419574643816,22.482728842832472,64.87796783252486,-105.8976697061803,65.50275130854922,-14.351300236406615,-13.185792349726771,-2.0991735537190084,-27.905829596412566,-12.450980392156861,-23.09090909090909,-29.747747747747738,4.482352941176472,-5.743718592964822,14.838313033101667,117.4042840306886,54.97366165709309,4570.5818426321675,66.3749641405985,1994.475831574699,0
-30.674060382008626,-111.76419574643816,22.482728842832472,64.87796783252486,-105.8976697061803,65.50275130854922,-14.351300236406615,35.39344262295082,66.12396694214877,0.5695067264573872,1.4941176470588253,-36.945454545454545,-41.18918918918918,12.450980392156865,5.743718592964827,24.98879708229765,554.5206867139083,54.97366165709309,4570.5818426321675,66.3749641405985,1994.475831574699,0
-30.674060382008626,-111.76419574643816,22.482728842832472,64.87796783252486,-105.8976697061803,65.50275130854922,-14.351300236406615,-3.4699453551912516,-23.090909090909093,-63.21524663677131,-3.48627450980392,6.927272727272728,-13.72972972972972,2.4901960784313744,-10.849246231155776,15.907352544908147,412.8001438567049,54.97366165709309,4570.5818426321675,66.3749641405985,1994.475831574699,0
-34.82131854590265,-116.11728267602726,7.786701208981,63.970130201684924,-107.05572441742652,69.08213662595628,-5.464302600472806,-3.4699453551912516,-23.090909090909093,-63.21524663677131,-3.48627450980392,6.927272727272728,-13.72972972972972,2.4901960784313744,-10.849246231155776,15.907352544908147,412.8001438567049,52.908434143636974,3962.779058975909,62.62470469556439,2935.2363475914763,0
-34.82131854590265,-116.11728267602726,7.786701208981,63.970130201684924,-107.05572441742652,69.08213662595628,-5.464302600472806,-22.90163934426229,-3.1487603305785123,-23.349775784753376,-0.49803921568627274,-5.7727272727272725,-13.72972972972972,-7.470588235294116,-14.678391959798992,11.443706484103819,75.04103450023794,52.908434143636974,3962.779058975909,62.62470469556439,2935.2363475914763,0
-34.82131854590265,-116.11728267602726,7.786701208981,63.970130201684924,-107.05572441742652,69.08213662595628,-5.464302600472806,10.409836065573774,4.198347107438017,-43.85201793721974,6.4745098039215705,-10.39090909090909,-24.027027027027017,6.4745098039215705,-1.9145728643216051,13.467716212541548,195.81834368691912,52.908434143636974,3962.779058975909,62.62470469556439,2935.2363475914763,0
-33.84319162045595,-115.8026016931654,-1.0967184801381649,62.34899157518498,-107.44174265450852,72.04791303180784,3.5027580772261757,10.409836065573774,4.198347107438017,-43.85201793721974,6.4745098039215705,-10.39090909090909,-24.027027027027017,6.4745098039215705,-1.9145728643216051,13.467716212541548,195.81834368691912,50.24750393125316,3491.186007712791,59.74943724949619,3294.428172939316,0
-33.84319162045595,-115.8026016931654,-1.0967184801381649,62.34899157518498,-107.44174265450852,72.04791303180784,3.5027580772261757,-21.513661202185787,-20.991735537190085,-40.43497757847535,7.4705882352941195,-18.472727272727273,-27.459459459459453,-3.48627450980392,-13.402010050251253,19.153929230673405,135.19074139896068,50.24750393125316,3491.186007712791,59.74943724949619,3294.428172939316,0
-33.84319162045595,-115.8026016931654,-1.0967184801381649,62.34899157518498,-107.44174265450852,72.04791303180784,3.5027580772261757,-22.90163934426229,-28.338842975206614,-46.13004484304933,-10.458823529411763,10.39090909090909,-13.72972972972972,2.4901960784313744,-10.849246231155776,18.161178977769495,192.38563546411862,50.24750393125316,3491.186007712791,59.74943724949619,3294.428172939316,0
-29.578558225508317,-109.16807763782779,0.6580310880829003,60.0793974980852,-107.05572441742652,73.75238223057309,11.148778565799844,-22.90163934426229,-28.338842975206614,-46.13004484304933,-10.458823529411763,10.39090909090909,-13.72972972972972,2.4901960784313744,-10.849246231155776,18.161178977769495,192.38563546411862,46.46822231713967,3218.4195152463853,56.63516874133197,2952.5045843535854,0
-29.578558225508317,-109.16807763782779,0.6580310880829003,60.0793974980852,-107.05572441742652,73.75238223057309,11.148778565799844,-15.961748633879775,-10.495867768595042,-34.739910313901355,-4.482352941176469,-13.854545454545455,-24.027027027027017,-2.490196078431371,-12.125628140703515,14.7721595447825,109.80547529533105,46.46822231713967,3218.4195152463853,56.63516874133197,2952.5045843535854,0
-29.578558225508317,-109.16807763782779,0.6580310880829003,60.0793974980852,-107.05572441742652,73.75238223057309,11.148778565799844,-21.513661202185787,3.1487603305785123,-15.376681614349787,-0.49803921568627274,1.1545454545454545,-19.45045045045044,-3.48627450980392,-14.678391959798992,9.913350592174897,75.78697559707825,46.46822231713967,3218.4195152463853,56.63516874133197,2952.5045843535854,0
-19.992914356130623,-101.03881891389635,11.405872193436963,58.847332141945344,-108.21377912867274,74.22963360622737,16.953349093774634,-21.513661202185787,3.1487603305785123,-15.376681614349787,-0.49803921568627274,1.1545454545454545,-19.45045045045044,-3.48627450980392,-14.678391959798992,9.913350592174897,75.78697559707825,44.14586848782131,3366.3551667658967,57.097341083092886,2010.8131359777256,0
-19.992914356130623,-101.03881891389635,11.405872193436963,58.847332141945344,-108.21377912867274,74.22963360622737,16.953349093774634,-9.021857923497262,18.892561983471076,-44.99103139013454,-6.474509803921567,-4.618181818181818,-16.018018018018008,-1.4941176470588218,-8.296482412060298,13.725845124542921,192.31613126641682,44.14586848782131,3366.3551667658967,57.097341083092886,2010.8131359777256,0
-19.992914356130623,-101.03881891389635,11.405872193436963,58.847332141945344,-108.21377912867274,74.22963360622737,16.953349093774634,67.31693989071039,20.991735537190085,-18.793721973094183,-0.49803921568627274,-2.309090909090909,-20.594594594594586,0.4980392156862763,-1.9145728643216051,16.614591775046787,507.24299523126547,44.14586848782131,3366.3551667658967,57.097341083092886,2010.8131359777256,0
-9.037892791127543,-93.87982655378899,30.598445595854923,58.91217768700528,-110.91590678824718,73.88873976647432,20.756343577620186,67.31693989071039,20.991735537190085,-18.793721973094183,-0.49803921568627274,-2.309090909090909,-20.594594594594586,0.4980392156862763,-1.9145728643216051,16.614591775046787,507.24299523126547,44.50538831359049,4044.0055471126707,61.130149945549725,1004.8228446905496,0
-9.037892791127543,-93.87982655378899,30.598445595854923,58.91217768700528,-110.91590678824718,73.88873976647432,20.756343577620186,-2.0819672131147486,-24.140495867768596,-26.76681614349777,6.4745098039215705,2.309090909090909,-10.297297297297288,-1.4941176470588218,-12.125628140703515,10.711240377806652,98.32342374787541,44.50538831359049,4044.0055471126707,61.130149945549725,1004.8228446905496,0
-9.037892791127543,-93.87982655378899,30.598445595854923,58.91217768700528,-110.91590678824718,73.88873976647432,20.756343577620186,-38.16939890710382,-11.545454545454547,-23.349775784753376,-0.49803921568627274,-13.854545454545455,-19.45045045045044,1.4941176470588253,-15.954773869346731,15.539569484299932,147.27007100472028,44.50538831359049,4044.0055471126707,61.130149945549725,1004.8228446905496,0
-5.047134935304992,-91.1001445385092,46.61053540587219,58.39341332652532,-112.97467071935148,73.10468393504229,24.1189913317573,-38.16939890710382,-11.545454545454547,-23.349775784753376,-0.49803921568627274,-13.854545454545455,-19.45045045045044,1.4941176470588253,-15.954773869346731,15.539569484299932,147.27007100472028,47.58593829322879,4839.644456265123,65.36803109030224,531.3152999067988,0
-5.047134935304992,-91.1001445385092,46.61053540587219,58.39341332652532,-112.97467071935148,73.10468393504229,24.1189913317573,-32.617486338797804,-13.644628099173554,-15.376681614349787,1.4941176470588253,-2.309090909090909,-33.18018018018017,-7.470588235294116,-21.060301507537687,15.894134316435357,153.33788806757508,47.58593829322879,4839.644456265123,65.36803109030224,531.3152999067988,0
-5.047134935304992,-91.1001445385092,46.61053540587219,58.39341332652532,-112.97467071935148,73.10468393504229,24.1189913317573,7.63387978142077,16.793388429752067,-29.044843049327365,5.4784313725490215,21.936363636363637,-13.72972972972972,15.439215686274512,3.1909547738693504,14.155850807410806,75.58090547064361,47.58593829322879,4839.644456265123,65.36803109030224,531.3152999067988,0
-10.837646333949477,-94.7714226718976,40.57858376511226,56.57773806484545,-113.7467071935157,72.52516440746211,29.002836879432635,7.63387978142077,16.793388429752067,-29.044843049327365,5.4784313725490215,21.936363636363637,-13.72972972972972,15.439215686274512,3.1909547738693504,14.155850807410806,75.58090547064361,48.729217590319784,4668.021961741162,63.97591483395177,775.2657118244049,0
-10.837646333949477,-94.7714226718976,40.57858376511226,56.57773806484545,-113.7467071935157,72.52516440746211,29.002836879432635,-9.021857923497262,6.297520661157025,-21.071748878923778,-1.4941176470588218,-8.081818181818182,-22.882882882882875,-6.474509803921567,-23.613065326633162,12.367190163236584,76.02325434807501,48.729217590319784,4668.021961741162,63.97591483395177,775.2657118244049,0
-10.837646333949477,-94.7714226718976,40.57858376511226,56.57773806484545,-113.7467071935157,72.52516440746211,29.002836879432635,-58.98907103825136,-43.03305785123967,-33.60089686098656,-0.49803921568627274,-2.309090909090909,-16.018018018018008,-17.431372549019606,-32.54773869346734,25.553410641969965,408.8750520661161,48.729217590319784,4668.021961741162,63.97591483395177,775.2657118244049,0
-24.805298829328407,-102.27131943010531,25.443868739205527,52.88154199642577,-112.33130699088156,72.45698563951149,36.96910953506699,-58.98907103825136,-43.03305785123967,-33.60089686098656,-0.49803921568627274,-2.309090909090909,-16.018018018018008,-17.431372549019606,-32.54773869346734,25.553410641969965,408.8750520661161,50.84016233287974,4139.522079695512,60.198910055245534,1515.772201396836,0
-24.805298829328407,-102.27131943010531,25.443868739205527,52.88154199642577,-112.33130699088156,72.45698563951149,36.96910953506699,-17.349726775956277,14.694214876033058,-31.32286995515696,-8.466666666666665,-20.78181818181818,-28.603603603603595,14.443137254901963,-12.125628140703515,18.47345818185503,63.61078810661489,50.84016233287974,4139.522079695512,60.198910055245534,1515.772201396836,0
-24.805298829328407,-102.27131943010531,25.443868739205527,52.88154199642577,-112.33130699088156,72.45698563951149,36.96910953506699,17.349726775956288,22.041322314049587,-8.542600896860998,5.4784313725490215,12.7,-18.306306306306297,7.4705882352941195,1.9145728643216113,11.72544359566724,49.40286531885208,50.84016233287974,4139.522079695512,60.198910055245534,1515.772201396836,0
-36.46457178065312,-110.13834400165187,32.35319516407599,47.693898391626135,-107.31306990881467,73.99100791840024,46.896926713948,17.349726775956288,22.041322314049587,-8.542600896860998,5.4784313725490215,12.7,-18.306306306306297,7.4705882352941195,1.9145728643216113,11.72544359566724,49.40286531885208,59.652036982126994,5077.9247490581365,63.39514585245134,1697.5292237905105,0
-36.46457178065312,-110.13834400165187,32.35319516407599,47.693898391626135,-107.31306990881467,73.99100791840024,46.896926713948,-13.185792349726771,-47.231404958677686,-31.32286995515696,-5.478431372549018,-9.236363636363636,-12.585585585585576,2.4901960784313744,-14.678391959798992,17.02612948703625,223.15101272961198,59.652036982126994,5077.9247490581365,63.39514585245134,1697.5292237905105,0
-36.46457178065312,-110.13834400165187,32.35319516407599,47.693898391626135,-107.31306990881467,73.99100791840024,46.896926713948,4.857923497267764,9.446280991735538,-13.09865470852019,3.4862745098039234,3.463636363636364,-6.864864864864854,-11.454901960784312,-4.4673366834170825,7.142484197503753,14.104984109242107,59.652036982126994,5077.9247490581365,63.39514585245134,1697.5292237905105,0
-49.49322242760321,-116.85153830270494,43.97841105354059,41.72810824610667,-98.94934143870319,77.22949939605425,58.546099290780155,4.857923497267764,9.446280991735538,-13.09865470852019,3.4862745098039234,3.463636363636364,-6.864864864864854,-11.454901960784312,-4.4673366834170825,7.142484197503753,14.104984109242107,70.10772392794958,6523.393598849294,67.5193525341174,1826.5143802111095,0
-49.49322242760321,-116.85153830270494,43.97841105354059,41.72810824610667,-98.94934143870319,77.22949939605425,58.546099290780155,-93.68852459016392,-70.32231404958678,-52.96412556053813,-0.49803921568627274,10.39090909090909,-22.882882882882875,0.4980392156862763,-32.54773869346734,35.47407166236509,1164.5909582937463,70.10772392794958,6523.393598849294,67.5193525341174,1826.5143802111095,0
-49.49322242760321,-116.85153830270494,43.97841105354059,41.72810824610667,-98.94934143870319,77.22949939605425,58.546099290780155,40.94535519125684,17.84297520661157,-11.959641255605392,-7.470588235294116,-9.236363636363636,-21.73873873873873,-20.419607843137253,4.467336683417088,16.760075848803076,134.4765857899673,70.10772392794958,6523.393598849294,67.5193525341174,1826.5143802111095,0
-64.71287738755392,-119.001858352261,43.759067357512954,34.011488383967276,-85.05268490374874,81.76338746476986,69.99511426319938,40.94535519125684,17.84297520661157,-11.959641255605392,-7.470588235294116,-9.236363636363636,-21.73873873873873,-20.419607843137253,4.467336683417088,16.760075848803076,134.4765857899673,75.82460103244262,6867.4291981442875,65.59080469791374,2163.3093133120483,0
-64.71287738755392,-119.001858352261,43.759067357512954,34.011488383967276,-85.05268490374874,81.76338746476986,69.99511426319938,-11.797814207650267,2.0991735537190084,-14.23766816143499,-3.48627450980392,9.236363636363636,-14.873873873873865,-13.44705882352941,-23.613065326633162,11.598911511626032,46.732150092260326,75.82460103244262,6867.4291981442875,65.59080469791374,2163.3093133120483,0
-64.71287738755392,-119.001858352261,43.759067357512954,34.011488383967276,-85.05268490374874,81.76338746476986,69.99511426319938,-42.33333333333333,-20.991735537190085,-39.295964125560545,-8.466666666666665,-1.1545454545454545,-19.45045045045044,14.443137254901963,-13.402010050251253,19.942230359112465,204.9931406417117,75.82460103244262,6867.4291981442875,65.59080469791374,2163.3093133120483,0
-81.45841035120148,-121.38818913896347,71.61571675302245,24.47919326014801,-63.950354609929036,88.61535364380623,80.80362490149726,-42.33333333333333,-20.991735537190085,-39.295964125560545,-8.466666666666665,-1.1545454545454545,-19.45045045045044,14.443137254901963,-13.402010050251253,19.942230359112465,204.9931406417117,91.48743874772913,10379.43055205371,72.49436638404465,2348.4173894406395,0
-81.45841035120148,-121.38818913896347,71.61571675302245,24.47919326014801,-63.950354609929036,88.61535364380623,80.80362490149726,11.79781420765028,4.198347107438017,-10.820627802690595,-0.49803921568627274,-3.463636363636364,-26.315315315315306,3.4862745098039234,10.849246231155782,8.928662594172067,67.24761322841131,91.48743874772913,10379.43055205371,72.49436638404465,2348.4173894406395,0
-81.45841035120148,-121.38818913896347,71.61571675302245,24.47919326014801,-63.950354609929036,88.61535364380623,80.80362490149726,-6.245901639344257,0.0,6.2645739910313765,5.4784313725490215,-4.618181818181818,-30.891891891891884,-0.49803921568627274,-15.954773869346731,8.74397422475392,103.86459188348336,91.48743874772913,10379.43055205371,72.49436638404465,2348.4173894406395,0
-76.02002464571781,-127.0,67.66753022452504,17.670411028848548,-44.52077001013163,96.04683935042277,92.57289204097717,-6.245901639344257,0.0,6.2645739910313765,5.4784313725490215,-4.618181818181818,-30.891891891891884,-0.49803921568627274,-15.954773869346731,8.74397422475392,103.86459188348336,90.2291849567476,10190.086439238105,70.77931375112452,2995.5021536875424,0
-76.02002464571781,-127.0,67.66753022452504,17.670411028848548,-44.52077001013163,96.04683935042277,92.57289204097717,4.857923497267764,11.545454545454547,-1.7085201793722096,4.482352941176472,3.463636363636364,-11.441441441441432,6.4745098039215705,-3.1909547738693433,5.895599193267462,13.83536862360067,90.2291849567476,10190.086439238105,70.77931375112452,2995.5021536875424,0
-76.02002464571781,-127.0,67.66753022452504,17.670411028848548,-44.52077001013163,96.04683935042277,92.57289204097717,-47.88524590163934,-19.94214876033058,-27.905829596412566,-0.49803921568627274,-4.618181818181818,-22.882882882882875,-2.490196078431371,-18.507537688442206,18.091257742750877,249.28636388321607,90.2291849567476,10190.086439238105,70.77931375112452,2995.5021536875424,0
-59.470117067159585,-125.89861655998348,61.854922279792746,14.557824865968769,-30.238095238095184,102.72835860958264,103.70165484633571,-47.88524590163934,-19.94214876033058,-27.905829596412566,-0.49803921568627274,-4.618181818181818,-22.882882882882875,-2.490196078431371,-18.507537688442206,18.091257742750877,249.28636388321607,82.40788530231193,9063.98367737783,67.43712123524834,3122.563682646211,0
-59.470117067159585,-125.89861655998348,61.854922279792746,14.557824865968769,-30.238095238095184,102.72835860958264,103.70165484633571,29.841530054644814,31.487603305785125,-14.23766816143499,-0.49803921568627274,3.463636363636364,-10.297297297297288,2.4901960784313744,15.954773869346738,13.53384304328287,142.6304356768552,82.40788530231193,9063.98367737783,67.43712123524834,3122.563682646211,0
-59.470117067159585,-125.89861655998348,61.854922279792746,14.557824865968769,-30.238095238095184,102.72835860958264,103.70165484633571,-36.78142076502732,-55.62809917355372,-40.43497757847535,-2.490196078431371,3.463636363636364,-16.018018018018008,-4.482352941176469,-41.4824120603015,25.09763912232751,436.9815113765498,82.40788530231193,9063.98367737783,67.43712123524834,3122.563682646211,0
-47.810844115834875,-121.54552963039438,71.06735751295336,14.428133775848778,-21.23100303951378,108.353106965508,114.470133963751,-36.78142076502732,-55.62809917355372,-40.43497757847535,-2.490196078431371,3.463636363636364,-16.018018018018008,-4.482352941176469,-41.4824120603015,25.09763912232751,436.9815113765498,80.14124375306086,9444.759160686972,69.01367363973218,2871.6973367532028,0
-47.810844115834875,-121.54552963039438,71.06735751295336,14.428133775848778,-21.23100303951378,108.353106965508,114.470133963751,21.513661202185798,24.140495867768596,-30.183856502242165,1.4941176470588253,-8.081818181818182,-27.459459459459453,-3.48627450980392,3.1909547738693504,14.943829768025786,144.86119373225281,80.14124375306086,9444.759160686972,69.01367363973218,2871.6973367532028,0
-47.810844115834875,-121.54552963039438,71.06735751295336,14.428133775848778,-21.23100303951378,108.353106965508,114.470133963751,18.737704918032794,14.694214876033058,-21.071748878923778,-1.4941176470588218,-6.927272727272728,-16.018018018018008,11.454901960784316,0.6381909547738722,11.379521247612171,59.07293849551804,80.14124375306086,9444.759160686972,69.01367363973218,2871.6973367532028,0
-33.33456561922366,-112.44600454263886,99.25302245250433,14.882052591268803,-12.609929078014147,113.80740840155687,121.15539795114265,18.737704918032794,14.694214876033058,-21.071748878923778,-1.4941176470588218,-6.927272727272728,-16.018018018018008,11.454901960784316,0.6381909547738722,11.379521247612171,59.07293849551804,81.67786420478895,11442.427718316972,75.527026528804,2801.873342020895,0
-33.33456561922366,-112.44600454263886,99.25302245250433,14.882052591268803,-12.609929078014147,113.80740840155687,121.15539795114265,-13.185792349726771,-12.59504132231405,-51.825112107623326,-2.490196078431371,5.7727272727272725,-18.306306306306297,-5.478431372549018,-14.678391959798992,15.541499846184635,243.73591415726221,81.67786420478895,11442.427718316972,75.527026528804,2801.873342020895,0
-33.33456561922366,-112.44600454263886,99.25302245250433,14.882052591268803,-12.609929078014147,113.80740840155687,121.15539795114265,4.857923497267764,-8.396694214876034,-15.376681614349787,3.4862745098039234,2.309090909090909,-14.873873873873865,5.4784313725490215,3.1909547738693504,7.246240595710082,27.056535316836946,81.67786420478895,11442.427718316972,75.527026528804,2801.873342020895,0
-20.93191620455946,-104.71009704728475,108.24611398963731,16.3086545825887,-6.5623100303951105,118.51174339014901,125.15855003940112,4.857923497267764,-8.396694214876034,-15.376681614349787,3.4862745098039234,2.309090909090909,-14.873873873873865,5.4784313725490215,3.1909547738693504,7.246240595710082,27.056535316836946,77.96270908049384,11509.349148228546,76.42162187317025,2713.3024813130464,0
-20.93191620455946,-104.71009704728475,108.24611398963731,16.3086545825887,-6.5623100303951105,118.51174339014901,125.15855003940112,15.961748633879786,29.388429752066116,21.071748878923756,2.4901960784313744,-3.463636363636364,-20.594594594594586,1.4941176470588253,-8.296482412060298,12.845119295081389,107.98547053740819,77.96270908049384,11509.349148228546,76.42162187317025,2713.3024813130464,0
-20.93191620455946,-104.71009704728475,108.24611398963731,16.3086545825887,-6.5623100303951105,118.51174339014901,125.15855003940112,-27.0655737704918,-12.59504132231405,-3.9865470852018063,-2.490196078431371,-4.618181818181818,-21.73873873873873,-2.490196078431371,-17.23115577889447,11.526953833835677,92.47469105025061,77.96270908049384,11509.349148228546,76.42162187317025,2713.3024813130464,0
-20.423290203327173,-96.92174272145365,115.26511226252158,16.17896349246871,0.9007092198580722,122.46611193128442,127.00000000000001,-27.0655737704918,-12.59504132231405,-3.9865470852018063,-2.490196078431371,-4.618181818181818,-21.73873873873873,-2.490196078431371,-17.23115577889447,11.526953833835677,92.47469105025061,77.53671506243414,11547.769538232124,76.12193949214799,2778.9900803036385,0
-20.423290203327173,-96.92174272145365,115.26511226252158,16.17896349246871,0.9007092198580722,122.46611193128442,127.00000000000001,-18.737704918032783,-9.446280991735538,-42.713004484304946,1.4941176470588253,4.618181818181818,-13.72972972972972,10.458823529411767,-3.1909547738693433,13.048599736540593,176.32022469421275,77.53671506243414,11547.769538232124,76.12193949214799,2778.9900803036385,0
-20.423290203327173,-96.92174272145365,115.26511226252158,16.17896349246871,0.9007092198580722,122.46611193128442,127.00000000000001,-21.513661202185787,-5.247933884297521,-14.23766816143499,-1.4941176470588218,-18.472727272727273,-34.324324324324316,-16.435294117647057,-42.75879396984924,19.310565072440625,189.99612442323107,77.53671506243414,11547.769538232124,76.12193949214799,2778.9900803036385,0
-17.29328404189772,-88.71381375180674,127.0,15.400816951748766,7.8490374873354085,125.73869279291372,126.67974783293934,-21.513661202185787,-5.247933884297521,-14.23766816143499,-1.4941176470588218,-18.472727272727273,-34.324324324324316,-16.435294117647057,-42.75879396984924,19.310565072440625,189.99612442323107,77.66903259790149,12075.648887831489,77.0382102345185,3215.8342023789564,0
-17.29328404189772,-88.71381375180674,127.0,15.400816951748766,7.8490374873354085,125.73869279291372,126.67974783293934,-15.961748633879775,-7.347107438016529,-25.62780269058297,-19.423529411764704,-9.236363636363636,-13.72972972972972,-2.490196078431371,-7.02010050251256,12.604572265160158,57.3017165802686,77.66903259790149,12075.648887831489,77.0382102345185,3215.8342023789564,0
-17.29328404189772,-88.71381375180674,127.0,15.400816951748766,7.8490374873354085,125.73869279291372,126.67974783293934,-4.857923497267754,6.297520661157025,-46.13004484304933,-4.482352941176469,8.081818181818182,-12.585585585585576,10.458823529411767,3.1909547738693504,12.010628001666934,200.08159485470551,77.66903259790149,12075.648887831489,77.0382102345185,3215.8342023789564,0
-23.47504621072089,-77.30662812306423,118.55526770293609,11.315547612968999,16.59878419452889,127.00000000000003,124.75823483057528,-4.857923497267754,6.297520661157025,-46.13004484304933,-4.482352941176469,8.081818181818182,-12.585585585585576,10.458823529411767,3.1909547738693504,12.010628001666934,200.08159485470551,73.1123140122404,10238.721919692045,69.05914781298976,2926.1050898424223,0
-23.47504621072089,-77.30662812306423,118.55526770293609,11.315547612968999,16.59878419452889,127.00000000000003,124.75823483057528,-15.961748633879775,-4.198347107438017,8.542600896860975,8.466666666666669,6.927272727272728,-20.594594594594586,-10.458823529411763,-12.125628140703515,10.909460287103503,27.63938624940028,73.1123140122404,10238.721919692045,69.05914781298976,2926.1050898424223,0
-23.47504621072089,-77.30662812306423,118.55526770293609,11.315547612968999,16.59878419452889,127.00000000000003,124.75823483057528,-6.245901639344257,9.446280991735538,-2.847533632287007,6.4745098039215705,5.7727272727272725,-16.018018018018008,-2.490196078431371,-9.572864321608037,7.358503969759132,18.976097241053168,73.1123140122404,10238.721919692045,69.05914781298976,2926.1050898424223,0
-31.22181146025878,-69.49205038199463,102.87219343696027,3.7934643860096458,26.89260385005059,126.01140786471618,123.07691095350671,-6.245901639344257,9.446280991735538,-2.847533632287007,6.4745098039215705,5.7727272727272725,-16.018018018018008,-2.490196078431371,-9.572864321608037,7.358503969759132,18.976097241053168,67.86201842640456,8192.540980630381,58.719236068321514,2541.1887837655822,0
-31.22181146025878,-69.49205038199463,102.87219343696027,3.7934643860096458,26.89260385005059,126.01140786471618,123.07691095350671,0.6939890710382564,1.0495867768595042,-14.23766816143499,4.482352941176472,24.245454545454546,-1.144144144144132,22.411764705882355,23.61306532663317,11.484753209077926,116.88638127140673,67.86201842640456,8192.540980630381,58.719236068321514,2541.1887837655822,0
-31.22181146025878,-69.49205038199463,102.87219343696027,3.7934643860096458,26.89260385005059,126.01140786471618,123.07691095350671,-11.797814207650267,6.297520661157025,-18.793721973094183,13.447058823529414,35.79090909090909,-19.45045045045044,-16.435294117647057,-26.16582914572864,18.522324808770765,83.19159092638441,67.86201842640456,8192.540980630381,58.719236068321514,2541.1887837655822,0
-24.29667282809612,-62.54284534379518,68.32556131260795,-4.895838652029624,32.81155015197578,121.20480472419811,122.83672182821121,-11.797814207650267,6.297520661157025,-18.793721973094183,13.447058823529414,35.79090909090909,-19.45045045045044,-16.435294117647057,-26.16582914572864,18.522324808770765,83.19159092638441,51.72169316149975,4528.031305016953,45.25474843614425,1229.991150215718,0
