Gyro 0,Gyro 1,Gyro 2,Orientation 0,Orientation 1,Orientation 2,Orientation 3,Sensor 0,Sensor 1,Sensor 2,Sensor 3,Sensor 4,Sensor 5,Sensor 6,Sensor 7,Sensor Mean,Sensor Variance,Gyro Mean,Gyro Variance,Orientation Mean,Orientation Variance,Label
-9.778431834235938,4.100373380188901,-2.0405508798775984,-127.0,126.51142457449288,-127.0,126.99999999999999,-10.583333333333314,-40.53191489361702,-25.400000000000002,-14.111111111111105,-30.38650306748466,21.166666666666654,-55.11320754716981,9.071428571428577,25.79552064885139,252.4256072467728,5.306452031434146,48.36783110194016,44.380308086688835,5120.570836071037,1
-9.778431834235938,4.100373380188901,-2.0405508798775984,-127.0,126.51142457449288,-127.0,126.99999999999999,21.166666666666686,-13.510638297872342,8.466666666666669,-10.975308641975303,-30.38650306748466,7.055555555555543,11.981132075471706,18.142857142857146,15.210666014318758,59.66047263076676,5.306452031434146,48.36783110194016,44.380308086688835,5120.570836071037,1
-9.778431834235938,4.100373380188901,-2.0405508798775984,-127.0,126.51142457449288,-127.0,126.99999999999999,21.166666666666686,-18.914893617021278,8.466666666666669,-20.38271604938271,-30.38650306748466,7.055555555555543,-40.73584905660377,4.53571428571429,18.95557062063695,153.0762587422008,5.306452031434146,48.36783110194016,44.380308086688835,5120.570836071037,1
-9.778431834235938,4.100373380188901,-2.0405508798775984,-127.0,126.51142457449288,-127.0,126.99999999999999,21.166666666666686,-13.510638297872342,2.822222222222223,-14.111111111111105,-28.828220858895705,7.055555555555543,-11.981132075471692,4.53571428571429,13.001407634188698,75.76116118157854,5.306452031434146,48.36783110194016,44.380308086688835,5120.570836071037,1
-11.42312220390865,3.6540742367669816,-1.8267788829380422,-126.95578764142732,126.60025647003962,-126.63759586231495,126.81203087007081,21.166666666666686,-13.510638297872342,2.822222222222223,-14.111111111111105,-28.828220858895705,7.055555555555543,-11.981132075471692,4.53571428571429,13.001407634188698,75.76116118157854,5.634658441204558,58.24190142740657,44.14554692037745,5143.986728286201,1
-14.981634094655059,3.040412914561842,-1.8073450650344463,-126.33681462140993,126.5410352063418,-126.52434456928839,126.51665080875354,21.166666666666686,-13.510638297872342,2.822222222222223,-14.111111111111105,-28.828220858895705,7.055555555555543,-11.981132075471692,4.53571428571429,13.001407634188698,75.76116118157854,6.6097973580837825,86.97613787785757,43.72819086700207,5118.518653028373,1
-14.981634094655059,3.040412914561842,-1.8073450650344463,-126.33681462140993,126.5410352063418,-126.52434456928839,126.51665080875354,21.166666666666686,-18.914893617021278,2.822222222222223,-7.839506172839501,-30.38650306748466,-7.055555555555568,31.150943396226424,9.071428571428577,16.050964908680612,119.99264304260737,6.6097973580837825,86.97613787785757,43.72819086700207,5118.518653028373,1
-14.981634094655059,3.040412914561842,-1.8073450650344463,-126.33681462140993,126.5410352063418,-126.52434456928839,126.51665080875354,21.166666666666686,-29.72340425531915,2.822222222222223,-17.246913580246908,-31.94478527607362,7.055555555555543,7.188679245283026,13.607142857142861,16.34442120731375,115.2700406229358,6.6097973580837825,86.97613787785757,43.72819086700207,5118.518653028373,1
-17.13468330586297,3.2077750933450617,-1.7684774292272543,-125.45256744995652,126.34856609932385,-126.63759586231495,126.32868167882437,21.166666666666686,-29.72340425531915,2.822222222222223,-17.246913580246908,-31.94478527607362,7.055555555555543,7.188679245283026,13.607142857142861,16.34442120731375,115.2700406229358,7.370311942811763,112.44983098917845,43.476273324176276,5040.6024933888075,1
-17.13468330586297,3.2077750933450617,-1.7684774292272543,-125.45256744995652,126.34856609932385,-126.63759586231495,126.32868167882437,21.166666666666686,-8.106382978723406,2.822222222222223,-10.975308641975303,-24.153374233128833,21.166666666666654,-45.52830188679245,13.607142857142861,18.440758269164803,173.00927293607563,7.370311942811763,112.44983098917845,43.476273324176276,5040.6024933888075,1
-17.13468330586297,3.2077750933450617,-1.7684774292272543,-125.45256744995652,126.34856609932385,-126.63759586231495,126.32868167882437,21.166666666666686,-24.319148936170215,-8.466666666666667,-20.38271604938271,-31.94478527607362,7.055555555555543,21.566037735849065,4.53571428571429,17.42966139650985,93.16577540191561,7.370311942811763,112.44983098917845,43.476273324176276,5040.6024933888075,1
-16.506710619260662,4.323522951899861,-1.9822494261668104,-124.70095735422109,126.15609699230589,-126.68289637952559,126.27497621313033,21.166666666666686,-24.319148936170215,-8.466666666666667,-20.38271604938271,-31.94478527607362,7.055555555555543,21.566037735849065,4.53571428571429,17.42966139650985,93.16577540191561,7.604160999109111,114.10356147713013,43.668909910762586,4926.0149250897575,1
-16.506710619260662,4.323522951899861,-1.9822494261668104,-124.70095735422109,126.15609699230589,-126.68289637952559,126.27497621313033,10.583333333333352,-24.319148936170215,2.822222222222223,-7.839506172839501,-30.38650306748466,-28.222222222222236,-26.35849056603773,13.607142857142861,18.017321172181596,110.80251492038066,7.604160999109111,114.10356147713013,43.668909910762586,4926.0149250897575,1
-16.506710619260662,4.323522951899861,-1.9822494261668104,-124.70095735422109,126.15609699230589,-126.68289637952559,126.27497621313033,31.75000000000002,8.106382978723403,25.400000000000002,-7.839506172839501,-30.38650306748466,-35.277777777777786,35.9433962264151,13.607142857142861,23.538838635047917,141.8173786242033,7.604160999109111,114.10356147713013,43.668909910762586,4926.0149250897575,1
-13.426654108782678,4.881396881177261,-2.234889058913559,-124.43568320278507,126.14129167638146,-126.50169431068306,126.2212707474363,31.75000000000002,8.106382978723403,25.400000000000002,-7.839506172839501,-30.38650306748466,-35.277777777777786,35.9433962264151,13.607142857142861,23.538838635047917,141.8173786242033,6.847646682957833,85.18031026059654,43.85065638095863,4872.21091181919,1
-13.426654108782678,4.881396881177261,-2.234889058913559,-124.43568320278507,126.14129167638146,-126.50169431068306,126.2212707474363,10.583333333333352,-35.12765957446808,2.822222222222223,-7.839506172839501,-28.828220858895705,7.055555555555543,-79.0754716981132,13.607142857142861,23.11738903407131,637.0006491442216,6.847646682957833,85.18031026059654,43.85065638095863,4872.21091181919,1
-13.426654108782678,4.881396881177261,-2.234889058913559,-124.43568320278507,126.14129167638146,-126.50169431068306,126.2212707474363,1.7763568394002505e-14,-35.12765957446808,-8.466666666666667,-7.839506172839501,-30.38650306748466,14.111111111111098,35.9433962264151,9.071428571428577,17.618283923801712,197.220702196659,6.847646682957833,85.18031026059654,43.85065638095863,4872.21091181919,1
-11.811867200376744,3.3751372721282817,-2.9733741392502075,-124.52410791993037,126.27453951970156,-126.16194043160334,125.95274341896605,1.7763568394002505e-14,-35.12765957446808,-8.466666666666667,-7.839506172839501,-30.38650306748466,14.111111111111098,35.9433962264151,9.071428571428577,17.618283923801712,197.220702196659,6.053459537251745,58.17794359664541,43.62420644376962,4908.635897543122,1
-11.811867200376744,3.3751372721282817,-2.9733741392502075,-124.52410791993037,126.27453951970156,-126.16194043160334,125.95274341896605,1.7763568394002505e-14,-24.319148936170215,-2.822222222222222,-14.111111111111105,-30.38650306748466,-1.2434497875801753e-14,-103.0377358490566,4.53571428571429,22.401554433969892,1192.0799361754684,6.053459537251745,58.17794359664541,43.62420644376962,4908.635897543122,1
-11.811867200376744,3.3751372721282817,-2.9733741392502075,-124.52410791993037,126.27453951970156,-126.16194043160334,125.95274341896605,10.583333333333352,-29.72340425531915,-2.822222222222222,-14.111111111111105,-30.38650306748466,7.055555555555543,79.07547169811322,13.607142857142861,23.420593012535264,603.6553824917653,6.053459537251745,58.17794359664541,43.62420644376962,4908.635897543122,1
-12.918295267247476,2.4267515923567027,-3.0899770466717835,-124.34725848563971,126.31895546747495,-125.93543784555021,125.68421609049581,10.583333333333352,-29.72340425531915,-2.822222222222222,-14.111111111111105,-30.38650306748466,7.055555555555543,79.07547169811322,13.607142857142861,23.420593012535264,603.6553824917653,6.145007968758654,60.41676617417089,43.28799570822273,4928.063028514567,1
-12.918295267247476,2.4267515923567027,-3.0899770466717835,-124.34725848563971,126.31895546747495,-125.93543784555021,125.68421609049581,10.583333333333352,-18.914893617021278,2.822222222222223,-10.975308641975303,-31.94478527607362,-1.2434497875801753e-14,-79.0754716981132,4.53571428571429,19.85646613430666,676.8486769997353,6.145007968758654,60.41676617417089,43.28799570822273,4928.063028514567,1
-12.918295267247476,2.4267515923567027,-3.0899770466717835,-124.34725848563971,126.31895546747495,-125.93543784555021,125.68421609049581,10.583333333333352,-24.319148936170215,-19.755555555555556,-10.975308641975303,-27.26993865030675,14.111111111111098,21.566037735849065,13.607142857142861,17.773447102680528,40.00361148077833,6.145007968758654,60.41676617417089,43.28799570822273,4928.063028514567,1
-13.875206027784326,2.928838128706362,-3.0122417750573995,-123.94934725848566,126.30415015155049,-125.776886035313,125.49624696056664,10.583333333333352,-24.319148936170215,-19.755555555555556,-10.975308641975303,-27.26993865030675,14.111111111111098,21.566037735849065,13.607142857142861,17.773447102680528,40.00361148077833,6.605428643849364,72.61272046536958,43.296809054083134,4878.625678151513,1
-13.875206027784326,2.928838128706362,-3.0122417750573995,-123.94934725848566,126.30415015155049,-125.776886035313,125.49624696056664,21.166666666666686,-29.72340425531915,-2.822222222222222,-14.111111111111105,-31.94478527607362,-1.2434497875801753e-14,2.396226415094347,9.071428571428577,13.904480564739465,157.20318840803824,6.605428643849364,72.61272046536958,43.296809054083134,4878.625678151513,1
-13.875206027784326,2.928838128706362,-3.0122417750573995,-123.94934725848566,126.30415015155049,-125.776886035313,125.49624696056664,10.583333333333352,-13.510638297872342,2.822222222222223,-14.111111111111105,-28.828220858895705,7.055555555555543,2.396226415094347,9.071428571428577,11.047342045689149,70.59463656746058,6.605428643849364,72.61272046536958,43.296809054083134,4878.625678151513,1
-13.785495643983996,3.5424994509115013,-3.1094108645753797,-123.46301131418625,126.2597342037771,-125.55038344925984,125.30827783063746,10.583333333333352,-13.510638297872342,2.822222222222223,-14.111111111111105,-28.828220858895705,7.055555555555543,2.396226415094347,9.071428571428577,11.047342045689149,70.59463656746058,6.81246865315696,76.41435184518724,43.37164054322437,4811.017645409668,1
-13.785495643983996,3.5424994509115013,-3.1094108645753797,-123.46301131418625,126.2597342037771,-125.55038344925984,125.30827783063746,1.7763568394002505e-14,-13.510638297872342,-8.466666666666667,-23.518518518518512,-35.061349693251536,-1.2434497875801753e-14,-45.52830188679245,13.607142857142861,17.46157724003055,265.0525598617038,6.81246865315696,76.41435184518724,43.37164054322437,4811.017645409668,1
-13.785495643983996,3.5424994509115013,-3.1094108645753797,-123.46301131418625,126.2597342037771,-125.55038344925984,125.30827783063746,10.583333333333352,-29.72340425531915,-2.822222222222222,-14.111111111111105,-27.26993865030675,21.166666666666654,16.773584905660385,18.142857142857146,17.574139785934598,76.28096199564786,6.81246865315696,76.41435184518724,43.37164054322437,4811.017645409668,1
-12.918295267247476,2.984625521634102,-3.1482785003825713,-123.10931244560487,126.2597342037771,-125.25593008739077,125.12030870070829,10.583333333333352,-29.72340425531915,-2.822222222222222,-14.111111111111105,-27.26993865030675,21.166666666666654,16.773584905660385,18.142857142857146,17.574139785934598,76.28096199564786,6.35039976308805,64.32810483092193,43.08073882254052,4803.4361426810365,1
-12.918295267247476,2.984625521634102,-3.1482785003825713,-123.10931244560487,126.2597342037771,-125.25593008739077,125.12030870070829,21.166666666666686,-13.510638297872342,14.111111111111112,-14.111111111111105,-30.38650306748466,7.055555555555543,-40.73584905660377,18.142857142857146,19.902536501157797,117.37392309584675,6.35039976308805,64.32810483092193,43.08073882254052,4803.4361426810365,1
-12.918295267247476,2.984625521634102,-3.1482785003825713,-123.10931244560487,126.2597342037771,-125.25593008739077,125.12030870070829,10.583333333333352,-40.53191489361702,2.822222222222223,-7.839506172839501,-28.828220858895705,-1.2434497875801753e-14,-2.3962264150943327,9.071428571428577,12.75910655842884,205.85807122670184,6.35039976308805,64.32810483092193,43.08073882254052,4803.4361426810365,1
-12.858488344713923,1.757302877223823,-3.439785768936512,-122.7556135770235,126.30415015155049,-124.96147672552166,124.77122317369698,10.583333333333352,-40.53191489361702,2.822222222222223,-7.839506172839501,-28.828220858895705,-1.2434497875801753e-14,-2.3962264150943327,9.071428571428577,12.75910655842884,205.85807122670184,6.018525663624753,54.89050694171285,42.65090074106128,4813.281451069204,1
-12.858488344713923,1.757302877223823,-3.439785768936512,-122.7556135770235,126.30415015155049,-124.96147672552166,124.77122317369698,1.7763568394002505e-14,-35.12765957446808,-14.11111111111111,-17.246913580246908,-31.94478527607362,-14.111111111111121,7.188679245283026,9.071428571428577,16.100211058715306,144.33689595365507,6.018525663624753,54.89050694171285,42.65090074106128,4813.281451069204,1
-12.858488344713923,1.757302877223823,-3.439785768936512,-122.7556135770235,126.30415015155049,-124.96147672552166,124.77122317369698,21.166666666666686,-13.510638297872342,8.466666666666669,-17.246913580246908,-30.38650306748466,-7.055555555555568,2.396226415094347,9.071428571428577,13.662574852626967,81.07587641147094,6.018525663624753,54.89050694171285,42.65090074106128,4813.281451069204,1
-14.054626795384985,1.3667911267296433,-3.245447589900552,-122.26927763272414,126.28934483562603,-124.80292491528446,124.39528491383867,21.166666666666686,-13.510638297872342,8.466666666666669,-17.246913580246908,-30.38650306748466,-7.055555555555568,2.396226415094347,9.071428571428577,13.662574852626967,81.07587641147094,6.22228850400506,62.65520530066299,42.29383878311811,4797.935451916959,1
-14.054626795384985,1.3667911267296433,-3.245447589900552,-122.26927763272414,126.28934483562603,-124.80292491528446,124.39528491383867,21.166666666666686,-29.72340425531915,-2.822222222222222,-14.111111111111105,-28.828220858895705,7.055555555555543,-35.94339622641509,13.607142857142861,19.157214969166045,137.21930021092558,6.22228850400506,62.65520530066299,42.29383878311811,4797.935451916959,1
-14.054626795384985,1.3667911267296433,-3.245447589900552,-122.26927763272414,126.28934483562603,-124.80292491528446,124.39528491383867,31.75000000000002,-35.12765957446808,-8.466666666666667,-7.839506172839501,-25.71165644171779,21.166666666666654,7.188679245283026,4.53571428571429,17.723318631669503,149.08513574694103,6.22228850400506,62.65520530066299,42.29383878311811,4797.935451916959,1
-15.460089474923482,1.813090270151563,-2.701300688599863,-121.69451697127937,126.20051294007928,-124.82557517388977,124.18046305106246,31.75000000000002,-35.12765957446808,-8.466666666666667,-7.839506172839501,-25.71165644171779,21.166666666666654,7.188679245283026,4.53571428571429,17.723318631669503,149.08513574694103,6.658160144558302,80.25485925469079,42.06963597667693,4755.288484490311,1
-15.460089474923482,1.813090270151563,-2.701300688599863,-121.69451697127937,126.20051294007928,-124.82557517388977,124.18046305106246,31.75000000000002,-13.510638297872342,-2.822222222222222,-10.975308641975303,-30.38650306748466,28.222222222222207,-26.35849056603773,22.67857142857143,20.83799455579824,110.59529588654377,6.658160144558302,80.25485925469079,42.06963597667693,4755.288484490311,1
-15.460089474923482,1.813090270151563,-2.701300688599863,-121.69451697127937,126.20051294007928,-124.82557517388977,124.18046305106246,10.583333333333352,-24.319148936170215,-8.466666666666667,-14.111111111111105,-31.94478527607362,-49.3888888888889,-16.77358490566037,18.142857142857146,21.716297032595172,181.6719234432014,6.658160144558302,80.25485925469079,42.06963597667693,4755.288484490311,1
-15.3105721685896,1.813090270151563,-2.448661055853115,-121.20818102698001,126.126486360457,-124.91617620831104,123.99249392113329,10.583333333333352,-24.319148936170215,-8.466666666666667,-14.111111111111105,-31.94478527607362,-49.3888888888889,-16.77358490566037,18.142857142857146,21.716297032595172,181.6719234432014,6.524107831531427,79.46851619209863,41.82331078432823,4726.569205137905,1
-15.3105721685896,1.813090270151563,-2.448661055853115,-121.20818102698001,126.126486360457,-124.91617620831104,123.99249392113329,1.7763568394002505e-14,-24.319148936170215,-2.822222222222222,-10.975308641975303,-31.94478527607362,-7.055555555555568,7.188679245283026,3.552713678800501e-15,10.538212484659997,136.191320555235,6.524107831531427,79.46851619209863,41.82331078432823,4726.569205137905,1
-15.3105721685896,1.813090270151563,-2.448661055853115,-121.20818102698001,126.126486360457,-124.91617620831104,123.99249392113329,10.583333333333352,-29.72340425531915,2.822222222222223,-4.703703703703698,-31.94478527607362,14.111111111111098,-11.981132075471692,13.607142857142861,14.93460435429721,112.79040566963256,6.524107831531427,79.46851619209863,41.82331078432823,4726.569205137905,1
-14.084530256651762,1.2552163408741634,-2.429227237949519,-120.98711923411662,126.126486360457,-124.93882646691635,123.75081932551008,10.583333333333352,-29.72340425531915,2.822222222222223,-4.703703703703698,-31.94478527607362,14.111111111111098,-11.981132075471692,13.607142857142861,14.93460435429721,112.79040566963256,5.922991278491814,64.12150643660215,41.557187604313434,4732.180104433019,1
-14.084530256651762,1.2552163408741634,-2.429227237949519,-120.98711923411662,126.126486360457,-124.93882646691635,123.75081932551008,42.33333333333336,-2.7021276595744723,14.111111111111112,-7.839506172839501,-30.38650306748466,-1.2434497875801753e-14,-35.94339622641509,13.607142857142861,18.365390053487634,251.73073456913457,5.922991278491814,64.12150643660215,41.557187604313434,4732.180104433019,1
-14.084530256651762,1.2552163408741634,-2.429227237949519,-120.98711923411662,126.126486360457,-124.93882646691635,123.75081932551008,21.166666666666686,-29.72340425531915,-14.11111111111111,-17.246913580246908,-28.828220858895705,14.111111111111098,7.188679245283026,4.53571428571429,17.113977639293495,83.91739515488823,5.922991278491814,64.12150643660215,41.557187604313434,4732.180104433019,1
-13.516364492583007,-0.41840544695803494,-2.740168324407055,-120.85448215839864,126.18570762415482,-124.96147672552166,123.40173379849877,21.166666666666686,-29.72340425531915,-14.11111111111111,-17.246913580246908,-28.828220858895705,14.111111111111098,7.188679245283026,4.53571428571429,17.113977639293495,83.91739515488823,5.558312754649365,48.84558631249657,41.33768530992124,4743.538381496293,1
-13.516364492583007,-0.41840544695803494,-2.740168324407055,-120.85448215839864,126.18570762415482,-124.96147672552166,123.40173379849877,10.583333333333352,-13.510638297872342,-8.466666666666667,-10.975308641975303,-30.38650306748466,7.055555555555543,-21.56603773584905,9.071428571428577,13.951933983770687,64.27709622998002,5.558312754649365,48.84558631249657,41.33768530992124,4743.538381496293,1
-13.516364492583007,-0.41840544695803494,-2.740168324407055,-120.85448215839864,126.18570762415482,-124.96147672552166,123.40173379849877,21.166666666666686,-29.72340425531915,-8.466666666666667,-17.246913580246908,-33.50306748466258,-7.055555555555568,-21.56603773584905,4.53571428571429,17.90800327883511,113.28277744268338,5.558312754649365,48.84558631249657,41.33768530992124,4743.538381496293,1
-13.217329879915242,-0.8089171974522147,-2.565263963274691,-120.81026979982596,126.2301235719282,-125.05207775994293,123.13320647002853,21.166666666666686,-29.72340425531915,-8.466666666666667,-17.246913580246908,-33.50306748466258,-7.055555555555568,-21.56603773584905,4.53571428571429,17.90800327883511,113.28277744268338,5.53050368021405,45.086661258763286,41.394816986850955,4730.881797607849,1
-13.217329879915242,-0.8089171974522147,-2.565263963274691,-120.81026979982596,126.2301235719282,-125.05207775994293,123.13320647002853,-10.583333333333314,-24.319148936170215,-2.822222222222222,-17.246913580246908,-30.38650306748466,-1.2434497875801753e-14,26.358490566037744,9.071428571428577,15.098505034615457,126.50435591634326,5.53050368021405,45.086661258763286,41.394816986850955,4730.881797607849,1
-13.217329879915242,-0.8089171974522147,-2.565263963274691,-120.81026979982596,126.2301235719282,-125.05207775994293,123.13320647002853,10.583333333333352,-24.319148936170215,2.822222222222223,-10.975308641975303,-31.94478527607362,-1.2434497875801753e-14,-21.56603773584905,13.607142857142861,14.47724737534583,117.97748309140628,5.53050368021405,45.086661258763286,41.394816986850955,4730.881797607849,1
-13.008005651047807,-0.19525587524707522,-2.273756694720751,-120.81026979982596,126.27453951970156,-125.12002853575888,122.94523734009935,10.583333333333352,-24.319148936170215,2.822222222222223,-10.975308641975303,-31.94478527607362,-1.2434497875801753e-14,-21.56603773584905,13.607142857142861,14.47724737534583,117.97748309140628,5.159006073671877,47.28513718837382,41.09309412326459,4767.201114799948,1
-13.008005651047807,-0.19525587524707522,-2.273756694720751,-120.81026979982596,126.27453951970156,-125.12002853575888,122.94523734009935,21.166666666666686,-29.72340425531915,-8.466666666666667,-14.111111111111105,-28.828220858895705,7.055555555555543,-31.15094339622641,9.071428571428577,18.69674963523373,105.61259100640034,5.159006073671877,47.28513718837382,41.09309412326459,4767.201114799948,1
-13.008005651047807,-0.19525587524707522,-2.273756694720751,-120.81026979982596,126.27453951970156,-125.12002853575888,122.94523734009935,1.7763568394002505e-14,-13.510638297872342,8.466666666666669,-10.975308641975303,-28.828220858895705,-14.111111111111121,2.396226415094347,4.53571428571429,10.352985784666224,81.95843628291593,5.159006073671877,47.28513718837382,41.09309412326459,4767.201114799948,1
-13.396750647515901,0.08368108939162444,-2.390359602142327,-120.7218450826806,126.30415015155049,-125.21062957018013,122.73041547732318,1.7763568394002505e-14,-13.510638297872342,8.466666666666669,-10.975308641975303,-28.828220858895705,-14.111111111111121,2.396226415094347,4.53571428571429,10.352985784666224,81.95843628291593,5.2902637796832845,51.49726016674484,41.065295258071515,4760.204638910618,1
-13.396750647515901,0.08368108939162444,-2.390359602142327,-120.7218450826806,126.30415015155049,-125.21062957018013,122.73041547732318,21.166666666666686,-8.106382978723406,-14.11111111111111,-20.38271604938271,-30.38650306748466,-63.500000000000014,-35.94339622641509,4.53571428571429,24.76656129818725,355.6213328373473,5.2902637796832845,51.49726016674484,41.065295258071515,4760.204638910618,1
-13.396750647515901,0.08368108939162444,-2.390359602142327,-120.7218450826806,126.30415015155049,-125.21062957018013,122.73041547732318,10.583333333333352,-35.12765957446808,-2.822222222222222,-17.246913580246908,-31.94478527607362,7.055555555555543,-7.188679245283012,4.53571428571429,14.563107884112128,156.74392455587707,5.2902637796832845,51.49726016674484,41.065295258071515,4760.204638910618,1
-13.277136802448794,1.0878541620909434,-2.234889058913559,-120.58920800696256,126.30415015155049,-125.23327982878544,122.56929908024101,10.583333333333352,-35.12765957446808,-2.822222222222222,-17.246913580246908,-31.94478527607362,7.055555555555543,-7.188679245283012,4.53571428571429,14.563107884112128,156.74392455587707,5.533293341151098,56.55413719227478,41.30398374265569,4714.939012244709,1
-13.277136802448794,1.0878541620909434,-2.234889058913559,-120.58920800696256,126.30415015155049,-125.23327982878544,122.56929908024101,10.583333333333352,-29.72340425531915,-2.822222222222222,-17.246913580246908,-27.26993865030675,35.277777777777764,35.9433962264151,4.53571428571429,20.425337541416944,180.57499387708827,5.533293341151098,56.55413719227478,41.30398374265569,4714.939012244709,1
-13.277136802448794,1.0878541620909434,-2.234889058913559,-120.58920800696256,126.30415015155049,-125.23327982878544,122.56929908024101,1.7763568394002505e-14,-24.319148936170215,2.822222222222223,-17.246913580246908,-31.94478527607362,-1.2434497875801753e-14,-21.56603773584905,13.607142857142861,13.938281325963114,144.76487248791597,5.533293341151098,56.55413719227478,41.30398374265569,4714.939012244709,1
-13.57617141511656,1.4783659125851232,-2.604131599081883,-120.36814621409923,126.30415015155049,-125.21062957018013,122.38132995031187,1.7763568394002505e-14,-24.319148936170215,2.822222222222223,-17.246913580246908,-31.94478527607362,-1.2434497875801753e-14,-21.56603773584905,13.607142857142861,13.938281325963114,144.76487248791597,5.886222975594522,60.61525630143014,41.48354790858874,4667.401724461533,1
-13.57617141511656,1.4783659125851232,-2.604131599081883,-120.36814621409923,126.30415015155049,-125.21062957018013,122.38132995031187,1.7763568394002505e-14,-35.12765957446808,8.466666666666669,-7.839506172839501,-30.38650306748466,14.111111111111098,-21.56603773584905,9.071428571428577,15.821114112480956,147.78305428399614,5.886222975594522,60.61525630143014,41.48354790858874,4667.401724461533,1
-13.57617141511656,1.4783659125851232,-2.604131599081883,-120.36814621409923,126.30415015155049,-125.21062957018013,122.38132995031187,21.166666666666686,-18.914893617021278,2.822222222222223,-14.111111111111105,-28.828220858895705,14.111111111111098,11.981132075471706,9.071428571428577,15.125848279241048,62.65531440937207,5.886222975594522,60.61525630143014,41.48354790858874,4667.401724461533,1
-13.57617141511656,1.813090270151563,-2.9150726855394193,-120.14708442123589,126.28934483562603,-125.14267879436419,122.24706628607673,21.166666666666686,-18.914893617021278,2.822222222222223,-14.111111111111105,-28.828220858895705,14.111111111111098,11.981132075471706,9.071428571428577,15.125848279241048,62.65531440937207,6.101444790269181,62.14065437917022,41.62508245897562,4624.58218543186,1
-13.57617141511656,1.813090270151563,-2.9150726855394193,-120.14708442123589,126.28934483562603,-125.14267879436419,122.24706628607673,31.75000000000002,8.106382978723403,8.466666666666669,-7.839506172839501,-28.828220858895705,-1.2434497875801753e-14,-21.56603773584905,13.607142857142861,15.020494658764653,126.18725805319711,6.101444790269181,62.14065437917022,41.62508245897562,4624.58218543186,1
-13.57617141511656,1.813090270151563,-2.9150726855394193,-120.14708442123589,126.28934483562603,-125.14267879436419,122.24706628607673,1.7763568394002505e-14,-18.914893617021278,-2.822222222222222,-14.111111111111105,-31.94478527607362,-7.055555555555568,-11.981132075471692,9.071428571428577,11.98764105361051,101.61740057595772,6.101444790269181,62.14065437917022,41.62508245897562,4624.58218543186,1
-13.157522957381689,2.5941137711399223,-2.623565416985479,-120.05865970409053,126.27453951970156,-125.12002853575888,122.2202135532297,1.7763568394002505e-14,-18.914893617021278,-2.822222222222222,-14.111111111111105,-31.94478527607362,-7.055555555555568,-11.981132075471692,9.071428571428577,11.98764105361051,101.61740057595772,6.125067381835696,64.38374953339634,41.758779630738644,4598.153631475827,1
-13.157522957381689,2.5941137711399223,-2.623565416985479,-120.05865970409053,126.27453951970156,-125.12002853575888,122.2202135532297,10.583333333333352,-35.12765957446808,2.822222222222223,-7.839506172839501,-25.71165644171779,-1.2434497875801753e-14,45.52830188679246,9.071428571428577,17.08551352535025,270.89577050410225,6.125067381835696,64.38374953339634,41.758779630738644,4598.153631475827,1
-13.157522957381689,2.5941137711399223,-2.623565416985479,-120.05865970409053,126.27453951970156,-125.12002853575888,122.2202135532297,21.166666666666686,-18.914893617021278,2.822222222222223,-7.839506172839501,-30.38650306748466,-7.055555555555568,-16.77358490566037,13.607142857142861,14.820759383074144,79.65891775551992,6.125067381835696,64.38374953339634,41.758779630738644,4598.153631475827,1
-11.871674122910298,2.538326378212182,-2.5069625095639028,-120.23550913838119,126.33376078339938,-125.0067772427323,122.1933608203827,21.166666666666686,-18.914893617021278,2.822222222222223,-7.839506172839501,-30.38650306748466,-7.055555555555568,-16.77358490566037,13.607142857142861,14.820759383074144,79.65891775551992,5.6389876702287935,53.466813000768646,41.76026600871909,4618.773084117747,1
-11.871674122910298,2.538326378212182,-2.5069625095639028,-120.23550913838119,126.33376078339938,-125.0067772427323,122.1933608203827,21.166666666666686,-29.72340425531915,-2.822222222222222,-10.975308641975303,-28.828220858895705,14.111111111111098,-7.188679245283012,13.607142857142861,16.052844482327004,95.05736703950893,5.6389876702287935,53.466813000768646,41.76026600871909,4618.773084117747,1
-11.871674122910298,2.538326378212182,-2.5069625095639028,-120.23550913838119,126.33376078339938,-125.0067772427323,122.1933608203827,10.583333333333352,-13.510638297872342,-8.466666666666667,-10.975308641975303,-25.71165644171779,28.222222222222207,2.396226415094347,9.071428571428577,13.617185073788821,78.41144610246464,5.6389876702287935,53.466813000768646,41.76026600871909,4618.773084117747,1
-11.901577584177074,3.040412914561842,-2.5069625095639028,-120.27972149695387,126.36337141524831,-124.89352594970572,122.2202135532297,10.583333333333352,-13.510638297872342,-8.466666666666667,-10.975308641975303,-25.71165644171779,28.222222222222207,2.396226415094347,9.071428571428577,13.617185073788821,78.41144610246464,5.816317669434273,57.04920776012457,41.942365640359874,4602.627134285631,1
-11.901577584177074,3.040412914561842,-2.5069625095639028,-120.27972149695387,126.36337141524831,-124.89352594970572,122.2202135532297,21.166666666666686,-35.12765957446808,2.822222222222223,-10.975308641975303,-28.828220858895705,14.111111111111098,-21.56603773584905,9.071428571428577,17.958581922827094,115.41312003065332,5.816317669434273,57.04920776012457,41.942365640359874,4602.627134285631,1
-11.901577584177074,3.040412914561842,-2.5069625095639028,-120.27972149695387,126.36337141524831,-124.89352594970572,122.2202135532297,42.33333333333336,2.702127659574465,14.111111111111112,-7.839506172839501,-30.38650306748466,-1.2434497875801753e-14,-7.188679245283012,18.142857142857146,15.338014716560409,211.73375693263046,5.816317669434273,57.04920776012457,41.942365640359874,4602.627134285631,1
-11.93148104544385,3.5424994509115013,-2.273756694720751,-120.4123585726719,126.37817673117277,-124.78027465667915,122.3276244846178,42.33333333333336,2.702127659574465,14.111111111111112,-7.839506172839501,-30.38650306748466,-1.2434497875801753e-14,-7.188679245283012,18.142857142857146,15.338014716560409,211.73375693263046,5.915912397025367,61.0907579312901,42.07620490610139,4602.817155499759,1
-11.93148104544385,3.5424994509115013,-2.273756694720751,-120.4123585726719,126.37817673117277,-124.78027465667915,122.3276244846178,21.166666666666686,-24.319148936170215,2.822222222222223,-14.111111111111105,-27.26993865030675,7.055555555555543,31.150943396226424,13.607142857142861,17.687841174425223,98.94648627488831,5.915912397025367,61.0907579312901,42.07620490610139,4602.817155499759,1
-11.93148104544385,3.5424994509115013,-2.273756694720751,-120.4123585726719,126.37817673117277,-124.78027465667915,122.3276244846178,10.583333333333352,-24.319148936170215,-2.822222222222222,-14.111111111111105,-31.94478527607362,14.111111111111098,-7.188679245283012,4.53571428571429,13.702013190127364,100.05679961202519,5.915912397025367,61.0907579312901,42.07620490610139,4602.817155499759,1
-11.542736048975755,3.5424994509115013,-2.1571537872991744,-120.50078328981726,126.4077873630217,-124.64437310504726,122.40818268315887,10.583333333333352,-24.319148936170215,-2.822222222222222,-14.111111111111105,-31.94478527607362,14.111111111111098,-7.188679245283012,4.53571428571429,13.702013190127364,100.05679961202519,5.74746309572881,58.02325525226704,42.066812176009314,4614.3956641631685,1
-11.542736048975755,3.5424994509115013,-2.1571537872991744,-120.50078328981726,126.4077873630217,-124.64437310504726,122.40818268315887,-10.583333333333314,-40.53191489361702,-14.11111111111111,-14.111111111111105,-35.061349693251536,7.055555555555543,-26.35849056603773,13.607142857142861,20.177501140145026,150.7201475783239,5.74746309572881,58.02325525226704,42.066812176009314,4614.3956641631685,1
-11.542736048975755,3.5424994509115013,-2.1571537872991744,-120.50078328981726,126.4077873630217,-124.64437310504726,122.40818268315887,21.166666666666686,-29.72340425531915,-8.466666666666667,-20.38271604938271,-30.38650306748466,-1.2434497875801753e-14,-7.188679245283012,9.071428571428577,15.798258065278935,125.61084677260745,5.74746309572881,58.02325525226704,42.066812176009314,4614.3956641631685,1
-12.051094890510957,3.4867120579837616,-2.351491966335135,-120.50078328981726,126.42259267894613,-124.46317103620474,122.40818268315887,21.166666666666686,-29.72340425531915,-8.466666666666667,-20.38271604938271,-30.38650306748466,-1.2434497875801753e-14,-7.188679245283012,9.071428571428577,15.798258065278935,125.61084677260745,5.963099638276618,61.5983946474907,42.11299577137872,4608.806105191023,1
-12.051094890510957,3.4867120579837616,-2.351491966335135,-120.50078328981726,126.42259267894613,-124.46317103620474,122.40818268315887,21.166666666666686,-24.319148936170215,2.822222222222223,-10.975308641975303,-30.38650306748466,7.055555555555543,-35.94339622641509,4.53571428571429,17.1505644502755,157.1938717642412,5.963099638276618,61.5983946474907,42.11299577137872,4608.806105191023,1
-12.051094890510957,3.4867120579837616,-2.351491966335135,-120.50078328981726,126.42259267894613,-124.46317103620474,122.40818268315887,10.583333333333352,-18.914893617021278,-25.400000000000002,-17.246913580246908,-30.38650306748466,-14.111111111111121,-2.3962264150943327,13.607142857142861,16.580765497679316,75.19730862105551,5.963099638276618,61.5983946474907,42.11299577137872,4608.806105191023,1
-13.48646103131623,3.040412914561842,-2.351491966335135,-120.27972149695387,126.37817673117277,-124.3952202603888,122.38132995031187,10.583333333333352,-18.914893617021278,-25.400000000000002,-17.246913580246908,-30.38650306748466,-14.111111111111121,-2.3962264150943327,13.607142857142861,16.580765497679316,75.19730862105551,6.292788637404403,71.03295612427833,41.89054212595028,4608.766234862758,1
-13.48646103131623,3.040412914561842,-2.351491966335135,-120.27972149695387,126.37817673117277,-124.3952202603888,122.38132995031187,21.166666666666686,-24.319148936170215,-2.822222222222222,-10.975308641975303,-28.828220858895705,-21.16666666666668,21.566037735849065,9.071428571428577,17.489462537484307,78.1856596618198,6.292788637404403,71.03295612427833,41.89054212595028,4608.766234862758,1
-13.48646103131623,3.040412914561842,-2.351491966335135,-120.27972149695387,126.37817673117277,-124.3952202603888,122.38132995031187,10.583333333333352,-18.914893617021278,2.822222222222223,-7.839506172839501,-30.38650306748466,-7.055555555555568,-21.56603773584905,4.53571428571429,12.96297074875249,93.38302511466468,6.292788637404403,71.03295612427833,41.89054212595028,4608.766234862758,1
-13.964916411584655,3.2077750933450617,-2.0405508798775984,-120.01444734551785,126.30415015155049,-124.4178705189941,122.40818268315887,10.583333333333352,-18.914893617021278,2.822222222222223,-7.839506172839501,-30.38650306748466,-7.055555555555568,-21.56603773584905,4.53571428571429,12.96297074875249,93.38302511466468,6.404414128269106,77.43945872974203,41.754257772913505,4593.833557046104,1
-13.964916411584655,3.2077750933450617,-2.0405508798775984,-120.01444734551785,126.30415015155049,-124.4178705189941,122.40818268315887,21.166666666666686,-29.72340425531915,-2.822222222222222,-10.975308641975303,-28.828220858895705,-1.2434497875801753e-14,-21.56603773584905,9.071428571428577,15.51916111904459,130.23244278429556,6.404414128269106,77.43945872974203,41.754257772913505,4593.833557046104,1
-13.964916411584655,3.2077750933450617,-2.0405508798775984,-120.01444734551785,126.30415015155049,-124.4178705189941,122.40818268315887,1.7763568394002505e-14,-24.319148936170215,8.466666666666669,-10.975308641975303,-27.26993865030675,-1.2434497875801753e-14,-11.981132075471692,9.071428571428577,11.510452942752405,99.01807568001036,6.404414128269106,77.43945872974203,41.754257772913505,4593.833557046104,1
-14.084530256651762,2.984625521634102,-1.9628156082632144,-119.83759791122719,126.24492888785264,-124.48582129481005,122.40818268315887,1.7763568394002505e-14,-24.319148936170215,8.466666666666669,-10.975308641975303,-27.26993865030675,-1.2434497875801753e-14,-11.981132075471692,9.071428571428577,11.510452942752405,99.01807568001036,6.343990462183026,77.12820312235779,41.59501301370817,4591.687592458869,1
-14.084530256651762,2.984625521634102,-1.9628156082632144,-119.83759791122719,126.24492888785264,-124.48582129481005,122.40818268315887,31.75000000000002,-8.106382978723406,19.755555555555556,-10.975308641975303,-25.71165644171779,7.055555555555543,-35.94339622641509,4.53571428571429,17.979196210707126,145.9819895104737,6.343990462183026,77.12820312235779,41.59501301370817,4591.687592458869,1
-14.084530256651762,2.984625521634102,-1.9628156082632144,-119.83759791122719,126.24492888785264,-124.48582129481005,122.40818268315887,1.7763568394002505e-14,-35.12765957446808,-8.466666666666667,-10.975308641975303,-31.94478527607362,-1.2434497875801753e-14,-11.981132075471692,9.071428571428577,13.445872600760495,175.15286284494343,6.343990462183026,77.12820312235779,41.59501301370817,4591.687592458869,1
-13.606074876383337,2.3709641994289625,-2.0016832440704064,-119.74917319408183,126.2301235719282,-124.50847155341538,122.38132995031187,1.7763568394002505e-14,-35.12765957446808,-8.466666666666667,-10.975308641975303,-31.94478527607362,-1.2434497875801753e-14,-11.981132075471692,9.071428571428577,13.445872600760495,175.15286284494343,5.992907439960902,68.17462140854485,41.37394021252707,4607.041950790741,1
-13.606074876383337,2.3709641994289625,-2.0016832440704064,-119.74917319408183,126.2301235719282,-124.50847155341538,122.38132995031187,84.66666666666669,-29.72340425531915,-14.11111111111111,-14.111111111111105,-31.94478527607362,7.055555555555543,26.358490566037744,40.82142857142858,31.099069139162943,592.0520762906357,5.992907439960902,68.17462140854485,41.37394021252707,4607.041950790741,1
-13.606074876383337,2.3709641994289625,-2.0016832440704064,-119.74917319408183,126.2301235719282,-124.50847155341538,122.38132995031187,10.583333333333352,-29.72340425531915,-14.11111111111111,-10.975308641975303,-30.38650306748466,7.055555555555543,-21.56603773584905,9.071428571428577,16.684085284007093,86.95774003607364,5.992907439960902,68.17462140854485,41.37394021252707,4607.041950790741,1
-12.8883918059807,2.0920272347902626,-2.2931905126243466,-119.79338555265451,126.24492888785264,-124.53112181202069,122.35447721746483,10.583333333333352,-29.72340425531915,-14.11111111111111,-10.975308641975303,-30.38650306748466,7.055555555555543,-21.56603773584905,9.071428571428577,16.684085284007093,86.95774003607364,5.757869851131769,59.31689662934557,41.39286776668971,4609.991008496625,1
-12.8883918059807,2.0920272347902626,-2.2931905126243466,-119.79338555265451,126.24492888785264,-124.53112181202069,122.35447721746483,-21.16666666666665,-29.72340425531915,-2.822222222222222,-14.111111111111105,-30.38650306748466,7.055555555555543,-21.56603773584905,3.552713678800501e-15,15.853937576776048,138.00466519285538,5.757869851131769,59.31689662934557,41.39286776668971,4609.991008496625,1
-12.8883918059807,2.0920272347902626,-2.2931905126243466,-119.79338555265451,126.24492888785264,-124.53112181202069,122.35447721746483,-21.16666666666665,-40.53191489361702,-14.11111111111111,-17.246913580246908,-28.828220858895705,-7.055555555555568,-16.77358490566037,4.53571428571429,18.781210232183454,135.47793743255286,5.757869851131769,59.31689662934557,41.39286776668971,4609.991008496625,1
-13.187426418648466,2.3151768065012224,-2.6818668706962674,-119.74917319408183,126.2597342037771,-124.48582129481005,122.27391901892376,-21.16666666666665,-40.53191489361702,-14.11111111111111,-17.246913580246908,-28.828220858895705,-7.055555555555568,-16.77358490566037,4.53571428571429,18.781210232183454,135.47793743255286,6.061490031948652,62.611322280635086,41.582072290426446,4582.605363162477,1
-13.187426418648466,2.3151768065012224,-2.6818668706962674,-119.74917319408183,126.2597342037771,-124.48582129481005,122.27391901892376,10.583333333333352,-8.106382978723406,2.822222222222223,-10.975308641975303,-28.828220858895705,21.166666666666654,-31.15094339622641,18.142857142857146,16.471991905112525,102.02417491024782,6.061490031948652,62.611322280635086,41.582072290426446,4582.605363162477,1
-13.187426418648466,2.3151768065012224,-2.6818668706962674,-119.74917319408183,126.2597342037771,-124.48582129481005,122.27391901892376,10.583333333333352,-18.914893617021278,-8.466666666666667,-17.246913580246908,-28.828220858895705,7.055555555555543,-7.188679245283012,9.071428571428577,13.41946142855388,59.01145213170822,6.061490031948652,62.611322280635086,41.582072290426446,4582.605363162477,1
-12.679067577113264,3.096200307489582,-2.429227237949519,-119.79338555265451,126.28934483562603,-124.44052077759943,122.27391901892376,10.583333333333352,-18.914893617021278,-8.466666666666667,-17.246913580246908,-28.828220858895705,7.055555555555543,-7.188679245283012,9.071428571428577,13.41946142855388,59.01145213170822,6.068165040850789,64.07477556153792,41.77293769936454,4565.503925689827,1
-12.679067577113264,3.096200307489582,-2.429227237949519,-119.79338555265451,126.28934483562603,-124.44052077759943,122.27391901892376,10.583333333333352,-40.53191489361702,-2.822222222222222,-14.111111111111105,-31.94478527607362,-1.2434497875801753e-14,11.981132075471706,3.552713678800501e-15,13.996812363978629,222.66603511064756,6.068165040850789,64.07477556153792,41.77293769936454,4565.503925689827,1
-12.679067577113264,3.096200307489582,-2.429227237949519,-119.79338555265451,126.28934483562603,-124.44052077759943,122.27391901892376,21.166666666666686,-18.914893617021278,2.822222222222223,-17.246913580246908,-30.38650306748466,7.055555555555543,-26.35849056603773,9.071428571428577,16.627834230832953,92.78917844097957,6.068165040850789,64.07477556153792,41.77293769936454,4565.503925689827,1
-12.589357193312933,2.6499011640676624,-2.196021423106367,-119.83759791122719,126.30415015155049,-124.44052077759943,122.24706628607673,21.166666666666686,-18.914893617021278,2.822222222222223,-17.246913580246908,-30.38650306748466,7.055555555555543,-26.35849056603773,9.071428571428577,16.627834230832953,92.78917844097957,5.811759926828987,60.62323157268885,41.561173499467074,4595.450465722311,1
-12.589357193312933,2.6499011640676624,-2.196021423106367,-119.83759791122719,126.30415015155049,-124.44052077759943,122.24706628607673,10.583333333333352,-24.319148936170215,2.822222222222223,-14.111111111111105,-31.94478527607362,-1.2434497875801753e-14,-21.56603773584905,13.607142857142861,14.869222683987804,116.0691007672673,5.811759926828987,60.62323157268885,41.561173499467074,4595.450465722311,1
-12.589357193312933,2.6499011640676624,-2.196021423106367,-119.83759791122719,126.30415015155049,-124.44052077759943,122.24706628607673,10.583333333333352,-18.914893617021278,2.822222222222223,-10.975308641975303,-28.828220858895705,-14.111111111111121,-11.981132075471692,4.53571428571429,12.84399201821812,67.53820570063085,5.811759926828987,60.62323157268885,41.561173499467074,4595.450465722311,1
-11.781963739109967,1.5341533055128633,-2.3320581484315386,-120.14708442123589,126.4077873630217,-124.4178705189941,122.13965535468863,10.583333333333352,-18.914893617021278,2.822222222222223,-10.975308641975303,-28.828220858895705,-14.111111111111121,-11.981132075471692,4.53571428571429,12.84399201821812,67.53820570063085,5.216058397684789,46.92787997090683,41.33776529172676,4658.3407492771985,1
-11.781963739109967,1.5341533055128633,-2.3320581484315386,-120.14708442123589,126.4077873630217,-124.4178705189941,122.13965535468863,-31.749999999999986,-18.914893617021278,2.822222222222223,-7.839506172839501,-27.26993865030675,7.055555555555543,-35.94339622641509,4.53571428571429,17.016403341259334,174.96078414702546,5.216058397684789,46.92787997090683,41.33776529172676,4658.3407492771985,1
-11.781963739109967,1.5341533055128633,-2.3320581484315386,-120.14708442123589,126.4077873630217,-124.4178705189941,122.13965535468863,21.166666666666686,-18.914893617021278,8.466666666666669,-14.111111111111105,-30.38650306748466,14.111111111111098,-11.981132075471692,18.142857142857146,17.160117682298793,45.146512167032334,5.216058397684789,46.92787997090683,41.33776529172676,4658.3407492771985,1
-12.140805274311285,1.2552163408741634,-2.234889058913559,-120.19129677980857,126.42259267894613,-124.4178705189941,122.13965535468863,21.166666666666686,-18.914893617021278,8.466666666666669,-14.111111111111105,-30.38650306748466,14.111111111111098,-11.981132075471692,18.142857142857146,17.160117682298793,45.146512167032334,5.210303558033003,48.293567813770466,41.22713405986543,4676.744185204861,1
-12.140805274311285,1.2552163408741634,-2.234889058913559,-120.19129677980857,126.42259267894613,-124.4178705189941,122.13965535468863,1.7763568394002505e-14,-18.914893617021278,-2.822222222222222,-10.975308641975303,-31.94478527607362,-7.055555555555568,16.773584905660385,9.071428571428577,12.194722348742122,104.34280724915429,5.210303558033003,48.293567813770466,41.22713405986543,4676.744185204861,1
-12.140805274311285,1.2552163408741634,-2.234889058913559,-120.19129677980857,126.42259267894613,-124.4178705189941,122.13965535468863,10.583333333333352,-29.72340425531915,-14.11111111111111,-14.111111111111105,-28.828220858895705,14.111111111111098,-21.56603773584905,13.607142857142861,18.33018404673418,55.17250515582602,5.210303558033003,48.293567813770466,41.22713405986543,4676.744185204861,1
-13.008005651047807,1.4225785196573832,-2.1765876052027706,-120.23550913838119,126.4373979948706,-124.46317103620474,122.05909715614756,10.583333333333352,-29.72340425531915,-14.11111111111111,-14.111111111111105,-28.828220858895705,14.111111111111098,-21.56603773584905,13.607142857142861,18.33018404673418,55.17250515582602,5.535723925302654,56.41922886433426,41.27822508774711,4675.831660914657,1
-13.008005651047807,1.4225785196573832,-2.1765876052027706,-120.23550913838119,126.4373979948706,-124.46317103620474,122.05909715614756,21.166666666666686,-18.914893617021278,-8.466666666666667,-20.38271604938271,-31.94478527607362,-21.16666666666668,-11.981132075471692,4.53571428571429,17.31990516295795,75.10356164115943,5.535723925302654,56.41922886433426,41.27822508774711,4675.831660914657,1
-13.008005651047807,1.4225785196573832,-2.1765876052027706,-120.23550913838119,126.4373979948706,-124.46317103620474,122.05909715614756,10.583333333333352,-18.914893617021278,8.466666666666669,-14.111111111111105,-27.26993865030675,-1.2434497875801753e-14,2.396226415094347,4.53571428571429,10.784735509905975,82.86686359696459,5.535723925302654,56.41922886433426,41.27822508774711,4675.831660914657,1
-13.157522957381689,1.3667911267296433,-2.0211170619740026,-120.23550913838119,126.4373979948706,-124.553772070626,122.03224442330055,10.583333333333352,-18.914893617021278,8.466666666666669,-14.111111111111105,-27.26993865030675,-1.2434497875801753e-14,2.396226415094347,4.53571428571429,10.784735509905975,82.86686359696459,5.515143715361778,57.74219296271184,41.20780577569494,4684.1404596929315,1
-13.157522957381689,1.3667911267296433,-2.0211170619740026,-120.23550913838119,126.4373979948706,-124.553772070626,122.03224442330055,-10.583333333333314,-18.914893617021278,-2.822222222222222,-17.246913580246908,-30.38650306748466,7.055555555555543,-26.35849056603773,9.071428571428577,15.30491756416628,93.06548175008554,5.515143715361778,57.74219296271184,41.20780577569494,4684.1404596929315,1
-13.157522957381689,1.3667911267296433,-2.0211170619740026,-120.23550913838119,126.4373979948706,-124.553772070626,122.03224442330055,10.583333333333352,-24.319148936170215,2.822222222222223,-4.703703703703698,-28.828220858895705,-1.2434497875801753e-14,-2.3962264150943327,9.071428571428577,10.340535505106015,113.88619360246369,5.515143715361778,57.74219296271184,41.20780577569494,4684.1404596929315,1
-13.336943724982348,1.4783659125851232,-1.8462127008416382,-120.23550913838119,126.4373979948706,-124.66702336365258,122.00539169045352,10.583333333333352,-24.319148936170215,2.822222222222223,-4.703703703703698,-28.828220858895705,-1.2434497875801753e-14,-2.3962264150943327,9.071428571428577,10.340535505106015,113.88619360246369,5.553840779469702,60.43052034716734,41.18669591726931,4686.569981564581,1
-13.336943724982348,1.4783659125851232,-1.8462127008416382,-120.23550913838119,126.4373979948706,-124.66702336365258,122.00539169045352,10.583333333333352,-18.914893617021278,-8.466666666666667,-26.654320987654316,-30.38650306748466,-1.2434497875801753e-14,7.188679245283026,9.071428571428577,13.908228186108987,108.81634583119538,5.553840779469702,60.43052034716734,41.18669591726931,4686.569981564581,1
-13.336943724982348,1.4783659125851232,-1.8462127008416382,-120.23550913838119,126.4373979948706,-124.66702336365258,122.00539169045352,42.33333333333336,-13.510638297872342,14.111111111111112,-14.111111111111105,-27.26993865030675,-1.2434497875801753e-14,-11.981132075471692,13.607142857142861,17.115550929543655,157.3871599241369,5.553840779469702,60.43052034716734,41.18669591726931,4686.569981564581,1
-13.635978337650114,1.2552163408741634,-1.613006885998486,-120.23550913838119,126.42259267894613,-124.8482254324951,121.97853895760649,42.33333333333336,-13.510638297872342,14.111111111111112,-14.111111111111105,-27.26993865030675,-1.2434497875801753e-14,-11.981132075471692,13.607142857142861,17.115550929543655,157.3871599241369,5.501400521507588,62.4210376600186,41.034577455084616,4704.622688145204,1
-13.635978337650114,1.2552163408741634,-1.613006885998486,-120.23550913838119,126.42259267894613,-124.8482254324951,121.97853895760649,31.75000000000002,-29.72340425531915,2.822222222222223,-10.975308641975303,-30.38650306748466,14.111111111111098,-2.3962264150943327,9.071428571428577,16.40452553557942,153.94195386040496,5.501400521507588,62.4210376600186,41.034577455084616,4704.622688145204,1
-13.635978337650114,1.2552163408741634,-1.613006885998486,-120.23550913838119,126.42259267894613,-124.8482254324951,121.97853895760649,10.583333333333352,-29.72340425531915,-8.466666666666667,-14.111111111111105,-31.94478527607362,-14.111111111111121,-11.981132075471692,9.071428571428577,16.24912155006441,85.63644318214244,5.501400521507588,62.4210376600186,41.034577455084616,4704.622688145204,1
-12.948198728514253,1.2552163408741634,-1.5158377964805059,-120.4123585726719,126.42259267894613,-125.05207775994293,122.03224442330055,10.583333333333352,-29.72340425531915,-8.466666666666667,-14.111111111111105,-31.94478527607362,-14.111111111111121,-11.981132075471692,9.071428571428577,16.24912155006441,85.63644318214244,5.239750955289641,56.685769524295324,41.06113757000886,4722.479186845885,1
-12.948198728514253,1.2552163408741634,-1.5158377964805059,-120.4123585726719,126.42259267894613,-125.05207775994293,122.03224442330055,31.75000000000002,-18.914893617021278,2.822222222222223,-7.839506172839501,-30.38650306748466,-1.2434497875801753e-14,-26.35849056603773,9.071428571428577,15.89288052712925,159.2842420240971,5.239750955289641,56.685769524295324,41.06113757000886,4722.479186845885,1
-12.948198728514253,1.2552163408741634,-1.5158377964805059,-120.4123585726719,126.42259267894613,-125.05207775994293,122.03224442330055,21.166666666666686,-24.319148936170215,-2.822222222222222,-14.111111111111105,-30.38650306748466,7.055555555555543,21.566037735849065,18.142857142857146,17.446262804739582,82.70545325725591,5.239750955289641,56.685769524295324,41.06113757000886,4722.479186845885,1
-11.811867200376744,1.5341533055128633,-1.7879112471308503,-120.76605744125328,126.49661925856844,-125.14267879436419,122.08594988899459,21.166666666666686,-24.319148936170215,-2.822222222222222,-14.111111111111105,-30.38650306748466,7.055555555555543,21.566037735849065,18.142857142857146,17.446262804739582,82.70545325725591,5.044643917673485,48.272011531361926,41.362707331299,4728.6851047862165,1
-11.811867200376744,1.5341533055128633,-1.7879112471308503,-120.76605744125328,126.49661925856844,-125.14267879436419,122.08594988899459,1.7763568394002505e-14,-24.319148936170215,-8.466666666666667,-14.111111111111105,-30.38650306748466,-28.222222222222236,2.396226415094347,9.071428571428577,14.621663373772229,137.10724298236778,5.044643917673485,48.272011531361926,41.362707331299,4728.6851047862165,1
-11.811867200376744,1.5341533055128633,-1.7879112471308503,-120.76605744125328,126.49661925856844,-125.14267879436419,122.08594988899459,10.583333333333352,-24.319148936170215,-14.11111111111111,-10.975308641975303,-27.26993865030675,7.055555555555543,-21.56603773584905,18.142857142857146,16.752911388394807,52.20230760296564,5.044643917673485,48.272011531361926,41.362707331299,4728.6851047862165,1
-11.094184129974106,2.6499011640676624,-1.8656465187452342,-121.2523933855527,126.60025647003962,-125.09737827715355,122.13965535468863,10.583333333333352,-24.319148936170215,-14.11111111111111,-10.975308641975303,-27.26993865030675,7.055555555555543,-21.56603773584905,18.142857142857146,16.752911388394807,52.20230760296564,5.203243937595668,49.07599298125301,41.92264702278853,4720.060257322547,1
-11.094184129974106,2.6499011640676624,-1.8656465187452342,-121.2523933855527,126.60025647003962,-125.09737827715355,122.13965535468863,31.75000000000002,-29.72340425531915,2.822222222222223,-7.839506172839501,-28.828220858895705,7.055555555555543,7.188679245283026,9.071428571428577,15.53487711019297,149.30312984360484,5.203243937595668,49.07599298125301,41.92264702278853,4720.060257322547,1
-11.094184129974106,2.6499011640676624,-1.8656465187452342,-121.2523933855527,126.60025647003962,-125.09737827715355,122.13965535468863,1.7763568394002505e-14,-13.510638297872342,8.466666666666669,-14.111111111111105,-31.94478527607362,7.055555555555543,-26.35849056603773,9.071428571428577,13.8148345055932,110.55129155621226,5.203243937595668,49.07599298125301,41.92264702278853,4720.060257322547,1
-11.183894513774437,3.3193498792005416,-1.8267788829380422,-121.60609225413407,126.6890883655864,-125.02942750133761,122.24706628607673,1.7763568394002505e-14,-13.510638297872342,8.466666666666669,-14.111111111111105,-31.94478527607362,7.055555555555543,-26.35849056603773,9.071428571428577,13.8148345055932,110.55129155621226,5.443341091971007,54.06372534795215,42.25074033875755,4723.510850254659,1
-11.183894513774437,3.3193498792005416,-1.8267788829380422,-121.60609225413407,126.6890883655864,-125.02942750133761,122.24706628607673,21.166666666666686,-29.72340425531915,-2.822222222222222,-14.111111111111105,-28.828220858895705,-14.111111111111121,-35.94339622641509,9.071428571428577,19.472195127896207,129.95345598124393,5.443341091971007,54.06372534795215,42.25074033875755,4723.510850254659,1
-11.183894513774437,3.3193498792005416,-1.8267788829380422,-121.60609225413407,126.6890883655864,-125.02942750133761,122.24706628607673,1.7763568394002505e-14,-18.914893617021278,2.822222222222223,-14.111111111111105,-28.828220858895705,-1.2434497875801753e-14,2.396226415094347,9.071428571428577,9.51801284947166,108.46001171878513,5.443341091971007,54.06372534795215,42.25074033875755,4723.510850254659,1
-11.811867200376744,3.1519877004173216,-1.4575363427697179,-121.87136640557009,126.73350431335976,-125.0067772427323,122.3276244846178,1.7763568394002505e-14,-18.914893617021278,2.822222222222223,-14.111111111111105,-28.828220858895705,-1.2434497875801753e-14,2.396226415094347,9.071428571428577,9.51801284947166,108.46001171878513,5.473797081187928,58.72947215092183,42.16029681625238,4766.108752655646,1
-11.811867200376744,3.1519877004173216,-1.4575363427697179,-121.87136640557009,126.73350431335976,-125.0067772427323,122.3276244846178,10.583333333333352,-13.510638297872342,-8.466666666666667,-7.839506172839501,-30.38650306748466,7.055555555555543,7.188679245283026,18.142857142857146,12.89671743523653,64.43497653851607,5.473797081187928,58.72947215092183,42.16029681625238,4766.108752655646,1
-11.811867200376744,3.1519877004173216,-1.4575363427697179,-121.87136640557009,126.73350431335976,-125.0067772427323,122.3276244846178,1.7763568394002505e-14,-24.319148936170215,-19.755555555555556,-10.975308641975303,-28.828220858895705,-1.2434497875801753e-14,-16.77358490566037,18.142857142857146,14.849334505139291,111.38874741335933,5.473797081187928,58.72947215092183,42.16029681625238,4766.108752655646,1
-12.439839886979051,2.873050735778622,-1.2243305279265657,-122.04821583986075,126.7186989974353,-125.07472801854824,122.46188814885294,1.7763568394002505e-14,-24.319148936170215,-19.755555555555556,-10.975308641975303,-28.828220858895705,-1.2434497875801753e-14,-16.77358490566037,18.142857142857146,14.849334505139291,111.38874741335933,5.51240705022808,62.843467104616025,42.04853236785531,4800.64158629674,1
-12.439839886979051,2.873050735778622,-1.2243305279265657,-122.04821583986075,126.7186989974353,-125.07472801854824,122.46188814885294,-10.583333333333314,-45.93617021276596,-14.11111111111111,-14.111111111111105,-28.828220858895705,7.055555555555543,16.773584905660385,13.607142857142861,18.875778743196996,159.62572513610976,5.51240705022808,62.843467104616025,42.04853236785531,4800.64158629674,1
-12.439839886979051,2.873050735778622,-1.2243305279265657,-122.04821583986075,126.7186989974353,-125.07472801854824,122.46188814885294,10.583333333333352,-13.510638297872342,-2.822222222222222,-14.111111111111105,-35.061349693251536,-21.16666666666668,-11.981132075471692,4.53571428571429,14.221520960705401,103.58080988823146,5.51240705022808,62.843467104616025,42.04853236785531,4800.64158629674,1
-12.320226041911946,2.4825389852844424,-1.3214996174445457,-122.22506527415146,126.7186989974353,-125.1653290529695,122.59615181308804,10.583333333333352,-13.510638297872342,-2.822222222222222,-14.111111111111105,-35.061349693251536,-21.16666666666668,-11.981132075471692,4.53571428571429,14.221520960705401,103.58080988823146,5.374754881546978,59.09409085028637,42.00970129229348,4826.215467159888,1
-12.320226041911946,2.4825389852844424,-1.3214996174445457,-122.22506527415146,126.7186989974353,-125.1653290529695,122.59615181308804,31.75000000000002,-18.914893617021278,-2.822222222222222,-14.111111111111105,-31.94478527607362,-28.222222222222236,-40.73584905660377,9.071428571428577,22.19656400958535,170.01254473369778,5.374754881546978,59.09409085028637,42.00970129229348,4826.215467159888,1
-12.679067577113264,2.928838128706362,-1.39923488905893,-122.31348999129682,126.70389368151083,-125.23327982878544,122.73041547732318,31.75000000000002,-18.914893617021278,-2.822222222222222,-14.111111111111105,-31.94478527607362,-28.222222222222236,-40.73584905660377,9.071428571428577,22.19656400958535,170.01254473369778,5.669046864959519,64.92892700656064,42.21385433635404,4812.548645558621,1
-12.679067577113264,2.928838128706362,-1.39923488905893,-122.31348999129682,126.70389368151083,-125.23327982878544,122.73041547732318,10.583333333333352,-24.319148936170215,-2.822222222222222,-14.111111111111105,-28.828220858895705,-1.2434497875801753e-14,-21.56603773584905,9.071428571428577,13.912687846126278,105.78062821366689,5.669046864959519,64.92892700656064,42.21385433635404,4812.548645558621,1
-12.679067577113264,2.928838128706362,-1.39923488905893,-122.31348999129682,126.70389368151083,-125.23327982878544,122.73041547732318,1.7763568394002505e-14,-24.319148936170215,-2.822222222222222,-10.975308641975303,-28.828220858895705,21.166666666666654,-79.0754716981132,9.071428571428577,22.03230844943399,635.8253649175041,5.669046864959519,64.92892700656064,42.21385433635404,4812.548645558621,1
-12.11090181304451,2.4825389852844424,-1.613006885998486,-122.4461270670148,126.70389368151083,-125.27858034599608,122.83782640871125,1.7763568394002505e-14,-24.319148936170215,-2.822222222222222,-10.975308641975303,-28.828220858895705,21.166666666666654,-79.0754716981132,9.071428571428577,22.03230844943399,635.8253649175041,5.402149228109146,56.657968036235545,42.18055764609924,4832.110247365784,1
-12.11090181304451,2.4825389852844424,-1.613006885998486,-122.4461270670148,126.70389368151083,-125.27858034599608,122.83782640871125,31.75000000000002,-8.106382978723406,14.111111111111112,-7.839506172839501,-28.828220858895705,7.055555555555543,-69.49056603773585,9.071428571428577,22.031596410786214,463.3291574597091,5.402149228109146,56.657968036235545,42.18055764609924,4832.110247365784,1
-12.11090181304451,2.4825389852844424,-1.613006885998486,-122.4461270670148,126.70389368151083,-125.27858034599608,122.83782640871125,1.7763568394002505e-14,-24.319148936170215,2.822222222222223,-10.975308641975303,-28.828220858895705,21.166666666666654,-7.188679245283012,9.071428571428577,13.046459392830215,110.17493468755002,5.402149228109146,56.657968036235545,42.18055764609924,4832.110247365784,1
-9.957852601836597,2.928838128706362,-1.39923488905893,-123.02088772845957,126.79272557705758,-125.18797931157482,123.02579553864042,1.7763568394002505e-14,-24.319148936170215,2.822222222222223,-10.975308641975303,-28.828220858895705,21.166666666666654,-7.188679245283012,9.071428571428577,13.046459392830215,110.17493468755002,4.761975206533963,43.008158530873565,42.44965358207495,4869.377750421337,1
-9.957852601836597,2.928838128706362,-1.39923488905893,-123.02088772845957,126.79272557705758,-125.18797931157482,123.02579553864042,10.583333333333352,-45.93617021276596,-8.466666666666667,-14.111111111111105,-30.38650306748466,14.111111111111098,-55.11320754716981,9.071428571428577,23.472441452633902,332.5031436344188,4.761975206533963,43.008158530873565,42.44965358207495,4869.377750421337,1
-9.957852601836597,2.928838128706362,-1.39923488905893,-123.02088772845957,126.79272557705758,-125.18797931157482,123.02579553864042,10.583333333333352,-18.914893617021278,-8.466666666666667,-17.246913580246908,-36.61963190184049,-49.3888888888889,-59.90566037735849,3.552713678800501e-15,25.14074854566951,450.2015213623834,4.761975206533963,43.008158530873565,42.44965358207495,4869.377750421337,1
-9.569107605368503,3.933011201405681,-1.2826319816373537,-123.59564838990428,126.91116810445325,-125.0067772427323,123.24061740141663,10.583333333333352,-18.914893617021278,-8.466666666666667,-17.246913580246908,-36.61963190184049,-49.3888888888889,-59.90566037735849,3.552713678800501e-15,25.14074854566951,450.2015213623834,4.928250262803846,46.36263739129316,42.937097190982435,4881.107538633968,1
-9.569107605368503,3.933011201405681,-1.2826319816373537,-123.59564838990428,126.91116810445325,-125.0067772427323,123.24061740141663,10.583333333333352,-18.914893617021278,-8.466666666666667,-10.975308641975303,-28.828220858895705,42.33333333333332,-16.77358490566037,18.142857142857146,19.377274812467896,127.39794297848827,4.928250262803846,46.36263739129316,42.937097190982435,4881.107538633968,1
-9.569107605368503,3.933011201405681,-1.2826319816373537,-123.59564838990428,126.91116810445325,-125.0067772427323,123.24061740141663,21.166666666666686,-45.93617021276596,-14.11111111111111,-10.975308641975303,-28.828220858895705,21.166666666666654,-50.32075471698113,9.071428571428577,25.19704093081139,241.73952315700083,4.928250262803846,46.36263739129316,42.937097190982435,4881.107538633968,1
-10.615728749705681,4.211948166044381,-1.39923488905893,-123.90513489991298,126.97038936815107,-124.8482254324951,123.4285865313458,21.166666666666686,-45.93617021276596,-14.11111111111111,-10.975308641975303,-28.828220858895705,21.166666666666654,-50.32075471698113,9.071428571428577,25.19704093081139,241.73952315700083,5.408970601602998,56.048189513180844,43.17210598500543,4890.344307326107,1
-10.615728749705681,4.211948166044381,-1.39923488905893,-123.90513489991298,126.97038936815107,-124.8482254324951,123.4285865313458,1.7763568394002505e-14,-51.34042553191489,-14.11111111111111,-7.839506172839501,-31.94478527607362,-1.2434497875801753e-14,-26.35849056603773,9.071428571428577,17.583218403675684,317.2277428217453,5.408970601602998,56.048189513180844,43.17210598500543,4890.344307326107,1
-10.615728749705681,4.211948166044381,-1.39923488905893,-123.90513489991298,126.97038936815107,-124.8482254324951,123.4285865313458,1.7763568394002505e-14,-18.914893617021278,19.755555555555556,-7.839506172839501,-30.38650306748466,-7.055555555555568,11.981132075471706,9.071428571428577,13.125571826919607,90.03238880301008,5.408970601602998,56.048189513180844,43.17210598500543,4890.344307326107,1
-10.406404520838246,4.937184274105,-1.3409334353481417,-124.170409051349,126.97038936815107,-124.64437310504726,123.72396659266305,1.7763568394002505e-14,-18.914893617021278,19.755555555555556,-7.839506172839501,-30.38650306748466,-7.055555555555568,11.981132075471706,9.071428571428577,13.125571826919607,90.03238880301008,5.561507410097129,59.503874180652375,43.482842253600715,4886.0958318296325,1
-10.406404520838246,4.937184274105,-1.3409334353481417,-124.170409051349,126.97038936815107,-124.64437310504726,123.72396659266305,10.583333333333352,-29.72340425531915,2.822222222222223,-17.246913580246908,-31.94478527607362,-14.111111111111121,-31.15094339622641,4.53571428571429,17.764803432530883,140.964212142157,5.561507410097129,59.503874180652375,43.482842253600715,4886.0958318296325,1
-10.406404520838246,4.937184274105,-1.3409334353481417,-124.170409051349,126.97038936815107,-124.64437310504726,123.72396659266305,21.166666666666686,-24.319148936170215,-8.466666666666667,-17.246913580246908,-25.71165644171779,21.166666666666654,-31.15094339622641,13.607142857142861,20.354475651438023,51.2577841215416,5.561507410097129,59.503874180652375,43.482842253600715,4886.0958318296325,1
-10.914763362373447,3.5982868438392415,-1.3798010711553337,-124.39147084421239,126.98519468407554,-124.53112181202069,123.96564118828626,21.166666666666686,-24.319148936170215,-8.466666666666667,-17.246913580246908,-25.71165644171779,21.166666666666654,-31.15094339622641,13.607142857142861,20.354475651438023,51.2577841215416,5.297617092456008,54.38758191206943,43.12318625306899,4954.630980071208,1
-10.914763362373447,3.5982868438392415,-1.3798010711553337,-124.39147084421239,126.98519468407554,-124.53112181202069,123.96564118828626,10.583333333333352,-40.53191489361702,-2.822222222222222,-14.111111111111105,-30.38650306748466,-7.055555555555568,-11.981132075471692,4.53571428571429,15.250935818063738,176.92054008504365,5.297617092456008,54.38758191206943,43.12318625306899,4954.630980071208,1
-10.914763362373447,3.5982868438392415,-1.3798010711553337,-124.39147084421239,126.98519468407554,-124.53112181202069,123.96564118828626,-31.749999999999986,-24.319148936170215,8.466666666666669,-26.654320987654316,-30.38650306748466,-28.222222222222236,-55.11320754716981,13.607142857142861,27.314901535563845,193.60619832277942,5.297617092456008,54.38758191206943,43.12318625306899,4954.630980071208,1
-10.914763362373447,3.4867120579837616,-1.8850803366488302,-124.25883376849436,126.94077873630218,-124.25931870875691,124.09990485252139,-31.749999999999986,-24.319148936170215,8.466666666666669,-26.654320987654316,-30.38650306748466,-28.222222222222236,-55.11320754716981,13.607142857142861,27.314901535563845,193.60619832277942,5.428851919002013,52.96563722654078,43.210208721042314,4927.30102260455,1
-10.914763362373447,3.4867120579837616,-1.8850803366488302,-124.25883376849436,126.94077873630218,-124.25931870875691,124.09990485252139,21.166666666666686,29.723404255319146,-2.822222222222222,-4.703703703703698,-8.570552147239262,42.33333333333332,-7.188679245283012,9.071428571428577,15.69749876814949,198.5485664765795,5.428851919002013,52.96563722654078,43.210208721042314,4927.30102260455,1
-10.914763362373447,3.4867120579837616,-1.8850803366488302,-124.25883376849436,126.94077873630218,-124.25931870875691,124.09990485252139,42.33333333333336,-56.744680851063826,-8.466666666666667,-14.111111111111105,-41.29447852760736,-7.055555555555568,31.150943396226424,9.071428571428577,26.27852475162411,366.58254630385596,5.428851919002013,52.96563722654078,43.210208721042314,4927.30102260455,1
-10.735342594772789,6.555018669009459,-1.535271614384102,-124.25883376849436,127.0,-123.76101301943999,124.12675758536842,42.33333333333336,-56.744680851063826,-8.466666666666667,-14.111111111111105,-41.29447852760736,-7.055555555555568,31.150943396226424,9.071428571428577,26.27852475162411,366.58254630385596,6.275210959388783,74.84178259097733,44.11637468396264,4823.409776209985,1
-10.735342594772789,6.555018669009459,-1.535271614384102,-124.25883376849436,127.0,-123.76101301943999,124.12675758536842,-52.91666666666666,-110.78723404255318,-19.755555555555556,29.790123456790134,5.45398773006135,21.166666666666654,-16.77358490566037,9.071428571428577,33.21440594942281,1195.3659850081347,6.275210959388783,74.84178259097733,44.11637468396264,4823.409776209985,1
-10.735342594772789,6.555018669009459,-1.535271614384102,-124.25883376849436,127.0,-123.76101301943999,124.12675758536842,31.75000000000002,2.702127659574465,-59.26666666666667,-1.5679012345678949,-7.012269938650306,-1.2434497875801753e-14,-21.56603773584905,9.071428571428577,16.617053975842126,416.84356470035243,6.275210959388783,74.84178259097733,44.11637468396264,4823.409776209985,1
-18.031787143866268,12.468482319349894,-2.487528691660307,-122.00400348128807,126.5410352063418,-122.99090422685927,124.09990485252139,31.75000000000002,2.702127659574465,-59.26666666666667,-1.5679012345678949,-7.012269938650306,-1.2434497875801753e-14,-21.56603773584905,9.071428571428577,16.617053975842126,416.84356470035243,10.995932718292158,232.59544558653855,45.65333816409943,4396.972929612536,1
-18.031787143866268,12.468482319349894,-2.487528691660307,-122.00400348128807,126.5410352063418,-122.99090422685927,124.09990485252139,21.166666666666686,-18.914893617021278,-8.466666666666667,-20.38271604938271,-36.61963190184049,-1.2434497875801753e-14,-7.188679245283012,9.071428571428577,15.226335339786178,130.45365707466203,10.995932718292158,232.59544558653855,45.65333816409943,4396.972929612536,1
-18.031787143866268,12.468482319349894,-2.487528691660307,-122.00400348128807,126.5410352063418,-122.99090422685927,124.09990485252139,1.7763568394002505e-14,-35.12765957446808,8.466666666666669,-7.839506172839501,-35.061349693251536,7.055555555555543,-40.73584905660377,13.607142857142861,18.486716197066,250.95260060833633,10.995932718292158,232.59544558653855,45.65333816409943,4396.972929612536,1
-25.148810925359086,13.863167142543393,-3.9450650344300087,-117.49434290687554,125.50466309162977,-122.17549491706795,124.01934665398032,1.7763568394002505e-14,-35.12765957446808,8.466666666666669,-7.839506172839501,-35.061349693251536,7.055555555555543,-40.73584905660377,13.607142857142861,18.486716197066,250.95260060833633,14.319014367444161,381.4444009744311,45.10085836128298,3955.204640846453,1
-25.148810925359086,13.863167142543393,-3.9450650344300087,-117.49434290687554,125.50466309162977,-122.17549491706795,124.01934665398032,42.33333333333336,24.31914893617021,47.97777777777778,7.8395061728395135,-39.736196319018404,-14.111111111111121,-26.35849056603773,9.071428571428577,26.468374098464587,242.486872889788,14.319014367444161,381.4444009744311,45.10085836128298,3955.204640846453,1
-25.148810925359086,13.863167142543393,-3.9450650344300087,-117.49434290687554,125.50466309162977,-122.17549491706795,124.01934665398032,1.7763568394002505e-14,-35.12765957446808,-14.11111111111111,-29.79012345679012,-42.852760736196316,-7.055555555555568,21.566037735849065,4.53571428571429,19.37987030696057,241.09986417723738,14.319014367444161,381.4444009744311,45.10085836128298,3955.204640846453,1
-29.843654344243003,17.99143421919615,-4.314307574598333,-111.43724978241949,124.0093261832595,-121.22418405564473,124.12675758536842,1.7763568394002505e-14,-35.12765957446808,-14.11111111111111,-29.79012345679012,-42.852760736196316,-7.055555555555568,21.566037735849065,4.53571428571429,19.37987030696057,241.09986417723738,17.383132046012495,572.9148935547106,44.58099719207132,3399.0848311314185,1
-29.843654344243003,17.99143421919615,-4.314307574598333,-111.43724978241949,124.0093261832595,-121.22418405564473,124.12675758536842,10.583333333333352,-13.510638297872342,-2.822222222222222,-36.06172839506172,-41.29447852760736,-7.055555555555568,-21.56603773584905,13.607142857142861,18.31264211558056,189.34253373826033,17.383132046012495,572.9148935547106,44.58099719207132,3399.0848311314185,1
-29.843654344243003,17.99143421919615,-4.314307574598333,-111.43724978241949,124.0093261832595,-121.22418405564473,124.12675758536842,74.08333333333336,18.91489361702127,47.97777777777778,7.8395061728395135,-28.828220858895705,56.44444444444443,-2.3962264150943327,36.28571428571429,34.09626461314008,606.9190000118298,17.383132046012495,572.9148935547106,44.58099719207132,3399.0848311314185,1
-33.19284200612198,21.05974083022185,-6.141086457536359,-103.74429939077459,122.12905106085336,-119.7972177635099,124.07305211967436,74.08333333333336,18.91489361702127,47.97777777777778,7.8395061728395135,-28.828220858895705,56.44444444444443,-2.3962264150943327,36.28571428571429,34.09626461314008,606.9190000118298,20.131223097960063,735.8375379688721,43.648375559510924,2764.281607922694,1
-33.19284200612198,21.05974083022185,-6.141086457536359,-103.74429939077459,122.12905106085336,-119.7972177635099,124.07305211967436,105.83333333333336,127.0,127.00000000000001,14.111111111111118,-14.80368098159509,35.277777777777764,7.188679245283026,18.142857142857146,56.16967994899469,2894.5807552564866,20.131223097960063,735.8375379688721,43.648375559510924,2764.281607922694,1
-33.19284200612198,21.05974083022185,-6.141086457536359,-103.74429939077459,122.12905106085336,-119.7972177635099,124.07305211967436,10.583333333333352,-18.914893617021278,-8.466666666666667,-17.246913580246908,-25.71165644171779,-7.055555555555568,-31.15094339622641,13.607142857142861,16.592138180988854,71.84771064635093,20.131223097960063,735.8375379688721,43.648375559510924,2764.281607922694,1
-24.879679773958095,30.2088732703712,-9.30879877582251,-97.02402088772845,120.30799720214503,-117.46424112716247,124.95919230362615,10.583333333333352,-18.914893617021278,-8.466666666666667,-17.246913580246908,-25.71165644171779,-7.055555555555568,-31.15094339622641,13.607142857142861,16.592138180988854,71.84771064635093,21.465783940050603,806.474569254417,45.513897644640714,2099.1728758579866,1
-24.879679773958095,30.2088732703712,-9.30879877582251,-97.02402088772845,120.30799720214503,-117.46424112716247,124.95919230362615,-52.91666666666666,-127.0,-81.84444444444445,-26.654320987654316,-38.17791411042945,-35.277777777777786,-35.94339622641509,9.071428571428577,50.86074359810205,1388.5586984865647,21.465783940050603,806.474569254417,45.513897644640714,2099.1728758579866,1
-24.879679773958095,30.2088732703712,-9.30879877582251,-97.02402088772845,120.30799720214503,-117.46424112716247,124.95919230362615,42.33333333333336,-2.7021276595744723,31.044444444444448,-4.703703703703698,-21.036809815950917,-1.2434497875801753e-14,21.566037735849065,4.53571428571429,15.990271372321283,238.28554155007873,21.465783940050603,806.474569254417,45.513897644640714,2099.1728758579866,1
3.0501530492112003,41.64528882055789,-17.626472838561604,-94.06179286335947,119.67136861739334,-112.25468164794007,126.2212707474363,42.33333333333336,-2.7021276595744723,31.044444444444448,-4.703703703703698,-21.036809815950917,-1.2434497875801753e-14,21.566037735849065,4.53571428571429,15.990271372321283,238.28554155007873,20.773971569443564,905.0415155811779,51.11118484082632,1527.7919274232167,1
3.0501530492112003,41.64528882055789,-17.626472838561604,-94.06179286335947,119.67136861739334,-112.25468164794007,126.2212707474363,-21.16666666666665,-40.53191489361702,-25.400000000000002,-32.925925925925924,-38.17791411042945,-14.111111111111121,-40.73584905660377,3.552713678800501e-15,26.631172720544242,208.9245140007044,20.773971569443564,905.0415155811779,51.11118484082632,1527.7919274232167,1
3.0501530492112003,41.64528882055789,-17.626472838561604,-94.06179286335947,119.67136861739334,-112.25468164794007,126.2212707474363,-31.749999999999986,-56.744680851063826,-25.400000000000002,-7.839506172839501,-27.26993865030675,14.111111111111098,-35.94339622641509,9.071428571428577,26.016257697895604,262.409343499114,20.773971569443564,905.0415155811779,51.11118484082632,1527.7919274232167,1
19.855898281139623,47.55875247089833,-32.648814078041326,-91.49747606614449,120.29319188622057,-102.74157303370787,124.47584311237974,-31.749999999999986,-56.744680851063826,-25.400000000000002,-7.839506172839501,-27.26993865030675,14.111111111111098,-35.94339622641509,9.071428571428577,26.016257697895604,262.409343499114,33.35448827669309,1659.574446980324,57.23501420502805,936.0137853080419,1
19.855898281139623,47.55875247089833,-32.648814078041326,-91.49747606614449,120.29319188622057,-102.74157303370787,124.47584311237974,21.166666666666686,-51.34042553191489,-14.11111111111111,-23.518518518518512,-39.736196319018404,-1.2434497875801753e-14,7.188679245283026,9.071428571428577,20.76662824549265,299.8602393859455,33.35448827669309,1659.574446980324,57.23501420502805,936.0137853080419,1
19.855898281139623,47.55875247089833,-32.648814078041326,-91.49747606614449,120.29319188622057,-102.74157303370787,124.47584311237974,21.166666666666686,-35.12765957446808,14.111111111111112,-10.975308641975303,-27.26993865030675,14.111111111111098,-21.56603773584905,9.071428571428577,19.17490775786458,78.61460172650416,33.35448827669309,1659.574446980324,57.23501420502805,936.0137853080419,1
-8.343065693430663,55.36898748078192,-42.75439938791126,-84.90983463881639,119.84903240848683,-93.70411985018727,121.414631567819,21.166666666666686,-35.12765957446808,14.111111111111112,-10.975308641975303,-27.26993865030675,14.111111111111098,-21.56603773584905,9.071428571428577,19.17490775786458,78.61460172650416,35.48881752070795,2478.594109481636,61.01107383583653,468.14503412673366,1
-8.343065693430663,55.36898748078192,-42.75439938791126,-84.90983463881639,119.84903240848683,-93.70411985018727,121.414631567819,42.33333333333336,-18.914893617021278,8.466666666666669,-26.654320987654316,-38.17791411042945,-1.2434497875801753e-14,-11.981132075471692,9.071428571428577,19.449961170250667,227.00073359676918,35.48881752070795,2478.594109481636,61.01107383583653,468.14503412673366,1
-8.343065693430663,55.36898748078192,-42.75439938791126,-84.90983463881639,119.84903240848683,-93.70411985018727,121.414631567819,31.75000000000002,-2.7021276595744723,2.822222222222223,-17.246913580246908,-27.26993865030675,7.055555555555543,45.52830188679246,4.53571428571429,17.363846730051584,256.5127098646474,35.48881752070795,2478.594109481636,61.01107383583653,468.14503412673366,1
-44.22721921356252,68.03272567537888,-50.11981637337415,-71.0271540469974,117.22849148985779,-84.73461744248262,117.49413257215348,31.75000000000002,-2.7021276595744723,2.822222222222223,-17.246913580246908,-27.26993865030675,7.055555555555543,45.52830188679246,4.53571428571429,17.363846730051584,256.5127098646474,54.126587087438516,4432.840186723056,63.05989869858348,127.82594825558459,1
-44.22721921356252,68.03272567537888,-50.11981637337415,-71.0271540469974,117.22849148985779,-84.73461744248262,117.49413257215348,-10.583333333333314,-45.93617021276596,-2.822222222222222,-14.111111111111105,-28.828220858895705,-1.2434497875801753e-14,-26.35849056603773,3.552713678800501e-15,16.079943538045754,269.50667751966176,54.126587087438516,4432.840186723056,63.05989869858348,127.82594825558459,1
-44.22721921356252,68.03272567537888,-50.11981637337415,-71.0271540469974,117.22849148985779,-84.73461744248262,117.49413257215348,42.33333333333336,-13.510638297872342,25.400000000000002,-14.111111111111105,-17.920245398773005,-21.16666666666668,-11.981132075471692,31.750000000000004,22.271640860403522,110.2138601341036,54.126587087438516,4432.840186723056,63.05989869858348,127.82594825558459,1
-65.45867671297387,74.44827586206898,-54.006579954093354,-53.43063533507399,113.11261366285848,-75.99161762083111,113.1439898509356,42.33333333333336,-13.510638297872342,25.400000000000002,-14.111111111111105,-17.920245398773005,-21.16666666666668,-11.981132075471692,31.750000000000004,22.271640860403522,110.2138601341036,64.63784417637874,6034.292646960184,60.62849705041211,143.32264285338456,1
-65.45867671297387,74.44827586206898,-54.006579954093354,-53.43063533507399,113.11261366285848,-75.99161762083111,113.1439898509356,95.25000000000003,45.936170212765944,8.466666666666669,-36.06172839506172,-47.52760736196319,7.055555555555543,7.188679245283026,22.67857142857143,33.770622358233446,900.8337849261958,64.63784417637874,6034.292646960184,60.62849705041211,143.32264285338456,1
-65.45867671297387,74.44827586206898,-54.006579954093354,-53.43063533507399,113.11261366285848,-75.99161762083111,113.1439898509356,-42.333333333333314,-29.72340425531915,-19.755555555555556,-7.839506172839501,-21.036809815950917,70.55555555555554,-26.35849056603773,-9.071428571428566,28.33426047825254,414.6262567735943,64.63784417637874,6034.292646960184,60.62849705041211,143.32264285338456,1
-70.12361667059102,72.43992971667035,-60.1476664116297,-35.259355961705865,108.59699230589882,-66.75031210986268,107.45121048736651,-42.333333333333314,-29.72340425531915,-19.755555555555556,-7.839506172839501,-21.036809815950917,70.55555555555554,-26.35849056603773,-9.071428571428566,28.33426047825254,414.6262567735943,67.57040426629702,6333.892498193884,55.948984030001974,358.8204664934318,1
-70.12361667059102,72.43992971667035,-60.1476664116297,-35.259355961705865,108.59699230589882,-66.75031210986268,107.45121048736651,10.583333333333352,-24.319148936170215,-8.466666666666667,-10.975308641975303,-27.26993865030675,-14.111111111111121,-2.3962264150943327,27.21428571428572,15.667002433617933,88.72319005257192,67.57040426629702,6333.892498193884,55.948984030001974,358.8204664934318,1
-70.12361667059102,72.43992971667035,-60.1476664116297,-35.259355961705865,108.59699230589882,-66.75031210986268,107.45121048736651,1.7763568394002505e-14,-51.34042553191489,-25.400000000000002,-32.925925925925924,-47.52760736196319,-14.111111111111121,31.150943396226424,9.071428571428577,26.44093023732127,326.1146523575762,67.57040426629702,6333.892498193884,55.948984030001974,358.8204664934318,1
-78.61619967035556,74.55985064792446,-71.30267788829381,-15.540644038294204,103.29668920494288,-56.44444444444444,99.90559255735276,1.7763568394002505e-14,-51.34042553191489,-25.400000000000002,-32.925925925925924,-47.52760736196319,-14.111111111111121,31.150943396226424,9.071428571428577,26.44093023732127,326.1146523575762,74.82624273552462,7465.377870490673,53.801057524837496,1100.5467237174678,1
-78.61619967035556,74.55985064792446,-71.30267788829381,-15.540644038294204,103.29668920494288,-56.44444444444444,99.90559255735276,-21.16666666666665,-29.72340425531915,-19.755555555555556,-17.246913580246908,-36.61963190184049,-7.055555555555568,-16.77358490566037,3.552713678800501e-15,18.542664052605588,134.39069653213423,74.82624273552462,7465.377870490673,53.801057524837496,1100.5467237174678,1
-78.61619967035556,74.55985064792446,-71.30267788829381,-15.540644038294204,103.29668920494288,-56.44444444444444,99.90559255735276,31.75000000000002,-29.72340425531915,8.466666666666669,-1.5679012345678949,-31.94478527607362,-7.055555555555568,-31.15094339622641,13.607142857142861,19.408299905194024,168.28785133041023,74.82624273552462,7465.377870490673,53.801057524837496,1100.5467237174678,1
-85.88274075818225,79.69229079727654,-78.94016832440705,4.6644038294168695,97.15248309629285,-45.368467986445516,91.15160164922294,31.75000000000002,-29.72340425531915,8.466666666666669,-1.5679012345678949,-31.94478527607362,-7.055555555555568,-31.15094339622641,13.607142857142861,19.408299905194024,168.28785133041023,81.50506662662195,8771.257912263669,54.432287650366824,1857.7731170652278,1
-85.88274075818225,79.69229079727654,-78.94016832440705,4.6644038294168695,97.15248309629285,-45.368467986445516,91.15160164922294,31.75000000000002,-35.12765957446808,-2.822222222222222,-10.975308641975303,-25.71165644171779,-7.055555555555568,-11.981132075471692,13.607142857142861,17.378834671069193,141.9740218231628,81.50506662662195,8771.257912263669,54.432287650366824,1857.7731170652278,1
-85.88274075818225,79.69229079727654,-78.94016832440705,4.6644038294168695,97.15248309629285,-45.368467986445516,91.15160164922294,74.08333333333336,13.510638297872333,2.822222222222223,-17.246913580246908,-30.38650306748466,-7.055555555555568,-55.11320754716981,9.071428571428577,26.161225271914176,656.2711178312612,81.50506662662195,8771.257912263669,54.432287650366824,1857.7731170652278,1
-91.80362608900401,89.8455963101252,-82.57429227237951,24.294691035683172,90.14956866402426,-33.68093454610309,82.0485252140818,74.08333333333336,13.510638297872333,2.822222222222223,-17.246913580246908,-30.38650306748466,-7.055555555555568,-55.11320754716981,9.071428571428577,26.161225271914176,656.2711178312612,88.07450489050291,10468.37309661839,65.57152653939596,1291.0508275027576,1
-91.80362608900401,89.8455963101252,-82.57429227237951,24.294691035683172,90.14956866402426,-33.68093454610309,82.0485252140818,-10.583333333333314,-40.53191489361702,-8.466666666666667,-14.111111111111105,-33.50306748466258,-1.2434497875801753e-14,-11.981132075471692,-4.535714285714281,15.464117481322084,199.8736136552513,88.07450489050291,10468.37309661839,65.57152653939596,1291.0508275027576,1
-91.80362608900401,89.8455963101252,-82.57429227237951,24.294691035683172,90.14956866402426,-33.68093454610309,82.0485252140818,-42.333333333333314,-35.12765957446808,-8.466666666666667,-14.111111111111105,-33.50306748466258,7.055555555555543,35.9433962264151,3.552713678800501e-15,22.067598744026547,266.4577560392795,88.07450489050291,10468.37309661839,65.57152653939596,1291.0508275027576,1
-107.2338121026607,97.9347682846475,-85.81973986228004,44.5881636205396,81.57729074376311,-21.948100588550027,72.7574796490115,-42.333333333333314,-35.12765957446808,-8.466666666666667,-14.111111111111105,-33.50306748466258,7.055555555555543,35.9433962264151,3.552713678800501e-15,22.067598744026547,266.4577560392795,96.99610674986275,12719.738022063142,76.11422392248905,782.1128370403075,1
-107.2338121026607,97.9347682846475,-85.81973986228004,44.5881636205396,81.57729074376311,-21.948100588550027,72.7574796490115,31.75000000000002,-13.510638297872342,-2.822222222222222,-10.975308641975303,-31.94478527607362,-1.2434497875801753e-14,-21.56603773584905,13.607142857142861,15.772016878891929,142.81252579185042,96.99610674986275,12719.738022063142,76.11422392248905,782.1128370403075,1
-107.2338121026607,97.9347682846475,-85.81973986228004,44.5881636205396,81.57729074376311,-21.948100588550027,72.7574796490115,1.7763568394002505e-14,-29.72340425531915,-8.466666666666667,-14.111111111111105,-31.94478527607362,-7.055555555555568,-45.52830188679245,-4.535714285714281,17.670692379654106,259.98726509389843,96.99610674986275,12719.738022063142,76.11422392248905,782.1128370403075,1
-120.09230044737463,104.40610586426534,-88.40443764345831,64.66057441253258,71.52448123105619,-10.237916889602289,63.25161222116502,1.7763568394002505e-14,-29.72340425531915,-8.466666666666667,-14.111111111111105,-31.94478527607362,-7.055555555555568,-45.52830188679245,-4.535714285714281,17.670692379654106,259.98726509389843,104.30094798503275,14763.260128881633,85.82370597341874,399.92194955972843,1
-120.09230044737463,104.40610586426534,-88.40443764345831,64.66057441253258,71.52448123105619,-10.237916889602289,63.25161222116502,-10.583333333333314,-24.319148936170215,-8.466666666666667,-10.975308641975303,-30.38650306748466,7.055555555555543,-2.3962264150943327,13.607142857142861,13.473735684177862,86.75057685618677,104.30094798503275,14763.260128881633,85.82370597341874,399.92194955972843,1
-120.09230044737463,104.40610586426534,-88.40443764345831,64.66057441253258,71.52448123105619,-10.237916889602289,63.25161222116502,95.25000000000003,2.702127659574465,25.400000000000002,-4.703703703703698,-33.50306748466258,14.111111111111098,-11.981132075471692,36.28571428571429,27.992107040029733,894.3519921147696,104.30094798503275,14763.260128881633,85.82370597341874,399.92194955972843,1
-127.0,112.83000219635407,-89.76480489671003,82.96449086161874,60.46491023548613,1.5402175851614004,53.74574479331852,95.25000000000003,2.702127659574465,25.400000000000002,-4.703703703703698,-33.50306748466258,14.111111111111098,-11.981132075471692,36.28571428571429,27.992107040029733,894.3519921147696,109.86493569768804,16658.257594826522,95.18643265156095,245.03272745542847,1
-127.0,112.83000219635407,-89.76480489671003,82.96449086161874,60.46491023548613,1.5402175851614004,53.74574479331852,31.75000000000002,-13.510638297872342,8.466666666666669,-10.975308641975303,-31.94478527607362,-14.111111111111121,-16.77358490566037,9.071428571428577,17.075440433848506,90.48758477231908,109.86493569768804,16658.257594826522,95.18643265156095,245.03272745542847,1
-127.0,112.83000219635407,-89.76480489671003,82.96449086161874,60.46491023548613,1.5402175851614004,53.74574479331852,1.7763568394002505e-14,-29.72340425531915,-2.822222222222222,-7.839506172839501,-30.38650306748466,7.055555555555543,31.150943396226424,3.552713678800501e-15,13.62226683370594,201.69657623770385,109.86493569768804,16658.257594826522,95.18643265156095,245.03272745542847,1
-126.58135154226514,117.12563145179004,-90.4061208875287,98.48302872062663,48.961179762182326,13.273051542714455,43.971350037001784,1.7763568394002505e-14,-29.72340425531915,-2.822222222222222,-7.839506172839501,-30.38650306748466,7.055555555555543,31.150943396226424,3.552713678800501e-15,13.62226683370594,201.69657623770385,111.37103462719462,17295.194850336065,102.00492701998179,187.78588692166892,1
-126.58135154226514,117.12563145179004,-90.4061208875287,98.48302872062663,48.961179762182326,13.273051542714455,43.971350037001784,10.583333333333352,-24.319148936170215,2.822222222222223,-10.975308641975303,-30.38650306748466,-1.2434497875801753e-14,-16.77358490566037,18.142857142857146,14.25036978121291,105.87456583366036,111.37103462719462,17295.194850336065,102.00492701998179,187.78588692166892,1
-126.58135154226514,117.12563145179004,-90.4061208875287,98.48302872062663,48.961179762182326,13.273051542714455,43.971350037001784,1.7763568394002505e-14,-24.319148936170215,-2.822222222222222,-17.246913580246908,-30.38650306748466,-1.2434497875801753e-14,-16.77358490566037,13.607142857142861,13.144439446115909,129.2112457810317,111.37103462719462,17295.194850336065,102.00492701998179,187.78588692166892,1
-121.07911466917825,120.58444981330992,-95.51721499617446,110.99512619669281,37.25017486593612,25.413590155163178,32.6932022412517,1.7763568394002505e-14,-24.319148936170215,-2.822222222222222,-17.246913580246908,-30.38650306748466,-1.2434497875801753e-14,-16.77358490566037,13.607142857142861,13.144439446115909,129.2112457810317,112.39359315955421,17625.769774450862,109.03226366872572,159.98118732212498,1
-121.07911466917825,120.58444981330992,-95.51721499617446,110.99512619669281,37.25017486593612,25.413590155163178,32.6932022412517,1.7763568394002505e-14,-45.93617021276596,-14.11111111111111,-26.654320987654316,-30.38650306748466,7.055555555555543,-11.981132075471692,4.53571428571429,17.582563411969698,240.53948451300997,112.39359315955421,17625.769774450862,109.03226366872572,159.98118732212498,1
-121.07911466917825,120.58444981330992,-95.51721499617446,110.99512619669281,37.25017486593612,25.413590155163178,32.6932022412517,-31.749999999999986,-45.93617021276596,-8.466666666666667,-17.246913580246908,-27.26993865030675,14.111111111111098,-21.56603773584905,31.750000000000004,24.762104744618302,142.56707852046455,112.39359315955421,17625.769774450862,109.03226366872572,159.98118732212498,1
-108.13091594066401,119.3013397759719,-101.40566182096404,120.01444734551785,25.850081604103522,37.78063135366506,19.266835817739704,-31.749999999999986,-45.93617021276596,-8.466666666666667,-17.246913580246908,-27.26993865030675,14.111111111111098,-21.56603773584905,31.750000000000004,24.762104744618302,142.56707852046455,109.61263917919997,16747.040089540285,113.57381631415126,111.1751184289902,1
-108.13091594066401,119.3013397759719,-101.40566182096404,120.01444734551785,25.850081604103522,37.78063135366506,19.266835817739704,-31.749999999999986,-29.72340425531915,8.466666666666669,-4.703703703703698,-25.71165644171779,-1.2434497875801753e-14,-7.188679245283012,13.607142857142861,15.143906646229148,149.79571263248025,109.61263917919997,16747.040089540285,113.57381631415126,111.1751184289902,1
-108.13091594066401,119.3013397759719,-101.40566182096404,120.01444734551785,25.850081604103522,37.78063135366506,19.266835817739704,52.916666666666686,8.106382978723403,25.400000000000002,1.5679012345679073,-28.828220858895705,-14.111111111111121,31.150943396226424,13.607142857142861,21.961046137916764,262.9900537865041,109.61263917919997,16747.040089540285,113.57381631415126,111.1751184289902,1
-89.82999764539676,114.00153744783661,-103.31017597551646,125.09886858137509,15.486360456982979,49.717317638665946,4.202452690559241,52.916666666666686,8.106382978723403,25.400000000000002,1.5679012345679073,-28.828220858895705,-14.111111111111121,31.150943396226424,13.607142857142861,21.961046137916764,262.9900537865041,102.38057035624995,14825.565116211565,114.13686066824272,118.70051564863542,1
-89.82999764539676,114.00153744783661,-103.31017597551646,125.09886858137509,15.486360456982979,49.717317638665946,4.202452690559241,21.166666666666686,-18.914893617021278,2.822222222222223,-10.975308641975303,-30.38650306748466,-7.055555555555568,-21.56603773584905,3.552713678800501e-15,14.110898438346846,111.3568707103384,102.38057035624995,14825.565116211565,114.13686066824272,118.70051564863542,1
-89.82999764539676,114.00153744783661,-103.31017597551646,125.09886858137509,15.486360456982979,49.717317638665946,4.202452690559241,21.166666666666686,-18.914893617021278,8.466666666666669,-4.703703703703698,-24.153374233128833,35.277777777777764,-11.981132075471692,-13.607142857142854,17.283919699697435,95.19259487734455,102.38057035624995,14825.565116211565,114.13686066824272,118.70051564863542,1
-82.20461502236874,116.84669448715134,-103.19357306809488,127.0,5.374329680578221,61.38220082040306,-11.34527962786765,21.166666666666686,-18.914893617021278,8.466666666666669,-4.703703703703698,-24.153374233128833,35.277777777777764,-11.981132075471692,-13.607142857142854,17.283919699697435,95.19259487734455,100.74829419253831,14746.613253847392,115.68008918508208,142.7072167641465,1
-82.20461502236874,116.84669448715134,-103.19357306809488,127.0,5.374329680578221,61.38220082040306,-11.34527962786765,-31.749999999999986,-35.12765957446808,-36.68888888888889,-29.79012345679012,-38.17791411042945,-77.61111111111111,-69.49056603773585,-45.357142857142854,45.49917575457079,325.9125580031319,100.74829419253831,14746.613253847392,115.68008918508208,142.7072167641465,1
-82.20461502236874,116.84669448715134,-103.19357306809488,127.0,5.374329680578221,61.38220082040306,-11.34527962786765,10.583333333333352,-13.510638297872342,-2.822222222222222,-23.518518518518512,-30.38650306748466,-1.2434497875801753e-14,-45.52830188679245,9.071428571428577,16.927618237206516,234.53321820753197,100.74829419253831,14746.613253847392,115.68008918508208,142.7072167641465,1
-81.81587002590064,122.87173292334727,-102.02754399387912,125.8946910356832,-4.9005595709955685,72.91118245050828,-26.624484617824304,10.583333333333352,-13.510638297872342,-2.822222222222222,-23.518518518518512,-30.38650306748466,-1.2434497875801753e-14,-45.52830188679245,9.071428571428577,16.927618237206516,234.53321820753197,102.23838231437567,15480.868553931348,116.93132265096988,168.8765326318995,1
-81.81587002590064,122.87173292334727,-102.02754399387912,125.8946910356832,-4.9005595709955685,72.91118245050828,-26.624484617824304,127.00000000000003,29.723404255319146,-8.466666666666667,4.7037037037037095,-24.153374233128833,42.33333333333332,40.73584905660378,54.42857142857143,41.44311283466587,1480.4875151658903,102.23838231437567,15480.868553931348,116.93132265096988,168.8765326318995,1
-81.81587002590064,122.87173292334727,-102.02754399387912,125.8946910356832,-4.9005595709955685,72.91118245050828,-26.624484617824304,-21.16666666666665,-29.72340425531915,-8.466666666666667,-23.518518518518512,-36.61963190184049,-1.2434497875801753e-14,-2.3962264150943327,4.53571428571429,15.803353588727513,189.3796949415418,102.23838231437567,15480.868553931348,116.93132265096988,168.8765326318995,1
-91.41488109253592,127.00000000000001,-110.73389441469014,122.18085291557873,-16.55234320354395,84.4401640806135,-43.16576805159109,-21.16666666666665,-29.72340425531915,-8.466666666666667,-23.518518518518512,-36.61963190184049,-1.2434497875801753e-14,-2.3962264150943327,4.53571428571429,15.803353588727513,189.3796949415418,109.7162585024087,17432.614851997205,119.97158244342296,69.80720474246678,1
-91.41488109253592,127.00000000000001,-110.73389441469014,122.18085291557873,-16.55234320354395,84.4401640806135,-43.16576805159109,-10.583333333333314,-51.34042553191489,-19.755555555555556,-23.518518518518512,-31.94478527607362,7.055555555555543,7.188679245283026,18.142857142857146,21.19121376988645,221.3998776655068,109.7162585024087,17432.614851997205,119.97158244342296,69.80720474246678,1
-91.41488109253592,127.00000000000001,-110.73389441469014,122.18085291557873,-16.55234320354395,84.4401640806135,-43.16576805159109,10.583333333333352,-2.7021276595744723,2.822222222222223,-4.703703703703698,-30.38650306748466,-7.055555555555568,2.396226415094347,9.071428571428577,8.715137566049611,86.13176757175458,109.7162585024087,17432.614851997205,119.97158244342296,69.80720474246678,1
-95.93030374381917,116.73511970129587,-125.79510328997705,115.72584856396861,-29.669853112613662,95.01783484929553,-62.84882122845968,10.583333333333352,-2.7021276595744723,2.822222222222223,-4.703703703703698,-30.38650306748466,-7.055555555555568,2.396226415094347,9.071428571428577,8.715137566049611,86.13176757175458,112.82017557836404,17489.899607536478,119.41869051841384,30.748636932176233,1
-95.93030374381917,116.73511970129587,-125.79510328997705,115.72584856396861,-29.669853112613662,95.01783484929553,-62.84882122845968,-21.16666666666665,-56.744680851063826,-25.400000000000002,-42.33333333333333,-59.99386503067485,-63.500000000000014,-83.86792452830188,-49.89285714285714,50.36241594411221,424.13056797673687,112.82017557836404,17489.899607536478,119.41869051841384,30.748636932176233,1
-95.93030374381917,116.73511970129587,-125.79510328997705,115.72584856396861,-29.669853112613662,95.01783484929553,-62.84882122845968,84.66666666666669,18.91489361702127,42.333333333333336,-1.5679012345678949,-36.61963190184049,-14.111111111111121,11.981132075471706,40.82142857142858,31.377012313930134,684.9584728900746,112.82017557836404,17489.899607536478,119.41869051841384,30.748636932176233,1
-107.92159171179657,94.47594992312763,-127.0,106.97180156657964,-44.10503613896013,103.4210807918673,-82.04852521408183,84.66666666666669,18.91489361702127,42.333333333333336,-1.5679012345678949,-36.61963190184049,-14.111111111111121,11.981132075471706,40.82142857142858,31.377012313930134,684.9584728900746,109.79918054497473,15063.391152837336,109.48258382990242,269.18147903108763,1
-107.92159171179657,94.47594992312763,-127.0,106.97180156657964,-44.10503613896013,103.4210807918673,-82.04852521408183,31.75000000000002,-29.72340425531915,14.111111111111112,-10.975308641975303,-22.595092024539877,14.111111111111098,21.566037735849065,22.67857142857143,20.93882953855963,56.10295479934843,109.79918054497473,15063.391152837336,109.48258382990242,269.18147903108763,1
-107.92159171179657,94.47594992312763,-127.0,106.97180156657964,-44.10503613896013,103.4210807918673,-82.04852521408183,1.7763568394002505e-14,-40.53191489361702,-14.11111111111111,-10.975308641975303,-28.828220858895705,-21.16666666666668,7.188679245283026,18.142857142857146,17.61809482005075,162.73904729692782,109.79918054497473,15063.391152837336,109.48258382990242,269.18147903108763,1
-110.04473746173771,71.88205578739294,-111.3557765876052,96.7145343777197,-58.02203310795057,109.5593008739076,-97.64996299820278,1.7763568394002505e-14,-40.53191489361702,-14.11111111111111,-10.975308641975303,-28.828220858895705,-21.16666666666668,7.188679245283026,18.142857142857146,17.61809482005075,162.73904729692782,97.76085661224528,11112.5300231649,93.31745558423928,398.1987667001133,1
-110.04473746173771,71.88205578739294,-111.3557765876052,96.7145343777197,-58.02203310795057,109.5593008739076,-97.64996299820278,21.166666666666686,2.702127659574465,19.755555555555556,-1.5679012345678949,-21.036809815950917,-1.2434497875801753e-14,31.150943396226424,13.607142857142861,13.873393398210602,129.48345494948498,97.76085661224528,11112.5300231649,93.31745558423928,398.1987667001133,1
-110.04473746173771,71.88205578739294,-111.3557765876052,96.7145343777197,-58.02203310795057,109.5593008739076,-97.64996299820278,-42.333333333333314,-56.744680851063826,-31.044444444444444,-23.518518518518512,-33.50306748466258,-42.33333333333334,-69.49056603773585,-36.28571428571428,41.90670728610077,219.96138673274686,97.76085661224528,11112.5300231649,93.31745558423928,398.1987667001133,1
-112.31740051801272,47.72611464968154,-94.99250191277736,85.92671888598784,-71.46525996735836,113.63634742286428,-109.54572364943441,-42.333333333333314,-56.744680851063826,-31.044444444444444,-23.518518518518512,-33.50306748466258,-42.33333333333334,-69.49056603773585,-36.28571428571428,41.90670728610077,219.96138673274686,85.01200569349054,7713.7803954026385,76.2151118161489,629.2643251354456,1
-112.31740051801272,47.72611464968154,-94.99250191277736,85.92671888598784,-71.46525996735836,113.63634742286428,-109.54572364943441,1.7763568394002505e-14,-35.12765957446808,-2.822222222222222,-14.111111111111105,-22.595092024539877,35.277777777777764,-7.188679245283012,40.82142857142858,19.74299631585383,256.55422320834396,85.01200569349054,7713.7803954026385,76.2151118161489,629.2643251354456,1
-112.31740051801272,47.72611464968154,-94.99250191277736,85.92671888598784,-71.46525996735836,113.63634742286428,-109.54572364943441,21.166666666666686,-13.510638297872342,2.822222222222223,-1.5679012345678949,-27.26993865030675,7.055555555555543,-21.56603773584905,13.607142857142861,13.570762902522919,87.33461000607478,85.01200569349054,7713.7803954026385,76.2151118161489,629.2643251354456,1
-122.12573581351543,14.588403250604012,-81.93297628156084,75.44838990426456,-85.36745162042433,115.49366862850007,-117.73580716777673,21.166666666666686,-13.510638297872342,2.822222222222223,-1.5679012345678949,-27.26993865030675,7.055555555555543,-21.56603773584905,13.607142857142861,13.570762902522919,87.33461000607478,72.88237178189343,4937.098407604854,57.32325647880981,1380.2132254483727,1
-122.12573581351543,14.588403250604012,-81.93297628156084,75.44838990426456,-85.36745162042433,115.49366862850007,-117.73580716777673,-21.16666666666665,-45.93617021276596,-8.466666666666667,-7.839506172839501,-28.828220858895705,7.055555555555543,-2.3962264150943327,13.607142857142861,16.9120194257034,210.7020034976218,72.88237178189343,4937.098407604854,57.32325647880981,1380.2132254483727,1
-122.12573581351543,14.588403250604012,-81.93297628156084,75.44838990426456,-85.36745162042433,115.49366862850007,-117.73580716777673,31.75000000000002,-8.106382978723406,-2.822222222222222,-20.38271604938271,-38.17791411042945,-14.111111111111121,-2.3962264150943327,18.142857142857146,16.98617875372755,168.64794236319918,72.88237178189343,4937.098407604854,57.32325647880981,1380.2132254483727,1
-117.52060277843184,-21.506039973643738,-71.78852333588371,65.9427328111401,-98.64782000466309,114.79151061173533,-123.61655566127499,31.75000000000002,-8.106382978723406,-2.822222222222222,-20.38271604938271,-38.17791411042945,-14.111111111111121,-2.3962264150943327,18.142857142857146,16.98617875372755,168.64794236319918,70.27172202931978,2306.424582301345,53.07909870688919,756.1868450445205,1
-117.52060277843184,-21.506039973643738,-71.78852333588371,65.9427328111401,-98.64782000466309,114.79151061173533,-123.61655566127499,31.75000000000002,13.510638297872333,25.400000000000002,-10.975308641975303,-25.71165644171779,21.166666666666654,16.773584905660385,-22.678571428571423,20.99580329780799,47.7735722033592,70.27172202931978,2306.424582301345,53.07909870688919,756.1868450445205,1
-117.52060277843184,-21.506039973643738,-71.78852333588371,65.9427328111401,-98.64782000466309,114.79151061173533,-123.61655566127499,-10.583333333333314,-18.914893617021278,8.466666666666669,-10.975308641975303,-24.153374233128833,7.055555555555543,-83.86792452830188,-127.0,36.377132071997856,1981.650171811169,70.27172202931978,2306.424582301345,53.07909870688919,756.1868450445205,1
-106.24699788085708,-38.52119481660442,-59.292578423871475,58.60348128807652,-109.67778036838425,112.50383449259851,-126.86573633576488,-10.583333333333314,-18.914893617021278,8.466666666666669,-10.975308641975303,-24.153374233128833,7.055555555555543,-83.86792452830188,-127.0,36.377132071997856,1981.650171811169,68.02025704044432,1203.825380700121,52.1390848428508,139.20391029084578,1
-106.24699788085708,-38.52119481660442,-59.292578423871475,58.60348128807652,-109.67778036838425,112.50383449259851,-126.86573633576488,52.916666666666686,-24.319148936170215,-14.11111111111111,-4.703703703703698,-21.036809815950917,35.277777777777764,88.66037735849058,99.78571428571429,42.60141370694816,1228.3885091142304,68.02025704044432,1203.825380700121,52.1390848428508,139.20391029084578,1
-106.24699788085708,-38.52119481660442,-59.292578423871475,58.60348128807652,-109.67778036838425,112.50383449259851,-126.86573633576488,-63.499999999999986,-29.72340425531915,14.111111111111112,1.5679012345679073,-17.920245398773005,-42.33333333333334,-83.86792452830188,-86.17857142857142,42.40031141124722,1044.1203591211938,68.02025704044432,1203.825380700121,52.1390848428508,139.20391029084578,1
-100.65505062396987,-26.303755765429372,-41.18026013771998,51.22001740644032,-118.85707624154814,111.32602104512216,-127.0,-63.499999999999986,-29.72340425531915,14.111111111111112,1.5679012345679073,-17.920245398773005,-42.33333333333334,-83.86792452830188,-86.17857142857142,42.40031141124722,1044.1203591211938,56.046355509039735,1547.7793554772888,39.56801110319656,157.15453375281967,1
-100.65505062396987,-26.303755765429372,-41.18026013771998,51.22001740644032,-118.85707624154814,111.32602104512216,-127.0,1.7763568394002505e-14,-35.12765957446808,-25.400000000000002,-39.19753086419753,-36.61963190184049,-127.0,-107.83018867924528,-31.749999999999993,50.36562637746893,1889.6282658712885,56.046355509039735,1547.7793554772888,39.56801110319656,157.15453375281967,1
-100.65505062396987,-26.303755765429372,-41.18026013771998,51.22001740644032,-118.85707624154814,111.32602104512216,-127.0,31.75000000000002,-18.914893617021278,-14.11111111111111,-10.975308641975303,-36.61963190184049,-14.111111111111121,11.981132075471706,45.35714285714286,22.977541414459235,171.80230184057717,56.046355509039735,1547.7793554772888,39.56801110319656,157.15453375281967,1
-74.6091358606075,6.945530419503639,-21.12456006120889,44.499738903394245,-124.45348566099324,112.25468164794006,-125.95274341896607,31.75000000000002,-18.914893617021278,-14.11111111111111,-10.975308641975303,-36.61963190184049,-14.111111111111121,11.981132075471706,45.35714285714286,22.977541414459235,171.80230184057717,34.22640878044001,1716.6155700162165,24.189943128035594,359.6270737226712,1
-74.6091358606075,6.945530419503639,-21.12456006120889,44.499738903394245,-124.45348566099324,112.25468164794006,-125.95274341896607,42.33333333333336,-8.106382978723406,25.400000000000002,4.7037037037037095,-16.36196319018405,77.6111111111111,16.773584905660385,40.82142857142858,29.013938474268073,575.6544238385706,34.22640878044001,1716.6155700162165,24.189943128035594,359.6270737226712,1
-74.6091358606075,6.945530419503639,-21.12456006120889,44.499738903394245,-124.45348566099324,112.25468164794006,-125.95274341896607,-31.749999999999986,-94.57446808510637,-81.84444444444445,-51.74074074074074,-42.852760736196316,-1.2434497875801753e-14,31.150943396226424,40.82142857142858,46.84184824676785,892.5527546880155,34.22640878044001,1716.6155700162165,24.189943128035594,359.6270737226712,1
-51.79279491405699,23.681748297825624,-2.5069625095639028,39.72480417754571,-127.0,114.5876582842875,-123.45543926419283,-31.749999999999986,-94.57446808510637,-81.84444444444445,-51.74074074074074,-42.852760736196316,-1.2434497875801753e-14,31.150943396226424,40.82142857142858,46.84184824676785,892.5527546880155,25.993835240482174,1468.5580870998663,21.971171661645077,348.48648892692574,1
-51.79279491405699,23.681748297825624,-2.5069625095639028,39.72480417754571,-127.0,114.5876582842875,-123.45543926419283,10.583333333333352,-24.319148936170215,-2.822222222222222,-10.975308641975303,-28.828220858895705,28.222222222222207,-26.35849056603773,-4.535714285714281,17.080582633321377,120.11181954054756,25.993835240482174,1468.5580870998663,21.971171661645077,348.48648892692574,1
-51.79279491405699,23.681748297825624,-2.5069625095639028,39.72480417754571,-127.0,114.5876582842875,-123.45543926419283,21.166666666666686,-13.510638297872342,8.466666666666669,-10.975308641975303,-27.26993865030675,28.222222222222207,-2.3962264150943327,54.42857142857143,20.804529873671964,266.9191332925981,25.993835240482174,1468.5580870998663,21.971171661645077,348.48648892692574,1
-24.93948669649165,22.566000439270827,13.020657995409318,38.48685813751092,-126.6150617859641,117.0565364722668,-120.09884765831484,21.166666666666686,-13.510638297872342,8.466666666666669,-10.975308641975303,-27.26993865030675,28.222222222222207,-2.3962264150943327,54.42857142857143,20.804529873671964,266.9191332925981,20.1753817103906,631.4762425677891,24.691172190730356,165.51910364929512,1
-24.93948669649165,22.566000439270827,13.020657995409318,38.48685813751092,-126.6150617859641,117.0565364722668,-120.09884765831484,84.66666666666669,2.702127659574465,14.111111111111112,14.111111111111118,-30.38650306748466,-1.2434497875801753e-14,-7.188679245283012,54.42857142857143,25.949346286225314,874.9329051672527,20.1753817103906,631.4762425677891,24.691172190730356,165.51910364929512,1
-24.93948669649165,22.566000439270827,13.020657995409318,38.48685813751092,-126.6150617859641,117.0565364722668,-120.09884765831484,42.33333333333336,2.702127659574465,-36.68888888888889,-32.925925925925924,-28.828220858895705,35.277777777777764,64.69811320754718,77.10714285714286,40.07019131363577,513.0838815322205,20.1753817103906,631.4762425677891,24.691172190730356,165.51910364929512,1
-21.590299034612677,11.687458818361534,20.63871461361896,38.79634464751962,-125.57868967125204,119.29891207419297,-115.26535574585051,42.33333333333336,2.702127659574465,-36.68888888888889,-32.925925925925924,-28.828220858895705,35.277777777777764,64.69811320754718,77.10714285714286,40.07019131363577,513.0838815322205,17.97215748886439,495.13729028930834,23.707506026500038,190.78603327641144,1
-21.590299034612677,11.687458818361534,20.63871461361896,38.79634464751962,-125.57868967125204,119.29891207419297,-115.26535574585051,-10.583333333333314,-45.93617021276596,-14.11111111111111,-36.06172839506172,-38.17791411042945,14.111111111111098,-35.94339622641509,-13.607142857142854,26.066488419671323,202.82492760918805,17.97215748886439,495.13729028930834,23.707506026500038,190.78603327641144,1
-21.590299034612677,11.687458818361534,20.63871461361896,38.79634464751962,-125.57868967125204,119.29891207419297,-115.26535574585051,52.916666666666686,-35.12765957446808,8.466666666666669,-1.5679012345678949,-24.153374233128833,-1.2434497875801753e-14,21.566037735849065,45.35714285714286,23.644431121061263,391.6493901915224,17.97215748886439,495.13729028930834,23.707506026500038,190.78603327641144,1
-5.233105721685903,-1.3667911267296144,29.6948737566947,40.3437771975631,-123.71321986477035,121.24683431425004,-110.27074743630405,52.916666666666686,-35.12765957446808,8.466666666666669,-1.5679012345678949,-24.153374233128833,-1.2434497875801753e-14,21.566037735849065,45.35714285714286,23.644431121061263,391.6493901915224,12.098256868370072,366.6231940532507,23.801814026995803,405.847475524836,1
-5.233105721685903,-1.3667911267296144,29.6948737566947,40.3437771975631,-123.71321986477035,121.24683431425004,-110.27074743630405,1.7763568394002505e-14,-18.914893617021278,-2.822222222222222,-4.703703703703698,-24.153374233128833,7.055555555555543,-21.56603773584905,-9.071428571428566,11.03590195486365,84.8692946688378,12.098256868370072,366.6231940532507,23.801814026995803,405.847475524836,1
-5.233105721685903,-1.3667911267296144,29.6948737566947,40.3437771975631,-123.71321986477035,121.24683431425004,-110.27074743630405,1.7763568394002505e-14,-18.914893617021278,14.111111111111112,-1.5679012345678949,-28.828220858895705,-1.2434497875801753e-14,-59.90566037735849,-18.14285714285714,17.683830542726454,400.93282839237224,12.098256868370072,366.6231940532507,23.801814026995803,405.847475524836,1
21.201554038144565,-7.22446738414231,46.60229533282324,45.560835509138315,-118.6646071345302,123.14945603709648,-103.96035521725342,1.7763568394002505e-14,-18.914893617021278,14.111111111111112,-1.5679012345678949,-28.828220858895705,-1.2434497875801753e-14,-59.90566037735849,-18.14285714285714,17.683830542726454,400.93282839237224,25.009438918370037,725.0927894680033,33.12919940870129,503.5625155892461,1
21.201554038144565,-7.22446738414231,46.60229533282324,45.560835509138315,-118.6646071345302,123.14945603709648,-103.96035521725342,-10.583333333333314,-40.53191489361702,-2.822222222222222,-17.246913580246908,-30.38650306748466,-1.2434497875801753e-14,-7.188679245283012,31.750000000000004,17.563695792773395,225.06799063672835,25.009438918370037,725.0927894680033,33.12919940870129,503.5625155892461,1
21.201554038144565,-7.22446738414231,46.60229533282324,45.560835509138315,-118.6646071345302,123.14945603709648,-103.96035521725342,1.7763568394002505e-14,-24.319148936170215,8.466666666666669,-10.975308641975303,-33.50306748466258,-1.2434497875801753e-14,-7.188679245283012,45.35714285714286,16.226251728987584,272.6622765953706,25.009438918370037,725.0927894680033,33.12919940870129,503.5625155892461,1
27.152342830233096,-11.296947067867325,55.73618974751337,51.79477806788509,-112.37234786663558,125.02942750133761,-96.11935722592241,1.7763568394002505e-14,-24.319148936170215,8.466666666666669,-10.975308641975303,-33.50306748466258,-1.2434497875801753e-14,-7.188679245283012,45.35714285714286,16.226251728987584,272.6622765953706,31.395159881871262,1131.4709382613712,39.60930496108859,605.0758886124642,1
27.152342830233096,-11.296947067867325,55.73618974751337,51.79477806788509,-112.37234786663558,125.02942750133761,-96.11935722592241,31.75000000000002,-8.106382978723406,8.466666666666669,-7.839506172839501,-30.38650306748466,-21.16666666666668,-21.56603773584905,-4.535714285714281,16.727184696743034,117.93751679975246,31.395159881871262,1131.4709382613712,39.60930496108859,605.0758886124642,1
27.152342830233096,-11.296947067867325,55.73618974751337,51.79477806788509,-112.37234786663558,125.02942750133761,-96.11935722592241,42.33333333333336,-29.72340425531915,8.466666666666669,-10.975308641975303,-30.38650306748466,28.222222222222207,26.358490566037744,13.607142857142861,23.759133951272744,135.93141491949612,31.395159881871262,1131.4709382613712,39.60930496108859,605.0758886124642,1
24.072286319755115,-18.77245772018448,57.81560826319814,57.94029590948651,-106.06528328281651,126.4110932762618,-87.36536631779259,42.33333333333336,-29.72340425531915,8.466666666666669,-10.975308641975303,-30.38650306748466,28.222222222222207,26.358490566037744,13.607142857142861,23.759133951272744,135.93141491949612,33.55345076771258,1473.3359531169588,44.84278729762304,509.75044995948525,1
24.072286319755115,-18.77245772018448,57.81560826319814,57.94029590948651,-106.06528328281651,126.4110932762618,-87.36536631779259,31.75000000000002,-24.319148936170215,-2.822222222222222,-10.975308641975303,-31.94478527607362,-1.2434497875801753e-14,26.358490566037744,108.85714285714286,29.62838731245275,1181.4702924884175,33.55345076771258,1473.3359531169588,44.84278729762304,509.75044995948525,1
24.072286319755115,-18.77245772018448,57.81560826319814,57.94029590948651,-106.06528328281651,126.4110932762618,-87.36536631779259,-10.583333333333314,-29.72340425531915,-8.466666666666667,-20.38271604938271,-31.94478527607362,-21.16666666666668,-127.0,-45.357142857142854,36.828089388073124,1469.5613444902908,33.55345076771258,1473.3359531169588,44.84278729762304,509.75044995948525,1
26.225335530963022,-29.70678673402151,62.227084927314436,64.61636205395996,-99.28444858941478,127.0,-77.67152976001692,-10.583333333333314,-29.72340425531915,-8.466666666666667,-20.38271604938271,-31.94478527607362,-21.16666666666668,-127.0,-45.357142857142854,36.828089388073124,1469.5613444902908,39.38640239743299,2146.060836550976,52.18341123843197,380.3261481311764,1
26.225335530963022,-29.70678673402151,62.227084927314436,64.61636205395996,-99.28444858941478,127.0,-77.67152976001692,-10.583333333333314,-13.510638297872342,-2.822222222222222,-1.5679012345678949,-31.94478527607362,-1.2434497875801753e-14,-7.188679245283012,-36.28571428571428,12.987909236883336,192.04010432852706,39.38640239743299,2146.060836550976,52.18341123843197,380.3261481311764,1
26.225335530963022,-29.70678673402151,62.227084927314436,64.61636205395996,-99.28444858941478,127.0,-77.67152976001692,31.75000000000002,-18.914893617021278,2.822222222222223,-17.246913580246908,-30.38650306748466,28.222222222222207,55.11320754716982,77.10714285714286,32.69538813918874,546.0228491202445,39.38640239743299,2146.060836550976,52.18341123843197,380.3261481311764,1
56.63715563927478,-37.85174610147154,71.90512624330526,72.75143603133154,-89.51294007927257,126.81879793115746,-68.43418966064067,31.75000000000002,-18.914893617021278,2.822222222222223,-17.246913580246908,-30.38650306748466,28.222222222222207,55.11320754716982,77.10714285714286,32.69538813918874,546.0228491202445,55.46467599468386,3534.6390842409305,60.836102792036115,396.38954942365257,1
56.63715563927478,-37.85174610147154,71.90512624330526,72.75143603133154,-89.51294007927257,126.81879793115746,-68.43418966064067,-63.499999999999986,-35.12765957446808,-2.822222222222222,-17.246913580246908,-41.29447852760736,-42.33333333333334,-83.86792452830188,-45.357142857142854,41.44370932791533,631.3456187811831,55.46467599468386,3534.6390842409305,60.836102792036115,396.38954942365257,1
