Gyro 0,Gyro 1,Gyro 2,Orientation 0,Orientation 1,Orientation 2,Orientation 3,Sensor 0,Sensor 1,Sensor 2,Sensor 3,Sensor 4,Sensor 5,Sensor 6,Sensor 7,Sensor Mean,Sensor Variance,Gyro Mean,Gyro Variance,Orientation Mean,Orientation Variance,Label
-43.943672275054865,-17.4343646740763,6.488303307340671,-117.05492670254222,119.45593056894884,-86.66612377850163,123.52803788612634,24.319148936170215,28.550387596899213,2.7021276595744483,-9.47761194029852,-38.52808988764046,-55.358974358974365,-43.915887850467286,-20.5945945945946,27.93085285307739,309.19774496692156,22.622113418823943,636.4035989959586,46.99253156131973,3711.5084745546824,1
-43.943672275054865,-17.4343646740763,6.488303307340671,-117.05492670254222,119.45593056894884,-86.66612377850163,123.52803788612634,-13.510638297872333,-0.9844961240310184,29.723404255319128,126.99999999999999,126.99999999999997,61.871794871794876,-53.41121495327102,-78.94594594594595,61.55593680602929,2275.037108079788,22.622113418823943,636.4035989959586,46.99253156131973,3711.5084745546824,1
-43.943672275054865,-17.4343646740763,6.488303307340671,-117.05492670254222,119.45593056894884,-86.66612377850163,123.52803788612634,-18.91489361702127,-10.829457364341096,-40.531914893617035,-17.05970149253733,-24.25842696629214,84.66666666666666,1.186915887850474,-20.5945945945946,27.255321435365076,664.0801905872214,22.622113418823943,636.4035989959586,46.99253156131973,3711.5084745546824,1
-39.15910753474762,-30.86302192850706,5.9419198709330345,-115.73520133605496,119.13751205400192,-89.35504885993485,120.93090087181142,-18.91489361702127,-10.829457364341096,-40.531914893617035,-17.05970149253733,-24.25842696629214,84.66666666666666,1.186915887850474,-20.5945945945946,27.255321435365076,664.0801905872214,25.321349778062572,576.2552417157003,50.84671437849835,3313.1521366717507,1
-39.15910753474762,-30.86302192850706,5.9419198709330345,-115.73520133605496,119.13751205400192,-89.35504885993485,120.93090087181142,-18.91489361702127,-10.829457364341096,-40.531914893617035,-17.05970149253733,-24.25842696629214,84.66666666666666,1.186915887850474,-20.5945945945946,27.255321435365076,664.0801905872214,25.321349778062572,576.2552417157003,50.84671437849835,3313.1521366717507,1
-39.15910753474762,-30.86302192850706,5.9419198709330345,-115.73520133605496,119.13751205400192,-89.35504885993485,120.93090087181142,89.17021276595744,67.93023255813952,-16.212765957446827,-127.0,29.96629213483145,71.64102564102564,36.79439252336449,-17.16216216216217,56.98463546786594,1522.6414336181986,25.321349778062572,576.2552417157003,50.84671437849835,3313.1521366717507,1
-39.15910753474762,-30.86302192850706,5.9419198709330345,-115.73520133605496,119.13751205400192,-89.35504885993485,120.93090087181142,89.17021276595744,67.93023255813952,-16.212765957446827,-127.0,29.96629213483145,71.64102564102564,36.79439252336449,-17.16216216216217,56.98463546786594,1522.6414336181986,25.321349778062572,576.2552417157003,50.84671437849835,3313.1521366717507,1
-39.15910753474762,-30.86302192850706,5.9419198709330345,-115.73520133605496,119.13751205400192,-89.35504885993485,120.93090087181142,89.17021276595744,67.93023255813952,-16.212765957446827,-127.0,29.96629213483145,71.64102564102564,36.79439252336449,-17.16216216216217,56.98463546786594,1522.6414336181986,25.321349778062572,576.2552417157003,50.84671437849835,3313.1521366717507,1
-54.20958302852963,-16.900270351456896,5.532132293627308,-120.87270365559476,120.95004821600767,-81.83984799131379,126.99999999999999,89.17021276595744,67.93023255813952,-16.212765957446827,-127.0,29.96629213483145,71.64102564102564,36.79439252336449,-17.16216216216217,56.98463546786594,1522.6414336181986,25.547328557871282,910.7116750834002,47.76836876689299,4040.491475365063,1
-43.432699341623994,-10.185941724241516,3.9612799139553525,-118.84598255706072,120.19074252651879,-84.04614549402822,125.3597029383274,89.17021276595744,67.93023255813952,-16.212765957446827,-127.0,29.96629213483145,71.64102564102564,36.79439252336449,-17.16216216216217,56.98463546786594,1522.6414336181986,19.19330699327362,591.9466736379218,44.331068065085866,4174.040964972853,1
-43.943672275054865,-17.4343646740763,6.488303307340671,-117.05492670254222,119.45593056894884,-86.66612377850163,123.52803788612634,89.17021276595744,67.93023255813952,-16.212765957446827,-127.0,29.96629213483145,71.64102564102564,36.79439252336449,-17.16216216216217,56.98463546786594,1522.6414336181986,22.622113418823943,636.4035989959586,46.99253156131973,3711.5084745546824,1
-43.943672275054865,-17.4343646740763,6.488303307340671,-117.05492670254222,119.45593056894884,-86.66612377850163,123.52803788612634,-40.531914893617014,-14.767441860465127,-27.021276595744695,66.34328358208954,-75.62921348314607,55.35897435897436,-5.93457943925233,-20.5945945945946,38.27265985098547,645.4103895146299,22.622113418823943,636.4035989959586,46.99253156131973,3711.5084745546824,1
-43.943672275054865,-17.4343646740763,6.488303307340671,-117.05492670254222,119.45593056894884,-86.66612377850163,123.52803788612634,24.319148936170215,28.550387596899213,2.7021276595744483,-9.47761194029852,-38.52808988764046,-55.358974358974365,-43.915887850467286,-20.5945945945946,27.93085285307739,309.19774496692156,22.622113418823943,636.4035989959586,46.99253156131973,3711.5084745546824,1
-43.943672275054865,-17.4343646740763,6.488303307340671,-117.05492670254222,119.45593056894884,-86.66612377850163,123.52803788612634,-13.510638297872333,-0.9844961240310184,29.723404255319128,126.99999999999999,126.99999999999997,61.871794871794876,-53.41121495327102,-78.94594594594595,61.55593680602929,2275.037108079788,22.622113418823943,636.4035989959586,46.99253156131973,3711.5084745546824,1
-43.943672275054865,-17.4343646740763,6.488303307340671,-117.05492670254222,119.45593056894884,-86.66612377850163,123.52803788612634,-18.91489361702127,-10.829457364341096,-40.531914893617035,-17.05970149253733,-24.25842696629214,84.66666666666666,1.186915887850474,-20.5945945945946,27.255321435365076,664.0801905872214,22.622113418823943,636.4035989959586,46.99253156131973,3711.5084745546824,1
-43.943672275054865,-17.4343646740763,6.488303307340671,-117.05492670254222,119.45593056894884,-86.66612377850163,123.52803788612634,-13.510638297872333,-10.829457364341096,48.6382978723404,58.76119402985073,-58.5056179775281,0.0,-51.037383177570085,-30.8918918918919,34.02181007642433,548.6483931358426,22.622113418823943,636.4035989959586,46.99253156131973,3711.5084745546824,1
-15.329188002926115,-30.55782517272454,-2.4587254638343756,-115.73520133605496,120.09276759884281,-92.82537097357944,115.38122914648584,-13.510638297872333,-10.829457364341096,48.6382978723404,58.76119402985073,-58.5056179775281,0.0,-51.037383177570085,-30.8918918918919,34.02181007642433,548.6483931358426,16.11524621316168,197.8532667449469,49.58391732420463,3479.384133424902,1
-15.329188002926115,-30.55782517272454,-2.4587254638343756,-115.73520133605496,120.09276759884281,-92.82537097357944,115.38122914648584,-94.57446808510637,-127.0,24.31914893617019,108.04477611940297,18.5505617977528,-9.769230769230766,8.308411214953278,75.51351351351352,58.260013804516234,2342.210375734292,16.11524621316168,197.8532667449469,49.58391732420463,3479.384133424902,1
-15.329188002926115,-30.55782517272454,-2.4587254638343756,-115.73520133605496,120.09276759884281,-92.82537097357944,115.38122914648584,89.17021276595744,73.83720930232556,43.234042553191465,-24.641791044776127,-24.25842696629214,22.794871794871796,93.76635514018693,127.0,62.33786369595018,1545.8276339382076,16.11524621316168,197.8532667449469,49.58391732420463,3479.384133424902,1
-6.224579370885149,-44.59687593872033,-1.7074482387738752,-118.2803859714233,121.95429122468656,-94.1813246471227,111.6358841890001,89.17021276595744,73.83720930232556,43.234042553191465,-24.641791044776127,-24.25842696629214,22.794871794871796,93.76635514018693,127.0,62.33786369595018,1545.8276339382076,17.509634516126454,555.3901043305865,54.86157004963917,3476.3354117980884,1
-6.224579370885149,-44.59687593872033,-1.7074482387738752,-118.2803859714233,121.95429122468656,-94.1813246471227,111.6358841890001,8.106382978723406,30.51937984496123,-2.7021276595744865,5.686567164179092,-47.08988764044945,-29.307692307692307,-98.51401869158877,-10.297297297297302,29.027919198058257,1026.1811920223251,17.509634516126454,555.3901043305865,54.86157004963917,3476.3354117980884,1
-6.224579370885149,-44.59687593872033,-1.7074482387738752,-118.2803859714233,121.95429122468656,-94.1813246471227,111.6358841890001,-40.531914893617014,-18.705426356589157,-13.510638297872358,-5.686567164179117,-58.5056179775281,-104.2051282051282,55.78504672897197,-10.297297297297302,38.4034546151479,1129.8032473991757,17.509634516126454,555.3901043305865,54.86157004963917,3476.3354117980884,1
-11.98463789319678,-52.30309402222889,0.409787577305716,-119.83577658192615,123.52189006750237,-95.74411871154543,107.20708212248411,-40.531914893617014,-18.705426356589157,-13.510638297872358,-5.686567164179117,-58.5056179775281,-104.2051282051282,55.78504672897197,-10.297297297297302,38.4034546151479,1129.8032473991757,21.565839830910463,759.6412623165136,57.51621939382025,3586.024219537878,1
-11.98463789319678,-52.30309402222889,0.409787577305716,-119.83577658192615,123.52189006750237,-95.74411871154543,107.20708212248411,29.72340425531915,16.73643410852712,-59.446808510638306,-36.01492537313434,-29.96629213483147,19.53846153846154,-48.66355140186916,20.59459459459459,32.58555898967196,224.57804953286723,21.565839830910463,759.6412623165136,57.51621939382025,3586.024219537878,1
-11.98463789319678,-52.30309402222889,0.409787577305716,-119.83577658192615,123.52189006750237,-95.74411871154543,107.20708212248411,-8.106382978723403,-36.4263565891473,-97.27659574468086,-20.850746268656728,-67.06741573033707,42.333333333333336,43.9158878504673,61.783783783783775,47.220062784891226,784.0283531302866,21.565839830910463,759.6412623165136,57.51621939382025,3586.024219537878,1
-23.17959034381858,-53.752778612195854,3.2100026888948525,-120.35424011876046,124.35467695274829,-98.04234527687296,102.9423097621354,-8.106382978723403,-36.4263565891473,-97.27659574468086,-20.850746268656728,-67.06741573033707,42.333333333333336,43.9158878504673,61.783783783783775,47.220062784891226,784.0283531302866,26.71412388163643,812.6481524802947,59.10567380661706,3452.1832059780245,1
-23.17959034381858,-53.752778612195854,3.2100026888948525,-120.35424011876046,124.35467695274829,-98.04234527687296,102.9423097621354,24.319148936170215,65.9612403100775,75.65957446808508,36.01492537313432,-38.52808988764046,-19.53846153846154,-58.15887850467289,-48.05405405405406,45.77929663403701,393.6589619602352,26.71412388163643,812.6481524802947,59.10567380661706,3452.1832059780245,1
-23.17959034381858,-53.752778612195854,3.2100026888948525,-120.35424011876046,124.35467695274829,-98.04234527687296,102.9423097621354,2.7021276595744723,8.860465116279059,-5.404255319148955,24.641791044776106,-4.280898876404503,19.53846153846154,15.42990654205608,-13.729729729729735,11.823454478303805,61.50651997688091,26.71412388163643,812.6481524802947,59.10567380661706,3452.1832059780245,1
-29.775786393562548,-57.72033643736857,1.5708523796719434,-120.49563926516981,124.79556412729025,-100.80021715526601,98.67753740178667,2.7021276595744723,8.860465116279059,-5.404255319148955,24.641791044776106,-4.280898876404503,19.53846153846154,15.42990654205608,-13.729729729729735,11.823454478303805,61.50651997688091,29.68899173686769,879.8257851447297,59.928942694070116,3539.4346901381277,1
-29.775786393562548,-57.72033643736857,1.5708523796719434,-120.49563926516981,124.79556412729025,-100.80021715526601,98.67753740178667,13.510638297872342,38.39534883720929,48.6382978723404,20.850746268656703,-21.40449438202248,13.025641025641026,-29.672897196261676,-34.32432432432433,27.477798525541033,157.62889673767862,29.68899173686769,879.8257851447297,59.928942694070116,3539.4346901381277,1
-29.775786393562548,-57.72033643736857,1.5708523796719434,-120.49563926516981,124.79556412729025,-100.80021715526601,98.67753740178667,45.93617021276596,58.085271317829445,56.744680851063805,28.43283582089551,55.65168539325842,71.64102564102564,53.411214953271035,51.486486486486484,52.673671334574536,149.92186231470038,29.68899173686769,879.8257851447297,59.928942694070116,3539.4346901381277,1
-29.497073884418434,-51.38750375488135,1.74159720354933,-120.91983670439788,125.06499517839919,-103.718964893232,95.20557528791302,45.93617021276596,58.085271317829445,56.744680851063805,28.43283582089551,55.65168539325842,71.64102564102564,53.411214953271035,51.486486486486484,52.673671334574536,149.92186231470038,27.542058280949703,712.9578099845014,58.01631255427619,3583.819022204605,1
-29.497073884418434,-51.38750375488135,1.74159720354933,-120.91983670439788,125.06499517839919,-103.718964893232,95.20557528791302,45.93617021276596,56.11627906976743,21.61702127659572,36.01492537313432,-9.98876404494383,48.84615384615385,-15.429906542056068,-58.351351351351354,36.53757146459607,353.1814734066949,27.542058280949703,712.9578099845014,58.01631255427619,3583.819022204605,1
-29.497073884418434,-51.38750375488135,1.74159720354933,-120.91983670439788,125.06499517839919,-103.718964893232,95.20557528791302,51.34042553191489,24.612403100775182,8.106382978723385,20.850746268656703,-4.280898876404503,35.82051282051282,-20.177570093457938,3.432432432432428,21.07767151285973,272.61171644468305,27.542058280949703,712.9578099845014,58.01631255427619,3583.819022204605,1
-22.854425749817118,-37.806248122559325,2.9026620059155572,-122.05102987567267,125.38341369334617,-106.24701411509228,92.74512969540415,51.34042553191489,24.612403100775182,8.106382978723385,20.850746268656703,-4.280898876404503,35.82051282051282,-20.177570093457938,3.432432432432428,21.07767151285973,272.61171644468305,21.187778626097334,424.03332096179884,54.25331333471585,3751.96285707644,1
-22.854425749817118,-37.806248122559325,2.9026620059155572,-122.05102987567267,125.38341369334617,-106.24701411509228,92.74512969540415,-18.91489361702127,14.767441860465105,8.106382978723385,13.268656716417897,-18.550561797752817,16.282051282051285,15.42990654205608,-17.16216216216217,15.310257119581252,12.034259157192851,21.187778626097334,424.03332096179884,54.25331333471585,3751.96285707644,1
-22.854425749817118,-37.806248122559325,2.9026620059155572,-122.05102987567267,125.38341369334617,-106.24701411509228,92.74512969540415,35.12765957446808,42.33333333333332,29.723404255319128,17.0597014925373,-15.696629213483154,19.53846153846154,-3.5607476635513953,-30.8918918918919,24.241478620380725,156.35814639296592,21.187778626097334,424.03332096179884,54.25331333471585,3751.96285707644,1
-18.95245062179956,-28.34514869330129,2.4587254638343525,-123.27648914455375,125.82430086788813,-108.17752442996742,90.61274351522978,35.12765957446808,42.33333333333332,29.723404255319128,17.0597014925373,-15.696629213483154,19.53846153846154,-3.5607476635513953,-30.8918918918919,24.241478620380725,156.35814639296592,16.585441592978402,249.2566502535105,51.360121100563134,4046.4997213828074,1
-18.95245062179956,-28.34514869330129,2.4587254638343525,-123.27648914455375,125.82430086788813,-108.17752442996742,90.61274351522978,62.148936170212764,67.93023255813952,8.106382978723385,5.686567164179092,-21.40449438202248,39.07692307692308,-10.6822429906542,-20.5945945945946,29.453796739431137,594.0362933425201,16.585441592978402,249.2566502535105,51.360121100563134,4046.4997213828074,1
-18.95245062179956,-28.34514869330129,2.4587254638343525,-123.27648914455375,125.82430086788813,-108.17752442996742,90.61274351522978,24.319148936170215,34.45736434108526,13.510638297872319,-1.8955223880597138,-18.550561797752817,29.307692307692307,15.42990654205608,-41.18918918918919,22.332502974984738,158.94732785798473,16.585441592978402,249.2566502535105,51.360121100563134,4046.4997213828074,1
-16.025969275786395,-26.590267347551816,3.2100026888948525,-124.97327890146596,126.43664416586304,-110.06207021353602,88.58971047250026,24.319148936170215,34.45736434108526,13.510638297872319,-1.8955223880597138,-18.550561797752817,29.307692307692307,15.42990654205608,-41.18918918918919,22.332502974984738,158.94732785798473,15.275413104077687,228.28051757004175,51.591182979304214,4175.358195324221,1
-16.025969275786395,-26.590267347551816,3.2100026888948525,-124.97327890146596,126.43664416586304,-110.06207021353602,88.58971047250026,13.510638297872342,16.73643410852712,-1.9539925233402755e-14,20.850746268656703,-21.40449438202248,29.307692307692307,-1.1869158878504606,-6.86486486486487,13.732723264685788,107.76086211706497,15.275413104077687,228.28051757004175,51.591182979304214,4175.358195324221,1
-16.025969275786395,-26.590267347551816,3.2100026888948525,-124.97327890146596,126.43664416586304,-110.06207021353602,88.58971047250026,-8.106382978723403,2.9534883720930125,-24.31914893617023,5.686567164179092,9.98876404494381,48.84615384615385,5.934579439252343,-13.729729729729735,14.945601813905684,231.52476361364592,15.275413104077687,228.28051757004175,51.591182979304214,4175.358195324221,1
-17.001463057790783,-23.84349654550916,3.653939230976057,-126.48153646316575,126.92651880424299,-111.87766920014477,86.73070713593799,-8.106382978723403,2.9534883720930125,-24.31914893617023,5.686567164179092,9.98876404494381,48.84615384615385,5.934579439252343,-13.729729729729735,14.945601813905684,231.52476361364592,14.832966278092,204.92800670663055,51.326324079883655,4338.134017421384,1
-17.001463057790783,-23.84349654550916,3.653939230976057,-126.48153646316575,126.92651880424299,-111.87766920014477,86.73070713593799,13.510638297872342,8.860465116279059,-5.404255319148955,13.268656716417897,-29.96629213483147,29.307692307692307,34.42056074766356,-6.86486486486487,17.700428188096307,135.52685943981035,14.832966278092,204.92800670663055,51.326324079883655,4338.134017421384,1
-17.001463057790783,-23.84349654550916,3.653939230976057,-126.48153646316575,126.92651880424299,-111.87766920014477,86.73070713593799,2.7021276595744723,16.73643410852712,5.404255319148916,24.641791044776106,-15.696629213483154,29.307692307692307,-8.308411214953264,-44.62162162162163,18.42737031122212,196.1047942056075,14.832966278092,204.92800670663055,51.326324079883655,4338.134017421384,1
-20.531821506949523,-15.832081706218084,3.927130949179875,-127.0,126.99999999999997,-113.41748099891423,85.14508664298783,2.7021276595744723,16.73643410852712,5.404255319148916,24.641791044776106,-15.696629213483154,29.307692307692307,-8.308411214953264,-44.62162162162163,18.42737031122212,196.1047942056075,13.430344720782493,168.4590657011694,48.91973755179932,4607.827501116798,1
-20.531821506949523,-15.832081706218084,3.927130949179875,-127.0,126.99999999999997,-113.41748099891423,85.14508664298783,24.319148936170215,28.550387596899213,18.914893617021256,32.22388059701491,-1.426966292134841,29.307692307692307,-15.429906542056068,-20.5945945945946,21.345933810447924,97.243228554295,13.430344720782493,168.4590657011694,48.91973755179932,4607.827501116798,1
-20.531821506949523,-15.832081706218084,3.927130949179875,-127.0,126.99999999999997,-113.41748099891423,85.14508664298783,13.510638297872342,18.705426356589136,-5.404255319148955,-1.8955223880597138,-21.40449438202248,16.282051282051285,3.5607476635514086,-20.5945945945946,12.669716285486238,63.01849159696422,13.430344720782493,168.4590657011694,48.91973755179932,4607.827501116798,1
-21.042794440380394,-6.981375788525082,3.4148964775477166,-126.95286695119688,126.877531340405,-114.58957654723127,83.88752556237218,13.510638297872342,18.705426356589136,-5.404255319148955,-1.8955223880597138,-21.40449438202248,16.282051282051285,3.5607476635514086,-20.5945945945946,12.669716285486238,63.01849159696422,10.479688902151064,150.66410276166033,45.78304640575656,4944.5847692031475,1
-21.042794440380394,-6.981375788525082,3.4148964775477166,-126.95286695119688,126.877531340405,-114.58957654723127,83.88752556237218,2.7021276595744723,0.9844961240309971,-13.510638297872358,13.268656716417897,-12.842696629213492,13.025641025641026,-5.93457943925233,-17.16216216216217,9.928874756770593,34.65230247655396,10.479688902151064,150.66410276166033,45.78304640575656,4944.5847692031475,1
-21.042794440380394,-6.981375788525082,3.4148964775477166,-126.95286695119688,126.877531340405,-114.58957654723127,83.88752556237218,-8.106382978723403,0.9844961240309971,-18.914893617021296,9.477611940298495,-18.550561797752817,-9.769230769230766,-34.420560747663544,-34.32432432432433,16.818507787380707,150.55411829090528,10.479688902151064,150.66410276166033,45.78304640575656,4944.5847692031475,1
-20.578273591806877,-3.6242114749173915,2.663619252487216,-126.81146780478753,126.77955641272902,-115.50886717336229,82.68464105047894,-8.106382978723403,0.9844961240309971,-18.914893617021296,9.477611940298495,-18.550561797752817,-9.769230769230766,-34.420560747663544,-34.32432432432433,16.818507787380707,150.55411829090528,8.955368106403828,144.52710341758163,44.36643284406404,5098.118526610637,1
-20.578273591806877,-3.6242114749173915,2.663619252487216,-126.81146780478753,126.77955641272902,-115.50886717336229,82.68464105047894,24.319148936170215,22.643410852713167,-16.212765957446827,1.895522388059689,-24.25842696629214,0.0,15.42990654205608,-10.297297297297302,14.382059867504429,92.63290046908128,8.955368106403828,144.52710341758163,44.36643284406404,5098.118526610637,1
-20.578273591806877,-3.6242114749173915,2.663619252487216,-126.81146780478753,126.77955641272902,-115.50886717336229,82.68464105047894,2.7021276595744723,10.829457364341074,-16.212765957446827,5.686567164179092,4.2808988764044855,52.1025641025641,-13.056074766355135,-10.297297297297302,14.395969148520312,253.04524945465437,8.955368106403828,144.52710341758163,44.36643284406404,5098.118526610637,1
-22.111192392099486,-2.021928507059176,3.005108900241989,-126.71720170718129,126.70607521697204,-116.4281577994933,81.3997416855021,2.7021276595744723,10.829457364341074,-16.212765957446827,5.686567164179092,4.2808988764044855,52.1025641025641,-13.056074766355135,-10.297297297297302,14.395969148520312,253.04524945465437,9.046076599800218,176.61303652414404,43.914746371494154,5142.426618135233,1
-22.111192392099486,-2.021928507059176,3.005108900241989,-126.71720170718129,126.70607521697204,-116.4281577994933,81.3997416855021,-18.91489361702127,-12.798449612403111,-24.31914893617023,13.268656716417897,-29.96629213483147,29.307692307692307,-13.056074766355135,10.297297297297291,18.99106317352359,62.454691146017794,9.046076599800218,176.61303652414404,43.914746371494154,5142.426618135233,1
-22.111192392099486,-2.021928507059176,3.005108900241989,-126.71720170718129,126.70607521697204,-116.4281577994933,81.3997416855021,-24.31914893617021,28.550387596899213,5.404255319148916,13.268656716417897,-21.40449438202248,22.794871794871796,-13.056074766355135,-72.08108108108108,25.10987132412084,415.95223689013727,9.046076599800218,176.61303652414404,43.914746371494154,5142.426618135233,1
-26.106071689831747,-0.8011414839291078,1.775746168324807,-125.96307292633145,126.48563162970103,-117.1865725660514,79.86879776127434,-24.31914893617021,28.550387596899213,5.404255319148916,13.268656716417897,-21.40449438202248,22.794871794871796,-13.056074766355135,-72.08108108108108,25.10987132412084,415.95223689013727,9.560986447361888,237.3959349622267,42.84665352619513,5181.491843997231,1
-26.106071689831747,-0.8011414839291078,1.775746168324807,-125.96307292633145,126.48563162970103,-117.1865725660514,79.86879776127434,2.7021276595744723,16.73643410852712,2.7021276595744483,20.850746268656703,-9.98876404494383,6.5128205128205146,-5.93457943925233,-17.16216216216217,10.32372023193895,49.82607433805816,9.560986447361888,237.3959349622267,42.84665352619513,5181.491843997231,1
-26.106071689831747,-0.8011414839291078,1.775746168324807,-125.96307292633145,126.48563162970103,-117.1865725660514,79.86879776127434,24.319148936170215,28.550387596899213,21.61702127659572,24.641791044776106,-18.550561797752817,9.76923076923077,-22.551401869158873,-5.329070518200751e-15,18.749942911322965,88.10045390801096,9.560986447361888,237.3959349622267,42.84665352619513,5181.491843997231,1
-33.72421360643746,4.387203364373686,0.27319171820380683,-124.17201707181295,125.84879459980712,-117.85305826999638,78.3378538370466,24.319148936170215,28.550387596899213,21.61702127659572,24.641791044776106,-18.550561797752817,9.76923076923077,-22.551401869158873,-5.329070518200751e-15,18.749942911322965,88.10045390801096,12.794869563004985,437.53812735929984,42.94413738479681,4952.707601792481,1
-33.72421360643746,4.387203364373686,0.27319171820380683,-124.17201707181295,125.84879459980712,-117.85305826999638,78.3378538370466,29.72340425531915,36.426356589147275,16.212765957446788,32.22388059701491,-9.98876404494383,19.53846153846154,24.92523364485982,-6.86486486486487,21.98796643650727,113.39252282884374,12.794869563004985,437.53812735929984,42.94413738479681,4952.707601792481,1
-33.72421360643746,4.387203364373686,0.27319171820380683,-124.17201707181295,125.84879459980712,-117.85305826999638,78.3378538370466,35.12765957446808,32.488372093023244,8.106382978723385,17.0597014925373,-18.550561797752817,3.2564102564102555,-10.6822429906542,-13.729729729729735,17.37513261416238,126.91073230027698,12.794869563004985,437.53812735929984,42.94413738479681,4952.707601792481,1
-36.0932699341624,10.720036046860919,1.2293627319171705,-122.09816292447579,125.0160077145612,-118.4965617082881,77.18964589387579,35.12765957446808,32.488372093023244,8.106382978723385,17.0597014925373,-18.550561797752817,3.2564102564102555,-10.6822429906542,-13.729729729729735,17.37513261416238,126.91073230027698,16.014222904313495,612.4229009951681,44.68252056775129,4517.404481120954,1
-36.0932699341624,10.720036046860919,1.2293627319171705,-122.09816292447579,125.0160077145612,-118.4965617082881,77.18964589387579,18.914893617021278,18.705426356589136,10.808510638297852,9.477611940298495,-27.112359550561806,19.53846153846154,-15.429906542056068,6.86486486486486,15.85650438101888,43.560751678607495,16.014222904313495,612.4229009951681,44.68252056775129,4517.404481120954,1
-36.0932699341624,10.720036046860919,1.2293627319171705,-122.09816292447579,125.0160077145612,-118.4965617082881,77.18964589387579,40.53191489361702,18.705426356589136,5.404255319148916,20.850746268656703,-12.842696629213492,22.794871794871796,1.186915887850474,10.297297297297291,16.576765555905602,150.05136901205537,16.014222904313495,612.4229009951681,44.68252056775129,4517.404481120954,1
-35.53584491587418,16.671372784620004,0.8195751546114434,-120.02430877713863,124.13423336547734,-118.97918928700688,76.42417393176191,40.53191489361702,18.705426356589136,5.404255319148916,20.850746268656703,-12.842696629213492,22.794871794871796,1.186915887850474,10.297297297297291,16.576765555905602,150.05136901205537,17.675597618368542,716.4316061051679,45.8384189054567,4190.479564065677,1
-35.53584491587418,16.671372784620004,0.8195751546114434,-120.02430877713863,124.13423336547734,-118.97918928700688,76.42417393176191,13.510638297872342,18.705426356589136,2.7021276595744483,20.850746268656703,-12.842696629213492,-3.2564102564102555,-15.429906542056068,-17.16216216216217,13.057514271566827,45.522413581983315,17.675597618368542,716.4316061051679,45.8384189054567,4190.479564065677,1
-35.53584491587418,16.671372784620004,0.8195751546114434,-120.02430877713863,124.13423336547734,-118.97918928700688,76.42417393176191,45.93617021276596,10.829457364341074,-5.404255319148955,-1.8955223880597138,-49.94382022471911,-19.53846153846154,-8.308411214953264,17.162162162162158,19.87728255307647,334.1518760954115,17.675597618368542,716.4316061051679,45.8384189054567,4190.479564065677,1
-32.14484272128749,21.70711925503154,-0.8195751546114658,-118.04472072740771,123.32594021215041,-119.16304741223308,75.98676138198256,45.93617021276596,10.829457364341074,-5.404255319148955,-1.8955223880597138,-49.94382022471911,-19.53846153846154,-8.308411214953264,17.162162162162158,19.87728255307647,334.1518760954115,18.223845710310165,731.4596929746995,46.8571383790169,3909.8262850934398,1
-32.14484272128749,21.70711925503154,-0.8195751546114658,-118.04472072740771,123.32594021215041,-119.16304741223308,75.98676138198256,2.7021276595744723,16.73643410852712,-2.7021276595744865,24.641791044776106,-1.426966292134841,48.84615384615385,10.682242990654213,-10.297297297297302,14.754392612336549,252.64569925290127,18.223845710310165,731.4596929746995,46.8571383790169,3909.8262850934398,1
-32.14484272128749,21.70711925503154,-0.8195751546114658,-118.04472072740771,123.32594021215041,-119.16304741223308,75.98676138198256,24.319148936170215,14.767441860465105,-18.914893617021296,5.686567164179092,-44.23595505617978,16.282051282051285,-24.92523364485981,-20.5945945945946,21.21573576944015,123.72550703977767,18.223845710310165,731.4596929746995,46.8571383790169,3909.8262850934398,1
-29.589978054133137,25.903574647041154,-2.1513847808550794,-115.92373353126743,122.56663452266153,-118.97918928700688,75.68604025400924,24.319148936170215,14.767441860465105,-18.914893617021296,5.686567164179092,-44.23595505617978,16.282051282051285,-24.92523364485981,-20.5945945945946,21.21573576944015,123.72550703977767,19.21497916067646,769.915256785882,47.99289765305455,3601.9904781943587,1
-29.589978054133137,25.903574647041154,-2.1513847808550794,-115.92373353126743,122.56663452266153,-118.97918928700688,75.68604025400924,35.12765957446808,22.643410852713167,13.510638297872319,17.0597014925373,-29.96629213483147,32.56410256410257,-5.93457943925233,-10.297297297297302,20.887960206634318,118.49217665265256,19.21497916067646,769.915256785882,47.99289765305455,3601.9904781943587,1
-29.589978054133137,25.903574647041154,-2.1513847808550794,-115.92373353126743,122.56663452266153,-118.97918928700688,75.68604025400924,18.914893617021278,28.550387596899213,29.723404255319128,36.01492537313432,-1.426966292134841,22.794871794871796,5.934579439252343,-3.432432432432438,18.349057600133168,175.51333751392414,19.21497916067646,769.915256785882,47.99289765305455,3601.9904781943587,1
-27.592538405267007,31.62601381796335,-3.3807475127722615,-114.08554462794586,121.92979749276756,-118.54252623959464,75.68604025400924,18.914893617021278,28.550387596899213,29.723404255319128,36.01492537313432,-1.426966292134841,22.794871794871796,5.934579439252343,-3.432432432432438,18.349057600133168,175.51333751392414,20.866433245334207,886.42018075074,49.6974353195605,3308.8202323942282,1
-27.592538405267007,31.62601381796335,-3.3807475127722615,-114.08554462794586,121.92979749276756,-118.54252623959464,75.68604025400924,13.510638297872342,16.73643410852712,-2.7021276595744865,13.268656716417897,-1.426966292134841,32.56410256410257,-3.5607476635513953,-27.459459459459467,13.903641595205015,132.6674526145613,20.866433245334207,886.42018075074,49.6974353195605,3308.8202323942282,1
-27.592538405267007,31.62601381796335,-3.3807475127722615,-114.08554462794586,121.92979749276756,-118.54252623959464,75.68604025400924,13.510638297872342,10.829457364341074,2.7021276595744483,20.850746268656703,-15.696629213483154,16.282051282051285,-8.308411214953264,-10.297297297297302,12.309669824778696,30.88560421037505,20.866433245334207,886.42018075074,49.6974353195605,3308.8202323942282,1
-20.39246525237747,38.56924001201562,-2.8002151115891483,-113.1428836518835,121.63587270973963,-117.87604053564965,76.26014422559466,13.510638297872342,10.829457364341074,2.7021276595744483,20.850746268656703,-15.696629213483154,16.282051282051285,-8.308411214953264,-10.297297297297302,12.309669824778696,30.88560421037505,20.587306791994077,916.2336283208626,51.50411292516276,3169.3593281077665,1
-20.39246525237747,38.56924001201562,-2.8002151115891483,-113.1428836518835,121.63587270973963,-117.87604053564965,76.26014422559466,13.510638297872342,14.767441860465105,-8.106382978723424,5.686567164179092,-12.842696629213492,13.025641025641026,10.682242990654213,-20.5945945945946,12.40202569266791,20.14758140597272,20.587306791994077,916.2336283208626,51.50411292516276,3169.3593281077665,1
-20.39246525237747,38.56924001201562,-2.8002151115891483,-113.1428836518835,121.63587270973963,-117.87604053564965,76.26014422559466,8.106382978723406,24.612403100775182,16.212765957446788,28.43283582089551,29.96629213483145,123.74358974358974,22.551401869158887,13.729729729729726,33.41942516689383,1387.9179725674894,20.587306791994077,916.2336283208626,51.50411292516276,3169.3593281077665,1
-15.050475493782002,42.23160108140583,-2.287980639956989,-112.76581926145855,121.66036644165862,-116.91078537821208,76.99827790334732,8.106382978723406,24.612403100775182,16.212765957446788,28.43283582089551,29.96629213483145,123.74358974358974,22.551401869158887,13.729729729729726,33.41942516689383,1387.9179725674894,19.856685738381607,904.3517880507825,52.42846699427378,3129.3202624533915,1
-15.050475493782002,42.23160108140583,-2.287980639956989,-112.76581926145855,121.66036644165862,-116.91078537821208,76.99827790334732,24.319148936170215,22.643410852713167,8.106382978723385,17.0597014925373,-32.820224719101134,9.76923076923077,-13.056074766355135,-17.16216216216217,18.11704208462416,67.52573252686545,19.856685738381607,904.3517880507825,52.42846699427378,3129.3202624533915,1
-15.050475493782002,42.23160108140583,-2.287980639956989,-112.76581926145855,121.66036644165862,-116.91078537821208,76.99827790334732,13.510638297872342,22.643410852713167,5.404255319148916,17.0597014925373,-7.1348314606741665,35.82051282051282,3.5607476635514086,-17.16216216216217,15.287032508646536,112.45536888099868,19.856685738381607,904.3517880507825,52.42846699427378,3129.3202624533915,1
-22.064740307242136,41.08711324722138,-1.3659585910191026,-111.4932269437744,121.26846673095466,-116.15237061165399,77.54504359057151,13.510638297872342,22.643410852713167,5.404255319148916,17.0597014925373,-7.1348314606741665,35.82051282051282,3.5607476635514086,-17.16216216216217,15.287032508646536,112.45536888099868,21.50593738182754,1036.476580067177,51.3154329273383,3110.467701318945,1
-22.064740307242136,41.08711324722138,-1.3659585910191026,-111.4932269437744,121.26846673095466,-116.15237061165399,77.54504359057151,8.106382978723406,20.67441860465115,5.404255319148916,13.268656716417897,-4.280898876404503,19.53846153846154,-55.785046728971956,3.432432432432428,16.311319149401474,299.1094003626377,21.50593738182754,1036.476580067177,51.3154329273383,3110.467701318945,1
-22.064740307242136,41.08711324722138,-1.3659585910191026,-111.4932269437744,121.26846673095466,-116.15237061165399,77.54504359057151,24.319148936170215,14.767441860465105,-13.510638297872358,5.686567164179092,-15.696629213483154,0.0,-3.5607476635513953,6.86486486486486,10.550754750073272,62.85925617755241,21.50593738182754,1036.476580067177,51.3154329273383,3110.467701318945,1
-25.827359180687637,35.440973265244814,-3.346598547996784,-109.93783633327149,120.8275795564127,-115.50886717336229,77.54504359057151,24.319148936170215,14.767441860465105,-13.510638297872358,5.686567164179092,-15.696629213483154,0.0,-3.5607476635513953,6.86486486486486,10.550754750073272,62.85925617755241,21.538310331309745,960.611481082836,49.5751360488377,2990.2539113440703,1
-25.827359180687637,35.440973265244814,-3.346598547996784,-109.93783633327149,120.8275795564127,-115.50886717336229,77.54504359057151,18.914893617021278,26.581395348837198,13.510638297872319,1.895522388059689,-15.696629213483154,19.53846153846154,-27.29906542056074,-10.297297297297302,16.716737890199152,70.61263978250298,21.538310331309745,960.611481082836,49.5751360488377,2990.2539113440703,1
-25.827359180687637,35.440973265244814,-3.346598547996784,-109.93783633327149,120.8275795564127,-115.50886717336229,77.54504359057151,24.319148936170215,32.488372093023244,5.404255319148916,5.686567164179092,-24.25842696629214,-13.025641025641022,-8.308411214953264,-6.86486486486487,15.044460948034095,110.29522510052223,21.538310331309745,960.611481082836,49.5751360488377,2990.2539113440703,1
-27.91770299926847,32.99939921898468,-4.371067491261103,-108.24104657635928,120.36219864995175,-114.8423814694173,77.216984178237,24.319148936170215,32.488372093023244,5.404255319148916,5.686567164179092,-24.25842696629214,-13.025641025641022,-8.308411214953264,-6.86486486486487,15.044460948034095,110.29522510052223,21.76272323650475,943.6481947596075,48.53717109553502,2878.3099049504726,1
-27.91770299926847,32.99939921898468,-4.371067491261103,-108.24104657635928,120.36219864995175,-114.8423814694173,77.216984178237,24.319148936170215,18.705426356589136,-1.9539925233402755e-14,13.268656716417897,-21.40449438202248,19.53846153846154,15.42990654205608,-3.432432432432438,14.512315863018728,74.61145784216036,21.76272323650475,943.6481947596075,48.53717109553502,2878.3099049504726,1
-27.91770299926847,32.99939921898468,-4.371067491261103,-108.24104657635928,120.36219864995175,-114.8423814694173,77.216984178237,13.510638297872342,10.829457364341074,10.808510638297852,32.22388059701491,-18.550561797752817,16.282051282051285,1.186915887850474,-27.459459459459467,16.35643441558003,97.05893181937797,21.76272323650475,943.6481947596075,48.53717109553502,2878.3099049504726,1
-26.384784198975858,29.108140582757585,-5.190642645872558,-106.82705511226573,120.09276759884281,-114.22186029677886,76.6702184910128,13.510638297872342,10.829457364341074,10.808510638297852,32.22388059701491,-18.550561797752817,16.282051282051285,1.186915887850474,-27.459459459459467,16.35643441558003,97.05893181937797,20.227855809202,784.1771446614443,47.04194611363196,2823.706120374115,1
-26.384784198975858,29.108140582757585,-5.190642645872558,-106.82705511226573,120.09276759884281,-114.22186029677886,76.6702184910128,18.914893617021278,20.67441860465115,8.106382978723385,9.477611940298495,-4.280898876404503,29.307692307692307,1.186915887850474,-6.86486486486487,12.351709884688308,92.28964631402916,20.227855809202,784.1771446614443,47.04194611363196,2823.706120374115,1
-26.384784198975858,29.108140582757585,-5.190642645872558,-106.82705511226573,120.09276759884281,-114.22186029677886,76.6702184910128,18.914893617021278,16.73643410852712,-5.404255319148955,5.686567164179092,-24.25842696629214,13.025641025641026,-8.308411214953264,-13.729729729729735,13.258044893186577,44.12745601964924,20.227855809202,784.1771446614443,47.04194611363196,2823.706120374115,1
-27.035113386978786,29.18443977170321,-7.137133638074761,-105.27166450176287,119.82333654773382,-113.41748099891423,75.93208481326013,18.914893617021278,16.73643410852712,-5.404255319148955,5.686567164179092,-24.25842696629214,13.025641025641026,-8.308411214953264,-13.729729729729735,13.258044893186577,44.12745601964924,21.11889559891892,812.6374084019259,47.197745970513616,2650.9559371181144,1
-27.035113386978786,29.18443977170321,-7.137133638074761,-105.27166450176287,119.82333654773382,-113.41748099891423,75.93208481326013,18.914893617021278,14.767441860465105,-5.404255319148955,24.641791044776106,-7.1348314606741665,32.56410256410257,27.299065420560755,-6.86486486486487,17.198905768951725,107.07820601809841,21.11889559891892,812.6374084019259,47.197745970513616,2650.9559371181144,1
-27.035113386978786,29.18443977170321,-7.137133638074761,-105.27166450176287,119.82333654773382,-113.41748099891423,75.93208481326013,13.510638297872342,20.67441860465115,5.404255319148916,17.0597014925373,-18.550561797752817,-9.769230769230766,-29.672897196261676,-27.459459459459467,17.762645367114303,68.59710194038779,21.11889559891892,812.6374084019259,47.197745970513616,2650.9559371181144,1
-27.220921726408193,30.7104235506158,-6.829792955095467,-103.4334755984413,119.43143683702985,-112.5901194353963,75.33064255731352,13.510638297872342,20.67441860465115,5.404255319148916,17.0597014925373,-18.550561797752817,-9.769230769230766,-29.672897196261676,-27.459459459459467,17.762645367114303,68.59710194038779,21.587046077373156,863.5177922449508,46.99123070138419,2531.866386174453,1
-27.220921726408193,30.7104235506158,-6.829792955095467,-103.4334755984413,119.43143683702985,-112.5901194353963,75.33064255731352,35.12765957446808,44.30232558139534,10.808510638297852,5.686567164179092,-27.112359550561806,9.76923076923077,-3.5607476635513953,-3.432432432432438,17.474979171764595,251.11267393569523,21.587046077373156,863.5177922449508,46.99123070138419,2531.866386174453,1
-27.220921726408193,30.7104235506158,-6.829792955095467,-103.4334755984413,119.43143683702985,-112.5901194353963,75.33064255731352,18.914893617021278,22.643410852713167,-13.510638297872358,9.477611940298495,-15.696629213483154,16.282051282051285,5.934579439252343,3.432432432432428,13.236530884390564,42.81484574405057,21.587046077373156,863.5177922449508,46.99123070138419,2531.866386174453,1
-23.272494513533285,34.14388705316912,-5.941919870933058,-102.11375023195399,119.2109932497589,-111.64784654361202,75.05725971370143,18.914893617021278,22.643410852713167,-13.510638297872358,9.477611940298495,-15.696629213483154,16.282051282051285,5.934579439252343,3.432432432432428,13.236530884390564,42.81484574405057,21.11943381254515,867.3102677353833,47.399852385352055,2444.0457014132735,1
-23.272494513533285,34.14388705316912,-5.941919870933058,-102.11375023195399,119.2109932497589,-111.64784654361202,75.05725971370143,-2.702127659574465,6.891472868217043,-5.404255319148955,17.0597014925373,-12.842696629213492,32.56410256410257,1.186915887850474,-13.729729729729735,11.547625268796754,103.36028117918161,21.11943381254515,867.3102677353833,47.399852385352055,2444.0457014132735,1
-23.272494513533285,34.14388705316912,-5.941919870933058,-102.11375023195399,119.2109932497589,-111.64784654361202,75.05725971370143,8.106382978723406,30.51937984496123,13.510638297872319,20.850746268656703,-1.426966292134841,29.307692307692307,-13.056074766355135,-20.5945945945946,17.17155941887382,101.58754447270017,21.11943381254515,867.3102677353833,47.399852385352055,2444.0457014132735,1
-22.761521580102414,36.05136677680985,-5.873621941382103,-100.88829096307296,119.01504339440694,-110.65960912052117,74.86589172317295,8.106382978723406,30.51937984496123,13.510638297872319,20.850746268656703,-1.426966292134841,29.307692307692307,-13.056074766355135,-20.5945945945946,17.17155941887382,101.58754447270017,21.562170099431455,916.9769450184398,47.60442656042164,2357.051725098146,1
-22.761521580102414,36.05136677680985,-5.873621941382103,-100.88829096307296,119.01504339440694,-110.65960912052117,74.86589172317295,18.914893617021278,12.79844961240309,16.212765957446788,-1.8955223880597138,-41.38202247191012,-71.64102564102564,13.056074766355147,-10.297297297297302,23.274756468939884,510.81567818981586,21.562170099431455,916.9769450184398,47.60442656042164,2357.051725098146,1
-22.761521580102414,36.05136677680985,-5.873621941382103,-100.88829096307296,119.01504339440694,-110.65960912052117,74.86589172317295,13.510638297872342,16.73643410852712,5.404255319148916,9.477611940298495,-15.696629213483154,16.282051282051285,-13.056074766355135,-10.297297297297302,12.557624028129219,15.44429860373695,21.562170099431455,916.9769450184398,47.60442656042164,2357.051725098146,1
-19.788588149231895,33.304595974767196,-5.7370260822801935,-100.08702913341995,118.99054966248795,-109.76330076004344,74.7018620170057,13.510638297872342,16.73643410852712,5.404255319148916,9.477611940298495,-15.696629213483154,16.282051282051285,-13.056074766355135,-10.297297297297302,12.557624028129219,15.44429860373695,19.610070068759764,756.7634749652657,46.376217063489115,2353.6312273528597,1
-19.788588149231895,33.304595974767196,-5.7370260822801935,-100.08702913341995,118.99054966248795,-109.76330076004344,74.7018620170057,-8.106382978723403,12.79844961240309,13.510638297872319,39.80597014925372,27.112359550561784,65.12820512820514,1.186915887850474,-13.729729729729735,22.672331416824957,435.85240866002096,19.610070068759764,756.7634749652657,46.376217063489115,2353.6312273528597,1
-19.788588149231895,33.304595974767196,-5.7370260822801935,-100.08702913341995,118.99054966248795,-109.76330076004344,74.7018620170057,40.53191489361702,30.51937984496123,-2.7021276595744865,9.477611940298495,-35.67415730337079,19.53846153846154,8.308411214953278,3.432432432432428,18.773062103458656,226.7400964338571,19.610070068759764,756.7634749652657,46.376217063489115,2353.6312273528597,1
-20.113752743233356,29.108140582757585,-7.000537778972854,-99.33290035257005,118.99054966248795,-108.9589214621788,74.31912603594876,40.53191489361702,30.51937984496123,-2.7021276595744865,9.477611940298495,-35.67415730337079,19.53846153846154,8.308411214953278,3.432432432432428,18.773062103458656,226.7400964338571,18.740810368321267,649.7646403875062,45.147192904766825,2324.2546941466653,1
-20.113752743233356,29.108140582757585,-7.000537778972854,-99.33290035257005,118.99054966248795,-108.9589214621788,74.31912603594876,8.106382978723406,16.73643410852712,5.404255319148916,9.477611940298495,-21.40449438202248,26.05128205128205,-8.308411214953264,-17.16216216216217,14.081379269639738,54.137431641617255,18.740810368321267,649.7646403875062,45.147192904766825,2324.2546941466653,1
-20.113752743233356,29.108140582757585,-7.000537778972854,-99.33290035257005,118.99054966248795,-108.9589214621788,74.31912603594876,8.106382978723406,4.922480620155028,8.106382978723385,20.850746268656703,-12.842696629213492,16.282051282051285,-20.177570093457938,-6.86486486486487,12.269146964480765,38.63662038193995,18.740810368321267,649.7646403875062,45.147192904766825,2324.2546941466653,1
-20.346013167520116,29.56593571643136,-5.771175047055671,-98.39023937650774,118.84358727097393,-108.24647122692726,74.1277580454203,8.106382978723406,4.922480620155028,8.106382978723385,20.850746268656703,-12.842696629213492,16.282051282051285,-20.177570093457938,-6.86486486486487,12.269146964480765,38.63662038193995,18.561041310335714,658.7233241238132,44.575783379998256,2313.5444144784087,1
-20.346013167520116,29.56593571643136,-5.771175047055671,-98.39023937650774,118.84358727097393,-108.24647122692726,74.1277580454203,-8.106382978723403,10.829457364341074,-35.127659574468105,1.895522388059689,-12.842696629213492,29.307692307692307,-43.915887850467286,-24.02702702702703,20.75654076499905,214.80615806276023,18.561041310335714,658.7233241238132,44.575783379998256,2313.5444144784087,1
-20.346013167520116,29.56593571643136,-5.771175047055671,-98.39023937650774,118.84358727097393,-108.24647122692726,74.1277580454203,13.510638297872342,12.79844961240309,13.510638297872319,13.268656716417897,1.4269662921348214,32.56410256410257,-10.6822429906542,-3.432432432432438,12.64926590048621,87.60710738864022,18.561041310335714,658.7233241238132,44.575783379998256,2313.5444144784087,1
-22.15764447695684,32.38900570741964,-3.5514923366496483,-97.25904620523289,118.47618129218901,-107.69489685124864,74.23711118286514,13.510638297872342,12.79844961240309,13.510638297872319,13.268656716417897,1.4269662921348214,32.56410256410257,-10.6822429906542,-3.432432432432438,12.64926590048621,87.60710738864022,19.366047507008712,768.8742239101241,44.39984808310073,2303.4716639384496,1
-22.15764447695684,32.38900570741964,-3.5514923366496483,-97.25904620523289,118.47618129218901,-107.69489685124864,74.23711118286514,8.106382978723406,-8.86046511627908,-10.80851063829789,9.477611940298495,-35.67415730337079,22.794871794871796,-46.28971962616822,-13.729729729729735,19.467681140967425,206.06296375765214,19.366047507008712,768.8742239101241,44.39984808310073,2303.4716639384496,1
-22.15764447695684,32.38900570741964,-3.5514923366496483,-97.25904620523289,118.47618129218901,-107.69489685124864,74.23711118286514,8.106382978723406,4.922480620155028,-10.80851063829789,5.686567164179092,-15.696629213483154,22.794871794871796,5.934579439252343,-5.329070518200751e-15,9.243752731120338,50.96272489753003,19.366047507008712,768.8742239101241,44.39984808310073,2303.4716639384496,1
-23.690563277249453,36.432862721538,-0.9220220489378979,-96.17498608276122,118.01080038572806,-107.30419833514296,74.75653858572811,8.106382978723406,4.922480620155028,-10.80851063829789,5.686567164179092,-15.696629213483154,22.794871794871796,5.934579439252343,-5.329070518200751e-15,9.243752731120338,50.96272489753003,20.348482682575117,921.4367066187543,44.50995695107904,2317.211377701874,1
-23.690563277249453,36.432862721538,-0.9220220489378979,-96.17498608276122,118.01080038572806,-107.30419833514296,74.75653858572811,8.106382978723406,8.860465116279059,5.404255319148916,20.850746268656703,-24.25842696629214,39.07692307692308,-55.785046728971956,-17.16216216216217,22.438051077144678,300.3486054481695,20.348482682575117,921.4367066187543,44.50995695107904,2317.211377701874,1
-23.690563277249453,36.432862721538,-0.9220220489378979,-96.17498608276122,118.01080038572806,-107.30419833514296,74.75653858572811,29.72340425531915,36.426356589147275,10.808510638297852,-9.47761194029852,-15.696629213483154,-3.2564102564102555,5.934579439252343,-3.432432432432438,14.344491845580123,153.55469666832067,20.348482682575117,921.4367066187543,44.50995695107904,2317.211377701874,1
-24.43379663496708,38.03514568939622,0.5122344716321479,-95.04379291148638,117.47193828351013,-106.9824466159971,75.41265741039714,29.72340425531915,36.426356589147275,10.808510638297852,-9.47761194029852,-15.696629213483154,-3.2564102564102555,5.934579439252343,-3.432432432432438,14.344491845580123,153.55469666832067,20.993725598665147,988.7736815587083,44.530391024171585,2265.695044236085,1
-24.43379663496708,38.03514568939622,0.5122344716321479,-95.04379291148638,117.47193828351013,-106.9824466159971,75.41265741039714,18.914893617021278,22.643410852713167,-1.9539925233402755e-14,17.0597014925373,9.98876404494381,48.84615384615385,-10.6822429906542,6.86486486486486,16.87500396361106,218.62334829418532,20.993725598665147,988.7736815587083,44.530391024171585,2265.695044236085,1
-24.43379663496708,38.03514568939622,0.5122344716321479,-95.04379291148638,117.47193828351013,-106.9824466159971,75.41265741039714,8.106382978723406,16.73643410852712,-2.7021276595744865,9.477611940298495,-47.08988764044945,-6.512820512820511,-17.803738317757002,-24.02702702702703,16.557003773147187,200.5741109944681,20.993725598665147,988.7736815587083,44.530391024171585,2265.695044236085,1
-24.9912216532553,37.34845298888555,1.8781930626512389,-94.00686583781783,116.88408871745415,-106.84455302207745,76.17812937251102,8.106382978723406,16.73643410852712,-2.7021276595744865,9.477611940298495,-47.08988764044945,-6.512820512820511,-17.803738317757002,-24.02702702702703,16.557003773147187,200.5741109944681,21.405955901597363,977.7233034829962,44.41117062978487,2159.334572184733,1
-24.9912216532553,37.34845298888555,1.8781930626512389,-94.00686583781783,116.88408871745415,-106.84455302207745,76.17812937251102,13.510638297872342,38.39534883720929,27.02127659574466,13.268656716417897,-15.696629213483154,6.5128205128205146,-29.672897196261676,-5.329070518200751e-15,18.009783421226192,162.48717659295934,21.405955901597363,977.7233034829962,44.41117062978487,2159.334572184733,1
-24.9912216532553,37.34845298888555,1.8781930626512389,-94.00686583781783,116.88408871745415,-106.84455302207745,76.17812937251102,13.510638297872342,14.767441860465105,8.106382978723385,24.641791044776106,-9.98876404494383,29.307692307692307,3.5607476635514086,-17.16216216216217,15.13070254502333,72.56795581632272,21.405955901597363,977.7233034829962,44.41117062978487,2159.334572184733,1
-23.829919531821506,35.89876839891859,3.24415165367033,-93.01707181295234,116.24725168756024,-106.82157075642418,77.02561618770852,13.510638297872342,14.767441860465105,8.106382978723385,24.641791044776106,-9.98876404494383,29.307692307692307,3.5607476635514086,-17.16216216216217,15.13070254502333,72.56795581632272,20.990946528136806,894.4742478773109,44.053330621847095,2064.666962266915,1
-23.829919531821506,35.89876839891859,3.24415165367033,-93.01707181295234,116.24725168756024,-106.82157075642418,77.02561618770852,18.914893617021278,26.581395348837198,2.7021276595744483,13.268656716417897,-18.550561797752817,13.025641025641026,-39.168224299065415,-10.297297297297302,17.813599720200923,123.29751968011281,20.990946528136806,894.4742478773109,44.053330621847095,2064.666962266915,1
-23.829919531821506,35.89876839891859,3.24415165367033,-93.01707181295234,116.24725168756024,-106.82157075642418,77.02561618770852,18.914893617021278,24.612403100775182,5.404255319148916,17.0597014925373,-15.696629213483154,29.307692307692307,-1.1869158878504606,-10.297297297297302,15.309973529475737,88.76982282043205,20.990946528136806,894.4742478773109,44.053330621847095,2064.666962266915,1
-20.067300658376006,35.05947732051667,5.293089540198967,-92.49860827611803,115.78187078109929,-106.890517553384,78.03713270907329,18.914893617021278,24.612403100775182,5.404255319148916,17.0597014925373,-15.696629213483154,29.307692307692307,-1.1869158878504606,-10.297297297297302,15.309973529475737,88.76982282043205,20.139955839697212,761.3581471410585,44.28372504561122,1965.015684070617,1
-20.067300658376006,35.05947732051667,5.293089540198967,-92.49860827611803,115.78187078109929,-106.890517553384,78.03713270907329,13.510638297872342,24.612403100775182,2.7021276595744483,13.268656716417897,-9.98876404494383,22.794871794871796,8.308411214953278,-5.329070518200751e-15,11.898234103676096,75.36199492538286,20.139955839697212,761.3581471410585,44.28372504561122,1965.015684070617,1
-20.067300658376006,35.05947732051667,5.293089540198967,-92.49860827611803,115.78187078109929,-106.890517553384,78.03713270907329,-8.106382978723403,-2.953488372093034,-24.31914893617023,9.477611940298495,-21.40449438202248,13.025641025641026,-17.803738317757002,-24.02702702702703,15.139691622466588,63.4416288526878,20.139955839697212,761.3581471410585,44.28372504561122,1965.015684070617,1
-19.091806876371617,32.16010814058276,6.659048131218057,-92.21580998329932,115.34098360655733,-107.14332247557003,79.07598751479927,-8.106382978723403,-2.953488372093034,-24.31914893617023,9.477611940298495,-21.40449438202248,13.025641025641026,-17.803738317757002,-24.02702702702703,15.139691622466588,63.4416288526878,19.303654382724144,656.6948980213731,43.67832208503338,1929.4918140060395,1
-19.091806876371617,32.16010814058276,6.659048131218057,-92.21580998329932,115.34098360655733,-107.14332247557003,79.07598751479927,13.510638297872342,14.767441860465105,-1.9539925233402755e-14,20.850746268656703,-18.550561797752817,13.025641025641026,-17.803738317757002,-13.729729729729735,14.029812162234343,39.99321649958942,19.303654382724144,656.6948980213731,43.67832208503338,1929.4918140060395,1
-19.091806876371617,32.16010814058276,6.659048131218057,-92.21580998329932,115.34098360655733,-107.14332247557003,79.07598751479927,-2.702127659574465,16.73643410852712,2.7021276595744483,13.268656716417897,-4.280898876404503,16.282051282051285,1.186915887850474,-20.5945945945946,9.71922584812435,60.57700597022641,19.303654382724144,656.6948980213731,43.67832208503338,1929.4918140060395,1
-21.321506949524505,29.108140582757585,7.000537778972831,-91.74447949526814,114.90009643201543,-107.46507419471588,79.75944462382951,-2.702127659574465,16.73643410852712,2.7021276595744483,13.268656716417897,-4.280898876404503,16.282051282051285,1.186915887850474,-20.5945945945946,9.71922584812435,60.57700597022641,19.14339510375164,639.0056115938534,42.61771928566618,1932.2654519512753,1
-21.321506949524505,29.108140582757585,7.000537778972831,-91.74447949526814,114.90009643201543,-107.46507419471588,79.75944462382951,24.319148936170215,26.581395348837198,8.106382978723385,13.268656716417897,-21.40449438202248,22.794871794871796,-29.672897196261676,-3.432432432432438,18.697534973217135,87.5715353495813,19.14339510375164,639.0056115938534,42.61771928566618,1932.2654519512753,1
-21.321506949524505,29.108140582757585,7.000537778972831,-91.74447949526814,114.90009643201543,-107.46507419471588,79.75944462382951,8.106382978723406,22.643410852713167,8.106382978723385,20.850746268656703,-1.426966292134841,58.61538461538461,5.934579439252343,-6.86486486486487,16.568589786306667,343.2720534409868,19.14339510375164,639.0056115938534,42.61771928566618,1932.2654519512753,1
-25.873811265544987,26.590267347551816,8.298198440440967,-90.89608461681206,114.18977820636448,-108.06261310170105,80.33354859541491,8.106382978723406,22.643410852713167,8.106382978723385,20.850746268656703,-1.426966292134841,58.61538461538461,5.934579439252343,-6.86486486486487,16.568589786306667,343.2720534409868,20.254092351179256,709.1342628282819,41.92818346826828,1882.0414533957894,1
-25.873811265544987,26.590267347551816,8.298198440440967,-90.89608461681206,114.18977820636448,-108.06261310170105,80.33354859541491,8.106382978723406,18.705426356589136,5.404255319148916,13.268656716417897,-7.1348314606741665,22.794871794871796,10.682242990654213,-27.459459459459467,14.194515884567375,63.948518064038524,20.254092351179256,709.1342628282819,41.92818346826828,1882.0414533957894,1
-25.873811265544987,26.590267347551816,8.298198440440967,-90.89608461681206,114.18977820636448,-108.06261310170105,80.33354859541491,24.319148936170215,22.643410852713167,10.808510638297852,20.850746268656703,-9.98876404494383,32.56410256410257,-10.6822429906542,-6.86486486486487,17.340223895050425,81.66979031912366,20.254092351179256,709.1342628282819,41.92818346826828,1882.0414533957894,1
-27.220921726408193,24.377590868128564,8.298198440440967,-90.00055668955281,113.4304725168756,-108.79804560260587,80.82563771391669,24.319148936170215,22.643410852713167,10.808510638297852,20.850746268656703,-9.98876404494383,32.56410256410257,-10.6822429906542,-6.86486486486487,17.340223895050425,81.66979031912366,19.965570344992575,697.0935433732027,40.89211533270745,1873.365974584934,1
-27.220921726408193,24.377590868128564,8.298198440440967,-90.00055668955281,113.4304725168756,-108.79804560260587,80.82563771391669,24.319148936170215,26.581395348837198,8.106382978723385,20.850746268656703,-18.550561797752817,22.794871794871796,-10.6822429906542,-6.86486486486487,17.3437768725664,59.567441009517545,19.965570344992575,697.0935433732027,40.89211533270745,1873.365974584934,1
-27.220921726408193,24.377590868128564,8.298198440440967,-90.00055668955281,113.4304725168756,-108.79804560260587,80.82563771391669,8.106382978723406,22.643410852713167,-2.7021276595744865,5.686567164179092,-18.550561797752817,9.76923076923077,-3.5607476635513953,-10.297297297297302,10.164540772877803,49.972485063292034,19.965570344992575,697.0935433732027,40.89211533270745,1873.365974584934,1
-25.92026335040234,23.99609492340042,7.444474321054035,-89.38782705511227,112.81812921890068,-109.48751357220412,81.20837369497362,8.106382978723406,22.643410852713167,-2.7021276595744865,5.686567164179092,-18.550561797752817,9.76923076923077,-3.5607476635513953,-10.297297297297302,10.164540772877803,49.972485063292034,19.12027753161893,646.4674479612925,40.27613209985557,1877.4579721746436,1
-25.92026335040234,23.99609492340042,7.444474321054035,-89.38782705511227,112.81812921890068,-109.48751357220412,81.20837369497362,13.510638297872342,18.705426356589136,2.7021276595744483,17.0597014925373,-12.842696629213492,16.282051282051285,-24.92523364485981,-13.729729729729735,14.969700636553442,39.691790782891125,19.12027753161893,646.4674479612925,40.27613209985557,1877.4579721746436,1
-25.92026335040234,23.99609492340042,7.444474321054035,-89.38782705511227,112.81812921890068,-109.48751357220412,81.20837369497362,35.12765957446808,34.45736434108526,18.914893617021256,24.641791044776106,-18.550561797752817,19.53846153846154,5.934579439252343,-5.329070518200751e-15,19.645663919102176,151.3900942565902,19.12027753161893,646.4674479612925,40.27613209985557,1877.4579721746436,1
-23.597659107534746,23.614598978672273,6.727346060769012,-88.96362961588426,112.37724204435872,-110.01610568222947,81.53643310730814,35.12765957446808,34.45736434108526,18.914893617021256,24.641791044776106,-18.550561797752817,19.53846153846154,5.934579439252343,-5.329070518200751e-15,19.645663919102176,151.3900942565902,17.979868048992007,572.2970938615837,39.76852488510851,1886.4135748823035,1
-23.597659107534746,23.614598978672273,6.727346060769012,-88.96362961588426,112.37724204435872,-110.01610568222947,81.53643310730814,18.914893617021278,18.705426356589136,8.106382978723385,17.0597014925373,-9.98876404494383,29.307692307692307,13.056074766355147,-3.432432432432438,14.821420999536851,63.996541204132924,17.979868048992007,572.2970938615837,39.76852488510851,1886.4135748823035,1
-23.597659107534746,23.614598978672273,6.727346060769012,-88.96362961588426,112.37724204435872,-110.01610568222947,81.53643310730814,35.12765957446808,30.51937984496123,16.212765957446788,13.268656716417897,-7.1348314606741665,26.05128205128205,-10.6822429906542,3.432432432432428,17.803656378542108,132.00023214149704,17.979868048992007,572.2970938615837,39.76852488510851,1886.4135748823035,1
-21.64667154352597,22.088615199759687,5.497983328851831,-88.68083132306555,112.15679845708772,-110.38382193268187,81.56377139166935,35.12765957446808,30.51937984496123,16.212765957446788,13.268656716417897,-7.1348314606741665,26.05128205128205,-10.6822429906542,3.432432432432428,17.803656378542108,132.00023214149704,16.41109002404583,487.47611008898417,38.75580995055902,1938.193085752921,1
-21.64667154352597,22.088615199759687,5.497983328851831,-88.68083132306555,112.15679845708772,-110.38382193268187,81.56377139166935,18.914893617021278,26.581395348837198,10.808510638297852,9.477611940298495,-18.550561797752817,26.05128205128205,-60.53271028037383,-10.297297297297302,22.6517828713951,279.8860937950246,16.41109002404583,487.47611008898417,38.75580995055902,1938.193085752921,1
-21.64667154352597,22.088615199759687,5.497983328851831,-88.68083132306555,112.15679845708772,-110.38382193268187,81.56377139166935,8.106382978723406,22.643410852713167,5.404255319148916,17.0597014925373,-15.696629213483154,29.307692307692307,-51.037383177570085,-10.297297297297302,19.944094079895706,218.95937022580947,16.41109002404583,487.47611008898417,38.75580995055902,1938.193085752921,1
-22.15764447695684,20.63893060979273,5.156493681097057,-88.39803303024684,111.96084860173576,-110.68259138617445,81.37240340114089,8.106382978723406,22.643410852713167,5.404255319148916,17.0597014925373,-15.696629213483154,29.307692307692307,-51.037383177570085,-10.297297297297302,19.944094079895706,218.95937022580947,15.984356255948876,469.55247262068156,38.064485773712214,1960.0259478821135,1
-22.15764447695684,20.63893060979273,5.156493681097057,-88.39803303024684,111.96084860173576,-110.68259138617445,81.37240340114089,2.7021276595744723,16.73643410852712,-1.9539925233402755e-14,9.477611940298495,-15.696629213483154,16.282051282051285,-53.41121495327102,-10.297297297297302,15.57542080681286,272.39522274351054,15.984356255948876,469.55247262068156,38.064485773712214,1960.0259478821135,1
-22.15764447695684,20.63893060979273,5.156493681097057,-88.39803303024684,111.96084860173576,-110.68259138617445,81.37240340114089,13.510638297872342,18.705426356589136,-1.9539925233402755e-14,13.268656716417897,-27.112359550561806,9.76923076923077,-27.29906542056074,-13.729729729729735,15.424388355120307,81.35084084688485,15.984356255948876,469.55247262068156,38.064485773712214,1960.0259478821135,1
-24.015727871250913,19.875938720336435,4.883301962893239,-87.92670254221565,111.66692381870777,-111.05030763662685,81.07168227316757,13.510638297872342,18.705426356589136,-1.9539925233402755e-14,13.268656716417897,-27.112359550561806,9.76923076923077,-27.29906542056074,-13.729729729729735,15.424388355120307,81.35084084688485,16.25832285149353,497.7352464137426,37.561981075148445,1958.6486655766048,1
-24.015727871250913,19.875938720336435,4.883301962893239,-87.92670254221565,111.66692381870777,-111.05030763662685,81.07168227316757,13.510638297872342,18.705426356589136,2.7021276595744483,17.0597014925373,-15.696629213483154,16.282051282051285,-13.056074766355135,-6.86486486486487,12.984689241665958,30.146402030596807,16.25832285149353,497.7352464137426,37.561981075148445,1958.6486655766048,1
-24.015727871250913,19.875938720336435,4.883301962893239,-87.92670254221565,111.66692381870777,-111.05030763662685,81.07168227316757,2.7021276595744723,14.767441860465105,2.7021276595744483,20.850746268656703,-9.98876404494383,16.282051282051285,-27.29906542056074,-13.729729729729735,13.540256740694542,71.33579691319888,16.25832285149353,497.7352464137426,37.561981075148445,1958.6486655766048,1
-23.318946598390635,18.42625413036948,3.8929819844043982,-87.5496381517907,111.47097396335582,-111.39504162142599,80.68894629211064,2.7021276595744723,14.767441860465105,2.7021276595744483,20.850746268656703,-9.98876404494383,16.282051282051285,-27.29906542056074,-13.729729729729735,13.540256740694542,71.33579691319888,15.212727571054836,449.06114005804926,36.62295808885486,1997.9490564916414,1
-23.318946598390635,18.42625413036948,3.8929819844043982,-87.5496381517907,111.47097396335582,-111.39504162142599,80.68894629211064,24.319148936170215,22.643410852713167,5.404255319148916,13.268656716417897,-21.40449438202248,0.0,-20.177570093457938,-6.86486486486487,14.260300145599436,84.99601270510264,15.212727571054836,449.06114005804926,36.62295808885486,1997.9490564916414,1
-23.318946598390635,18.42625413036948,3.8929819844043982,-87.5496381517907,111.47097396335582,-111.39504162142599,80.68894629211064,13.510638297872342,12.79844961240309,-2.7021276595744865,9.477611940298495,-24.25842696629214,9.76923076923077,-20.177570093457938,3.432432432432428,12.01581097144521,55.893093035099135,15.212727571054836,449.06114005804926,36.62295808885486,1997.9490564916414,1
-22.529261155815654,17.4343646740763,3.346598547996762,-87.21970681016887,111.32401157184185,-111.69381107491857,80.25153374233128,13.510638297872342,12.79844961240309,-2.7021276595744865,9.477611940298495,-24.25842696629214,9.76923076923077,-20.177570093457938,3.432432432432428,12.01581097144521,55.893093035099135,14.436741459296238,410.8527765510174,36.000223344080645,2017.1929035054427,1
-22.529261155815654,17.4343646740763,3.346598547996762,-87.21970681016887,111.32401157184185,-111.69381107491857,80.25153374233128,8.106382978723406,18.705426356589136,18.914893617021256,32.22388059701491,4.2808988764044855,26.05128205128205,-39.168224299065415,-3.432432432432438,18.860427651066637,172.70843297929054,14.436741459296238,410.8527765510174,36.000223344080645,2017.1929035054427,1
-22.529261155815654,17.4343646740763,3.346598547996762,-87.21970681016887,111.32401157184185,-111.69381107491857,80.25153374233128,29.72340425531915,42.33333333333332,16.212765957446788,17.0597014925373,-9.98876404494383,32.56410256410257,1.186915887850474,-10.297297297297302,19.92078560410384,188.91667969557213,14.436741459296238,410.8527765510174,36.000223344080645,2017.1929035054427,1
-21.275054864667155,17.663262240913184,2.356278569507921,-86.98404156615328,111.22603664416582,-111.90065146579805,79.78678290819072,29.72340425531915,42.33333333333332,16.212765957446788,17.0597014925373,-9.98876404494383,32.56410256410257,1.186915887850474,-10.297297297297302,19.92078560410384,188.91667969557213,13.76486522502942,384.8227013347598,35.66786079219146,2033.5887441986133,1
-21.275054864667155,17.663262240913184,2.356278569507921,-86.98404156615328,111.22603664416582,-111.90065146579805,79.78678290819072,-8.106382978723403,-8.86046511627908,-2.7021276595744865,17.0597014925373,-44.23595505617978,13.025641025641026,-20.177570093457938,-17.16216216216217,16.416250698069398,159.25301270581704,13.76486522502942,384.8227013347598,35.66786079219146,2033.5887441986133,1
-21.275054864667155,17.663262240913184,2.356278569507921,-86.98404156615328,111.22603664416582,-111.90065146579805,79.78678290819072,8.106382978723406,0.9844961240309971,-8.106382978723424,20.850746268656703,-21.40449438202248,-6.512820512820511,-17.803738317757002,-13.729729729729735,12.187348911558033,54.99224885114427,13.76486522502942,384.8227013347598,35.66786079219146,2033.5887441986133,1
-18.348573518653986,18.19735656353259,2.11723581607958,-87.17257376136575,111.32401157184185,-112.1304741223308,79.48606178021741,8.106382978723406,0.9844961240309971,-8.106382978723424,20.850746268656703,-21.40449438202248,-6.512820512820511,-17.803738317757002,-13.729729729729735,12.187348911558033,54.99224885114427,12.887721966088717,335.50410675840095,35.829055380325975,2041.7602306212946,1
-18.348573518653986,18.19735656353259,2.11723581607958,-87.17257376136575,111.32401157184185,-112.1304741223308,79.48606178021741,13.510638297872342,20.67441860465115,5.404255319148916,20.850746268656703,-4.280898876404503,35.82051282051282,-5.93457943925233,-17.16216216216217,15.454776473582616,113.47455395702589,12.887721966088717,335.50410675840095,35.829055380325975,2041.7602306212946,1
-18.348573518653986,18.19735656353259,2.11723581607958,-87.17257376136575,111.32401157184185,-112.1304741223308,79.48606178021741,51.34042553191489,62.023255813953476,-24.31914893617023,-17.05970149253733,-18.550561797752817,13.025641025641026,-3.5607476635513953,-10.297297297297302,25.022097444852307,426.97700199019556,12.887721966088717,335.50410675840095,35.829055380325975,2041.7602306212946,1
-15.654352596927577,17.12916791829378,1.4684054853455115,-87.59677120059382,111.5199614271938,-112.29134998190372,79.24001722096652,51.34042553191489,62.023255813953476,-24.31914893617023,-17.05970149253733,-18.550561797752817,13.025641025641026,-3.5607476635513953,-10.297297297297302,25.022097444852307,426.97700199019556,11.417308666855623,268.8679236162053,35.398114868077705,2104.8396621854044,1
-15.654352596927577,17.12916791829378,1.4684054853455115,-87.59677120059382,111.5199614271938,-112.29134998190372,79.24001722096652,18.914893617021278,16.73643410852712,-10.80851063829789,1.895522388059689,-15.696629213483154,26.05128205128205,39.16822429906543,-5.329070518200751e-15,16.158937039467077,161.23023207333867,11.417308666855623,268.8679236162053,35.398114868077705,2104.8396621854044,1
-15.654352596927577,17.12916791829378,1.4684054853455115,-87.59677120059382,111.5199614271938,-112.29134998190372,79.24001722096652,8.106382978723406,18.705426356589136,2.7021276595744483,17.0597014925373,-1.426966292134841,52.1025641025641,-1.1869158878504606,-17.16216216216217,14.806530866516983,281.81949670564927,11.417308666855623,268.8679236162053,35.398114868077705,2104.8396621854044,1
-17.18727139722019,18.12105737458696,2.3221296047324436,-90.7546854704027,111.7648987463838,-118.72638436482085,74.4558174577548,8.106382978723406,18.705426356589136,2.7021276595744483,17.0597014925373,-1.426966292134841,52.1025641025641,-1.1869158878504606,-17.16216216216217,14.806530866516983,281.81949670564927,12.5434861255132,312.81682113168256,37.0659574832407,2224.261164328874,1
-17.18727139722019,18.12105737458696,2.3221296047324436,-90.7546854704027,111.7648987463838,-118.72638436482085,74.4558174577548,8.106382978723406,12.79844961240309,2.7021276595744483,20.850746268656703,9.98876404494381,22.794871794871796,-22.551401869158873,-10.297297297297302,13.761255190703677,55.79619444593959,12.5434861255132,312.81682113168256,37.0659574832407,2224.261164328874,1
-17.18727139722019,18.12105737458696,2.3221296047324436,-90.7546854704027,111.7648987463838,-118.72638436482085,74.4558174577548,13.510638297872342,2.9534883720930125,-16.212765957446827,5.686567164179092,-32.820224719101134,-35.82051282051282,-10.6822429906542,-20.5945945945946,17.285129364556752,142.1099458359856,12.5434861255132,312.81682113168256,37.0659574832407,2224.261164328874,1
-18.02340892465252,15.679483328326825,1.6732992739983752,-90.94321766561518,111.88736740597878,-118.91024249004705,73.93639005489182,13.510638297872342,2.9534883720930125,-16.212765957446827,5.686567164179092,-32.820224719101134,-35.82051282051282,-10.6822429906542,-20.5945945945946,17.285129364556752,142.1099458359856,11.792063842325907,286.66974197374356,36.098666755980126,2304.9868713005944,1
-18.02340892465252,15.679483328326825,1.6732992739983752,-90.94321766561518,111.88736740597878,-118.91024249004705,73.93639005489182,18.914893617021278,26.581395348837198,13.510638297872319,20.850746268656703,-15.696629213483154,29.307692307692307,-20.177570093457938,-6.86486486486487,18.988053751485722,50.978709401852576,11.792063842325907,286.66974197374356,36.098666755980126,2304.9868713005944,1
-18.02340892465252,15.679483328326825,1.6732992739983752,-90.94321766561518,111.88736740597878,-118.91024249004705,73.93639005489182,18.914893617021278,18.705426356589136,-1.9539925233402755e-14,9.477611940298495,-4.280898876404503,32.56410256410257,-17.803738317757002,-10.297297297297302,14.00549612118379,104.2877473890622,11.792063842325907,286.66974197374356,36.098666755980126,2304.9868713005944,1
-16.490490124359912,14.611294683088014,1.0586179080397842,-91.36741510484325,112.10781099324973,-119.11708288092653,73.44430093639005,18.914893617021278,18.705426356589136,-1.9539925233402755e-14,9.477611940298495,-4.280898876404503,32.56410256410257,-17.803738317757002,-10.297297297297302,14.00549612118379,104.2877473890622,10.720134238495904,243.1612097850943,35.679109231990346,2371.80932018355,1
-16.490490124359912,14.611294683088014,1.0586179080397842,-91.36741510484325,112.10781099324973,-119.11708288092653,73.44430093639005,2.7021276595744723,14.767441860465105,-8.106382978723424,1.895522388059689,-27.112359550561806,6.5128205128205146,27.299065420560755,-10.297297297297302,12.336627208507883,100.84521313639837,10.720134238495904,243.1612097850943,35.679109231990346,2371.80932018355,1
-16.490490124359912,14.611294683088014,1.0586179080397842,-91.36741510484325,112.10781099324973,-119.11708288092653,73.44430093639005,18.914893617021278,20.67441860465115,-10.80851063829789,17.0597014925373,-21.40449438202248,13.025641025641026,-10.6822429906542,-5.329070518200751e-15,14.071237843853165,50.142035134321034,10.720134238495904,243.1612097850943,35.679109231990346,2371.80932018355,1
-15.886613021214337,14.99279062781616,0.9220220489378752,-91.79161254407126,112.32825458052073,-119.30094100615273,73.0342266709719,18.914893617021278,20.67441860465115,-10.80851063829789,17.0597014925373,-21.40449438202248,13.025641025641026,-10.6822429906542,-5.329070518200751e-15,14.071237843853165,50.142035134321034,10.600475232656125,239.00905184027621,35.9021417402751,2392.221342146375,1
-15.886613021214337,14.99279062781616,0.9220220489378752,-91.79161254407126,112.32825458052073,-119.30094100615273,73.0342266709719,29.72340425531915,26.581395348837198,27.02127659574466,24.641791044776106,-12.842696629213492,39.07692307692308,-5.93457943925233,3.432432432432428,21.156812352812306,155.06778884447846,10.600475232656125,239.00905184027621,35.9021417402751,2392.221342146375,1
-15.886613021214337,14.99279062781616,0.9220220489378752,-91.79161254407126,112.32825458052073,-119.30094100615273,73.0342266709719,18.914893617021278,28.550387596899213,29.723404255319128,32.22388059701491,-9.98876404494383,29.307692307692307,-3.5607476635513953,-27.459459459459467,22.46615369273769,111.76423614908985,10.600475232656125,239.00905184027621,35.9021417402751,2392.221342146375,1
-16.25822970007315,15.145389005707418,1.5025544501209889,-92.21580998329932,112.52420443587269,-119.53076366268549,72.62415240555376,18.914893617021278,28.550387596899213,29.723404255319128,32.22388059701491,-9.98876404494383,29.307692307692307,-3.5607476635513953,-27.459459459459467,22.46615369273769,111.76423614908985,10.968724385300519,247.95994269315696,36.287917813042576,2392.478575633675,1
-16.25822970007315,15.145389005707418,1.5025544501209889,-92.21580998329932,112.52420443587269,-119.53076366268549,72.62415240555376,18.914893617021278,14.767441860465105,-16.212765957446827,20.850746268656703,-9.98876404494383,61.871794871794876,-13.056074766355135,-27.459459459459467,22.890242605767902,276.304242443197,10.968724385300519,247.95994269315696,36.287917813042576,2392.478575633675,1
-16.25822970007315,15.145389005707418,1.5025544501209889,-92.21580998329932,112.52420443587269,-119.53076366268549,72.62415240555376,13.510638297872342,18.705426356589136,-1.9539925233402755e-14,9.477611940298495,-15.696629213483154,29.307692307692307,-5.93457943925233,-5.329070518200751e-15,11.579072194398474,98.6000539446577,10.968724385300519,247.95994269315696,36.287917813042576,2392.478575633675,1
-17.791148500365765,15.679483328326825,2.048937886528625,-92.49860827611803,112.62217936354867,-119.82953311617807,72.26875470885803,13.510638297872342,18.705426356589136,-1.9539925233402755e-14,9.477611940298495,-15.696629213483154,29.307692307692307,-5.93457943925233,-5.329070518200751e-15,11.579072194398474,98.6000539446577,11.839856571740405,283.28399864870784,36.74234316365783,2378.0187667284417,1
-17.791148500365765,15.679483328326825,2.048937886528625,-92.49860827611803,112.62217936354867,-119.82953311617807,72.26875470885803,13.510638297872342,2.9534883720930125,-5.404255319148955,13.268656716417897,9.98876404494381,48.84615384615385,36.79439252336449,-17.16216216216217,18.491063910269567,256.4653421535415,11.839856571740405,283.28399864870784,36.74234316365783,2378.0187667284417,1
-17.791148500365765,15.679483328326825,2.048937886528625,-92.49860827611803,112.62217936354867,-119.82953311617807,72.26875470885803,24.319148936170215,18.705426356589136,13.510638297872319,17.0597014925373,-9.98876404494383,19.53846153846154,-10.6822429906542,-3.432432432432438,14.654602011207622,43.46352224097093,11.839856571740405,283.28399864870784,36.74234316365783,2378.0187667284417,1
-17.651792245793708,16.213577650946227,1.8440440978757615,-92.87567266654298,112.74464802314364,-120.10532030401737,71.94069529652351,24.319148936170215,18.705426356589136,13.510638297872319,17.0597014925373,-9.98876404494383,19.53846153846154,-10.6822429906542,-3.432432432432438,14.654602011207622,43.46352224097093,11.903137998205231,288.90573458583015,36.97776480512166,2395.0529510961655,1
-17.651792245793708,16.213577650946227,1.8440440978757615,-92.87567266654298,112.74464802314364,-120.10532030401737,71.94069529652351,8.106382978723406,16.73643410852712,2.7021276595744483,17.0597014925373,-21.40449438202248,19.53846153846154,-13.056074766355135,10.297297297297291,13.612621777937342,39.73258374144083,11.903137998205231,288.90573458583015,36.97776480512166,2395.0529510961655,1
-17.651792245793708,16.213577650946227,1.8440440978757615,-92.87567266654298,112.74464802314364,-120.10532030401737,71.94069529652351,18.914893617021278,24.612403100775182,-1.9539925233402755e-14,17.0597014925373,-15.696629213483154,22.794871794871796,5.934579439252343,-10.297297297297302,14.413796994404798,71.39436644934213,11.903137998205231,288.90573458583015,36.97776480512166,2395.0529510961655,1
-16.304681784930505,16.06097927305497,1.6050013444474207,-93.34700315457417,112.94059787849565,-120.3581252262034,71.61263588418899,18.914893617021278,24.612403100775182,-1.9539925233402755e-14,17.0597014925373,-15.696629213483154,22.794871794871796,5.934579439252343,-10.297297297297302,14.413796994404798,71.39436644934213,11.3235541341443,262.878010564585,37.00432792402552,2433.1166135694075,1
-16.304681784930505,16.06097927305497,1.6050013444474207,-93.34700315457417,112.94059787849565,-120.3581252262034,71.61263588418899,18.914893617021278,24.612403100775182,13.510638297872319,20.850746268656703,-15.696629213483154,0.0,-32.04672897196261,-6.86486486486487,16.562113041829516,100.9870318446083,11.3235541341443,262.878010564585,37.00432792402552,2433.1166135694075,1
-16.304681784930505,16.06097927305497,1.6050013444474207,-93.34700315457417,112.94059787849565,-120.3581252262034,71.61263588418899,29.72340425531915,20.67441860465115,2.7021276595744483,13.268656716417897,-27.112359550561806,3.2564102564102555,1.186915887850474,3.432432432432428,12.669590670402203,138.42821113613556,11.3235541341443,262.878010564585,37.00432792402552,2433.1166135694075,1
-15.422092172640818,14.91649143887053,1.4684054853455115,-93.86546669140847,113.1855351976856,-120.56496561708288,71.22989990313205,29.72340425531915,20.67441860465115,2.7021276595744483,13.268656716417897,-27.112359550561806,3.2564102564102555,1.186915887850474,3.432432432432428,12.669590670402203,138.42821113613556,10.602329698952285,231.0949304167506,36.750121205208174,2491.8347714593647,1
-15.422092172640818,14.91649143887053,1.4684054853455115,-93.86546669140847,113.1855351976856,-120.56496561708288,71.22989990313205,13.510638297872342,20.67441860465115,37.82978723404253,24.641791044776106,-15.696629213483154,3.2564102564102555,34.42056074766356,-20.5945945945946,21.32810374918671,125.01088982256661,10.602329698952285,231.0949304167506,36.750121205208174,2491.8347714593647,1
-15.422092172640818,14.91649143887053,1.4684054853455115,-93.86546669140847,113.1855351976856,-120.56496561708288,71.22989990313205,13.510638297872342,8.860465116279059,-1.9539925233402755e-14,13.268656716417897,-24.25842696629214,13.025641025641026,-8.308411214953264,-10.297297297297302,11.44119207934413,46.15686604753993,10.602329698952285,231.0949304167506,36.750121205208174,2491.8347714593647,1
-15.93306510607169,15.832081706218084,1.9464909922021933,-94.3367971794396,113.4059787849566,-120.79478827361564,70.87450220643633,13.510638297872342,8.860465116279059,-1.9539925233402755e-14,13.268656716417897,-24.25842696629214,13.025641025641026,-8.308411214953264,-10.297297297297302,11.44119207934413,46.15686604753993,11.23721260149732,253.5854512924684,37.37178995928662,2481.9614430633515,1
-15.93306510607169,15.832081706218084,1.9464909922021933,-94.3367971794396,113.4059787849566,-120.79478827361564,70.87450220643633,13.510638297872342,12.79844961240309,2.7021276595744483,28.43283582089551,-18.550561797752817,22.794871794871796,-8.308411214953264,3.432432432432428,13.816291078844461,82.78384649682835,11.23721260149732,253.5854512924684,37.37178995928662,2481.9614430633515,1
-15.93306510607169,15.832081706218084,1.9464909922021933,-94.3367971794396,113.4059787849566,-120.79478827361564,70.87450220643633,2.7021276595744723,4.922480620155028,-10.80851063829789,28.43283582089551,-1.426966292134841,13.025641025641026,-1.1869158878504606,-30.8918918918919,11.674671229555141,141.97429839256233,11.23721260149732,253.5854512924684,37.37178995928662,2481.9614430633515,1
-18.209217264081932,16.518774406728745,2.390427534283398,-94.57246242345519,113.45496624879459,-121.07057546145494,70.54644279410181,2.7021276595744723,4.922480620155028,-10.80851063829789,28.43283582089551,-1.426966292134841,13.025641025641026,-1.1869158878504606,-30.8918918918919,11.674671229555141,141.97429839256233,12.372806401698027,304.9981594424753,37.82722145482244,2464.9193257781812,1
-18.209217264081932,16.518774406728745,2.390427534283398,-94.57246242345519,113.45496624879459,-121.07057546145494,70.54644279410181,13.510638297872342,22.643410852713167,2.7021276595744483,13.268656716417897,-12.842696629213492,19.53846153846154,-32.04672897196261,-5.329070518200751e-15,14.569090083276937,107.74746202467931,12.372806401698027,304.9981594424753,37.82722145482244,2464.9193257781812,1
-18.209217264081932,16.518774406728745,2.390427534283398,-94.57246242345519,113.45496624879459,-121.07057546145494,70.54644279410181,13.510638297872342,24.612403100775182,2.7021276595744483,5.686567164179092,-4.280898876404503,39.07692307692308,3.5607476635514086,-6.86486486486487,12.536896338018117,167.9562030252502,12.372806401698027,304.9981594424753,37.82722145482244,2464.9193257781812,1
-18.905998536942207,17.35806548513067,3.039257865017466,-94.66672852106143,113.4059787849566,-121.41530944625407,70.35507480357334,13.510638297872342,24.612403100775182,2.7021276595744483,5.686567164179092,-4.280898876404503,39.07692307692308,3.5607476635514086,-6.86486486486487,12.536896338018117,167.9562030252502,13.10110729569678,333.6174782677607,38.35468395706985,2429.5418351481826,1
-18.905998536942207,17.35806548513067,3.039257865017466,-94.66672852106143,113.4059787849566,-121.41530944625407,70.35507480357334,2.7021276595744723,20.67441860465115,2.7021276595744483,1.895522388059689,-21.40449438202248,19.53846153846154,34.42056074766356,-13.729729729729735,14.633430338717135,135.10194991307915,13.10110729569678,333.6174782677607,38.35468395706985,2429.5418351481826,1
-18.905998536942207,17.35806548513067,3.039257865017466,-94.66672852106143,113.4059787849566,-121.41530944625407,70.35507480357334,24.319148936170215,26.581395348837198,27.02127659574466,5.686567164179092,-21.40449438202248,16.282051282051285,-3.5607476635513953,17.162162162162158,17.75223044183981,81.4029772958593,13.10110729569678,333.6174782677607,38.35468395706985,2429.5418351481826,1
-17.094367227505487,17.35806548513067,3.005108900241989,-94.94952681388014,113.45496624879459,-121.73706116539992,70.2183833817673,24.319148936170215,26.581395348837198,27.02127659574466,5.686567164179092,-21.40449438202248,16.282051282051285,-3.5607476635513953,17.162162162162158,17.75223044183981,81.4029772958593,12.485847204292712,299.4944038593853,38.4375670664176,2446.703036556045,1
-17.094367227505487,17.35806548513067,3.005108900241989,-94.94952681388014,113.45496624879459,-121.73706116539992,70.2183833817673,-2.702127659574465,6.891472868217043,2.7021276595744483,9.477611940298495,-18.550561797752817,19.53846153846154,-17.803738317757002,-27.459459459459467,13.14069515513691,81.05248501066853,12.485847204292712,299.4944038593853,38.4375670664176,2446.703036556045,1
-17.094367227505487,17.35806548513067,3.005108900241989,-94.94952681388014,113.45496624879459,-121.73706116539992,70.2183833817673,13.510638297872342,18.705426356589136,18.914893617021256,24.641791044776106,-38.52808988764046,-39.07692307692307,1.186915887850474,-3.432432432432438,19.749638825138163,200.23507261800412,12.485847204292712,299.4944038593853,38.4375670664176,2446.703036556045,1
-15.422092172640818,20.257434665064583,2.4587254638343525,-95.37372425310821,113.60192864030856,-121.85197249366631,70.16370681304487,13.510638297872342,18.705426356589136,18.914893617021256,24.641791044776106,-38.52808988764046,-39.07692307692307,1.186915887850474,-3.432432432432438,19.749638825138163,200.23507261800412,12.71275076717992,318.2577206568965,39.36329479400238,2432.0746684525916,1
-15.422092172640818,20.257434665064583,2.4587254638343525,-95.37372425310821,113.60192864030856,-121.85197249366631,70.16370681304487,8.106382978723406,10.829457364341074,-16.212765957446827,9.477611940298495,-12.842696629213492,29.307692307692307,-27.29906542056074,-20.5945945945946,16.833783399108867,65.98733944641218,12.71275076717992,318.2577206568965,39.36329479400238,2432.0746684525916,1
-15.422092172640818,20.257434665064583,2.4587254638343525,-95.37372425310821,113.60192864030856,-121.85197249366631,70.16370681304487,13.510638297872342,20.67441860465115,-10.80851063829789,9.477611940298495,-9.98876404494383,32.56410256410257,-5.93457943925233,-10.297297297297302,14.156990353339488,73.52924327852372,12.71275076717992,318.2577206568965,39.36329479400238,2432.0746684525916,1
-17.18727139722019,20.48633223190147,2.287980639956966,-95.56225644832068,113.67540983606554,-121.9439015562794,69.99967710687761,13.510638297872342,20.67441860465115,-10.80851063829789,9.477611940298495,-9.98876404494383,32.56410256410257,-5.93457943925233,-10.297297297297302,14.156990353339488,73.52924327852372,13.320528089692873,354.96097549662846,39.44552310672638,2444.6108208647092,1
-17.18727139722019,20.48633223190147,2.287980639956966,-95.56225644832068,113.67540983606554,-121.9439015562794,69.99967710687761,40.53191489361702,40.364341085271306,37.82978723404253,17.0597014925373,-15.696629213483154,26.05128205128205,34.42056074766356,3.432432432432428,26.923331143791167,188.1323363029845,13.320528089692873,354.96097549662846,39.44552310672638,2444.6108208647092,1
-17.18727139722019,20.48633223190147,2.287980639956966,-95.56225644832068,113.67540983606554,-121.9439015562794,69.99967710687761,18.914893617021278,26.581395348837198,5.404255319148916,20.850746268656703,-15.696629213483154,32.56410256410257,-3.5607476635513953,-6.86486486486487,16.30470435745826,109.738077040461,13.320528089692873,354.96097549662846,39.44552310672638,2444.6108208647092,1
-16.90855888807608,21.173024932412133,2.0830868513041025,-95.79792169233627,113.77338476374152,-122.0358306188925,69.91766225379399,18.914893617021278,26.581395348837198,5.404255319148916,20.850746268656703,-15.696629213483154,32.56410256410257,-3.5607476635513953,-6.86486486486487,16.30470435745826,109.738077040461,13.388223557264105,362.5525616845876,39.68467782535084,2452.628536941969,1
-16.90855888807608,21.173024932412133,2.0830868513041025,-95.79792169233627,113.77338476374152,-122.0358306188925,69.91766225379399,24.319148936170215,24.612403100775182,13.510638297872319,13.268656716417897,-18.550561797752817,16.282051282051285,-8.308411214953264,-5.329070518200751e-15,14.856483918249124,66.90332974622136,13.388223557264105,362.5525616845876,39.68467782535084,2452.628536941969,1
-16.90855888807608,21.173024932412133,2.0830868513041025,-95.79792169233627,113.77338476374152,-122.0358306188925,69.91766225379399,13.510638297872342,20.67441860465115,-1.9539925233402755e-14,1.895522388059689,-4.280898876404503,29.307692307692307,-8.308411214953264,-24.02702702702703,12.75057608958254,119.50558004523734,13.388223557264105,362.5525616845876,39.68467782535084,2452.628536941969,1
-15.886613021214337,22.088615199759687,2.49287442860983,-96.17498608276122,113.94484088717454,-122.05881288454579,69.86298568507156,13.510638297872342,20.67441860465115,-1.9539925233402755e-14,1.895522388059689,-4.280898876404503,29.307692307692307,-8.308411214953264,-24.02702702702703,12.75057608958254,119.50558004523734,13.489367549861285,360.6527622872351,40.25215857037691,2441.5202418274416,1
-15.886613021214337,22.088615199759687,2.49287442860983,-96.17498608276122,113.94484088717454,-122.05881288454579,69.86298568507156,8.106382978723406,14.767441860465105,-13.510638297872358,9.477611940298495,-15.696629213483154,29.307692307692307,-27.29906542056074,-13.729729729729735,16.486898968603164,60.097143850681796,13.489367549861285,360.6527622872351,40.25215857037691,2441.5202418274416,1
-15.886613021214337,22.088615199759687,2.49287442860983,-96.17498608276122,113.94484088717454,-122.05881288454579,69.86298568507156,24.319148936170215,22.643410852713167,5.404255319148916,17.0597014925373,4.2808988764044855,42.333333333333336,5.934579439252343,13.729729729729726,16.96313224741119,165.22336047449562,13.489367549861285,360.6527622872351,40.25215857037691,2441.5202418274416,1
-16.25822970007315,21.70711925503154,2.766066146813648,-96.45778437557993,114.06730954676951,-122.12775968150561,69.78097083198794,24.319148936170215,22.643410852713167,5.404255319148916,17.0597014925373,4.2808988764044855,42.333333333333336,5.934579439252343,13.729729729729726,16.96313224741119,165.22336047449562,13.577138367306112,360.34250776684564,40.310323259141704,2454.0939155785395,1
-16.25822970007315,21.70711925503154,2.766066146813648,-96.45778437557993,114.06730954676951,-122.12775968150561,69.78097083198794,29.72340425531915,46.27131782945735,18.914893617021256,5.686567164179092,-35.67415730337079,22.794871794871796,29.67289719626169,-5.329070518200751e-15,23.592263645060143,233.51416244881744,13.577138367306112,360.34250776684564,40.310323259141704,2454.0939155785395,1
-16.25822970007315,21.70711925503154,2.766066146813648,-96.45778437557993,114.06730954676951,-122.12775968150561,69.78097083198794,13.510638297872342,12.79844961240309,-1.9539925233402755e-14,1.895522388059689,-44.23595505617978,29.307692307692307,-8.308411214953264,-17.16216216216217,15.902353879915331,215.16883551088026,13.577138367306112,360.34250776684564,40.310323259141704,2454.0939155785395,1
-17.326627651792244,20.257434665064583,2.5611723581607846,-96.69344961959547,114.16528447444549,-122.26565327542527,69.6442794101819,13.510638297872342,12.79844961240309,-1.9539925233402755e-14,1.895522388059689,-44.23595505617978,29.307692307692307,-8.308411214953264,-17.16216216216217,15.902353879915331,215.16883551088026,13.381744891672538,353.54067151800155,39.837352214273615,2502.7512840312716,1
-17.326627651792244,20.257434665064583,2.5611723581607846,-96.69344961959547,114.16528447444549,-122.26565327542527,69.6442794101819,8.106382978723406,14.767441860465105,-8.106382978723424,17.0597014925373,-9.98876404494383,13.025641025641026,-8.308411214953264,-6.86486486486487,10.778448807606528,13.81953890437939,13.381744891672538,353.54067151800155,39.837352214273615,2502.7512840312716,1
-17.326627651792244,20.257434665064583,2.5611723581607846,-96.69344961959547,114.16528447444549,-122.26565327542527,69.6442794101819,24.319148936170215,16.73643410852712,-1.9539925233402755e-14,17.0597014925373,-7.1348314606741665,26.05128205128205,-3.5607476635513953,-6.86486486486487,12.715876322200891,94.05642450787471,13.381744891672538,353.54067151800155,39.837352214273615,2502.7512840312716,1
-15.70080468178493,19.2655452087714,1.4342565205700342,-97.21191315642977,114.41022179363549,-122.31161780673182,69.3708965665698,24.319148936170215,16.73643410852712,-1.9539925233402755e-14,17.0597014925373,-7.1348314606741665,26.05128205128205,-3.5607476635513953,-6.86486486486487,12.715876322200891,94.05642450787471,12.133535470375454,305.7018005598728,39.303904961923735,2594.4917738617287,1
-15.70080468178493,19.2655452087714,1.4342565205700342,-97.21191315642977,114.41022179363549,-122.31161780673182,69.3708965665698,13.510638297872342,10.829457364341074,-1.9539925233402755e-14,13.268656716417897,-27.112359550561806,6.5128205128205146,-27.29906542056074,-17.16216216216217,14.46189500309207,88.5680203977206,12.133535470375454,305.7018005598728,39.303904961923735,2594.4917738617287,1
-15.70080468178493,19.2655452087714,1.4342565205700342,-97.21191315642977,114.41022179363549,-122.31161780673182,69.3708965665698,8.106382978723406,14.767441860465105,-2.7021276595744865,13.268656716417897,-12.842696629213492,13.025641025641026,-1.1869158878504606,-10.297297297297302,9.524645006897897,26.20627296856642,12.133535470375454,305.7018005598728,39.303904961923735,2594.4917738617287,1
-19.277615215801024,17.12916791829378,1.74159720354933,-97.25904620523289,114.45920925747347,-122.5184581976113,68.93348401679043,8.106382978723406,14.767441860465105,-2.7021276595744865,13.268656716417897,-12.842696629213492,13.025641025641026,-1.1869158878504606,-10.297297297297302,9.524645006897897,26.20627296856642,12.716126779214713,334.00641356734053,38.70993710902533,2630.192965095026,1
-19.277615215801024,17.12916791829378,1.74159720354933,-97.25904620523289,114.45920925747347,-122.5184581976113,68.93348401679043,24.319148936170215,30.51937984496123,8.106382978723385,32.22388059701491,1.4269662921348214,39.07692307692308,27.299065420560755,-5.329070518200751e-15,20.37146839331105,225.89325766091497,12.716126779214713,334.00641356734053,38.70993710902533,2630.192965095026,1
-19.277615215801024,17.12916791829378,1.74159720354933,-97.25904620523289,114.45920925747347,-122.5184581976113,68.93348401679043,18.914893617021278,20.67441860465115,5.404255319148916,13.268656716417897,-29.96629213483147,45.58974358974359,-3.5607476635513953,-17.16216216216217,19.317646225940983,184.10264071483434,12.716126779214713,334.00641356734053,38.70993710902533,2630.192965095026,1
-18.7201901975128,16.747671973565634,1.4342565205700342,-97.30617925403601,114.48370298939247,-122.70231632283749,68.55074803573349,18.914893617021278,20.67441860465115,5.404255319148916,13.268656716417897,-29.96629213483147,45.58974358974359,-3.5607476635513953,-17.16216216216217,19.317646225940983,184.10264071483434,12.300706230549489,316.4452770557835,38.496035916057224,2652.5998927842193,1
-18.7201901975128,16.747671973565634,1.4342565205700342,-97.30617925403601,114.48370298939247,-122.70231632283749,68.55074803573349,8.106382978723406,14.767441860465105,2.7021276595744483,13.268656716417897,-32.820224719101134,13.025641025641026,-5.93457943925233,-6.86486486486487,12.186239908005026,86.89915167970143,12.300706230549489,316.4452770557835,38.496035916057224,2652.5998927842193,1
-18.7201901975128,16.747671973565634,1.4342565205700342,-97.30617925403601,114.48370298939247,-122.70231632283749,68.55074803573349,2.7021276595744723,14.767441860465105,5.404255319148916,24.641791044776106,-1.426966292134841,32.56410256410257,-3.5607476635513953,-6.86486486486487,11.491537158577284,132.51736663496217,12.300706230549489,316.4452770557835,38.496035916057224,2652.5998927842193,1
-15.93306510607169,16.213577650946227,1.0586179080397842,-97.58897754685472,114.67965284474442,-122.74828085414404,68.05865891723172,2.7021276595744723,14.767441860465105,5.404255319148916,24.641791044776106,-1.426966292134841,32.56410256410257,-3.5607476635513953,-6.86486486486487,11.491537158577284,132.51736663496217,11.0684202216859,258.6327895014153,38.287057701946914,2694.956474171182,1
-15.93306510607169,16.213577650946227,1.0586179080397842,-97.58897754685472,114.67965284474442,-122.74828085414404,68.05865891723172,18.914893617021278,22.643410852713167,-1.9539925233402755e-14,5.686567164179092,-18.550561797752817,13.025641025641026,-29.672897196261676,-17.16216216216217,15.707016726966405,88.2803730360678,11.0684202216859,258.6327895014153,38.287057701946914,2694.956474171182,1
-15.93306510607169,16.213577650946227,1.0586179080397842,-97.58897754685472,114.67965284474442,-122.74828085414404,68.05865891723172,2.7021276595744723,-4.922480620155049,-64.85106382978725,5.686567164179092,-15.696629213483154,-9.769230769230766,-5.93457943925233,-13.729729729729735,15.41155105317398,419.2784769222677,11.0684202216859,258.6327895014153,38.287057701946914,2694.956474171182,1
-17.094367227505487,15.908380895163711,0.44393654208119315,-97.73037669326408,114.87560270009644,-122.72529858849077,67.37520180820148,2.7021276595744723,-4.922480620155049,-64.85106382978725,5.686567164179092,-15.696629213483154,-9.769230769230766,-5.93457943925233,-13.729729729729735,15.41155105317398,419.2784769222677,11.148894888250132,272.65375365203823,38.02756471016966,2733.106578803938,1
-17.094367227505487,15.908380895163711,0.44393654208119315,-97.73037669326408,114.87560270009644,-122.72529858849077,67.37520180820148,2.7021276595744723,-2.953488372093034,-16.212765957446827,1.895522388059689,-12.842696629213492,13.025641025641026,10.682242990654213,-5.329070518200751e-15,7.539310627835345,39.49346153909083,11.148894888250132,272.65375365203823,38.02756471016966,2733.106578803938,1
-17.094367227505487,15.908380895163711,0.44393654208119315,-97.73037669326408,114.87560270009644,-122.72529858849077,67.37520180820148,8.106382978723406,24.612403100775182,18.914893617021256,24.641791044776106,12.842696629213474,55.35897435897436,1.186915887850474,-20.5945945945946,20.782331526491106,262.33278043466606,11.148894888250132,272.65375365203823,38.02756471016966,2733.106578803938,1
-22.20409656181419,16.823971162511263,1.1269158375907389,-97.16478010762665,114.72864030858241,-122.77126311979733,66.66440641481002,8.106382978723406,24.612403100775182,18.914893617021256,24.641791044776106,12.842696629213474,55.35897435897436,1.186915887850474,-20.5945945945946,20.782331526491106,262.33278043466606,13.38499452063873,385.6539592915561,38.371889035909554,2654.0524168964985,1
-22.20409656181419,16.823971162511263,1.1269158375907389,-97.16478010762665,114.72864030858241,-122.77126311979733,66.66440641481002,13.510638297872342,16.73643410852712,-10.80851063829789,13.268656716417897,-18.550561797752817,22.794871794871796,-5.93457943925233,-24.02702702702703,15.703909977502404,36.981600363503,13.38499452063873,385.6539592915561,38.371889035909554,2654.0524168964985,1
-22.20409656181419,16.823971162511263,1.1269158375907389,-97.16478010762665,114.72864030858241,-122.77126311979733,66.66440641481002,51.34042553191489,30.51937984496123,24.31914893617019,32.22388059701491,1.4269662921348214,32.56410256410257,1.186915887850474,13.729729729729726,23.413818672984853,294.82676331409283,13.38499452063873,385.6539592915561,38.371889035909554,2654.0524168964985,1
-24.619604974396488,16.442475217783116,1.5025544501209889,-96.22211913156434,114.38572806171649,-122.90915671371697,65.92627273705736,51.34042553191489,30.51937984496123,24.31914893617019,32.22388059701491,1.4269662921348214,32.56410256410257,1.186915887850474,13.729729729729726,23.413818672984853,294.82676331409283,14.188211547433532,431.94381254215295,38.055716266489476,2593.298124832647,1
-24.619604974396488,16.442475217783116,1.5025544501209889,-96.22211913156434,114.38572806171649,-122.90915671371697,65.92627273705736,18.914893617021278,32.488372093023244,21.61702127659572,17.0597014925373,-9.98876404494383,32.56410256410257,-22.551401869158873,-17.16216216216217,21.543302389943122,60.283891723515715,14.188211547433532,431.94381254215295,38.055716266489476,2593.298124832647,1
-23.133138258961228,17.968458996695702,2.014788921753148,-95.56225644832068,114.14079074252649,-123.07003257328991,65.37950704983317,18.914893617021278,32.488372093023244,21.61702127659572,17.0597014925373,-9.98876404494383,32.56410256410257,-22.551401869158873,-17.16216216216217,21.543302389943122,60.283891723515715,14.372128725803359,429.37985455214266,38.51516812225651,2504.407612076355,1
-23.133138258961228,17.968458996695702,2.014788921753148,-95.56225644832068,114.14079074252649,-123.07003257328991,65.37950704983317,8.106382978723406,32.488372093023244,16.212765957446788,17.0597014925373,-12.842696629213492,16.282051282051285,5.934579439252343,-13.729729729729735,15.332034950247198,64.04133682380865,14.372128725803359,429.37985455214266,38.51516812225651,2504.407612076355,1
-23.133138258961228,17.968458996695702,2.014788921753148,-95.56225644832068,114.14079074252649,-123.07003257328991,65.37950704983317,24.319148936170215,-4.922480620155049,-24.31914893617023,32.22388059701491,-1.426966292134841,32.56410256410257,1.186915887850474,20.59459459459459,17.69465480352411,175.5211345233601,14.372128725803359,429.37985455214266,38.51516812225651,2504.407612076355,1
-23.133138258961228,17.968458996695702,2.014788921753148,-95.56225644832068,114.14079074252649,-123.07003257328991,65.37950704983317,18.914893617021278,20.67441860465115,8.106382978723385,1.895522388059689,-67.06741573033707,-22.794871794871796,-13.056074766355135,-13.729729729729735,20.779913701218653,396.669103930111,14.372128725803359,429.37985455214266,38.51516812225651,2504.407612076355,1
-20.810534016093634,20.410033042955842,3.141704759343898,-95.18519205789573,113.94484088717454,-123.23090843286283,65.16080077494348,18.914893617021278,20.67441860465115,8.106382978723385,1.895522388059689,-67.06741573033707,-22.794871794871796,-13.056074766355135,-13.729729729729735,20.779913701218653,396.669103930111,14.787423939464455,428.50667545596,39.578976620065156,2393.5871869164685,1
-20.810534016093634,20.410033042955842,3.141704759343898,-95.18519205789573,113.94484088717454,-123.23090843286283,65.16080077494348,2.7021276595744723,2.9534883720930125,-13.510638297872358,5.686567164179092,-21.40449438202248,6.5128205128205146,15.42990654205608,-10.297297297297302,9.812167528489415,43.62221231885768,14.787423939464455,428.50667545596,39.578976620065156,2393.5871869164685,1
-20.810534016093634,20.410033042955842,3.141704759343898,-95.18519205789573,113.94484088717454,-123.23090843286283,65.16080077494348,51.34042553191489,52.1782945736434,48.6382978723404,43.59701492537312,12.842696629213474,39.07692307692308,-15.429906542056068,27.459459459459453,36.32037732636549,250.7833827527523,14.787423939464455,428.50667545596,39.578976620065156,2393.5871869164685,1
-19.602779809802485,20.181135476118953,3.61979026620058,-94.94952681388014,113.84686595949856,-123.3458197611292,64.88741793133138,51.34042553191489,52.1782945736434,48.6382978723404,43.59701492537312,12.842696629213474,39.07692307692308,-15.429906542056068,27.459459459459453,36.32037732636549,250.7833827527523,14.46790185070734,399.38763859572214,39.58348418539989,2367.6185460445404,1
-19.602779809802485,20.181135476118953,3.61979026620058,-94.94952681388014,113.84686595949856,-123.3458197611292,64.88741793133138,2.7021276595744723,30.51937984496123,13.510638297872319,5.686567164179092,-32.820224719101134,3.2564102564102555,-22.551401869158873,-13.729729729729735,15.597059942623387,141.75782365629973,14.46790185070734,399.38763859572214,39.58348418539989,2367.6185460445404,1
-19.602779809802485,20.181135476118953,3.61979026620058,-94.94952681388014,113.84686595949856,-123.3458197611292,64.88741793133138,56.744680851063826,56.11627906976743,40.531914893617,20.850746268656703,-9.98876404494383,-19.53846153846154,10.682242990654213,17.162162162162158,28.951906477415836,375.8656041199129,14.46790185070734,399.38763859572214,39.58348418539989,2367.6185460445404,1
-21.64667154352597,15.98468008410934,3.653939230976057,-94.38393022824272,113.57743490838956,-123.6216069489685,64.39532881282962,56.744680851063826,56.11627906976743,40.531914893617,20.850746268656703,-9.98876404494383,-19.53846153846154,10.682242990654213,17.162162162162158,28.951906477415836,375.8656041199129,13.761763619537122,368.04778347878477,38.007516514442706,2421.736809918936,1
-21.64667154352597,15.98468008410934,3.653939230976057,-94.38393022824272,113.57743490838956,-123.6216069489685,64.39532881282962,8.106382978723406,28.550387596899213,16.212765957446788,28.43283582089551,9.98876404494381,42.333333333333336,20.177570093457952,-20.5945945945946,21.799579302536827,124.78613246398696,13.761763619537122,368.04778347878477,38.007516514442706,2421.736809918936,1
-21.64667154352597,15.98468008410934,3.653939230976057,-94.38393022824272,113.57743490838956,-123.6216069489685,64.39532881282962,8.106382978723406,-52.17829457364343,-51.34042553191491,5.686567164179092,1.4269662921348214,32.56410256410257,20.177570093457952,51.486486486486484,27.87084946058033,480.37712092738,13.761763619537122,368.04778347878477,38.007516514442706,2421.736809918936,1
-22.71506949524506,10.872634424752176,3.24415165367033,-93.62980144739288,113.1855351976856,-124.03528773072748,63.68453341943816,8.106382978723406,-52.17829457364343,-51.34042553191491,5.686567164179092,1.4269662921348214,32.56410256410257,20.177570093457952,51.486486486486484,27.87084946058033,480.37712092738,12.277285191222523,310.0347944440644,35.91552917527179,2512.7513552725663,1
-22.71506949524506,10.872634424752176,3.24415165367033,-93.62980144739288,113.1855351976856,-124.03528773072748,63.68453341943816,18.914893617021278,32.488372093023244,86.46808510638296,47.38805970149252,-21.40449438202248,22.794871794871796,3.5607476635514086,-54.918918918918926,35.992305409660574,682.6546022082237,12.277285191222523,310.0347944440644,35.91552917527179,2512.7513552725663,1
-22.71506949524506,10.872634424752176,3.24415165367033,-93.62980144739288,113.1855351976856,-124.03528773072748,63.68453341943816,78.36170212765957,115.1860465116279,62.14893617021274,36.01492537313432,-1.426966292134841,32.56410256410257,-27.29906542056074,-24.02702702702703,47.12859643580747,1312.0148544526794,12.277285191222523,310.0347944440644,35.91552917527179,2512.7513552725663,1
-21.46086320409656,14.534995494142384,3.61979026620058,-92.4043421785118,112.57319189971068,-124.31107491856677,63.35647400710364,78.36170212765957,115.1860465116279,62.14893617021274,36.01492537313432,-1.426966292134841,32.56410256410257,-27.29906542056074,-24.02702702702703,47.12859643580747,1312.0148544526794,13.205216321479844,340.6471211814668,36.85304264628492,2344.2455860814143,1
-21.46086320409656,14.534995494142384,3.61979026620058,-92.4043421785118,112.57319189971068,-124.31107491856677,63.35647400710364,83.7659574468085,-38.39534883720931,21.61702127659572,28.43283582089551,-58.5056179775281,-39.07692307692307,-41.54205607476635,13.729729729729726,40.63318628005703,488.91067661520987,13.205216321479844,340.6471211814668,36.85304264628492,2344.2455860814143,1
-21.46086320409656,14.534995494142384,3.61979026620058,-92.4043421785118,112.57319189971068,-124.31107491856677,63.35647400710364,40.53191489361702,22.643410852713167,83.76595744680849,47.38805970149252,-35.67415730337079,16.282051282051285,10.682242990654213,-48.05405405405406,38.1277310655952,535.5980170223473,13.205216321479844,340.6471211814668,36.85304264628492,2344.2455860814143,1
-20.810534016093634,19.952237909282065,4.8150040333422846,-91.8858786416775,112.13230472516872,-124.77072023163228,63.54784199763211,40.53191489361702,22.643410852713167,83.76595744680849,47.38805970149252,-35.67415730337079,16.282051282051285,10.682242990654213,-48.05405405405406,38.1277310655952,535.5980170223473,15.192591986239329,424.56793746303066,38.88437352810062,2164.1536205821117,1
-20.810534016093634,19.952237909282065,4.8150040333422846,-91.8858786416775,112.13230472516872,-124.77072023163228,63.54784199763211,99.97872340425532,63.99224806201549,13.510638297872319,-58.761194029850756,-35.67415730337079,39.07692307692308,13.056074766355147,54.91891891891891,47.37110973244523,822.8845826186763,15.192591986239329,424.56793746303066,38.88437352810062,2164.1536205821117,1
-20.810534016093634,19.952237909282065,4.8150040333422846,-91.8858786416775,112.13230472516872,-124.77072023163228,63.54784199763211,-8.106382978723403,-26.58139534883722,-64.85106382978725,-43.597014925373145,-112.73033707865169,-48.84615384615384,-15.429906542056068,10.297297297297291,41.30494398085999,1238.2927181150699,15.192591986239329,424.56793746303066,38.88437352810062,2164.1536205821117,1
-19.277615215801024,40.018924601982576,8.844581876848604,-91.32028205604013,111.5689488910318,-124.8396670285921,64.99677106877623,-8.106382978723403,-26.58139534883722,-64.85106382978725,-43.597014925373145,-112.73033707865169,-48.84615384615384,-15.429906542056068,10.297297297297291,41.30494398085999,1238.2927181150699,22.713707231544067,879.79620800399,46.72792951162376,1734.3183401701656,1
-19.277615215801024,40.018924601982576,8.844581876848604,-91.32028205604013,111.5689488910318,-124.8396670285921,64.99677106877623,-127.0,-62.0232558139535,-67.55319148936172,-39.80597014925374,-115.58426966292136,3.2564102564102555,-5.93457943925233,-58.351351351351354,59.93862852031303,2027.5923899192476,22.713707231544067,879.79620800399,46.72792951162376,1734.3183401701656,1
-19.277615215801024,40.018924601982576,8.844581876848604,-91.32028205604013,111.5689488910318,-124.8396670285921,64.99677106877623,-56.74468085106382,20.67441860465115,-37.82978723404257,-28.432835820895534,55.65168539325842,39.07692307692308,-3.5607476635513953,-37.75675675675676,34.96597942514284,309.759888032375,22.713707231544067,879.79620800399,46.72792951162376,1734.3183401701656,1
-16.490490124359912,61.61159507359567,22.845657434794287,-89.62349229912786,110.41774349083894,-124.44896851248643,67.83995264234204,-56.74468085106382,20.67441860465115,-37.82978723404257,-28.432835820895534,55.65168539325842,39.07692307692308,-3.5607476635513953,-37.75675675675676,34.96597942514284,309.759888032375,33.64924754424996,1525.0110230132836,58.02691493583927,1124.45725605957,1
-16.490490124359912,61.61159507359567,22.845657434794287,-89.62349229912786,110.41774349083894,-124.44896851248643,67.83995264234204,-35.12765957446808,6.891472868217043,-1.9539925233402755e-14,-28.432835820895534,12.842696629213474,-55.358974358974365,-58.15887850467289,-44.62162162162163,30.17926742225788,486.66581785570145,33.64924754424996,1525.0110230132836,58.02691493583927,1124.45725605957,1
-16.490490124359912,61.61159507359567,22.845657434794287,-89.62349229912786,110.41774349083894,-124.44896851248643,67.83995264234204,-29.723404255319146,24.612403100775182,-21.617021276595764,-9.47761194029852,-21.40449438202248,32.56410256410257,10.682242990654213,-17.16216216216217,20.905430333991255,68.18557503373096,33.64924754424996,1525.0110230132836,58.02691493583927,1124.45725605957,1
-29.357717629846377,65.19765695404024,26.772788383974174,-86.46557802931903,108.45824493731917,-124.31107491856677,70.60111936282424,-29.723404255319146,24.612403100775182,-21.617021276595764,-9.47761194029852,-21.40449438202248,32.56410256410257,10.682242990654213,-17.16216216216217,20.905430333991255,68.18557503373096,40.44272098928693,2261.303848782251,59.47867445577782,915.3373545224216,1
-29.357717629846377,65.19765695404024,26.772788383974174,-86.46557802931903,108.45824493731917,-124.31107491856677,70.60111936282424,56.744680851063826,32.488372093023244,-86.46808510638299,70.13432835820893,101.31460674157302,78.15384615384616,8.308411214953278,17.162162162162158,56.3468115851517,1143.9348843858077,40.44272098928693,2261.303848782251,59.47867445577782,915.3373545224216,1
-29.357717629846377,65.19765695404024,26.772788383974174,-86.46557802931903,108.45824493731917,-124.31107491856677,70.60111936282424,-18.91489361702127,-44.302325581395365,-59.446808510638306,43.59701492537312,-18.550561797752817,0.0,-32.04672897196261,-34.32432432432433,31.397832216058475,345.3966404515565,40.44272098928693,2261.303848782251,59.47867445577782,915.3373545224216,1
-47.381126554498906,71.6067888254731,30.9389620865824,-81.56374095379476,105.15159112825458,-124.93159609120521,74.07308147669787,-18.91489361702127,-44.302325581395365,-59.446808510638306,43.59701492537312,-18.550561797752817,0.0,-32.04672897196261,-34.32432432432433,31.397832216058475,345.3966404515565,49.9756258221848,3657.6720704804416,61.369830621950086,719.3135437840458,1
-47.381126554498906,71.6067888254731,30.9389620865824,-81.56374095379476,105.15159112825458,-124.93159609120521,74.07308147669787,18.914893617021278,26.581395348837198,-1.9539925233402755e-14,17.0597014925373,-24.25842696629214,39.07692307692308,34.42056074766356,-13.729729729729735,21.75520387237554,151.11767238480306,49.9756258221848,3657.6720704804416,61.369830621950086,719.3135437840458,1
-57.2289685442575,70.46230099128867,33.500134444743196,-75.71924290220824,100.81620057859206,-126.37947882736157,78.11914756215691,18.914893617021278,26.581395348837198,-1.9539925233402755e-14,17.0597014925373,-24.25842696629214,39.07692307692308,34.42056074766356,-13.729729729729735,21.75520387237554,151.11767238480306,53.730467993429784,4317.172033433793,59.89389277941336,529.3817188354241,1
-57.2289685442575,70.46230099128867,33.500134444743196,-75.71924290220824,100.81620057859206,-126.37947882736157,78.11914756215691,18.914893617021278,16.73643410852712,5.404255319148916,5.686567164179092,-9.98876404494383,71.64102564102564,-1.1869158878504606,-3.432432432432438,16.623911026891097,533.4273471444774,53.730467993429784,4317.172033433793,59.89389277941336,529.3817188354241,1
-57.2289685442575,70.46230099128867,33.500134444743196,-75.71924290220824,100.81620057859206,-126.37947882736157,78.11914756215691,29.72340425531915,67.93023255813952,70.25531914893614,96.67164179104476,32.82022471910111,48.84615384615385,-10.6822429906542,-20.5945945945946,47.19047673799292,852.1494615931564,53.730467993429784,4317.172033433793,59.89389277941336,529.3817188354241,1
-51.28310168251646,77.10033042955843,31.007260016133355,-69.7333457042123,96.55429122468658,-127.0,82.32924335378323,29.72340425531915,67.93023255813952,70.25531914893614,96.67164179104476,32.82022471910111,48.84615384615385,-10.6822429906542,-20.5945945945946,47.19047673799292,852.1494615931564,53.13023070940275,4229.763401584552,59.280312049968025,613.0922194668129,1
-51.28310168251646,77.10033042955843,31.007260016133355,-69.7333457042123,96.55429122468658,-127.0,82.32924335378323,29.72340425531915,36.426356589147275,29.723404255319128,43.59701492537312,32.82022471910111,61.871794871794876,8.308411214953278,6.86486486486486,31.1669344619841,320.70863907880664,53.13023070940275,4229.763401584552,59.280312049968025,613.0922194668129,1
-51.28310168251646,77.10033042955843,31.007260016133355,-69.7333457042123,96.55429122468658,-127.0,82.32924335378323,2.7021276595744723,16.73643410852712,-18.914893617021296,-20.850746268656728,-24.25842696629214,22.794871794871796,22.551401869158887,13.729729729729726,17.81732900172902,49.34678610761557,53.13023070940275,4229.763401584552,59.280312049968025,613.0922194668129,1
-37.2545720555962,94.19134875337939,23.18714708254906,-64.2187789942476,93.27213114754099,-125.62106406080348,86.37530943924227,2.7021276595744723,16.73643410852712,-18.914893617021296,-20.850746268656728,-24.25842696629214,22.794871794871796,22.551401869158887,13.729729729729726,17.81732900172902,49.34678610761557,51.544355963841554,4328.804694100977,60.532424943392016,1270.5910683691804,1
-37.2545720555962,94.19134875337939,23.18714708254906,-64.2187789942476,93.27213114754099,-125.62106406080348,86.37530943924227,13.510638297872342,22.643410852713167,13.510638297872319,20.850746268656703,-29.96629213483147,13.025641025641026,-20.177570093457938,-27.459459459459467,20.143049553813057,42.20214913408914,51.544355963841554,4328.804694100977,60.532424943392016,1270.5910683691804,1
-37.2545720555962,94.19134875337939,23.18714708254906,-64.2187789942476,93.27213114754099,-125.62106406080348,86.37530943924227,18.914893617021278,14.767441860465105,2.7021276595744483,36.01492537313432,-49.94382022471911,0.0,-17.803738317757002,-24.02702702702703,20.521746759962287,271.3923524300083,51.544355963841554,4328.804694100977,60.532424943392016,1270.5910683691804,1
-39.80943672275055,110.44307599879843,11.474052164560353,-57.431619966598646,90.4308582449373,-122.05881288454579,88.9997847379184,18.914893617021278,14.767441860465105,2.7021276595744483,36.01492537313432,-49.94382022471911,0.0,-17.803738317757002,-24.02702702702703,20.521746759962287,271.3923524300083,53.90885496203645,5833.44691504936,59.78291604331915,2452.863364605797,1
-39.80943672275055,110.44307599879843,11.474052164560353,-57.431619966598646,90.4308582449373,-122.05881288454579,88.9997847379184,24.319148936170215,22.643410852713167,56.744680851063805,92.88059701492536,4.2808988764044855,42.333333333333336,5.934579439252343,-5.329070518200751e-15,31.14208116298284,1005.4188361271243,53.90885496203645,5833.44691504936,59.78291604331915,2452.863364605797,1
-39.80943672275055,110.44307599879843,11.474052164560353,-57.431619966598646,90.4308582449373,-122.05881288454579,88.9997847379184,-18.91489361702127,2.9534883720930125,-35.127659574468105,-54.97014925373135,-98.46067415730337,-32.56410256410256,-32.04672897196261,-6.86486486486487,35.2378201719434,931.0826636048743,53.90885496203645,5833.44691504936,59.78291604331915,2452.863364605797,1
-48.12435991221653,103.34725142685491,-14.854799677332625,-49.183336426053074,87.93249758919958,-117.1865725660514,88.9724464535572,-18.91489361702127,2.9534883720930125,-35.127659574468105,-54.97014925373135,-98.46067415730337,-32.56410256410256,-32.04672897196261,-6.86486486486487,35.2378201719434,931.0826636048743,55.44213700546803,6337.039594185708,55.795129176746876,1990.5153566939775,1
-48.12435991221653,103.34725142685491,-14.854799677332625,-49.183336426053074,87.93249758919958,-117.1865725660514,88.9724464535572,56.744680851063826,8.860465116279059,18.914893617021256,58.76119402985073,-24.25842696629214,6.5128205128205146,-20.177570093457938,30.891891891891888,28.14024288483467,395.20900626155253,55.44213700546803,6337.039594185708,55.795129176746876,1990.5153566939775,1
-48.12435991221653,103.34725142685491,-14.854799677332625,-49.183336426053074,87.93249758919958,-117.1865725660514,88.9724464535572,40.53191489361702,46.27131782945735,27.02127659574466,43.59701492537312,9.98876404494381,52.1025641025641,8.308411214953278,10.297297297297291,29.764820112993828,330.95436696671584,55.44213700546803,6337.039594185708,55.795129176746876,1990.5153566939775,1
