Gyro 0,Gyro 1,Gyro 2,Orientation 0,Orientation 1,Orientation 2,Orientation 3,Sensor 0,Sensor 1,Sensor 2,Sensor 3,Sensor 4,Sensor 5,Sensor 6,Sensor 7,Sensor Mean,Sensor Variance,Gyro Mean,Gyro Variance,Orientation Mean,Orientation Variance,Label
4.1005898789195765,4.533333333333329,14.96978164131222,-94.3695289007685,126.51669261373465,-125.24188569825087,71.04309464103277,-42.333333333333336,-15.240000000000006,-8.860465116279066,10.160000000000004,2.3090909090909033,19.75555555555556,-14.76744186046512,-7.4705882352941195,15.112059376252263,149.80119261079128,7.8679016178550425,37.87434162501958,37.95754795847135,2413.9635586968516,1
4.1005898789195765,4.533333333333329,14.96978164131222,-94.3695289007685,126.51669261373465,-125.24188569825087,71.04309464103277,-66.52380952380952,-50.800000000000004,-26.581395348837205,-20.319999999999997,-6.927272727272733,19.75555555555556,-8.860465116279073,-22.411764705882355,27.772532872204554,424.8693824578721,7.8679016178550425,37.87434162501958,37.95754795847135,2413.9635586968516,1
2.4051536789816685,5.333333333333329,16.546931594742833,-93.73304376879389,126.29700743815948,-125.09933589000094,71.30259125104486,-66.52380952380952,-50.800000000000004,-26.581395348837205,-20.319999999999997,-6.927272727272733,19.75555555555556,-8.860465116279073,-22.411764705882355,27.772532872204554,424.8693824578721,8.095139535685943,55.71815077919258,38.53776956562335,2316.324917264459,1
2.4051536789816685,5.333333333333329,16.546931594742833,-93.73304376879389,126.29700743815948,-125.09933589000094,71.30259125104486,-66.52380952380952,-40.64000000000001,-14.767441860465112,-5.0799999999999965,-4.618181818181824,19.75555555555556,32.48837209302325,7.470588235294116,23.917993635791177,466.7515435169722,8.095139535685943,55.71815077919258,38.53776956562335,2316.324917264459,1
2.4051536789816685,5.333333333333329,16.546931594742833,-93.73304376879389,126.29700743815948,-125.09933589000094,71.30259125104486,-6.047619047619051,-25.400000000000006,-20.67441860465116,-20.319999999999997,-13.85454545454546,25.400000000000006,-44.30232558139535,22.41176470588235,22.301334174261672,120.76618743894225,8.095139535685943,55.71815077919258,38.53776956562335,2316.324917264459,1
3.785159888233454,7.933333333333328,14.864638311083514,-93.05412629468765,126.07732226258432,-124.62416986250118,71.56208786105692,-6.047619047619051,-25.400000000000006,-20.67441860465116,-20.319999999999997,-13.85454545454546,25.400000000000006,-44.30232558139535,22.41176470588235,22.301334174261672,120.76618743894225,8.861043844216764,31.334195624602717,38.617365979701496,2234.5314023670844,1
3.785159888233454,7.933333333333328,14.864638311083514,-93.05412629468765,126.07732226258432,-124.62416986250118,71.56208786105692,-54.42857142857143,-66.04,-32.48837209302325,-10.159999999999997,-6.217248937900877e-15,42.33333333333334,127.0,7.470588235294116,42.49010813627777,1716.5881990345192,8.861043844216764,31.334195624602717,38.617365979701496,2234.5314023670844,1
3.785159888233454,7.933333333333328,14.864638311083514,-93.05412629468765,126.07732226258432,-124.62416986250118,71.56208786105692,-54.42857142857143,-25.400000000000006,-26.581395348837205,-35.559999999999995,-36.94545454545455,-14.111111111111107,-50.209302325581405,-37.352941176470594,35.07359699200329,173.96603452878122,8.861043844216764,31.334195624602717,38.617365979701496,2234.5314023670844,1
11.276622167028858,9.533333333333328,13.103487529752663,-93.26628800534581,126.10661361932767,-123.62632120475166,71.86876567288938,-54.42857142857143,-25.400000000000006,-26.581395348837205,-35.559999999999995,-36.94545454545455,-14.111111111111107,-50.209302325581405,-37.352941176470594,35.07359699200329,173.96603452878122,11.304481010038282,3.187082332903014,38.6343696228106,2241.6713798635446,1
11.276622167028858,9.533333333333328,13.103487529752663,-93.26628800534581,126.10661361932767,-123.62632120475166,71.86876567288938,90.71428571428571,91.44,14.76744186046512,-25.4,-9.236363636363642,25.400000000000006,44.302325581395344,37.35294117647059,42.32666974612255,1029.9464967218055,11.304481010038282,3.187082332903014,38.6343696228106,2241.6713798635446,1
11.276622167028858,9.533333333333328,13.103487529752663,-93.26628800534581,126.10661361932767,-123.62632120475166,71.86876567288938,-66.52380952380952,5.079999999999995,2.9534883720930267,-5.0799999999999965,-6.217248937900877e-15,-8.466666666666665,-38.395348837209305,-67.23529411764706,24.216825939678195,837.2268414635361,11.304481010038282,3.187082332903014,38.6343696228106,2241.6713798635446,1
18.097795715616254,8.599999999999994,12.761771706509364,-94.6241229535583,126.50204693536298,-122.29585632775232,71.96312807653014,-66.52380952380952,5.079999999999995,2.9534883720930267,-5.0799999999999965,-6.217248937900877e-15,-8.466666666666665,-38.395348837209305,-67.23529411764706,24.216825939678195,837.2268414635361,13.15318914070854,22.66693656974094,38.66196488668922,2353.1524375602053,1
18.097795715616254,8.599999999999994,12.761771706509364,-94.6241229535583,126.50204693536298,-122.29585632775232,71.96312807653014,-66.52380952380952,-45.720000000000006,-26.581395348837205,-25.4,-25.400000000000006,2.8222222222222264,-44.30232558139535,-52.294117647058826,36.13048379041539,396.38101021307295,13.15318914070854,22.66693656974094,38.66196488668922,2353.1524375602053,1
18.097795715616254,8.599999999999994,12.761771706509364,-94.6241229535583,126.50204693536298,-122.29585632775232,71.96312807653014,-6.047619047619051,-7.105427357601002e-15,2.9534883720930267,3.552713678800501e-15,9.236363636363631,19.75555555555556,79.74418604651163,37.35294117647059,19.386269229326686,752.6638748484311,13.15318914070854,22.66693656974094,38.66196488668922,2353.1524375602053,1
14.982924557590795,5.599999999999994,12.55148504605195,-95.38790511192786,126.85354321628321,-120.98914975212796,71.70363146651805,-6.047619047619051,-7.105427357601002e-15,2.9534883720930267,3.552713678800501e-15,9.236363636363631,19.75555555555556,79.74418604651163,37.35294117647059,19.386269229326686,752.6638748484311,11.044803201214245,23.71238594953279,37.84646338599327,2495.343923010716,1
14.982924557590795,5.599999999999994,12.55148504605195,-95.38790511192786,126.85354321628321,-120.98914975212796,71.70363146651805,-54.42857142857143,-45.720000000000006,-26.581395348837205,-25.4,-2.3090909090909153,-19.755555555555553,-73.83720930232559,-7.4705882352941195,31.937801347459352,592.527167062845,11.044803201214245,23.71238594953279,37.84646338599327,2495.343923010716,1
14.982924557590795,5.599999999999994,12.55148504605195,-95.38790511192786,126.85354321628321,-120.98914975212796,71.70363146651805,-66.52380952380952,-55.88000000000001,-26.581395348837205,-20.319999999999997,-4.618181818181824,53.62222222222223,32.48837209302325,22.41176470588235,35.30571821399455,449.9952201778741,11.044803201214245,23.71238594953279,37.84646338599327,2495.343923010716,1
7.885749767153044,3.199999999999995,13.813205008796439,-95.13331105913801,126.88283457302657,-120.25264240950332,71.51490665923656,-66.52380952380952,-55.88000000000001,-26.581395348837205,-20.319999999999997,-4.618181818181824,53.62222222222223,32.48837209302325,22.41176470588235,35.30571821399455,449.9952201778741,8.299651591983158,28.288516180133758,37.382172022644816,2529.555575148962,1
7.885749767153044,3.199999999999995,13.813205008796439,-95.13331105913801,126.88283457302657,-120.25264240950332,71.51490665923656,-18.142857142857146,-35.56,-20.67441860465116,10.160000000000004,6.927272727272721,36.6888888888889,-127.0,-7.4705882352941195,32.82800319987051,1583.1118658773382,8.299651591983158,28.288516180133758,37.382172022644816,2529.555575148962,1
7.885749767153044,3.199999999999995,13.813205008796439,-95.13331105913801,126.88283457302657,-120.25264240950332,71.51490665923656,-66.52380952380952,-35.56,-38.3953488372093,-35.559999999999995,-23.090909090909097,-14.111111111111107,97.46511627906976,-7.4705882352941195,39.77211038467536,865.9504642276173,8.299651591983158,28.288516180133758,37.382172022644816,2529.555575148962,1
4.534306116112994,3.599999999999995,14.785780813411982,-94.4968259271634,126.73637778930981,-119.82499298475354,71.56208786105692,-66.52380952380952,-35.56,-38.3953488372093,-35.559999999999995,-23.090909090909097,-14.111111111111107,97.46511627906976,-7.4705882352941195,39.77211038467536,865.9504642276173,7.640028976508323,38.51455896561055,37.62753558019179,2456.8675615275424,1
4.534306116112994,3.599999999999995,14.785780813411982,-94.4968259271634,126.73637778930981,-119.82499298475354,71.56208786105692,-42.333333333333336,-35.56,-14.767441860465112,-10.159999999999997,-25.400000000000006,8.46666666666667,-85.65116279069767,-22.411764705882355,30.593796169630643,635.0482952481353,7.640028976508323,38.51455896561055,37.62753558019179,2456.8675615275424,1
4.534306116112994,3.599999999999995,14.785780813411982,-94.4968259271634,126.73637778930981,-119.82499298475354,71.56208786105692,-42.333333333333336,-40.64000000000001,-20.67441860465116,-20.319999999999997,2.3090909090909033,25.400000000000006,38.3953488372093,7.470588235294116,24.692847489947354,226.66648002797345,7.640028976508323,38.51455896561055,37.62753558019179,2456.8675615275424,1
8.713753492704114,6.066666666666661,14.181206664596914,-94.3695289007685,126.6777950758231,-119.15976054625386,71.77440326924862,-42.333333333333336,-40.64000000000001,-20.67441860465116,-20.319999999999997,2.3090909090909033,25.400000000000006,38.3953488372093,7.470588235294116,24.692847489947354,226.66648002797345,9.65387560798923,17.124312038238596,38.205800744010695,2382.234710194145,1
8.713753492704114,6.066666666666661,14.181206664596914,-94.3695289007685,126.6777950758231,-119.15976054625386,71.77440326924862,-54.42857142857143,-35.56,-20.67441860465116,5.080000000000004,2.3090909090909033,14.111111111111114,-2.9534883720930267,7.470588235294116,17.82340858260147,343.97399487694395,9.65387560798923,17.124312038238596,38.205800744010695,2382.234710194145,1
8.713753492704114,6.066666666666661,14.181206664596914,-94.3695289007685,126.6777950758231,-119.15976054625386,71.77440326924862,-30.23809523809524,-45.720000000000006,-62.02325581395348,-55.879999999999995,-23.090909090909097,8.46666666666667,14.767441860465112,7.470588235294116,30.957119613172964,455.16214031563595,9.65387560798923,17.124312038238596,38.205800744010695,2382.234710194145,1
12.065197143744165,6.4666666666666615,15.442926627341404,-94.83628466421652,126.75102346768148,-118.39949490225425,72.03389987926069,-30.23809523809524,-45.720000000000006,-62.02325581395348,-55.879999999999995,-23.090909090909097,8.46666666666667,14.767441860465112,7.470588235294116,30.957119613172964,455.16214031563595,11.324930145917412,20.554307141456707,38.915292652741535,2365.5113213809905,1
12.065197143744165,6.4666666666666615,15.442926627341404,-94.83628466421652,126.75102346768148,-118.39949490225425,72.03389987926069,-54.42857142857143,-30.480000000000004,-20.67441860465116,-30.479999999999997,-2.3090909090909153,25.400000000000006,-38.395348837209305,7.470588235294116,26.20475225185212,276.4219784980873,11.324930145917412,20.554307141456707,38.915292652741535,2365.5113213809905,1
12.065197143744165,6.4666666666666615,15.442926627341404,-94.83628466421652,126.75102346768148,-118.39949490225425,72.03389987926069,-30.23809523809524,-25.400000000000006,2.9534883720930267,-15.239999999999997,-6.217248937900877e-15,19.75555555555556,62.02325581395348,7.470588235294116,20.385122901873928,395.5761624356055,11.324930145917412,20.554307141456707,38.915292652741535,2365.5113213809905,1
9.305184725240593,4.4666666666666615,15.942357445927765,-94.79385232208489,126.76566914605317,-117.75802076512956,72.08108108108108,-30.23809523809524,-25.400000000000006,2.9534883720930267,-15.239999999999997,-6.217248937900877e-15,19.75555555555556,62.02325581395348,7.470588235294116,20.385122901873928,395.5761624356055,9.90473627927834,33.19246626476639,38.400958811559775,2418.041698582374,1
9.305184725240593,4.4666666666666615,15.942357445927765,-94.79385232208489,126.76566914605317,-117.75802076512956,72.08108108108108,-66.52380952380952,-35.56,-14.767441860465112,5.080000000000004,2.3090909090909033,14.111111111111114,-20.674418604651166,7.470588235294116,20.812057530552742,450.9110420371774,9.90473627927834,33.19246626476639,38.400958811559775,2418.041698582374,1
9.305184725240593,4.4666666666666615,15.942357445927765,-94.79385232208489,126.76566914605317,-117.75802076512956,72.08108108108108,-30.23809523809524,-40.64000000000001,-44.302325581395344,-60.959999999999994,-6.217248937900877e-15,31.04444444444445,44.302325581395344,7.470588235294116,32.36972238507806,406.37735837390755,9.90473627927834,33.19246626476639,38.400958811559775,2418.041698582374,1
4.258304874262637,0.1999999999999953,16.15264410638518,-94.03007016371538,126.60456668396472,-117.54419605275466,72.0103092783505,-30.23809523809524,-40.64000000000001,-44.302325581395344,-60.959999999999994,-6.217248937900877e-15,31.04444444444445,44.302325581395344,7.470588235294116,32.36972238507806,406.37735837390755,6.870316326882604,68.73866636770988,36.79423809003352,2520.5770683712785,1
4.258304874262637,0.1999999999999953,16.15264410638518,-94.03007016371538,126.60456668396472,-117.54419605275466,72.0103092783505,18.14285714285714,30.479999999999997,14.76744186046512,-25.4,-2.3090909090909153,31.04444444444445,56.11627906976744,7.470588235294116,23.216337707739896,283.3400298339592,6.870316326882604,68.73866636770988,36.79423809003352,2520.5770683712785,1
4.258304874262637,0.1999999999999953,16.15264410638518,-94.03007016371538,126.60456668396472,-117.54419605275466,72.0103092783505,-54.42857142857143,-25.400000000000006,-14.767441860465112,5.080000000000004,-23.090909090909097,-2.8222222222222193,8.860465116279066,-22.411764705882355,19.60767180304116,271.11097697085467,6.870316326882604,68.73866636770988,36.79423809003352,2520.5770683712785,1
2.799441167339322,-2.4666666666666712,16.862361585428953,-93.22385566321418,126.42881854350458,-117.56795435412965,71.89235627379956,-54.42857142857143,-25.400000000000006,-14.767441860465112,5.080000000000004,-23.090909090909097,-2.8222222222222193,8.860465116279066,-22.411764705882355,19.60767180304116,271.11097697085467,7.376156473144982,99.85149259586873,37.51762797176993,2379.1968607567915,1
2.799441167339322,-2.4666666666666712,16.862361585428953,-93.22385566321418,126.42881854350458,-117.56795435412965,71.89235627379956,-90.71428571428572,-50.800000000000004,-38.3953488372093,-45.72,-11.545454545454552,-25.4,-32.48837209302326,-37.352941176470594,41.55205029580543,541.5505473073803,7.376156473144982,99.85149259586873,37.51762797176993,2379.1968607567915,1
2.799441167339322,-2.4666666666666712,16.862361585428953,-93.22385566321418,126.42881854350458,-117.56795435412965,71.89235627379956,-6.047619047619051,-20.320000000000007,-8.860465116279066,10.160000000000004,-6.217248937900877e-15,19.75555555555556,56.11627906976744,-7.4705882352941195,16.091313378064406,307.8421498427576,7.376156473144982,99.85149259586873,37.51762797176993,2379.1968607567915,1
1.1434337162371797,-4.5333333333333385,17.07264824588637,-92.20547945205482,126.2237790463011,-117.75802076512956,71.65645026469768,-6.047619047619051,-20.320000000000007,-8.860465116279066,10.160000000000004,-6.217248937900877e-15,19.75555555555556,56.11627906976744,-7.4705882352941195,16.091313378064406,307.8421498427576,7.583138431818963,125.46399994470964,37.93715367709151,2248.096991432204,1
1.1434337162371797,-4.5333333333333385,17.07264824588637,-92.20547945205482,126.2237790463011,-117.75802076512956,71.65645026469768,-66.52380952380952,-55.88000000000001,-32.48837209302325,-40.64,-27.709090909090914,-2.8222222222222193,-26.581395348837212,-7.4705882352941195,32.514434791534654,476.5323886947884,7.583138431818963,125.46399994470964,37.93715367709151,2248.096991432204,1
1.1434337162371797,-4.5333333333333385,17.07264824588637,-92.20547945205482,126.2237790463011,-117.75802076512956,71.65645026469768,-42.333333333333336,-35.56,-8.860465116279066,5.080000000000004,-2.3090909090909153,31.04444444444445,8.860465116279066,7.470588235294116,17.68979839434012,251.55916823964012,7.583138431818963,125.46399994470964,37.93715367709151,2248.096991432204,1
-0.4731449860291974,-1.8666666666666714,17.598364897029906,-91.01737387236886,125.96015683561092,-117.94808717612946,71.53849726014674,-42.333333333333336,-35.56,-8.860465116279066,5.080000000000004,-2.3090909090909153,31.04444444444445,8.860465116279066,7.470588235294116,17.68979839434012,251.55916823964012,6.6460588499085915,117.90147098393558,36.82746847868848,2264.280967234826,1
-0.4731449860291974,-1.8666666666666714,17.598364897029906,-91.01737387236886,125.96015683561092,-117.94808717612946,71.53849726014674,-6.047619047619051,-30.480000000000004,-20.67441860465116,10.160000000000004,-6.217248937900877e-15,25.400000000000006,50.20930232558139,7.470588235294116,18.805241026643216,269.87261268960816,6.6460588499085915,117.90147098393558,36.82746847868848,2264.280967234826,1
-0.4731449860291974,-1.8666666666666714,17.598364897029906,-91.01737387236886,125.96015683561092,-117.94808717612946,71.53849726014674,-42.333333333333336,-25.400000000000006,-2.9534883720930196,15.240000000000002,18.472727272727266,25.400000000000006,2.9534883720930196,22.41176470588235,19.395600257016127,166.59275338913898,6.6460588499085915,117.90147098393558,36.82746847868848,2264.280967234826,1
0.5914312325364657,-1.6000000000000048,17.992652385387558,-90.16872702973609,125.72582598166409,-118.20942849125433,71.53849726014674,-42.333333333333336,-25.400000000000006,-2.9534883720930196,15.240000000000002,18.472727272727266,25.400000000000006,2.9534883720930196,22.41176470588235,19.395600257016127,166.59275338913898,6.728027872641342,115.2461493253336,36.58712647170788,2220.4207018271045,1
0.5914312325364657,-1.6000000000000048,17.992652385387558,-90.16872702973609,125.72582598166409,-118.20942849125433,71.53849726014674,-78.61904761904762,-71.12,-44.302325581395344,5.080000000000004,-20.78181818181819,2.8222222222222264,-14.76744186046512,-7.4705882352941195,30.62043046253033,920.0516199511541,6.728027872641342,115.2461493253336,36.58712647170788,2220.4207018271045,1
0.5914312325364657,-1.6000000000000048,17.992652385387558,-90.16872702973609,125.72582598166409,-118.20942849125433,71.53849726014674,-66.52380952380952,-45.720000000000006,-26.581395348837205,3.552713678800501e-15,-4.618181818181824,14.111111111111114,8.860465116279066,-7.4705882352941195,21.735693894189108,542.507384358597,6.728027872641342,115.2461493253336,36.58712647170788,2220.4207018271045,1
5.520024837007126,-2.6000000000000045,17.966366552830383,-90.08386234547277,125.69653462492073,-118.35197829950427,71.51490665923656,-66.52380952380952,-45.720000000000006,-26.581395348837205,3.552713678800501e-15,-4.618181818181824,14.111111111111114,8.860465116279066,-7.4705882352941195,21.735693894189108,542.507384358597,8.695463796612506,107.30360977433921,36.883409632767716,2181.7474318865607,1
5.520024837007126,-2.6000000000000045,17.966366552830383,-90.08386234547277,125.69653462492073,-118.35197829950427,71.51490665923656,42.33333333333333,55.879999999999995,26.581395348837212,-10.159999999999997,4.618181818181812,19.75555555555556,-2.9534883720930267,37.35294117647059,24.95436195055894,365.47073337680746,8.695463796612506,107.30360977433921,36.883409632767716,2181.7474318865607,1
5.520024837007126,-2.6000000000000045,17.966366552830383,-90.08386234547277,125.69653462492073,-118.35197829950427,71.51490665923656,-30.23809523809524,-25.400000000000006,-26.581395348837205,-15.239999999999997,-27.709090909090914,25.400000000000006,14.767441860465112,-7.4705882352941195,21.600826448972825,64.62938611170688,8.695463796612506,107.30360977433921,36.883409632767716,2181.7474318865607,1
7.057746041601973,-4.666666666666671,17.91379488771603,-90.29602405613099,125.82834573026582,-118.39949490225425,71.25541004922447,-30.23809523809524,-25.400000000000006,-26.581395348837205,-15.239999999999997,-27.709090909090914,25.400000000000006,14.767441860465112,-7.4705882352941195,21.600826448972825,64.62938611170688,9.879402531994891,127.53214898533014,37.62549520350456,2124.510058737745,1
7.057746041601973,-4.666666666666671,17.91379488771603,-90.29602405613099,125.82834573026582,-118.39949490225425,71.25541004922447,-54.42857142857143,-40.64000000000001,-20.67441860465116,10.160000000000004,4.618181818181812,53.62222222222223,44.302325581395344,-7.4705882352941195,29.48953848628951,443.2641701681551,9.879402531994891,127.53214898533014,37.62549520350456,2124.510058737745,1
7.057746041601973,-4.666666666666671,17.91379488771603,-90.29602405613099,125.82834573026582,-118.39949490225425,71.25541004922447,-42.333333333333336,-15.240000000000006,-14.767441860465112,-45.72,-23.090909090909097,-36.68888888888889,-26.581395348837212,-7.4705882352941195,26.486569594715974,194.5860595522615,9.879402531994891,127.53214898533014,37.62549520350456,2124.510058737745,1
2.5234399254889643,-5.066666666666672,17.04636241332919,-89.53224189776148,125.72582598166409,-118.44701150500421,70.87796043466146,-42.333333333333336,-15.240000000000006,-14.767441860465112,-45.72,-23.090909090909097,-36.68888888888889,-26.581395348837212,-7.4705882352941195,26.486569594715974,194.5860595522615,8.212156335161609,126.25184179347373,37.215090325919114,2088.6915389889973,1
2.5234399254889643,-5.066666666666672,17.04636241332919,-89.53224189776148,125.72582598166409,-118.44701150500421,70.87796043466146,-42.333333333333336,-40.64000000000001,-26.581395348837205,-25.4,-6.927272727272733,14.111111111111114,-32.48837209302326,-7.4705882352941195,24.494009106108972,193.4591438778985,8.212156335161609,126.25184179347373,37.215090325919114,2088.6915389889973,1
2.5234399254889643,-5.066666666666672,17.04636241332919,-89.53224189776148,125.72582598166409,-118.44701150500421,70.87796043466146,-54.42857142857143,-30.480000000000004,-20.67441860465116,15.240000000000002,4.618181818181812,42.33333333333334,20.67441860465116,-7.4705882352941195,24.48993900308538,292.83029443360954,8.212156335161609,126.25184179347373,37.215090325919114,2088.6915389889973,1
1.7348649487736587,-5.600000000000005,17.125219911000723,-88.72602739726028,125.60866055469066,-118.6845945187541,70.571282622829,-54.42857142857143,-30.480000000000004,-20.67441860465116,15.240000000000002,4.618181818181812,42.33333333333334,20.67441860465116,-7.4705882352941195,24.48993900308538,292.83029443360954,8.153361619924796,134.51648161390662,37.15041576942034,2028.240459588566,1
1.7348649487736587,-5.600000000000005,17.125219911000723,-88.72602739726028,125.60866055469066,-118.6845945187541,70.571282622829,-66.52380952380952,-35.56,-14.767441860465112,-25.4,-13.85454545454546,14.111111111111114,-20.674418604651166,-22.411764705882355,26.66288640755809,312.3832497739871,8.153361619924796,134.51648161390662,37.15041576942034,2028.240459588566,1
1.7348649487736587,-5.600000000000005,17.125219911000723,-88.72602739726028,125.60866055469066,-118.6845945187541,70.571282622829,-54.42857142857143,-45.720000000000006,-20.67441860465116,10.160000000000004,11.54545454545454,31.04444444444445,-2.9534883720930267,7.470588235294116,22.999620703813594,359.0246265588401,8.153361619924796,134.51648161390662,37.15041576942034,2028.240459588566,1
5.559453585842892,-6.733333333333338,16.8097899203146,-88.47143334447043,125.5793691979473,-118.87466092975401,70.3589672146373,-54.42857142857143,-45.720000000000006,-20.67441860465116,10.160000000000004,11.54545454545454,31.04444444444445,-2.9534883720930267,7.470588235294116,22.999620703813594,359.0246265588401,9.700858946496943,138.66022173591045,37.33818553270612,1986.340518171804,1
5.559453585842892,-6.733333333333338,16.8097899203146,-88.47143334447043,125.5793691979473,-118.87466092975401,70.3589672146373,-18.142857142857146,-10.160000000000005,-8.860465116279066,-30.479999999999997,-9.236363636363642,14.111111111111114,38.3953488372093,-22.411764705882355,18.97473881871283,117.21789729315263,9.700858946496943,138.66022173591045,37.33818553270612,1986.340518171804,1
5.559453585842892,-6.733333333333338,16.8097899203146,-88.47143334447043,125.5793691979473,-118.87466092975401,70.3589672146373,-42.333333333333336,-45.720000000000006,-20.67441860465116,-15.239999999999997,-4.618181818181824,8.46666666666667,-8.860465116279073,-7.4705882352941195,19.172956721800773,261.2328740730625,9.700858946496943,138.66022173591045,37.33818553270612,1986.340518171804,1
11.51319466004345,-5.800000000000004,17.677222394701438,-89.15035081857673,125.79905437352247,-118.85090262837902,70.24101421008636,-42.333333333333336,-45.720000000000006,-20.67441860465116,-15.239999999999997,-4.618181818181824,8.46666666666667,-8.860465116279073,-7.4705882352941195,19.172956721800773,261.2328740730625,11.663472351581632,148.15365310341016,37.542524404426054,2032.7929133481302,1
11.51319466004345,-5.800000000000004,17.677222394701438,-89.15035081857673,125.79905437352247,-118.85090262837902,70.24101421008636,-54.42857142857143,-50.800000000000004,-20.67441860465116,-10.159999999999997,-6.217248937900877e-15,14.111111111111114,-8.860465116279073,-7.4705882352941195,20.81314431198836,420.244535804351,11.663472351581632,148.15365310341016,37.542524404426054,2032.7929133481302,1
11.51319466004345,-5.800000000000004,17.677222394701438,-89.15035081857673,125.79905437352247,-118.85090262837902,70.24101421008636,-54.42857142857143,-50.800000000000004,-32.48837209302325,-15.239999999999997,-6.217248937900877e-15,19.75555555555556,8.860465116279066,-7.4705882352941195,23.630444053590427,412.6111036596645,11.663472351581632,148.15365310341016,37.542524404426054,2032.7929133481302,1
9.462899720583655,-6.733333333333338,18.676084031874158,-89.57467423989311,125.94551115723922,-118.96969413525396,70.05228940280487,-54.42857142857143,-50.800000000000004,-32.48837209302325,-15.239999999999997,-6.217248937900877e-15,19.75555555555556,8.860465116279066,-7.4705882352941195,23.630444053590427,412.6111036596645,11.624105695263717,165.47320352165184,38.328030535033534,2005.321191821492,1
9.462899720583655,-6.733333333333338,18.676084031874158,-89.57467423989311,125.94551115723922,-118.96969413525396,70.05228940280487,-54.42857142857143,-35.56,-32.48837209302325,-30.479999999999997,-11.545454545454552,-14.111111111111107,-38.395348837209305,-22.411764705882355,29.9275778401565,193.59133899927537,11.624105695263717,165.47320352165184,38.328030535033534,2005.321191821492,1
9.462899720583655,-6.733333333333338,18.676084031874158,-89.57467423989311,125.94551115723922,-118.96969413525396,70.05228940280487,-30.23809523809524,-20.320000000000007,-26.581395348837205,-35.559999999999995,-18.47272727272728,-2.8222222222222193,-2.9534883720930267,22.41176470588235,19.919961644982166,140.58669839698675,11.624105695263717,165.47320352165184,38.328030535033534,2005.321191821492,1
5.638311083514422,-6.866666666666672,19.017799855117456,-89.44737721349816,125.96015683561092,-119.2785520531288,69.83997399461317,-30.23809523809524,-20.320000000000007,-26.581395348837205,-35.559999999999995,-18.47272727272728,-2.8222222222222193,-2.9534883720930267,22.41176470588235,19.919961644982166,140.58669839698675,10.507592535099517,167.5651325732232,38.443947911760766,1987.9248598438612,1
5.638311083514422,-6.866666666666672,19.017799855117456,-89.44737721349816,125.96015683561092,-119.2785520531288,69.83997399461317,-30.23809523809524,-50.800000000000004,-44.302325581395344,-5.0799999999999965,-4.618181818181824,47.97777777777779,38.3953488372093,7.470588235294116,28.610289685994204,398.3289589897061,10.507592535099517,167.5651325732232,38.443947911760766,1987.9248598438612,1
5.638311083514422,-6.866666666666672,19.017799855117456,-89.44737721349816,125.96015683561092,-119.2785520531288,69.83997399461317,-54.42857142857143,-30.480000000000004,-8.860465116279066,-15.239999999999997,-13.85454545454546,2.8222222222222264,-14.76744186046512,-37.352941176470594,22.225773407319238,294.80258900895285,10.507592535099517,167.5651325732232,38.443947911760766,1987.9248598438612,1
4.218876125426872,-7.466666666666671,19.254372348132048,-89.23521550283999,125.91621980049587,-119.75371808062857,69.69843038915202,-54.42857142857143,-30.480000000000004,-8.860465116279066,-15.239999999999997,-13.85454545454546,2.8222222222222264,-14.76744186046512,-37.352941176470594,22.225773407319238,294.80258900895285,10.313305046741863,179.43866383987105,38.652084839212904,1953.727332108391,1
4.218876125426872,-7.466666666666671,19.254372348132048,-89.23521550283999,125.91621980049587,-119.75371808062857,69.69843038915202,-30.23809523809524,-30.480000000000004,-26.581395348837205,-20.319999999999997,4.618181818181812,31.04444444444445,-14.76744186046512,-22.411764705882355,22.557665426988272,85.35847095654297,10.313305046741863,179.43866383987105,38.652084839212904,1953.727332108391,1
4.218876125426872,-7.466666666666671,19.254372348132048,-89.23521550283999,125.91621980049587,-119.75371808062857,69.69843038915202,-18.142857142857146,-5.080000000000005,-8.860465116279066,-20.319999999999997,-6.927272727272733,19.75555555555556,14.767441860465112,7.470588235294116,12.665522579715468,39.31604572497899,10.313305046741863,179.43866383987105,38.652084839212904,1953.727332108391,1
7.5703197764669214,-8.600000000000005,19.17551485046052,-89.48980955562985,126.00409387072594,-120.13385090262838,69.53329618278072,-18.142857142857146,-5.080000000000005,-8.860465116279066,-20.319999999999997,-6.927272727272733,19.75555555555556,14.767441860465112,7.470588235294116,12.665522579715468,39.31604572497899,11.78194487564248,194.60650326446597,39.08844146869679,1933.1838073639633,1
7.5703197764669214,-8.600000000000005,19.17551485046052,-89.48980955562985,126.00409387072594,-120.13385090262838,69.53329618278072,-18.142857142857146,-5.080000000000005,-8.860465116279066,-20.319999999999997,-13.85454545454546,19.75555555555556,-14.76744186046512,7.470588235294116,13.53143167062456,33.95717081041583,11.78194487564248,194.60650326446597,39.08844146869679,1933.1838073639633,1
7.5703197764669214,-8.600000000000005,19.17551485046052,-89.48980955562985,126.00409387072594,-120.13385090262838,69.53329618278072,-18.142857142857146,-15.240000000000006,-2.9534883720930196,-5.0799999999999965,2.3090909090909033,19.75555555555556,8.860465116279066,-7.4705882352941195,9.976505666396227,47.090920452903525,11.78194487564248,194.60650326446597,39.08844146869679,1933.1838073639633,1
9.502328469419421,-7.333333333333338,19.517230673703818,-89.9989976612095,126.15055065444272,-120.44270882050324,69.46252438005014,-18.142857142857146,-15.240000000000006,-2.9534883720930196,-5.0799999999999965,2.3090909090909033,19.75555555555556,8.860465116279066,-7.4705882352941195,9.976505666396227,47.090920452903525,12.117630825485525,184.11509366567466,38.94985388941556,1991.6231484751384,1
9.502328469419421,-7.333333333333338,19.517230673703818,-89.9989976612095,126.15055065444272,-120.44270882050324,69.46252438005014,-78.61904761904762,-66.04,-32.48837209302325,-10.159999999999997,-6.927272727272733,-2.8222222222222193,14.767441860465112,-37.352941176470594,31.14716221231269,801.2945797263662,12.117630825485525,184.11509366567466,38.94985388941556,1991.6231484751384,1
9.502328469419421,-7.333333333333338,19.517230673703818,-89.9989976612095,126.15055065444272,-120.44270882050324,69.46252438005014,-42.333333333333336,-40.64000000000001,-38.3953488372093,-30.479999999999997,-11.545454545454552,47.97777777777779,8.860465116279066,-7.4705882352941195,28.46287098066852,276.4794199368203,12.117630825485525,184.11509366567466,38.94985388941556,1991.6231484751384,1
8.792610990375646,-6.133333333333338,19.858946496947116,-90.46575342465758,126.25307040304446,-120.77532503975307,69.46252438005014,-42.333333333333336,-40.64000000000001,-38.3953488372093,-30.479999999999997,-11.545454545454552,47.97777777777779,8.860465116279066,-7.4705882352941195,28.46287098066852,276.4794199368203,11.594963606885367,170.14103437901153,38.819344418312674,2047.61178661729,1
8.792610990375646,-6.133333333333338,19.858946496947116,-90.46575342465758,126.25307040304446,-120.77532503975307,69.46252438005014,-78.61904761904762,-45.720000000000006,-26.581395348837205,-15.239999999999997,-9.236363636363642,8.46666666666667,2.9534883720930196,7.470588235294116,24.285943734787782,673.3103374737182,11.594963606885367,170.14103437901153,38.819344418312674,2047.61178661729,1
8.792610990375646,-6.133333333333338,19.858946496947116,-90.46575342465758,126.25307040304446,-120.77532503975307,69.46252438005014,-42.333333333333336,-20.320000000000007,-8.860465116279066,-10.159999999999997,2.3090909090909033,25.400000000000006,8.860465116279066,7.470588235294116,15.714242838784562,170.8652801003049,11.594963606885367,170.14103437901153,38.819344418312674,2047.61178661729,1
7.412604781123861,-6.066666666666672,20.489806478319363,-90.84764450384233,126.29700743815948,-121.20297446450286,69.50970558187053,-42.333333333333336,-20.320000000000007,-8.860465116279066,-10.159999999999997,2.3090909090909033,25.400000000000006,8.860465116279066,7.470588235294116,15.714242838784562,170.8652801003049,11.323025975369966,176.32503814878638,39.13470588294279,2057.677756113313,1
7.412604781123861,-6.066666666666672,20.489806478319363,-90.84764450384233,126.29700743815948,-121.20297446450286,69.50970558187053,-42.333333333333336,-25.400000000000006,-38.3953488372093,-20.319999999999997,-9.236363636363642,-42.333333333333336,-32.48837209302326,-37.352941176470594,30.982461551216684,139.03299905471386,11.323025975369966,176.32503814878638,39.13470588294279,2057.677756113313,1
7.412604781123861,-6.066666666666672,20.489806478319363,-90.84764450384233,126.29700743815948,-121.20297446450286,69.50970558187053,-30.23809523809524,-10.160000000000005,-14.767441860465112,-10.159999999999997,-4.618181818181824,36.6888888888889,26.581395348837205,-22.411764705882355,19.45322098254383,126.81549101355797,11.323025975369966,176.32503814878638,39.13470588294279,2057.677756113313,1
6.624029804408555,-6.466666666666671,20.962951464348546,-91.01737387236886,126.29700743815948,-121.7256570947526,69.58047738460108,-30.23809523809524,-10.160000000000005,-14.767441860465112,-10.159999999999997,-4.618181818181824,36.6888888888889,26.581395348837205,-22.411764705882355,19.45322098254383,126.81549101355797,11.35121597847459,188.22582654683936,39.48233066779469,2044.4310768068704,1
6.624029804408555,-6.466666666666671,20.962951464348546,-91.01737387236886,126.29700743815948,-121.7256570947526,69.58047738460108,-6.047619047619051,-15.240000000000006,-26.581395348837205,-15.239999999999997,-6.217248937900877e-15,31.04444444444445,26.581395348837205,22.41176470588235,17.893327361952537,116.98649556679015,11.35121597847459,188.22582654683936,39.48233066779469,2044.4310768068704,1
6.624029804408555,-6.466666666666671,20.962951464348546,-91.01737387236886,126.29700743815948,-121.7256570947526,69.58047738460108,-54.42857142857143,-40.64000000000001,-20.67441860465116,-25.4,-13.85454545454546,14.111111111111114,-14.76744186046512,-22.411764705882355,25.78598164565333,211.2531714045609,11.35121597847459,188.22582654683936,39.48233066779469,2044.4310768068704,1
7.5703197764669214,-6.000000000000005,20.489806478319363,-91.27196792515872,126.31165311653118,-122.1533065195024,69.65124918733166,-54.42857142857143,-40.64000000000001,-20.67441860465116,-25.4,-13.85454545454546,14.111111111111114,-14.76744186046512,-22.411764705882355,25.78598164565333,211.2531714045609,11.353375418262097,175.46276045562036,39.253924801159364,2081.896230782479,1
7.5703197764669214,-6.000000000000005,20.489806478319363,-91.27196792515872,126.31165311653118,-122.1533065195024,69.65124918733166,-30.23809523809524,-35.56,-8.860465116279066,-35.559999999999995,-16.16363636363637,19.75555555555556,26.581395348837205,37.35294117647059,26.25901109985925,108.42143474189007,11.353375418262097,175.46276045562036,39.253924801159364,2081.896230782479,1
7.5703197764669214,-6.000000000000005,20.489806478319363,-91.27196792515872,126.31165311653118,-122.1533065195024,69.65124918733166,-18.142857142857146,-7.105427357601002e-15,8.860465116279073,-5.0799999999999965,-4.618181818181824,19.75555555555556,-2.9534883720930267,22.41176470588235,10.227789088856124,74.17657423203941,11.353375418262097,175.46276045562036,39.253924801159364,2081.896230782479,1
9.423470971747891,-5.133333333333338,20.016661492290176,-91.61142666221184,126.39952718676122,-122.31961462912732,69.65124918733166,-18.142857142857146,-7.105427357601002e-15,8.860465116279073,-5.0799999999999965,-4.618181818181824,19.75555555555556,-2.9534883720930267,22.41176470588235,10.227789088856124,74.17657423203941,11.524488599123801,159.43974611830464,38.92047382927845,2137.6307471036075,1
9.423470971747891,-5.133333333333338,20.016661492290176,-91.61142666221184,126.39952718676122,-122.31961462912732,69.65124918733166,-66.52380952380952,-40.64000000000001,-32.48837209302325,-15.239999999999997,-4.618181818181824,14.111111111111114,2.9534883720930196,37.35294117647059,26.740988011836166,466.93594345919547,11.524488599123801,159.43974611830464,38.92047382927845,2137.6307471036075,1
9.423470971747891,-5.133333333333338,20.016661492290176,-91.61142666221184,126.39952718676122,-122.31961462912732,69.65124918733166,-18.142857142857146,-30.480000000000004,-26.581395348837205,-15.239999999999997,-4.618181818181824,-2.8222222222222193,32.48837209302325,-7.4705882352941195,17.230452107551972,137.5015081093724,11.524488599123801,159.43974611830464,38.92047382927845,2137.6307471036075,1
8.240608506674931,-5.866666666666672,19.885232329504294,-91.78115603073843,126.44346422187627,-122.5334393415022,69.58047738460108,-18.142857142857146,-30.480000000000004,-26.581395348837205,-15.239999999999997,-4.618181818181824,-2.8222222222222193,32.48837209302325,-7.4705882352941195,17.230452107551972,137.5015081093724,11.330835834281965,166.29546311676276,39.177685008969796,2124.4739184643613,1
8.240608506674931,-5.866666666666672,19.885232329504294,-91.78115603073843,126.44346422187627,-122.5334393415022,69.58047738460108,-18.142857142857146,-10.160000000000005,-14.767441860465112,-25.4,-6.927272727272733,31.04444444444445,14.767441860465112,-22.411764705882355,17.952652842673363,64.19334661831736,11.330835834281965,166.29546311676276,39.177685008969796,2124.4739184643613,1
8.240608506674931,-5.866666666666672,19.885232329504294,-91.78115603073843,126.44346422187627,-122.5334393415022,69.58047738460108,-30.23809523809524,-40.64000000000001,-32.48837209302325,3.552713678800501e-15,-6.927272727272733,8.46666666666667,-14.76744186046512,7.470588235294116,17.624804602602143,218.56214374422842,11.330835834281965,166.29546311676276,39.177685008969796,2124.4739184643613,1
6.229742316050902,-5.666666666666671,20.305805650419124,-91.7387236886068,126.41417286513291,-122.91357216350201,69.5568867836909,-30.23809523809524,-40.64000000000001,-32.48837209302325,3.552713678800501e-15,-6.927272727272733,8.46666666666667,-14.76744186046512,7.470588235294116,17.624804602602143,218.56214374422842,10.7340715443789,169.03823732316948,39.23706533523086,2120.8941949373616,1
6.229742316050902,-5.666666666666671,20.305805650419124,-91.7387236886068,126.41417286513291,-122.91357216350201,69.5568867836909,-42.333333333333336,-35.56,-8.860465116279066,-15.239999999999997,-6.927272727272733,25.400000000000006,26.581395348837205,-37.352941176470594,24.781925962774118,178.45703120780576,10.7340715443789,169.03823732316948,39.23706533523086,2120.8941949373616,1
6.229742316050902,-5.666666666666671,20.305805650419124,-91.7387236886068,126.41417286513291,-122.91357216350201,69.5568867836909,-90.71428571428572,-81.28,-26.581395348837205,-5.0799999999999965,9.236363636363631,31.04444444444445,-2.9534883720930267,-7.4705882352941195,31.795070718914772,1227.7265087729509,10.7340715443789,169.03823732316948,39.23706533523086,2120.8941949373616,1
4.810307357963351,-5.400000000000005,20.805236469005482,-91.61142666221184,126.34094447327453,-123.41249649237677,69.62765858642148,-90.71428571428572,-81.28,-26.581395348837205,-5.0799999999999965,9.236363636363631,31.04444444444445,-2.9534883720930267,-7.4705882352941195,31.795070718914772,1227.7265087729509,10.338514608989612,174.46709200130647,39.27222104373911,2113.87466124607,1
4.810307357963351,-5.400000000000005,20.805236469005482,-91.61142666221184,126.34094447327453,-123.41249649237677,69.62765858642148,-18.142857142857146,-20.320000000000007,-2.9534883720930196,-25.4,-25.400000000000006,-36.68888888888889,-38.395348837209305,7.470588235294116,21.84639643454281,157.0107900403018,10.338514608989612,174.46709200130647,39.27222104373911,2113.87466124607,1
4.810307357963351,-5.400000000000005,20.805236469005482,-91.61142666221184,126.34094447327453,-123.41249649237677,69.62765858642148,-18.142857142857146,-20.320000000000007,-8.860465116279066,-10.159999999999997,-6.217248937900877e-15,36.6888888888889,32.48837209302325,7.470588235294116,16.766396434542813,161.75446998831487,10.338514608989612,174.46709200130647,39.27222104373911,2113.87466124607,1
5.007451102142178,-5.000000000000005,21.120666459691606,-91.61142666221184,126.28236175978782,-123.88766251987654,69.65124918733166,-18.142857142857146,-20.320000000000007,-8.860465116279066,-10.159999999999997,-6.217248937900877e-15,36.6888888888889,32.48837209302325,7.470588235294116,16.766396434542813,161.75446998831487,10.37603918727793,173.6790005031653,39.24403104063448,2121.727064916256,1
5.007451102142178,-5.000000000000005,21.120666459691606,-91.61142666221184,126.28236175978782,-123.88766251987654,69.65124918733166,-42.333333333333336,-30.480000000000004,-14.767441860465112,3.552713678800501e-15,4.618181818181812,53.62222222222223,26.581395348837205,-22.411764705882355,24.351792411115255,328.6669423455872,10.37603918727793,173.6790005031653,39.24403104063448,2121.727064916256,1
5.007451102142178,-5.000000000000005,21.120666459691606,-91.61142666221184,126.28236175978782,-123.88766251987654,69.65124918733166,-30.23809523809524,-30.480000000000004,-14.767441860465112,3.552713678800501e-15,4.618181818181812,14.111111111111114,-20.674418604651166,7.470588235294116,15.29497960847482,127.66446660837437,10.37603918727793,173.6790005031653,39.24403104063448,2121.727064916256,1
4.494877367277229,-7.133333333333338,20.542378143433716,-91.44169729368531,126.2237790463011,-124.45786175287625,69.60406798551129,-30.23809523809524,-30.480000000000004,-14.767441860465112,3.552713678800501e-15,4.618181818181812,14.111111111111114,-20.674418604651166,7.470588235294116,15.29497960847482,127.66446660837437,10.723529614681427,193.11376183396547,39.70580292348412,2052.402695393281,1
4.494877367277229,-7.133333333333338,20.542378143433716,-91.44169729368531,126.2237790463011,-124.45786175287625,69.60406798551129,-54.42857142857143,-25.400000000000006,-26.581395348837205,15.240000000000002,25.399999999999995,81.84444444444446,44.302325581395344,-7.4705882352941195,35.08341562981782,580.2668536187074,10.723529614681427,193.11376183396547,39.70580292348412,2052.402695393281,1
4.494877367277229,-7.133333333333338,20.542378143433716,-91.44169729368531,126.2237790463011,-124.45786175287625,69.60406798551129,-42.333333333333336,-15.240000000000006,-26.581395348837205,-40.64,-36.94545454545455,-19.755555555555553,-20.674418604651166,-7.4705882352941195,26.205093202890744,161.0547816750461,10.723529614681427,193.11376183396547,39.70580292348412,2052.402695393281,1
4.849736106799117,-6.866666666666672,20.41094898064783,-91.35683260942199,126.17984201118608,-124.980544383126,69.58047738460108,-42.333333333333336,-15.240000000000006,-26.581395348837205,-40.64,-36.94545454545455,-19.755555555555553,-20.674418604651166,-7.4705882352941195,26.205093202890744,161.0547816750461,10.709117251371206,187.24895924298812,39.54481608557883,2059.225688050453,1
4.849736106799117,-6.866666666666672,20.41094898064783,-91.35683260942199,126.17984201118608,-124.980544383126,69.58047738460108,-42.333333333333336,-35.56,-14.767441860465112,-10.159999999999997,-11.545454545454552,2.8222222222222264,-32.48837209302326,-7.4705882352941195,19.643426536224077,220.51149575855442,10.709117251371206,187.24895924298812,39.54481608557883,2059.225688050453,1
4.849736106799117,-6.866666666666672,20.41094898064783,-91.35683260942199,126.17984201118608,-124.980544383126,69.58047738460108,-30.23809523809524,-20.320000000000007,-20.67441860465116,-15.239999999999997,-6.217248937900877e-15,25.400000000000006,20.67441860465116,7.470588235294116,17.50219008533646,94.96028560344655,10.709117251371206,187.24895924298812,39.54481608557883,2059.225688050453,1
5.2834523439925345,-6.3333333333333375,20.069233157404533,-91.27196792515872,126.13590497607103,-125.43195210925077,69.53329618278072,-30.23809523809524,-20.320000000000007,-20.67441860465116,-15.239999999999997,-6.217248937900877e-15,25.400000000000006,20.67441860465116,7.470588235294116,17.50219008533646,94.96028560344655,10.562006278243468,175.11075683883666,39.224844805298865,2078.846004784618,1
5.2834523439925345,-6.3333333333333375,20.069233157404533,-91.27196792515872,126.13590497607103,-125.43195210925077,69.53329618278072,-54.42857142857143,-55.88000000000001,-38.3953488372093,-15.239999999999997,-6.927272727272733,19.75555555555556,2.9534883720930196,22.41176470588235,26.99900020332305,415.60221111376705,10.562006278243468,175.11075683883666,39.224844805298865,2078.846004784618,1
5.2834523439925345,-6.3333333333333375,20.069233157404533,-91.27196792515872,126.13590497607103,-125.43195210925077,69.53329618278072,18.14285714285714,10.159999999999997,-20.67441860465116,-15.239999999999997,-11.545454545454552,8.46666666666667,-14.76744186046512,-7.4705882352941195,13.308428381923594,22.004702108755225,10.562006278243468,175.11075683883666,39.224844805298865,2078.846004784618,1
6.545172306737024,-6.133333333333338,19.622374003932524,-91.31440026729035,126.15055065444272,-125.74081002712563,69.41534317822978,18.14285714285714,10.159999999999997,-20.67441860465116,-15.239999999999997,-11.545454545454552,8.46666666666667,-14.76744186046512,-7.4705882352941195,13.308428381923594,22.004702108755225,10.766959881334296,165.85236165621995,39.02336920151874,2096.2525019943887,1
6.545172306737024,-6.133333333333338,19.622374003932524,-91.31440026729035,126.15055065444272,-125.74081002712563,69.41534317822978,-18.142857142857146,-15.240000000000006,-14.767441860465112,-5.0799999999999965,-4.618181818181824,-19.755555555555553,20.67441860465116,-7.4705882352941195,13.218630402125614,43.18541979720447,10.766959881334296,165.85236165621995,39.02336920151874,2096.2525019943887,1
6.545172306737024,-6.133333333333338,19.622374003932524,-91.31440026729035,126.15055065444272,-125.74081002712563,69.41534317822978,-42.333333333333336,-35.56,-20.67441860465116,-5.0799999999999965,-2.3090909090909153,-2.8222222222222193,-8.860465116279073,-22.411764705882355,17.506411861432383,236.02270343733397,10.766959881334296,165.85236165621995,39.02336920151874,2096.2525019943887,1
6.426886060229728,-6.466666666666671,19.72751733416123,-91.31440026729035,126.19448768955775,-126.04966794500046,69.27379957276865,-42.333333333333336,-35.56,-20.67441860465116,-5.0799999999999965,-2.3090909090909153,-2.8222222222222193,-8.860465116279073,-22.411764705882355,17.506411861432383,236.02270343733397,10.873690020352543,171.5476282792618,39.169528089372754,2083.2783109449215,1
6.426886060229728,-6.466666666666671,19.72751733416123,-91.31440026729035,126.19448768955775,-126.04966794500046,69.27379957276865,-30.23809523809524,-30.480000000000004,-14.767441860465112,-10.159999999999997,-9.236363636363642,25.400000000000006,-8.860465116279073,-7.4705882352941195,17.07661926081215,99.51089765452369,10.873690020352543,171.5476282792618,39.169528089372754,2083.2783109449215,1
6.426886060229728,-6.466666666666671,19.72751733416123,-91.31440026729035,126.19448768955775,-126.04966794500046,69.27379957276865,-54.42857142857143,-50.800000000000004,-20.67441860465116,-10.159999999999997,6.927272727272721,14.111111111111114,32.48837209302325,-7.4705882352941195,24.63254177499047,368.2977474409184,10.873690020352543,171.5476282792618,39.169528089372754,2083.2783109449215,1
5.638311083514422,-6.666666666666671,19.72751733416123,-91.27196792515872,126.17984201118608,-126.42980076700029,69.1322559673075,-54.42857142857143,-50.800000000000004,-20.67441860465116,-10.159999999999997,6.927272727272721,14.111111111111114,32.48837209302325,-7.4705882352941195,24.63254177499047,368.2977474409184,10.67749836144744,174.42852654587944,39.222050641995544,2074.541871927745,1
5.638311083514422,-6.666666666666671,19.72751733416123,-91.27196792515872,126.17984201118608,-126.42980076700029,69.1322559673075,-54.42857142857143,-30.480000000000004,-20.67441860465116,-25.4,-34.63636363636364,-19.755555555555553,-14.76744186046512,-7.4705882352941195,25.95161741511263,205.72092709357426,10.67749836144744,174.42852654587944,39.222050641995544,2074.541871927745,1
5.638311083514422,-6.666666666666671,19.72751733416123,-91.27196792515872,126.17984201118608,-126.42980076700029,69.1322559673075,-66.52380952380952,-60.96000000000001,-44.302325581395344,-5.0799999999999965,-6.217248937900877e-15,2.8222222222222264,2.9534883720930196,-22.411764705882355,25.63170130067531,770.4490888587503,10.67749836144744,174.42852654587944,39.222050641995544,2074.541871927745,1
4.6920211114560555,-5.200000000000005,19.964089827175822,-91.01737387236886,126.09196794095601,-126.80993358900011,69.1322559673075,-66.52380952380952,-60.96000000000001,-44.302325581395344,-5.0799999999999965,-6.217248937900877e-15,2.8222222222222264,2.9534883720930196,-22.411764705882355,25.63170130067531,770.4490888587503,9.95203697954396,160.71993022622215,38.7271545665149,2105.194863396957,1
4.6920211114560555,-5.200000000000005,19.964089827175822,-91.01737387236886,126.09196794095601,-126.80993358900011,69.1322559673075,-54.42857142857143,-35.56,-20.67441860465116,-10.159999999999997,2.3090909090909033,31.04444444444445,20.67441860465116,-22.411764705882355,24.657838587161432,256.05376509060204,9.95203697954396,160.71993022622215,38.7271545665149,2105.194863396957,1
4.6920211114560555,-5.200000000000005,19.964089827175822,-91.01737387236886,126.09196794095601,-126.80993358900011,69.1322559673075,-66.52380952380952,-40.64000000000001,-32.48837209302325,-15.239999999999997,-6.217248937900877e-15,42.33333333333334,2.9534883720930196,-7.4705882352941195,25.956198944694158,547.3755055455715,9.95203697954396,160.71993022622215,38.7271545665149,2105.194863396957,1
8.043464762496106,-6.5333333333333385,19.14922901790334,-91.18710324089545,126.16519633281439,-127.0,68.99071236184638,-66.52380952380952,-40.64000000000001,-32.48837209302325,-15.239999999999997,-6.217248937900877e-15,42.33333333333334,2.9534883720930196,-7.4705882352941195,25.956198944694158,547.3755055455715,11.242009037910927,165.9025085580696,38.95655519737738,2085.8128176756754,1
8.043464762496106,-6.5333333333333385,19.14922901790334,-91.18710324089545,126.16519633281439,-127.0,68.99071236184638,-42.333333333333336,-40.64000000000001,8.860465116279073,-5.0799999999999965,-2.3090909090909153,14.111111111111114,-8.860465116279073,-7.4705882352941195,16.208131727673454,255.0256526642392,11.242009037910927,165.9025085580696,38.95655519737738,2085.8128176756754,1
8.043464762496106,-6.5333333333333385,19.14922901790334,-91.18710324089545,126.16519633281439,-127.0,68.99071236184638,-127.0,-66.04,-62.02325581395348,-15.239999999999997,-34.63636363636364,-14.111111111111107,-2.9534883720930267,-22.411764705882355,43.051997954925454,1664.4912388589048,11.242009037910927,165.9025085580696,38.95655519737738,2085.8128176756754,1
11.670909655386513,-7.600000000000005,17.703508227258613,-91.65385900434347,126.3555901516462,-126.95248339725003,68.73121575183431,-127.0,-66.04,-62.02325581395348,-15.239999999999997,-34.63636363636364,-14.111111111111107,-2.9534883720930267,-22.411764705882355,43.051997954925454,1664.4912388589048,12.32480596088171,174.67128884706122,38.9857890772007,2105.9644120123717,1
11.670909655386513,-7.600000000000005,17.703508227258613,-91.65385900434347,126.3555901516462,-126.95248339725003,68.73121575183431,-6.047619047619051,5.079999999999995,26.581395348837212,5.080000000000004,-23.090909090909097,-8.466666666666665,-2.9534883720930267,7.470588235294116,10.596333345177396,80.84373445340553,12.32480596088171,174.67128884706122,38.9857890772007,2105.9644120123717,1
11.670909655386513,-7.600000000000005,17.703508227258613,-91.65385900434347,126.3555901516462,-126.95248339725003,68.73121575183431,-6.047619047619051,-25.400000000000006,-2.9534883720930196,55.88000000000001,18.472727272727266,-14.111111111111107,14.767441860465112,67.23529411764706,25.608460222707826,549.3875048223642,12.32480596088171,174.67128884706122,38.9857890772007,2105.9644120123717,1
16.244644520335285,-9.466666666666672,17.598364897029906,-93.01169395255596,126.85354321628321,-126.71490038350015,68.25940373363052,-6.047619047619051,-25.400000000000006,-2.9534883720930196,55.88000000000001,18.472727272727266,-14.111111111111107,14.767441860465112,67.23529411764706,25.608460222707826,549.3875048223642,14.436558694677288,232.57000255950373,40.02557517208418,2122.1777165911217,1
16.244644520335285,-9.466666666666672,17.598364897029906,-93.01169395255596,126.85354321628321,-126.71490038350015,68.25940373363052,-54.42857142857143,-40.64000000000001,-44.302325581395344,15.240000000000002,16.163636363636357,59.26666666666667,20.67441860465116,22.41176470588235,34.140922918850414,312.53305683054293,14.436558694677288,232.57000255950373,40.02557517208418,2122.1777165911217,1
16.244644520335285,-9.466666666666672,17.598364897029906,-93.01169395255596,126.85354321628321,-126.71490038350015,68.25940373363052,127.0,81.28,20.674418604651166,-15.239999999999997,-4.618181818181824,81.84444444444446,32.48837209302325,97.11764705882354,57.532883002390534,2017.4341361898255,14.436558694677288,232.57000255950373,40.02557517208418,2122.1777165911217,1
8.75318224153988,-6.800000000000004,18.176653213287796,-93.01169395255596,127.0,-126.57235057525023,67.81118231633694,127.0,81.28,20.674418604651166,-15.239999999999997,-4.618181818181824,81.84444444444446,32.48837209302325,97.11764705882354,57.532883002390534,2017.4341361898255,11.243278484942559,159.08941478846117,39.32944905528125,2193.6946224920853,1
8.75318224153988,-6.800000000000004,18.176653213287796,-93.01169395255596,127.0,-126.57235057525023,67.81118231633694,-54.42857142857143,-25.400000000000006,-44.302325581395344,15.240000000000002,-6.217248937900877e-15,8.46666666666667,-20.674418604651166,-52.294117647058826,27.60076249104293,420.2795840783686,11.243278484942559,159.08941478846117,39.32944905528125,2193.6946224920853,1
8.75318224153988,-6.800000000000004,18.176653213287796,-93.01169395255596,127.0,-126.57235057525023,67.81118231633694,-78.61904761904762,-40.64000000000001,2.9534883720930267,5.080000000000004,-11.545454545454552,53.62222222222223,14.767441860465112,-67.23529411764706,34.3078685921162,885.451044902589,11.243278484942559,159.08941478846117,39.32944905528125,2193.6946224920853,1
-3.7063023905619517,5.199999999999995,21.804098106178206,-91.10223855663219,126.42881854350458,-126.73865868487513,68.02349772452864,-78.61904761904762,-40.64000000000001,2.9534883720930267,5.080000000000004,-11.545454545454552,53.62222222222223,14.767441860465112,-67.23529411764706,34.3078685921162,885.451044902589,10.236800165580052,167.63313828263347,39.36877888760346,2076.1871554751638,1
-3.7063023905619517,5.199999999999995,21.804098106178206,-91.10223855663219,126.42881854350458,-126.73865868487513,68.02349772452864,6.047619047619044,15.239999999999995,-73.83720930232558,5.080000000000004,4.618181818181812,14.111111111111114,73.83720930232558,-22.411764705882355,26.897886910930687,876.1817637711437,10.236800165580052,167.63313828263347,39.36877888760346,2076.1871554751638,1
-3.7063023905619517,5.199999999999995,21.804098106178206,-91.10223855663219,126.42881854350458,-126.73865868487513,68.02349772452864,-78.61904761904762,-45.720000000000006,-67.93023255813952,-55.879999999999995,-6.927272727272733,19.75555555555556,-38.395348837209305,-37.352941176470594,43.82254980921192,564.6787256132345,10.236800165580052,167.63313828263347,39.36877888760346,2076.1871554751638,1
-5.677739832350216,14.86666666666666,23.93325054330953,-88.51386568660212,125.55007784120394,-126.66738378075017,68.80198755456486,-78.61904761904762,-45.720000000000006,-67.93023255813952,-55.879999999999995,-6.927272727272733,19.75555555555556,-38.395348837209305,-37.352941176470594,43.82254980921192,564.6787256132345,14.82588568077547,230.18105543607692,42.43792763219277,1612.7947864933756,1
-5.677739832350216,14.86666666666666,23.93325054330953,-88.51386568660212,125.55007784120394,-126.66738378075017,68.80198755456486,-90.71428571428572,-30.480000000000004,2.9534883720930267,-60.959999999999994,-4.618181818181824,36.6888888888889,85.65116279069767,-37.352941176470594,43.67736859507722,1102.8603686048195,14.82588568077547,230.18105543607692,42.43792763219277,1612.7947864933756,1
-5.677739832350216,14.86666666666666,23.93325054330953,-88.51386568660212,125.55007784120394,-126.66738378075017,68.80198755456486,-18.142857142857146,-7.105427357601002e-15,-26.581395348837205,-76.2,-16.16363636363637,-25.4,-44.30232558139535,-37.352941176470594,30.517894451649582,522.2571709785441,14.82588568077547,230.18105543607692,42.43792763219277,1612.7947864933756,1
-13.050915864638323,16.66666666666666,23.144675566594223,-84.18576678917475,124.11480136077958,-126.76241698625012,69.86356459552336,-18.142857142857146,-7.105427357601002e-15,-26.581395348837205,-76.2,-16.16363636363637,-25.4,-44.30232558139535,-37.352941176470594,30.517894451649582,522.2571709785441,17.620752699299736,372.5366916448631,41.33236967414521,1387.8013830507016,1
-13.050915864638323,16.66666666666666,23.144675566594223,-84.18576678917475,124.11480136077958,-126.76241698625012,69.86356459552336,-127.0,-91.44000000000001,-73.83720930232558,-71.12,-69.27272727272728,-59.266666666666666,8.860465116279066,-52.294117647058826,69.13639825063217,1126.5657253051381,17.620752699299736,372.5366916448631,41.33236967414521,1387.8013830507016,1
-13.050915864638323,16.66666666666666,23.144675566594223,-84.18576678917475,124.11480136077958,-126.76241698625012,69.86356459552336,54.428571428571416,-25.400000000000006,62.02325581395348,5.080000000000004,-57.727272727272734,-59.266666666666666,-20.674418604651166,67.23529411764706,43.97943491984532,542.8266623714991,17.620752699299736,372.5366916448631,41.33236967414521,1387.8013830507016,1
-4.297733623098431,21.66666666666666,16.57321742730001,-80.28199131306383,122.88456437755866,-125.62201852025069,70.80718863193088,54.428571428571416,-25.400000000000006,62.02325581395348,5.080000000000004,-57.727272727272734,-59.266666666666666,-20.674418604651166,67.23529411764706,43.97943491984532,542.8266623714991,14.179205905688368,189.281650884881,39.507291802343495,1253.4178964306536,1
-4.297733623098431,21.66666666666666,16.57321742730001,-80.28199131306383,122.88456437755866,-125.62201852025069,70.80718863193088,66.52380952380952,76.19999999999999,127.0,60.96000000000001,57.72727272727272,81.84444444444446,-50.209302325581405,52.294117647058826,71.59486833352086,622.4253347801889,14.179205905688368,189.281650884881,39.507291802343495,1253.4178964306536,1
-4.297733623098431,21.66666666666666,16.57321742730001,-80.28199131306383,122.88456437755866,-125.62201852025069,70.80718863193088,-42.333333333333336,-45.720000000000006,-32.48837209302325,10.160000000000004,41.563636363636355,47.97777777777779,-97.46511627906978,-67.23529411764706,48.11794124556095,652.5565670453316,14.179205905688368,189.281650884881,39.507291802343495,1253.4178964306536,1
6.702887302080085,29.999999999999993,9.134326813618959,-77.60875375877049,122.07905206711641,-123.05612197175195,71.6328596637875,-42.333333333333336,-45.720000000000006,-32.48837209302325,10.160000000000004,41.563636363636355,47.97777777777779,-97.46511627906978,-67.23529411764706,48.11794124556095,652.5565670453316,15.279071371899681,164.00727927978568,38.91436019079648,1231.7861495751663,1
6.702887302080085,29.999999999999993,9.134326813618959,-77.60875375877049,122.07905206711641,-123.05612197175195,71.6328596637875,-54.42857142857143,-86.36000000000001,-73.83720930232558,-127.0,-92.36363636363637,-115.71111111111111,8.860465116279066,-52.294117647058826,76.3568888711228,1441.6773971625348,15.279071371899681,164.00727927978568,38.91436019079648,1231.7861495751663,1
6.702887302080085,29.999999999999993,9.134326813618959,-77.60875375877049,122.07905206711641,-123.05612197175195,71.6328596637875,-30.23809523809524,5.079999999999995,14.76744186046512,3.552713678800501e-15,23.090909090909086,93.13333333333334,8.860465116279066,67.23529411764706,30.300692344591113,1088.4672811176495,15.279071371899681,164.00727927978568,38.91436019079648,1231.7861495751663,1
14.746352064576204,49.599999999999994,3.43030114871158,-74.76578683595056,121.25889407830249,-118.47076980637921,72.67084610383579,-30.23809523809524,5.079999999999995,14.76744186046512,3.552713678800501e-15,23.090909090909086,93.13333333333334,8.860465116279066,67.23529411764706,30.300692344591113,1088.4672811176495,22.592217737762592,579.078479125929,42.59869599488738,1308.951572887574,1
14.746352064576204,49.599999999999994,3.43030114871158,-74.76578683595056,121.25889407830249,-118.47076980637921,72.67084610383579,-66.52380952380952,-25.400000000000006,-8.860465116279066,15.240000000000002,43.87272727272727,127.00000000000001,20.67441860465116,-7.4705882352941195,39.380251094095144,1644.566676761972,22.592217737762592,579.078479125929,42.59869599488738,1308.951572887574,1
14.746352064576204,49.599999999999994,3.43030114871158,-74.76578683595056,121.25889407830249,-118.47076980637921,72.67084610383579,6.047619047619044,-30.480000000000004,-14.767441860465112,-5.0799999999999965,-53.10909090909092,-70.55555555555556,2.9534883720930196,67.23529411764706,31.278561232808837,815.8100740692186,22.592217737762592,579.078479125929,42.59869599488738,1308.951572887574,1
8.713753492704114,52.06666666666666,-3.4303011487115818,-69.58904109589042,120.0286570950816,-112.792535777757,72.90675211293767,6.047619047619044,-30.480000000000004,-14.767441860465112,-5.0799999999999965,-53.10909090909092,-70.55555555555556,2.9534883720930196,67.23529411764706,31.278561232808837,815.8100740692186,21.403573769360786,851.1444300839926,41.69533630375622,1174.9180879720805,1
8.713753492704114,52.06666666666666,-3.4303011487115818,-69.58904109589042,120.0286570950816,-112.792535777757,72.90675211293767,30.238095238095234,15.239999999999995,103.37209302325581,30.480000000000004,2.3090909090909033,87.4888888888889,-2.9534883720930267,112.05882352941177,48.01755999510445,2077.3531543954077,21.403573769360786,851.1444300839926,41.69533630375622,1174.9180879720805,1
8.713753492704114,52.06666666666666,-3.4303011487115818,-69.58904109589042,120.0286570950816,-112.792535777757,72.90675211293767,-54.42857142857143,-40.64000000000001,-26.581395348837205,-10.159999999999997,41.563636363636355,115.71111111111112,2.9534883720930196,-7.4705882352941195,37.43859885744291,1341.687939379998,21.403573769360786,851.1444300839926,41.69533630375622,1174.9180879720805,1
13.208630859981358,61.599999999999994,-14.365207492497156,-63.94553959238226,118.9302312172058,-105.04732952951082,72.17544348472184,-54.42857142857143,-40.64000000000001,-26.581395348837205,-10.159999999999997,41.563636363636355,115.71111111111112,2.9534883720930196,-7.4705882352941195,37.43859885744291,1341.687939379998,29.7246127841595,1478.7923196853847,46.636915694959804,782.4727517235294,1
13.208630859981358,61.599999999999994,-14.365207492497156,-63.94553959238226,118.9302312172058,-105.04732952951082,72.17544348472184,-42.333333333333336,-50.800000000000004,-32.48837209302325,-81.28,-48.4909090909091,-31.044444444444444,-2.9534883720930267,7.470588235294116,37.107641946137164,628.3608119166446,29.7246127841595,1478.7923196853847,46.636915694959804,782.4727517235294,1
13.208630859981358,61.599999999999994,-14.365207492497156,-63.94553959238226,118.9302312172058,-105.04732952951082,72.17544348472184,-90.71428571428572,-50.800000000000004,8.860465116279073,101.60000000000001,18.472727272727266,14.111111111111114,-8.860465116279073,-22.411764705882355,39.478852379570576,1409.0444774368254,29.7246127841595,1478.7923196853847,46.636915694959804,782.4727517235294,1
-2.6417261719962877,63.266666666666666,-27.45555210597123,-57.113932509188146,117.55353745026812,-97.30212328126463,70.59487322373919,-90.71428571428572,-50.800000000000004,8.860465116279073,101.60000000000001,18.472727272727266,14.111111111111114,-8.860465116279073,-22.411764705882355,39.478852379570576,1409.0444774368254,31.121314981544725,2198.360530514583,49.278717093942014,366.65193197229615,1
-2.6417261719962877,63.266666666666666,-27.45555210597123,-57.113932509188146,117.55353745026812,-97.30212328126463,70.59487322373919,-54.42857142857143,-66.04,-79.74418604651163,-60.959999999999994,-20.78181818181819,-2.8222222222222193,-8.860465116279073,-37.352941176470594,41.373775521484134,802.6131929402719,31.121314981544725,2198.360530514583,49.278717093942014,366.65193197229615,1
-2.6417261719962877,63.266666666666666,-27.45555210597123,-57.113932509188146,117.55353745026812,-97.30212328126463,70.59487322373919,-18.142857142857146,15.239999999999995,-14.767441860465112,-81.28,-13.85454545454546,-8.466666666666665,-8.860465116279073,-7.4705882352941195,21.010320559513445,607.4883498792652,31.121314981544725,2198.360530514583,49.278717093942014,366.65193197229615,1
-23.06581806892271,68.8,-36.07730518472524,-46.84530571333113,115.15164619731303,-89.08175100551867,68.30658493545091,-18.142857142857146,15.239999999999995,-14.767441860465112,-81.28,-13.85454545454546,-8.466666666666665,-8.860465116279073,-7.4705882352941195,21.010320559513445,607.4883498792652,42.64770775121598,3267.979411541183,50.57420363268545,278.1221987631261,1
-23.06581806892271,68.8,-36.07730518472524,-46.84530571333113,115.15164619731303,-89.08175100551867,68.30658493545091,-54.42857142857143,-35.56,-32.48837209302325,-15.239999999999997,-13.85454545454546,25.400000000000006,2.9534883720930196,22.41176470588235,25.29209275676444,249.33342591765907,42.64770775121598,3267.979411541183,50.57420363268545,278.1221987631261,1
-23.06581806892271,68.8,-36.07730518472524,-46.84530571333113,115.15164619731303,-89.08175100551867,68.30658493545091,-90.71428571428572,-45.720000000000006,-32.48837209302325,-45.72,-20.78181818181819,2.8222222222222264,2.9534883720930196,-67.23529411764706,38.554435087636186,934.6876869083036,42.64770775121598,3267.979411541183,50.57420363268545,278.1221987631261,1
-39.5470350822726,74.19999999999999,-40.467039221773774,-34.412629468760485,111.90030559880066,-80.71882892152279,65.68802823441997,-90.71428571428572,-45.720000000000006,-32.48837209302325,-45.72,-20.78181818181819,2.8222222222222264,2.9534883720930196,-67.23529411764706,38.554435087636186,934.6876869083036,51.40469143468212,4347.960713585377,49.69322289684475,459.6005623521461,1
-39.5470350822726,74.19999999999999,-40.467039221773774,-34.412629468760485,111.90030559880066,-80.71882892152279,65.68802823441997,-42.333333333333336,5.079999999999995,2.9534883720930267,-15.239999999999997,2.3090909090909033,31.04444444444445,103.37209302325581,37.35294117647059,29.960673907336012,1132.5548027219384,51.40469143468212,4347.960713585377,49.69322289684475,459.6005623521461,1
-39.5470350822726,74.19999999999999,-40.467039221773774,-34.412629468760485,111.90030559880066,-80.71882892152279,65.68802823441997,-78.61904761904762,-20.320000000000007,-26.581395348837205,-76.2,-39.25454545454546,-25.4,-38.395348837209305,-52.294117647058826,44.6330568633373,509.2780570212068,51.40469143468212,4347.960713585377,49.69322289684475,459.6005623521461,1
-60.207699472213605,84.19999999999999,-45.11963158439408,-19.434012696291347,107.47731073055411,-72.18959872790198,62.880746726107546,-78.61904761904762,-20.320000000000007,-26.581395348837205,-76.2,-39.25454545454546,-25.4,-38.395348837209305,-52.294117647058826,44.6330568633373,509.2780570212068,63.17577701886923,6300.800095428004,49.58454809356181,1063.6098874314162,1
-60.207699472213605,84.19999999999999,-45.11963158439408,-19.434012696291347,107.47731073055411,-72.18959872790198,62.880746726107546,42.33333333333333,-25.400000000000006,-44.302325581395344,20.320000000000004,23.090909090909086,42.33333333333334,32.48837209302325,67.23529411764706,37.187945943705174,235.81475214750532,63.17577701886923,6300.800095428004,49.58454809356181,1063.6098874314162,1
-60.207699472213605,84.19999999999999,-45.11963158439408,-19.434012696291347,107.47731073055411,-72.18959872790198,62.880746726107546,-54.42857142857143,-45.720000000000006,-20.67441860465116,-10.159999999999997,9.236363636363631,53.62222222222223,8.860465116279066,97.11764705882354,37.47746100836388,973.9946635599293,63.17577701886923,6300.800095428004,49.58454809356181,1063.6098874314162,1
-80.00093138776779,89.6,-57.1322570630239,-1.9943200801871512,101.9265986276884,-62.97137779440652,59.03547877774682,-54.42857142857143,-45.720000000000006,-20.67441860465116,-10.159999999999997,9.236363636363631,53.62222222222223,8.860465116279066,97.11764705882354,37.47746100836388,973.9946635599293,75.57772948359722,8469.63457596314,49.57552571440368,1961.5169300595894,1
-80.00093138776779,89.6,-57.1322570630239,-1.9943200801871512,101.9265986276884,-62.97137779440652,59.03547877774682,-90.71428571428572,-55.88000000000001,-50.20930232558139,-35.559999999999995,-6.927272727272733,-19.755555555555553,-38.395348837209305,-67.23529411764706,45.58463240969397,706.6472353462106,75.57772948359722,8469.63457596314,49.57552571440368,1961.5169300595894,1
-80.00093138776779,89.6,-57.1322570630239,-1.9943200801871512,101.9265986276884,-62.97137779440652,59.03547877774682,-18.142857142857146,-35.56,-32.48837209302325,-30.479999999999997,-13.85454545454546,14.111111111111114,20.67441860465116,-22.411764705882355,23.46538363900881,70.57120290976077,75.57772948359722,8469.63457596314,49.57552571440368,1961.5169300595894,1
-94.51071095932942,92.13333333333333,-76.03177067163406,17.482124958235886,95.32139768206193,-52.58900009353663,53.32655335748119,-18.142857142857146,-35.56,-32.48837209302325,-30.479999999999997,-13.85454545454546,14.111111111111114,20.67441860465116,-22.411764705882355,23.46538363900881,70.57120290976077,87.55860498809893,10576.162118179858,61.882409654401094,1543.3540408625486,1
-94.51071095932942,92.13333333333333,-76.03177067163406,17.482124958235886,95.32139768206193,-52.58900009353663,53.32655335748119,-78.61904761904762,-35.56,-32.48837209302325,5.080000000000004,4.618181818181812,14.111111111111114,50.20930232558139,-37.352941176470594,32.25486951792698,620.0604890690381,87.55860498809893,10576.162118179858,61.882409654401094,1543.3540408625486,1
-94.51071095932942,92.13333333333333,-76.03177067163406,17.482124958235886,95.32139768206193,-52.58900009353663,53.32655335748119,-30.23809523809524,-35.56,-26.581395348837205,-10.159999999999997,-4.618181818181824,8.46666666666667,-8.860465116279073,-22.411764705882355,18.362071111742797,137.87628932522426,87.55860498809893,10576.162118179858,61.882409654401094,1543.3540408625486,1
-95.33871468488049,97.26666666666667,-95.641001759288,36.95856999665881,88.101078244825,-40.377233186792644,45.42370205256803,-30.23809523809524,-35.56,-26.581395348837205,-10.159999999999997,-4.618181818181824,8.46666666666667,-8.860465116279073,-22.411764705882355,18.362071111742797,137.87628932522426,96.08212770361172,12385.04880676472,76.62207947420448,1180.5561846542878,1
-95.33871468488049,97.26666666666667,-95.641001759288,36.95856999665881,88.101078244825,-40.377233186792644,45.42370205256803,-54.42857142857143,-30.480000000000004,-20.67441860465116,-10.159999999999997,-6.217248937900877e-15,19.75555555555556,32.48837209302325,-22.411764705882355,23.79983529846047,262.68045490284237,96.08212770361172,12385.04880676472,76.62207947420448,1180.5561846542878,1
-95.33871468488049,97.26666666666667,-95.641001759288,36.95856999665881,88.101078244825,-40.377233186792644,45.42370205256803,-90.71428571428572,-40.64000000000001,-14.767441860465112,-10.159999999999997,-4.618181818181824,8.46666666666667,2.9534883720930196,-82.1764705882353,31.812066877490956,1280.0915484664347,96.08212770361172,12385.04880676472,76.62207947420448,1180.5561846542878,1
-99.16330332194971,110.93333333333332,-104.8410431542999,55.37420648179085,80.07524649714583,-27.001309512674226,36.69517971579826,-90.71428571428572,-40.64000000000001,-14.767441860465112,-10.159999999999997,-4.618181818181824,8.46666666666667,2.9534883720930196,-82.1764705882353,31.812066877490956,1280.0915484664347,104.9792266031943,15121.90250201546,90.38286098980802,928.4834177526701,1
-99.16330332194971,110.93333333333332,-104.8410431542999,55.37420648179085,80.07524649714583,-27.001309512674226,36.69517971579826,-54.42857142857143,-30.480000000000004,-20.67441860465116,-15.239999999999997,-30.018181818181823,-8.466666666666665,-44.30232558139535,-7.4705882352941195,26.38509404184507,281.8692708906459,104.9792266031943,15121.90250201546,90.38286098980802,928.4834177526701,1
-99.16330332194971,110.93333333333332,-104.8410431542999,55.37420648179085,80.07524649714583,-27.001309512674226,36.69517971579826,-42.333333333333336,-35.56,-44.302325581395344,-25.4,-13.85454545454546,8.46666666666667,2.9534883720930196,7.470588235294116,22.542618455415994,275.3270349658983,104.9792266031943,15121.90250201546,90.38286098980802,928.4834177526701,1
-108.31077305184726,122.06666666666666,-109.86163717272068,72.77146675576347,70.99492590670587,-13.150219811056047,27.589207764465485,-42.333333333333336,-35.56,-44.302325581395344,-25.4,-13.85454545454546,8.46666666666667,2.9534883720930196,7.470588235294116,22.542618455415994,275.3270349658983,113.41302563041154,17811.15133876568,101.56659019838361,659.1100367938216,1
-108.31077305184726,122.06666666666666,-109.86163717272068,72.77146675576347,70.99492590670587,-13.150219811056047,27.589207764465485,-54.42857142857143,-15.240000000000006,-2.9534883720930196,10.160000000000004,11.54545454545454,31.04444444444445,67.93023255813952,37.35294117647059,28.831891565646693,537.609381822095,113.41302563041154,17811.15133876568,101.56659019838361,659.1100367938216,1
-108.31077305184726,122.06666666666666,-109.86163717272068,72.77146675576347,70.99492590670587,-13.150219811056047,27.589207764465485,-30.23809523809524,-25.400000000000006,2.9534883720930267,-10.159999999999997,-2.3090909090909153,36.6888888888889,-2.9534883720930267,-22.411764705882355,16.639352060767933,188.41765152833636,113.41302563041154,17811.15133876568,101.56659019838361,659.1100367938216,1
-116.23595156783608,118.86666666666666,-119.19310773051848,89.3200801871032,60.830825116761815,0.6771115891871489,17.114980960341782,-30.23809523809524,-25.400000000000006,2.9534883720930267,-10.159999999999997,-2.3090909090909153,36.6888888888889,-2.9534883720930267,-22.411764705882355,16.639352060767933,188.41765152833636,118.09857532167375,18659.073676554588,109.12661819476278,294.25085182868975,1
-116.23595156783608,118.86666666666666,-119.19310773051848,89.3200801871032,60.830825116761815,0.6771115891871489,17.114980960341782,-6.047619047619051,-30.480000000000004,-20.67441860465116,5.080000000000004,-6.927272727272733,14.111111111111114,8.860465116279066,7.470588235294116,12.456434355278406,79.85258869897758,118.09857532167375,18659.073676554588,109.12661819476278,294.25085182868975,1
-116.23595156783608,118.86666666666666,-119.19310773051848,89.3200801871032,60.830825116761815,0.6771115891871489,17.114980960341782,-30.23809523809524,-15.240000000000006,-32.48837209302325,-15.239999999999997,-4.618181818181824,14.111111111111114,-2.9534883720930267,-7.4705882352941195,15.294979608474822,121.12065104783963,118.09857532167375,18659.073676554588,109.12661819476278,294.25085182868975,1
-109.1782055262341,122.6,-125.39656421401222,103.02572669562306,50.32987372426916,14.742026003180229,5.508405312529021,-30.23809523809524,-15.240000000000006,-32.48837209302325,-15.239999999999997,-4.618181818181824,14.111111111111114,-2.9534883720930267,-7.4705882352941195,15.294979608474822,121.12065104783963,119.05825658008212,19247.74459624022,117.00743030321176,148.5712196786175,1
-109.1782055262341,122.6,-125.39656421401222,103.02572669562306,50.32987372426916,14.742026003180229,5.508405312529021,-66.52380952380952,-45.720000000000006,-26.581395348837205,-20.319999999999997,-4.618181818181824,8.46666666666667,-20.674418604651166,-37.352941176470594,28.782176642327123,417.65498871625067,119.05825658008212,19247.74459624022,117.00743030321176,148.5712196786175,1
-109.1782055262341,122.6,-125.39656421401222,103.02572669562306,50.32987372426916,14.742026003180229,5.508405312529021,-30.23809523809524,-25.400000000000006,-8.860465116279066,20.320000000000004,9.236363636363631,8.46666666666667,32.48837209302325,-7.4705882352941195,17.81006887321525,111.66044100845474,119.05825658008212,19247.74459624022,117.00743030321176,148.5712196786175,1
-87.49239366656319,126.99999999999999,-127.0,112.36084196458404,40.47333218013031,29.115798335048154,-7.13615677533204,-30.23809523809524,-25.400000000000006,-8.860465116279066,20.320000000000004,9.236363636363631,8.46666666666667,32.48837209302325,-7.4705882352941195,17.81006887321525,111.66044100845474,113.8307978888544,18680.639649834957,122.12028065486135,71.43498266196116,1
-87.49239366656319,126.99999999999999,-127.0,112.36084196458404,40.47333218013031,29.115798335048154,-7.13615677533204,-6.047619047619051,-10.160000000000005,-2.9534883720930196,10.160000000000004,-6.217248937900877e-15,36.6888888888889,67.93023255813952,22.41176470588235,19.543999196577857,522.6975733540735,113.8307978888544,18680.639649834957,122.12028065486135,71.43498266196116,1
-87.49239366656319,126.99999999999999,-127.0,112.36084196458404,40.47333218013031,29.115798335048154,-7.13615677533204,-54.42857142857143,-35.56,-32.48837209302325,-20.319999999999997,-9.236363636363642,14.111111111111114,-2.9534883720930267,7.470588235294116,22.071061859557076,306.75602690019184,113.8307978888544,18680.639649834957,122.12028065486135,71.43498266196116,1
-77.39863396460728,123.0,-124.97599089309739,118.51353157367186,30.865767168309986,42.80057992704141,-20.181759078666303,-54.42857142857143,-35.56,-32.48837209302325,-20.319999999999997,-9.236363636363642,14.111111111111114,-2.9534883720930267,7.470588235294116,22.071061859557076,306.75602690019184,108.45820828590156,17319.218241099185,122.16317415558974,10.966053234212183,1
-77.39863396460728,123.0,-124.97599089309739,118.51353157367186,30.865767168309986,42.80057992704141,-20.181759078666303,-42.333333333333336,-45.720000000000006,-26.581395348837205,-25.4,-6.927272727272733,25.400000000000006,8.860465116279066,-7.4705882352941195,23.58663184512706,230.1415876454187,108.45820828590156,17319.218241099185,122.16317415558974,10.966053234212183,1
-77.39863396460728,123.0,-124.97599089309739,118.51353157367186,30.865767168309986,42.80057992704141,-20.181759078666303,6.047619047619044,-30.480000000000004,-20.67441860465116,3.552713678800501e-15,-13.85454545454546,25.400000000000006,56.11627906976744,112.05882352941177,33.07896071324936,1311.8028118599782,108.45820828590156,17319.218241099185,122.16317415558974,10.966053234212183,1
-84.57466625271655,115.46666666666665,-122.82055262340887,123.05379218175739,20.540563916277463,55.297446450285264,-33.01504597380887,6.047619047619044,-30.480000000000004,-20.67441860465116,3.552713678800501e-15,-13.85454545454546,25.400000000000006,56.11627906976744,112.05882352941177,33.07896071324936,1311.8028118599782,107.62062851426401,16376.680262906662,120.44700382394429,18.616418823014975,1
-84.57466625271655,115.46666666666665,-122.82055262340887,123.05379218175739,20.540563916277463,55.297446450285264,-33.01504597380887,-42.333333333333336,-20.320000000000007,-20.67441860465116,-10.159999999999997,-13.85454545454546,14.111111111111114,-32.48837209302326,52.294117647058826,25.779487280465396,228.60798978334176,107.62062851426401,16376.680262906662,120.44700382394429,18.616418823014975,1
-84.57466625271655,115.46666666666665,-122.82055262340887,123.05379218175739,20.540563916277463,55.297446450285264,-33.01504597380887,-102.80952380952381,-60.96000000000001,-50.20930232558139,-45.72,-11.545454545454552,36.6888888888889,8.860465116279066,-37.352941176470594,44.26832198277479,881.8371031099666,107.62062851426401,16376.680262906662,120.44700382394429,18.616418823014975,1
-92.9335610058988,110.66666666666666,-123.08341094898063,125.85432676244574,9.3366199619443,67.01028902815452,-45.87192346986162,-102.80952380952381,-60.96000000000001,-50.20930232558139,-45.72,-11.545454545454552,36.6888888888889,8.860465116279066,-37.352941176470594,44.26832198277479,881.8371031099666,108.89454620718202,16166.860824205329,119.86813479269767,65.41975536710132,1
-92.9335610058988,110.66666666666666,-123.08341094898063,125.85432676244574,9.3366199619443,67.01028902815452,-45.87192346986162,-42.333333333333336,-30.480000000000004,-26.581395348837205,-10.159999999999997,-6.217248937900877e-15,14.111111111111114,32.48837209302325,-37.352941176470594,24.188394132846938,214.31005665321,108.89454620718202,16166.860824205329,119.86813479269767,65.41975536710132,1
-92.9335610058988,110.66666666666666,-123.08341094898063,125.85432676244574,9.3366199619443,67.01028902815452,-45.87192346986162,-54.42857142857143,-30.480000000000004,-26.581395348837205,-15.239999999999997,2.3090909090909033,19.75555555555556,8.860465116279066,-22.411764705882355,22.508355383027066,250.5326265001228,108.89454620718202,16166.860824205329,119.86813479269767,65.41975536710132,1
-98.8478733312636,96.8,-122.55769429783712,126.99999999999994,-2.5117338407426573,77.34515012627443,-58.799572768644936,-54.42857142857143,-30.480000000000004,-26.581395348837205,-15.239999999999997,2.3090909090909033,19.75555555555556,8.860465116279066,-22.411764705882355,22.508355383027066,250.5326265001228,106.06852254303358,14493.007332829417,115.45256476594568,265.872149248716,1
-98.8478733312636,96.8,-122.55769429783712,126.99999999999994,-2.5117338407426573,77.34515012627443,-58.799572768644936,-42.333333333333336,-40.64000000000001,-20.67441860465116,-15.239999999999997,-6.217248937900877e-15,25.400000000000006,8.860465116279066,7.470588235294116,20.07735066119471,236.8696214041379,106.06852254303358,14493.007332829417,115.45256476594568,265.872149248716,1
-98.8478733312636,96.8,-122.55769429783712,126.99999999999994,-2.5117338407426573,77.34515012627443,-58.799572768644936,-30.23809523809524,-40.64000000000001,-26.581395348837205,-40.64,-30.018181818181823,-42.333333333333336,-8.860465116279073,-52.294117647058826,33.95069856272319,172.75966464084405,106.06852254303358,14493.007332829417,115.45256476594568,265.872149248716,1
-100.50388078236574,75.73333333333333,-118.06281693055985,126.70297360507851,-14.535835783889752,85.7080722102703,-71.39695365468562,-30.23809523809524,-40.64000000000001,-26.581395348837205,-40.64,-30.018181818181823,-42.333333333333336,-8.860465116279073,-52.294117647058826,33.95069856272319,172.75966464084405,98.10001034875297,11487.46995583743,106.83304128965723,744.0569530665343,1
-100.50388078236574,75.73333333333333,-118.06281693055985,126.70297360507851,-14.535835783889752,85.7080722102703,-71.39695365468562,-66.52380952380952,-35.56,-20.67441860465116,3.552713678800501e-15,-2.3090909090909153,14.111111111111114,-38.395348837209305,-67.23529411764706,30.601134137939887,689.3100112869976,98.10001034875297,11487.46995583743,106.83304128965723,744.0569530665343,1
-100.50388078236574,75.73333333333333,-118.06281693055985,126.70297360507851,-14.535835783889752,85.7080722102703,-71.39695365468562,-18.142857142857146,-10.160000000000005,-2.9534883720930196,-5.0799999999999965,-6.927272727272733,19.75555555555556,2.9534883720930196,7.470588235294116,9.1804063006457,42.21162071468451,98.10001034875297,11487.46995583743,106.83304128965723,744.0569530665343,1
-100.26730828935115,58.86666666666666,-110.9656421401221,125.04811226194448,-26.44277230006342,92.26536338976709,-83.21584471069008,-18.142857142857146,-10.160000000000005,-2.9534883720930196,-5.0799999999999965,-6.927272727272733,19.75555555555556,2.9534883720930196,7.470588235294116,9.1804063006457,42.21162071468451,90.0332056987133,9046.848241188254,98.29347368957775,1215.4338251994084,1
-100.26730828935115,58.86666666666666,-110.9656421401221,125.04811226194448,-26.44277230006342,92.26536338976709,-83.21584471069008,-18.142857142857146,-20.320000000000007,-14.767441860465112,-15.239999999999997,-6.217248937900877e-15,25.400000000000006,8.860465116279066,22.41176470588235,15.64281610318546,65.82486837319219,90.0332056987133,9046.848241188254,98.29347368957775,1215.4338251994084,1
-100.26730828935115,58.86666666666666,-110.9656421401221,125.04811226194448,-26.44277230006342,92.26536338976709,-83.21584471069008,-42.333333333333336,-20.320000000000007,-20.67441860465116,-5.0799999999999965,-6.217248937900877e-15,25.400000000000006,-2.9534883720930267,-7.4705882352941195,15.528978568171457,205.535839275862,90.0332056987133,9046.848241188254,98.29347368957775,1215.4338251994084,1
-104.48618441477804,51.133333333333326,-105.05132981475731,121.8232542599398,-38.5401026350689,97.63473950051443,-94.091111730287,-42.333333333333336,-20.320000000000007,-20.67441860465116,-5.0799999999999965,-6.217248937900877e-15,25.400000000000006,-2.9534883720930267,-7.4705882352941195,15.528978568171457,205.535839275862,86.89028252095623,8101.900449360068,92.66930580267682,1364.2521191292726,1
-104.48618441477804,51.133333333333326,-105.05132981475731,121.8232542599398,-38.5401026350689,97.63473950051443,-94.091111730287,-42.333333333333336,-35.56,-26.581395348837205,-25.4,-4.618181818181824,8.46666666666667,-14.76744186046512,-7.4705882352941195,20.649700907847283,194.85331208109514,86.89028252095623,8101.900449360068,92.66930580267682,1364.2521191292726,1
-104.48618441477804,51.133333333333326,-105.05132981475731,121.8232542599398,-38.5401026350689,97.63473950051443,-94.091111730287,6.047619047619044,-10.160000000000005,8.860465116279073,10.160000000000004,9.236363636363631,25.400000000000006,20.67441860465116,7.470588235294116,12.25118183002588,47.787539258267806,86.89028252095623,8101.900449360068,92.66930580267682,1364.2521191292726,1
-112.64793542378145,44.33333333333333,-100.24102245679396,116.98596725693284,-51.06215764285302,102.05378355626226,-103.92839230983562,6.047619047619044,-10.160000000000005,8.860465116279073,10.160000000000004,9.236363636363631,25.400000000000006,20.67441860465116,7.470588235294116,12.25118183002588,47.787539258267806,85.74076373796959,7616.4657636823695,87.18677434902004,1447.4113492536299,1
-112.64793542378145,44.33333333333333,-100.24102245679396,116.98596725693284,-51.06215764285302,102.05378355626226,-103.92839230983562,-18.142857142857146,-25.400000000000006,-8.860465116279066,-5.0799999999999965,4.618181818181812,19.75555555555556,-38.395348837209305,-22.411764705882355,17.833021646995654,131.80054386606386,85.74076373796959,7616.4657636823695,87.18677434902004,1447.4113492536299,1
-112.64793542378145,44.33333333333333,-100.24102245679396,116.98596725693284,-51.06215764285302,102.05378355626226,-103.92839230983562,-42.333333333333336,-40.64000000000001,-38.3953488372093,-40.64,-9.236363636363642,19.75555555555556,20.67441860465116,22.41176470588235,29.26084808412442,160.75234986120034,85.74076373796959,7616.4657636823695,87.18677434902004,1447.4113492536299,1
-121.24340266997828,26.266666666666662,-94.11642347097174,111.08787170063482,-63.97964596667243,105.02357122813581,-112.42100863750349,-42.333333333333336,-40.64000000000001,-38.3953488372093,-40.64,-9.236363636363642,19.75555555555556,20.67441860465116,22.41176470588235,29.26084808412442,160.75234986120034,80.54216426920556,6164.530324541985,77.1569872794244,2014.3760628049902,1
-121.24340266997828,26.266666666666662,-94.11642347097174,111.08787170063482,-63.97964596667243,105.02357122813581,-112.42100863750349,-42.333333333333336,-30.480000000000004,-32.48837209302325,-20.319999999999997,4.618181818181812,42.33333333333334,62.02325581395348,37.35294117647059,33.99367719603698,285.79181551597316,80.54216426920556,6164.530324541985,77.1569872794244,2014.3760628049902,1
-121.24340266997828,26.266666666666662,-94.11642347097174,111.08787170063482,-63.97964596667243,105.02357122813581,-112.42100863750349,-42.333333333333336,-40.64000000000001,-32.48837209302325,-30.479999999999997,-18.47272727272728,19.75555555555556,20.67441860465116,67.23529411764706,34.00996262211721,264.9092799759177,80.54216426920556,6164.530324541985,77.1569872794244,2014.3760628049902,1
-127.0,1.066666666666662,-83.39180378764358,104.80788506515199,-76.94107132560687,106.25900289963519,-119.04996749326646,-42.333333333333336,-40.64000000000001,-32.48837209302325,-30.479999999999997,-18.47272727272728,19.75555555555556,20.67441860465116,67.23529411764706,34.00996262211721,264.9092799759177,70.48615681810342,4239.329853248015,63.088785173154086,2999.7195223457884,1
-127.0,1.066666666666662,-83.39180378764358,104.80788506515199,-76.94107132560687,106.25900289963519,-119.04996749326646,-54.42857142857143,-20.320000000000007,-20.67441860465116,-25.4,-25.400000000000006,-19.755555555555553,2.9534883720930196,127.0,36.9915042451089,1524.8796215344148,70.48615681810342,4239.329853248015,63.088785173154086,2999.7195223457884,1
-127.0,1.066666666666662,-83.39180378764358,104.80788506515199,-76.94107132560687,106.25900289963519,-119.04996749326646,-30.23809523809524,-35.56,-32.48837209302325,-30.479999999999997,-6.217248937900877e-15,31.04444444444445,44.302325581395344,-52.294117647058826,32.05091937550214,229.48822651884652,70.48615681810342,4239.329853248015,63.088785173154086,2999.7195223457884,1
-122.9388388699162,-15.400000000000004,-65.83286763944945,98.315736719011,-88.93588191201061,106.33027780376014,-123.34345685892077,-30.23809523809524,-35.56,-32.48837209302325,-30.479999999999997,-6.217248937900877e-15,31.04444444444445,44.302325581395344,-52.294117647058826,32.05091937550214,229.48822651884652,68.05723550312189,2894.8613256671533,59.84953478615349,1745.605052939085,1
-122.9388388699162,-15.400000000000004,-65.83286763944945,98.315736719011,-88.93588191201061,106.33027780376014,-123.34345685892077,-42.333333333333336,-30.480000000000004,-20.67441860465116,-10.159999999999997,-18.47272727272728,-2.8222222222222193,-50.209302325581405,37.35294117647059,26.563118116873245,267.48965553463603,68.05723550312189,2894.8613256671533,59.84953478615349,1745.605052939085,1
-122.9388388699162,-15.400000000000004,-65.83286763944945,98.315736719011,-88.93588191201061,106.33027780376014,-123.34345685892077,-54.42857142857143,-30.480000000000004,-8.860465116279066,-5.0799999999999965,-6.927272727272733,-8.466666666666665,2.9534883720930196,-22.411764705882355,17.45102862709566,312.88409590865524,68.05723550312189,2894.8613256671533,59.84953478615349,1745.605052939085,1
-115.84166407947843,-17.933333333333337,-47.56421401221152,91.4416972936852,-99.6565184800784,106.16396969413523,-125.46661094083774,-54.42857142857143,-30.480000000000004,-8.860465116279066,-5.0799999999999965,-6.927272727272733,-8.466666666666665,2.9534883720930196,-22.411764705882355,17.45102862709566,312.88409590865524,60.4464038083411,2520.973417831764,52.31308154641002,1367.7837001749124,1
-115.84166407947843,-17.933333333333337,-47.56421401221152,91.4416972936852,-99.6565184800784,106.16396969413523,-125.46661094083774,30.238095238095234,-5.080000000000005,8.860465116279073,3.552713678800501e-15,4.618181818181812,25.400000000000006,2.9534883720930196,-37.352941176470594,14.312896465139968,207.1767879047333,60.4464038083411,2520.973417831764,52.31308154641002,1367.7837001749124,1
-115.84166407947843,-17.933333333333337,-47.56421401221152,91.4416972936852,-99.6565184800784,106.16396969413523,-125.46661094083774,-42.333333333333336,-30.480000000000004,-20.67441860465116,5.080000000000004,2.3090909090909033,31.04444444444445,14.767441860465112,22.41176470588235,21.137561732233415,184.2087622720464,60.4464038083411,2520.973417831764,52.31308154641002,1367.7837001749124,1
-104.68332815895685,-7.933333333333338,-34.05329607782262,83.76144336785836,-109.04439831632358,106.49658591338508,-126.45741617906566,-42.333333333333336,-30.480000000000004,-20.67441860465116,5.080000000000004,2.3090909090909033,31.04444444444445,14.767441860465112,22.41176470588235,21.137561732233415,184.2087622720464,48.88998585670427,2505.2358973856226,41.91602425967144,1483.8424386982383,1
-104.68332815895685,-7.933333333333338,-34.05329607782262,83.76144336785836,-109.04439831632358,106.49658591338508,-126.45741617906566,-30.23809523809524,-35.56,-20.67441860465116,-20.319999999999997,-23.090909090909097,-8.466666666666665,44.302325581395344,-22.411764705882355,25.633022485949983,118.94757576965542,48.88998585670427,2505.2358973856226,41.91602425967144,1483.8424386982383,1
-104.68332815895685,-7.933333333333338,-34.05329607782262,83.76144336785836,-109.04439831632358,106.49658591338508,-126.45741617906566,-42.333333333333336,-35.56,-38.3953488372093,-40.64,-23.090909090909097,-93.13333333333334,-50.209302325581405,-37.352941176470594,45.08939601210463,434.4617395039767,48.88998585670427,2505.2358973856226,41.91602425967144,1483.8424386982383,1
-85.67867122011799,6.6666666666666625,-19.6486598364897,75.74173070497824,-116.60156835610908,107.56570947525955,-126.7876845918083,-42.333333333333336,-35.56,-38.3953488372093,-40.64,-23.090909090909097,-93.13333333333334,-50.209302325581405,-37.352941176470594,45.08939601210463,434.4617395039767,37.331332574424785,2263.3533736190384,34.019019069378196,1347.721536335909,1
-85.67867122011799,6.6666666666666625,-19.6486598364897,75.74173070497824,-116.60156835610908,107.56570947525955,-126.7876845918083,-66.52380952380952,-50.800000000000004,-50.20930232558139,-30.479999999999997,-16.16363636363637,36.6888888888889,-38.395348837209305,-82.1764705882353,46.429682065920105,434.9787855299341,37.331332574424785,2263.3533736190384,34.019019069378196,1347.721536335909,1
-85.67867122011799,6.6666666666666625,-19.6486598364897,75.74173070497824,-116.60156835610908,107.56570947525955,-126.7876845918083,-30.23809523809524,-20.320000000000007,8.860465116279073,25.400000000000006,18.472727272727266,76.20000000000002,56.11627906976744,-7.4705882352941195,30.384769366520395,573.938155451675,37.331332574424785,2263.3533736190384,34.019019069378196,1347.721536335909,1
-60.168270723377844,20.86666666666666,-5.822311911414676,68.1887738055463,-122.02046935362971,109.37134037975866,-126.95281879817962,-30.23809523809524,-20.320000000000007,8.860465116279073,25.400000000000006,18.472727272727266,76.20000000000002,56.11627906976744,-7.4705882352941195,30.384769366520395,573.938155451675,28.952416433819725,1705.4076490902191,31.625917461209212,1059.2150005429417,1
-60.168270723377844,20.86666666666666,-5.822311911414676,68.1887738055463,-122.02046935362971,109.37134037975866,-126.95281879817962,6.047619047619044,-10.160000000000005,8.860465116279073,15.240000000000002,4.618181818181812,47.97777777777779,38.3953488372093,37.35294117647059,21.081541721692197,298.25047399682944,28.952416433819725,1705.4076490902191,31.625917461209212,1059.2150005429417,1
-60.168270723377844,20.86666666666666,-5.822311911414676,68.1887738055463,-122.02046935362971,109.37134037975866,-126.95281879817962,-18.142857142857146,-10.160000000000005,-2.9534883720930196,-10.159999999999997,-11.545454545454552,25.400000000000006,26.581395348837205,67.23529411764706,21.522311190861124,406.3244859055615,28.952416433819725,1705.4076490902191,31.625917461209212,1059.2150005429417,1
-36.313877677739846,29.13333333333333,6.269171064886681,63.309054460407594,-124.70062849564665,111.20072958563276,-126.55177858270642,-18.142857142857146,-10.160000000000005,-2.9534883720930196,-10.159999999999997,-11.545454545454552,25.400000000000006,26.581395348837205,67.23529411764706,21.522311190861124,406.3244859055615,23.90546069198662,1103.2372309304506,32.903852952875866,824.049688094672,1
-36.313877677739846,29.13333333333333,6.269171064886681,63.309054460407594,-124.70062849564665,111.20072958563276,-126.55177858270642,-54.42857142857143,-35.56,-20.67441860465116,-20.319999999999997,-4.618181818181824,25.400000000000006,2.9534883720930196,7.470588235294116,21.428156057348943,303.57291167169075,23.90546069198662,1103.2372309304506,32.903852952875866,824.049688094672,1
-36.313877677739846,29.13333333333333,6.269171064886681,63.309054460407594,-124.70062849564665,111.20072958563276,-126.55177858270642,-42.333333333333336,-30.480000000000004,-20.67441860465116,-15.239999999999997,-11.545454545454552,2.8222222222222264,2.9534883720930196,-22.411764705882355,18.55758522295458,182.57595586033776,23.90546069198662,1103.2372309304506,32.903852952875866,824.049688094672,1
-2.6417261719962877,29.666666666666664,20.095518989961707,60.890410958904056,-124.92031367122182,113.10139369563183,-126.31587257360454,-42.333333333333336,-30.480000000000004,-20.67441860465116,-15.239999999999997,-11.545454545454552,2.8222222222222264,2.9534883720930196,-22.411764705882355,18.55758522295458,182.57595586033776,17.467970609541553,275.4035722036074,36.88419887184414,455.12538103899976,1
-2.6417261719962877,29.666666666666664,20.095518989961707,60.890410958904056,-124.92031367122182,113.10139369563183,-126.31587257360454,-42.333333333333336,-25.400000000000006,-14.767441860465112,-10.159999999999997,-6.217248937900877e-15,8.46666666666667,-26.581395348837212,22.41176470588235,18.765075239398087,174.58455437980322,17.467970609541553,275.4035722036074,36.88419887184414,455.12538103899976,1
-2.6417261719962877,29.666666666666664,20.095518989961707,60.890410958904056,-124.92031367122182,113.10139369563183,-126.31587257360454,-30.23809523809524,-35.56,-38.3953488372093,-50.8,-13.85454545454546,31.04444444444445,26.581395348837205,-7.4705882352941195,29.24305219480322,187.21946150056948,17.467970609541553,275.4035722036074,36.88419887184414,455.12538103899976,1
14.036634585532429,18.999999999999996,30.504708682603745,54.313397928499796,-126.50204693536297,116.783930408755,-127.0,-30.23809523809524,-35.56,-38.3953488372093,-50.8,-13.85454545454546,31.04444444444445,26.581395348837205,-7.4705882352941195,29.24305219480322,187.21946150056948,21.180447756045393,71.36513042929036,34.606035537034515,324.37467978929976,1
14.036634585532429,18.999999999999996,30.504708682603745,54.313397928499796,-126.50204693536297,116.783930408755,-127.0,-6.047619047619051,-30.480000000000004,-26.581395348837205,-5.0799999999999965,4.618181818181812,25.400000000000006,-2.9534883720930267,67.23529411764706,21.049497338047267,478.4465487595736,21.180447756045393,71.36513042929036,34.606035537034515,324.37467978929976,1
14.036634585532429,18.999999999999996,30.504708682603745,54.313397928499796,-126.50204693536297,116.783930408755,-127.0,-18.142857142857146,-30.480000000000004,-20.67441860465116,5.080000000000004,18.472727272727266,98.77777777777779,73.83720930232558,97.11764705882354,45.32282964489531,1465.7460624558748,21.180447756045393,71.36513042929036,34.606035537034515,324.37467978929976,1
15.53492704129151,14.733333333333327,39.49446341715823,49.90043434680916,-127.0,119.94378449162846,-126.52818798179624,-18.142857142857146,-30.480000000000004,-20.67441860465116,5.080000000000004,18.472727272727266,98.77777777777779,73.83720930232558,97.11764705882354,45.32282964489531,1465.7460624558748,23.254241263927685,197.96924980786955,34.70941036576691,326.3537979514753,1
15.53492704129151,14.733333333333327,39.49446341715823,49.90043434680916,-127.0,119.94378449162846,-126.52818798179624,-102.80952380952381,-50.800000000000004,-56.11627906976744,-55.879999999999995,-53.10909090909092,-42.333333333333336,2.9534883720930196,-97.11764705882354,57.639920319079,985.2018799380494,23.254241263927685,197.96924980786955,34.70941036576691,326.3537979514753,1
15.53492704129151,14.733333333333327,39.49446341715823,49.90043434680916,-127.0,119.94378449162846,-126.52818798179624,6.047619047619044,-15.240000000000006,14.76744186046512,20.320000000000004,2.3090909090909033,25.400000000000006,38.3953488372093,52.294117647058826,21.8467022876804,277.27904030241245,23.254241263927685,197.96924980786955,34.70941036576691,326.3537979514753,1
18.413225706302377,14.599999999999994,46.880782365724926,47.26962913464746,-126.3555901516462,122.96108876625198,-125.06557072536455,6.047619047619044,-15.240000000000006,14.76744186046512,20.320000000000004,2.3090909090909033,25.400000000000006,38.3953488372093,52.294117647058826,21.8467022876804,277.27904030241245,26.6313360240091,311.1652304313227,36.25013716679079,351.5841299580676,1
18.413225706302377,14.599999999999994,46.880782365724926,47.26962913464746,-126.3555901516462,122.96108876625198,-125.06557072536455,-42.333333333333336,-35.56,-8.860465116279066,-10.159999999999997,-2.3090909090909153,36.6888888888889,-26.581395348837212,-7.4705882352941195,21.245470228965445,248.740692455605,26.6313360240091,311.1652304313227,36.25013716679079,351.5841299580676,1
18.413225706302377,14.599999999999994,46.880782365724926,47.26962913464746,-126.3555901516462,122.96108876625198,-125.06557072536455,-42.333333333333336,-25.400000000000006,-20.67441860465116,-30.479999999999997,-11.545454545454552,19.75555555555556,26.581395348837205,-37.352941176470594,26.765387320537805,98.2911025140097,26.6313360240091,311.1652304313227,36.25013716679079,351.5841299580676,1
26.18068922694814,7.599999999999994,55.39739211425023,46.84530571333113,-124.70062849564665,125.28940230100082,-123.06036964799853,-42.333333333333336,-25.400000000000006,-20.67441860465116,-30.479999999999997,-11.545454545454552,19.75555555555556,26.581395348837205,-37.352941176470594,26.765387320537805,98.2911025140097,29.726027113732787,580.5747387794506,36.614232609193785,649.6538158774996,1
26.18068922694814,7.599999999999994,55.39739211425023,46.84530571333113,-124.70062849564665,125.28940230100082,-123.06036964799853,-30.23809523809524,-20.320000000000007,26.581395348837212,-5.0799999999999965,-6.217248937900877e-15,14.111111111111114,-14.76744186046512,-22.411764705882355,16.688726033048884,107.28588037059576,29.726027113732787,580.5747387794506,36.614232609193785,649.6538158774996,1
26.18068922694814,7.599999999999994,55.39739211425023,46.84530571333113,-124.70062849564665,125.28940230100082,-123.06036964799853,-42.333333333333336,-25.400000000000006,-26.581395348837205,-15.239999999999997,-16.16363636363637,-19.755555555555553,-8.860465116279073,-52.294117647058826,25.828562920587547,214.8442411180049,29.726027113732787,580.5747387794506,36.614232609193785,649.6538158774996,1
47.94535858429058,-6.000000000000005,64.38714684880472,50.83394587370532,-120.38015337600184,126.64362547937515,-120.06436333240458,-42.333333333333336,-25.400000000000006,-26.581395348837205,-15.239999999999997,-16.16363636363637,-19.755555555555553,-8.860465116279073,-52.294117647058826,25.828562920587547,214.8442411180049,39.44416847769843,1355.7974259396683,40.40703090750335,933.8051460702764,1
47.94535858429058,-6.000000000000005,64.38714684880472,50.83394587370532,-120.38015337600184,126.64362547937515,-120.06436333240458,-78.61904761904762,-60.96000000000001,-32.48837209302325,3.552713678800501e-15,-2.3090909090909153,14.111111111111114,32.48837209302325,-22.411764705882355,30.423469816397315,758.5867600757198,39.44416847769843,1355.7974259396683,40.40703090750335,933.8051460702764,1
47.94535858429058,-6.000000000000005,64.38714684880472,50.83394587370532,-120.38015337600184,126.64362547937515,-120.06436333240458,-30.23809523809524,-15.240000000000006,-2.9534883720930196,5.080000000000004,-9.236363636363642,-19.755555555555553,-26.581395348837212,-22.411764705882355,16.43708285710338,100.5940169766791,39.44416847769843,1355.7974259396683,40.40703090750335,933.8051460702764,1
79.37007140639551,-22.400000000000006,74.61233571354651,57.665552956899376,-113.9507005708355,126.99999999999997,-117.39862542955328,-30.23809523809524,-15.240000000000006,-2.9534883720930196,5.080000000000004,-9.236363636363642,-19.755555555555553,-26.581395348837212,-22.411764705882355,16.43708285710338,100.5940169766791,58.794135706647346,3298.5294605972845,51.559296223481965,709.4967786368252,1
79.37007140639551,-22.400000000000006,74.61233571354651,57.665552956899376,-113.9507005708355,126.99999999999997,-117.39862542955328,-54.42857142857143,-20.320000000000007,-38.3953488372093,-20.319999999999997,-2.3090909090909153,25.400000000000006,-38.395348837209305,-22.411764705882355,27.74751558974541,247.15170560714913,58.794135706647346,3298.5294605972845,51.559296223481965,709.4967786368252,1
79.37007140639551,-22.400000000000006,74.61233571354651,57.665552956899376,-113.9507005708355,126.99999999999997,-117.39862542955328,-78.61904761904762,-45.720000000000006,-56.11627906976744,-15.239999999999997,-11.545454545454552,2.8222222222222264,62.02325581395348,-52.294117647058826,40.547547114688015,746.0800385999493,58.794135706647346,3298.5294605972845,51.559296223481965,709.4967786368252,1
103.77646693573423,-26.06666666666667,83.39180378764358,65.64283327764787,-105.6758922908378,126.95248339725,-114.92161233398348,-78.61904761904762,-45.720000000000006,-56.11627906976744,-15.239999999999997,-11.545454545454552,2.8222222222222264,62.02325581395348,-52.294117647058826,40.547547114688015,746.0800385999493,71.07831246334815,4875.988431591527,58.36710124398604,861.2450439539409,1
103.77646693573423,-26.06666666666667,83.39180378764358,65.64283327764787,-105.6758922908378,126.95248339725,-114.92161233398348,-6.047619047619051,-15.240000000000006,-26.581395348837205,-5.0799999999999965,-6.927272727272733,2.8222222222222264,-32.48837209302326,7.470588235294116,12.832183709283575,121.5921171987937,71.07831246334815,4875.988431591527,58.36710124398604,861.2450439539409,1
103.77646693573423,-26.06666666666667,83.39180378764358,65.64283327764787,-105.6758922908378,126.95248339725,-114.92161233398348,-66.52380952380952,-50.800000000000004,-20.67441860465116,3.552713678800501e-15,-6.927272727272733,25.400000000000006,-8.860465116279073,-37.352941176470594,27.067363393560385,534.178384802243,71.07831246334815,4875.988431591527,58.36710124398604,861.2450439539409,1
115.28966159577769,-35.13333333333334,95.90386008485977,74.46876044102902,-95.90722481692902,126.3585258628753,-111.21788799108387,-66.52380952380952,-50.800000000000004,-20.67441860465116,3.552713678800501e-15,-6.927272727272733,25.400000000000006,-8.860465116279073,-37.352941176470594,27.067363393560385,534.178384802243,82.10895167132361,6695.605460430171,68.50198461974071,949.9660406906306,1
115.28966159577769,-35.13333333333334,95.90386008485977,74.46876044102902,-95.90722481692902,126.3585258628753,-111.21788799108387,-30.23809523809524,-15.240000000000006,-8.860465116279066,-20.319999999999997,-2.3090909090909153,8.46666666666667,20.67441860465116,-7.4705882352941195,14.197415596259647,83.67642675630496,82.10895167132361,6695.605460430171,68.50198461974071,949.9660406906306,1
115.28966159577769,-35.13333333333334,95.90386008485977,74.46876044102902,-95.90722481692902,126.3585258628753,-111.21788799108387,-18.142857142857146,-25.400000000000006,-20.67441860465116,-25.4,-2.3090909090909153,25.400000000000006,-14.76744186046512,-7.4705882352941195,17.445549594044806,76.6451676214617,82.10895167132361,6695.605460430171,68.50198461974071,949.9660406906306,1
118.52281900031045,-40.06666666666667,108.49477387974748,83.29468760441029,-85.0547771435161,125.21812739687584,-105.83923098356088,-18.142857142857146,-25.400000000000006,-20.67441860465116,-25.4,-2.3090909090909153,25.400000000000006,-14.76744186046512,-7.4705882352941195,17.445549594044806,76.6451676214617,89.02808651557486,7886.948045047023,77.2853760502748,1197.6853332072203,1
118.52281900031045,-40.06666666666667,108.49477387974748,83.29468760441029,-85.0547771435161,125.21812739687584,-105.83923098356088,-90.71428571428572,-66.04,-44.302325581395344,-20.319999999999997,-2.3090909090909153,14.111111111111114,-44.30232558139535,-52.294117647058826,41.79915706804216,841.4902259718723,89.02808651557486,7886.948045047023,77.2853760502748,1197.6853332072203,1
118.52281900031045,-40.06666666666667,108.49477387974748,83.29468760441029,-85.0547771435161,125.21812739687584,-105.83923098356088,-18.142857142857146,-5.080000000000005,-8.860465116279066,-45.72,-13.85454545454546,8.46666666666667,14.767441860465112,-7.4705882352941195,15.29532055951345,169.9630230166808,89.02808651557486,7886.948045047023,77.2853760502748,1197.6853332072203,1
109.92735175411362,-50.13333333333334,108.65248887509054,91.35683260942193,-74.61240846451017,123.00860536900194,-99.75285594873225,-18.142857142857146,-5.080000000000005,-8.860465116279066,-45.72,-13.85454545454546,8.46666666666667,14.767441860465112,-7.4705882352941195,15.29532055951345,169.9630230166808,89.5710579875125,8472.330920071396,83.38088493928193,903.8346972577019,1
109.92735175411362,-50.13333333333334,108.65248887509054,91.35683260942193,-74.61240846451017,123.00860536900194,-99.75285594873225,18.14285714285714,-15.240000000000006,-73.83720930232558,-40.64,-6.217248937900877e-15,25.400000000000006,-32.48837209302326,37.35294117647059,30.38767246433457,481.93933946453444,89.5710579875125,8472.330920071396,83.38088493928193,903.8346972577019,1
109.92735175411362,-50.13333333333334,108.65248887509054,91.35683260942193,-74.61240846451017,123.00860536900194,-99.75285594873225,-66.52380952380952,-40.64000000000001,-26.581395348837205,-20.319999999999997,-11.545454545454552,-2.8222222222222193,-8.860465116279073,-37.352941176470594,26.830785991634148,436.05481605181984,89.5710579875125,8472.330920071396,83.38088493928193,903.8346972577019,1
121.5194039118286,-48.06666666666667,104.68332815895684,98.01871032408957,-63.73066943435391,120.2526424095033,-94.79882975759264,-66.52380952380952,-40.64000000000001,-26.581395348837205,-20.319999999999997,-11.545454545454552,-2.8222222222222193,-8.860465116279073,-37.352941176470594,26.830785991634148,436.05481605181984,91.42313291248404,8729.241616706471,83.58956838323769,957.5116924950811,1
121.5194039118286,-48.06666666666667,104.68332815895684,98.01871032408957,-63.73066943435391,120.2526424095033,-94.79882975759264,-30.23809523809524,-35.56,-2.9534883720930196,3.552713678800501e-15,-4.618181818181824,8.46666666666667,32.48837209302325,-22.411764705882355,17.092071111742797,214.4659291882888,91.42313291248404,8729.241616706471,83.58956838323769,957.5116924950811,1
121.5194039118286,-48.06666666666667,104.68332815895684,98.01871032408957,-63.73066943435391,120.2526424095033,-94.79882975759264,-30.23809523809524,-25.400000000000006,-14.767441860465112,-15.239999999999997,-9.236363636363642,8.46666666666667,-14.76744186046512,-22.411764705882355,17.565971745992268,59.81283281199757,91.42313291248404,8729.241616706471,83.58956838323769,957.5116924950811,1
126.99999999999999,-40.400000000000006,107.94277139604677,102.85599732709653,-52.248457590958886,117.40164624450472,-89.56171635553079,-30.23809523809524,-25.400000000000006,-14.767441860465112,-15.239999999999997,-9.236363636363642,8.46666666666667,-14.76744186046512,-22.411764705882355,17.565971745992268,59.81283281199757,91.78092379868224,8398.585964587188,83.73292290771444,1414.7754734015775,1
126.99999999999999,-40.400000000000006,107.94277139604677,102.85599732709653,-52.248457590958886,117.40164624450472,-89.56171635553079,-42.333333333333336,-35.56,-32.48837209302325,-20.319999999999997,-11.545454545454552,8.46666666666667,-32.48837209302326,-7.4705882352941195,23.8340983708494,185.25620658526927,91.78092379868224,8398.585964587188,83.73292290771444,1414.7754734015775,1
126.99999999999999,-40.400000000000006,107.94277139604677,102.85599732709653,-52.248457590958886,117.40164624450472,-89.56171635553079,-42.333333333333336,-35.56,-20.67441860465116,-15.239999999999997,-9.236363636363642,14.111111111111114,2.9534883720930196,22.41176470588235,20.31505997042933,172.87782339193194,91.78092379868224,8398.585964587188,83.73292290771444,1414.7754734015775,1
117.89195901893821,-33.400000000000006,112.88450791679603,106.08085532910121,-40.79553710430721,114.24179216163125,-82.86198569703726,-42.333333333333336,-35.56,-20.67441860465116,-15.239999999999997,-9.236363636363642,14.111111111111114,2.9534883720930196,22.41176470588235,20.31505997042933,172.87782339193194,88.0588223119114,7385.581447797931,84.12178774863241,1941.097236446499,1
117.89195901893821,-33.400000000000006,112.88450791679603,106.08085532910121,-40.79553710430721,114.24179216163125,-82.86198569703726,-54.42857142857143,-20.320000000000007,-14.767441860465112,20.320000000000004,13.854545454545448,31.04444444444445,-44.30232558139535,7.470588235294116,25.81348962558949,264.26760782450367,88.0588223119114,7385.581447797931,84.12178774863241,1941.097236446499,1
117.89195901893821,-33.400000000000006,112.88450791679603,106.08085532910121,-40.79553710430721,114.24179216163125,-82.86198569703726,-30.23809523809524,-25.400000000000006,-20.67441860465116,3.552713678800501e-15,-2.3090909090909153,31.04444444444445,26.581395348837205,22.41176470588235,19.832401156375166,145.46973012328547,88.0588223119114,7385.581447797931,84.12178774863241,1941.097236446499,1
106.14219186588015,-31.600000000000005,114.54051536789817,107.86301369863014,-29.91379807415095,110.67804695538302,-75.1478591994056,-30.23809523809524,-25.400000000000006,-20.67441860465116,3.552713678800501e-15,-2.3090909090909153,31.04444444444445,26.581395348837205,22.41176470588235,19.832401156375166,145.46973012328547,84.09423574459278,6733.415581609395,84.6678430221761,2123.2942294055124,1
106.14219186588015,-31.600000000000005,114.54051536789817,107.86301369863014,-29.91379807415095,110.67804695538302,-75.1478591994056,-42.333333333333336,-35.56,-8.860465116279066,3.552713678800501e-15,-6.927272727272733,14.111111111111114,67.93023255813952,7.470588235294116,22.89912538517874,551.0871077358837,84.09423574459278,6733.415581609395,84.6678430221761,2123.2942294055124,1
106.14219186588015,-31.600000000000005,114.54051536789817,107.86301369863014,-29.91379807415095,110.67804695538302,-75.1478591994056,-54.42857142857143,-40.64000000000001,-8.860465116279066,-5.0799999999999965,-4.618181818181824,8.46666666666667,-2.9534883720930267,-37.352941176470594,20.300039322282824,416.9482591127513,84.09423574459278,6733.415581609395,84.6678430221761,2123.2942294055124,1
88.91182862465071,-26.53333333333334,117.64224360964504,108.2024724356832,-19.984028138153718,106.97175194088484,-66.06547784898301,-54.42857142857143,-40.64000000000001,-8.860465116279066,-5.0799999999999965,-4.618181818181824,8.46666666666667,-2.9534883720930267,-37.352941176470594,20.300039322282824,416.9482591127513,77.69580185587637,5823.269858592638,84.12601645955385,2509.965182212125,1
88.91182862465071,-26.53333333333334,117.64224360964504,108.2024724356832,-19.984028138153718,106.97175194088484,-66.06547784898301,-42.333333333333336,-35.56,-14.767441860465112,-20.319999999999997,-20.78181818181819,-2.8222222222222193,-44.30232558139535,-37.352941176470594,27.2800102944631,218.82856122168718,77.69580185587637,5823.269858592638,84.12601645955385,2509.965182212125,1
88.91182862465071,-26.53333333333334,117.64224360964504,108.2024724356832,-19.984028138153718,106.97175194088484,-66.06547784898301,-54.42857142857143,-45.720000000000006,-32.48837209302325,-30.479999999999997,-11.545454545454552,19.75555555555556,26.581395348837205,-7.4705882352941195,28.558742150842015,256.92260662084135,77.69580185587637,5823.269858592638,84.12601645955385,2509.965182212125,1
85.79695746662526,-13.733333333333338,118.1416744282314,106.67490811894419,-10.332526091218355,103.33673183051164,-56.62923748490759,-54.42857142857143,-45.720000000000006,-32.48837209302325,-30.479999999999997,-11.545454545454552,19.75555555555556,26.581395348837205,-7.4705882352941195,28.558742150842015,256.92260662084135,72.55732174273,4723.912862360582,79.51663862683631,3278.454123901613,1
85.79695746662526,-13.733333333333338,118.1416744282314,106.67490811894419,-10.332526091218355,103.33673183051164,-56.62923748490759,-18.142857142857146,-20.320000000000007,-26.581395348837205,-20.319999999999997,-6.927272727272733,25.400000000000006,-44.30232558139535,-22.411764705882355,23.0507019382806,109.85573168678437,72.55732174273,4723.912862360582,79.51663862683631,3278.454123901613,1
85.79695746662526,-13.733333333333338,118.1416744282314,106.67490811894419,-10.332526091218355,103.33673183051164,-56.62923748490759,-18.142857142857146,-15.240000000000006,-20.67441860465116,-10.159999999999997,2.3090909090909033,47.97777777777779,50.20930232558139,37.35294117647059,25.258298492053623,315.94860344454594,72.55732174273,4723.912862360582,79.51663862683631,3278.454123901613,1
91.08040981061781,6.6666666666666625,117.45824278174479,102.09221516872702,-0.25629937150434756,100.46197736413805,-47.027862914460854,-18.142857142857146,-15.240000000000006,-20.67441860465116,-10.159999999999997,2.3090909090909033,47.97777777777779,50.20930232558139,37.35294117647059,25.258298492053623,315.94860344454594,71.73510641967641,3349.373906981464,75.40570820571283,3602.8205749310423,1
91.08040981061781,6.6666666666666625,117.45824278174479,102.09221516872702,-0.25629937150434756,100.46197736413805,-47.027862914460854,-18.142857142857146,-25.400000000000006,-8.860465116279066,-10.159999999999997,-11.545454545454552,14.111111111111114,62.02325581395348,22.41176470588235,21.581863554442215,301.6334954240944,71.73510641967641,3349.373906981464,75.40570820571283,3602.8205749310423,1
91.08040981061781,6.6666666666666625,117.45824278174479,102.09221516872702,-0.25629937150434756,100.46197736413805,-47.027862914460854,-42.333333333333336,-30.480000000000004,-2.9534883720930196,3.552713678800501e-15,-2.3090909090909153,-2.8222222222222193,-2.9534883720930267,-52.294117647058826,17.01821760698642,452.8002048102613,71.73510641967641,3349.373906981464,75.40570820571283,3602.8205749310423,1
72.03632412294317,4.933333333333328,113.85708372141157,97.12763113932505,8.29677679755521,97.2783649798896,-37.16699173400205,-42.333333333333336,-30.480000000000004,-2.9534883720930196,3.552713678800501e-15,-2.3090909090909153,-2.8222222222222193,-2.9534883720930267,-52.294117647058826,17.01821760698642,452.8002048102613,63.60891372589602,3019.361784151288,71.97268273135664,3440.674421706758,1
72.03632412294317,4.933333333333328,113.85708372141157,97.12763113932505,8.29677679755521,97.2783649798896,-37.16699173400205,-42.333333333333336,-40.64000000000001,-2.9534883720930196,-5.0799999999999965,-6.927272727272733,8.46666666666667,2.9534883720930196,7.470588235294116,14.603104713344113,279.4927429359887,63.60891372589602,3019.361784151288,71.97268273135664,3440.674421706758,1
72.03632412294317,4.933333333333328,113.85708372141157,97.12763113932505,8.29677679755521,97.2783649798896,-37.16699173400205,-90.71428571428572,-50.800000000000004,-20.67441860465116,-20.319999999999997,-6.927272727272733,14.111111111111114,38.3953488372093,-7.4705882352941195,31.17662815372802,807.3316483067489,63.60891372589602,3019.361784151288,71.97268273135664,3440.674421706758,1
