Gyro 0,Gyro 1,Gyro 2,Orientation 0,Orientation 1,Orientation 2,Orientation 3,Sensor 0,Sensor 1,Sensor 2,Sensor 3,Sensor 4,Sensor 5,Sensor 6,Sensor 7,Sensor Mean,Sensor Variance,Gyro Mean,Gyro Variance,Orientation Mean,Orientation Variance,Label
-5.383619258439405,-5.056788511749353,4.410076274588533,-115.75959911492907,126.99999999999999,-127.0,119.67576491305306,21.166666666666664,37.04166666666668,-9.769230769230766,15.875,5.5217391304347805,42.33333333333334,16.387096774193537,49.94382022471908,24.754819195655607,264.38294117563476,4.950161348259098,30.940803235572947,41.74215463375565,4109.041124822115,1
-5.383619258439405,-5.056788511749353,4.410076274588533,-115.75959911492907,126.99999999999999,-127.0,119.67576491305306,31.75,42.33333333333334,9.769230769230774,0.0,22.086956521739125,50.03030303030304,-4.096774193548399,52.79775280898875,26.60804383214293,432.42266264526137,4.950161348259098,30.940803235572947,41.74215463375565,4109.041124822115,1
-5.383619258439405,-5.056788511749353,4.410076274588533,-115.75959911492907,126.99999999999999,-127.0,119.67576491305306,31.75,47.62500000000001,9.769230769230774,-7.9375,-1.7763568394002505e-15,34.63636363636365,28.677419354838698,55.65168539325841,27.005899894211442,388.4682888881474,4.950161348259098,30.940803235572947,41.74215463375565,4109.041124822115,1
-5.327393469839516,-5.222584856396875,4.741469289442006,-116.42079916699205,126.88243159843653,-126.08498444408056,120.34668721109401,31.75,47.62500000000001,9.769230769230774,-7.9375,-1.7763568394002505e-15,34.63636363636365,28.677419354838698,55.65168539325841,27.005899894211442,388.4682888881474,5.097149205226132,33.44589285531784,42.12828443761031,4139.591176658743,1
-5.327393469839516,-5.222584856396875,4.741469289442006,-116.42079916699205,126.88243159843653,-126.08498444408056,120.34668721109401,21.166666666666664,37.04166666666668,-3.256410256410252,-7.9375,5.5217391304347805,34.63636363636365,122.9032258064516,49.94382022471908,35.30092404846409,1536.3192047246446,5.097149205226132,33.44589285531784,42.12828443761031,4139.591176658743,1
-5.496070835639184,-5.802872062663194,4.76696105981535,-117.04893921645191,126.7518000411438,-125.21156050433929,120.98965441338325,21.166666666666664,37.04166666666668,-3.256410256410252,-7.9375,5.5217391304347805,34.63636363636365,122.9032258064516,49.94382022471908,35.30092404846409,1536.3192047246446,5.355301319372576,36.19088715284418,42.53959077964348,4164.000531259751,1
-5.496070835639184,-5.802872062663194,4.76696105981535,-117.04893921645191,126.7518000411438,-125.21156050433929,120.98965441338325,10.583333333333332,31.750000000000007,-3.256410256410252,0.0,-1.7763568394002505e-15,42.33333333333334,-16.38709677419356,52.79775280898875,19.638490813282406,413.3659763274936,5.355301319372576,36.19088715284418,42.53959077964348,4164.000531259751,1
-5.496070835639184,-5.802872062663194,4.76696105981535,-117.04893921645191,126.7518000411438,-125.21156050433929,120.98965441338325,21.166666666666664,42.33333333333334,16.282051282051285,0.0,-1.7763568394002505e-15,42.33333333333334,-4.096774193548399,49.94382022471908,22.019497379206516,418.5225446743246,5.355301319372576,36.19088715284418,42.53959077964348,4164.000531259751,1
-5.355506364139461,-5.471279373368155,4.792452830188694,-117.7101392685149,126.62116848385104,-124.29654494841985,121.60466651992078,21.166666666666664,42.33333333333334,16.282051282051285,0.0,-1.7763568394002505e-15,42.33333333333334,-4.096774193548399,49.94382022471908,22.019497379206516,418.5225446743246,5.20641285589877,34.72311299095752,42.65795715735725,4224.737731103709,1
-5.355506364139461,-5.471279373368155,4.792452830188694,-117.7101392685149,126.62116848385104,-124.29654494841985,121.60466651992078,31.75,31.750000000000007,3.256410256410261,0.0,-1.7763568394002505e-15,42.33333333333334,24.580645161290313,47.08988764044942,22.595034548935416,365.17446618055726,5.20641285589877,34.72311299095752,42.65795715735725,4224.737731103709,1
-5.355506364139461,-5.471279373368155,4.792452830188694,-117.7101392685149,126.62116848385104,-124.29654494841985,121.60466651992078,42.333333333333336,37.04166666666668,3.256410256410261,-7.9375,-1.7763568394002505e-15,34.63636363636365,8.193548387096763,49.94382022471908,22.917830313073722,399.5979748934363,5.20641285589877,34.72311299095752,42.65795715735725,4224.737731103709,1
-5.102490315439959,-5.139686684073116,4.970895222802103,-118.4374593257842,126.50360008228758,-123.38152939250041,122.2755888179617,42.333333333333336,37.04166666666668,3.256410256410261,-7.9375,-1.7763568394002505e-15,34.63636363636365,8.193548387096763,49.94382022471908,22.917830313073722,399.5979748934363,5.0710240741050585,33.94972437792272,42.84934707755314,4285.179157577733,1
-5.102490315439959,-5.139686684073116,4.970895222802103,-118.4374593257842,126.50360008228758,-123.38152939250041,122.2755888179617,10.583333333333332,31.750000000000007,-16.282051282051277,-15.875,-1.7763568394002505e-15,19.24242424242425,28.677419354838698,49.94382022471908,21.544256054670832,230.14299457425702,5.0710240741050585,33.94972437792272,42.84934707755314,4285.179157577733,1
-5.102490315439959,-5.139686684073116,4.970895222802103,-118.4374593257842,126.50360008228758,-123.38152939250041,122.2755888179617,21.166666666666664,37.04166666666668,9.769230769230774,7.9375,16.565217391304344,50.03030303030304,-94.22580645161291,49.94382022471908,35.83502640006294,836.5267307385778,5.0710240741050585,33.94972437792272,42.84934707755314,4285.179157577733,1
-4.230990592141675,-4.890992167101835,5.149337615415511,-119.33007939606924,126.41215799218266,-122.38333060422465,122.94651111600265,21.166666666666664,37.04166666666668,9.769230769230774,7.9375,16.565217391304344,50.03030303030304,-94.22580645161291,49.94382022471908,35.83502640006294,836.5267307385778,4.7571067915530065,31.539063583691284,43.12346972619553,4355.602203625032,1
-4.230990592141675,-4.890992167101835,5.149337615415511,-119.33007939606924,126.41215799218266,-122.38333060422465,122.94651111600265,21.166666666666664,42.33333333333334,3.256410256410261,-7.9375,11.043478260869563,50.03030303030304,-8.193548387096783,52.79775280898875,24.59487409295855,422.0301314231568,4.7571067915530065,31.539063583691284,43.12346972619553,4355.602203625032,1
-4.230990592141675,-4.890992167101835,5.149337615415511,-119.33007939606924,126.41215799218266,-122.38333060422465,122.94651111600265,31.75,26.458333333333343,-3.256410256410252,15.875,-1.7763568394002505e-15,-3.848484848484844,-127.0,49.94382022471908,32.26650608286844,1754.2717759196603,4.7571067915530065,31.539063583691284,43.12346972619553,4355.602203625032,1
-3.218926397343667,-5.139686684073116,4.741469289442006,-120.2888194715606,126.3468422135363,-121.13558211887998,123.53356812678848,31.75,26.458333333333343,-3.256410256410252,15.875,-1.7763568394002505e-15,-3.848484848484844,-127.0,49.94382022471908,32.26650608286844,1754.2717759196603,4.366694123619596,27.449077157034417,43.38999181502524,4435.111915485492,1
-3.218926397343667,-5.139686684073116,4.741469289442006,-120.2888194715606,126.3468422135363,-121.13558211887998,123.53356812678848,42.333333333333336,52.91666666666668,3.256410256410261,7.9375,11.043478260869563,42.33333333333334,90.1290322580645,52.79775280898875,37.843438364708305,861.9715569694555,4.366694123619596,27.449077157034417,43.38999181502524,4435.111915485492,1
-3.218926397343667,-5.139686684073116,4.741469289442006,-120.2888194715606,126.3468422135363,-121.13558211887998,123.53356812678848,10.583333333333332,31.750000000000007,-9.769230769230766,0.0,-1.7763568394002505e-15,42.33333333333334,-40.96774193548388,49.94382022471908,23.168432449512554,412.30705513835653,4.366694123619596,27.449077157034417,43.38999181502524,4435.111915485492,1
-3.022136137244054,-6.217362924281991,4.435568044961878,-121.18143954184563,126.30765274634847,-119.72146716882266,123.98084965881577,10.583333333333332,31.750000000000007,-9.769230769230766,0.0,-1.7763568394002505e-15,42.33333333333334,-40.96774193548388,49.94382022471908,23.168432449512554,412.30705513835653,4.558355702162641,29.88529402089529,43.94479017036317,4474.918702847985,1
-3.022136137244054,-6.217362924281991,4.435568044961878,-121.18143954184563,126.30765274634847,-119.72146716882266,123.98084965881577,31.75,42.33333333333334,16.282051282051285,7.9375,-5.521739130434785,19.24242424242425,-1.0658141036401503e-14,52.79775280898875,21.983100099654052,350.0846266871814,4.558355702162641,29.88529402089529,43.94479017036317,4474.918702847985,1
-3.022136137244054,-6.217362924281991,4.435568044961878,-121.18143954184563,126.30765274634847,-119.72146716882266,123.98084965881577,21.166666666666664,37.04166666666668,3.256410256410261,7.9375,16.565217391304344,34.63636363636365,12.29032258064515,47.08988764044942,22.49800435481327,241.00471741925068,4.558355702162641,29.88529402089529,43.94479017036317,4474.918702847985,1
-3.471942446043169,-7.377937336814629,4.3590927338418455,-121.97487960432122,126.26846327916066,-118.34894383494351,124.34426590358794,21.166666666666664,37.04166666666668,3.256410256410261,7.9375,16.565217391304344,34.63636363636365,12.29032258064515,47.08988764044942,22.49800435481327,241.00471741925068,5.069657505566547,35.7232971591373,44.570636558325894,4495.84098682686,1
-3.471942446043169,-7.377937336814629,4.3590927338418455,-121.97487960432122,126.26846327916066,-118.34894383494351,124.34426590358794,21.166666666666664,37.04166666666668,3.256410256410261,0.0,16.565217391304344,34.63636363636365,8.193548387096763,49.94382022471908,21.350461653653433,317.0832684813733,5.069657505566547,35.7232971591373,44.570636558325894,4495.84098682686,1
-3.471942446043169,-7.377937336814629,4.3590927338418455,-121.97487960432122,126.26846327916066,-118.34894383494351,124.34426590358794,42.333333333333336,58.20833333333334,3.256410256410261,0.0,5.5217391304347805,50.03030303030304,-45.06451612903227,52.79775280898875,32.151548502729476,610.4404227540139,5.069657505566547,35.7232971591373,44.570636558325894,4495.84098682686,1
-4.230990592141675,-8.206919060052227,4.206142111601781,-122.60301965378108,126.20314750051428,-117.18437858195513,124.73563724411184,42.333333333333336,58.20833333333334,3.256410256410261,0.0,5.5217391304347805,50.03030303030304,-45.06451612903227,52.79775280898875,32.151548502729476,610.4404227540139,5.5480172545985615,40.17955051562387,45.00536027514503,4520.049109829931,1
-4.230990592141675,-8.206919060052227,4.206142111601781,-122.60301965378108,126.20314750051428,-117.18437858195513,124.73563724411184,42.333333333333336,37.04166666666668,3.256410256410261,-7.9375,5.5217391304347805,34.63636363636365,36.87096774193547,49.94382022471908,27.19272512373291,343.7529467379065,5.5480172545985615,40.17955051562387,45.00536027514503,4520.049109829931,1
-4.230990592141675,-8.206919060052227,4.206142111601781,-122.60301965378108,126.20314750051428,-117.18437858195513,124.73563724411184,10.583333333333332,42.33333333333334,16.282051282051285,7.9375,11.043478260869563,42.33333333333334,-24.580645161290334,52.79775280898875,25.986428439149993,305.10739900087873,5.5480172545985615,40.17955051562387,45.00536027514503,4520.049109829931,1
-4.230990592141675,-8.372715404699747,4.410076274588533,-123.29727970844723,126.13783172186793,-116.01981332896676,125.12700858463572,10.583333333333332,42.33333333333334,16.282051282051285,7.9375,11.043478260869563,42.33333333333334,-24.580645161290334,52.79775280898875,25.986428439149993,305.10739900087873,5.671260757143318,42.53694735572392,45.360023795911836,4559.587521600896,1
-4.230990592141675,-8.372715404699747,4.410076274588533,-123.29727970844723,126.13783172186793,-116.01981332896676,125.12700858463572,21.166666666666664,26.458333333333343,3.256410256410261,0.0,11.043478260869563,26.93939393939395,-4.096774193548399,47.08988764044942,17.50636803633395,255.546064061177,5.671260757143318,42.53694735572392,45.360023795911836,4559.587521600896,1
-4.230990592141675,-8.372715404699747,4.410076274588533,-123.29727970844723,126.13783172186793,-116.01981332896676,125.12700858463572,31.75,31.750000000000007,16.282051282051285,0.0,5.5217391304347805,50.03030303030304,49.16129032258063,52.79775280898875,29.661642071794812,425.8117289968382,5.671260757143318,42.53694735572392,45.360023795911836,4559.587521600896,1
-4.315329275041508,-9.533289817232383,4.333600963468501,-123.92541975790706,126.08557909895082,-114.89683969215655,125.46246973365618,31.75,31.750000000000007,16.282051282051285,0.0,5.5217391304347805,50.03030303030304,49.16129032258063,52.79775280898875,29.661642071794812,425.8117289968382,6.060740018580797,49.053627735726806,45.93077017953598,4569.133213183664,1
-4.315329275041508,-9.533289817232383,4.333600963468501,-123.92541975790706,126.08557909895082,-114.89683969215655,125.46246973365618,21.166666666666664,47.62500000000001,29.307692307692314,15.875,5.5217391304347805,50.03030303030304,20.483870967741925,55.65168539325841,30.70774468701214,333.3742953343145,6.060740018580797,49.053627735726806,45.93077017953598,4569.133213183664,1
-4.315329275041508,-9.533289817232383,4.333600963468501,-123.92541975790706,126.08557909895082,-114.89683969215655,125.46246973365618,10.583333333333332,37.04166666666668,3.256410256410261,0.0,-5.521739130434785,19.24242424242425,-36.870967741935495,49.94382022471908,20.307545199490484,350.01986000400984,6.060740018580797,49.053627735726806,45.93077017953598,4569.133213183664,1
-4.596458218040955,-10.44516971279374,4.461059815335222,-124.45437979955747,126.02026332030447,-113.85704928770264,125.79793088267667,10.583333333333332,37.04166666666668,3.256410256410261,0.0,-5.521739130434785,19.24242424242425,-36.870967741935495,49.94382022471908,20.307545199490484,350.01986000400984,6.500895915389973,56.4069563031753,46.45353644256215,4572.051066118106,1
-4.596458218040955,-10.44516971279374,4.461059815335222,-124.45437979955747,126.02026332030447,-113.85704928770264,125.79793088267667,10.583333333333332,42.33333333333334,-3.256410256410252,0.0,11.043478260869563,34.63636363636365,28.677419354838698,47.08988764044942,22.20252822694978,333.22745469396233,6.500895915389973,56.4069563031753,46.45353644256215,4572.051066118106,1
-4.596458218040955,-10.44516971279374,4.461059815335222,-124.45437979955747,126.02026332030447,-113.85704928770264,125.79793088267667,21.166666666666664,47.62500000000001,3.256410256410261,7.9375,16.565217391304344,42.33333333333334,-12.29032258064517,58.505617977528075,26.210008525735983,419.21957769052364,6.500895915389973,56.4069563031753,46.45353644256215,4572.051066118106,1
-5.186828998339793,-11.522845953002617,4.3590927338418455,-124.91721983600155,125.94188438592882,-112.9420337317832,126.10543693594542,21.166666666666664,47.62500000000001,3.256410256410261,7.9375,16.565217391304344,42.33333333333334,-12.29032258064517,58.505617977528075,26.210008525735983,419.21957769052364,7.022922561728085,63.91761816989988,46.93305284094867,4573.977566480479,1
-5.186828998339793,-11.522845953002617,4.3590927338418455,-124.91721983600155,125.94188438592882,-112.9420337317832,126.10543693594542,21.166666666666664,37.04166666666668,22.7948717948718,15.875,5.5217391304347805,42.33333333333334,8.193548387096763,47.08988764044942,25.00208920243993,242.58448625289878,7.022922561728085,63.91761816989988,46.93305284094867,4573.977566480479,1
-5.186828998339793,-11.522845953002617,4.3590927338418455,-124.91721983600155,125.94188438592882,-112.9420337317832,126.10543693594542,52.91666666666667,68.79166666666669,48.846153846153854,15.875,11.043478260869563,42.33333333333334,61.451612903225794,52.79775280898875,44.256958060738086,425.5679490611405,7.022922561728085,63.91761816989988,46.93305284094867,4573.977566480479,1
-5.243054786939682,-12.766318537859014,4.282617422721813,-125.31393986723936,125.8896317630117,-112.11020140822008,126.3849878934625,52.91666666666667,68.79166666666669,48.846153846153854,15.875,11.043478260869563,42.33333333333334,61.451612903225794,52.79775280898875,44.256958060738086,425.5679490611405,7.430663582506836,73.00069098330005,47.45429194260672,4564.5868773635575,1
-5.243054786939682,-12.766318537859014,4.282617422721813,-125.31393986723936,125.8896317630117,-112.11020140822008,126.3849878934625,21.166666666666664,31.750000000000007,16.282051282051285,0.0,-1.7763568394002505e-15,34.63636363636365,4.096774193548377,52.79775280898875,20.09120107345234,356.57264765148614,7.430663582506836,73.00069098330005,47.45429194260672,4564.5868773635575,1
-5.243054786939682,-12.766318537859014,4.282617422721813,-125.31393986723936,125.8896317630117,-112.11020140822008,126.3849878934625,31.75,47.62500000000001,16.282051282051285,0.0,-1.7763568394002505e-15,34.63636363636365,-28.67741935483872,52.79775280898875,26.4710733852803,392.17732544042275,7.430663582506836,73.00069098330005,47.45429194260672,4564.5868773635575,1
-5.074377421140014,-14.009791122715413,4.461059815335222,-125.77677990368346,125.86350545155317,-111.31996070083511,126.60862865947612,31.75,47.62500000000001,16.282051282051285,0.0,-1.7763568394002505e-15,34.63636363636365,-28.67741935483872,52.79775280898875,26.4710733852803,392.17732544042275,7.8484094530635495,85.32308594745764,48.08254361391136,4550.090331883341,1
-5.074377421140014,-14.009791122715413,4.461059815335222,-125.77677990368346,125.86350545155317,-111.31996070083511,126.60862865947612,10.583333333333332,31.750000000000007,9.769230769230774,0.0,11.043478260869563,42.33333333333334,36.87096774193547,49.94382022471908,24.036770457927698,337.3285151379144,7.8484094530635495,85.32308594745764,48.08254361391136,4550.090331883341,1
-5.074377421140014,-14.009791122715413,4.461059815335222,-125.77677990368346,125.86350545155317,-111.31996070083511,126.60862865947612,21.166666666666664,26.458333333333343,9.769230769230774,-7.9375,22.086956521739125,50.03030303030304,-16.38709677419356,49.94382022471908,25.472488415023196,267.0740881747287,7.8484094530635495,85.32308594745764,48.08254361391136,4550.090331883341,1
-5.439845047039295,-15.41906005221933,4.461059815335222,-126.20655993752442,125.8504422958239,-110.6544948419846,126.77635923398637,21.166666666666664,26.458333333333343,9.769230769230774,-7.9375,22.086956521739125,50.03030303030304,-16.38709677419356,49.94382022471908,25.472488415023196,267.0740881747287,8.439988304864615,98.80530252695648,48.695559935026324,4535.985783338333,1
-5.439845047039295,-15.41906005221933,4.461059815335222,-126.20655993752442,125.8504422958239,-110.6544948419846,126.77635923398637,21.166666666666664,15.875000000000007,-3.256410256410252,-7.9375,5.5217391304347805,26.93939393939395,8.193548387096763,52.79775280898875,17.711001398623893,267.8817768780823,8.439988304864615,98.80530252695648,48.695559935026324,4535.985783338333,1
-5.439845047039295,-15.41906005221933,4.461059815335222,-126.20655993752442,125.8504422958239,-110.6544948419846,126.77635923398637,42.333333333333336,37.04166666666668,-9.769230769230766,0.0,5.5217391304347805,11.545454545454554,61.451612903225794,47.08988764044942,26.844115623599414,521.7610102223481,8.439988304864615,98.80530252695648,48.695559935026324,4535.985783338333,1
-5.9177642501383545,-16.496736292428206,4.461059815335222,-126.57021996615904,125.83737914009463,-110.11380383166858,126.8881796169932,42.333333333333336,37.04166666666668,-9.769230769230766,0.0,5.5217391304347805,11.545454545454554,61.451612903225794,47.08988764044942,26.844115623599414,521.7610102223481,8.958520119300594,109.81064269136462,49.17600535797416,4528.612718178647,1
-5.9177642501383545,-16.496736292428206,4.461059815335222,-126.57021996615904,125.83737914009463,-110.11380383166858,126.8881796169932,21.166666666666664,47.62500000000001,-16.282051282051277,-7.9375,11.043478260869563,26.93939393939395,12.29032258064515,49.94382022471908,24.15352911929321,267.18004533461345,8.958520119300594,109.81064269136462,49.17600535797416,4528.612718178647,1
-5.9177642501383545,-16.496736292428206,4.461059815335222,-126.57021996615904,125.83737914009463,-110.11380383166858,126.8881796169932,21.166666666666664,21.166666666666675,-3.256410256410252,7.9375,5.5217391304347805,34.63636363636365,-45.06451612903227,55.65168539325841,24.300193484854088,371.9652046259799,8.958520119300594,109.81064269136462,49.17600535797416,4528.612718178647,1
-6.395683453237413,-17.077023498694523,4.486551585708566,-126.8016399843811,125.82431598436536,-109.6147044375307,126.97204490424832,21.166666666666664,21.166666666666675,-3.256410256410252,7.9375,5.5217391304347805,34.63636363636365,-45.06451612903227,55.65168539325841,24.300193484854088,371.9652046259799,9.319752845880167,116.25030583837315,49.455071689594725,4526.498715982962,1
-6.395683453237413,-17.077023498694523,4.486551585708566,-126.8016399843811,125.82431598436536,-109.6147044375307,126.97204490424832,42.333333333333336,37.04166666666668,-9.769230769230766,15.875,11.043478260869563,42.33333333333334,32.77419354838709,55.65168539325841,30.852740163134897,283.12063483620915,9.319752845880167,116.25030583837315,49.455071689594725,4526.498715982962,1
-6.395683453237413,-17.077023498694523,4.486551585708566,-126.8016399843811,125.82431598436536,-109.6147044375307,126.97204490424832,21.166666666666664,26.458333333333343,-9.769230769230766,0.0,5.5217391304347805,57.727272727272734,-8.193548387096783,52.79775280898875,22.704317977877977,476.7550240082246,9.319752845880167,116.25030583837315,49.455071689594725,4526.498715982962,1
-6.536247924737136,-18.40339425587468,4.38458450421519,-127.0,125.82431598436536,-109.11560504339283,127.0,21.166666666666664,26.458333333333343,-9.769230769230766,0.0,5.5217391304347805,57.727272727272734,-8.193548387096783,52.79775280898875,22.704317977877977,476.7550240082246,9.774742228275668,129.8976198260325,49.929326253363286,4504.048320533694,1
-6.536247924737136,-18.40339425587468,4.38458450421519,-127.0,125.82431598436536,-109.11560504339283,127.0,42.333333333333336,42.33333333333334,3.256410256410261,0.0,-1.7763568394002505e-15,34.63636363636365,-1.0658141036401503e-14,52.79775280898875,21.91964917105367,534.0483799075972,9.774742228275668,129.8976198260325,49.929326253363286,4504.048320533694,1
-6.536247924737136,-18.40339425587468,4.38458450421519,-127.0,125.82431598436536,-109.11560504339283,127.0,0.0,10.583333333333343,-16.282051282051277,-7.9375,11.043478260869563,-19.242424242424235,45.06451612903224,47.08988764044942,19.65539886102001,298.56226347388446,9.774742228275668,129.8976198260325,49.929326253363286,4504.048320533694,1
-7.323408965135587,-19.3981723237598,4.3590927338418455,-127.0,125.81125282863609,-108.74128049778942,126.97204490424832,0.0,10.583333333333343,-16.282051282051277,-7.9375,11.043478260869563,-19.242424242424235,45.06451612903224,47.08988764044942,19.65539886102001,298.56226347388446,10.360224674245744,141.11473318842076,50.25242168586721,4474.186561540931,1
-7.323408965135587,-19.3981723237598,4.3590927338418455,-127.0,125.81125282863609,-108.74128049778942,126.97204490424832,31.75,37.04166666666668,3.256410256410261,7.9375,5.5217391304347805,11.545454545454554,-1.0658141036401503e-14,47.08988764044942,18.017832279926964,319.6945835125368,10.360224674245744,141.11473318842076,50.25242168586721,4474.186561540931,1
-7.323408965135587,-19.3981723237598,4.3590927338418455,-127.0,125.81125282863609,-108.74128049778942,126.97204490424832,21.166666666666664,58.20833333333334,22.7948717948718,15.875,5.5217391304347805,42.33333333333334,-36.870967741935495,47.08988764044942,31.232599955128105,314.7976781518579,10.360224674245744,141.11473318842076,50.25242168586721,4474.186561540931,1
-7.94189263973437,-20.641644908616193,4.410076274588533,-126.96693999739685,125.81125282863609,-108.69968888161127,126.94408980849661,21.166666666666664,58.20833333333334,22.7948717948718,15.875,5.5217391304347805,42.33333333333334,-36.870967741935495,47.08988764044942,31.232599955128105,314.7976781518579,10.997871274313033,156.9072629987328,50.67288706020053,4431.4528402680735,1
-7.94189263973437,-20.641644908616193,4.410076274588533,-126.96693999739685,125.81125282863609,-108.69968888161127,126.94408980849661,10.583333333333332,37.04166666666668,3.256410256410261,0.0,5.5217391304347805,26.93939393939395,40.96774193548386,47.08988764044942,21.425021612771534,353.4968227020155,10.997871274313033,156.9072629987328,50.67288706020053,4431.4528402680735,1
-7.94189263973437,-20.641644908616193,4.410076274588533,-126.96693999739685,125.81125282863609,-108.69968888161127,126.94408980849661,31.75,47.62500000000001,9.769230769230774,15.875,11.043478260869563,42.33333333333334,-20.483870967741943,49.94382022471908,28.602966694486838,272.38038024095283,10.997871274313033,156.9072629987328,50.67288706020053,4431.4528402680735,1
-8.476037631433318,-21.470626631853793,4.588518667201942,-126.83469998698425,125.78512651717752,-108.65809726543311,126.9161347127449,31.75,47.62500000000001,9.769230769230774,15.875,11.043478260869563,42.33333333333334,-20.483870967741943,49.94382022471908,28.602966694486838,272.38038024095283,11.511727643496352,169.77017138122628,50.964615095346666,4388.453728430761,1
-8.476037631433318,-21.470626631853793,4.588518667201942,-126.83469998698425,125.78512651717752,-108.65809726543311,126.9161347127449,31.75,47.62500000000001,9.769230769230774,0.0,16.565217391304344,50.03030303030304,-1.0658141036401503e-14,52.79775280898875,26.067187999978366,500.099289030994,11.511727643496352,169.77017138122628,50.964615095346666,4388.453728430761,1
-8.476037631433318,-21.470626631853793,4.588518667201942,-126.83469998698425,125.78512651717752,-108.65809726543311,126.9161347127449,42.333333333333336,52.91666666666668,9.769230769230774,7.9375,11.043478260869563,57.727272727272734,65.54838709677418,52.79775280898875,37.509202707892,576.2563396193863,11.511727643496352,169.77017138122628,50.964615095346666,4388.453728430761,1
-8.532263420033207,-22.38250652741515,4.5375351264552535,-126.70245997657165,125.78512651717752,-108.65809726543311,126.86022452124149,42.333333333333336,52.91666666666668,9.769230769230774,7.9375,11.043478260869563,57.727272727272734,65.54838709677418,52.79775280898875,37.509202707892,576.2563396193863,11.817435024634536,181.22291847091506,51.207500543480684,4354.227425928308,1
-8.532263420033207,-22.38250652741515,4.5375351264552535,-126.70245997657165,125.78512651717752,-108.65809726543311,126.86022452124149,21.166666666666664,52.91666666666668,16.282051282051285,7.9375,11.043478260869563,42.33333333333334,-1.0658141036401503e-14,49.94382022471908,25.202939554288328,414.75141336025973,11.817435024634536,181.22291847091506,51.207500543480684,4354.227425928308,1
-8.532263420033207,-22.38250652741515,4.5375351264552535,-126.70245997657165,125.78512651717752,-108.65809726543311,126.86022452124149,21.166666666666664,26.458333333333343,9.769230769230774,7.9375,5.5217391304347805,34.63636363636365,-28.67741935483872,52.79775280898875,23.370625712482084,253.88402265599393,11.817435024634536,181.22291847091506,51.207500543480684,4354.227425928308,1
-9.066408411732155,-23.874673629242828,4.486551585708566,-126.47103995834959,125.78512651717752,-108.82446373014574,126.77635923398637,21.166666666666664,26.458333333333343,9.769230769230774,7.9375,5.5217391304347805,34.63636363636365,-28.67741935483872,52.79775280898875,23.370625712482084,253.88402265599393,12.475877875561183,201.2210898562599,51.610755057766994,4297.021510641041,1
-9.066408411732155,-23.874673629242828,4.486551585708566,-126.47103995834959,125.78512651717752,-108.82446373014574,126.77635923398637,10.583333333333332,37.04166666666668,-9.769230769230766,0.0,-5.521739130434785,26.93939393939395,16.387096774193537,47.08988764044942,19.166543531712808,268.9848233729148,12.475877875561183,201.2210898562599,51.610755057766994,4297.021510641041,1
-9.066408411732155,-23.874673629242828,4.486551585708566,-126.47103995834959,125.78512651717752,-108.82446373014574,126.77635923398637,21.166666666666664,42.33333333333334,3.256410256410261,7.9375,-1.7763568394002505e-15,42.33333333333334,-28.67741935483872,52.79775280898875,24.812801969196386,398.63629486285214,12.475877875561183,201.2210898562599,51.610755057766994,4297.021510641041,1
-9.122634200332046,-25.283942558746745,4.461059815335222,-126.27267994273072,125.82431598436536,-109.07401342721467,126.58067356372442,21.166666666666664,42.33333333333334,3.256410256410261,7.9375,-1.7763568394002505e-15,42.33333333333334,-28.67741935483872,52.79775280898875,24.812801969196386,398.63629486285214,12.955878858138002,221.74496620019687,52.005894105604234,4245.064720369675,1
-9.122634200332046,-25.283942558746745,4.461059815335222,-126.27267994273072,125.82431598436536,-109.07401342721467,126.58067356372442,31.75,42.33333333333334,9.769230769230774,-7.9375,-5.521739130434785,26.93939393939395,4.096774193548377,49.94382022471908,22.286473948832537,321.7870435551541,12.955878858138002,221.74496620019687,52.005894105604234,4245.064720369675,1
-9.122634200332046,-25.283942558746745,4.461059815335222,-126.27267994273072,125.82431598436536,-109.07401342721467,126.58067356372442,10.583333333333332,31.750000000000007,3.256410256410261,0.0,16.565217391304344,57.727272727272734,81.93548387096773,49.94382022471908,31.470192225500938,860.3346860116333,12.955878858138002,221.74496620019687,52.005894105604234,4245.064720369675,1
-9.403763143331492,-26.69321148825066,4.333600963468501,-126.00819992190551,125.86350545155317,-109.40674635663991,126.35703279771079,10.583333333333332,31.750000000000007,3.256410256410261,0.0,16.565217391304344,57.727272727272734,81.93548387096773,49.94382022471908,31.470192225500938,860.3346860116333,13.476858531683552,241.71721459809663,52.34500412454156,4194.687857015571,1
-9.403763143331492,-26.69321148825066,4.333600963468501,-126.00819992190551,125.86350545155317,-109.40674635663991,126.35703279771079,31.75,37.04166666666668,3.256410256410261,7.9375,5.5217391304347805,34.63636363636365,-8.193548387096783,52.79775280898875,22.64187261074511,348.20353524408364,13.476858531683552,241.71721459809663,52.34500412454156,4194.687857015571,1
-9.403763143331492,-26.69321148825066,4.333600963468501,-126.00819992190551,125.86350545155317,-109.40674635663991,126.35703279771079,21.166666666666664,31.750000000000007,9.769230769230774,0.0,-1.7763568394002505e-15,11.545454545454554,-20.483870967741943,47.08988764044942,17.72563882369292,258.32656891579927,13.476858531683552,241.71721459809663,52.34500412454156,4194.687857015571,1
-9.713004980630883,-27.522193211488258,4.155158570855093,-125.64453989327086,125.90269491874098,-109.73947928606518,126.07748184019371,21.166666666666664,31.750000000000007,9.769230769230774,0.0,-1.7763568394002505e-15,11.545454545454554,-20.483870967741943,47.08988764044942,17.72563882369292,258.32656891579927,13.796785587658078,252.15796027920078,52.44063055853807,4155.613833389972,1
-9.713004980630883,-27.522193211488258,4.155158570855093,-125.64453989327086,125.90269491874098,-109.73947928606518,126.07748184019371,21.166666666666664,47.62500000000001,9.769230769230774,7.9375,11.043478260869563,42.33333333333334,16.387096774193537,49.94382022471908,25.775765753626622,319.4972885569814,13.796785587658078,252.15796027920078,52.44063055853807,4155.613833389972,1
-9.713004980630883,-27.522193211488258,4.155158570855093,-125.64453989327086,125.90269491874098,-109.73947928606518,126.07748184019371,10.583333333333332,37.04166666666668,3.256410256410261,-7.9375,11.043478260869563,34.63636363636365,-28.67741935483872,49.94382022471908,22.88999896665016,286.3570519845758,13.796785587658078,252.15796027920078,52.44063055853807,4155.613833389972,1
-10.134698395130053,-28.185378590078336,3.7727820152549327,-125.1486398542236,125.91575807447028,-110.07221221549042,125.76997578692496,10.583333333333332,37.04166666666668,3.256410256410261,-7.9375,11.043478260869563,34.63636363636365,-28.67741935483872,49.94382022471908,22.88999896665016,286.3570519845758,14.03095300015444,256.761516023636,52.368933486518955,4121.657962108251,1
-10.134698395130053,-28.185378590078336,3.7727820152549327,-125.1486398542236,125.91575807447028,-110.07221221549042,125.76997578692496,42.333333333333336,42.33333333333334,-9.769230769230766,0.0,11.043478260869563,50.03030303030304,12.29032258064515,52.79775280898875,27.574719264587994,451.48333087080437,14.03095300015444,256.761516023636,52.368933486518955,4121.657962108251,1
-10.134698395130053,-28.185378590078336,3.7727820152549327,-125.1486398542236,125.91575807447028,-110.07221221549042,125.76997578692496,21.166666666666664,42.33333333333334,-9.769230769230766,0.0,5.5217391304347805,19.24242424242425,77.83870967741935,47.08988764044942,27.87024893249482,685.5218986033261,14.03095300015444,256.761516023636,52.368933486518955,4121.657962108251,1
-10.753182069728835,-28.931462140992174,3.543356081894836,-124.55355980736692,125.94188438592882,-110.52971999345014,125.43451463790447,21.166666666666664,42.33333333333334,-9.769230769230766,0.0,5.5217391304347805,19.24242424242425,77.83870967741935,47.08988764044942,27.87024893249482,685.5218986033261,14.409333430871948,264.90911467994584,52.342792676751316,4071.935149510991,1
-10.753182069728835,-28.931462140992174,3.543356081894836,-124.55355980736692,125.94188438592882,-110.52971999345014,125.43451463790447,31.75,31.750000000000007,9.769230769230774,0.0,5.5217391304347805,34.63636363636365,-1.0658141036401503e-14,52.79775280898875,20.778135793127245,382.21220631078126,14.409333430871948,264.90911467994584,52.342792676751316,4071.935149510991,1
-10.753182069728835,-28.931462140992174,3.543356081894836,-124.55355980736692,125.94188438592882,-110.52971999345014,125.43451463790447,21.166666666666664,47.62500000000001,22.7948717948718,15.875,5.5217391304347805,42.33333333333334,-16.38709677419356,49.94382022471908,27.705940990527402,276.0513874313225,14.409333430871948,264.90911467994584,52.342792676751316,4071.935149510991,1
-11.259214167127839,-29.92624020887729,3.364913689281428,-123.79317974749446,125.94188438592882,-111.02881938758802,125.0431432973806,21.166666666666664,47.62500000000001,22.7948717948718,15.875,5.5217391304347805,42.33333333333334,-16.38709677419356,49.94382022471908,27.705940990527402,276.0513874313225,14.850122688428852,278.4373174458077,52.361444548551056,4003.2456117691245,1
-11.259214167127839,-29.92624020887729,3.364913689281428,-123.79317974749446,125.94188438592882,-111.02881938758802,125.0431432973806,31.75,42.33333333333334,9.769230769230774,15.875,11.043478260869563,42.33333333333334,20.483870967741925,52.79775280898875,28.29824993418721,266.08010084905357,14.850122688428852,278.4373174458077,52.361444548551056,4003.2456117691245,1
-11.259214167127839,-29.92624020887729,3.364913689281428,-123.79317974749446,125.94188438592882,-111.02881938758802,125.0431432973806,21.166666666666664,31.750000000000007,3.256410256410261,7.9375,11.043478260869563,19.24242424242425,-32.7741935483871,49.94382022471908,22.139311649934616,238.4668104760457,14.850122688428852,278.4373174458077,52.361444548551056,4003.2456117691245,1
-12.46806862202546,-30.75522193211489,3.1354877559213317,-122.83443967200313,125.91575807447028,-111.6111020140822,124.62381686110501,21.166666666666664,31.750000000000007,3.256410256410261,7.9375,11.043478260869563,19.24242424242425,-32.7741935483871,49.94382022471908,22.139311649934616,238.4668104760457,15.452926103353894,287.7451918308718,52.24171645334645,3928.2118575603013,1
-12.46806862202546,-30.75522193211489,3.1354877559213317,-122.83443967200313,125.91575807447028,-111.6111020140822,124.62381686110501,10.583333333333332,31.750000000000007,-3.256410256410252,-7.9375,-1.7763568394002505e-15,26.93939393939395,16.387096774193537,47.08988764044942,17.992952742972562,259.34745366636264,15.452926103353894,287.7451918308718,52.24171645334645,3928.2118575603013,1
-12.46806862202546,-30.75522193211489,3.1354877559213317,-122.83443967200313,125.91575807447028,-111.6111020140822,124.62381686110501,31.75,37.04166666666668,3.256410256410261,-7.9375,-1.7763568394002505e-15,34.63636363636365,77.83870967741935,49.94382022471908,30.300558807697378,694.5274799739617,15.452926103353894,287.7451918308718,52.24171645334645,3928.2118575603013,1
-13.5644714997233,-30.589425587467368,2.9315535929345793,-121.71039958349604,125.8504422958239,-112.40134272146717,124.23244552058114,31.75,37.04166666666668,3.256410256410261,-7.9375,-1.7763568394002505e-15,34.63636363636365,77.83870967741935,49.94382022471908,30.300558807697378,694.5274799739617,15.695150226708416,280.93732512672216,51.74379292129933,3862.734006683402,1
-13.5644714997233,-30.589425587467368,2.9315535929345793,-121.71039958349604,125.8504422958239,-112.40134272146717,124.23244552058114,10.583333333333332,26.458333333333343,-3.256410256410252,-7.9375,22.086956521739125,42.33333333333334,-8.193548387096783,47.08988764044942,20.99241285071195,274.96339936264866,15.695150226708416,280.93732512672216,51.74379292129933,3862.734006683402,1
-13.5644714997233,-30.589425587467368,2.9315535929345793,-121.71039958349604,125.8504422958239,-112.40134272146717,124.23244552058114,31.75,42.33333333333334,3.256410256410261,7.9375,16.565217391304344,50.03030303030304,-1.0658141036401503e-14,47.08988764044942,24.87033145647505,417.20139965642545,15.695150226708416,280.93732512672216,51.74379292129933,3862.734006683402,1
-13.480132816823467,-29.76044386422977,3.1099959855479877,-120.71859950540153,125.78512651717752,-113.27476666120845,123.95289456306406,31.75,42.33333333333334,3.256410256410261,7.9375,16.565217391304344,50.03030303030304,-1.0658141036401503e-14,47.08988764044942,24.87033145647505,417.20139965642545,15.450190888867077,270.1244528995721,51.196346451726434,3802.5693452780106,1
-13.480132816823467,-29.76044386422977,3.1099959855479877,-120.71859950540153,125.78512651717752,-113.27476666120845,123.95289456306406,31.75,37.04166666666668,3.256410256410261,0.0,5.5217391304347805,26.93939393939395,8.193548387096763,52.79775280898875,20.6875638986239,368.2724089175043,15.450190888867077,270.1244528995721,51.196346451726434,3802.5693452780106,1
-13.480132816823467,-29.76044386422977,3.1099959855479877,-120.71859950540153,125.78512651717752,-113.27476666120845,123.95289456306406,21.166666666666664,47.62500000000001,9.769230769230774,0.0,5.5217391304347805,34.63636363636365,-49.161290322580655,47.08988764044942,26.871272270715743,414.2201940244244,15.450190888867077,270.1244528995721,51.196346451726434,3802.5693452780106,1
-12.917874930824574,-29.014360313315933,3.1609795262946756,-119.7598594299102,125.7067475828019,-114.02341575241526,123.70129870129873,21.166666666666664,47.62500000000001,9.769230769230774,0.0,5.5217391304347805,34.63636363636365,-49.161290322580655,47.08988764044942,26.871272270715743,414.2201940244244,15.03107159014506,258.8131493527358,50.6450664231736,3749.7402838027147,1
-12.917874930824574,-29.014360313315933,3.1609795262946756,-119.7598594299102,125.7067475828019,-114.02341575241526,123.70129870129873,10.583333333333332,37.04166666666668,3.256410256410261,7.9375,-1.7763568394002505e-15,42.33333333333334,16.387096774193537,52.79775280898875,21.292136646615738,397.01574536409487,15.03107159014506,258.8131493527358,50.6450664231736,3749.7402838027147,1
-12.917874930824574,-29.014360313315933,3.1609795262946756,-119.7598594299102,125.7067475828019,-114.02341575241526,123.70129870129873,21.166666666666664,21.166666666666675,3.256410256410261,-7.9375,-1.7763568394002505e-15,42.33333333333334,69.64516129032256,47.08988764044942,26.574453231731113,597.1526104708861,15.03107159014506,258.8131493527358,50.6450664231736,3749.7402838027147,1
-12.917874930824574,-29.097258485639692,3.1609795262946756,-118.83417935702201,125.64143180415552,-114.81365645980023,123.44970283953336,21.166666666666664,21.166666666666675,3.256410256410261,-7.9375,-1.7763568394002505e-15,42.33333333333334,69.64516129032256,47.08988764044942,26.574453231731113,597.1526104708861,15.05870431425298,260.1493220836088,50.364139122985456,3684.2824488021793,1
-12.917874930824574,-29.097258485639692,3.1609795262946756,-118.83417935702201,125.64143180415552,-114.81365645980023,123.44970283953336,31.75,47.62500000000001,22.7948717948718,7.9375,11.043478260869563,42.33333333333334,-12.29032258064517,47.08988764044942,27.85804920127116,276.1178627609945,15.05870431425298,260.1493220836088,50.364139122985456,3684.2824488021793,1
-12.917874930824574,-29.097258485639692,3.1609795262946756,-118.83417935702201,125.64143180415552,-114.81365645980023,123.44970283953336,31.75,52.91666666666668,-9.769230769230766,0.0,11.043478260869563,50.03030303030304,-4.096774193548399,49.94382022471908,26.193784143167193,507.2739614081619,15.05870431425298,260.1493220836088,50.364139122985456,3684.2824488021793,1
-13.058439402324296,-28.765665796344656,3.0590124448012994,-117.94155928673695,125.57611602550914,-115.6038971671852,123.19810697776802,31.75,52.91666666666668,-9.769230769230766,0.0,11.043478260869563,50.03030303030304,-4.096774193548399,49.94382022471908,26.193784143167193,507.2739614081619,14.961039214490084,253.2165600316485,49.92207917596097,3635.1952625392914,1
-13.058439402324296,-28.765665796344656,3.0590124448012994,-117.94155928673695,125.57611602550914,-115.6038971671852,123.19810697776802,21.166666666666664,31.750000000000007,-3.256410256410252,-7.9375,11.043478260869563,65.42424242424244,16.387096774193537,47.08988764044942,25.506910252853984,459.0232848814182,14.961039214490084,253.2165600316485,49.92207917596097,3635.1952625392914,1
-13.058439402324296,-28.765665796344656,3.0590124448012994,-117.94155928673695,125.57611602550914,-115.6038971671852,123.19810697776802,31.75,42.33333333333334,3.256410256410261,0.0,-1.7763568394002505e-15,34.63636363636365,-36.870967741935495,49.94382022471908,24.848861899095226,417.79734917757634,14.961039214490084,253.2165600316485,49.92207917596097,3635.1952625392914,1
-13.423907028223578,-27.770887728459538,2.855078281814547,-117.04893921645191,125.48467393540422,-116.47732110692648,123.00242130750607,31.75,42.33333333333334,3.256410256410261,0.0,-1.7763568394002505e-15,34.63636363636365,-36.870967741935495,49.94382022471908,24.848861899095226,417.79734917757634,14.683291012832555,234.79850199997398,49.224968408908666,3605.2676521722397,1
-13.423907028223578,-27.770887728459538,2.855078281814547,-117.04893921645191,125.48467393540422,-116.47732110692648,123.00242130750607,42.333333333333336,42.33333333333334,-3.256410256410252,7.9375,5.5217391304347805,34.63636363636365,16.387096774193537,52.79775280898875,25.650441159132207,382.93945918661444,14.683291012832555,234.79850199997398,49.224968408908666,3605.2676521722397,1
-13.423907028223578,-27.770887728459538,2.855078281814547,-117.04893921645191,125.48467393540422,-116.47732110692648,123.00242130750607,10.583333333333332,47.62500000000001,3.256410256410261,23.8125,5.5217391304347805,34.63636363636365,40.96774193548386,52.79775280898875,27.40010513762683,378.2552444249909,14.683291012832555,234.79850199997398,49.224968408908666,3605.2676521722397,1
-12.777310459324852,-27.35639686684074,2.829586511441203,-116.2554991539763,125.4062950010286,-117.3091534304896,122.86264582874753,10.583333333333332,47.62500000000001,3.256410256410261,23.8125,5.5217391304347805,34.63636363636365,40.96774193548386,52.79775280898875,27.40010513762683,378.2552444249909,14.321097945868933,227.88643100797248,48.81382751075274,3561.6754120767223,1
-12.777310459324852,-27.35639686684074,2.829586511441203,-116.2554991539763,125.4062950010286,-117.3091534304896,122.86264582874753,21.166666666666664,58.20833333333334,22.7948717948718,0.0,5.5217391304347805,26.93939393939395,-1.0658141036401503e-14,49.94382022471908,23.071853136177452,478.28092825051755,14.321097945868933,227.88643100797248,48.81382751075274,3561.6754120767223,1
-12.777310459324852,-27.35639686684074,2.829586511441203,-116.2554991539763,125.4062950010286,-117.3091534304896,122.86264582874753,21.166666666666664,37.04166666666668,3.256410256410261,-7.9375,11.043478260869563,50.03030303030304,-12.29032258064517,58.505617977528075,25.158995679886182,432.6956356767208,14.321097945868933,227.88643100797248,48.81382751075274,3561.6754120767223,1
-12.018262313226344,-27.522193211488258,2.600160578081107,-115.59429910191332,125.35404237811149,-117.9746192893401,122.69491525423732,21.166666666666664,37.04166666666668,3.256410256410261,-7.9375,11.043478260869563,50.03030303030304,-12.29032258064517,58.505617977528075,25.158995679886182,432.6956356767208,14.046872034265236,226.90439315852768,48.57221763049423,3524.246481216306,1
-12.018262313226344,-27.522193211488258,2.600160578081107,-115.59429910191332,125.35404237811149,-117.9746192893401,122.69491525423732,21.166666666666664,26.458333333333343,22.7948717948718,15.875,11.043478260869563,42.33333333333334,12.29032258064515,52.79775280898875,25.594969847338575,218.79962683366236,14.046872034265236,226.90439315852768,48.57221763049423,3524.246481216306,1
-12.018262313226344,-27.522193211488258,2.600160578081107,-115.59429910191332,125.35404237811149,-117.9746192893401,122.69491525423732,42.333333333333336,42.33333333333334,3.256410256410261,0.0,22.086956521739125,42.33333333333334,-24.580645161290334,49.94382022471908,28.35847902051985,362.81968940154155,14.046872034265236,226.90439315852768,48.57221763049423,3524.246481216306,1
-11.68090758162701,-27.605091383812017,2.4981934965877306,-114.93309904985031,125.32791606665295,-118.55690191583429,122.44331939247195,42.333333333333336,42.33333333333334,3.256410256410261,0.0,22.086956521739125,42.33333333333334,-24.580645161290334,49.94382022471908,28.35847902051985,362.81968940154155,13.92806415400892,226.8057162904176,48.34546131008335,3483.0242052017043,1
-11.68090758162701,-27.605091383812017,2.4981934965877306,-114.93309904985031,125.32791606665295,-118.55690191583429,122.44331939247195,21.166666666666664,31.750000000000007,-16.282051282051277,0.0,-1.7763568394002505e-15,26.93939393939395,8.193548387096763,44.23595505617976,18.570951916423553,244.5483331140154,13.92806415400892,226.8057162904176,48.34546131008335,3483.0242052017043,1
-11.68090758162701,-27.605091383812017,2.4981934965877306,-114.93309904985031,125.32791606665295,-118.55690191583429,122.44331939247195,31.75,31.750000000000007,-9.769230769230766,-15.875,-1.7763568394002505e-15,42.33333333333334,36.87096774193547,49.94382022471908,27.286544008652335,293.29988218721974,13.92806415400892,226.8057162904176,48.34546131008335,3483.0242052017043,1
-11.371665744327618,-27.10770234986946,2.5236852669610745,-114.23883899518418,125.28872659946514,-118.97281807761586,122.19172353070658,31.75,31.750000000000007,-9.769230769230766,-15.875,-1.7763568394002505e-15,42.33333333333334,36.87096774193547,49.94382022471908,27.286544008652335,293.29988218721974,13.667684453719383,219.78712664612206,47.95674220400491,3446.0807402596265,1
-11.371665744327618,-27.10770234986946,2.5236852669610745,-114.23883899518418,125.28872659946514,-118.97281807761586,122.19172353070658,10.583333333333332,42.33333333333334,3.256410256410261,0.0,11.043478260869563,34.63636363636365,-12.29032258064517,52.79775280898875,20.867624276243006,384.47873552887813,13.667684453719383,219.78712664612206,47.95674220400491,3446.0807402596265,1
-11.371665744327618,-27.10770234986946,2.5236852669610745,-114.23883899518418,125.28872659946514,-118.97281807761586,122.19172353070658,21.166666666666664,37.04166666666668,-3.256410256410252,7.9375,-1.7763568394002505e-15,34.63636363636365,8.193548387096763,55.65168539325841,20.9854801258078,390.6457086538863,13.667684453719383,219.78712664612206,47.95674220400491,3446.0807402596265,1
-11.034311012728281,-26.36161879895562,2.2432757928542904,-113.61069894572432,125.23647397654803,-119.34714262321926,121.96808276469295,21.166666666666664,37.04166666666668,-3.256410256410252,7.9375,-1.7763568394002505e-15,34.63636363636365,8.193548387096763,55.65168539325841,20.9854801258078,390.6457086538863,13.213068534846064,204.91011166034696,47.40519784584475,3432.7998992546054,1
-11.034311012728281,-26.36161879895562,2.2432757928542904,-113.61069894572432,125.23647397654803,-119.34714262321926,121.96808276469295,52.91666666666667,63.500000000000014,3.256410256410261,7.9375,5.5217391304347805,34.63636363636365,12.29032258064515,52.79775280898875,29.107094384938662,613.8671709485328,13.213068534846064,204.91011166034696,47.40519784584475,3432.7998992546054,1
-11.034311012728281,-26.36161879895562,2.2432757928542904,-113.61069894572432,125.23647397654803,-119.34714262321926,121.96808276469295,31.75,37.04166666666668,3.256410256410261,15.875,11.043478260869563,42.33333333333334,-45.06451612903227,49.94382022471908,29.5385281088789,300.2622250403639,13.213068534846064,204.91011166034696,47.40519784584475,3432.7998992546054,1
-9.741117874930827,-24.206266318537864,2.2687675632276343,-113.24703891708967,125.19728450936022,-119.51350908793188,121.85626238168612,31.75,37.04166666666668,3.256410256410261,15.875,11.043478260869563,42.33333333333334,-45.06451612903227,49.94382022471908,29.5385281088789,300.2622250403639,12.072050585565442,175.73421446231814,46.57402426628506,3454.2816248796153,1
-9.741117874930827,-24.206266318537864,2.2687675632276343,-113.24703891708967,125.19728450936022,-119.51350908793188,121.85626238168612,10.583333333333332,26.458333333333343,-9.769230769230766,7.9375,-1.7763568394002505e-15,50.03030303030304,16.387096774193537,55.65168539325841,22.102185329206552,418.7310859689865,12.072050585565442,175.73421446231814,46.57402426628506,3454.2816248796153,1
-9.741117874930827,-24.206266318537864,2.2687675632276343,-113.24703891708967,125.19728450936022,-119.51350908793188,121.85626238168612,21.166666666666664,31.750000000000007,-3.256410256410252,7.9375,11.043478260869563,19.24242424242425,36.87096774193547,52.79775280898875,23.00814999716187,276.2855611686135,12.072050585565442,175.73421446231814,46.57402426628506,3454.2816248796153,1
-8.616602102933042,-21.802219321148833,2.3962264150943544,-113.0486789014708,125.15809504217238,-119.34714262321926,121.8003521901827,21.166666666666664,31.750000000000007,-3.256410256410252,7.9375,11.043478260869563,19.24242424242425,36.87096774193547,52.79775280898875,23.00814999716187,276.2855611686135,10.93834927972541,146.78461157378206,45.74904154590467,3491.079031310493,1
-8.616602102933042,-21.802219321148833,2.3962264150943544,-113.0486789014708,125.15809504217238,-119.34714262321926,121.8003521901827,31.75,26.458333333333343,9.769230769230774,0.0,5.5217391304347805,19.24242424242425,-12.29032258064517,49.94382022471908,19.371983785098426,263.93591828067423,10.93834927972541,146.78461157378206,45.74904154590467,3491.079031310493,1
-8.616602102933042,-21.802219321148833,2.3962264150943544,-113.0486789014708,125.15809504217238,-119.34714262321926,121.8003521901827,0.0,47.62500000000001,22.7948717948718,0.0,11.043478260869563,50.03030303030304,16.387096774193537,52.79775280898875,25.084812833653338,490.6990573882002,10.93834927972541,146.78461157378206,45.74904154590467,3491.079031310493,1
-8.138682899833983,-20.144255874673636,2.472701726214386,-112.91643889105819,125.11890557498457,-119.09759292615031,121.772397094431,0.0,47.62500000000001,22.7948717948718,0.0,11.043478260869563,50.03030303030304,16.387096774193537,52.79775280898875,25.084812833653338,490.6990573882002,10.251880166907336,128.04367287608372,45.17779883064873,3519.4634744307637,1
-8.138682899833983,-20.144255874673636,2.472701726214386,-112.91643889105819,125.11890557498457,-119.09759292615031,121.772397094431,31.75,26.458333333333343,3.256410256410261,0.0,-1.7763568394002505e-15,50.03030303030304,20.483870967741925,49.94382022471908,22.740342226563456,428.39002337887723,10.251880166907336,128.04367287608372,45.17779883064873,3519.4634744307637,1
-8.138682899833983,-20.144255874673636,2.472701726214386,-112.91643889105819,125.11890557498457,-119.09759292615031,121.772397094431,42.333333333333336,37.04166666666668,9.769230769230774,0.0,-1.7763568394002505e-15,42.33333333333334,-32.7741935483871,49.94382022471908,26.77444723445879,412.1871293126869,10.251880166907336,128.04367287608372,45.17779883064873,3519.4634744307637,1
-8.36358605423354,-19.31527415143604,2.6766358892011386,-112.85031888585189,125.09277926352603,-118.84804322908138,121.772397094431,42.333333333333336,37.04166666666668,9.769230769230774,0.0,-1.7763568394002505e-15,42.33333333333334,-32.7741935483871,49.94382022471908,26.77444723445879,412.1871293126869,10.118498698290239,120.91167999569697,44.947409642163024,3527.3148836228625,1
-8.36358605423354,-19.31527415143604,2.6766358892011386,-112.85031888585189,125.09277926352603,-118.84804322908138,121.772397094431,31.75,42.33333333333334,3.256410256410261,0.0,5.5217391304347805,34.63636363636365,28.677419354838698,55.65168539325841,25.228368888079892,409.81211454047764,10.118498698290239,120.91167999569697,44.947409642163024,3527.3148836228625,1
-8.36358605423354,-19.31527415143604,2.6766358892011386,-112.85031888585189,125.09277926352603,-118.84804322908138,121.772397094431,10.583333333333332,37.04166666666668,3.256410256410261,15.875,5.5217391304347805,50.03030303030304,49.16129032258063,52.79775280898875,28.033436943589685,456.8113062676936,10.118498698290239,120.91167999569697,44.947409642163024,3527.3148836228625,1
-8.138682899833983,-17.988903394255882,2.5491770373344185,-112.75113887804244,125.04052664060892,-118.43212706729982,121.772397094431,10.583333333333332,37.04166666666668,3.256410256410261,15.875,5.5217391304347805,50.03030303030304,49.16129032258063,52.79775280898875,28.033436943589685,456.8113062676936,9.558921110474762,105.51165693995517,44.429739769877585,3560.456469567016,1
-8.138682899833983,-17.988903394255882,2.5491770373344185,-112.75113887804244,125.04052664060892,-118.43212706729982,121.772397094431,21.166666666666664,47.62500000000001,9.769230769230774,-7.9375,-5.521739130434785,65.42424242424244,-1.0658141036401503e-14,52.79775280898875,26.280266474945428,635.4021046266909,9.558921110474762,105.51165693995517,44.429739769877585,3560.456469567016,1
-8.138682899833983,-17.988903394255882,2.5491770373344185,-112.75113887804244,125.04052664060892,-118.43212706729982,121.772397094431,42.333333333333336,37.04166666666668,3.256410256410261,0.0,-1.7763568394002505e-15,26.93939393939395,28.677419354838698,47.08988764044942,23.167263898886546,378.0866143562401,9.558921110474762,105.51165693995517,44.429739769877585,3560.456469567016,1
-7.632650802434978,-15.750652741514369,2.6256523484544507,-112.81725888324874,124.96214770623327,-117.93302767316194,121.94012766894124,42.333333333333336,37.04166666666668,3.256410256410261,0.0,-1.7763568394002505e-15,26.93939393939395,28.677419354838698,47.08988764044942,23.167263898886546,378.0866143562401,8.6696519641346,84.8038879630098,43.73118799107252,3622.730302318555,1
-7.632650802434978,-15.750652741514369,2.6256523484544507,-112.81725888324874,124.96214770623327,-117.93302767316194,121.94012766894124,31.75,47.62500000000001,3.256410256410261,7.9375,11.043478260869563,34.63636363636365,12.29032258064515,47.08988764044942,24.453620296842253,322.3029313151643,8.6696519641346,84.8038879630098,43.73118799107252,3622.730302318555,1
-7.632650802434978,-15.750652741514369,2.6256523484544507,-112.81725888324874,124.96214770623327,-117.93302767316194,121.94012766894124,31.75,37.04166666666668,22.7948717948718,7.9375,5.5217391304347805,34.63636363636365,-32.7741935483871,52.79775280898875,28.156760948214096,244.60713035447134,8.6696519641346,84.8038879630098,43.73118799107252,3622.730302318555,1
-6.142667404537911,-13.429503916449093,3.1099959855479877,-113.21397891448652,124.92295823904546,-117.3091534304896,122.19172353070658,31.75,37.04166666666668,22.7948717948718,7.9375,5.5217391304347805,34.63636363636365,-32.7741935483871,52.79775280898875,28.156760948214096,244.60713035447134,7.560722435511664,68.71080386161987,43.251159605494536,3697.7201252309787,1
-6.142667404537911,-13.429503916449093,3.1099959855479877,-113.21397891448652,124.92295823904546,-117.3091534304896,122.19172353070658,10.583333333333332,31.750000000000007,-9.769230769230766,0.0,11.043478260869563,26.93939393939395,45.06451612903224,47.08988764044942,22.779980009038663,308.57784148906205,7.560722435511664,68.71080386161987,43.251159605494536,3697.7201252309787,1
-6.142667404537911,-13.429503916449093,3.1099959855479877,-113.21397891448652,124.92295823904546,-117.3091534304896,122.19172353070658,21.166666666666664,26.458333333333343,-3.256410256410252,-7.9375,11.043478260869563,11.545454545454554,-81.93548387096774,49.94382022471908,26.66089339480265,714.0454328942125,7.560722435511664,68.71080386161987,43.251159605494536,3697.7201252309787,1
-5.5241837299391285,-12.434725848563977,3.466880770774804,-113.74293895613692,124.90989508331619,-116.56050433928279,122.47127448822366,21.166666666666664,26.458333333333343,-3.256410256410252,-7.9375,11.043478260869563,11.545454545454554,-81.93548387096774,49.94382022471908,26.66089339480265,714.0454328942125,7.141930116425969,63.57598771758087,43.214848525158565,3750.764216215002,1
-5.5241837299391285,-12.434725848563977,3.466880770774804,-113.74293895613692,124.90989508331619,-116.56050433928279,122.47127448822366,42.333333333333336,58.20833333333334,9.769230769230774,0.0,5.5217391304347805,26.93939393939395,-32.7741935483871,52.79775280898875,28.542997107887754,482.30122749194015,7.141930116425969,63.57598771758087,43.214848525158565,3750.764216215002,1
-5.5241837299391285,-12.434725848563977,3.466880770774804,-113.74293895613692,124.90989508331619,-116.56050433928279,122.47127448822366,21.166666666666664,42.33333333333334,-3.256410256410252,15.875,5.5217391304347805,42.33333333333334,-1.0658141036401503e-14,47.08988764044942,22.19704629507848,371.59229142370344,7.141930116425969,63.57598771758087,43.214848525158565,3750.764216215002,1
-6.31134477033758,-12.600522193211496,3.7217984745082444,-114.13965898737473,124.84457930466981,-115.97822171278861,122.80673563724412,21.166666666666664,42.33333333333334,-3.256410256410252,15.875,5.5217391304347805,42.33333333333334,-1.0658141036401503e-14,47.08988764044942,22.19704629507848,371.59229142370344,7.544555146019107,67.77264466797557,43.48732655169815,3763.521992669283,1
-6.31134477033758,-12.600522193211496,3.7217984745082444,-114.13965898737473,124.84457930466981,-115.97822171278861,122.80673563724412,10.583333333333332,21.166666666666675,3.256410256410261,7.9375,11.043478260869563,34.63636363636365,-20.483870967741943,44.23595505617976,19.16794727219565,198.91514325672364,7.544555146019107,67.77264466797557,43.48732655169815,3763.521992669283,1
-6.31134477033758,-12.600522193211496,3.7217984745082444,-114.13965898737473,124.84457930466981,-115.97822171278861,122.80673563724412,52.91666666666667,58.20833333333334,22.7948717948718,-7.9375,5.5217391304347805,34.63636363636365,-53.25806451612904,49.94382022471908,35.6521699128148,451.9071306615253,7.544555146019107,67.77264466797557,43.48732655169815,3763.521992669283,1
-6.873602656336472,-13.015013054830295,3.5688478522681804,-114.33801900299363,124.72701090310635,-115.43753070247257,123.17015188201631,52.91666666666667,58.20833333333334,22.7948717948718,-7.9375,5.5217391304347805,34.63636363636365,-53.25806451612904,49.94382022471908,35.6521699128148,451.9071306615253,7.819154521144983,70.29768948222912,43.64062663669737,3770.898474804058,1
-6.873602656336472,-13.015013054830295,3.5688478522681804,-114.33801900299363,124.72701090310635,-115.43753070247257,123.17015188201631,31.75,26.458333333333343,-3.256410256410252,15.875,-5.521739130434785,26.93939393939395,12.29032258064515,49.94382022471908,21.50437743311707,238.9825002671428,7.819154521144983,70.29768948222912,43.64062663669737,3770.898474804058,1
-6.873602656336472,-13.015013054830295,3.5688478522681804,-114.33801900299363,124.72701090310635,-115.43753070247257,123.17015188201631,21.166666666666664,31.750000000000007,3.256410256410261,7.9375,5.5217391304347805,34.63636363636365,-49.161290322580655,52.79775280898875,25.778465352680595,378.295234443733,7.819154521144983,70.29768948222912,43.64062663669737,3770.898474804058,1
-6.929828444936362,-13.595300261096613,3.339421918908084,-114.50331901600939,124.63556881300143,-114.77206484362208,123.42174774378165,21.166666666666664,31.750000000000007,3.256410256410261,7.9375,5.5217391304347805,34.63636363636365,-49.161290322580655,52.79775280898875,25.778465352680595,378.295234443733,7.954850208313686,72.7784721468815,43.812680398671354,3774.170551237755,1
-6.929828444936362,-13.595300261096613,3.339421918908084,-114.50331901600939,124.63556881300143,-114.77206484362208,123.42174774378165,31.75,42.33333333333334,9.769230769230774,7.9375,16.565217391304344,34.63636363636365,4.096774193548377,44.23595505617976,23.915546797495033,261.5251071278663,7.954850208313686,72.7784721468815,43.812680398671354,3774.170551237755,1
-6.929828444936362,-13.595300261096613,3.339421918908084,-114.50331901600939,124.63556881300143,-114.77206484362208,123.42174774378165,21.166666666666664,31.750000000000007,-3.256410256410252,0.0,-1.7763568394002505e-15,42.33333333333334,40.96774193548386,49.94382022471908,23.677246552076653,420.9500886108286,7.954850208313686,72.7784721468815,43.812680398671354,3774.170551237755,1
-6.986054233536251,-13.097911227154054,3.1609795262946756,-114.56943902121569,124.51800041143797,-114.02341575241526,123.64538850979531,21.166666666666664,31.750000000000007,-3.256410256410252,0.0,-1.7763568394002505e-15,42.33333333333334,40.96774193548386,49.94382022471908,23.677246552076653,420.9500886108286,7.7483149956616595,67.44476976102733,43.60944325822147,3801.176401920004,1
-6.986054233536251,-13.097911227154054,3.1609795262946756,-114.56943902121569,124.51800041143797,-114.02341575241526,123.64538850979531,21.166666666666664,26.458333333333343,-3.256410256410252,-7.9375,5.5217391304347805,42.33333333333334,-16.38709677419356,49.94382022471908,21.62561246488638,295.12360173907825,7.7483149956616595,67.44476976102733,43.60944325822147,3801.176401920004,1
-6.986054233536251,-13.097911227154054,3.1609795262946756,-114.56943902121569,124.51800041143797,-114.02341575241526,123.64538850979531,31.75,42.33333333333334,-9.769230769230766,0.0,11.043478260869563,26.93939393939395,-49.161290322580655,49.94382022471908,27.617568356265924,364.6682611956724,7.7483149956616595,67.44476976102733,43.60944325822147,3801.176401920004,1
-6.62058660763697,-13.346605744125334,3.1609795262946756,-114.63555902642196,124.42655832133305,-113.10840019649582,123.78516398855382,31.75,42.33333333333334,-9.769230769230766,0.0,11.043478260869563,26.93939393939395,-49.161290322580655,49.94382022471908,27.617568356265924,364.6682611956724,7.709390626018993,68.90312348617897,43.71438143228065,3798.296818867138,1
-6.62058660763697,-13.346605744125334,3.1609795262946756,-114.63555902642196,124.42655832133305,-113.10840019649582,123.78516398855382,0.0,47.62500000000001,22.7948717948718,-7.9375,5.5217391304347805,34.63636363636365,12.29032258064515,52.79775280898875,22.95044374391302,400.82711240641396,7.709390626018993,68.90312348617897,43.71438143228065,3798.296818867138,1
-6.62058660763697,-13.346605744125334,3.1609795262946756,-114.63555902642196,124.42655832133305,-113.10840019649582,123.78516398855382,31.75,26.458333333333343,16.282051282051285,15.875,5.5217391304347805,34.63636363636365,-28.67741935483872,49.94382022471908,26.143090870217605,186.35485260125864,7.709390626018993,68.90312348617897,43.71438143228065,3798.296818867138,1
-7.070392916436085,-13.843994778067893,3.2884383781613957,-114.60249902381881,124.33511623122813,-112.19338464057638,123.84107418005723,31.75,26.458333333333343,16.282051282051285,15.875,5.5217391304347805,34.63636363636365,-28.67741935483872,49.94382022471908,26.143090870217605,186.35485260125864,8.067608690888457,74.45122230374977,43.91164406001604,3775.752674362951,1
-7.070392916436085,-13.843994778067893,3.2884383781613957,-114.60249902381881,124.33511623122813,-112.19338464057638,123.84107418005723,10.583333333333332,58.20833333333334,9.769230769230774,0.0,11.043478260869563,26.93939393939395,8.193548387096763,55.65168539325841,22.548625427064515,505.72349924470757,8.067608690888457,74.45122230374977,43.91164406001604,3775.752674362951,1
-7.070392916436085,-13.843994778067893,3.2884383781613957,-114.60249902381881,124.33511623122813,-112.19338464057638,123.84107418005723,31.75,47.62500000000001,9.769230769230774,-7.9375,-5.521739130434785,42.33333333333334,61.451612903225794,52.79775280898875,32.39827111815168,489.1378962475811,8.067608690888457,74.45122230374977,43.91164406001604,3775.752674362951,1
-7.492086330935255,-14.75587467362925,3.415897230028116,-114.56943902121569,124.24367414112321,-111.40314393319142,123.89698437156065,31.75,47.62500000000001,9.769230769230774,-7.9375,-5.521739130434785,42.33333333333334,61.451612903225794,52.79775280898875,32.39827111815168,489.1378962475811,8.554619411530874,83.66000342870927,44.24707030829102,3741.0754281527397,1
-7.492086330935255,-14.75587467362925,3.415897230028116,-114.56943902121569,124.24367414112321,-111.40314393319142,123.89698437156065,21.166666666666664,37.04166666666668,9.769230769230774,7.9375,11.043478260869563,34.63636363636365,-1.0658141036401503e-14,55.65168539325841,22.15582392413197,352.8937911995034,8.554619411530874,83.66000342870927,44.24707030829102,3741.0754281527397,1
-7.492086330935255,-14.75587467362925,3.415897230028116,-114.56943902121569,124.24367414112321,-111.40314393319142,123.89698437156065,10.583333333333332,26.458333333333343,3.256410256410261,0.0,11.043478260869563,26.93939393939395,-28.67741935483872,52.79775280898875,19.969515160895988,298.58410133467856,8.554619411530874,83.66000342870927,44.24707030829102,3741.0754281527397,1
-7.88566685113448,-15.999347258485646,3.1864712966680195,-114.43719901080308,124.16529520674759,-110.77926969051907,123.92493946731236,10.583333333333332,26.458333333333343,3.256410256410261,0.0,11.043478260869563,26.93939393939395,-28.67741935483872,52.79775280898875,19.969515160895988,298.58410133467856,9.023828468762716,92.75328109132269,44.54100585531892,3705.1508108247945,1
-7.88566685113448,-15.999347258485646,3.1864712966680195,-114.43719901080308,124.16529520674759,-110.77926969051907,123.92493946731236,21.166666666666664,31.750000000000007,-9.769230769230766,0.0,11.043478260869563,42.33333333333334,12.29032258064515,49.94382022471908,22.28710647943307,305.3305652543354,9.023828468762716,92.75328109132269,44.54100585531892,3705.1508108247945,1
-7.88566685113448,-15.999347258485646,3.1864712966680195,-114.43719901080308,124.16529520674759,-110.77926969051907,123.92493946731236,31.75,52.91666666666668,16.282051282051285,0.0,-1.7763568394002505e-15,42.33333333333334,-45.06451612903227,49.94382022471908,29.786298454475336,470.40851482911495,9.023828468762716,92.75328109132269,44.54100585531892,3705.1508108247945,1
-7.210957387935808,-17.408616187989562,3.1864712966680195,-114.40413900819993,124.12610573955975,-109.9890289831341,123.84107418005723,31.75,52.91666666666668,16.282051282051285,0.0,-1.7763568394002505e-15,42.33333333333334,-45.06451612903227,49.94382022471908,29.786298454475336,470.40851482911495,9.268681624197798,106.04273279240594,44.99974216428584,3663.295077278071,1
-7.210957387935808,-17.408616187989562,3.1864712966680195,-114.40413900819993,124.12610573955975,-109.9890289831341,123.84107418005723,21.166666666666664,37.04166666666668,3.256410256410261,15.875,5.5217391304347805,34.63636363636365,-4.096774193548399,49.94382022471908,21.44230509685119,306.55558906509214,9.268681624197798,106.04273279240594,44.99974216428584,3663.295077278071,1
-7.210957387935808,-17.408616187989562,3.1864712966680195,-114.40413900819993,124.12610573955975,-109.9890289831341,123.84107418005723,0.0,37.04166666666668,-3.256410256410252,0.0,5.5217391304347805,42.33333333333334,61.451612903225794,52.79775280898875,25.30031438738245,664.0494509460059,9.268681624197798,106.04273279240594,44.99974216428584,3663.295077278071,1
-7.745102379634757,-18.90078328981724,3.1609795262946756,-114.27189899778733,124.09997942810121,-109.40674635663991,123.70129870129873,0.0,37.04166666666668,-3.256410256410252,0.0,5.5217391304347805,42.33333333333334,61.451612903225794,52.79775280898875,25.30031438738245,664.0494509460059,9.935621731915559,121.68553627717161,45.44455393796642,3614.8379266162906,1
-7.745102379634757,-18.90078328981724,3.1609795262946756,-114.27189899778733,124.09997942810121,-109.40674635663991,123.70129870129873,42.333333333333336,26.458333333333343,9.769230769230774,0.0,5.5217391304347805,34.63636363636365,-1.0658141036401503e-14,47.08988764044942,20.726110980393166,371.2348256719888,9.935621731915559,121.68553627717161,45.44455393796642,3614.8379266162906,1
-7.745102379634757,-18.90078328981724,3.1609795262946756,-114.27189899778733,124.09997942810121,-109.40674635663991,123.70129870129873,31.75,37.04166666666668,-3.256410256410252,7.9375,11.043478260869563,42.33333333333334,-20.483870967741943,49.94382022471908,25.473759963717608,298.64282594446473,9.935621731915559,121.68553627717161,45.44455393796642,3614.8379266162906,1
-8.644714997232986,-21.304830287206272,3.415897230028116,-114.00741897696213,124.0607899609134,-109.19878827574914,123.6174334140436,31.75,37.04166666666668,-3.256410256410252,7.9375,11.043478260869563,42.33333333333334,-20.483870967741943,49.94382022471908,25.473759963717608,298.64282594446473,11.121814171489126,152.8085425721875,46.24271549806551,3524.0447596681383,1
-8.644714997232986,-21.304830287206272,3.415897230028116,-114.00741897696213,124.0607899609134,-109.19878827574914,123.6174334140436,10.583333333333332,42.33333333333334,-3.256410256410252,15.875,22.086956521739125,57.727272727272734,20.483870967741925,52.79775280898875,28.14299124360243,408.282510805435,11.121814171489126,152.8085425721875,46.24271549806551,3524.0447596681383,1
-8.644714997232986,-21.304830287206272,3.415897230028116,-114.00741897696213,124.0607899609134,-109.19878827574914,123.6174334140436,10.583333333333332,21.166666666666675,-3.256410256410252,0.0,16.565217391304344,26.93939393939395,-40.96774193548388,47.08988764044942,20.821081395380233,285.4928937887812,11.121814171489126,152.8085425721875,46.24271549806551,3524.0447596681383,1
-8.644714997232986,-23.12859007832899,3.4413890004014602,-113.77599895874008,124.0607899609134,-109.03242181103651,123.42174774378165,10.583333333333332,21.166666666666675,-3.256410256410252,0.0,16.565217391304344,26.93939393939395,-40.96774193548388,47.08988764044942,20.821081395380233,285.4928937887812,11.73823135865448,176.9700559084338,46.78199267915684,3463.0441296123163,1
-8.644714997232986,-23.12859007832899,3.4413890004014602,-113.77599895874008,124.0607899609134,-109.03242181103651,123.42174774378165,21.166666666666664,37.04166666666668,9.769230769230774,0.0,-1.7763568394002505e-15,19.24242424242425,-4.096774193548399,49.94382022471908,17.657572845406982,328.95304498218513,11.73823135865448,176.9700559084338,46.78199267915684,3463.0441296123163,1
-8.644714997232986,-23.12859007832899,3.4413890004014602,-113.77599895874008,124.0607899609134,-109.03242181103651,123.42174774378165,10.583333333333332,42.33333333333334,29.307692307692314,39.6875,27.60869565217391,88.51515151515153,81.93548387096773,47.08988764044942,45.882634706637695,717.782908250036,11.73823135865448,176.9700559084338,46.78199267915684,3463.0441296123163,1
-9.403763143331492,-24.620757180156666,3.31393014853474,-113.41233893010542,124.0607899609134,-109.07401342721467,123.17015188201631,10.583333333333332,42.33333333333334,29.307692307692314,39.6875,27.60869565217391,88.51515151515153,81.93548387096773,47.08988764044942,45.882634706637695,717.782908250036,12.446150157340966,195.60723105575073,47.115675419598944,3409.930914007855,1
-9.403763143331492,-24.620757180156666,3.31393014853474,-113.41233893010542,124.0607899609134,-109.07401342721467,123.17015188201631,0.0,26.458333333333343,-22.79487179487179,-31.75,-27.608695652173914,19.24242424242425,-8.193548387096783,47.08988764044942,22.892220131293687,207.48355172960095,12.446150157340966,195.60723105575073,47.115675419598944,3409.930914007855,1
-9.403763143331492,-24.620757180156666,3.31393014853474,-113.41233893010542,124.0607899609134,-109.07401342721467,123.17015188201631,0.0,21.166666666666675,-3.256410256410252,-7.9375,-5.521739130434785,34.63636363636365,-16.38709677419356,52.79775280898875,17.71294115913221,328.2795067245208,12.446150157340966,195.60723105575073,47.115675419598944,3409.930914007855,1
-10.162811289429998,-25.366840731070504,3.2884383781613957,-112.94949889366134,124.0607899609134,-109.24037989192729,122.91855602025095,0.0,21.166666666666675,-3.256410256410252,-7.9375,-5.521739130434785,34.63636363636365,-16.38709677419356,52.79775280898875,17.71294115913221,328.2795067245208,12.939363466220632,205.5372749516885,47.20159266763108,3363.9543424443877,1
-10.162811289429998,-25.366840731070504,3.2884383781613957,-112.94949889366134,124.0607899609134,-109.24037989192729,122.91855602025095,31.75,42.33333333333334,9.769230769230774,7.9375,5.5217391304347805,42.33333333333334,24.580645161290313,55.65168539325841,27.48468339011012,348.46739093399987,12.939363466220632,205.5372749516885,47.20159266763108,3363.9543424443877,1
-10.162811289429998,-25.366840731070504,3.2884383781613957,-112.94949889366134,124.0607899609134,-109.24037989192729,122.91855602025095,42.333333333333336,42.33333333333334,3.256410256410261,7.9375,11.043478260869563,57.727272727272734,-36.870967741935495,52.79775280898875,31.787506057767935,453.6761996831948,12.939363466220632,205.5372749516885,47.20159266763108,3363.9543424443877,1
-9.713004980630883,-26.030026109660582,3.262946607788052,-112.61889886762984,124.08691627237194,-109.44833797281808,122.66696015848561,42.333333333333336,42.33333333333334,3.256410256410261,7.9375,11.043478260869563,57.727272727272734,-36.870967741935495,52.79775280898875,31.787506057767935,453.6761996831948,13.001992566026507,215.44979146256392,47.30395719502616,3329.116181532862,1
-9.713004980630883,-26.030026109660582,3.262946607788052,-112.61889886762984,124.08691627237194,-109.44833797281808,122.66696015848561,31.75,52.91666666666668,29.307692307692314,23.8125,16.565217391304344,42.33333333333334,8.193548387096763,49.94382022471908,31.852847288851567,249.3454292359043,13.001992566026507,215.44979146256392,47.30395719502616,3329.116181532862,1
-9.713004980630883,-26.030026109660582,3.262946607788052,-112.61889886762984,124.08691627237194,-109.44833797281808,122.66696015848561,10.583333333333332,37.04166666666668,-9.769230769230766,-23.8125,-5.521739130434785,11.545454545454554,73.74193548387095,49.94382022471908,27.744960019213767,583.4782770644839,13.001992566026507,215.44979146256392,47.30395719502616,3329.116181532862,1
-8.30736026563365,-25.118146214099223,3.0590124448012994,-112.48665885721724,124.13916889528902,-109.40674635663991,122.41536429672024,10.583333333333332,37.04166666666668,-9.769230769230766,-23.8125,-5.521739130434785,11.545454545454554,73.74193548387095,49.94382022471908,27.744960019213767,583.4782770644839,12.161506308178057,200.95820381441675,46.88793917203926,3349.0453639138627,1
-8.30736026563365,-25.118146214099223,3.0590124448012994,-112.48665885721724,124.13916889528902,-109.40674635663991,122.41536429672024,21.166666666666664,21.166666666666675,-9.769230769230766,-7.9375,-1.7763568394002505e-15,42.33333333333334,4.096774193548377,49.94382022471908,19.551748981770615,328.51572488597,12.161506308178057,200.95820381441675,46.88793917203926,3349.0453639138627,1
-8.30736026563365,-25.118146214099223,3.0590124448012994,-112.48665885721724,124.13916889528902,-109.40674635663991,122.41536429672024,21.166666666666664,42.33333333333334,16.282051282051285,-7.9375,-5.521739130434785,26.93939393939395,-8.193548387096783,49.94382022471908,22.289756620461986,273.0459928788559,12.161506308178057,200.95820381441675,46.88793917203926,3349.0453639138627,1
-7.239070282235753,-23.874673629242828,3.31393014853474,-112.55277886242354,124.2044846739354,-109.28197150810546,122.21967862645829,21.166666666666664,42.33333333333334,16.282051282051285,-7.9375,-5.521739130434785,26.93939393939395,-8.193548387096783,49.94382022471908,22.289756620461986,273.0459928788559,11.475891353337772,187.88821536596265,46.580460880067044,3369.9460980937392,1
-7.239070282235753,-23.874673629242828,3.31393014853474,-112.55277886242354,124.2044846739354,-109.28197150810546,122.21967862645829,21.166666666666664,37.04166666666668,9.769230769230774,7.9375,22.086956521739125,42.33333333333334,24.580645161290313,49.94382022471908,26.857477417955746,226.64284741933074,11.475891353337772,187.88821536596265,46.580460880067044,3369.9460980937392,1
-7.239070282235753,-23.874673629242828,3.31393014853474,-112.55277886242354,124.2044846739354,-109.28197150810546,122.21967862645829,31.75,42.33333333333334,-3.256410256410252,0.0,5.5217391304347805,19.24242424242425,-36.870967741935495,52.79775280898875,23.971578439190857,394.5023847992662,11.475891353337772,187.88821536596265,46.580460880067044,3369.9460980937392,1
-7.492086330935255,-23.625979112271548,3.008028904054611,-112.55277886242354,124.25673729685248,-109.11560504339283,122.05194805194807,31.75,42.33333333333334,-3.256410256410252,0.0,5.5217391304347805,19.24242424242425,-36.870967741935495,52.79775280898875,23.971578439190857,394.5023847992662,11.375364782420471,179.9875498735746,46.3955956262499,3388.8546380056196,1
-7.492086330935255,-23.625979112271548,3.008028904054611,-112.55277886242354,124.25673729685248,-109.11560504339283,122.05194805194807,0.0,42.33333333333334,-9.769230769230766,0.0,16.565217391304344,57.727272727272734,16.387096774193537,52.79775280898875,24.447487975540437,538.442245790858,11.375364782420471,179.9875498735746,46.3955956262499,3388.8546380056196,1
-7.492086330935255,-23.625979112271548,3.008028904054611,-112.55277886242354,124.25673729685248,-109.11560504339283,122.05194805194807,31.75,37.04166666666668,3.256410256410261,-15.875,-1.7763568394002505e-15,42.33333333333334,73.74193548387095,47.08988764044942,31.386029172591336,601.3637803470164,11.375364782420471,179.9875498735746,46.3955956262499,3388.8546380056196,1
-7.210957387935808,-22.38250652741515,3.0335206744279555,-112.58583886502669,124.30898991976959,-108.78287211396757,121.85626238168612,31.75,37.04166666666668,3.256410256410261,-15.875,-1.7763568394002505e-15,42.33333333333334,73.74193548387095,47.08988764044942,31.386029172591336,601.3637803470164,10.875661529926305,163.51661213111956,46.00062202228994,3418.78913988048,1
-7.210957387935808,-22.38250652741515,3.0335206744279555,-112.58583886502669,124.30898991976959,-108.78287211396757,121.85626238168612,31.75,31.750000000000007,9.769230769230774,-7.9375,5.5217391304347805,26.93939393939395,-1.0658141036401503e-14,52.79775280898875,20.808202081006034,322.0771194065892,10.875661529926305,163.51661213111956,46.00062202228994,3418.78913988048,1
-7.210957387935808,-22.38250652741515,3.0335206744279555,-112.58583886502669,124.30898991976959,-108.78287211396757,121.85626238168612,31.75,37.04166666666668,-3.256410256410252,15.875,22.086956521739125,50.03030303030304,-1.0658141036401503e-14,49.94382022471908,26.248019587479774,373.76417034584676,10.875661529926305,163.51661213111956,46.00062202228994,3418.78913988048,1
-7.09850581073603,-21.96801566579635,3.1354877559213317,-112.68501887283614,124.36124254268667,-108.49173080072049,121.74444199867929,31.75,37.04166666666668,-3.256410256410252,15.875,22.086956521739125,50.03030303030304,-1.0658141036401503e-14,49.94382022471908,26.248019587479774,373.76417034584676,10.734003077484571,159.33713861605196,45.92950743151794,3430.8897577130288,1
-7.09850581073603,-21.96801566579635,3.1354877559213317,-112.68501887283614,124.36124254268667,-108.49173080072049,121.74444199867929,21.166666666666664,31.750000000000007,-3.256410256410252,0.0,5.5217391304347805,26.93939393939395,20.483870967741925,49.94382022471908,19.88273764817083,282.0433045366433,10.734003077484571,159.33713861605196,45.92950743151794,3430.8897577130288,1
-7.09850581073603,-21.96801566579635,3.1354877559213317,-112.68501887283614,124.36124254268667,-108.49173080072049,121.74444199867929,31.75,52.91666666666668,9.769230769230774,15.875,11.043478260869563,34.63636363636365,-40.96774193548388,49.94382022471908,30.862787686666703,289.9962073679495,10.734003077484571,159.33713861605196,45.92950743151794,3430.8897577130288,1
-6.929828444936362,-21.470626631853793,3.2119630670413635,-112.75113887804244,124.38736885414524,-108.15899787129523,121.63262161567246,31.75,52.91666666666668,9.769230769230774,15.875,11.043478260869563,34.63636363636365,-40.96774193548388,49.94382022471908,30.862787686666703,289.9962073679495,10.537472714610507,153.92016353818167,45.8112428589792,3444.0569580755014,1
-6.929828444936362,-21.470626631853793,3.2119630670413635,-112.75113887804244,124.38736885414524,-108.15899787129523,121.63262161567246,31.75,37.04166666666668,3.256410256410261,7.9375,5.5217391304347805,19.24242424242425,12.29032258064515,49.94382022471908,20.872985387662524,287.78589043275696,10.537472714610507,153.92016353818167,45.8112428589792,3444.0569580755014,1
-6.929828444936362,-21.470626631853793,3.2119630670413635,-112.75113887804244,124.38736885414524,-108.15899787129523,121.63262161567246,31.75,42.33333333333334,29.307692307692314,23.8125,16.565217391304344,34.63636363636365,86.03225806451611,55.65168539325841,40.01113126580852,484.5383174809561,10.537472714610507,153.92016353818167,45.8112428589792,3444.0569580755014,1
-6.592473713337026,-20.227154046997395,3.390405459654772,-112.85031888585189,124.37430569841597,-107.74308170951367,121.63262161567246,31.75,42.33333333333334,29.307692307692314,23.8125,16.565217391304344,34.63636363636365,86.03225806451611,55.65168539325841,40.01113126580852,484.5383174809561,10.07001107332973,140.55858357231904,45.48929279750135,3473.999902504927,1
-6.592473713337026,-20.227154046997395,3.390405459654772,-112.85031888585189,124.37430569841597,-107.74308170951367,121.63262161567246,42.333333333333336,52.91666666666668,3.256410256410261,-23.8125,-16.565217391304348,11.545454545454554,-8.193548387096783,58.505617977528075,27.141093569724255,453.5082747046487,10.07001107332973,140.55858357231904,45.48929279750135,3473.999902504927,1
-6.592473713337026,-20.227154046997395,3.390405459654772,-112.85031888585189,124.37430569841597,-107.74308170951367,121.63262161567246,10.583333333333332,42.33333333333334,9.769230769230774,-7.9375,-5.521739130434785,11.545454545454554,-20.483870967741943,52.79775280898875,20.121526861064687,313.504554435939,10.07001107332973,140.55858357231904,45.48929279750135,3473.999902504927,1
-6.283231876037634,-19.64686684073108,4.1806503412284375,-113.0486789014708,124.37430569841597,-107.41034878008843,121.71648690292758,10.583333333333332,42.33333333333334,9.769230769230774,-7.9375,-5.521739130434785,11.545454545454554,-20.483870967741943,52.79775280898875,20.121526861064687,313.504554435939,10.036916352665715,142.6383575971617,45.62539869447678,3469.224998605496,1
-6.283231876037634,-19.64686684073108,4.1806503412284375,-113.0486789014708,124.37430569841597,-107.41034878008843,121.71648690292758,21.166666666666664,37.04166666666668,9.769230769230774,15.875,16.565217391304344,42.33333333333334,16.387096774193537,49.94382022471908,26.135253978264302,218.9419993765421,10.036916352665715,142.6383575971617,45.62539869447678,3469.224998605496,1
-6.283231876037634,-19.64686684073108,4.1806503412284375,-113.0486789014708,124.37430569841597,-107.41034878008843,121.71648690292758,21.166666666666664,37.04166666666668,3.256410256410261,0.0,11.043478260869563,26.93939393939395,-36.870967741935495,49.94382022471908,23.28280046958271,313.6499245878757,10.036916352665715,142.6383575971617,45.62539869447678,3469.224998605496,1
-7.126618705035974,-19.978459530026118,4.461059815335222,-113.21397891448652,124.36124254268667,-107.2439823153758,121.82830728593441,21.166666666666664,37.04166666666668,3.256410256410261,0.0,11.043478260869563,26.93939393939395,-36.870967741935495,49.94382022471908,23.28280046958271,313.6499245878757,10.522046016799104,149.45570198577443,45.88449941994929,3460.141530230355,1
-7.126618705035974,-19.978459530026118,4.461059815335222,-113.21397891448652,124.36124254268667,-107.2439823153758,121.82830728593441,21.166666666666664,42.33333333333334,3.256410256410261,-7.9375,5.5217391304347805,26.93939393939395,12.29032258064515,52.79775280898875,21.53038983948411,328.594398491069,10.522046016799104,149.45570198577443,45.88449941994929,3460.141530230355,1
-7.126618705035974,-19.978459530026118,4.461059815335222,-113.21397891448652,124.36124254268667,-107.2439823153758,121.82830728593441,21.166666666666664,37.04166666666668,-9.769230769230766,-15.875,16.565217391304344,42.33333333333334,73.74193548387095,49.94382022471908,33.30460881697398,470.3951943300213,10.522046016799104,149.45570198577443,45.88449941994929,3460.141530230355,1
-9.03829551743221,-20.973237597911233,4.155158570855093,-113.0486789014708,124.30898991976959,-107.36875716391026,121.88421747743783,21.166666666666664,37.04166666666668,-9.769230769230766,-15.875,16.565217391304344,42.33333333333334,73.74193548387095,49.94382022471908,33.30460881697398,470.3951943300213,11.388897228732844,157.99106120976734,46.059025023412374,3436.422240566627,1
-9.03829551743221,-20.973237597911233,4.155158570855093,-113.0486789014708,124.30898991976959,-107.36875716391026,121.88421747743783,31.75,31.750000000000007,35.820512820512825,15.875,-1.7763568394002505e-15,26.93939393939395,-4.096774193548399,49.94382022471908,24.521937647271784,282.5065770235545,11.388897228732844,157.99106120976734,46.059025023412374,3436.422240566627,1
-9.03829551743221,-20.973237597911233,4.155158570855093,-113.0486789014708,124.30898991976959,-107.36875716391026,121.88421747743783,21.166666666666664,42.33333333333334,9.769230769230774,-7.9375,-11.043478260869566,19.24242424242425,-4.096774193548399,49.94382022471908,20.69165346134901,282.4032173572345,11.388897228732844,157.99106120976734,46.059025023412374,3436.422240566627,1
-9.62866629773105,-20.724543080939956,4.614010437575286,-112.85031888585189,124.24367414112321,-107.57671524480105,121.96808276469295,21.166666666666664,42.33333333333334,9.769230769230774,-7.9375,-11.043478260869566,19.24242424242425,-4.096774193548399,49.94382022471908,20.69165346134901,282.4032173572345,11.655739938748765,161.3357694308753,46.06295746812237,3410.3010493700485,1
-9.62866629773105,-20.724543080939956,4.614010437575286,-112.85031888585189,124.24367414112321,-107.57671524480105,121.96808276469295,31.75,47.62500000000001,9.769230769230774,7.9375,16.565217391304344,42.33333333333334,4.096774193548377,49.94382022471908,26.25260948901699,356.96216242487895,11.655739938748765,161.3357694308753,46.06295746812237,3410.3010493700485,1
-9.62866629773105,-20.724543080939956,4.614010437575286,-112.85031888585189,124.24367414112321,-107.57671524480105,121.96808276469295,42.333333333333336,42.33333333333334,3.256410256410261,23.8125,11.043478260869563,50.03030303030304,-49.161290322580655,52.79775280898875,34.34605016822737,364.8681557465053,11.655739938748765,161.3357694308753,46.06295746812237,3410.3010493700485,1
-9.713004980630883,-20.310052219321157,4.588518667201942,-112.65195887023299,124.17835836247686,-107.78467332569183,122.07990314769978,42.333333333333336,42.33333333333334,3.256410256410261,23.8125,11.043478260869563,50.03030303030304,-49.161290322580655,52.79775280898875,34.34605016822737,364.8681557465053,11.537191955717995,156.12830350329506,45.850176585585366,3408.650241611699,1
-9.713004980630883,-20.310052219321157,4.588518667201942,-112.65195887023299,124.17835836247686,-107.78467332569183,122.07990314769978,10.583333333333332,26.458333333333343,-9.769230769230766,0.0,16.565217391304344,50.03030303030304,4.096774193548377,47.08988764044942,20.574134961437824,361.82952958017677,11.537191955717995,156.12830350329506,45.850176585585366,3408.650241611699,1
-9.713004980630883,-20.310052219321157,4.588518667201942,-112.65195887023299,124.17835836247686,-107.78467332569183,122.07990314769978,10.583333333333332,42.33333333333334,-22.79487179487179,-15.875,-1.7763568394002505e-15,50.03030303030304,69.64516129032256,52.79775280898875,33.0074694488941,585.8397084972645,11.537191955717995,156.12830350329506,45.850176585585366,3408.650241611699,1
-9.431876037631437,-19.895561357702356,4.715977519068662,-112.51971885982039,124.11304258383048,-107.95103979040445,122.19172353070658,10.583333333333332,42.33333333333334,-22.79487179487179,-15.875,-1.7763568394002505e-15,50.03030303030304,69.64516129032256,52.79775280898875,33.0074694488941,585.8397084972645,11.347804971467484,152.56305277035176,45.71041924553047,3405.216827592497,1
-9.431876037631437,-19.895561357702356,4.715977519068662,-112.51971885982039,124.11304258383048,-107.95103979040445,122.19172353070658,21.166666666666664,37.04166666666668,3.256410256410261,0.0,38.65217391304347,80.81818181818183,4.096774193548377,47.08988764044942,29.015220144370836,765.0661703076829,11.347804971467484,152.56305277035176,45.71041924553047,3405.216827592497,1
-8.869618151632544,-18.81788511749348,4.563026896828598,-112.48665885721724,124.07385311664267,-107.9926314065826,122.30354391371341,21.166666666666664,37.04166666666668,3.256410256410261,0.0,38.65217391304347,80.81818181818183,4.096774193548377,47.08988764044942,29.015220144370836,765.0661703076829,10.750176721984873,137.67850254057635,45.28919029051311,3437.4250820527063,1
-8.869618151632544,-18.81788511749348,4.563026896828598,-112.48665885721724,124.07385311664267,-107.9926314065826,122.30354391371341,42.333333333333336,37.04166666666668,3.256410256410261,-15.875,-16.565217391304348,42.33333333333334,-1.0658141036401503e-14,47.08988764044942,25.561856077687175,354.78902579212905,10.750176721984873,137.67850254057635,45.28919029051311,3437.4250820527063,1
-8.869618151632544,-18.81788511749348,4.563026896828598,-112.48665885721724,124.07385311664267,-107.9926314065826,122.30354391371341,21.166666666666664,47.62500000000001,-3.256410256410252,-7.9375,5.5217391304347805,50.03030303030304,24.580645161290313,49.94382022471908,26.257760558728016,415.1615314032484,10.750176721984873,137.67850254057635,45.28919029051311,3437.4250820527063,1
-8.616602102933042,-18.81788511749348,4.486551585708566,-112.61889886762984,124.0607899609134,-108.03422302276077,122.41536429672024,21.166666666666664,47.62500000000001,-3.256410256410252,-7.9375,5.5217391304347805,50.03030303030304,24.580645161290313,49.94382022471908,26.257760558728016,415.1615314032484,10.640346268711694,136.47593029747867,45.30777852361063,3449.436971675093,1
-8.616602102933042,-18.81788511749348,4.486551585708566,-112.61889886762984,124.0607899609134,-108.03422302276077,122.41536429672024,10.583333333333332,47.62500000000001,22.7948717948718,15.875,16.565217391304344,42.33333333333334,-45.06451612903227,52.79775280898875,31.704878098857982,285.01512377667206,10.640346268711694,136.47593029747867,45.30777852361063,3449.436971675093,1
-8.616602102933042,-18.81788511749348,4.486551585708566,-112.61889886762984,124.0607899609134,-108.03422302276077,122.41536429672024,42.333333333333336,42.33333333333334,3.256410256410261,-7.9375,-1.7763568394002505e-15,19.24242424242425,16.387096774193537,55.65168539325841,23.392722916619142,430.856053017566,10.640346268711694,136.47593029747867,45.30777852361063,3449.436971675093,1
-8.223021582733816,-18.40339425587468,4.588518667201942,-112.68501887283614,124.03466364945483,-107.95103979040445,122.52718467972707,42.333333333333336,42.33333333333334,3.256410256410261,-7.9375,-1.7763568394002505e-15,19.24242424242425,16.387096774193537,55.65168539325841,23.392722916619142,430.856053017566,10.40497816860348,132.73393520034918,45.22564393197092,3460.7881474418023,1
-8.223021582733816,-18.40339425587468,4.588518667201942,-112.68501887283614,124.03466364945483,-107.95103979040445,122.52718467972707,31.75,31.750000000000007,-22.79487179487179,7.9375,11.043478260869563,19.24242424242425,-4.096774193548399,49.94382022471908,22.319858589554137,230.96063242697306,10.40497816860348,132.73393520034918,45.22564393197092,3460.7881474418023,1
-8.223021582733816,-18.40339425587468,4.588518667201942,-112.68501887283614,124.03466364945483,-107.95103979040445,122.52718467972707,42.333333333333336,47.62500000000001,9.769230769230774,7.9375,5.5217391304347805,34.63636363636365,-4.096774193548399,55.65168539325841,25.94645330702117,453.8581333363262,10.40497816860348,132.73393520034918,45.22564393197092,3460.7881474418023,1
-7.94189263973437,-19.06657963446476,4.614010437575286,-112.78419888064559,124.02160049372556,-107.82626494186998,122.6110499669822,42.333333333333336,47.62500000000001,9.769230769230774,7.9375,5.5217391304347805,34.63636363636365,-4.096774193548399,55.65168539325841,25.94645330702117,453.8581333363262,10.540827570591471,140.3632848295865,45.488262984228534,3448.776430228724,1
-7.94189263973437,-19.06657963446476,4.614010437575286,-112.78419888064559,124.02160049372556,-107.82626494186998,122.6110499669822,84.66666666666667,127.00000000000001,42.333333333333336,7.9375,5.5217391304347805,34.63636363636365,12.29032258064515,61.35955056179773,46.96818448865517,1807.2414845399849,10.540827570591471,140.3632848295865,45.488262984228534,3448.776430228724,1
-7.94189263973437,-19.06657963446476,4.614010437575286,-112.78419888064559,124.02160049372556,-107.82626494186998,122.6110499669822,21.166666666666664,10.583333333333343,22.7948717948718,23.8125,-11.043478260869566,-3.848484848484844,49.16129032258063,41.3820224719101,22.974080962339617,241.46891255397531,10.540827570591471,140.3632848295865,45.488262984228534,3448.776430228724,1
-6.114554510237967,-19.812663185378597,4.945403452428758,-113.14785890928022,124.08691627237194,-107.57671524480105,122.6110499669822,21.166666666666664,10.583333333333343,22.7948717948718,23.8125,-11.043478260869566,-3.848484848484844,49.16129032258063,41.3820224719101,22.974080962339617,241.46891255397531,10.290873716015106,153.8204525090046,45.96864184902919,3440.0442566129905,1
-6.114554510237967,-19.812663185378597,4.945403452428758,-113.14785890928022,124.08691627237194,-107.57671524480105,122.6110499669822,-52.91666666666667,-84.66666666666666,-16.282051282051277,0.0,16.565217391304344,103.90909090909092,-32.7741935483871,41.3820224719101,43.56198861700963,1272.9533683923987,10.290873716015106,153.8204525090046,45.96864184902919,3440.0442566129905,1
-6.114554510237967,-19.812663185378597,4.945403452428758,-113.14785890928022,124.08691627237194,-107.57671524480105,122.6110499669822,84.66666666666667,121.70833333333334,87.92307692307693,7.9375,-66.26086956521739,-3.848484848484844,-8.193548387096783,52.79775280898875,54.16702906660808,1937.4783591271357,10.290873716015106,153.8204525090046,45.96864184902919,3440.0442566129905,1
-3.921748754842283,-18.90078328981724,5.098354074668823,-113.74293895613692,124.16529520674759,-106.91124938595054,122.69491525423732,84.66666666666667,121.70833333333334,87.92307692307693,7.9375,-66.26086956521739,-3.848484848484844,-8.193548387096783,52.79775280898875,54.16702906660808,1937.4783591271357,9.306962039776115,146.94872081573297,45.914025440207666,3498.197894623354,1
-3.921748754842283,-18.90078328981724,5.098354074668823,-113.74293895613692,124.16529520674759,-106.91124938595054,122.69491525423732,31.75,79.37500000000001,100.94871794871796,-31.75,-5.521739130434785,42.33333333333334,8.193548387096763,52.79775280898875,44.08376145107145,1091.0675345823554,9.306962039776115,146.94872081573297,45.914025440207666,3498.197894623354,1
-3.921748754842283,-18.90078328981724,5.098354074668823,-113.74293895613692,124.16529520674759,-106.91124938595054,122.69491525423732,0.0,10.583333333333343,-22.79487179487179,63.5,77.30434782608695,11.545454545454554,-20.483870967741943,52.79775280898875,32.37620390955966,799.2236961174237,9.306962039776115,146.94872081573297,45.914025440207666,3498.197894623354,1
-2.4036524626452715,-18.154699738903403,5.96507426736252,-114.63555902642196,124.33511623122813,-105.9130505976748,122.58309487123049,0.0,10.583333333333343,-22.79487179487179,63.5,77.30434782608695,11.545454545454554,-20.483870967741943,52.79775280898875,32.37620390955966,799.2236961174237,8.841142156303732,149.98242924896783,46.25177767756262,3544.402905960561,1
-2.4036524626452715,-18.154699738903403,5.96507426736252,-114.63555902642196,124.33511623122813,-105.9130505976748,122.58309487123049,-21.16666666666667,-52.91666666666666,-127.0,-7.9375,27.60869565217391,57.727272727272734,16.387096774193537,49.94382022471908,45.08596483896157,1433.6931004181984,8.841142156303732,149.98242924896783,46.25177767756262,3544.402905960561,1
-2.4036524626452715,-18.154699738903403,5.96507426736252,-114.63555902642196,124.33511623122813,-105.9130505976748,122.58309487123049,-10.583333333333336,-31.75,16.282051282051285,47.625,27.60869565217391,-3.848484848484844,32.77419354838709,55.65168539325841,28.265430507211107,315.7353614903832,8.841142156303732,149.98242924896783,46.25177767756262,3544.402905960561,1
-9.403763143331492,-17.491514360313325,6.194500200722617,-113.61069894572432,123.99547418226702,-105.28917635500245,122.722870349989,-10.583333333333336,-31.75,16.282051282051285,47.625,27.60869565217391,-3.848484848484844,32.77419354838709,55.65168539325841,28.265430507211107,315.7353614903832,11.029925901455812,144.95747081397667,45.76557116892008,3484.126654518669,1
-9.403763143331492,-17.491514360313325,6.194500200722617,-113.61069894572432,123.99547418226702,-105.28917635500245,122.722870349989,42.333333333333336,10.583333333333343,-3.256410256410252,-15.875,77.30434782608695,19.24242424242425,-16.38709677419356,52.79775280898875,29.722462321846304,643.1017832047083,11.029925901455812,144.95747081397667,45.76557116892008,3484.126654518669,1
-9.403763143331492,-17.491514360313325,6.194500200722617,-113.61069894572432,123.99547418226702,-105.28917635500245,122.722870349989,84.66666666666667,116.41666666666669,22.7948717948718,39.6875,-1.7763568394002505e-15,80.81818181818183,32.77419354838709,67.06741573033706,55.528187028138895,1464.6738070643983,11.029925901455812,144.95747081397667,45.76557116892008,3484.126654518669,1
-4.652684006640845,-2.9843342036553615,4.308109193095158,-112.65195887023299,123.43375848590823,-102.41935483870968,123.05833149900948,84.66666666666667,116.41666666666669,22.7948717948718,39.6875,-1.7763568394002505e-15,80.81818181818183,32.77419354838709,67.06741573033706,55.528187028138895,1464.6738070643983,3.981709134463788,22.709822754727824,39.98146742232784,3961.1883405157087,1
-4.652684006640845,-2.9843342036553615,4.308109193095158,-112.65195887023299,123.43375848590823,-102.41935483870968,123.05833149900948,-10.583333333333336,-26.45833333333333,-87.92307692307692,-87.3125,-11.043478260869566,34.63636363636365,20.483870967741925,58.505617977528075,42.11832180403085,1019.7855155992269,3.981709134463788,22.709822754727824,39.98146742232784,3961.1883405157087,1
-4.652684006640845,-2.9843342036553615,4.308109193095158,-112.65195887023299,123.43375848590823,-102.41935483870968,123.05833149900948,52.91666666666667,-10.583333333333329,42.333333333333336,15.875,33.13043478260869,73.12121212121212,28.677419354838698,61.35955056179773,39.74961876922382,478.253707176671,3.981709134463788,22.709822754727824,39.98146742232784,3961.1883405157087,1
-15.279358052019926,-3.481723237597919,-1.147129666800467,-109.0153585838865,122.12744291298087,-100.33977402980186,123.78516398855382,52.91666666666667,-10.583333333333329,42.333333333333336,15.875,33.13043478260869,73.12121212121212,28.677419354838698,61.35955056179773,39.74961876922382,478.253707176671,6.636070318806104,57.392398914545595,37.881403829428294,3796.392221042182,1
-15.279358052019926,-3.481723237597919,-1.147129666800467,-109.0153585838865,122.12744291298087,-100.33977402980186,123.78516398855382,52.91666666666667,79.37500000000001,81.41025641025641,127.0,88.34782608695652,65.42424242424244,49.16129032258063,52.79775280898875,74.55412933996143,668.6790729592179,6.636070318806104,57.392398914545595,37.881403829428294,3796.392221042182,1
-15.279358052019926,-3.481723237597919,-1.147129666800467,-109.0153585838865,122.12744291298087,-100.33977402980186,123.78516398855382,0.0,42.33333333333334,-55.35897435897435,15.875,-44.17391304347826,-11.54545454545454,16.387096774193537,35.67415730337077,27.668491169850597,372.88487192660693,6.636070318806104,57.392398914545595,37.881403829428294,3796.392221042182,1
-13.367681239623689,0.1657963446475108,-12.414492171818534,-104.25471820903294,120.54680106973872,-95.72310463402653,123.84107418005723,0.0,42.33333333333334,-55.35897435897435,15.875,-44.17391304347826,-11.54545454545454,16.387096774193537,35.67415730337077,27.668491169850597,372.88487192660693,8.64932325202991,57.05454068008028,38.945002241832995,3236.526887153888,1
-13.367681239623689,0.1657963446475108,-12.414492171818534,-104.25471820903294,120.54680106973872,-95.72310463402653,123.84107418005723,0.0,-15.874999999999993,9.769230769230774,-31.75,-110.43478260869564,-127.0,-57.35483870967742,49.94382022471908,50.26595903904036,2178.7124002555215,8.64932325202991,57.05454068008028,38.945002241832995,3236.526887153888,1
-13.367681239623689,0.1657963446475108,-12.414492171818534,-104.25471820903294,120.54680106973872,-95.72310463402653,123.84107418005723,31.75,68.79166666666669,22.7948717948718,-15.875,77.30434782608695,127.00000000000001,16.387096774193537,44.23595505617976,50.517367264749836,1489.4659140378924,8.64932325202991,57.05454068008028,38.945002241832995,3236.526887153888,1
-5.692861095738797,17.40861618798955,-25.38980329185065,-98.8659377847195,118.54813824315984,-86.82249877190108,123.39379264802994,31.75,68.79166666666669,22.7948717948718,-15.875,77.30434782608695,127.00000000000001,16.387096774193537,44.23595505617976,50.517367264749836,1489.4659140378924,16.163760191859666,458.89208242332563,47.2214524215199,2016.2894882190135,1
-5.692861095738797,17.40861618798955,-25.38980329185065,-98.8659377847195,118.54813824315984,-86.82249877190108,123.39379264802994,63.5,95.25000000000001,22.7948717948718,55.5625,-66.26086956521739,42.33333333333334,28.677419354838698,58.505617977528075,54.11057650322367,530.8414046772107,16.163760191859666,458.89208242332563,47.2214524215199,2016.2894882190135,1
-5.692861095738797,17.40861618798955,-25.38980329185065,-98.8659377847195,118.54813824315984,-86.82249877190108,123.39379264802994,42.333333333333336,111.12500000000001,22.7948717948718,-127.0,-27.608695652173914,73.12121212121212,-24.580645161290334,49.94382022471908,59.813447285950076,1625.1200198995316,16.163760191859666,458.89208242332563,47.2214524215199,2016.2894882190135,1
-2.4598782512451614,29.677545691905998,-34.26093938177438,-92.74983730313679,116.22289652334909,-74.7609300802358,122.1637684349549,42.333333333333336,111.12500000000001,22.7948717948718,-127.0,-27.608695652173914,73.12121212121212,-24.580645161290334,49.94382022471908,59.813447285950076,1625.1200198995316,22.13278777497518,1022.0418967077883,52.229440792272385,1236.6787744773353,1
-2.4598782512451614,29.677545691905998,-34.26093938177438,-92.74983730313679,116.22289652334909,-74.7609300802358,122.1637684349549,21.166666666666664,42.33333333333334,-22.79487179487179,-95.25,-33.130434782608695,34.63636363636365,20.483870967741925,49.94382022471908,39.96742017578815,609.2039583238308,22.13278777497518,1022.0418967077883,52.229440792272385,1236.6787744773353,1
-2.4598782512451614,29.677545691905998,-34.26093938177438,-92.74983730313679,116.22289652334909,-74.7609300802358,122.1637684349549,-31.75,-15.874999999999993,-35.82051282051282,-7.9375,33.13043478260869,57.727272727272734,-16.38709677419356,35.67415730337077,29.28774680099482,245.0372048495865,22.13278777497518,1022.0418967077883,52.229440792272385,1236.6787744773353,1
-15.729164360819041,35.97780678851174,-48.61280610196707,-85.27827671482493,113.7278337790578,-62.616178156214175,119.87145058331501,-31.75,-15.874999999999993,-35.82051282051282,-7.9375,33.13043478260869,57.727272727272734,-16.38709677419356,35.67415730337077,29.28774680099482,245.0372048495865,33.439925750432614,1818.4194247974565,56.62296320176791,655.7560463114451,1
-15.729164360819041,35.97780678851174,-48.61280610196707,-85.27827671482493,113.7278337790578,-62.616178156214175,119.87145058331501,21.166666666666664,63.500000000000014,29.307692307692314,47.625,5.5217391304347805,50.03030303030304,-24.580645161290334,44.23595505617976,35.74600016907087,354.2422381555113,33.439925750432614,1818.4194247974565,56.62296320176791,655.7560463114451,1
-15.729164360819041,35.97780678851174,-48.61280610196707,-85.27827671482493,113.7278337790578,-62.616178156214175,119.87145058331501,52.91666666666667,52.91666666666668,3.256410256410261,-15.875,-22.086956521739133,-11.54545454545454,36.87096774193547,75.62921348314605,33.88716698525235,625.231961149963,33.439925750432614,1818.4194247974565,56.62296320176791,655.7560463114451,1
-37.460431654676256,39.54242819843341,-63.85688478522681,-73.27749576988157,109.91339230610986,-50.4298346160144,116.82434514637904,52.91666666666667,52.91666666666668,3.256410256410261,-15.875,-22.086956521739133,-11.54545454545454,36.87096774193547,75.62921348314605,33.88716698525235,625.231961149963,46.953248212778824,2886.271848153988,58.89226958451393,302.9992490809053,1
-37.460431654676256,39.54242819843341,-63.85688478522681,-73.27749576988157,109.91339230610986,-50.4298346160144,116.82434514637904,10.583333333333332,31.750000000000007,-29.307692307692307,0.0,33.13043478260869,65.42424242424244,-12.29032258064517,44.23595505617976,28.340247560587713,434.21173900329046,46.953248212778824,2886.271848153988,58.89226958451393,302.9992490809053,1
-37.460431654676256,39.54242819843341,-63.85688478522681,-73.27749576988157,109.91339230610986,-50.4298346160144,116.82434514637904,-10.583333333333336,-15.874999999999993,-22.79487179487179,0.0,11.043478260869563,34.63636363636365,-4.096774193548399,44.23595505617976,17.90822203439581,230.46182781390306,46.953248212778824,2886.271848153988,58.89226958451393,302.9992490809053,1
-53.597232982844496,33.32506527415143,-77.62244078683258,-57.90459455941692,105.06696153054925,-38.57622400523988,112.57517059211975,-10.583333333333336,-15.874999999999993,-22.79487179487179,0.0,11.043478260869563,34.63636363636365,-4.096774193548399,44.23595505617976,17.90822203439581,230.46182781390306,54.84824634794284,3407.0076075758416,56.28403354013364,492.5340328407864,1
-53.597232982844496,33.32506527415143,-77.62244078683258,-57.90459455941692,105.06696153054925,-38.57622400523988,112.57517059211975,-10.583333333333336,37.04166666666668,35.820512820512825,39.6875,33.13043478260869,73.12121212121212,40.96774193548386,58.505617977528075,41.1072524546682,338.49282272480883,54.84824634794284,3407.0076075758416,56.28403354013364,492.5340328407864,1
-53.597232982844496,33.32506527415143,-77.62244078683258,-57.90459455941692,105.06696153054925,-38.57622400523988,112.57517059211975,0.0,31.750000000000007,-22.79487179487179,-7.9375,-22.086956521739133,19.24242424242425,-8.193548387096783,44.23595505617976,19.530157000288966,203.04497439569099,54.84824634794284,3407.0076075758416,56.28403354013364,492.5340328407864,1
-58.26397343663531,36.475195822454296,-87.36029706945001,-41.87049329688921,99.67187821435918,-26.348288848861955,107.40347787805416,0.0,31.750000000000007,-22.79487179487179,-7.9375,-22.086956521739133,19.24242424242425,-8.193548387096783,44.23595505617976,19.530157000288966,203.04497439569099,60.69982210951321,4192.889256771468,55.235328729597846,781.2875018367894,1
-58.26397343663531,36.475195822454296,-87.36029706945001,-41.87049329688921,99.67187821435918,-26.348288848861955,107.40347787805416,-42.33333333333334,21.166666666666675,-22.79487179487179,-7.9375,16.565217391304344,26.93939393939395,-36.870967741935495,38.528089887640434,26.642005094393255,141.1995481922999,60.69982210951321,4192.889256771468,55.235328729597846,781.2875018367894,1
-58.26397343663531,36.475195822454296,-87.36029706945001,-41.87049329688921,99.67187821435918,-26.348288848861955,107.40347787805416,21.166666666666664,31.750000000000007,-9.769230769230766,-7.9375,16.565217391304344,65.42424242424244,45.06451612903224,52.79775280898875,31.309390773683152,449.35138407525716,60.69982210951321,4192.889256771468,55.235328729597846,781.2875018367894,1
-84.91499723298284,33.82245430809399,-98.42372541148133,-21.902251724586733,92.4740794075293,-16.32470934992631,101.70063834470616,21.166666666666664,31.750000000000007,-9.769230769230766,-7.9375,16.565217391304344,65.42424242424244,45.06451612903224,52.79775280898875,31.309390773683152,449.35138407525716,72.38705898418605,5295.020030982057,51.382810481387345,1695.1585655032172,1
-84.91499723298284,33.82245430809399,-98.42372541148133,-21.902251724586733,92.4740794075293,-16.32470934992631,101.70063834470616,21.166666666666664,52.91666666666668,16.282051282051285,7.9375,11.043478260869563,26.93939393939395,-4.096774193548399,64.2134831460674,25.574501769407995,475.9590996465683,72.38705898418605,5295.020030982057,51.382810481387345,1695.1585655032172,1
-84.91499723298284,33.82245430809399,-98.42372541148133,-21.902251724586733,92.4740794075293,-16.32470934992631,101.70063834470616,42.333333333333336,42.33333333333334,16.282051282051285,-15.875,5.5217391304347805,26.93939393939395,-28.67741935483872,49.94382022471908,28.48826132476306,240.24212614977313,72.38705898418605,5295.020030982057,51.382810481387345,1695.1585655032172,1
-108.78284449363586,44.18472584856396,-114.7894419911682,1.3719901080307295,83.09473359391072,-6.883412477484853,94.93550517279331,42.333333333333336,42.33333333333334,16.282051282051285,-15.875,5.5217391304347805,26.93939393939395,-28.67741935483872,49.94382022471908,28.48826132476306,240.24212614977313,89.25233744445602,8117.990471704757,53.44871931592096,3280.245779138376,1
-108.78284449363586,44.18472584856396,-114.7894419911682,1.3719901080307295,83.09473359391072,-6.883412477484853,94.93550517279331,63.5,58.20833333333334,35.820512820512825,39.6875,11.043478260869563,19.24242424242425,45.06451612903224,44.23595505617976,39.600339980293995,316.1472983542711,89.25233744445602,8117.990471704757,53.44871931592096,3280.245779138376,1
-108.78284449363586,44.18472584856396,-114.7894419911682,1.3719901080307295,83.09473359391072,-6.883412477484853,94.93550517279331,10.583333333333332,68.79166666666669,35.820512820512825,31.75,5.5217391304347805,26.93939393939395,-8.193548387096783,38.528089887640434,28.266035520634844,435.9271954178069,89.25233744445602,8117.990471704757,53.44871931592096,3280.245779138376,1
-120.44969562811289,59.935378590078315,-124.88418305901243,24.051151893791484,72.68339847767949,2.017193384640592,87.27580893682591,10.583333333333332,68.79166666666669,35.820512820512825,31.75,5.5217391304347805,26.93939393939395,-8.193548387096783,38.528089887640434,28.266035520634844,435.9271954178069,101.75641909240123,11119.451674606533,69.62357118096075,2612.220850250126,1
-120.44969562811289,59.935378590078315,-124.88418305901243,24.051151893791484,72.68339847767949,2.017193384640592,87.27580893682591,116.41666666666667,63.500000000000014,-22.79487179487179,-31.75,-11.043478260869566,19.24242424242425,-40.96774193548388,69.92134831460672,46.954566401865364,1219.21266318195,101.75641909240123,11119.451674606533,69.62357118096075,2612.220850250126,1
-120.44969562811289,59.935378590078315,-124.88418305901243,24.051151893791484,72.68339847767949,2.017193384640592,87.27580893682591,21.166666666666664,21.166666666666675,-3.256410256410252,-7.9375,11.043478260869563,26.93939393939395,40.96774193548386,52.79775280898875,23.159451316809964,284.63287515567424,101.75641909240123,11119.451674606533,69.62357118096075,2612.220850250126,1
-127.0,73.19908616187989,-127.0,45.3748535728231,61.305389837482,9.919600458490265,79.1967862645829,21.166666666666664,21.166666666666675,-3.256410256410252,-7.9375,11.043478260869563,26.93939393939395,40.96774193548386,52.79775280898875,23.159451316809964,284.63287515567424,109.06636205395996,13359.89136668394,81.85797991156767,1721.898463040804,1
-127.0,73.19908616187989,-127.0,45.3748535728231,61.305389837482,9.919600458490265,79.1967862645829,21.166666666666664,47.62500000000001,3.256410256410261,0.0,16.565217391304344,42.33333333333334,-28.67741935483872,35.67415730337077,24.412275538240515,302.950921912461,109.06636205395996,13359.89136668394,81.85797991156767,1721.898463040804,1
-127.0,73.19908616187989,-127.0,45.3748535728231,61.305389837482,9.919600458490265,79.1967862645829,84.66666666666667,42.33333333333334,-3.256410256410252,31.75,11.043478260869563,42.33333333333334,-8.193548387096783,58.505617977528075,35.260298526904755,776.7177341393773,109.06636205395996,13359.89136668394,81.85797991156767,1721.898463040804,1
-125.34133923630327,88.36945169712793,-125.13910076274587,64.11987504880909,49.496297058218474,17.614049451449176,70.72639225181598,84.66666666666667,42.33333333333334,-3.256410256410252,31.75,11.043478260869563,42.33333333333334,-8.193548387096783,58.505617977528075,35.260298526904755,776.7177341393773,112.9499638987257,15209.707505883936,92.54280916956095,943.8991611266254,1
-125.34133923630327,88.36945169712793,-125.13910076274587,64.11987504880909,49.496297058218474,17.614049451449176,70.72639225181598,42.333333333333336,47.62500000000001,9.769230769230774,15.875,11.043478260869563,42.33333333333334,49.16129032258063,44.23595505617976,32.797077634440924,298.6057898828659,112.9499638987257,15209.707505883936,92.54280916956095,943.8991611266254,1
-125.34133923630327,88.36945169712793,-125.13910076274587,64.11987504880909,49.496297058218474,17.614049451449176,70.72639225181598,21.166666666666664,37.04166666666668,3.256410256410261,-7.9375,11.043478260869563,34.63636363636365,-12.29032258064517,55.65168539325841,22.87801168261005,325.1845467326261,112.9499638987257,15209.707505883936,92.54280916956095,943.8991611266254,1
-117.35727725511899,102.4621409921671,-121.54476114010437,79.75725628009894,37.73945690187203,25.68282299001146,61.69689632401497,21.166666666666664,37.04166666666668,3.256410256410261,-7.9375,11.043478260869563,34.63636363636365,-12.29032258064517,55.65168539325841,22.87801168261005,325.1845467326261,113.78805979579681,16419.533977126557,101.25471947079014,437.6422906539575,1
-117.35727725511899,102.4621409921671,-121.54476114010437,79.75725628009894,37.73945690187203,25.68282299001146,61.69689632401497,21.166666666666664,42.33333333333334,9.769230769230774,15.875,27.60869565217391,50.03030303030304,-8.193548387096783,52.79775280898875,28.471816330974157,317.4922880003789,113.78805979579681,16419.533977126557,101.25471947079014,437.6422906539575,1
-117.35727725511899,102.4621409921671,-121.54476114010437,79.75725628009894,37.73945690187203,25.68282299001146,61.69689632401497,31.75,37.04166666666668,3.256410256410261,-7.9375,11.043478260869563,50.03030303030304,40.96774193548386,55.65168539325841,29.709848192873977,398.9729494440607,113.78805979579681,16419.533977126557,101.25471947079014,437.6422906539575,1
-107.51776425013836,111.91253263707571,-117.36411079887594,92.48535728231161,26.30919563875745,33.95955460946456,52.05238828967643,31.75,37.04166666666668,3.256410256410261,-7.9375,11.043478260869563,50.03030303030304,40.96774193548386,55.65168539325841,29.709848192873977,398.9729494440607,112.26480256203001,16802.397492937544,107.25400023942109,171.01453720948882,1
-107.51776425013836,111.91253263707571,-117.36411079887594,92.48535728231161,26.30919563875745,33.95955460946456,52.05238828967643,21.166666666666664,21.166666666666675,-16.282051282051277,-31.75,-11.043478260869566,34.63636363636365,-40.96774193548388,32.820224719101105,26.22914914590035,106.0908940167478,112.26480256203001,16802.397492937544,107.25400023942109,171.01453720948882,1
-107.51776425013836,111.91253263707571,-117.36411079887594,92.48535728231161,26.30919563875745,33.95955460946456,52.05238828967643,42.333333333333336,37.04166666666668,-3.256410256410252,7.9375,-1.7763568394002505e-15,26.93939393939395,-28.67741935483872,52.79775280898875,24.87293454495396,374.8899056996158,112.26480256203001,16802.397492937544,107.25400023942109,171.01453720948882,1
-99.30879911455452,116.63772845953002,-115.09534323564833,102.86619809970063,15.127134334499068,42.31946946127394,41.541272287035014,42.333333333333336,37.04166666666668,-3.256410256410252,7.9375,-1.7763568394002505e-15,26.93939393939395,-28.67741935483872,52.79775280898875,24.87293454495396,374.8899056996158,110.34729026991096,16763.72237731246,111.53308993162632,56.930998564437466,1
-99.30879911455452,116.63772845953002,-115.09534323564833,102.86619809970063,15.127134334499068,42.31946946127394,41.541272287035014,21.166666666666664,26.458333333333343,-9.769230769230766,-23.8125,-5.521739130434785,34.63636363636365,61.451612903225794,61.35955056179773,30.521999625131592,447.03814003206935,110.34729026991096,16763.72237731246,111.53308993162632,56.930998564437466,1
-99.30879911455452,116.63772845953002,-115.09534323564833,102.86619809970063,15.127134334499068,42.31946946127394,41.541272287035014,0.0,15.875000000000007,-16.282051282051277,-23.8125,-11.043478260869566,57.727272727272734,-4.096774193548399,47.08988764044942,21.990870513023925,414.85805617813816,110.34729026991096,16763.72237731246,111.53308993162632,56.930998564437466,1
-92.5054786939679,122.27480417754569,-115.80911280610196,111.29649876350385,4.062641431804153,50.97052562633044,29.744221879815115,0.0,15.875000000000007,-16.282051282051277,-23.8125,-11.043478260869566,57.727272727272734,-4.096774193548399,47.08988764044942,21.990870513023925,414.85805617813816,110.19646522587185,17226.26346657934,116.46013858238383,30.44867336203266,1
-92.5054786939679,122.27480417754569,-115.80911280610196,111.29649876350385,4.062641431804153,50.97052562633044,29.744221879815115,31.75,37.04166666666668,9.769230769230774,23.8125,22.086956521739125,42.33333333333334,-32.7741935483871,44.23595505617976,30.4754794869421,131.9277196897861,110.19646522587185,17226.26346657934,116.46013858238383,30.44867336203266,1
-92.5054786939679,122.27480417754569,-115.80911280610196,111.29649876350385,4.062641431804153,50.97052562633044,29.744221879815115,0.0,26.458333333333343,-22.79487179487179,-23.8125,16.565217391304344,42.33333333333334,36.87096774193547,47.08988764044942,26.990638904403465,228.8816214255026,110.19646522587185,17226.26346657934,116.46013858238383,30.44867336203266,1
-87.75439955727725,125.50783289817232,-117.1091930951425,117.94155928673695,-7.001851470890767,59.28884886196167,16.77305745102356,0.0,26.458333333333343,-22.79487179487179,-23.8125,16.565217391304344,42.33333333333334,36.87096774193547,47.08988764044942,26.990638904403465,228.8816214255026,110.12380851686403,17534.250832895614,120.18619509335059,21.41308006350827,1
-87.75439955727725,125.50783289817232,-117.1091930951425,117.94155928673695,-7.001851470890767,59.28884886196167,16.77305745102356,10.583333333333332,31.750000000000007,-3.256410256410252,0.0,16.565217391304344,50.03030303030304,-4.096774193548399,49.94382022471908,20.778232303702307,423.6286481180941,110.12380851686403,17534.250832895614,120.18619509335059,21.41308006350827,1
-87.75439955727725,125.50783289817232,-117.1091930951425,117.94155928673695,-7.001851470890767,59.28884886196167,16.77305745102356,21.166666666666664,47.62500000000001,16.282051282051285,15.875,22.086956521739125,34.63636363636365,-12.29032258064517,47.08988764044942,27.131531040989415,200.05004145340354,110.12380851686403,17534.250832895614,120.18619509335059,21.41308006350827,1
