Gyro 0,Gyro 1,Gyro 2,Orientation 0,Orientation 1,Orientation 2,Orientation 3,Sensor 0,Sensor 1,Sensor 2,Sensor 3,Sensor 4,Sensor 5,Sensor 6,Sensor 7,Sensor Mean,Sensor Variance,Gyro Mean,Gyro Variance,Orientation Mean,Orientation Variance,Label
0.8181129215612097,-10.088925776618435,-10.41889964722659,-94.00079218378664,127.00000000000001,-109.66620542172464,84.76878827240674,29.07228915662651,0.8523489932885866,15.146788990825684,2.8995433789954275,-33.69387755102041,-4.911602209944752,-8.561797752809,13.331491712707182,13.558717468277194,146.21154025907052,7.108646115135412,40.890471231661245,38.169539202543895,2337.873827780467,1
0.8181129215612097,-10.088925776618435,-10.41889964722659,-94.00079218378664,127.00000000000001,-109.66620542172464,84.76878827240674,29.07228915662651,-4.261744966442957,19.80733944954128,2.8995433789954275,-16.8469387755102,-6.314917127071823,-12.842696629213494,9.121546961325967,12.645877055590958,79.51255184368885,7.108646115135412,40.890471231661245,38.169539202543895,2337.873827780467,1
0.8181129215612097,-10.088925776618435,-10.41889964722659,-94.00079218378664,127.00000000000001,-109.66620542172464,84.76878827240674,26.01204819277109,-4.261744966442957,10.486238532110088,1.739726027397254,-20.734693877551017,-4.911602209944752,-7.134831460674168,10.524861878453038,10.725718393168044,71.8826557350915,7.108646115135412,40.890471231661245,38.169539202543895,2337.873827780467,1
-0.31280788177338703,-10.992411667061877,-10.09479846881332,-93.12886189595986,126.52984729291997,-110.32121517076546,83.8732603451475,26.01204819277109,-4.261744966442957,10.486238532110088,1.739726027397254,-20.734693877551017,-4.911602209944752,-7.134831460674168,10.524861878453038,10.725718393168044,71.8826557350915,7.133339339216195,35.09116438489268,38.072024010611685,2273.64297581355,1
-0.31280788177338703,-10.992411667061877,-10.09479846881332,-93.12886189595986,126.52984729291997,-110.32121517076546,83.8732603451475,22.95180722891567,-4.261744966442957,5.825688073394492,11.018264840182642,-9.071428571428568,-4.911602209944752,-15.696629213483156,3.5082872928176787,9.655681549576238,45.64830547776726,7.133339339216195,35.09116438489268,38.072024010611685,2273.64297581355,1
-0.31280788177338703,-10.992411667061877,-10.09479846881332,-93.12886189595986,126.52984729291997,-110.32121517076546,83.8732603451475,22.95180722891567,4.261744966442949,26.798165137614674,14.497716894977163,-14.255102040816322,-3.5082872928176796,-7.134831460674168,10.524861878453038,12.991564612588958,71.46027399046604,7.133339339216195,35.09116438489268,38.072024010611685,2273.64297581355,1
-0.9624857900719848,-12.618686269860074,-9.694438189596926,-92.18986004753106,125.94215640906988,-111.1200075476445,83.0248654666914,22.95180722891567,4.261744966442949,26.798165137614674,14.497716894977163,-14.255102040816322,-3.5082872928176796,-7.134831460674168,10.524861878453038,12.991564612588958,71.46027399046604,7.758536749842995,36.777538194584025,38.16766150232935,2190.9362584516257,1
-0.9624857900719848,-12.618686269860074,-9.694438189596926,-92.18986004753106,125.94215640906988,-111.1200075476445,83.0248654666914,38.25301204819277,9.375838926174492,19.80733944954128,8.698630136986296,-16.8469387755102,0.701657458563536,-7.134831460674168,10.524861878453038,13.917888766761973,130.7893333848864,7.758536749842995,36.777538194584025,38.16766150232935,2190.9362584516257,1
-0.9624857900719848,-12.618686269860074,-9.694438189596926,-92.18986004753106,125.94215640906988,-111.1200075476445,83.0248654666914,16.831325301204824,-2.557046979865776,3.495412844036693,1.739726027397254,-11.663265306122444,-0.7016574585635358,-7.134831460674168,9.121546961325967,6.655601542398833,31.618974693354687,7.758536749842995,36.777538194584025,38.16766150232935,2190.9362584516257,1
-0.8902993558165857,-10.57078491818827,-9.17968925917585,-91.3850013203064,125.37405522134814,-111.93477577206114,82.31786973464463,16.831325301204824,-2.557046979865776,3.495412844036693,1.739726027397254,-11.663265306122444,-0.7016574585635358,-7.134831460674168,9.121546961325967,6.655601542398833,31.618974693354687,6.880257844393569,27.39348880428739,37.045158499223504,2215.097675148126,1
-0.8902993558165857,-10.57078491818827,-9.17968925917585,-91.3850013203064,125.37405522134814,-111.93477577206114,82.31786973464463,22.95180722891567,-4.261744966442957,10.486238532110088,-1.7397260273972668,-22.030612244897956,-6.314917127071823,-11.415730337078662,7.718232044198894,10.864876063514163,61.24108209352378,6.880257844393569,27.39348880428739,37.045158499223504,2215.097675148126,1
-0.8902993558165857,-10.57078491818827,-9.17968925917585,-91.3850013203064,125.37405522134814,-111.93477577206114,82.31786973464463,32.13253012048193,0.8523489932885866,19.80733944954128,8.698630136986296,-18.14285714285714,-4.911602209944752,-11.415730337078662,9.121546961325967,13.135323168938076,98.24825067591102,6.880257844393569,27.39348880428739,37.045158499223504,2215.097675148126,1
-1.852785145888582,-8.402418781124007,-8.931847181565702,-90.1777132294693,124.6884158568564,-112.7175923014026,81.75227314900722,32.13253012048193,0.8523489932885866,19.80733944954128,8.698630136986296,-18.14285714285714,-4.911602209944752,-11.415730337078662,9.121546961325967,13.135323168938076,98.24825067591102,6.39568370285943,15.548519081994426,35.83732639738634,2214.7283044031105,1
-1.852785145888582,-8.402418781124007,-8.931847181565702,-90.1777132294693,124.6884158568564,-112.7175923014026,81.75227314900722,19.891566265060245,-0.8523489932885946,10.486238532110088,5.219178082191775,-3.8877551020408116,0.701657458563536,-4.280898876404505,11.928176795580109,7.155977513154959,42.87889601693831,6.39568370285943,15.548519081994426,35.83732639738634,2214.7283044031105,1
-1.852785145888582,-8.402418781124007,-8.931847181565702,-90.1777132294693,124.6884158568564,-112.7175923014026,81.75227314900722,32.13253012048193,-0.8523489932885946,8.15596330275229,-0.5799086757990928,-18.14285714285714,-4.911602209944752,-17.12359550561799,10.524861878453038,11.552958478649353,112.79893821691014,6.39568370285943,15.548519081994426,35.83732639738634,2214.7283044031105,1
-2.55058734369078,-7.137538534503186,-8.969976731967263,-88.50092421441775,123.86564861946631,-113.48443298320649,81.23380961217293,32.13253012048193,-0.8523489932885946,8.15596330275229,-0.5799086757990928,-18.14285714285714,-4.911602209944752,-17.12359550561799,10.524861878453038,11.552958478649353,112.79893821691014,6.2193675367204095,10.934418515456242,34.86947982696274,2158.0883277503917,1
-2.55058734369078,-7.137538534503186,-8.969976731967263,-88.50092421441775,123.86564861946631,-113.48443298320649,81.23380961217293,41.31325301204819,9.375838926174492,29.12844036697247,4.0593607305936015,-28.51020408163265,-3.5082872928176796,-8.561797752809,14.734806629834253,17.398998599110293,193.34188334708583,6.2193675367204095,10.934418515456242,34.86947982696274,2158.0883277503917,1
-2.55058734369078,-7.137538534503186,-8.969976731967263,-88.50092421441775,123.86564861946631,-113.48443298320649,81.23380961217293,35.19277108433735,5.96644295302013,24.467889908256875,6.378995433789948,-12.959183673469383,0.701657458563536,-11.415730337078662,9.121546961325967,13.275527226230231,126.50515644378739,6.2193675367204095,10.934418515456242,34.86947982696274,2158.0883277503917,1
0.9624857900720087,-7.86032724685794,-9.637243863994584,-87.89728016899926,123.43467530464294,-114.09151518963458,80.66821302653551,35.19277108433735,5.96644295302013,24.467889908256875,6.378995433789948,-12.959183673469383,0.701657458563536,-11.415730337078662,9.121546961325967,13.275527226230231,126.50515644378739,6.153352300308178,32.225621881362684,35.13161709328393,2088.950758030995,1
0.9624857900720087,-7.86032724685794,-9.637243863994584,-87.89728016899926,123.43467530464294,-114.09151518963458,80.66821302653551,16.831325301204824,-9.3758389261745,5.825688073394492,11.018264840182642,-7.775510204081629,-2.1049723756906076,-11.415730337078662,10.524861878453038,9.359023992032549,18.827301748503675,6.153352300308178,32.225621881362684,35.13161709328393,2088.950758030995,1
0.9624857900720087,-7.86032724685794,-9.637243863994584,-87.89728016899926,123.43467530464294,-114.09151518963458,80.66821302653551,29.07228915662651,-5.966442953020138,15.146788990825684,7.538812785388122,-19.438775510204078,-4.911602209944752,-14.269662921348324,7.718232044198894,13.007825821444563,68.37304397677187,6.153352300308178,32.225621881362684,35.13161709328393,2088.950758030995,1
1.8046608563850062,-7.800094854161712,-9.80882684080161,-87.4277792447848,123.10165047046122,-114.58676646329958,79.98478381889032,29.07228915662651,-5.966442953020138,15.146788990825684,7.538812785388122,-19.438775510204078,-4.911602209944752,-14.269662921348324,7.718232044198894,13.007825821444563,68.37304397677187,6.471194183782775,38.52657215768916,35.01223364658271,2061.55081631644,1
1.8046608563850062,-7.800094854161712,-9.80882684080161,-87.4277792447848,123.10165047046122,-114.58676646329958,79.98478381889032,26.01204819277109,-2.557046979865776,8.15596330275229,14.497716894977163,-10.367346938775507,-2.1049723756906076,-7.134831460674168,9.121546961325967,9.99393413835407,58.122878100031805,6.471194183782775,38.52657215768916,35.01223364658271,2061.55081631644,1
1.8046608563850062,-7.800094854161712,-9.80882684080161,-87.4277792447848,123.10165047046122,-114.58676646329958,79.98478381889032,22.95180722891567,-4.261744966442957,-5.825688073394499,-11.018264840182656,-33.69387755102041,-4.911602209944752,-11.415730337078662,7.718232044198894,12.724618406397312,107.75037769295561,6.471194183782775,38.52657215768916,35.01223364658271,2061.55081631644,1
2.2618416066692046,-6.414749822148432,-10.1138632440141,-87.09242144177449,122.84698442079285,-114.97018680420153,79.254221562442,22.95180722891567,-4.261744966442957,-5.825688073394499,-11.018264840182656,-33.69387755102041,-4.911602209944752,-11.415730337078662,7.718232044198894,12.724618406397312,107.75037769295561,6.263484890943912,40.354124913614115,34.540344835979006,2074.7114267130046,1
2.2618416066692046,-6.414749822148432,-10.1138632440141,-87.09242144177449,122.84698442079285,-114.97018680420153,79.254221562442,32.13253012048193,5.96644295302013,22.137614678899077,-9.858447488584481,-23.326530612244895,-3.5082872928176796,-12.842696629213494,10.524861878453038,15.037176456714342,96.93859744178073,6.263484890943912,40.354124913614115,34.540344835979006,2074.7114267130046,1
2.2618416066692046,-6.414749822148432,-10.1138632440141,-87.09242144177449,122.84698442079285,-114.97018680420153,79.254221562442,35.19277108433735,2.557046979865768,22.137614678899077,14.497716894977163,-6.47959183673469,-2.1049723756906076,-9.988764044943832,13.331491712707182,13.286246201019459,122.43611389741947,6.263484890943912,40.354124913614115,34.540344835979006,2074.7114267130046,1
0.5053050397878103,-2.9815034384633474,-10.285446220821125,-86.01927647214154,122.49436989048282,-115.17787282219008,78.452959732789,35.19277108433735,2.557046979865768,22.137614678899077,14.497716894977163,-6.47959183673469,-2.1049723756906076,-9.988764044943832,13.331491712707182,13.286246201019459,122.43611389741947,4.590751566357428,30.324287716715627,33.09540871047534,2114.038729182738,1
0.5053050397878103,-2.9815034384633474,-10.285446220821125,-86.01927647214154,122.49436989048282,-115.17787282219008,78.452959732789,26.01204819277109,0.8523489932885866,12.816513761467885,-0.5799086757990928,-29.806122448979586,-3.5082872928176796,-8.561797752809,4.911602209944751,10.881078665984708,127.55867396829116,4.590751566357428,30.324287716715627,33.09540871047534,2114.038729182738,1
0.5053050397878103,-2.9815034384633474,-10.285446220821125,-86.01927647214154,122.49436989048282,-115.17787282219008,78.452959732789,16.831325301204824,-0.8523489932885946,5.825688073394492,-8.698630136986308,-22.030612244897956,0.701657458563536,-12.842696629213494,7.718232044198894,9.437648860218513,55.91675022742294,4.590751566357428,30.324287716715627,33.09540871047534,2114.038729182738,1
-3.3687002652519773,-0.6324401233103956,-10.952713352848447,-83.60470029046746,121.84790991824774,-115.25775205987799,77.39246613471886,16.831325301204824,-0.8523489932885946,5.825688073394492,-8.698630136986308,-22.030612244897956,0.701657458563536,-12.842696629213494,7.718232044198894,9.437648860218513,55.91675022742294,4.984617913803606,28.585402268255407,31.729951255542105,2044.869200460447,1
-3.3687002652519773,-0.6324401233103956,-10.952713352848447,-83.60470029046746,121.84790991824774,-115.25775205987799,77.39246613471886,35.19277108433735,9.375838926174492,29.12844036697247,12.178082191780817,-23.326530612244895,-4.911602209944752,-5.707865168539337,13.331491712707182,16.644077784087663,126.50941096071914,4.984617913803606,28.585402268255407,31.729951255542105,2044.869200460447,1
-3.3687002652519773,-0.6324401233103956,-10.952713352848447,-83.60470029046746,121.84790991824774,-115.25775205987799,77.39246613471886,26.01204819277109,0.8523489932885866,17.477064220183482,13.33789954337899,-15.55102040816326,-2.1049723756906076,-12.842696629213494,7.718232044198894,11.98703530086105,68.85135322543174,4.984617913803606,28.585402268255407,31.729951255542105,2044.869200460447,1
-5.053050397877973,-0.21081337443678816,-11.429332732867962,-80.6535516239768,121.0643220731143,-115.30567960249073,76.26127296344404,26.01204819277109,0.8523489932885866,17.477064220183482,13.33789954337899,-15.55102040816326,-2.1049723756906076,-12.842696629213494,7.718232044198894,11.98703530086105,68.85135322543174,5.564398835060907,31.65990206703082,30.76456591042718,1898.146965793942,1
-5.053050397877973,-0.21081337443678816,-11.429332732867962,-80.6535516239768,121.0643220731143,-115.30567960249073,76.26127296344404,22.95180722891567,7.671140939597311,10.486238532110088,-1.7397260273972668,-22.030612244897956,-2.1049723756906076,-11.415730337078662,7.718232044198894,10.764807466235807,64.46283641637729,5.564398835060907,31.65990206703082,30.76456591042718,1898.146965793942,1
-5.053050397877973,-0.21081337443678816,-11.429332732867962,-80.6535516239768,121.0643220731143,-115.30567960249073,76.26127296344404,22.95180722891567,-2.557046979865776,8.15596330275229,-0.5799086757990928,-14.255102040816322,0.701657458563536,-8.561797752809,6.314917127071823,8.009775070824189,57.68725982601658,5.564398835060907,31.65990206703082,30.76456591042718,1898.146965793942,1
-3.2002652519893786,-1.3552288356651498,-11.810628236883574,-78.70847636651706,120.53540027764926,-115.38555884017863,75.13007979216921,22.95180722891567,-2.557046979865776,8.15596330275229,-0.5799086757990928,-14.255102040816322,0.701657458563536,-8.561797752809,6.314917127071823,8.009775070824189,57.68725982601658,5.455374108179368,31.14298112469953,30.624777813021925,1761.360394097292,1
-3.2002652519893786,-1.3552288356651498,-11.810628236883574,-78.70847636651706,120.53540027764926,-115.38555884017863,75.13007979216921,19.891566265060245,-7.6711409395973185,3.495412844036693,6.378995433789948,-15.55102040816326,-3.5082872928176796,-9.988764044943832,9.121546961325967,9.450841773716867,32.85762360137972,5.455374108179368,31.14298112469953,30.624777813021925,1761.360394097292,1
-3.2002652519893786,-1.3552288356651498,-11.810628236883574,-78.70847636651706,120.53540027764926,-115.38555884017863,75.13007979216921,29.07228915662651,-0.8523489932885946,17.477064220183482,13.33789954337899,-19.438775510204078,-3.5082872928176796,-12.842696629213494,7.718232044198894,13.030949173738964,83.64382547331013,5.455374108179368,31.14298112469953,30.624777813021925,1761.360394097292,1
-2.69496021220158,0.27104576713304773,-11.639045260076548,-76.89754423026147,120.06524757056918,-115.4175105352538,74.11671924290219,29.07228915662651,-0.8523489932885946,17.477064220183482,13.33789954337899,-19.438775510204078,-3.5082872928176796,-12.842696629213494,7.718232044198894,13.030949173738964,83.64382547331013,4.868350413137058,38.44068618158131,29.60254508582369,1709.9205611721686,1
-2.69496021220158,0.27104576713304773,-11.639045260076548,-76.89754423026147,120.06524757056918,-115.4175105352538,74.11671924290219,29.07228915662651,-2.557046979865776,8.15596330275229,1.739726027397254,-16.8469387755102,-3.5082872928176796,-9.988764044943832,9.121546961325967,10.123820317654939,82.92205992352267,4.868350413137058,38.44068618158131,29.60254508582369,1709.9205611721686,1
-2.69496021220158,0.27104576713304773,-11.639045260076548,-76.89754423026147,120.06524757056918,-115.4175105352538,74.11671924290219,22.95180722891567,-2.557046979865776,15.146788990825684,1.739726027397254,-28.51020408163265,-6.314917127071823,-9.988764044943832,10.524861878453038,12.216764544888216,90.71987999369291,4.868350413137058,38.44068618158131,29.60254508582369,1709.9205611721686,1
-2.911519514967779,1.8973203699312458,-12.249118066501527,-74.81832585159759,119.53632577510412,-115.38555884017863,73.17405826683984,22.95180722891567,-2.557046979865776,15.146788990825684,1.739726027397254,-28.51020408163265,-6.314917127071823,-9.988764044943832,10.524861878453038,12.216764544888216,90.71987999369291,5.685985983800184,51.73956803066389,29.654921429343457,1556.5897531437427,1
-2.911519514967779,1.8973203699312458,-12.249118066501527,-74.81832585159759,119.53632577510412,-115.38555884017863,73.17405826683984,29.07228915662651,-0.8523489932885946,17.477064220183482,2.8995433789954275,-24.622448979591834,-0.7016574585635358,-9.988764044943832,10.524861878453038,12.017372263830783,117.39245340055426,5.685985983800184,51.73956803066389,29.654921429343457,1556.5897531437427,1
-2.911519514967779,1.8973203699312458,-12.249118066501527,-74.81832585159759,119.53632577510412,-115.38555884017863,73.17405826683984,26.01204819277109,-2.557046979865776,-22.137614678899084,-38.85388127853882,-18.14285714285714,-4.911602209944752,-8.561797752809,13.331491712707182,16.813542493549107,146.51738266861062,5.685985983800184,51.73956803066389,29.654921429343457,1556.5897531437427,1
-0.6015536187949859,3.764524543514362,-12.878255648127288,-73.47689463955646,119.2424803331791,-115.27372790741556,72.46706253479309,26.01204819277109,-2.557046979865776,-22.137614678899084,-38.85388127853882,-18.14285714285714,-4.911602209944752,-8.561797752809,13.331491712707182,16.813542493549107,146.51738266861062,5.748111270145546,74.46036395728436,30.039891610399376,1435.8449477780487,1
-0.6015536187949859,3.764524543514362,-12.878255648127288,-73.47689463955646,119.2424803331791,-115.27372790741556,72.46706253479309,26.01204819277109,-5.966442953020138,15.146788990825684,2.8995433789954275,-31.10204081632653,-3.5082872928176796,-8.561797752809,11.928176795580109,13.140640771643206,109.12527817357113,5.748111270145546,74.46036395728436,30.039891610399376,1435.8449477780487,1
-0.6015536187949859,3.764524543514362,-12.878255648127288,-73.47689463955646,119.2424803331791,-115.27372790741556,72.46706253479309,32.13253012048193,-2.557046979865776,29.12844036697247,28.415525114155244,-28.51020408163265,-3.5082872928176796,-11.415730337078662,4.911602209944751,17.572420812868643,172.02983614756945,5.748111270145546,74.46036395728436,30.039891610399376,1435.8449477780487,1
1.1790450928382081,5.089637182831412,-12.725737446521043,-72.47082123052553,119.12494215640909,-115.06604188942701,71.83076637595099,32.13253012048193,-2.557046979865776,29.12844036697247,28.415525114155244,-28.51020408163265,-3.5082872928176796,-11.415730337078662,4.911602209944751,17.572420812868643,172.02983614756945,6.331473240730221,87.6705468575604,30.095398619959326,1361.3348378773442,1
1.1790450928382081,5.089637182831412,-12.725737446521043,-72.47082123052553,119.12494215640909,-115.06604188942701,71.83076637595099,22.95180722891567,-12.785234899328863,3.495412844036693,-2.899543378995441,-16.8469387755102,-7.718232044198895,-9.988764044943832,6.314917127071823,10.375106292875177,47.53919171640371,6.331473240730221,87.6705468575604,30.095398619959326,1361.3348378773442,1
1.1790450928382081,5.089637182831412,-12.725737446521043,-72.47082123052553,119.12494215640909,-115.06604188942701,71.83076637595099,32.13253012048193,-2.557046979865776,22.137614678899077,9.858447488584469,-14.255102040816322,-3.5082872928176796,-7.134831460674168,11.928176795580109,12.93900460721494,99.38020935930601,6.331473240730221,87.6705468575604,30.095398619959326,1361.3348378773442,1
2.863395225464203,6.173820251363544,-11.982211213690599,-72.0683918669132,119.14453185253741,-114.85835587143846,71.35943588791982,32.13253012048193,-2.557046979865776,22.137614678899077,9.858447488584469,-14.255102040816322,-3.5082872928176796,-7.134831460674168,11.928176795580109,12.93900460721494,99.38020935930601,7.006475563506115,93.49873715973521,30.074807777322448,1331.030179909958,1
2.863395225464203,6.173820251363544,-11.982211213690599,-72.0683918669132,119.14453185253741,-114.85835587143846,71.35943588791982,29.07228915662651,0.8523489932885866,19.80733944954128,20.29680365296803,-15.55102040816326,-6.314917127071823,-9.988764044943832,7.718232044198894,13.700214359600277,84.24390990113281,7.006475563506115,93.49873715973521,30.074807777322448,1331.030179909958,1
2.863395225464203,6.173820251363544,-11.982211213690599,-72.0683918669132,119.14453185253741,-114.85835587143846,71.35943588791982,26.01204819277109,2.557046979865768,24.467889908256875,14.497716894977163,-16.8469387755102,-2.1049723756906076,-5.707865168539337,10.524861878453038,12.839917521758009,86.38877337090467,7.006475563506115,93.49873715973521,30.074807777322448,1331.030179909958,1
2.5746494884426037,2.7405738676784597,-11.448397508068743,-71.93424874570906,119.12494215640909,-114.84238002390087,70.88810539988864,26.01204819277109,2.557046979865768,24.467889908256875,14.497716894977163,-16.8469387755102,-2.1049723756906076,-5.707865168539337,10.524861878453038,12.839917521758009,86.38877337090467,5.587873621396601,66.33338111129402,28.70774004048542,1420.3548392701161,1
2.5746494884426037,2.7405738676784597,-11.448397508068743,-71.93424874570906,119.12494215640909,-114.84238002390087,70.88810539988864,26.01204819277109,2.557046979865768,17.477064220183482,9.858447488584469,-14.255102040816322,-0.7016574585635358,-9.988764044943832,11.928176795580109,11.597288402663576,65.0831687029804,5.587873621396601,66.33338111129402,28.70774004048542,1420.3548392701161,1
2.5746494884426037,2.7405738676784597,-11.448397508068743,-71.93424874570906,119.12494215640909,-114.84238002390087,70.88810539988864,19.891566265060245,-2.557046979865776,10.486238532110088,2.8995433789954275,-15.55102040816326,-4.911602209944752,-12.842696629213494,11.928176795580109,10.133486399866644,38.89362936338914,5.587873621396601,66.33338111129402,28.70774004048542,1420.3548392701161,1
3.5852595680182007,2.559876689589771,-10.666741724836738,-72.00132030631107,119.06617306802407,-114.98616265173911,70.67600668027461,19.891566265060245,-2.557046979865776,10.486238532110088,2.8995433789954275,-15.55102040816326,-4.911602209944752,-12.842696629213494,11.928176795580109,10.133486399866644,38.89362936338914,5.6039593274815696,63.1857309299599,28.40931290691253,1441.6276470068406,1
3.5852595680182007,2.559876689589771,-10.666741724836738,-72.00132030631107,119.06617306802407,-114.98616265173911,70.67600668027461,29.07228915662651,2.557046979865768,17.477064220183482,4.0593607305936015,-12.959183673469383,2.1049723756906076,-5.707865168539337,10.524861878453038,10.557830522927716,85.37773986888695,5.6039593274815696,63.1857309299599,28.40931290691253,1441.6276470068406,1
3.5852595680182007,2.559876689589771,-10.666741724836738,-72.00132030631107,119.06617306802407,-114.98616265173911,70.67600668027461,35.19277108433735,-2.557046979865776,10.486238532110088,-0.5799086757990928,-12.959183673469383,-2.1049723756906076,-8.561797752809,10.524861878453038,10.370847619066792,121.62567489697395,5.6039593274815696,63.1857309299599,28.40931290691253,1441.6276470068406,1
7.603637741568788,5.631728717097478,-10.876454252045324,-73.07446527594402,119.39919790220578,-114.95421095666394,70.79383930228241,35.19277108433735,-2.557046979865776,10.486238532110088,-0.5799086757990928,-12.959183673469383,-2.1049723756906076,-8.561797752809,10.524861878453038,10.370847619066792,121.62567489697395,8.037273570237197,102.98705503932138,29.860882748362272,1407.4370726353222,1
7.603637741568788,5.631728717097478,-10.876454252045324,-73.07446527594402,119.39919790220578,-114.95421095666394,70.79383930228241,22.95180722891567,-0.8523489932885946,8.15596330275229,-2.899543378995441,-27.214285714285708,-4.911602209944752,-9.988764044943832,9.121546961325967,10.761982729306531,89.08515346797064,8.037273570237197,102.98705503932138,29.860882748362272,1407.4370726353222,1
7.603637741568788,5.631728717097478,-10.876454252045324,-73.07446527594402,119.39919790220578,-114.95421095666394,70.79383930228241,32.13253012048193,2.557046979865768,-3.4954128440367,-26.095890410958912,-18.14285714285714,-4.911602209944752,-8.561797752809,9.121546961325967,13.127335552785022,123.34714001016872,8.037273570237197,102.98705503932138,29.860882748362272,1407.4370726353222,1
7.723948465327788,6.113587858667314,-11.200555430458595,-74.2146818061791,119.79099182477249,-114.8264041763633,70.74670625347929,32.13253012048193,2.557046979865768,-3.4954128440367,-26.095890410958912,-18.14285714285714,-4.911602209944752,-8.561797752809,9.121546961325967,13.127335552785022,123.34714001016872,8.346030584817898,110.08494447025026,30.50960836510167,1439.069393136593,1
7.723948465327788,6.113587858667314,-11.200555430458595,-74.2146818061791,119.79099182477249,-114.8264041763633,70.74670625347929,29.07228915662651,-7.6711409395973185,10.486238532110088,6.378995433789948,-12.959183673469383,-0.7016574585635358,-9.988764044943832,13.331491712707182,11.323720118975974,67.8315608369284,8.346030584817898,110.08494447025026,30.50960836510167,1439.069393136593,1
7.723948465327788,6.113587858667314,-11.200555430458595,-74.2146818061791,119.79099182477249,-114.8264041763633,70.74670625347929,29.07228915662651,-0.8523489932885946,22.137614678899077,15.657534246575336,-31.10204081632653,-6.314917127071823,-12.842696629213494,9.121546961325967,15.887623576165916,116.73954167475992,8.346030584817898,110.08494447025026,30.50960836510167,1439.069393136593,1
7.555513452065188,2.800806260374689,-11.524656608871865,-75.22075521520992,120.1827857473392,-114.68262154852506,70.39320838745591,29.07228915662651,-0.8523489932885946,22.137614678899077,15.657534246575336,-31.10204081632653,-6.314917127071823,-12.842696629213494,9.121546961325967,15.887623576165916,116.73954167475992,7.293658773770581,98.64650274185895,29.84873936148549,1562.9912581987094,1
7.555513452065188,2.800806260374689,-11.524656608871865,-75.22075521520992,120.1827857473392,-114.68262154852506,70.39320838745591,22.95180722891567,-2.557046979865776,10.486238532110088,4.0593607305936015,-14.255102040816322,-2.1049723756906076,-8.561797752809,6.314917127071823,8.911405345984111,49.32568463982357,7.293658773770581,98.64650274185895,29.84873936148549,1562.9912581987094,1
7.555513452065188,2.800806260374689,-11.524656608871865,-75.22075521520992,120.1827857473392,-114.68262154852506,70.39320838745591,22.95180722891567,-0.8523489932885946,22.137614678899077,2.8995433789954275,-32.397959183673464,-3.5082872928176796,-9.988764044943832,7.718232044198894,12.80681960571658,133.5940877257709,7.293658773770581,98.64650274185895,29.84873936148549,1562.9912581987094,1
7.1945812807881895,0.5119753379179661,-11.524656608871865,-76.22682862424085,120.51581058152091,-114.60274231083716,69.9454444238263,22.95180722891567,-0.8523489932885946,22.137614678899077,2.8995433789954275,-32.397959183673464,-3.5082872928176796,-9.988764044943832,7.718232044198894,12.80681960571658,133.5940877257709,6.410404409192673,89.9912663299751,29.421153523676892,1673.3982034085693,1
7.1945812807881895,0.5119753379179661,-11.524656608871865,-76.22682862424085,120.51581058152091,-114.60274231083716,69.9454444238263,35.19277108433735,0.8523489932885866,10.486238532110088,-1.7397260273972668,-23.326530612244895,-2.1049723756906076,-8.561797752809,10.524861878453038,11.598655907041355,144.09285246157438,6.410404409192673,89.9912663299751,29.421153523676892,1673.3982034085693,1
7.1945812807881895,0.5119753379179661,-11.524656608871865,-76.22682862424085,120.51581058152091,-114.60274231083716,69.9454444238263,16.831325301204824,-2.557046979865776,8.15596330275229,15.657534246575336,-7.775510204081629,-3.5082872928176796,-8.561797752809,9.121546961325967,9.021126505179064,25.67685253451285,6.410404409192673,89.9912663299751,29.421153523676892,1673.3982034085693,1
8.205191360363786,2.800806260374689,-11.04803722885235,-77.2999735938738,120.90760450408762,-114.45895968299894,69.63907960660603,16.831325301204824,-2.557046979865776,8.15596330275229,15.657534246575336,-7.775510204081629,-3.5082872928176796,-8.561797752809,9.121546961325967,9.021126505179064,25.67685253451285,7.351344949863608,98.61410923444997,30.382939027700278,1667.9103040244952,1
8.205191360363786,2.800806260374689,-11.04803722885235,-77.2999735938738,120.90760450408762,-114.45895968299894,69.63907960660603,32.13253012048193,14.489932885906036,22.137614678899077,0.5799086757990803,-25.918367346938773,-4.911602209944752,-7.134831460674168,11.928176795580109,14.90412052177799,120.69689719176883,7.351344949863608,98.61410923444997,30.382939027700278,1667.9103040244952,1
8.205191360363786,2.800806260374689,-11.04803722885235,-77.2999735938738,120.90760450408762,-114.45895968299894,69.63907960660603,22.95180722891567,-2.557046979865776,1.1651376146788959,5.219178082191775,-24.622448979591834,-3.5082872928176796,-14.269662921348324,7.718232044198894,10.251475142951106,86.1352611787875,7.351344949863608,98.61410923444997,30.382939027700278,1667.9103040244952,1
9.84141720348618,5.752193502489937,-11.086166779253912,-78.57433324531291,121.41693660342436,-114.18737027486006,69.52124698459824,22.95180722891567,-2.557046979865776,1.1651376146788959,5.219178082191775,-24.622448979591834,-3.5082872928176796,-14.269662921348324,7.718232044198894,10.251475142951106,86.1352611787875,8.893259161743343,123.03598313487298,31.804231175685587,1647.6946534318267,1
9.84141720348618,5.752193502489937,-11.086166779253912,-78.57433324531291,121.41693660342436,-114.18737027486006,69.52124698459824,35.19277108433735,14.489932885906036,24.467889908256875,11.018264840182642,-6.47959183673469,-2.1049723756906076,-8.561797752809,9.121546961325967,13.929595955655397,117.03185131170093,8.893259161743343,123.03598313487298,31.804231175685587,1647.6946534318267,1
9.84141720348618,5.752193502489937,-11.086166779253912,-78.57433324531291,121.41693660342436,-114.18737027486006,69.52124698459824,29.07228915662651,-0.8523489932885946,17.477064220183482,1.739726027397254,-10.367346938775507,0.701657458563536,-8.561797752809,9.121546961325967,9.736722188621233,94.35000709404974,8.893259161743343,123.03598313487298,31.804231175685587,1647.6946534318267,1
9.721106479727181,1.6563907991463278,-11.162425880057032,-80.25112226036447,122.00462748727442,-114.01163595194667,69.12061606977174,29.07228915662651,-0.8523489932885946,17.477064220183482,1.739726027397254,-10.367346938775507,0.701657458563536,-8.561797752809,9.121546961325967,9.736722188621233,94.35000709404974,7.513307719643514,110.91393731429723,31.02331297985594,1840.124080658467,1
9.721106479727181,1.6563907991463278,-11.162425880057032,-80.25112226036447,122.00462748727442,-114.01163595194667,69.12061606977174,19.891566265060245,-9.3758389261745,-3.4954128440367,1.739726027397254,-27.214285714285708,-4.911602209944752,-9.988764044943832,9.121546961325967,10.71734287414612,75.37900353031058,7.513307719643514,110.91393731429723,31.02331297985594,1840.124080658467,1
9.721106479727181,1.6563907991463278,-11.162425880057032,-80.25112226036447,122.00462748727442,-114.01163595194667,69.12061606977174,29.07228915662651,5.96644295302013,15.146788990825684,12.178082191780817,-16.8469387755102,-0.7016574585635358,-4.280898876404505,11.928176795580109,12.015159399788935,78.36200912191238,7.513307719643514,110.91393731429723,31.02331297985594,1840.124080658467,1
8.975179992421385,-0.3915105525254772,-10.41889964722659,-82.06205439662006,122.5531389788678,-113.93175671425877,68.5785860085359,29.07228915662651,5.96644295302013,15.146788990825684,12.178082191780817,-16.8469387755102,-0.7016574585635358,-4.280898876404505,11.928176795580109,12.015159399788935,78.36200912191238,6.595196730724484,94.0689581483893,30.95748819879071,1983.8946477153738,1
8.975179992421385,-0.3915105525254772,-10.41889964722659,-82.06205439662006,122.5531389788678,-113.93175671425877,68.5785860085359,19.891566265060245,-5.966442953020138,12.816513761467885,19.13698630136986,-5.183673469387751,-0.7016574585635358,-11.415730337078662,10.524861878453038,10.704679053050139,44.784757310137245,6.595196730724484,94.0689581483893,30.95748819879071,1983.8946477153738,1
8.975179992421385,-0.3915105525254772,-10.41889964722659,-82.06205439662006,122.5531389788678,-113.93175671425877,68.5785860085359,26.01204819277109,-2.557046979865776,15.146788990825684,11.018264840182642,-14.255102040816322,-6.314917127071823,-19.97752808988765,9.121546961325967,13.050405402843369,56.696889699796884,6.595196730724484,94.0689581483893,30.95748819879071,1983.8946477153738,1
8.060818491852986,-1.535926013753838,-9.942280267207074,-83.33641404805917,122.96452259756286,-113.88382917164601,67.91872332529225,26.01204819277109,-2.557046979865776,15.146788990825684,11.018264840182642,-14.255102040816322,-6.314917127071823,-19.97752808988765,9.121546961325967,13.050405402843369,56.696889699796884,6.513008257604633,81.14597697815267,31.604873443006692,2024.7809179877825,1
8.060818491852986,-1.535926013753838,-9.942280267207074,-83.33641404805917,122.96452259756286,-113.88382917164601,67.91872332529225,19.891566265060245,-4.261744966442957,10.486238532110088,-1.7397260273972668,-29.806122448979586,-9.121546961325967,-9.988764044943832,3.5082872928176787,11.100499567384702,89.24957713724045,6.513008257604633,81.14597697815267,31.604873443006692,2024.7809179877825,1
8.060818491852986,-1.535926013753838,-9.942280267207074,-83.33641404805917,122.96452259756286,-113.88382917164601,67.91872332529225,22.95180722891567,-0.8523489932885946,17.477064220183482,11.018264840182642,-3.8877551020408116,-0.7016574585635358,-7.134831460674168,7.718232044198894,8.967745168505974,62.44030703561672,6.513008257604633,81.14597697815267,31.604873443006692,2024.7809179877825,1
5.7267904509283944,0.03011619634813023,-9.427531336785998,-83.80591497227363,123.1408298627179,-113.83590162903327,67.28242716645016,22.95180722891567,-0.8523489932885946,17.477064220183482,11.018264840182642,-3.8877551020408116,-0.7016574585635358,-7.134831460674168,7.718232044198894,8.967745168505974,62.44030703561672,5.061479328020841,58.592110544898475,31.087854168469253,2106.4733040156443,1
5.7267904509283944,0.03011619634813023,-9.427531336785998,-83.80591497227363,123.1408298627179,-113.83590162903327,67.28242716645016,32.13253012048193,-2.557046979865776,12.816513761467885,1.739726027397254,-20.734693877551017,-4.911602209944752,-17.12359550561799,10.524861878453038,12.817571295097455,107.1497412392841,5.061479328020841,58.592110544898475,31.087854168469253,2106.4733040156443,1
5.7267904509283944,0.03011619634813023,-9.427531336785998,-83.80591497227363,123.1408298627179,-113.83590162903327,67.28242716645016,38.25301204819277,7.671140939597311,24.467889908256875,8.698630136986296,-20.734693877551017,-3.5082872928176796,1.4269662921348196,14.734806629834253,14.936928390671378,153.2821240078356,5.061479328020841,58.592110544898475,31.087854168469253,2106.4733040156443,1
5.774914740431994,-0.27104576713301753,-8.664940328754774,-84.00712965407979,123.18000925497456,-113.88382917164601,66.78753015401742,38.25301204819277,7.671140939597311,24.467889908256875,8.698630136986296,-20.734693877551017,-3.5082872928176796,1.4269662921348196,14.734806629834253,14.936928390671378,153.2821240078356,4.903633612106595,52.58675313162965,30.981038583322526,2126.439117161088,1
5.774914740431994,-0.27104576713301753,-8.664940328754774,-84.00712965407979,123.18000925497456,-113.88382917164601,66.78753015401742,22.95180722891567,0.8523489932885866,10.486238532110088,-7.538812785388135,-20.734693877551017,3.5082872928176796,-8.561797752809,9.121546961325967,10.469441678025769,59.453683985831624,4.903633612106595,52.58675313162965,30.981038583322526,2126.439117161088,1
5.774914740431994,-0.27104576713301753,-8.664940328754774,-84.00712965407979,123.18000925497456,-113.88382917164601,66.78753015401742,22.95180722891567,-9.3758389261745,8.15596330275229,9.858447488584469,-16.8469387755102,-7.718232044198895,-15.696629213483156,7.718232044198894,12.29026112797726,31.334587531500354,4.903633612106595,52.58675313162965,30.981038583322526,2126.439117161088,1
8.445812807881786,-1.2949964429689205,-8.035802747129013,-85.61684710852921,123.5326237852846,-114.09151518963458,66.50473186119872,22.95180722891567,-9.3758389261745,8.15596330275229,9.858447488584469,-16.8469387755102,-7.718232044198895,-15.696629213483156,7.718232044198894,12.29026112797726,31.334587531500354,5.925537332659907,68.6609142991395,31.649215432875717,2195.7385689168,1
8.445812807881786,-1.2949964429689205,-8.035802747129013,-85.61684710852921,123.5326237852846,-114.09151518963458,66.50473186119872,26.01204819277109,-0.8523489932885946,8.15596330275229,0.5799086757990803,-31.10204081632653,-2.1049723756906076,-5.707865168539337,3.5082872928176787,9.752929352248152,142.84397000171415,5.925537332659907,68.6609142991395,31.649215432875717,2195.7385689168,1
8.445812807881786,-1.2949964429689205,-8.035802747129013,-85.61684710852921,123.5326237852846,-114.09151518963458,66.50473186119872,19.891566265060245,-2.557046979865776,3.495412844036693,0.5799086757990803,-36.28571428571428,-3.5082872928176796,-15.696629213483156,7.718232044198894,11.216599700121975,149.0266639431347,5.925537332659907,68.6609142991395,31.649215432875717,2195.7385689168,1
7.02614626752559,-6.173820251363514,-7.7117015687157435,-87.09242144177449,123.72852074656795,-114.50688722561168,66.03340137316755,19.891566265060245,-2.557046979865776,3.495412844036693,0.5799086757990803,-36.28571428571428,-3.5082872928176796,-15.696629213483156,7.718232044198894,11.216599700121975,149.0266639431347,6.970556029201616,65.6347256483763,33.65931442061791,2141.9139641873444,1
7.02614626752559,-6.173820251363514,-7.7117015687157435,-87.09242144177449,123.72852074656795,-114.50688722561168,66.03340137316755,26.01204819277109,-7.6711409395973185,12.816513761467885,5.219178082191775,-22.030612244897956,-17.5414364640884,-14.269662921348324,9.121546961325967,14.33526744596109,51.83607504816576,6.970556029201616,65.6347256483763,33.65931442061791,2141.9139641873444,1
7.02614626752559,-6.173820251363514,-7.7117015687157435,-87.09242144177449,123.72852074656795,-114.50688722561168,66.03340137316755,32.13253012048193,0.8523489932885866,15.146788990825684,4.0593607305936015,-7.775510204081629,3.5082872928176796,11.415730337078639,17.5414364640884,11.55399914165702,103.1368541022435,6.970556029201616,65.6347256483763,33.65931442061791,2141.9139641873444,1
4.210875331564999,-9.908228598529746,-8.455227801546187,-87.6960654871931,123.65016196205461,-115.03409019435185,65.23213954351455,32.13253012048193,0.8523489932885866,15.146788990825684,4.0593607305936015,-7.775510204081629,3.5082872928176796,11.415730337078639,17.5414364640884,11.55399914165702,103.1368541022435,7.524777243880311,60.315079280576796,35.35317396242301,2055.361522709395,1
4.210875331564999,-9.908228598529746,-8.455227801546187,-87.6960654871931,123.65016196205461,-115.03409019435185,65.23213954351455,29.07228915662651,-0.8523489932885946,8.15596330275229,-5.219178082191787,-28.51020408163265,-9.121546961325967,-19.97752808988765,3.5082872928176787,13.052168245065392,126.3221928196577,7.524777243880311,60.315079280576796,35.35317396242301,2055.361522709395,1
4.210875331564999,-9.908228598529746,-8.455227801546187,-87.6960654871931,123.65016196205461,-115.03409019435185,65.23213954351455,26.01204819277109,0.8523489932885866,17.477064220183482,21.456621004566205,2.5918367346938815,-0.7016574585635358,-14.269662921348324,4.911602209944751,11.034105216919983,100.59039174014755,7.524777243880311,60.315079280576796,35.35317396242301,2055.361522709395,1
3.3446381205002016,-9.847996205833516,-8.779328979959457,-87.89728016899926,123.43467530464294,-115.54531731555444,64.40731118945999,26.01204819277109,0.8523489932885866,17.477064220183482,21.456621004566205,2.5918367346938815,-0.7016574585635358,-14.269662921348324,4.911602209944751,11.034105216919983,100.59039174014755,7.323987768764392,53.69637139350738,35.50820178493074,2058.7471628589706,1
3.3446381205002016,-9.847996205833516,-8.779328979959457,-87.89728016899926,123.43467530464294,-115.54531731555444,64.40731118945999,19.891566265060245,-7.6711409395973185,15.146788990825684,7.538812785388122,-9.071428571428568,7.718232044198896,-2.853932584269674,10.524861878453038,10.052095507402694,27.60032928418779,7.323987768764392,53.69637139350738,35.50820178493074,2058.7471628589706,1
3.3446381205002016,-9.847996205833516,-8.779328979959457,-87.89728016899926,123.43467530464294,-115.54531731555444,64.40731118945999,22.95180722891567,-0.8523489932885946,29.12844036697247,13.33789954337899,-14.255102040816322,-0.7016574585635358,-12.842696629213494,6.314917127071823,12.548108673527612,100.39294263928221,7.323987768764392,53.69637139350738,35.50820178493074,2058.7471628589706,1
3.9702538840469996,-9.908228598529746,-9.770697290400049,-88.36678109321372,123.35631652012957,-115.97666519906913,63.488216737799206,22.95180722891567,-0.8523489932885946,29.12844036697247,13.33789954337899,-14.255102040816322,-0.7016574585635358,-12.842696629213494,6.314917127071823,12.548108673527612,100.39294263928221,7.883059924325598,63.57415500974052,36.0152356607145,2055.517960593451,1
3.9702538840469996,-9.908228598529746,-9.770697290400049,-88.36678109321372,123.35631652012957,-115.97666519906913,63.488216737799206,41.31325301204819,5.96644295302013,15.146788990825684,9.858447488584469,-19.438775510204078,0.701657458563536,-7.134831460674168,13.331491712707182,14.11146107332843,154.70337976541336,7.883059924325598,63.57415500974052,36.0152356607145,2055.517960593451,1
3.9702538840469996,-9.908228598529746,-9.770697290400049,-88.36678109321372,123.35631652012957,-115.97666519906913,63.488216737799206,22.95180722891567,4.261744966442949,12.816513761467885,-2.899543378995441,-25.918367346938773,4.911602209944752,-4.280898876404505,9.121546961325967,10.895253091304493,80.76861414364443,7.883059924325598,63.57415500974052,36.0152356607145,2055.517960593451,1
3.9221295945433994,-10.390087740099583,-10.361705321624248,-89.17163982043837,123.41508560851459,-116.34410969243349,62.4041566153275,22.95180722891567,4.261744966442949,12.816513761467885,-2.899543378995441,-25.918367346938773,4.911602209944752,-4.280898876404505,9.121546961325967,10.895253091304493,80.76861414364443,8.22464088542241,68.1447184180106,36.641144294054065,2069.589921576031,1
3.9221295945433994,-10.390087740099583,-10.361705321624248,-89.17163982043837,123.41508560851459,-116.34410969243349,62.4041566153275,22.95180722891567,-4.261744966442957,10.486238532110088,-1.7397260273972668,-31.10204081632653,-11.92817679558011,-8.561797752809,7.718232044198894,12.343720520472562,97.35573019855691,8.22464088542241,68.1447184180106,36.641144294054065,2069.589921576031,1
3.9221295945433994,-10.390087740099583,-10.361705321624248,-89.17163982043837,123.41508560851459,-116.34410969243349,62.4041566153275,32.13253012048193,0.8523489932885866,10.486238532110088,-4.059360730593614,-25.918367346938773,-4.911602209944752,-12.842696629213494,9.121546961325967,12.54058644048715,120.79403007858228,8.22464088542241,68.1447184180106,36.641144294054065,2069.589921576031,1
1.227169382341808,-11.414038415935483,-10.533288298431273,-89.17163982043837,123.19959895110289,-116.77545757594818,61.15513082204489,32.13253012048193,0.8523489932885866,10.486238532110088,-4.059360730593614,-25.918367346938773,-4.911602209944752,-12.842696629213494,9.121546961325967,12.54058644048715,120.79403007858228,7.724832032236189,49.81403670499415,37.03965551160171,2038.501771174965,1
1.227169382341808,-11.414038415935483,-10.533288298431273,-89.17163982043837,123.19959895110289,-116.77545757594818,61.15513082204489,32.13253012048193,0.8523489932885866,17.477064220183482,13.33789954337899,-1.2959183673469354,6.314917127071823,-2.853932584269674,14.734806629834253,11.12492719823196,113.32547539411601,7.724832032236189,49.81403670499415,37.03965551160171,2038.501771174965,1
1.227169382341808,-11.414038415935483,-10.533288298431273,-89.17163982043837,123.19959895110289,-116.77545757594818,61.15513082204489,29.07228915662651,-5.966442953020138,17.477064220183482,15.657534246575336,-16.8469387755102,-6.314917127071823,-17.12359550561799,6.314917127071823,14.346712388959663,63.08150936777065,7.724832032236189,49.81403670499415,37.03965551160171,2038.501771174965,1
0.07218643425541149,-10.028693383922205,-11.124296329655472,-88.76921045682604,122.88616381304952,-117.14290206931254,59.906105028762276,29.07228915662651,-5.966442953020138,17.477064220183482,15.657534246575336,-16.8469387755102,-6.314917127071823,-17.12359550561799,6.314917127071823,14.346712388959663,63.08150936777065,7.075058715944363,38.09822419975346,36.64073339013458,2038.3336774231088,1
0.07218643425541149,-10.028693383922205,-11.124296329655472,-88.76921045682604,122.88616381304952,-117.14290206931254,59.906105028762276,35.19277108433735,0.8523489932885866,19.80733944954128,5.219178082191775,-20.734693877551017,-2.1049723756906076,-9.988764044943832,13.331491712707182,13.403944952531454,133.3378209042406,7.075058715944363,38.09822419975346,36.64073339013458,2038.3336774231088,1
0.07218643425541149,-10.028693383922205,-11.124296329655472,-88.76921045682604,122.88616381304952,-117.14290206931254,59.906105028762276,29.07228915662651,4.261744966442949,10.486238532110088,-4.059360730593614,-15.55102040816326,-6.314917127071823,-8.561797752809,9.121546961325967,10.928614454392902,67.50608252876471,7.075058715944363,38.09822419975346,36.64073339013458,2038.3336774231088,1
0.7699886320576095,-7.800094854161712,-11.581850934474208,-88.16556641140744,122.61190806725283,-117.38253978237626,58.7513453330859,29.07228915662651,4.261744966442949,10.486238532110088,-4.059360730593614,-15.55102040816326,-6.314917127071823,-8.561797752809,9.121546961325967,10.928614454392902,67.50608252876471,6.71731147356451,40.05265844818176,35.84917073334778,2056.329362320219,1
0.7699886320576095,-7.800094854161712,-11.581850934474208,-88.16556641140744,122.61190806725283,-117.38253978237626,58.7513453330859,29.07228915662651,4.261744966442949,17.477064220183482,8.698630136986296,-7.775510204081629,2.1049723756906076,-1.4269662921348427,10.524861878453038,10.167754903824918,85.01527238622353,6.71731147356451,40.05265844818176,35.84917073334778,2056.329362320219,1
0.7699886320576095,-7.800094854161712,-11.581850934474208,-88.16556641140744,122.61190806725283,-117.38253978237626,58.7513453330859,22.95180722891567,-5.966442953020138,12.816513761467885,8.698630136986296,-16.8469387755102,-3.5082872928176796,-12.842696629213494,6.314917127071823,11.243279238125398,41.70898921396713,6.71731147356451,40.05265844818176,35.84917073334778,2056.329362320219,1
2.3580901856764047,-4.0054541142992495,-12.00127598889138,-87.83020860839724,122.47478019435447,-117.46241902006416,57.83225088142511,22.95180722891567,-5.966442953020138,12.816513761467885,8.698630136986296,-16.8469387755102,-3.5082872928176796,-12.842696629213494,6.314917127071823,11.243279238125398,41.70898921396713,6.121606762955678,51.76987674054668,34.61231290386262,2140.0916092765947,1
2.3580901856764047,-4.0054541142992495,-12.00127598889138,-87.83020860839724,122.47478019435447,-117.46241902006416,57.83225088142511,29.07228915662651,-0.8523489932885946,5.825688073394492,0.5799086757990803,-22.030612244897956,2.1049723756906076,-8.561797752809,13.331491712707182,10.294888623151678,110.44763053461318,6.121606762955678,51.76987674054668,34.61231290386262,2140.0916092765947,1
2.3580901856764047,-4.0054541142992495,-12.00127598889138,-87.83020860839724,122.47478019435447,-117.46241902006416,57.83225088142511,22.95180722891567,-0.8523489932885946,10.486238532110088,-0.5799086757990928,-23.326530612244895,-3.5082872928176796,-12.842696629213494,11.928176795580109,10.809499344996203,80.95694375686114,6.121606762955678,51.76987674054668,34.61231290386262,2140.0916092765947,1
6.520841227737792,-0.09034858904432941,-12.268182841702309,-88.43385265381573,122.69026685176617,-117.35058808730109,57.266654295787696,22.95180722891567,-0.8523489932885946,10.486238532110088,-0.5799086757990928,-23.326530612244895,-3.5082872928176796,-12.842696629213494,11.928176795580109,10.809499344996203,80.95694375686114,6.2931242194948105,90.83915056012216,33.59746136152079,2292.347269242563,1
6.520841227737792,-0.09034858904432941,-12.268182841702309,-88.43385265381573,122.69026685176617,-117.35058808730109,57.266654295787696,22.95180722891567,0.8523489932885866,24.467889908256875,9.858447488584469,-16.8469387755102,-2.1049723756906076,-4.280898876404505,11.928176795580109,11.66143505527888,83.47482694347885,6.2931242194948105,90.83915056012216,33.59746136152079,2292.347269242563,1
6.520841227737792,-0.09034858904432941,-12.268182841702309,-88.43385265381573,122.69026685176617,-117.35058808730109,57.266654295787696,35.19277108433735,4.261744966442949,15.146788990825684,2.8995433789954275,-12.959183673469383,-2.1049723756906076,-9.988764044943832,10.524861878453038,11.634828799144785,113.49881724296988,6.2931242194948105,90.83915056012216,33.59746136152079,2292.347269242563,1
6.352406214475192,0.9336020867915735,-12.439765818509334,-88.83628201742806,122.88616381304952,-117.19082961192528,56.70105771015029,35.19277108433735,4.261744966442949,15.146788990825684,2.8995433789954275,-12.959183673469383,-2.1049723756906076,-9.988764044943832,10.524861878453038,11.634828799144785,113.49881724296988,6.575258039925366,93.55935617033654,34.069883307576326,2282.616771690112,1
6.352406214475192,0.9336020867915735,-12.439765818509334,-88.83628201742806,122.88616381304952,-117.19082961192528,56.70105771015029,32.13253012048193,-0.8523489932885946,10.486238532110088,-1.7397260273972668,-23.326530612244895,-7.718232044198895,-15.696629213483156,3.5082872928176787,11.932565354502813,124.21647044621734,6.575258039925366,93.55935617033654,34.069883307576326,2282.616771690112,1
6.352406214475192,0.9336020867915735,-12.439765818509334,-88.83628201742806,122.88616381304952,-117.19082961192528,56.70105771015029,22.95180722891567,0.8523489932885866,12.816513761467885,-1.7397260273972668,-28.51020408163265,-2.1049723756906076,-5.707865168539337,9.121546961325967,10.475623074782247,107.13388347390658,6.575258039925366,93.55935617033654,34.069883307576326,2282.616771690112,1
7.411140583554388,2.68034147498223,-12.763866996922605,-89.30578294164252,123.16041955884621,-116.96716774639914,56.300426795323794,22.95180722891567,0.8523489932885866,12.816513761467885,-1.7397260273972668,-28.51020408163265,-2.1049723756906076,-5.707865168539337,9.121546961325967,10.475623074782247,107.13388347390658,7.618449685153074,111.3224944002714,34.916663804515785,2244.05158212233,1
7.411140583554388,2.68034147498223,-12.763866996922605,-89.30578294164252,123.16041955884621,-116.96716774639914,56.300426795323794,16.831325301204824,-0.8523489932885946,12.816513761467885,4.0593607305936015,-15.55102040816326,0.701657458563536,-11.415730337078662,7.718232044198894,8.743273629319907,40.77419123204235,7.618449685153074,111.3224944002714,34.916663804515785,2244.05158212233,1
7.411140583554388,2.68034147498223,-12.763866996922605,-89.30578294164252,123.16041955884621,-116.96716774639914,56.300426795323794,29.07228915662651,4.261744966442949,15.146788990825684,2.8995433789954275,-22.030612244897956,-4.911602209944752,-15.696629213483156,10.524861878453038,13.068009004958684,85.94839415074263,7.618449685153074,111.3224944002714,34.916663804515785,2244.05158212233,1
6.568965517241391,4.908940004742723,-13.126097725737436,-89.37285450224454,123.33672682400125,-116.63167494810995,55.94692892930041,29.07228915662651,4.261744966442949,15.146788990825684,2.8995433789954275,-22.030612244897956,-4.911602209944752,-15.696629213483156,10.524861878453038,13.068009004958684,85.94839415074263,8.201334415907183,119.31896446448751,35.80263074424156,2169.2070753648054,1
6.568965517241391,4.908940004742723,-13.126097725737436,-89.37285450224454,123.33672682400125,-116.63167494810995,55.94692892930041,29.07228915662651,-5.966442953020138,10.486238532110088,0.5799086757990803,-24.622448979591834,-4.911602209944752,-8.561797752809,14.734806629834253,12.366941861216956,98.33880859327307,8.201334415907183,119.31896446448751,35.80263074424156,2169.2070753648054,1
6.568965517241391,4.908940004742723,-13.126097725737436,-89.37285450224454,123.33672682400125,-116.63167494810995,55.94692892930041,26.01204819277109,-0.8523489932885946,3.495412844036693,-2.899543378995441,-25.918367346938773,-3.5082872928176796,-4.280898876404505,10.524861878453038,9.686471100463226,108.64647030225544,8.201334415907183,119.31896446448751,35.80263074424156,2169.2070753648054,1
7.627699886320588,8.281953995731579,-13.011709074532753,-89.77528386585698,123.68934135431128,-116.16837536952009,55.68769716088326,26.01204819277109,-0.8523489932885946,3.495412844036693,-2.899543378995441,-25.918367346938773,-3.5082872928176796,-4.280898876404505,10.524861878453038,9.686471100463226,108.64647030225544,9.640454318861641,146.6388896071622,37.02298231204043,2092.6966351949577,1
7.627699886320588,8.281953995731579,-13.011709074532753,-89.77528386585698,123.68934135431128,-116.16837536952009,55.68769716088326,19.891566265060245,-0.8523489932885946,-1.1651376146789012,-9.858447488584481,-32.397959183673464,-3.5082872928176796,-14.269662921348324,9.121546961325967,11.383119590097206,115.30084069468823,9.640454318861641,146.6388896071622,37.02298231204043,2092.6966351949577,1
7.627699886320588,8.281953995731579,-13.011709074532753,-89.77528386585698,123.68934135431128,-116.16837536952009,55.68769716088326,32.13253012048193,5.96644295302013,22.137614678899077,2.8995433789954275,-23.326530612244895,-6.314917127071823,-12.842696629213494,13.331491712707182,14.868970901579246,103.50823432558556,9.640454318861641,146.6388896071622,37.02298231204043,2092.6966351949577,1
6.448654793482392,11.353806023239285,-12.668543120918702,-89.90942698706101,124.022366188493,-115.60922070570476,55.475598441269234,32.13253012048193,5.96644295302013,22.137614678899077,2.8995433789954275,-23.326530612244895,-6.314917127071823,-12.842696629213494,13.331491712707182,14.868970901579246,103.50823432558556,10.157001312546793,161.1001705148325,37.97725871040633,2023.1447098450876,1
6.448654793482392,11.353806023239285,-12.668543120918702,-89.90942698706101,124.022366188493,-115.60922070570476,55.475598441269234,29.07228915662651,-0.8523489932885946,17.477064220183482,11.018264840182642,-20.734693877551017,-3.5082872928176796,-9.988764044943832,9.121546961325967,12.721657423364965,86.18050353085225,10.157001312546793,161.1001705148325,37.97725871040633,2023.1447098450876,1
6.448654793482392,11.353806023239285,-12.668543120918702,-89.90942698706101,124.022366188493,-115.60922070570476,55.475598441269234,32.13253012048193,0.8523489932885866,12.816513761467885,2.8995433789954275,-19.438775510204078,-0.7016574585635358,-9.988764044943832,7.718232044198894,10.818545664018021,115.32482211971349,10.157001312546793,161.1001705148325,37.97725871040633,2023.1447098450876,1
2.6949602122016034,10.149158169314694,-12.039405539292941,-89.17163982043837,124.06154558074967,-115.17787282219008,55.074967526442734,32.13253012048193,0.8523489932885866,12.816513761467885,2.8995433789954275,-19.438775510204078,-0.7016574585635358,-9.988764044943832,7.718232044198894,10.818545664018021,115.32482211971349,8.29450797360308,127.4998267889307,37.120067843015335,2032.9178677705656,1
2.6949602122016034,10.149158169314694,-12.039405539292941,-89.17163982043837,124.06154558074967,-115.17787282219008,55.074967526442734,22.95180722891567,-0.8523489932885946,12.816513761467885,7.538812785388122,-18.14285714285714,-3.5082872928176796,-9.988764044943832,10.524861878453038,10.790531641016495,52.73479458080181,8.29450797360308,127.4998267889307,37.120067843015335,2032.9178677705656,1
2.6949602122016034,10.149158169314694,-12.039405539292941,-89.17163982043837,124.06154558074967,-115.17787282219008,55.074967526442734,26.01204819277109,-2.557046979865776,12.816513761467885,7.538812785388122,-14.255102040816322,0.701657458563536,-8.561797752809,7.718232044198894,10.020151376985076,62.515734105870465,8.29450797360308,127.4998267889307,37.120067843015335,2032.9178677705656,1
-0.6496779082985862,10.149158169314694,-11.753433911281231,-87.15949300237662,123.66975165818296,-114.87433171897604,54.74503618482092,26.01204819277109,-2.557046979865776,12.816513761467885,7.538812785388122,-14.255102040816322,0.701657458563536,-8.561797752809,7.718232044198894,10.020151376985076,62.515734105870465,7.517423329631504,119.9386329756531,36.354028360990846,1936.5398532343906,1
-0.6496779082985862,10.149158169314694,-11.753433911281231,-87.15949300237662,123.66975165818296,-114.87433171897604,54.74503618482092,29.07228915662651,2.557046979865768,12.816513761467885,5.219178082191775,-14.255102040816322,-6.314917127071823,-11.415730337078662,7.718232044198894,11.171126191164705,68.26613791667569,7.517423329631504,119.9386329756531,36.354028360990846,1936.5398532343906,1
-0.6496779082985862,10.149158169314694,-11.753433911281231,-87.15949300237662,123.66975165818296,-114.87433171897604,54.74503618482092,22.95180722891567,-7.6711409395973185,8.15596330275229,-2.899543378995441,-46.65306122448979,-21.751381215469614,-17.12359550561799,7.718232044198894,16.865590605004627,198.19901589583196,7.517423329631504,119.9386329756531,36.354028360990846,1936.5398532343906,1
-0.7459264873057858,12.257291913682728,-11.619980484875768,-84.81198838130456,123.16041955884621,-114.58676646329958,54.6979031360178,22.95180722891567,-7.6711409395973185,8.15596330275229,-2.899543378995441,-46.65306122448979,-21.751381215469614,-17.12359550561799,7.718232044198894,16.865590605004627,198.19901589583196,8.207732961954761,142.90881272013957,36.22975359328769,1770.2766942128196,1
-0.7459264873057858,12.257291913682728,-11.619980484875768,-84.81198838130456,123.16041955884621,-114.58676646329958,54.6979031360178,29.07228915662651,0.8523489932885866,15.146788990825684,6.378995433789948,-22.030612244897956,-4.911602209944752,-11.415730337078662,10.524861878453038,12.541653655613143,86.89428751344754,8.207732961954761,142.90881272013957,36.22975359328769,1770.2766942128196,1
-0.7459264873057858,12.257291913682728,-11.619980484875768,-84.81198838130456,123.16041955884621,-114.58676646329958,54.6979031360178,29.07228915662651,-5.966442953020138,-3.4954128440367,1.739726027397254,-1.2959183673469354,2.1049723756906076,-15.696629213483156,13.331491712707182,9.08786033128856,95.07864368279174,8.207732961954761,142.90881272013957,36.22975359328769,1770.2766942128196,1
1.6602879878742067,14.967749585013058,-11.67717481047811,-83.135199366253,122.92534320530619,-114.17139442732248,54.81573575802559,29.07228915662651,-5.966442953020138,-3.4954128440367,1.739726027397254,-1.2959183673469354,2.1049723756906076,-15.696629213483156,13.331491712707182,9.08786033128856,95.07864368279174,9.435070794455125,177.48807401636628,36.59337458724806,1627.3130609064006,1
1.6602879878742067,14.967749585013058,-11.67717481047811,-83.135199366253,122.92534320530619,-114.17139442732248,54.81573575802559,32.13253012048193,4.261744966442949,26.798165137614674,9.858447488584469,-16.8469387755102,-0.7016574585635358,-9.988764044943832,6.314917127071823,13.362895639901675,123.06028848997043,9.435070794455125,177.48807401636628,36.59337458724806,1627.3130609064006,1
1.6602879878742067,14.967749585013058,-11.67717481047811,-83.135199366253,122.92534320530619,-114.17139442732248,54.81573575802559,35.19277108433735,9.375838926174492,15.146788990825684,4.0593607305936015,-16.8469387755102,2.1049723756906076,-12.842696629213494,9.121546961325967,13.086364309208925,105.52934317957465,9.435070794455125,177.48807401636628,36.59337458724806,1627.3130609064006,1
5.293671845395996,15.027981977709288,-12.554154469714017,-83.00105624504886,123.16041955884621,-113.66016730611989,54.957134904434945,35.19277108433735,9.375838926174492,15.146788990825684,4.0593607305936015,-16.8469387755102,2.1049723756906076,-12.842696629213494,9.121546961325967,13.086364309208925,105.52934317957465,10.9586027642731,195.67932482177798,36.861064230824056,1598.204102939375,1
5.293671845395996,15.027981977709288,-12.554154469714017,-83.00105624504886,123.16041955884621,-113.66016730611989,54.957134904434945,26.01204819277109,2.557046979865768,10.486238532110088,2.8995433789954275,-9.071428571428568,-3.5082872928176796,-11.415730337078662,13.331491712707182,9.910226874721808,59.78276908599441,10.9586027642731,195.67932482177798,36.861064230824056,1598.204102939375,1
5.293671845395996,15.027981977709288,-12.554154469714017,-83.00105624504886,123.16041955884621,-113.66016730611989,54.957134904434945,19.891566265060245,-5.966442953020138,17.477064220183482,7.538812785388122,-23.326530612244895,-3.5082872928176796,-8.561797752809,7.718232044198894,11.748591740715305,54.08995080278459,10.9586027642731,195.67932482177798,36.861064230824056,1598.204102939375,1
3.6333838575218005,15.148446763101747,-12.458830593710115,-82.39741219963037,123.21918864723123,-113.2288194226052,55.14566709964741,19.891566265060245,-5.966442953020138,17.477064220183482,7.538812785388122,-23.326530612244895,-3.5082872928176796,-8.561797752809,7.718232044198894,11.748591740715305,54.08995080278459,10.41355373811122,192.28630045330624,36.66822985214741,1570.1770974116735,1
3.6333838575218005,15.148446763101747,-12.458830593710115,-82.39741219963037,123.21918864723123,-113.2288194226052,55.14566709964741,19.891566265060245,-2.557046979865776,17.477064220183482,7.538812785388122,-20.734693877551017,-6.314917127071823,-11.415730337078662,7.718232044198894,11.706007954549753,46.84930076896418,10.41355373811122,192.28630045330624,36.66822985214741,1570.1770974116735,1
3.6333838575218005,15.148446763101747,-12.458830593710115,-82.39741219963037,123.21918864723123,-113.2288194226052,55.14566709964741,22.95180722891567,0.8523489932885866,15.146788990825684,-2.899543378995441,-34.98979591836734,-13.331491712707182,-15.696629213483156,9.121546961325967,14.37374404973863,120.58709366971301,10.41355373811122,192.28630045330624,36.66822985214741,1570.1770974116735,1
2.0934065934066055,14.907517192316828,-12.00127598889138,-81.19012410879327,123.0428813820762,-112.90930247185358,55.428465392466116,22.95180722891567,0.8523489932885866,15.146788990825684,-2.899543378995441,-34.98979591836734,-13.331491712707182,-15.696629213483156,9.121546961325967,14.37374404973863,120.58709366971301,9.667399924871605,181.15744300097913,36.03297243000049,1531.487820289245,1
2.0934065934066055,14.907517192316828,-12.00127598889138,-81.19012410879327,123.0428813820762,-112.90930247185358,55.428465392466116,26.01204819277109,-4.261744966442957,8.15596330275229,5.219178082191775,-24.622448979591834,-0.7016574585635358,-9.988764044943832,7.718232044198894,10.835004633932027,87.92484360404498,9.667399924871605,181.15744300097913,36.03297243000049,1531.487820289245,1
2.0934065934066055,14.907517192316828,-12.00127598889138,-81.19012410879327,123.0428813820762,-112.90930247185358,55.428465392466116,29.07228915662651,0.8523489932885866,17.477064220183482,8.698630136986296,-14.255102040816322,2.1049723756906076,-7.134831460674168,6.314917127071823,10.738769438917224,86.12741776030057,9.667399924871605,181.15744300097913,36.03297243000049,1531.487820289245,1
3.4408866995074012,15.329143941190436,-11.562786159273426,-80.25112226036447,122.96452259756286,-112.57380967356438,55.80552978289106,29.07228915662651,0.8523489932885866,17.477064220183482,8.698630136986296,-14.255102040816322,2.1049723756906076,-7.134831460674168,6.314917127071823,10.738769438917224,86.12741776030057,10.110938933323753,181.60279400432998,35.71435078694278,1491.1893726921928,1
3.4408866995074012,15.329143941190436,-11.562786159273426,-80.25112226036447,122.96452259756286,-112.57380967356438,55.80552978289106,32.13253012048193,-4.261744966442957,12.816513761467885,8.698630136986296,-25.918367346938773,4.911602209944752,-5.707865168539337,10.524861878453038,13.121514448656871,107.49086664178698,10.110938933323753,181.60279400432998,35.71435078694278,1491.1893726921928,1
3.4408866995074012,15.329143941190436,-11.562786159273426,-80.25112226036447,122.96452259756286,-112.57380967356438,55.80552978289106,32.13253012048193,2.557046979865768,12.816513761467885,4.0593607305936015,-31.10204081632653,-6.314917127071823,-11.415730337078662,10.524861878453038,13.865375218917404,132.87101628579828,10.110938933323753,181.60279400432998,35.71435078694278,1491.1893726921928,1
3.2965138309966013,15.871235475456501,-11.505591833671085,-79.17797729073152,122.8665741169212,-112.19038933266243,56.15902764891444,32.13253012048193,2.557046979865768,12.816513761467885,4.0593607305936015,-31.10204081632653,-6.314917127071823,-11.415730337078662,10.524861878453038,13.865375218917404,132.87101628579828,10.224447046708063,187.7861050095716,35.518268199953035,1434.3923595203196,1
3.2965138309966013,15.871235475456501,-11.505591833671085,-79.17797729073152,122.8665741169212,-112.19038933266243,56.15902764891444,35.19277108433735,0.8523489932885866,12.816513761467885,5.219178082191775,-14.255102040816322,-2.1049723756906076,-11.415730337078662,13.331491712707182,11.898513548447298,116.2642708947388,10.224447046708063,187.7861050095716,35.518268199953035,1434.3923595203196,1
3.2965138309966013,15.871235475456501,-11.505591833671085,-79.17797729073152,122.8665741169212,-112.19038933266243,56.15902764891444,22.95180722891567,-9.3758389261745,19.80733944954128,15.657534246575336,5.1836734693877595,2.1049723756906076,-11.415730337078662,7.718232044198894,11.776891009695339,51.97299641680244,10.224447046708063,187.7861050095716,35.518268199953035,1434.3923595203196,1
3.4168245547556015,15.630305904671584,-12.115664640096064,-78.17190388170059,122.80780502853618,-111.75904144914774,56.41825941733158,22.95180722891567,-9.3758389261745,19.80733944954128,15.657534246575336,5.1836734693877595,2.1049723756906076,-11.415730337078662,7.718232044198894,11.776891009695339,51.97299641680244,10.387598366507751,193.37770479067387,35.30595814215608,1381.205153913845,1
3.4168245547556015,15.630305904671584,-12.115664640096064,-78.17190388170059,122.80780502853618,-111.75904144914774,56.41825941733158,32.13253012048193,4.261744966442949,19.80733944954128,12.178082191780817,-7.775510204081629,-3.5082872928176796,-7.134831460674168,9.121546961325967,11.989984080893304,92.58509650911851,10.387598366507751,193.37770479067387,35.30595814215608,1381.205153913845,1
3.4168245547556015,15.630305904671584,-12.115664640096064,-78.17190388170059,122.80780502853618,-111.75904144914774,56.41825941733158,26.01204819277109,-0.8523489932885946,12.816513761467885,0.5799086757990803,-19.438775510204078,-2.1049723756906076,-7.134831460674168,11.928176795580109,10.10844697068445,85.71299878054619,10.387598366507751,193.37770479067387,35.30595814215608,1381.205153913845,1
4.716180371352797,14.787052406924369,-12.249118066501527,-77.63533139688411,122.8665741169212,-111.34366941317064,56.70105771015029,26.01204819277109,-0.8523489932885946,12.816513761467885,0.5799086757990803,-19.438775510204078,-2.1049723756906076,-7.134831460674168,11.928176795580109,10.10844697068445,85.71299878054619,10.584116948259565,186.69972141841103,34.89050062343667,1371.950696067069,1
4.716180371352797,14.787052406924369,-12.249118066501527,-77.63533139688411,122.8665741169212,-111.34366941317064,56.70105771015029,19.891566265060245,-4.261744966442957,17.477064220183482,5.219178082191775,-20.734693877551017,-7.718232044198895,-11.415730337078662,7.718232044198894,11.804555229613241,44.447559999323694,10.584116948259565,186.69972141841103,34.89050062343667,1371.950696067069,1
4.716180371352797,14.787052406924369,-12.249118066501527,-77.63533139688411,122.8665741169212,-111.34366941317064,56.70105771015029,35.19277108433735,2.557046979865768,17.477064220183482,5.219178082191775,-15.55102040816326,0.701657458563536,-7.134831460674168,10.524861878453038,11.794803946554048,124.11758783109902,10.584116948259565,186.69972141841103,34.89050062343667,1371.950696067069,1
4.836491095111797,12.618686269860106,-11.829693012084354,-77.23290203327178,122.90575350917787,-111.0401283099566,56.93672295416588,35.19277108433735,2.557046979865768,17.477064220183482,5.219178082191775,-15.55102040816326,0.701657458563536,-7.134831460674168,10.524861878453038,11.794803946554048,124.11758783109902,9.761623459018752,156.00791732444074,33.893760438405415,1408.8665232251112,1
4.836491095111797,12.618686269860106,-11.829693012084354,-77.23290203327178,122.90575350917787,-111.0401283099566,56.93672295416588,26.01204819277109,2.557046979865768,10.486238532110088,5.219178082191775,-16.8469387755102,-4.911602209944752,-12.842696629213494,7.718232044198894,10.824247680725756,59.35722871275511,9.761623459018752,156.00791732444074,33.893760438405415,1408.8665232251112,1
4.836491095111797,12.618686269860106,-11.829693012084354,-77.23290203327178,122.90575350917787,-111.0401283099566,56.93672295416588,22.95180722891567,-4.261744966442957,10.486238532110088,8.698630136986296,-16.8469387755102,4.911602209944752,-7.134831460674168,11.928176795580109,10.902496263270528,40.11289941329229,9.761623459018752,156.00791732444074,33.893760438405415,1408.8665232251112,1
5.413982569154995,12.678918662556335,-11.04803722885235,-77.09875891206764,123.02329168594788,-110.73658720674257,57.172388198181466,22.95180722891567,-4.261744966442957,10.486238532110088,8.698630136986296,-16.8469387755102,4.911602209944752,-7.134831460674168,11.928176795580109,10.902496263270528,40.11289941329229,9.713646153521227,147.79097135734077,33.60857160115877,1419.212237816154,1
5.413982569154995,12.678918662556335,-11.04803722885235,-77.09875891206764,123.02329168594788,-110.73658720674257,57.172388198181466,26.01204819277109,0.8523489932885866,15.146788990825684,1.739726027397254,-23.326530612244895,-6.314917127071823,-11.415730337078662,7.718232044198894,11.56579029060961,87.65145524918726,9.713646153521227,147.79097135734077,33.60857160115877,1419.212237816154,1
5.413982569154995,12.678918662556335,-11.04803722885235,-77.09875891206764,123.02329168594788,-110.73658720674257,57.172388198181466,22.95180722891567,-2.557046979865776,8.15596330275229,4.0593607305936015,-18.14285714285714,-4.911602209944752,-11.415730337078662,7.718232044198894,9.989074997025849,51.6066062128102,9.713646153521227,147.79097135734077,33.60857160115877,1419.212237816154,1
4.740242516104598,14.244960872658304,-10.47609397282893,-76.62925798785318,123.06247107820455,-110.41707025599095,57.50231953980329,22.95180722891567,-2.557046979865776,8.15596330275229,4.0593607305936015,-18.14285714285714,-4.911602209944752,-11.415730337078662,7.718232044198894,9.989074997025849,51.6066062128102,9.820432453863944,155.50118664257445,33.78343761111348,1380.37433224404,1
4.740242516104598,14.244960872658304,-10.47609397282893,-76.62925798785318,123.06247107820455,-110.41707025599095,57.50231953980329,26.01204819277109,-7.6711409395973185,12.816513761467885,2.8995433789954275,-19.438775510204078,-6.314917127071823,-12.842696629213494,9.121546961325967,12.139647812580886,56.43666950433801,9.820432453863944,155.50118664257445,33.78343761111348,1380.37433224404,1
4.740242516104598,14.244960872658304,-10.47609397282893,-76.62925798785318,123.06247107820455,-110.41707025599095,57.50231953980329,29.07228915662651,-0.8523489932885946,19.80733944954128,0.5799086757990803,-29.806122448979586,-3.5082872928176796,-8.561797752809,11.928176795580109,13.01453382068023,142.83793697094006,9.820432453863944,155.50118664257445,33.78343761111348,1380.37433224404,1
3.248389541493002,13.28124258951863,-11.009907678450789,-75.69025613942438,122.92534320530619,-110.14548084785207,57.76155130822043,29.07228915662651,-0.8523489932885946,19.80733944954128,0.5799086757990803,-29.806122448979586,-3.5082872928176796,-8.561797752809,11.928176795580109,13.01453382068023,142.83793697094006,9.17984660315414,149.0028602061008,33.327135469131264,1347.2652352639207,1
3.248389541493002,13.28124258951863,-11.009907678450789,-75.69025613942438,122.92534320530619,-110.14548084785207,57.76155130822043,29.07228915662651,2.557046979865768,12.816513761467885,4.0593607305936015,-20.734693877551017,-2.1049723756906076,-7.134831460674168,10.524861878453038,11.125571277615325,91.1840295724635,9.17984660315414,149.0028602061008,33.327135469131264,1347.2652352639207,1
3.248389541493002,13.28124258951863,-11.009907678450789,-75.69025613942438,122.92534320530619,-110.14548084785207,57.76155130822043,29.07228915662651,-0.8523489932885946,15.146788990825684,2.8995433789954275,-22.030612244897956,-9.121546961325967,-12.842696629213494,9.121546961325967,12.63592166456245,89.01612916841111,9.17984660315414,149.0028602061008,33.327135469131264,1347.2652352639207,1
4.451496779082998,11.654967986720433,-10.876454252045324,-75.48904145761821,122.92534320530619,-110.00169822001384,58.091482649842256,29.07228915662651,-0.8523489932885946,15.146788990825684,2.8995433789954275,-22.030612244897956,-9.121546961325967,-12.842696629213494,9.121546961325967,12.63592166456245,89.01612916841111,8.994306339282918,132.41684472557958,32.673487898794654,1375.030240820136,1
4.451496779082998,11.654967986720433,-10.876454252045324,-75.48904145761821,122.92534320530619,-110.00169822001384,58.091482649842256,26.01204819277109,-2.557046979865776,5.825688073394492,9.858447488584469,-12.959183673469383,-3.5082872928176796,-5.707865168539337,7.718232044198894,9.26834986420514,57.06766387049254,8.994306339282918,132.41684472557958,32.673487898794654,1375.030240820136,1
4.451496779082998,11.654967986720433,-10.876454252045324,-75.48904145761821,122.92534320530619,-110.00169822001384,58.091482649842256,16.831325301204824,0.8523489932885866,10.486238532110088,4.0593607305936015,-23.326530612244895,-6.314917127071823,-17.12359550561799,6.314917127071823,10.663654241150454,59.693193454839125,8.994306339282918,132.41684472557958,32.673487898794654,1375.030240820136,1
5.606479727169394,10.088925776618463,-10.609547399234396,-75.7573277000264,123.0428813820762,-109.96974652493869,58.515680089070315,16.831325301204824,0.8523489932885866,10.486238532110088,4.0593607305936015,-23.326530612244895,-6.314917127071823,-17.12359550561799,6.314917127071823,10.663654241150454,59.693193454839125,8.768317634340752,118.5797750269976,32.15193362529309,1426.140556028074,1
5.606479727169394,10.088925776618463,-10.609547399234396,-75.7573277000264,123.0428813820762,-109.96974652493869,58.515680089070315,16.831325301204824,-2.557046979865776,10.486238532110088,4.0593607305936015,-7.775510204081629,4.911602209944752,-8.561797752809,9.121546961325967,8.038053583991955,20.068365760399825,8.768317634340752,118.5797750269976,32.15193362529309,1426.140556028074,1
5.606479727169394,10.088925776618463,-10.609547399234396,-75.7573277000264,123.0428813820762,-109.96974652493869,58.515680089070315,26.01204819277109,-2.557046979865776,10.486238532110088,7.538812785388122,-12.959183673469383,-9.121546961325967,-9.988764044943832,10.524861878453038,11.148562881040911,45.33251255171562,8.768317634340752,118.5797750269976,32.15193362529309,1426.140556028074,1
6.4245926487305915,10.269622954707152,-10.41889964722659,-76.15975706363884,123.1408298627179,-109.9537706774011,59.057710150306164,26.01204819277109,-2.557046979865776,10.486238532110088,7.538812785388122,-12.959183673469383,-9.121546961325967,-9.988764044943832,10.524861878453038,11.148562881040911,45.33251255171562,9.037705083554778,121.08374303809508,32.2827598885242,1443.898731711496,1
6.4245926487305915,10.269622954707152,-10.41889964722659,-76.15975706363884,123.1408298627179,-109.9537706774011,59.057710150306164,29.07228915662651,5.96644295302013,10.486238532110088,4.0593607305936015,-19.438775510204078,-3.5082872928176796,-11.415730337078662,7.718232044198894,11.458169569581205,76.71184648734018,9.037705083554778,121.08374303809508,32.2827598885242,1443.898731711496,1
6.4245926487305915,10.269622954707152,-10.41889964722659,-76.15975706363884,123.1408298627179,-109.9537706774011,59.057710150306164,26.01204819277109,-4.261744966442957,10.486238532110088,1.739726027397254,-20.734693877551017,0.701657458563536,-14.269662921348324,4.911602209944751,10.389671773266127,86.05452851966928,9.037705083554778,121.08374303809508,32.2827598885242,1443.898731711496,1
7.459264873057989,11.293573630543055,-10.609547399234396,-77.09875891206764,123.43467530464294,-109.88986728725078,59.59974021154201,26.01204819277109,-4.261744966442957,10.486238532110088,1.739726027397254,-20.734693877551017,0.701657458563536,-14.269662921348324,4.911602209944751,10.389671773266127,86.05452851966928,9.787461967611813,136.82176857069163,33.0006266472817,1458.6009249031958,1
7.459264873057989,11.293573630543055,-10.609547399234396,-77.09875891206764,123.43467530464294,-109.88986728725078,59.59974021154201,26.01204819277109,-0.8523489932885946,12.816513761467885,2.8995433789954275,-24.622448979591834,-6.314917127071823,-11.415730337078662,7.718232044198894,11.581472851808027,87.57322807829026,9.787461967611813,136.82176857069163,33.0006266472817,1458.6009249031958,1
7.459264873057989,11.293573630543055,-10.609547399234396,-77.09875891206764,123.43467530464294,-109.88986728725078,59.59974021154201,32.13253012048193,7.671140939597311,31.45871559633027,8.698630136986296,-20.734693877551017,0.701657458563536,-9.988764044943832,11.928176795580109,15.414288621254286,132.6195944417395,9.787461967611813,136.82176857069163,33.0006266472817,1458.6009249031958,1
6.448654793482392,10.932179274365678,-10.361705321624248,-77.70240295748613,123.61098256979794,-109.85791559217562,60.16533679717942,32.13253012048193,7.671140939597311,31.45871559633027,8.698630136986296,-20.734693877551017,0.701657458563536,-9.988764044943832,11.928176795580109,15.414288621254286,132.6195944417395,9.247513129824107,126.0199533595975,32.99876251782535,1498.8929615515449,1
6.448654793482392,10.932179274365678,-10.361705321624248,-77.70240295748613,123.61098256979794,-109.85791559217562,60.16533679717942,29.07228915662651,-0.8523489932885946,12.816513761467885,0.5799086757990803,-23.326530612244895,-3.5082872928176796,-8.561797752809,14.734806629834253,11.681560359360986,109.38671607991873,9.247513129824107,126.0199533595975,32.99876251782535,1498.8929615515449,1
6.448654793482392,10.932179274365678,-10.361705321624248,-77.70240295748613,123.61098256979794,-109.85791559217562,60.16533679717942,29.07228915662651,0.8523489932885866,12.816513761467885,2.8995433789954275,-16.8469387755102,-9.121546961325967,-4.280898876404505,11.928176795580109,10.9772820873999,83.17407973381587,9.247513129824107,126.0199533595975,32.99876251782535,1498.8929615515449,1
6.256157635467993,10.81171448897322,-10.43796442242737,-78.17190388170059,123.7481104426963,-109.85791559217562,60.73093338281683,29.07228915662651,0.8523489932885866,12.816513761467885,2.8995433789954275,-16.8469387755102,-9.121546961325967,-4.280898876404505,11.928176795580109,10.9772820873999,83.17407973381587,9.168612182289527,125.16594389450832,33.14052759770039,1520.903559801472,1
6.256157635467993,10.81171448897322,-10.43796442242737,-78.17190388170059,123.7481104426963,-109.85791559217562,60.73093338281683,22.95180722891567,-9.3758389261745,26.798165137614674,12.178082191780817,-19.438775510204078,-4.911602209944752,-9.988764044943832,11.928176795580109,14.696401505644804,56.75886456451167,9.168612182289527,125.16594389450832,33.14052759770039,1520.903559801472,1
6.256157635467993,10.81171448897322,-10.43796442242737,-78.17190388170059,123.7481104426963,-109.85791559217562,60.73093338281683,26.01204819277109,-4.261744966442957,8.15596330275229,7.538812785388122,-18.14285714285714,-0.7016574585635358,-11.415730337078662,7.718232044198894,10.493380778756585,65.25711844563892,9.168612182289527,125.16594389450832,33.14052759770039,1520.903559801472,1
7.218643425539989,10.932179274365678,-9.732567739998487,-78.77554792711908,123.86564861946631,-109.92181898232593,61.48506216366671,26.01204819277109,-4.261744966442957,8.15596330275229,7.538812785388122,-18.14285714285714,-0.7016574585635358,-11.415730337078662,7.718232044198894,10.493380778756585,65.25711844563892,9.294463479968051,121.36094627447709,33.14676498049442,1561.849141850986,1
7.218643425539989,10.932179274365678,-9.732567739998487,-78.77554792711908,123.86564861946631,-109.92181898232593,61.48506216366671,19.891566265060245,-5.966442953020138,8.15596330275229,0.5799086757990803,-22.030612244897956,-3.5082872928176796,-11.415730337078662,3.5082872928176787,9.382099795530467,62.03163476321869,9.294463479968051,121.36094627447709,33.14676498049442,1561.849141850986,1
7.218643425539989,10.932179274365678,-9.732567739998487,-78.77554792711908,123.86564861946631,-109.92181898232593,61.48506216366671,19.891566265060245,0.8523489932885866,15.146788990825684,1.739726027397254,-16.8469387755102,-9.121546961325967,-15.696629213483156,2.1049723756906076,10.175064700322713,59.776325694582184,9.294463479968051,121.36094627447709,33.14676498049442,1561.849141850986,1
9.504547176960983,10.570784918188302,-9.008106282368825,-80.25112226036447,124.19867345364803,-110.033649915089,62.38059009092594,19.891566265060245,0.8523489932885866,15.146788990825684,1.739726027397254,-16.8469387755102,-9.121546961325967,-15.696629213483156,2.1049723756906076,10.175064700322713,59.776325694582184,9.694479459172703,121.19803027821779,33.276671153640535,1655.5597837132098,1
9.504547176960983,10.570784918188302,-9.008106282368825,-80.25112226036447,124.19867345364803,-110.033649915089,62.38059009092594,22.95180722891567,-2.557046979865776,5.825688073394492,-12.178082191780828,-42.765306122448976,-21.751381215469614,-18.55056179775282,3.5082872928176787,16.26102011280573,179.8039265892678,9.694479459172703,121.19803027821779,33.276671153640535,1655.5597837132098,1
9.504547176960983,10.570784918188302,-9.008106282368825,-80.25112226036447,124.19867345364803,-110.033649915089,62.38059009092594,29.07228915662651,4.261744966442949,12.816513761467885,2.8995433789954275,-19.438775510204078,-2.1049723756906076,-7.134831460674168,14.734806629834253,11.557934654991985,88.23732346956047,9.694479459172703,121.19803027821779,33.276671153640535,1655.5597837132098,1
15.207275483137565,16.05193265354519,-7.235082188696229,-83.53762872986533,125.08020977942313,-110.08157745770174,63.91241417702726,29.07228915662651,4.261744966442949,12.816513761467885,2.8995433789954275,-19.438775510204078,-2.1049723756906076,-7.134831460674168,14.734806629834253,11.557934654991985,88.23732346956047,12.831430108459662,174.44298731146839,35.60821452403558,1742.3557726153726,1
15.207275483137565,16.05193265354519,-7.235082188696229,-83.53762872986533,125.08020977942313,-110.08157745770174,63.91241417702726,35.19277108433735,0.8523489932885866,17.477064220183482,7.538812785388122,-7.775510204081629,2.1049723756906076,-7.134831460674168,7.718232044198894,10.724317895980356,122.40250659923527,12.831430108459662,174.44298731146839,35.60821452403558,1742.3557726153726,1
15.207275483137565,16.05193265354519,-7.235082188696229,-83.53762872986533,125.08020977942313,-110.08157745770174,63.91241417702726,19.891566265060245,-7.6711409395973185,12.816513761467885,2.8995433789954275,-19.438775510204078,-2.1049723756906076,-9.988764044943832,11.928176795580109,10.842431633942438,44.43975850771487,12.831430108459662,174.44298731146839,35.60821452403558,1742.3557726153726,1
9.745168624478982,9.125207493478792,-7.3304060647001315,-85.34856086612103,125.45241400586148,-110.28926347569029,64.76080905548338,19.891566265060245,-7.6711409395973185,12.816513761467885,2.8995433789954275,-19.438775510204078,-2.1049723756906076,-9.988764044943832,11.928176795580109,10.842431633942438,44.43975850771487,8.733594060885968,93.79113672430124,33.934724808099986,1983.3422316929855,1
9.745168624478982,9.125207493478792,-7.3304060647001315,-85.34856086612103,125.45241400586148,-110.28926347569029,64.76080905548338,38.25301204819277,11.080536912751674,12.816513761467885,9.858447488584469,-19.438775510204078,2.1049723756906076,-8.561797752809,18.944751381215468,15.132350903864495,118.58911108431417,8.733594060885968,93.79113672430124,33.934724808099986,1983.3422316929855,1
9.745168624478982,9.125207493478792,-7.3304060647001315,-85.34856086612103,125.45241400586148,-110.28926347569029,64.76080905548338,26.01204819277109,2.557046979865768,12.816513761467885,6.378995433789948,-15.55102040816326,4.911602209944752,-11.415730337078662,6.314917127071823,10.744734306269148,57.24005359121219,8.733594060885968,93.79113672430124,33.934724808099986,1983.3422316929855,1
3.176203107237602,4.728242826654035,-6.453426405464223,-84.94613150250859,125.06062008329478,-110.76853890181772,65.27927259231767,26.01204819277109,2.557046979865768,12.816513761467885,6.378995433789948,-15.55102040816326,4.911602209944752,-11.415730337078662,6.314917127071823,10.744734306269148,57.24005359121219,4.785957446451953,36.69471977650739,32.04260024487562,2099.831779240661,1
3.176203107237602,4.728242826654035,-6.453426405464223,-84.94613150250859,125.06062008329478,-110.76853890181772,65.27927259231767,32.13253012048193,11.080536912751674,24.467889908256875,4.0593607305936015,-16.8469387755102,2.1049723756906076,-7.134831460674168,13.331491712707182,13.89481899958328,106.11294601988097,4.785957446451953,36.69471977650739,32.04260024487562,2099.831779240661,1
3.176203107237602,4.728242826654035,-6.453426405464223,-84.94613150250859,125.06062008329478,-110.76853890181772,65.27927259231767,35.19277108433735,2.557046979865768,10.486238532110088,4.0593607305936015,-20.734693877551017,-4.911602209944752,-7.134831460674168,11.928176795580109,12.125590208832108,120.35833124976209,4.785957446451953,36.69471977650739,32.04260024487562,2099.831779240661,1
3.2002652519894017,3.8247569362105915,-4.794790962996311,-84.3424874570901,124.51210859170139,-111.50342788854645,66.10410094637223,35.19277108433735,2.557046979865768,10.486238532110088,4.0593607305936015,-20.734693877551017,-4.911602209944752,-7.134831460674168,11.928176795580109,12.125590208832108,120.35833124976209,3.9399377170654346,23.101253288527538,30.98734511876567,2135.313651960426,1
3.2002652519894017,3.8247569362105915,-4.794790962996311,-84.3424874570901,124.51210859170139,-111.50342788854645,66.10410094637223,19.891566265060245,-0.8523489932885946,19.80733944954128,6.378995433789948,-14.255102040816322,-7.718232044198895,-15.696629213483156,6.314917127071823,11.364391320906282,49.324207487047424,3.9399377170654346,23.101253288527538,30.98734511876567,2135.313651960426,1
3.2002652519894017,3.8247569362105915,-4.794790962996311,-84.3424874570901,124.51210859170139,-111.50342788854645,66.10410094637223,32.13253012048193,-0.8523489932885946,12.816513761467885,8.698630136986296,-18.14285714285714,3.5082872928176796,-7.134831460674168,13.331491712707182,12.077186327660108,96.62765450816184,3.9399377170654346,23.101253288527538,30.98734511876567,2135.313651960426,1
3.849943160288,4.00545411429928,-2.2591758612924906,-83.87298653287564,123.90482801172298,-112.39807535065098,67.16459454444237,32.13253012048193,-0.8523489932885946,12.816513761467885,8.698630136986296,-18.14285714285714,3.5082872928176796,-7.134831460674168,13.331491712707182,12.077186327660108,96.62765450816184,3.37152437862659,12.765184601289501,30.04587216948914,2173.7810524510483,1
3.849943160288,4.00545411429928,-2.2591758612924906,-83.87298653287564,123.90482801172298,-112.39807535065098,67.16459454444237,22.95180722891567,-4.261744966442957,1.1651376146788959,4.0593607305936015,-14.255102040816322,-6.314917127071823,-5.707865168539337,11.928176795580109,8.83051395907984,50.986757878173194,3.37152437862659,12.765184601289501,30.04587216948914,2173.7810524510483,1
3.849943160288,4.00545411429928,-2.2591758612924906,-83.87298653287564,123.90482801172298,-112.39807535065098,67.16459454444237,35.19277108433735,4.261744966442949,1.1651376146788959,-4.059360730593614,-22.030612244897956,-6.314917127071823,-11.415730337078662,13.331491712707182,12.221470727226054,130.41263038370894,3.37152437862659,12.765184601289501,30.04587216948914,2173.7810524510483,1
7.05020841227739,6.77614417832584,-0.8865120468362857,-84.74491682070243,123.63057226592629,-113.29272281275553,68.62571905733901,35.19277108433735,4.261744966442949,1.1651376146788959,-4.059360730593614,-22.030612244897956,-6.314917127071823,-11.415730337078662,13.331491712707182,12.221470727226054,130.41263038370894,4.904288212479838,20.29715721257682,30.802524348621517,2191.008220870077,1
7.05020841227739,6.77614417832584,-0.8865120468362857,-84.74491682070243,123.63057226592629,-113.29272281275553,68.62571905733901,32.13253012048193,5.96644295302013,19.80733944954128,7.538812785388122,-14.255102040816322,-4.911602209944752,-12.842696629213494,7.718232044198894,13.146594779075615,83.7766323595703,4.904288212479838,20.29715721257682,30.802524348621517,2191.008220870077,1
7.05020841227739,6.77614417832584,-0.8865120468362857,-84.74491682070243,123.63057226592629,-113.29272281275553,68.62571905733901,22.95180722891567,-2.557046979865776,12.816513761467885,4.0593607305936015,-18.14285714285714,-3.5082872928176796,-4.280898876404505,10.524861878453038,9.855204236421912,58.23359033177197,4.904288212479838,20.29715721257682,30.802524348621517,2191.008220870077,1
4.643993937097397,5.812425895186166,-1.8397508068753172,-85.08027462371274,123.2583680394879,-114.13944273224732,69.73334570421227,22.95180722891567,-2.557046979865776,12.816513761467885,4.0593607305936015,-18.14285714285714,-3.5082872928176796,-4.280898876404505,10.524861878453038,9.855204236421912,58.23359033177197,4.098723546386293,16.993331237541582,30.910817108591406,2204.6931324512225,1
4.643993937097397,5.812425895186166,-1.8397508068753172,-85.08027462371274,123.2583680394879,-114.13944273224732,69.73334570421227,16.831325301204824,-9.3758389261745,-1.1651376146789012,4.0593607305936015,-18.14285714285714,-3.5082872928176796,-7.134831460674168,7.718232044198894,8.491983814149965,37.72482575198355,4.098723546386293,16.993331237541582,30.910817108591406,2204.6931324512225,1
4.643993937097397,5.812425895186166,-1.8397508068753172,-85.08027462371274,123.2583680394879,-114.13944273224732,69.73334570421227,26.01204819277109,5.96644295302013,15.146788990825684,2.8995433789954275,-29.806122448979586,2.1049723756906076,-14.269662921348324,3.5082872928176787,12.464233569306067,116.56684531943834,4.098723546386293,16.993331237541582,30.910817108591406,2204.6931324512225,1
0.5774914740432102,0.6926725160066551,-1.7444269308714144,-84.74491682070243,122.5531389788678,-115.20982451726525,70.44034143625903,26.01204819277109,5.96644295302013,15.146788990825684,2.8995433789954275,-29.806122448979586,2.1049723756906076,-14.269662921348324,3.5082872928176787,12.464233569306067,116.56684531943834,1.0048636403070932,1.890670910913742,29.0606720891935,2325.8278803262315,1
0.5774914740432102,0.6926725160066551,-1.7444269308714144,-84.74491682070243,122.5531389788678,-115.20982451726525,70.44034143625903,32.13253012048193,2.557046979865768,17.477064220183482,4.0593607305936015,-32.397959183673464,-0.7016574585635358,-11.415730337078662,11.928176795580109,14.08369072825257,156.69739878821812,1.0048636403070932,1.890670910913742,29.0606720891935,2325.8278803262315,1
0.5774914740432102,0.6926725160066551,-1.7444269308714144,-84.74491682070243,122.5531389788678,-115.20982451726525,70.44034143625903,32.13253012048193,-2.557046979865776,12.816513761467885,2.8995433789954275,-18.14285714285714,-2.1049723756906076,-9.988764044943832,6.314917127071823,10.869643116421802,105.68042652205354,1.0048636403070932,1.890670910913742,29.0606720891935,2325.8278803262315,1
1.299355816597208,0.331278159829278,-1.8588155820760974,-84.54370213889626,121.86749961437606,-116.3281338448959,71.24160326591203,32.13253012048193,-2.557046979865776,12.816513761467885,2.8995433789954275,-18.14285714285714,-2.1049723756906076,-9.988764044943832,6.314917127071823,10.869643116421802,105.68042652205354,1.1631498528341944,2.617955255210746,28.911265293600547,2321.8093646534535,1
1.299355816597208,0.331278159829278,-1.8588155820760974,-84.54370213889626,121.86749961437606,-116.3281338448959,71.24160326591203,19.891566265060245,-4.261744966442957,5.825688073394492,0.5799086757990803,-16.8469387755102,0.701657458563536,-9.988764044943832,7.718232044198894,8.226812537989154,50.04663432627519,1.1631498528341944,2.617955255210746,28.911265293600547,2321.8093646534535,1
1.299355816597208,0.331278159829278,-1.8588155820760974,-84.54370213889626,121.86749961437606,-116.3281338448959,71.24160326591203,71.91566265060241,46.879194630872476,38.449541284403665,1.739726027397254,-18.14285714285714,-4.911602209944752,-5.707865168539337,14.734806629834253,25.31015696805641,618.4377545914846,1.1631498528341944,2.617955255210746,28.911265293600547,2321.8093646534535,1
4.066502463054199,7.438700497984364,-1.9732042332807804,-84.40955901769212,121.29939842665435,-117.20680545946286,72.60846168120243,71.91566265060241,46.879194630872476,38.449541284403665,1.739726027397254,-18.14285714285714,-4.911602209944752,-5.707865168539337,14.734806629834253,25.31015696805641,618.4377545914846,4.4928023981064475,22.738954539158613,31.273821249652425,2125.022883470282,1
4.066502463054199,7.438700497984364,-1.9732042332807804,-84.40955901769212,121.29939842665435,-117.20680545946286,72.60846168120243,35.19277108433735,0.8523489932885866,15.146788990825684,12.178082191780817,-12.959183673469383,-30.171270718232044,-15.696629213483156,10.524861878453038,16.590242092983758,121.50034011920948,4.4928023981064475,22.738954539158613,31.273821249652425,2125.022883470282,1
4.066502463054199,7.438700497984364,-1.9732042332807804,-84.40955901769212,121.29939842665435,-117.20680545946286,72.60846168120243,16.831325301204824,-12.785234899328863,22.137614678899077,9.858447488584469,-7.775510204081629,-4.911602209944752,-9.988764044943832,13.331491712707182,12.202498817461827,29.271052556482253,4.4928023981064475,22.738954539158613,31.273821249652425,2125.022883470282,1
10.49109511178478,16.292862224330108,-1.6681678300682918,-85.75099022973336,121.26021903439768,-117.74998427574062,74.72944887734272,16.831325301204824,-12.785234899328863,22.137614678899077,9.858447488584469,-7.775510204081629,-4.911602209944752,-9.988764044943832,13.331491712707182,12.202498817461827,29.271052556482253,9.48404172206106,84.01779625538941,34.570673428043925,2018.039042472359,1
10.49109511178478,16.292862224330108,-1.6681678300682918,-85.75099022973336,121.26021903439768,-117.74998427574062,74.72944887734272,16.831325301204824,-9.3758389261745,12.816513761467885,0.5799086757990803,-24.622448979591834,9.121546961325967,-2.853932584269674,6.314917127071823,10.314554039613197,60.30995828336013,9.48404172206106,84.01779625538941,34.570673428043925,2018.039042472359,1
10.49109511178478,16.292862224330108,-1.6681678300682918,-85.75099022973336,121.26021903439768,-117.74998427574062,74.72944887734272,13.771084337349404,-16.194630872483224,-1.1651376146789012,4.0593607305936015,-24.622448979591834,-10.524861878453038,-12.842696629213494,7.718232044198894,11.3623066358203,54.06748076351159,9.48404172206106,84.01779625538941,34.570673428043925,2018.039042472359,1
14.148541114058368,18.5214607540906,-1.687232605269072,-89.03749669923423,121.78914082986272,-118.1813321592553,76.94470217108923,13.771084337349404,-16.194630872483224,-1.1651376146789012,4.0593607305936015,-24.622448979591834,-10.524861878453038,-12.842696629213494,7.718232044198894,11.3623066358203,54.06748076351159,11.45241149113935,113.04757379342483,36.415396686197965,2147.661866678137,1
14.148541114058368,18.5214607540906,-1.687232605269072,-89.03749669923423,121.78914082986272,-118.1813321592553,76.94470217108923,26.01204819277109,-4.261744966442957,10.486238532110088,4.0593607305936015,-12.959183673469383,6.314917127071823,-5.707865168539337,9.121546961325967,9.865363169040531,52.318081333335996,11.45241149113935,113.04757379342483,36.415396686197965,2147.661866678137,1
14.148541114058368,18.5214607540906,-1.687232605269072,-89.03749669923423,121.78914082986272,-118.1813321592553,76.94470217108923,22.95180722891567,-5.966442953020138,15.146788990825684,5.219178082191775,-19.438775510204078,3.5082872928176796,-1.0658141036401503e-14,9.121546961325967,10.169103377412625,66.44861674283861,11.45241149113935,113.04757379342483,36.415396686197965,2147.661866678137,1
5.438044713906795,10.209390562010924,-2.7167304661112244,-89.5740691840507,121.5540644763227,-118.7724385181458,78.09946186676561,22.95180722891567,-5.966442953020138,15.146788990825684,5.219178082191775,-19.438775510204078,3.5082872928176796,-1.0658141036401503e-14,9.121546961325967,10.169103377412625,66.44861674283861,6.121388580676315,42.72511737875334,34.166730070724284,2316.5149095425354,1
5.438044713906795,10.209390562010924,-2.7167304661112244,-89.5740691840507,121.5540644763227,-118.7724385181458,78.09946186676561,26.01204819277109,7.671140939597311,24.467889908256875,2.8995433789954275,-15.55102040816326,-2.1049723756906076,-8.561797752809,9.121546961325967,12.048744989701191,83.42173434541154,6.121388580676315,42.72511737875334,34.166730070724284,2316.5149095425354,1
5.438044713906795,10.209390562010924,-2.7167304661112244,-89.5740691840507,121.5540644763227,-118.7724385181458,78.09946186676561,13.771084337349404,-11.080536912751683,12.816513761467885,2.8995433789954275,-28.51020408163265,-18.944751381215468,-15.696629213483156,10.524861878453038,14.28051561816859,54.645522319750555,6.121388580676315,42.72511737875334,34.166730070724284,2316.5149095425354,1
1.0827965138310085,7.739862461465512,-4.451625009382259,-88.09849485080542,120.73129723893261,-119.37952072457388,78.99498979402485,13.771084337349404,-11.080536912751683,12.816513761467885,2.8995433789954275,-28.51020408163265,-18.944751381215468,-15.696629213483156,10.524861878453038,14.28051561816859,54.645522319750555,4.42476132822626,37.263119229933224,33.42999410721773,2244.1868565490568,1
1.0827965138310085,7.739862461465512,-4.451625009382259,-88.09849485080542,120.73129723893261,-119.37952072457388,78.99498979402485,32.13253012048193,7.671140939597311,19.80733944954128,5.219178082191775,-23.326530612244895,-9.121546961325967,-12.842696629213494,7.718232044198894,14.729899354849442,89.57036330280867,4.42476132822626,37.263119229933224,33.42999410721773,2244.1868565490568,1
1.0827965138310085,7.739862461465512,-4.451625009382259,-88.09849485080542,120.73129723893261,-119.37952072457388,78.99498979402485,13.771084337349404,-7.6711409395973185,10.486238532110088,9.858447488584469,-2.5918367346938744,7.718232044198896,-8.561797752809,6.314917127071823,8.37171186955186,10.632308313411077,4.42476132822626,37.263119229933224,33.42999410721773,2244.1868565490568,1
5.510231148162195,13.34147498221486,-4.718531862193188,-87.83020860839724,120.30032392410921,-119.79489276055098,80.40898125811837,13.771084337349404,-7.6711409395973185,10.486238532110088,9.858447488584469,-2.5918367346938744,7.718232044198896,-8.561797752809,6.314917127071823,8.37171186955186,10.632308313411077,7.856745997523414,82.01996998841135,35.29673848426843,2088.412899474833,1
5.510231148162195,13.34147498221486,-4.718531862193188,-87.83020860839724,120.30032392410921,-119.79489276055098,80.40898125811837,26.01204819277109,-0.8523489932885946,10.486238532110088,0.5799086757990803,-22.030612244897956,-2.1049723756906076,-11.415730337078662,6.314917127071823,9.974597059838487,93.0979732290037,7.856745997523414,82.01996998841135,35.29673848426843,2088.412899474833,1
5.510231148162195,13.34147498221486,-4.718531862193188,-87.83020860839724,120.30032392410921,-119.79489276055098,80.40898125811837,29.07228915662651,-7.6711409395973185,5.825688073394492,-0.5799086757990928,-47.94897959183673,-7.718232044198895,-12.842696629213494,7.718232044198894,14.922145894358177,248.5910776238466,7.856745997523414,82.01996998841135,35.29673848426843,2088.412899474833,1
13.667298219022369,19.846573393407652,-3.51745102454401,-90.31185635067345,120.71170754280426,-120.00257877853953,82.57710150306177,29.07228915662651,-7.6711409395973185,5.825688073394492,-0.5799086757990928,-47.94897959183673,-7.718232044198895,-12.842696629213494,7.718232044198894,14.922145894358177,248.5910776238466,12.343774212324677,146.56278087461186,37.89196025620837,2127.544189250217,1
13.667298219022369,19.846573393407652,-3.51745102454401,-90.31185635067345,120.71170754280426,-120.00257877853953,82.57710150306177,41.31325301204819,0.8523489932885866,19.80733944954128,-4.059360730593614,-50.54081632653061,-4.911602209944752,-8.561797752809,16.138121546961326,18.27308000271467,336.7597365163947,12.343774212324677,146.56278087461186,37.89196025620837,2127.544189250217,1
13.667298219022369,19.846573393407652,-3.51745102454401,-90.31185635067345,120.71170754280426,-120.00257877853953,82.57710150306177,44.373493975903614,11.080536912751674,22.137614678899077,-2.899543378995441,-24.622448979591834,-0.7016574585635358,-11.415730337078662,13.331491712707182,16.32031467931138,196.32144555502265,12.343774212324677,146.56278087461186,37.89196025620837,2127.544189250217,1
10.515157256536579,18.340763576001912,-3.936876078961183,-91.65328756271458,120.82924571957427,-120.2102647965281,84.36815735758023,44.373493975903614,11.080536912751674,22.137614678899077,-2.899543378995441,-24.622448979591834,-0.7016574585635358,-11.415730337078662,13.331491712707182,16.32031467931138,196.32144555502265,10.930932303833224,127.73243506566311,37.976975739225885,2212.7278319861452,1
10.515157256536579,18.340763576001912,-3.936876078961183,-91.65328756271458,120.82924571957427,-120.2102647965281,84.36815735758023,38.25301204819277,16.194630872483216,40.77981651376146,6.378995433789948,-12.959183673469383,7.718232044198896,-7.134831460674168,11.928176795580109,17.668359855268744,193.22503810043017,10.930932303833224,127.73243506566311,37.976975739225885,2212.7278319861452,1
10.515157256536579,18.340763576001912,-3.936876078961183,-91.65328756271458,120.82924571957427,-120.2102647965281,84.36815735758023,16.831325301204824,-14.489932885906043,-1.1651376146789012,13.33789954337899,-14.255102040816322,-3.5082872928176796,-7.134831460674168,9.121546961325967,9.98050788760036,32.17841823296521,10.930932303833224,127.73243506566311,37.976975739225885,2212.7278319861452,1
5.1733611216369955,12.980080626037484,-5.767094498236122,-91.18378663850012,120.43745179700757,-120.48185420466696,85.54648357765817,16.831325301204824,-14.489932885906043,-1.1651376146789012,13.33789954337899,-14.255102040816322,-3.5082872928176796,-7.134831460674168,9.121546961325967,9.98050788760036,32.17841823296521,7.9735120819702,88.68250228849722,36.64365392092457,2243.9763498580296,1
5.1733611216369955,12.980080626037484,-5.767094498236122,-91.18378663850012,120.43745179700757,-120.48185420466696,85.54648357765817,38.25301204819277,-2.557046979865776,15.146788990825684,16.81735159817351,2.5918367346938815,4.911602209944752,-2.853932584269674,13.331491712707182,12.057882857334153,147.9506708465208,7.9735120819702,88.68250228849722,36.64365392092457,2243.9763498580296,1
5.1733611216369955,12.980080626037484,-5.767094498236122,-91.18378663850012,120.43745179700757,-120.48185420466696,85.54648357765817,10.71084337349398,-7.6711409395973185,5.825688073394492,0.5799086757990803,-15.55102040816326,-2.1049723756906076,-8.561797752809,11.928176795580109,7.866693549315981,24.945070337256897,7.9735120819702,88.68250228849722,36.64365392092457,2243.9763498580296,1
2.550587343690804,6.956841356414528,-6.625009382271249,-89.90942698706101,119.79099182477249,-120.89722624064407,86.20634626090182,10.71084337349398,-7.6711409395973185,5.825688073394492,0.5799086757990803,-15.55102040816326,-2.1049723756906076,-8.561797752809,11.928176795580109,7.866693549315981,24.945070337256897,5.377479360792194,48.012219865011474,34.49709257524893,2302.9226318396363,1
2.550587343690804,6.956841356414528,-6.625009382271249,-89.90942698706101,119.79099182477249,-120.89722624064407,86.20634626090182,7.650602409638559,-23.013422818791952,-10.486238532110093,12.178082191780817,1.2959183673469425,-0.7016574585635358,-17.12359550561799,4.911602209944751,9.670139936724329,59.690923890719155,5.377479360792194,48.012219865011474,34.49709257524893,2302.9226318396363,1
2.550587343690804,6.956841356414528,-6.625009382271249,-89.90942698706101,119.79099182477249,-120.89722624064407,86.20634626090182,29.07228915662651,5.96644295302013,15.146788990825684,0.5799086757990803,-24.622448979591834,-2.1049723756906076,-14.269662921348324,6.314917127071823,12.259678897496748,108.90821377584386,5.377479360792194,48.012219865011474,34.49709257524893,2302.9226318396363,1
3.849943160288,6.053355465971085,-8.264580049538381,-88.97042513863221,119.32083911769244,-121.15283980124536,86.70124327333455,29.07228915662651,5.96644295302013,15.146788990825684,0.5799086757990803,-24.622448979591834,-2.1049723756906076,-14.269662921348324,6.314917127071823,12.259678897496748,108.90821377584386,6.055959558599156,59.436662636090844,34.429453551380554,2232.260564800787,1
3.849943160288,6.053355465971085,-8.264580049538381,-88.97042513863221,119.32083911769244,-121.15283980124536,86.70124327333455,29.07228915662651,4.261744966442949,8.15596330275229,-2.899543378995441,-31.10204081632653,-7.718232044198895,-11.415730337078662,9.121546961325967,12.968386370468405,119.04068038044728,6.055959558599156,59.436662636090844,34.429453551380554,2232.260564800787,1
3.849943160288,6.053355465971085,-8.264580049538381,-88.97042513863221,119.32083911769244,-121.15283980124536,86.70124327333455,19.891566265060245,7.671140939597311,10.486238532110088,8.698630136986296,-3.8877551020408116,-0.7016574585635358,-7.134831460674168,11.928176795580109,8.799999586326571,32.77463134450094,6.055959558599156,59.436662636090844,34.429453551380554,2232.260564800787,1
3.1521409624858023,6.474982214844692,-9.885085941604732,-87.76313704779511,118.90945549899739,-121.24869488647084,86.96047504175169,19.891566265060245,7.671140939597311,10.486238532110088,8.698630136986296,-3.8877551020408116,-0.7016574585635358,-7.134831460674168,11.928176795580109,8.799999586326571,32.77463134450094,6.504069706311742,74.77706490346507,34.70773506808151,2114.063961278564,1
3.1521409624858023,6.474982214844692,-9.885085941604732,-87.76313704779511,118.90945549899739,-121.24869488647084,86.96047504175169,13.771084337349404,-0.8523489932885946,22.137614678899077,-7.538812785388135,-58.316326530612244,-13.331491712707182,-11.415730337078662,4.911602209944751,16.534376448158504,326.1653507129346,6.504069706311742,74.77706490346507,34.70773506808151,2114.063961278564,1
3.1521409624858023,6.474982214844692,-9.885085941604732,-87.76313704779511,118.90945549899739,-121.24869488647084,86.96047504175169,32.13253012048193,-9.3758389261745,-8.155963302752298,-0.5799086757990928,-14.255102040816322,6.314917127071823,-4.280898876404505,14.734806629834253,11.228745712416842,93.87296727326853,6.504069706311742,74.77706490346507,34.70773506808151,2114.063961278564,1
4.307123910572199,5.752193502489937,-11.753433911281231,-86.82413519936631,118.69396884158569,-121.15283980124536,86.96047504175169,32.13253012048193,-9.3758389261745,-8.155963302752298,-0.5799086757990928,-14.255102040816322,6.314917127071823,-4.280898876404505,14.734806629834253,11.228745712416842,93.87296727326853,7.270917108114456,94.41278913739322,34.776587537712494,2040.7141348051214,1
4.307123910572199,5.752193502489937,-11.753433911281231,-86.82413519936631,118.69396884158569,-121.15283980124536,86.96047504175169,22.95180722891567,5.96644295302013,15.146788990825684,-0.5799086757990928,-37.58163265306122,-2.1049723756906076,-8.561797752809,10.524861878453038,12.927276563571805,150.87381321054409,7.270917108114456,94.41278913739322,34.776587537712494,2040.7141348051214,1
4.307123910572199,5.752193502489937,-11.753433911281231,-86.82413519936631,118.69396884158569,-121.15283980124536,86.96047504175169,35.19277108433735,2.557046979865768,38.449541284403665,8.698630136986296,-16.8469387755102,-10.524861878453038,-7.134831460674168,13.331491712707182,16.59201416411721,174.2814428341915,7.270917108114456,94.41278913739322,34.776587537712494,2040.7141348051214,1
6.85771125426299,6.234052644059774,-11.982211213690599,-87.09242144177449,118.85068641061237,-121.00905717340713,87.05474113935793,35.19277108433735,2.557046979865768,38.449541284403665,8.698630136986296,-16.8469387755102,-10.524861878453038,-7.134831460674168,13.331491712707182,16.59201416411721,174.2814428341915,8.357991704004455,114.5273162659609,35.102895099841625,2035.443468679304,1
6.85771125426299,6.234052644059774,-11.982211213690599,-87.09242144177449,118.85068641061237,-121.00905717340713,87.05474113935793,22.95180722891567,-4.261744966442957,-5.825688073394499,7.538812785388122,-7.775510204081629,-2.1049723756906076,-12.842696629213494,4.911602209944751,8.526604309133965,44.00636817607691,8.357991704004455,114.5273162659609,35.102895099841625,2035.443468679304,1
6.85771125426299,6.234052644059774,-11.982211213690599,-87.09242144177449,118.85068641061237,-121.00905717340713,87.05474113935793,35.19277108433735,7.671140939597311,24.467889908256875,7.538812785388122,-11.663265306122444,-4.911602209944752,-12.842696629213494,4.911602209944751,13.649972634100637,115.9327340343366,8.357991704004455,114.5273162659609,35.102895099841625,2035.443468679304,1
3.3446381205002016,5.571496324401249,-10.056668918411757,-86.08634803274367,118.537251272559,-121.0410088684823,87.07830766375949,35.19277108433735,7.671140939597311,24.467889908256875,7.538812785388122,-11.663265306122444,-4.911602209944752,-12.842696629213494,4.911602209944751,13.649972634100637,115.9327340343366,6.32426778777107,71.46557944469019,33.904837758518894,2047.2117041737856,1
3.3446381205002016,5.571496324401249,-10.056668918411757,-86.08634803274367,118.537251272559,-121.0410088684823,87.07830766375949,35.19277108433735,23.01342281879194,36.11926605504587,5.219178082191775,-9.071428571428568,-3.5082872928176796,-7.134831460674168,13.331491712707182,16.573834634749318,175.0981997076342,6.32426778777107,71.46557944469019,33.904837758518894,2047.2117041737856,1
3.3446381205002016,5.571496324401249,-10.056668918411757,-86.08634803274367,118.537251272559,-121.0410088684823,87.07830766375949,32.13253012048193,0.8523489932885866,-3.4954128440367,-1.7397260273972668,-27.214285714285708,-4.911602209944752,-11.415730337078662,7.718232044198894,11.184983536339063,143.1815547013997,6.32426778777107,71.46557944469019,33.904837758518894,2047.2117041737856,1
0.4812428950360106,8.281953995731579,-9.275013135179753,-83.4034856086613,117.73407373129724,-121.08893641109503,87.29040638337352,32.13253012048193,0.8523489932885866,-3.4954128440367,-1.7397260273972668,-27.214285714285708,-4.911602209944752,-11.415730337078662,7.718232044198894,11.184983536339063,143.1815547013997,6.012736675315781,77.38045337325623,33.65348424652421,1856.5435182630922,1
0.4812428950360106,8.281953995731579,-9.275013135179753,-83.4034856086613,117.73407373129724,-121.08893641109503,87.29040638337352,16.831325301204824,-14.489932885906043,-3.4954128440367,4.0593607305936015,-15.55102040816326,-9.121546961325967,-9.988764044943832,10.524861878453038,10.50777813182841,24.889393741627522,6.012736675315781,77.38045337325623,33.65348424652421,1856.5435182630922,1
0.4812428950360106,8.281953995731579,-9.275013135179753,-83.4034856086613,117.73407373129724,-121.08893641109503,87.29040638337352,32.13253012048193,21.30872483221476,50.100917431192656,4.0593607305936015,-15.55102040816326,-2.1049723756906076,-11.415730337078662,9.121546961325967,18.22435039959268,259.4160950777181,6.012736675315781,77.38045337325623,33.65348424652421,1856.5435182630922,1
0.8421750663130094,5.6919611097937075,-9.255948359978973,-81.45841035120156,117.06802406293384,-121.26467073400843,87.43180552978288,32.13253012048193,21.30872483221476,50.100917431192656,4.0593607305936015,-15.55102040816326,-2.1049723756906076,-11.415730337078662,9.121546961325967,18.22435039959268,259.4160950777181,5.263361512028563,58.1554198194478,32.13543994032475,1827.742058894043,1
0.8421750663130094,5.6919611097937075,-9.255948359978973,-81.45841035120156,117.06802406293384,-121.26467073400843,87.43180552978288,32.13253012048193,-7.6711409395973185,5.825688073394492,16.81735159817351,10.367346938775515,14.734806629834253,1.4269662921348196,14.734806629834253,12.963829652778262,86.7668550884204,5.263361512028563,58.1554198194478,32.13543994032475,1827.742058894043,1
0.8421750663130094,5.6919611097937075,-9.255948359978973,-81.45841035120156,117.06802406293384,-121.26467073400843,87.43180552978288,16.831325301204824,-14.489932885906043,8.15596330275229,1.739726027397254,-22.030612244897956,3.5082872928176796,-9.988764044943832,4.911602209944751,10.207026663733078,50.12658614204442,5.263361512028563,58.1554198194478,32.13543994032475,1827.742058894043,1
-0.384994316028787,3.1622006165520666,-9.446596111986779,-79.714549775548,116.48033317908376,-121.45638090445941,87.12544071256261,16.831325301204824,-14.489932885906043,8.15596330275229,1.739726027397254,-22.030612244897956,3.5082872928176796,-9.988764044943832,4.911602209944751,10.207026663733078,50.12658614204442,4.331263681522544,42.27949565664137,30.774448834695615,1806.2235167613749,1
-0.384994316028787,3.1622006165520666,-9.446596111986779,-79.714549775548,116.48033317908376,-121.45638090445941,87.12544071256261,13.771084337349404,-19.604026845637588,-8.155963302752298,-2.899543378995441,-69.9795918367347,-10.524861878453038,-18.55056179775282,7.718232044198894,18.900483177734273,457.52457812510045,4.331263681522544,42.27949565664137,30.774448834695615,1806.2235167613749,1
-0.384994316028787,3.1622006165520666,-9.446596111986779,-79.714549775548,116.48033317908376,-121.45638090445941,87.12544071256261,35.19277108433735,-0.8523489932885946,-10.486238532110093,13.33789954337899,-3.8877551020408116,9.121546961325967,1.4269662921348196,14.734806629834253,11.13004164230636,121.93768577504825,4.331263681522544,42.27949565664137,30.774448834695615,1806.2235167613749,1
-2.5024630541871806,3.4633625800332144,-9.389401786384436,-77.36704515447593,115.69674533395035,-121.7119944650607,86.79550937094079,35.19277108433735,-0.8523489932885946,-10.486238532110093,13.33789954337899,-3.8877551020408116,9.121546961325967,1.4269662921348196,14.734806629834253,11.13004164230636,121.93768577504825,5.11840914020161,41.36909207626921,30.073269840297865,1686.305372769772,1
-2.5024630541871806,3.4633625800332144,-9.389401786384436,-77.36704515447593,115.69674533395035,-121.7119944650607,86.79550937094079,22.95180722891567,-2.557046979865776,15.146788990825684,-0.5799086757990928,-20.734693877551017,-9.121546961325967,-17.12359550561799,-0.7016574585635365,11.11463070980809,83.0921891435348,5.11840914020161,41.36909207626921,30.073269840297865,1686.305372769772,1
-2.5024630541871806,3.4633625800332144,-9.389401786384436,-77.36704515447593,115.69674533395035,-121.7119944650607,86.79550937094079,29.07228915662651,4.261744966442949,24.467889908256875,5.219178082191775,-20.734693877551017,4.911602209944752,-7.134831460674168,13.331491712707182,13.641715171799405,97.59894835377007,5.11840914020161,41.36909207626921,30.073269840297865,1686.305372769772,1
-1.9490337248957816,1.5359260137538686,-9.827891616002391,-75.69025613942438,115.03069566558692,-122.06346311088748,86.41844498051584,29.07228915662651,4.261744966442949,24.467889908256875,5.219178082191775,-20.734693877551017,4.911602209944752,-7.134831460674168,13.331491712707182,13.641715171799405,97.59894835377007,4.437617118217347,33.89294952843685,29.018024589726878,1650.9120717586522,1
-1.9490337248957816,1.5359260137538686,-9.827891616002391,-75.69025613942438,115.03069566558692,-122.06346311088748,86.41844498051584,19.891566265060245,-9.3758389261745,-3.4954128440367,-6.37899543378996,-7.775510204081629,-0.7016574585635358,-8.561797752809,11.928176795580109,8.51361946001196,33.31045597311763,4.437617118217347,33.89294952843685,29.018024589726878,1650.9120717586522,1
-1.9490337248957816,1.5359260137538686,-9.827891616002391,-75.69025613942438,115.03069566558692,-122.06346311088748,86.41844498051584,19.891566265060245,-4.261744966442957,3.495412844036693,-1.7397260273972668,-34.98979591836734,-18.944751381215468,-18.55056179775282,6.314917127071823,13.523559540918075,133.31129708885527,4.437617118217347,33.89294952843685,29.018024589726878,1650.9120717586522,1
-0.8181129215611858,4.366848470476658,-10.018539368010197,-74.14761024557697,114.44300478173686,-122.3031008239512,86.25347930970494,19.891566265060245,-4.261744966442957,3.495412844036693,-1.7397260273972668,-34.98979591836734,-18.944751381215468,-18.55056179775282,6.314917127071823,13.523559540918075,133.31129708885527,5.0678335866826805,53.07850911618782,29.510999361354607,1502.3056759224246,1
-0.8181129215611858,4.366848470476658,-10.018539368010197,-74.14761024557697,114.44300478173686,-122.3031008239512,86.25347930970494,32.13253012048193,0.8523489932885866,22.137614678899077,4.0593607305936015,-18.14285714285714,-2.1049723756906076,-8.561797752809,17.5414364640884,13.191614782338544,123.17561820426114,5.0678335866826805,53.07850911618782,29.510999361354607,1502.3056759224246,1
-0.8181129215611858,4.366848470476658,-10.018539368010197,-74.14761024557697,114.44300478173686,-122.3031008239512,86.25347930970494,26.01204819277109,7.671140939597311,12.816513761467885,12.178082191780817,-16.8469387755102,-3.5082872928176796,-5.707865168539337,13.331491712707182,12.259046004398938,50.314845109294275,5.0678335866826805,53.07850911618782,29.510999361354607,1502.3056759224246,1
1.852785145888606,7.378468105288135,-9.78976206560083,-73.47689463955646,114.10997994755515,-122.49481099440217,86.46557802931896,26.01204819277109,7.671140939597311,12.816513761467885,12.178082191780817,-16.8469387755102,-3.5082872928176796,-5.707865168539337,13.331491712707182,12.259046004398938,50.314845109294275,6.3403384389258575,76.80503415669682,30.215041603481808,1405.1445307269514,1
1.852785145888606,7.378468105288135,-9.78976206560083,-73.47689463955646,114.10997994755515,-122.49481099440217,86.46557802931896,22.95180722891567,-4.261744966442957,3.495412844036693,16.81735159817351,-20.734693877551017,-9.121546961325967,-15.696629213483156,9.121546961325967,12.775091706406867,53.86890612842622,6.3403384389258575,76.80503415669682,30.215041603481808,1405.1445307269514,1
