Gyro 0,Gyro 1,Gyro 2,Orientation 0,Orientation 1,Orientation 2,Orientation 3,Sensor 0,Sensor 1,Sensor 2,Sensor 3,Sensor 4,Sensor 5,Sensor 6,Sensor 7,Sensor Mean,Sensor Variance,Gyro Mean,Gyro Variance,Orientation Mean,Orientation Variance,Label
5.874846277551796,11.487570503446825,-1.3229166666666679,-71.70901821412701,124.14032971451547,-116.03281519861831,96.87458621015796,-17.51724137931035,20.189743589743582,-8.881784197001252e-15,-11.813953488372093,3.6584362139917594,-18.793721973094183,-18.99065420560747,-39.72820512820513,16.336494497290573,146.3662771579291,6.228444482555097,41.2365076954593,28.1731684614135,1447.3577071735263,1
5.874846277551796,11.487570503446825,-1.3229166666666679,-71.70901821412701,124.14032971451547,-116.03281519861831,96.87458621015796,-15.327586206896555,18.88717948717948,-11.339285714285722,-10.337209302325581,6.794238683127562,-16.515695067264584,-16.616822429906534,-41.03076923076923,17.106098265219405,109.24594798288418,6.228444482555097,41.2365076954593,28.1731684614135,1447.3577071735263,1
5.874846277551796,11.487570503446825,-1.3229166666666679,-71.70901821412701,124.14032971451547,-116.03281519861831,96.87458621015796,-15.327586206896555,22.79487179487179,4.535714285714278,-16.24418604651163,-1.5679012345679109,-18.793721973094183,-18.99065420560747,-37.12307692307692,16.922214083792593,120.36097353787163,6.228444482555097,41.2365076954593,28.1731684614135,1447.3577071735263,1
5.994986283227702,15.891581366200114,-1.6128710045662116,-70.58063083074194,123.71137917169278,-116.06206102475532,97.61931334531354,-15.327586206896555,22.79487179487179,4.535714285714278,-16.24418604651163,-1.5679012345679109,-18.793721973094183,-18.99065420560747,-37.12307692307692,16.922214083792593,120.36097353787163,7.83314621799801,77.03798992469659,29.361694400502756,1325.220932727932,1
5.994986283227702,15.891581366200114,-1.6128710045662116,-70.58063083074194,123.71137917169278,-116.06206102475532,97.61931334531354,-6.568965517241383,22.79487179487179,-2.2678571428571512,-11.813953488372093,-0.5226337448559768,-24.488789237668172,-21.364485981308405,-35.820512820512825,15.705258715960973,153.3933278290388,7.83314621799801,77.03798992469659,29.361694400502756,1325.220932727932,1
5.994986283227702,15.891581366200114,-1.6128710045662116,-70.58063083074194,123.71137917169278,-116.06206102475532,97.61931334531354,-15.327586206896555,16.282051282051274,-20.410714285714292,-13.290697674418604,3.6584362139917594,-16.515695067264584,-14.242990654205599,-41.03076923076923,17.594867576913988,112.74060290643988,7.83314621799801,77.03798992469659,29.361694400502756,1325.220932727932,1
8.950430422854984,19.55274702318779,-2.2471461187214627,-70.01643713904934,123.56839565741856,-115.94507772020725,98.7484157760333,-15.327586206896555,16.282051282051274,-20.410714285714292,-13.290697674418604,3.6584362139917594,-16.515695067264584,-14.242990654205599,-41.03076923076923,17.594867576913988,112.74060290643988,10.250107854921414,118.8383631161363,30.6054434269862,1239.790774695377,1
8.950430422854984,19.55274702318779,-2.2471461187214627,-70.01643713904934,123.56839565741856,-115.94507772020725,98.7484157760333,-26.27586206896552,9.769230769230763,-27.214285714285722,-17.72093023255814,9.930041152263364,-14.23766816143499,-17.803738317757002,-44.93846153846154,20.986277244369628,136.41031248673173,10.250107854921414,118.8383631161363,30.6054434269862,1239.790774695377,1
8.950430422854984,19.55274702318779,-2.2471461187214627,-70.01643713904934,123.56839565741856,-115.94507772020725,98.7484157760333,-15.327586206896555,13.676923076923071,-4.535714285714294,-10.337209302325581,2.6131687242798254,-57.52017937219732,-20.177570093457938,-38.42564102564103,20.32674901092945,349.0105471566011,10.250107854921414,118.8383631161363,30.6054434269862,1239.790774695377,1
9.623214454640056,20.0833507415918,-2.754566210045663,-69.56508218569525,123.52754322476878,-115.72573402417962,99.80544783883477,-15.327586206896555,13.676923076923071,-4.535714285714294,-10.337209302325581,2.6131687242798254,-57.52017937219732,-20.177570093457938,-38.42564102564103,20.32674901092945,349.0105471566011,10.820377135425838,130.69905933576035,30.800999712444238,1202.0622608299427,1
9.623214454640056,20.0833507415918,-2.754566210045663,-69.56508218569525,123.52754322476878,-115.72573402417962,99.80544783883477,-21.896551724137936,11.071794871794864,-22.678571428571438,-16.24418604651163,-2.613168724279845,-24.488789237668172,-20.177570093457938,-43.63589743589744,20.35081619528991,140.67776742153066,10.820377135425838,130.69905933576035,30.800999712444238,1202.0622608299427,1
9.623214454640056,20.0833507415918,-2.754566210045663,-69.56508218569525,123.52754322476878,-115.72573402417962,99.80544783883477,-15.327586206896555,16.282051282051274,-15.875000000000007,-11.813953488372093,9.930041152263364,-7.403587443946201,-16.616822429906534,-42.333333333333336,16.94779691709617,116.49305360935638,10.820377135425838,130.69905933576035,30.800999712444238,1202.0622608299427,1
10.53627849777694,19.818048882389796,-3.4975742009132436,-69.84717903154149,123.73180538801768,-115.44789867587795,100.79040953371796,-15.327586206896555,16.282051282051274,-15.875000000000007,-11.813953488372093,9.930041152263364,-7.403587443946201,-16.616822429906534,-42.333333333333336,16.94779691709617,116.49305360935638,11.283967193693327,137.78642713397727,31.054267371614845,1195.2569697483336,1
10.53627849777694,19.818048882389796,-3.4975742009132436,-69.84717903154149,123.73180538801768,-115.44789867587795,100.79040953371796,-24.08620689655173,13.676923076923071,-15.875000000000007,-26.58139534883721,-24.56378600823046,-26.76681614349777,-16.616822429906534,-42.333333333333336,23.812535404660014,82.50956861676651,11.283967193693327,137.78642713397727,31.054267371614845,1195.2569697483336,1
10.53627849777694,19.818048882389796,-3.4975742009132436,-69.84717903154149,123.73180538801768,-115.44789867587795,100.79040953371796,-13.137931034482762,21.492307692307687,-29.482142857142865,-28.058139534883722,-6.794238683127581,-24.488789237668172,-29.672897196261673,-39.72820512820513,24.10683142050995,106.64849752277867,11.283967193693327,137.78642713397727,31.054267371614845,1195.2569697483336,1
8.902374420584621,20.189471485272602,-4.494292237442924,-69.45224344735675,123.81351025331725,-115.09694876223374,101.55916012484631,-13.137931034482762,21.492307692307687,-29.482142857142865,-28.058139534883722,-6.794238683127581,-24.488789237668172,-29.672897196261673,-39.72820512820513,24.10683142050995,106.64849752277867,11.195379381100048,152.692904868807,31.378669056690757,1148.7824630665589,1
8.902374420584621,20.189471485272602,-4.494292237442924,-69.45224344735675,123.81351025331725,-115.09694876223374,101.55916012484631,-17.51724137931035,16.282051282051274,-9.07142857142858,-11.813953488372093,10.975308641975298,-10.820627802690595,-13.056074766355133,-38.42564102564103,15.995290869728043,90.22271073624829,11.195379381100048,152.692904868807,31.378669056690757,1148.7824630665589,1
8.902374420584621,20.189471485272602,-4.494292237442924,-69.45224344735675,123.81351025331725,-115.09694876223374,101.55916012484631,-15.327586206896555,12.374358974358968,-20.410714285714292,-10.337209302325581,10.975308641975298,-11.959641255605392,-14.242990654205599,-39.72820512820513,16.919501806160852,95.14885229339686,11.195379381100048,152.692904868807,31.378669056690757,1148.7824630665589,1
9.310850439882701,21.409860037601828,-6.324628995433791,-69.508662816526,124.16075593084037,-114.5559009786989,102.1837699801381,-15.327586206896555,12.374358974358968,-20.410714285714292,-10.337209302325581,10.975308641975298,-11.959641255605392,-14.242990654205599,-39.72820512820513,16.919501806160852,95.14885229339686,12.348446490972774,193.34268872357958,32.41438394985388,1088.8801923777264,1
9.310850439882701,21.409860037601828,-6.324628995433791,-69.508662816526,124.16075593084037,-114.5559009786989,102.1837699801381,-17.51724137931035,16.282051282051274,-8.881784197001252e-15,-2.953488372093023,14.1111111111111,-17.654708520179383,-18.99065420560747,-41.03076923076923,16.06750301264023,152.90656701643567,12.348446490972774,193.34268872357958,32.41438394985388,1088.8801923777264,1
9.310850439882701,21.409860037601828,-6.324628995433791,-69.508662816526,124.16075593084037,-114.5559009786989,102.1837699801381,-6.568965517241383,28.005128205128198,-4.535714285714294,8.86046511627907,26.65432098765431,-17.654708520179383,-20.177570093457938,-38.42564102564103,18.860314218911952,140.94760339647206,12.348446490972774,193.34268872357958,32.41438394985388,1088.8801923777264,1
6.932078327499767,21.834343012325036,-7.2307363013698644,-68.71879164815641,124.38544431041416,-113.86862406447898,102.4240045398657,-6.568965517241383,28.005128205128198,-4.535714285714294,8.86046511627907,26.65432098765431,-17.654708520179383,-20.177570093457938,-38.42564102564103,18.860314218911952,140.94760339647206,11.99905254706489,211.2402744099482,32.594623653950435,1032.0329671972752,1
6.932078327499767,21.834343012325036,-7.2307363013698644,-68.71879164815641,124.38544431041416,-113.86862406447898,102.4240045398657,-15.327586206896555,17.58461538461538,-13.607142857142865,-10.337209302325581,9.930041152263364,-18.793721973094183,-14.242990654205599,-39.72820512820513,17.443939082343583,90.69150182192955,11.99905254706489,211.2402744099482,32.594623653950435,1032.0329671972752,1
6.932078327499767,21.834343012325036,-7.2307363013698644,-68.71879164815641,124.38544431041416,-113.86862406447898,102.4240045398657,-21.896551724137936,13.676923076923071,-15.875000000000007,-19.19767441860465,0.5226337448559573,-7.403587443946201,-18.99065420560747,-42.333333333333336,17.487044743426075,149.79313868763847,11.99905254706489,211.2402744099482,32.594623653950435,1032.0329671972752,1
9.455018446693789,23.42615416753707,-7.285102739726029,-68.83163038649491,124.89609971853639,-113.13747841105354,102.88045020334815,-21.896551724137936,13.676923076923071,-15.875000000000007,-19.19767441860465,0.5226337448559573,-7.403587443946201,-18.99065420560747,-42.333333333333336,17.487044743426075,149.79313868763847,13.388758451318964,236.43426524836005,33.180962431252674,1018.3609795400121,1
9.455018446693789,23.42615416753707,-7.285102739726029,-68.83163038649491,124.89609971853639,-113.13747841105354,102.88045020334815,-6.568965517241383,28.005128205128198,2.2678571428571352,0.0,20.382716049382704,-14.23766816143499,-16.616822429906534,-37.12307692307692,15.650279303628484,163.64852680696563,13.388758451318964,236.43426524836005,33.180962431252674,1018.3609795400121,1
9.455018446693789,23.42615416753707,-7.285102739726029,-68.83163038649491,124.89609971853639,-113.13747841105354,102.88045020334815,-10.948275862068968,25.39999999999999,-9.07142857142858,-14.767441860465116,7.839506172839496,-17.654708520179383,-14.242990654205599,-35.820512820512825,16.968108057712495,88.73969754026328,13.388758451318964,236.43426524836005,33.180962431252674,1018.3609795400121,1
9.118626430801251,21.19761855024022,-6.958904109589042,-68.88804975566416,125.36590269400884,-112.47944732297064,103.19275513099404,-10.948275862068968,25.39999999999999,-9.07142857142858,-14.767441860465116,7.839506172839496,-17.654708520179383,-14.242990654205599,-35.820512820512825,16.968108057712495,88.73969754026328,12.425049696876838,199.52980119868835,32.34819080516447,1052.0562163224108,1
9.118626430801251,21.19761855024022,-6.958904109589042,-68.88804975566416,125.36590269400884,-112.47944732297064,103.19275513099404,-10.948275862068968,17.58461538461538,-15.875000000000007,-13.290697674418604,2.6131687242798254,-13.09865470852019,-14.242990654205599,-37.12307692307692,15.597059991398186,95.85492831635499,12.425049696876838,199.52980119868835,32.34819080516447,1052.0562163224108,1
9.118626430801251,21.19761855024022,-6.958904109589042,-68.88804975566416,125.36590269400884,-112.47944732297064,103.19275513099404,-17.51724137931035,9.769230769230763,-13.607142857142865,-13.290697674418604,5.748971193415628,-11.959641255605392,-18.99065420560747,-39.72820512820513,16.326473057867027,106.6739621868768,12.425049696876838,199.52980119868835,32.34819080516447,1052.0562163224108,1
11.353230536373099,19.60580739502819,-6.650827625570778,-69.84717903154149,126.06039404905508,-111.86528497409326,103.55310697058546,-17.51724137931035,9.769230769230763,-13.607142857142865,-13.290697674418604,5.748971193415628,-11.959641255605392,-18.99065420560747,-39.72820512820513,16.326473057867027,106.6739621868768,12.536621852324023,180.27700295193523,32.03460468404682,1114.3009592953715,1
11.353230536373099,19.60580739502819,-6.650827625570778,-69.84717903154149,126.06039404905508,-111.86528497409326,103.55310697058546,-6.568965517241383,21.492307692307687,-15.875000000000007,-13.290697674418604,9.930041152263364,-10.820627802690595,-15.429906542056067,-38.42564102564103,16.47914842582734,98.79054461639498,12.536621852324023,180.27700295193523,32.03460468404682,1114.3009592953715,1
11.353230536373099,19.60580739502819,-6.650827625570778,-69.84717903154149,126.06039404905508,-111.86528497409326,103.55310697058546,-13.137931034482762,13.676923076923071,-22.678571428571438,-17.72093023255814,0.5226337448559573,-21.071748878923778,-18.99065420560747,-35.820512820512825,17.95248817780443,99.6748008003445,12.536621852324023,180.27700295193523,32.03460468404682,1114.3009592953715,1
9.190710434206796,14.24670983914768,-6.68707191780822,-70.35495335406483,126.55062324085242,-111.39735175590097,103.43298969072166,-13.137931034482762,13.676923076923071,-22.678571428571438,-17.72093023255814,0.5226337448559573,-21.071748878923778,-18.99065420560747,-35.820512820512825,17.95248817780443,99.6748008003445,10.041497397054231,119.31505350809694,30.42957837034025,1209.813707068704,1
9.190710434206796,14.24670983914768,-6.68707191780822,-70.35495335406483,126.55062324085242,-111.39735175590097,103.43298969072166,-13.137931034482762,20.189743589743582,-13.607142857142865,-8.86046511627907,8.88477366255143,-17.654708520179383,-18.99065420560747,-39.72820512820513,17.631703014273963,98.06867332320186,10.041497397054231,119.31505350809694,30.42957837034025,1209.813707068704,1
9.190710434206796,14.24670983914768,-6.68707191780822,-70.35495335406483,126.55062324085242,-111.39735175590097,103.43298969072166,-13.137931034482762,17.58461538461538,-13.607142857142865,-14.767441860465116,-2.613168724279845,-31.32286995515696,-17.803738317757002,-41.03076923076923,18.983459670583645,141.50423316803142,10.041497397054231,119.31505350809694,30.42957837034025,1209.813707068704,1
7.62889036042002,12.177355337372038,-7.085759132420093,-70.52421146157269,126.89786891837554,-110.97328727691422,103.07263785113024,-13.137931034482762,17.58461538461538,-13.607142857142865,-14.767441860465116,-2.613168724279845,-31.32286995515696,-17.803738317757002,-41.03076923076923,18.983459670583645,141.50423316803142,8.964001610070717,101.37950373666898,29.929108643788272,1242.4528675684367,1
7.62889036042002,12.177355337372038,-7.085759132420093,-70.52421146157269,126.89786891837554,-110.97328727691422,103.07263785113024,-15.327586206896555,18.88717948717948,-15.875000000000007,-14.767441860465116,3.6584362139917594,-19.93273542600898,-23.738317757009337,-41.03076923076923,19.152183272790058,112.14775282759796,8.964001610070717,101.37950373666898,29.929108643788272,1242.4528675684367,1
7.62889036042002,12.177355337372038,-7.085759132420093,-70.52421146157269,126.89786891837554,-110.97328727691422,103.07263785113024,-15.327586206896555,16.282051282051274,4.535714285714278,-10.337209302325581,13.065843621399166,-11.959641255605392,-16.616822429906534,-41.03076923076923,16.1444547018335,116.53077885768586,8.964001610070717,101.37950373666898,29.929108643788272,1242.4528675684367,1
5.370258253712992,14.19364946730728,-6.9045376712328785,-69.79075966237224,127.0,-110.53459988485895,102.76033292348436,-15.327586206896555,16.282051282051274,4.535714285714278,-10.337209302325581,13.065843621399166,-11.959641255605392,-16.616822429906534,-41.03076923076923,16.1444547018335,116.53077885768586,8.822815130751051,112.276058006677,30.29631560030413,1183.1411215227881,1
5.370258253712992,14.19364946730728,-6.9045376712328785,-69.79075966237224,127.0,-110.53459988485895,102.76033292348436,-8.758620689655174,31.912820512820506,9.071428571428562,-10.337209302325581,4.7037037037036935,-23.349775784753376,-15.429906542056067,-37.12307692307692,17.585817753727486,141.9634410400853,8.822815130751051,112.276058006677,30.29631560030413,1183.1411215227881,1
4.192886198089115,15.838520994359714,-6.070918949771691,-68.71879164815641,126.93872135102532,-110.15440414507772,102.61619218764778,-8.758620689655174,31.912820512820506,9.071428571428562,-10.337209302325581,4.7037037037036935,-23.349775784753376,-15.429906542056067,-37.12307692307692,17.585817753727486,141.9634410400853,8.700775380740174,120.16501076447719,30.209410530762607,1136.0808379588748,1
4.192886198089115,15.838520994359714,-6.070918949771691,-68.71879164815641,126.93872135102532,-110.15440414507772,102.61619218764778,-15.327586206896555,13.676923076923071,-31.750000000000007,-14.767441860465116,5.748971193415628,-14.23766816143499,-15.429906542056067,-41.03076923076923,18.996158283995086,131.23837578606572,8.700775380740174,120.16501076447719,30.209410530762607,1136.0808379588748,1
4.192886198089115,15.838520994359714,-6.070918949771691,-68.71879164815641,126.93872135102532,-110.15440414507772,102.61619218764778,-15.327586206896555,14.979487179487172,-24.94642857142858,-17.72093023255814,2.6131687242798254,-18.793721973094183,-15.429906542056067,-38.42564102564103,18.52960880693019,103.36413172506516,8.700775380740174,120.16501076447719,30.209410530762607,1136.0808379588748,1
5.202062245766723,15.62627950699811,-4.385559360730595,-68.43669480231006,126.95914756735021,-109.9643062751871,102.73630946751159,-15.327586206896555,14.979487179487172,-24.94642857142858,-17.72093023255814,2.6131687242798254,-18.793721973094183,-15.429906542056067,-38.42564102564103,18.52960880693019,103.36413172506516,8.404633704498476,100.17674807444432,29.48284455667959,1169.6402840709297,1
5.202062245766723,15.62627950699811,-4.385559360730595,-68.43669480231006,126.95914756735021,-109.9643062751871,102.73630946751159,-13.137931034482762,16.282051282051274,-15.875000000000007,-10.337209302325581,4.7037037037036935,-16.515695067264584,-15.429906542056067,-41.03076923076923,16.66403327033165,113.08042285040366,8.404633704498476,100.17674807444432,29.48284455667959,1169.6402840709297,1
5.202062245766723,15.62627950699811,-4.385559360730595,-68.43669480231006,126.95914756735021,-109.9643062751871,102.73630946751159,-13.137931034482762,13.676923076923071,-24.94642857142858,-13.290697674418604,8.88477366255143,-23.349775784753376,-17.803738317757002,-38.42564102564103,19.18948864349448,90.05611760318133,8.404633704498476,100.17674807444432,29.48284455667959,1169.6402840709297,1
4.240942200359477,16.422185084604124,-2.500856164383563,-67.70324300310972,126.69360675512664,-109.9643062751871,103.14470821904852,-13.137931034482762,13.676923076923071,-24.94642857142858,-13.290697674418604,8.88477366255143,-23.349775784753376,-17.803738317757002,-38.42564102564103,19.18948864349448,90.05611760318133,7.721327816449055,91.98600225111701,28.875428084032468,1179.1502582688308,1
4.240942200359477,16.422185084604124,-2.500856164383563,-67.70324300310972,126.69360675512664,-109.9643062751871,103.14470821904852,-24.08620689655173,14.979487179487172,-24.94642857142858,-14.767441860465116,3.6584362139917594,-15.376681614349787,-21.364485981308405,-42.333333333333336,20.18906270636449,126.0749825801354,7.721327816449055,91.98600225111701,28.875428084032468,1179.1502582688308,1
4.240942200359477,16.422185084604124,-2.500856164383563,-67.70324300310972,126.69360675512664,-109.9643062751871,103.14470821904852,-17.51724137931035,16.282051282051274,-18.142857142857153,-14.767441860465116,4.7037037037036935,-18.793721973094183,-14.242990654205599,-38.42564102564103,17.85945612766605,88.89137766198532,7.721327816449055,91.98600225111701,28.875428084032468,1179.1502582688308,1
3.087598145870782,18.75684144558177,-1.3229166666666679,-66.29275877387829,126.12167269802976,-110.05204375359816,103.98552917809515,-17.51724137931035,16.282051282051274,-18.142857142857153,-14.767441860465116,4.7037037037036935,-18.793721973094183,-14.242990654205599,-38.42564102564103,17.85945612766605,88.89137766198532,7.72245208603974,111.36241872392614,28.790838962042244,1130.7809254792533,1
3.087598145870782,18.75684144558177,-1.3229166666666679,-66.29275877387829,126.12167269802976,-110.05204375359816,103.98552917809515,-10.948275862068968,24.09743589743589,-6.803571428571437,-13.290697674418604,3.6584362139917594,-21.071748878923778,-16.616822429906534,-38.42564102564103,16.86407867636975,122.62237506627085,7.72245208603974,111.36241872392614,28.790838962042244,1130.7809254792533,1
3.087598145870782,18.75684144558177,-1.3229166666666679,-66.29275877387829,126.12167269802976,-110.05204375359816,103.98552917809515,-8.758620689655174,21.492307692307687,-9.07142857142858,-5.906976744186046,10.975308641975298,-22.210762331838577,-18.99065420560747,-39.72820512820513,17.141783000650495,122.54867348451218,7.72245208603974,111.36241872392614,28.790838962042244,1130.7809254792533,1
2.9194021379245134,20.295592228953403,-0.9785958904109604,-64.48733896046201,125.38632891033373,-110.18364997121473,105.1146316088149,-8.758620689655174,21.492307692307687,-9.07142857142858,-5.906976744186046,10.975308641975298,-22.210762331838577,-18.99065420560747,-39.72820512820513,17.141783000650495,122.54867348451218,8.064530085762959,128.28624180776362,28.58717569327546,1059.9028788438038,1
2.9194021379245134,20.295592228953403,-0.9785958904109604,-64.48733896046201,125.38632891033373,-110.18364997121473,105.1146316088149,-24.08620689655173,11.071794871794864,-15.875000000000007,-4.430232558139535,7.839506172839496,-11.959641255605392,-17.803738317757002,-41.03076923076923,16.762111162932158,133.08766035863079,8.064530085762959,128.28624180776362,28.58717569327546,1059.9028788438038,1
2.9194021379245134,20.295592228953403,-0.9785958904109604,-64.48733896046201,125.38632891033373,-110.18364997121473,105.1146316088149,-19.706896551724142,5.861538461538455,-27.214285714285722,-23.627906976744185,-5.748971193415647,-32.461883408071756,-20.177570093457938,-37.12307692307692,21.49026616528935,128.43487719030364,8.064530085762959,128.28624180776362,28.58717569327546,1059.9028788438038,1
4.697474221927919,23.266973052015864,-0.8698630136986316,-62.90759662372284,124.69183755528749,-110.25676453655728,106.65213279107161,-19.706896551724142,5.861538461538455,-27.214285714285722,-23.627906976744185,-5.748971193415647,-32.461883408071756,-20.177570093457938,-37.12307692307692,21.49026616528935,128.43487719030364,9.611436762547472,159.73473099316791,29.01481089647911,986.9483277817649,1
4.697474221927919,23.266973052015864,-0.8698630136986316,-62.90759662372284,124.69183755528749,-110.25676453655728,106.65213279107161,-6.568965517241383,34.51794871794871,18.142857142857135,-10.337209302325581,4.7037037037036935,-18.793721973094183,-18.99065420560747,-34.51794871794872,18.321626160090858,130.3811309875628,9.611436762547472,159.73473099316791,29.01481089647911,986.9483277817649,1
4.697474221927919,23.266973052015864,-0.8698630136986316,-62.90759662372284,124.69183755528749,-110.25676453655728,106.65213279107161,-13.137931034482762,21.492307692307687,-13.607142857142865,-10.337209302325581,7.839506172839496,-7.403587443946201,-10.682242990654197,-39.72820512820513,15.528516577737989,115.16709999371959,9.611436762547472,159.73473099316791,29.01481089647911,986.9483277817649,1
5.298174250307448,23.58533528305827,-0.5255422374429237,-61.8356286095069,124.11990349819058,-110.37374784110536,108.28572779721934,-13.137931034482762,21.492307692307687,-13.607142857142865,-10.337209302325581,7.839506172839496,-7.403587443946201,-10.682242990654197,-39.72820512820513,15.528516577737989,115.16709999371959,9.803017256936213,158.27839119601092,28.648835376669364,958.9609476359858,1
5.298174250307448,23.58533528305827,-0.5255422374429237,-61.8356286095069,124.11990349819058,-110.37374784110536,108.28572779721934,-26.27586206896552,7.164102564102556,-18.142857142857153,-13.290697674418604,6.794238683127562,-15.376681614349787,-20.177570093457938,-42.333333333333336,18.694417896826558,133.3643688179425,9.803017256936213,158.27839119601092,28.648835376669364,958.9609476359858,1
5.298174250307448,23.58533528305827,-0.5255422374429237,-61.8356286095069,124.11990349819058,-110.37374784110536,108.28572779721934,-15.327586206896555,21.492307692307687,2.2678571428571352,-20.674418604651162,2.6131687242798254,-9.681614349775796,-16.616822429906534,-39.72820512820513,16.050247534859977,146.22239423776082,9.803017256936213,158.27839119601092,28.648835376669364,958.9609476359858,1
4.601362217387194,22.63024858993105,-0.5436643835616453,-60.537983118613965,123.44583835946924,-110.54922279792746,109.87127589142155,-15.327586206896555,21.492307692307687,2.2678571428571352,-20.674418604651162,2.6131687242798254,-9.681614349775796,-16.616822429906534,-39.72820512820513,16.050247534859977,146.22239423776082,9.25842506362663,148.09038084359696,27.903965364035557,920.6886365808659,1
4.601362217387194,22.63024858993105,-0.5436643835616453,-60.537983118613965,123.44583835946924,-110.54922279792746,109.87127589142155,-10.948275862068968,14.979487179487172,-27.214285714285722,-11.813953488372093,2.6131687242798254,-19.93273542600898,-15.429906542056067,-41.03076923076923,17.995322770916005,137.07601762157765,9.25842506362663,148.09038084359696,27.903965364035557,920.6886365808659,1
4.601362217387194,22.63024858993105,-0.5436643835616453,-60.537983118613965,123.44583835946924,-110.54922279792746,109.87127589142155,-13.137931034482762,17.58461538461538,-18.142857142857153,-10.337209302325581,6.794238683127562,-14.23766816143499,-16.616822429906534,-39.72820512820513,17.072443408369388,98.48863491947428,9.25842506362663,148.09038084359696,27.903965364035557,920.6886365808659,1
4.985810235550093,22.683308961771452,-0.8517408675799101,-59.29675699689028,122.751347004423,-110.71007484168106,111.55291780951481,-13.137931034482762,17.58461538461538,-18.142857142857153,-10.337209302325581,6.794238683127562,-14.23766816143499,-16.616822429906534,-39.72820512820513,17.072443408369388,98.48863491947428,9.506953354967152,150.19617241938542,27.61060227541388,872.1636421378364,1
4.985810235550093,22.683308961771452,-0.8517408675799101,-59.29675699689028,122.751347004423,-110.71007484168106,111.55291780951481,-10.948275862068968,20.189743589743582,-6.803571428571437,-16.24418604651163,3.6584362139917594,-17.654708520179383,-18.99065420560747,-37.12307692307692,16.451581598718896,105.17957630463509,9.506953354967152,150.19617241938542,27.61060227541388,872.1636421378364,1
4.985810235550093,22.683308961771452,-0.8517408675799101,-59.29675699689028,122.751347004423,-110.71007484168106,111.55291780951481,-13.137931034482762,14.979487179487172,-18.142857142857153,-13.290697674418604,3.6584362139917594,-15.376681614349787,-15.429906542056067,-39.72820512820513,16.718025316231056,104.72800083132621,9.506953354967152,150.19617241938542,27.61060227541388,872.1636421378364,1
5.057894238955637,23.107791936494664,-0.9423515981735173,-57.99911150599735,122.05685564937676,-110.82705814622913,113.2105362716353,-13.137931034482762,14.979487179487172,-18.142857142857153,-13.290697674418604,3.6584362139917594,-15.376681614349787,-15.429906542056067,-39.72820512820513,16.718025316231056,104.72800083132621,9.702679257874605,156.70186017262535,27.349751680221843,827.3641296453147,1
5.057894238955637,23.107791936494664,-0.9423515981735173,-57.99911150599735,122.05685564937676,-110.82705814622913,113.2105362716353,-10.948275862068968,24.09743589743589,-34.01785714285715,-19.19767441860465,-0.5226337448559768,-32.461883408071756,-22.551401869158873,-37.12307692307692,22.615029908266273,153.64791911069278,9.702679257874605,156.70186017262535,27.349751680221843,827.3641296453147,1
5.057894238955637,23.107791936494664,-0.9423515981735173,-57.99911150599735,122.05685564937676,-110.82705814622913,113.2105362716353,-13.137931034482762,17.58461538461538,-18.142857142857153,-11.813953488372093,3.6584362139917594,-17.654708520179383,-18.99065420560747,-38.42564102564103,17.42609962696838,97.63611865767484,9.702679257874605,156.70186017262535,27.349751680221843,827.3641296453147,1
6.139154290038789,23.797576770419877,-0.8879851598173527,-56.87072412261216,121.46449537595495,-110.90017271157167,114.94022510167409,-13.137931034482762,17.58461538461538,-18.142857142857153,-11.813953488372093,3.6584362139917594,-17.654708520179383,-18.99065420560747,-38.42564102564103,17.42609962696838,97.63611865767484,10.274905406758672,161.7629235258217,27.185428684283128,792.1249208868062,1
6.139154290038789,23.797576770419877,-0.8879851598173527,-56.87072412261216,121.46449537595495,-110.90017271157167,114.94022510167409,-19.706896551724142,14.979487179487172,-20.410714285714292,-13.290697674418604,4.7037037037036935,-15.376681614349787,-16.616822429906534,-41.03076923076923,18.264471583759182,107.92418709315204,10.274905406758672,161.7629235258217,27.185428684283128,792.1249208868062,1
6.139154290038789,23.797576770419877,-0.8879851598173527,-56.87072412261216,121.46449537595495,-110.90017271157167,114.94022510167409,-13.137931034482762,18.88717948717948,-9.07142857142858,-13.290697674418604,6.794238683127562,-18.793721973094183,-18.99065420560747,-38.42564102564103,17.173936581872457,95.03599433933178,10.274905406758672,161.7629235258217,27.185428684283128,792.1249208868062,1
5.322202251442629,23.47921453937747,-0.7067636986301382,-55.51665926254998,120.77000402090871,-110.97328727691422,116.54979665184905,-13.137931034482762,18.88717948717948,-9.07142857142858,-13.290697674418604,6.794238683127562,-18.793721973094183,-18.99065420560747,-38.42564102564103,17.173936581872457,95.03599433933178,9.836060163150078,158.4978448301219,26.567545833519194,758.1845055687313,1
5.322202251442629,23.47921453937747,-0.7067636986301382,-55.51665926254998,120.77000402090871,-110.97328727691422,116.54979665184905,-10.948275862068968,18.88717948717948,-6.803571428571437,-10.337209302325581,4.7037037037036935,-18.793721973094183,-16.616822429906534,-39.72820512820513,15.852336164381876,121.30602331972686,9.836060163150078,158.4978448301219,26.567545833519194,758.1845055687313,1
5.322202251442629,23.47921453937747,-0.7067636986301382,-55.51665926254998,120.77000402090871,-110.97328727691422,116.54979665184905,-17.51724137931035,17.58461538461538,-13.607142857142865,-7.383720930232558,8.88477366255143,-16.515695067264584,-15.429906542056067,-41.03076923076923,17.244233131742806,107.16441871654443,9.836060163150078,158.4978448301219,26.567545833519194,758.1845055687313,1
4.937754233279731,23.58533528305827,-0.7973744292237455,-53.936916925810806,120.07551266586248,-110.97328727691422,118.03925092216022,-17.51724137931035,17.58461538461538,-13.607142857142865,-7.383720930232558,8.88477366255143,-16.515695067264584,-15.429906542056067,-41.03076923076923,17.244233131742806,107.16441871654443,9.773487981853915,162.5234187828234,26.106542212697608,710.7201074731917,1
4.937754233279731,23.58533528305827,-0.7973744292237455,-53.936916925810806,120.07551266586248,-110.97328727691422,118.03925092216022,-15.327586206896555,14.979487179487172,-22.678571428571438,-10.337209302325581,-5.748971193415647,-26.76681614349777,-22.551401869158873,-42.333333333333336,20.090422082085798,128.81213020260486,9.773487981853915,162.5234187828234,26.106542212697608,710.7201074731917,1
4.937754233279731,23.58533528305827,-0.7973744292237455,-53.936916925810806,120.07551266586248,-110.97328727691422,118.03925092216022,-13.137931034482762,16.282051282051274,-36.28571428571429,-22.151162790697676,-2.613168724279845,-22.210762331838577,-20.177570093457938,-38.42564102564103,21.410500196020422,137.36745544616232,9.773487981853915,162.5234187828234,26.106542212697608,710.7201074731917,1
6.643742313877593,24.9649049509087,-1.359160958904111,-52.80852954242562,119.58528347406514,-110.84168105929764,119.52870519247139,-13.137931034482762,16.282051282051274,-36.28571428571429,-22.151162790697676,-2.613168724279845,-22.210762331838577,-20.177570093457938,-38.42564102564103,21.410500196020422,137.36745544616232,10.989269407896801,182.11131786503563,26.377531817412812,663.2560179087394,1
6.643742313877593,24.9649049509087,-1.359160958904111,-52.80852954242562,119.58528347406514,-110.84168105929764,119.52870519247139,-19.706896551724142,16.282051282051274,-11.339285714285722,-13.290697674418604,10.975308641975298,-11.959641255605392,-14.242990654205599,-38.42564102564103,17.027814099988383,83.14292520017294,10.989269407896801,182.11131786503563,26.377531817412812,663.2560179087394,1
6.643742313877593,24.9649049509087,-1.359160958904111,-52.80852954242562,119.58528347406514,-110.84168105929764,119.52870519247139,-17.51724137931035,17.58461538461538,-13.607142857142865,-11.813953488372093,4.7037037037036935,-19.93273542600898,-18.99065420560747,-39.72820512820513,17.984781446620744,101.65590971792686,10.989269407896801,182.11131786503563,26.377531817412812,663.2560179087394,1
5.3462302525778105,20.401712972634208,-2.029680365296805,-51.73656152820968,119.13590671491755,-110.7978123200921,120.58573725527287,-17.51724137931035,17.58461538461538,-13.607142857142865,-11.813953488372093,4.7037037037036935,-19.93273542600898,-18.99065420560747,-39.72820512820513,17.984781446620744,101.65590971792686,9.259207863502942,130.70650407629466,24.722651622046897,631.6963918449769,1
5.3462302525778105,20.401712972634208,-2.029680365296805,-51.73656152820968,119.13590671491755,-110.7978123200921,120.58573725527287,-15.327586206896555,16.282051282051274,-11.339285714285722,-16.24418604651163,6.794238683127562,-13.09865470852019,-16.616822429906534,-39.72820512820513,16.928878774938077,95.99758370354633,9.259207863502942,130.70650407629466,24.722651622046897,631.6963918449769,1
5.3462302525778105,20.401712972634208,-2.029680365296805,-51.73656152820968,119.13590671491755,-110.7978123200921,120.58573725527287,-13.137931034482762,20.189743589743582,-9.07142857142858,-10.337209302325581,10.975308641975298,-13.09865470852019,-15.429906542056067,-42.333333333333336,16.821689465483175,118.26444010788649,9.259207863502942,130.70650407629466,24.722651622046897,631.6963918449769,1
4.264970201494658,16.68748694380613,-2.754566210045663,-50.66459351399374,118.60482509047043,-110.87092688543466,121.33046439042846,-13.137931034482762,20.189743589743582,-9.07142857142858,-10.337209302325581,10.975308641975298,-13.09865470852019,-15.429906542056067,-42.333333333333336,16.821689465483175,118.26444010788649,7.902341118448818,96.9310407471913,23.36888222261518,607.3234612200313,1
4.264970201494658,16.68748694380613,-2.754566210045663,-50.66459351399374,118.60482509047043,-110.87092688543466,121.33046439042846,-10.948275862068968,14.979487179487172,-15.875000000000007,-20.674418604651162,-1.5679012345679109,-19.93273542600898,-18.99065420560747,-37.12307692307692,17.511443679433572,101.29025078388747,7.902341118448818,96.9310407471913,23.36888222261518,607.3234612200313,1
4.264970201494658,16.68748694380613,-2.754566210045663,-50.66459351399374,118.60482509047043,-110.87092688543466,121.33046439042846,-19.706896551724142,9.769230769230763,-13.607142857142865,-11.813953488372093,4.7037037037036935,-19.93273542600898,-18.99065420560747,-43.63589743589744,17.77002680471093,138.07255949291746,7.902341118448818,96.9310407471913,23.36888222261518,607.3234612200313,1
3.3519061583577745,14.19364946730728,-3.0263984018264853,-49.53620613060866,118.05331724969841,-111.01715601611974,121.85898042182919,-19.706896551724142,9.769230769230763,-13.607142857142865,-11.813953488372093,4.7037037037036935,-19.93273542600898,-18.99065420560747,-43.63589743589744,17.77002680471093,138.07255949291746,6.857318009163845,75.79270260914615,22.25208466658081,589.4943371377394,1
3.3519061583577745,14.19364946730728,-3.0263984018264853,-49.53620613060866,118.05331724969841,-111.01715601611974,121.85898042182919,-15.327586206896555,22.79487179487179,-11.339285714285722,-8.86046511627907,9.930041152263364,-15.376681614349787,-15.429906542056067,-38.42564102564103,17.185559895830423,92.64864701126112,6.857318009163845,75.79270260914615,22.25208466658081,589.4943371377394,1
3.3519061583577745,14.19364946730728,-3.0263984018264853,-49.53620613060866,118.05331724969841,-111.01715601611974,121.85898042182919,-15.327586206896555,16.282051282051274,-13.607142857142865,-11.813953488372093,4.7037037037036935,-15.376681614349787,-18.99065420560747,-35.820512820512825,16.49028577232957,78.80699709990641,6.857318009163845,75.79270260914615,22.25208466658081,589.4943371377394,1
3.6402421719799483,10.3733026947984,-3.533818493150686,-48.52065748556197,117.56308805790107,-111.17800805987335,122.07519152558405,-15.327586206896555,16.282051282051274,-13.607142857142865,-11.813953488372093,4.7037037037036935,-15.376681614349787,-18.99065420560747,-35.820512820512825,16.49028577232957,78.80699709990641,5.8491211199763455,48.36821169453556,20.809259557837017,587.6358173676862,1
3.6402421719799483,10.3733026947984,-3.533818493150686,-48.52065748556197,117.56308805790107,-111.17800805987335,122.07519152558405,-17.51724137931035,13.676923076923071,-11.339285714285722,-5.906976744186046,12.020576131687232,-15.376681614349787,-16.616822429906534,-35.820512820512825,16.034377488895196,77.24830970098296,5.8491211199763455,48.36821169453556,20.809259557837017,587.6358173676862,1
3.6402421719799483,10.3733026947984,-3.533818493150686,-48.52065748556197,117.56308805790107,-111.17800805987335,122.07519152558405,-15.327586206896555,33.21538461538461,24.946428571428562,-8.86046511627907,12.020576131687232,-15.376681614349787,-15.429906542056067,-38.42564102564103,20.450333727965365,112.69258715392581,5.8491211199763455,48.36821169453556,20.809259557837017,587.6358173676862,1
5.226090246901904,8.091706705661155,-4.113727168949773,-48.01288316303862,117.29754724567752,-111.30961427748993,122.0992149815568,-15.327586206896555,33.21538461538461,24.946428571428562,-8.86046511627907,12.020576131687232,-15.376681614349787,-15.429906542056067,-38.42564102564103,20.450333727965365,112.69258715392581,5.810508040504278,40.736093852943014,20.072772345883184,589.4434246548184,1
5.226090246901904,8.091706705661155,-4.113727168949773,-48.01288316303862,117.29754724567752,-111.30961427748993,122.0992149815568,-4.379310344827589,39.72820512820512,24.946428571428562,-19.19767441860465,-6.794238683127581,-42.713004484304946,-24.925233644859805,-37.12307692307692,24.975896524804394,209.7104184946286,5.810508040504278,40.736093852943014,20.072772345883184,589.4434246548184,1
5.226090246901904,8.091706705661155,-4.113727168949773,-48.01288316303862,117.29754724567752,-111.30961427748993,122.0992149815568,-21.896551724137936,9.769230769230763,-29.482142857142865,-13.290697674418604,7.839506172839496,-19.93273542600898,-18.99065420560747,-39.72820512820513,20.116215494698906,111.59803731167969,5.810508040504278,40.736093852943014,20.072772345883184,589.4434246548184,1
5.466370258253717,4.589722164194684,-4.548658675799088,-48.01288316303862,117.17498994772816,-111.52895797351756,121.85898042182919,-21.896551724137936,9.769230769230763,-29.482142857142865,-13.290697674418604,7.839506172839496,-19.93273542600898,-18.99065420560747,-39.72820512820513,20.116215494698906,111.59803731167969,4.8682503660824965,30.76322013458291,19.050421334344133,629.1185679364589,1
5.466370258253717,4.589722164194684,-4.548658675799088,-48.01288316303862,117.17498994772816,-111.52895797351756,121.85898042182919,-10.948275862068968,13.676923076923071,-4.535714285714294,-1.4767441860465116,12.020576131687232,-10.820627802690595,-10.682242990654197,-41.03076923076923,13.148984195819263,143.67496274050274,4.8682503660824965,30.76322013458291,19.050421334344133,629.1185679364589,1
5.466370258253717,4.589722164194684,-4.548658675799088,-48.01288316303862,117.17498994772816,-111.52895797351756,121.85898042182919,-13.137931034482762,20.189743589743582,-11.339285714285722,-11.813953488372093,5.748971193415628,-17.654708520179383,-17.803738317757002,-37.12307692307692,16.851426097664138,88.06438920868938,4.8682503660824965,30.76322013458291,19.050421334344133,629.1185679364589,1
4.024690190142847,-1.5652809692918428,-4.892979452054796,-48.01288316303862,116.99115400080416,-111.9237766263673,121.16230019861914,-13.137931034482762,20.189743589743582,-11.339285714285722,-11.813953488372093,5.748971193415628,-17.654708520179383,-17.803738317757002,-37.12307692307692,16.851426097664138,88.06438920868938,3.4943168704964953,20.30769776714465,18.157047861461752,671.2965704642083,1
4.024690190142847,-1.5652809692918428,-4.892979452054796,-48.01288316303862,116.99115400080416,-111.9237766263673,121.16230019861914,-19.706896551724142,13.676923076923071,-27.214285714285722,-16.24418604651163,5.748971193415628,-14.23766816143499,-18.99065420560747,-41.03076923076923,19.606294272583987,112.08393689472402,3.4943168704964953,20.30769776714465,18.157047861461752,671.2965704642083,1
4.024690190142847,-1.5652809692918428,-4.892979452054796,-48.01288316303862,116.99115400080416,-111.9237766263673,121.16230019861914,-17.51724137931035,11.071794871794864,-29.482142857142865,-16.24418604651163,2.6131687242798254,-23.349775784753376,-18.99065420560747,-42.333333333333336,20.200287150341715,143.27037794065456,3.4943168704964953,20.30769776714465,18.157047861461752,671.2965704642083,1
4.385110207170564,-4.2182995613118965,-5.1829337899543395,-48.29498000888498,116.82774427020505,-112.4355785837651,120.39354960749078,-17.51724137931035,11.071794871794864,-29.482142857142865,-16.24418604651163,2.6131687242798254,-23.349775784753376,-18.99065420560747,-42.333333333333336,20.200287150341715,143.27037794065456,4.595447852812267,27.74944079506766,19.232071120050403,633.7221346092919,1
4.385110207170564,-4.2182995613118965,-5.1829337899543395,-48.29498000888498,116.82774427020505,-112.4355785837651,120.39354960749078,-13.137931034482762,20.189743589743582,-18.142857142857153,-11.813953488372093,13.065843621399166,-14.23766816143499,-15.429906542056067,-41.03076923076923,18.38108410138938,91.58331746548346,4.595447852812267,27.74944079506766,19.232071120050403,633.7221346092919,1
4.385110207170564,-4.2182995613118965,-5.1829337899543395,-48.29498000888498,116.82774427020505,-112.4355785837651,120.39354960749078,-13.137931034482762,18.88717948717948,-18.142857142857153,-19.19767441860465,-4.703703703703713,-31.32286995515696,-21.364485981308405,-38.42564102564103,20.64779284361677,107.51601642431355,4.595447852812267,27.74944079506766,19.232071120050403,633.7221346092919,1
3.7603821776558544,-5.916231460204731,-5.309788812785389,-48.351399378054225,116.5622034579815,-112.96200345423144,119.52870519247139,-13.137931034482762,18.88717948717948,-18.142857142857153,-19.19767441860465,-4.703703703703713,-31.32286995515696,-21.364485981308405,-38.42564102564103,20.64779284361677,107.51601642431355,4.9954674835486585,29.378770996146727,19.859139883681447,608.948581492159,1
3.7603821776558544,-5.916231460204731,-5.309788812785389,-48.351399378054225,116.5622034579815,-112.96200345423144,119.52870519247139,-19.706896551724142,16.282051282051274,-20.410714285714292,-16.24418604651163,4.7037037037036935,-14.23766816143499,-15.429906542056067,-42.333333333333336,18.66855748831618,114.40666346814172,4.9954674835486585,29.378770996146727,19.859139883681447,608.948581492159,1
3.7603821776558544,-5.916231460204731,-5.309788812785389,-48.351399378054225,116.5622034579815,-112.96200345423144,119.52870519247139,-2.1896551724137954,37.123076923076916,2.2678571428571352,-13.290697674418604,5.748971193415628,-19.93273542600898,-15.429906542056067,-37.12307692307692,16.638247124665504,199.5175113045308,4.9954674835486585,29.378770996146727,19.859139883681447,608.948581492159,1
4.577334216252014,-7.667223730937966,-5.853453196347034,-48.52065748556197,116.39879372738238,-113.45918249856074,118.49569658564268,-2.1896551724137954,37.123076923076916,2.2678571428571352,-13.290697674418604,5.748971193415628,-19.93273542600898,-15.429906542056067,-37.12307692307692,16.638247124665504,199.5175113045308,6.032670381179005,43.67004815351305,20.68044480428232,582.1305224922006,1
4.577334216252014,-7.667223730937966,-5.853453196347034,-48.52065748556197,116.39879372738238,-113.45918249856074,118.49569658564268,-13.137931034482762,12.374358974358968,-9.07142857142858,-16.24418604651163,0.5226337448559573,-17.654708520179383,-17.803738317757002,-39.72820512820513,15.817148792222428,125.38601156722584,6.032670381179005,43.67004815351305,20.68044480428232,582.1305224922006,1
4.577334216252014,-7.667223730937966,-5.853453196347034,-48.52065748556197,116.39879372738238,-113.45918249856074,118.49569658564268,-21.896551724137936,9.769230769230763,-24.94642857142858,-14.767441860465116,5.748971193415628,-14.23766816143499,-17.803738317757002,-38.42564102564103,18.44945895293888,103.071864332712,6.032670381179005,43.67004815351305,20.68044480428232,582.1305224922006,1
5.730678270740709,-8.038646333820775,-5.509132420091325,-49.53620613060866,116.50092480900682,-114.00023028209557,117.43866452284121,-21.896551724137936,9.769230769230763,-24.94642857142858,-14.767441860465116,5.748971193415628,-14.23766816143499,-17.803738317757002,-38.42564102564103,18.44945895293888,103.071864332712,6.426152341550936,53.72101417854588,21.027994961506923,611.1381882065107,1
5.730678270740709,-8.038646333820775,-5.509132420091325,-49.53620613060866,116.50092480900682,-114.00023028209557,117.43866452284121,-8.758620689655174,22.79487179487179,-13.607142857142865,-11.813953488372093,7.839506172839496,-9.681614349775796,-14.242990654205599,-33.215384615384615,15.24426057778093,74.7513824513164,6.426152341550936,53.72101417854588,21.027994961506923,611.1381882065107,1
5.730678270740709,-8.038646333820775,-5.509132420091325,-49.53620613060866,116.50092480900682,-114.00023028209557,117.43866452284121,-13.137931034482762,13.676923076923071,-9.07142857142858,-16.24418604651163,-1.5679012345679109,-24.488789237668172,-17.803738317757002,-37.12307692307692,16.639246805302005,112.59523290131902,6.426152341550936,53.72101417854588,21.027994961506923,611.1381882065107,1
4.361082206035383,-8.038646333820775,-4.258704337899545,-50.156819191470504,116.37836751105749,-114.62901554404145,116.42967937198526,-13.137931034482762,13.676923076923071,-9.07142857142858,-16.24418604651163,-1.5679012345679109,-24.488789237668172,-17.803738317757002,-37.12307692307692,16.639246805302005,112.59523290131902,5.552810959251901,40.39032490294234,20.818056621063608,649.1442322451637,1
4.361082206035383,-8.038646333820775,-4.258704337899545,-50.156819191470504,116.37836751105749,-114.62901554404145,116.42967937198526,-19.706896551724142,9.769230769230763,-18.142857142857153,-10.337209302325581,4.7037037037036935,-19.93273542600898,-18.99065420560747,-38.42564102564103,17.50111601588735,103.73170200865059,5.552810959251901,40.39032490294234,20.818056621063608,649.1442322451637,1
4.361082206035383,-8.038646333820775,-4.258704337899545,-50.156819191470504,116.37836751105749,-114.62901554404145,116.42967937198526,-15.327586206896555,14.979487179487172,-20.410714285714292,-11.813953488372093,7.839506172839496,-11.959641255605392,-17.803738317757002,-41.03076923076923,17.645674517180154,104.21657917017617,5.552810959251901,40.39032490294234,20.818056621063608,649.1442322451637,1
2.126478100463536,-7.5080426154167625,-3.3707191780821932,-50.382496668147496,116.03112183353437,-115.34553828439839,115.37264730918378,-15.327586206896555,14.979487179487172,-20.410714285714292,-11.813953488372093,7.839506172839496,-11.959641255605392,-17.803738317757002,-41.03076923076923,17.645674517180154,104.21657917017617,4.335079964654164,23.360102094849186,20.420419487215483,677.5739130533746,1
2.126478100463536,-7.5080426154167625,-3.3707191780821932,-50.382496668147496,116.03112183353437,-115.34553828439839,115.37264730918378,-15.327586206896555,21.492307692307687,-11.339285714285722,-13.290697674418604,3.6584362139917594,-18.793721973094183,-17.803738317757002,-41.03076923076923,17.842067877940092,117.49234395073113,4.335079964654164,23.360102094849186,20.420419487215483,677.5739130533746,1
2.126478100463536,-7.5080426154167625,-3.3707191780821932,-50.382496668147496,116.03112183353437,-115.34553828439839,115.37264730918378,-21.896551724137936,7.164102564102556,-22.678571428571438,-11.813953488372093,2.6131687242798254,-18.793721973094183,-17.803738317757002,-39.72820512820513,17.811501668565022,128.85853224116278,4.335079964654164,23.360102094849186,20.420419487215483,677.5739130533746,1
1.4777220698136446,-7.136620012533957,-2.5733447488584487,-50.438916037316744,115.54089264173703,-116.14979850316638,114.43573252624611,-21.896551724137936,7.164102564102556,-22.678571428571438,-11.813953488372093,2.6131687242798254,-18.793721973094183,-17.803738317757002,-39.72820512820513,17.811501668565022,128.85853224116278,3.7292289437353503,18.57358550218727,20.04962693290305,697.8375394867459,1
1.4777220698136446,-7.136620012533957,-2.5733447488584487,-50.438916037316744,115.54089264173703,-116.14979850316638,114.43573252624611,-15.327586206896555,17.58461538461538,-9.07142857142858,-11.813953488372093,6.794238683127562,-13.09865470852019,-16.616822429906534,-38.42564102564103,16.09161756231349,94.98253924105951,3.7292289437353503,18.57358550218727,20.04962693290305,697.8375394867459,1
1.4777220698136446,-7.136620012533957,-2.5733447488584487,-50.438916037316744,115.54089264173703,-116.14979850316638,114.43573252624611,-19.706896551724142,13.676923076923071,-11.339285714285722,-11.813953488372093,3.6584362139917594,-23.349775784753376,-18.99065420560747,-41.03076923076923,17.945836783303356,124.27279811714826,3.7292289437353503,18.57358550218727,20.04962693290305,697.8375394867459,1
1.8621700879765433,-6.0754125757259345,-1.9209474885844764,-50.55175477565524,115.0302372336148,-116.9979274611399,113.71502884706328,-19.706896551724142,13.676923076923071,-11.339285714285722,-11.813953488372093,3.6584362139917594,-23.349775784753376,-18.99065420560747,-41.03076923076923,17.945836783303356,124.27279811714826,3.286176717428985,15.762796216912054,19.51603827998855,726.7266688396173,1
1.8621700879765433,-6.0754125757259345,-1.9209474885844764,-50.55175477565524,115.0302372336148,-116.9979274611399,113.71502884706328,-13.137931034482762,22.79487179487179,-18.142857142857153,-17.72093023255814,3.6584362139917594,-19.93273542600898,-15.429906542056067,-39.72820512820513,18.818234189378973,104.21556246781972,3.286176717428985,15.762796216912054,19.51603827998855,726.7266688396173,1
1.8621700879765433,-6.0754125757259345,-1.9209474885844764,-50.55175477565524,115.0302372336148,-116.9979274611399,113.71502884706328,-10.948275862068968,24.09743589743589,-4.535714285714294,-10.337209302325581,8.88477366255143,-13.09865470852019,-17.803738317757002,-39.72820512820513,16.17925089557231,125.66483201334471,3.286176717428985,15.762796216912054,19.51603827998855,726.7266688396173,1
2.991486141330057,-5.597869229162324,-1.9209474885844764,-51.115948467347835,114.6421391234419,-117.84605641911341,113.11444244774427,-10.948275862068968,24.09743589743589,-4.535714285714294,-10.337209302325581,8.88477366255143,-13.09865470852019,-17.803738317757002,-39.72820512820513,16.17925089557231,125.66483201334471,3.5034342863589525,18.57146388920927,19.54492172836488,750.9272353867661,1
2.991486141330057,-5.597869229162324,-1.9209474885844764,-51.115948467347835,114.6421391234419,-117.84605641911341,113.11444244774427,-2.1896551724137954,34.51794871794871,13.607142857142847,-14.767441860465116,0.5226337448559573,-18.793721973094183,-18.99065420560747,-38.42564102564103,17.72685494464614,182.31941807133336,3.5034342863589525,18.57146388920927,19.54492172836488,750.9272353867661,1
2.991486141330057,-5.597869229162324,-1.9209474885844764,-51.115948467347835,114.6421391234419,-117.84605641911341,113.11444244774427,-10.948275862068968,20.189743589743582,-9.07142857142858,-13.290697674418604,4.7037037037036935,-17.654708520179383,-16.616822429906534,-38.42564102564103,16.3626276721363,104.42878774834274,3.5034342863589525,18.57146388920927,19.54492172836488,750.9272353867661,1
2.6310661243023397,-4.2182995613118965,-1.5766267123287685,-51.28520657485558,114.17233614796942,-118.60644789867588,112.537879504398,-10.948275862068968,20.189743589743582,-9.07142857142858,-13.290697674418604,4.7037037037036935,-17.654708520179383,-16.616822429906534,-38.42564102564103,16.3626276721363,104.42878774834274,2.8086641326476687,11.93282079062686,19.026710949498746,782.2025138686379,1
2.6310661243023397,-4.2182995613118965,-1.5766267123287685,-51.28520657485558,114.17233614796942,-118.60644789867588,112.537879504398,-21.896551724137936,9.769230769230763,-22.678571428571438,-14.767441860465116,4.7037037037036935,-19.93273542600898,-20.177570093457938,-42.333333333333336,19.53239229236365,124.83731645058582,2.8086641326476687,11.93282079062686,19.026710949498746,782.2025138686379,1
2.6310661243023397,-4.2182995613118965,-1.5766267123287685,-51.28520657485558,114.17233614796942,-118.60644789867588,112.537879504398,-10.948275862068968,18.88717948717948,-6.803571428571437,-13.290697674418604,5.748971193415628,-16.515695067264584,-16.616822429906534,-39.72820512820513,16.067427283878796,113.498812817269,2.8086641326476687,11.93282079062686,19.026710949498746,782.2025138686379,1
0.1081260051083186,-3.4223939837058808,-1.7759703196347045,-50.438916037316744,113.41656614394853,-119.30834772596431,111.74510545729689,-10.948275862068968,18.88717948717948,-6.803571428571437,-13.290697674418604,5.748971193415628,-16.515695067264584,-16.616822429906534,-39.72820512820513,16.067427283878796,113.498812817269,1.7688301028163014,3.120850205656723,18.545760113552443,763.5577238035598,1
0.1081260051083186,-3.4223939837058808,-1.7759703196347045,-50.438916037316744,113.41656614394853,-119.30834772596431,111.74510545729689,-15.327586206896555,7.164102564102556,-24.94642857142858,-13.290697674418604,5.748971193415628,-19.93273542600898,-17.803738317757002,-38.42564102564103,17.829987622458617,109.40373376419754,1.7688301028163014,3.120850205656723,18.545760113552443,763.5577238035598,1
0.1081260051083186,-3.4223939837058808,-1.7759703196347045,-50.438916037316744,113.41656614394853,-119.30834772596431,111.74510545729689,-8.758620689655174,33.21538461538461,-4.535714285714294,-11.813953488372093,7.839506172839496,-16.515695067264584,-15.429906542056067,-38.42564102564103,17.066802735865917,151.2499017653458,1.7688301028163014,3.120850205656723,18.545760113552443,763.5577238035598,1
-1.2614700595970074,-2.7856695216210667,-2.482734018264842,-48.85917370057757,112.4973864093285,-119.90788716177317,110.83221413033198,-8.758620689655174,33.21538461538461,-4.535714285714294,-11.813953488372093,7.839506172839496,-16.515695067264584,-15.429906542056067,-38.42564102564103,17.066802735865917,151.2499017653458,2.176624533160972,0.6510732626615252,18.04252574682116,712.2722858091178,1
-1.2614700595970074,-2.7856695216210667,-2.482734018264842,-48.85917370057757,112.4973864093285,-119.90788716177317,110.83221413033198,-13.137931034482762,14.979487179487172,-20.410714285714292,-10.337209302325581,5.748971193415628,-15.376681614349787,-18.99065420560747,-43.63589743589744,17.82719328141002,130.31490842047336,2.176624533160972,0.6510732626615252,18.04252574682116,712.2722858091178,1
-1.2614700595970074,-2.7856695216210667,-2.482734018264842,-48.85917370057757,112.4973864093285,-119.90788716177317,110.83221413033198,-15.327586206896555,14.979487179487172,-18.142857142857153,-13.290697674418604,7.839506172839496,-17.654708520179383,-17.803738317757002,-39.72820512820513,18.095848292830063,87.69971604780231,2.176624533160972,0.6510732626615252,18.04252574682116,712.2722858091178,1
0.6127140289471233,-2.3611865468978586,-3.443207762557079,-47.73078631719238,111.82332127060715,-120.37582037996546,109.91932280336707,-15.327586206896555,14.979487179487172,-18.142857142857153,-13.290697674418604,7.839506172839496,-17.654708520179383,-17.803738317757002,-39.72820512820513,18.095848292830063,87.69971604780231,2.139036112800687,4.410892687491071,17.84506020888244,670.160161243473,1
0.6127140289471233,-2.3611865468978586,-3.443207762557079,-47.73078631719238,111.82332127060715,-120.37582037996546,109.91932280336707,-15.327586206896555,16.282051282051274,-15.875000000000007,-8.86046511627907,5.748971193415628,-19.93273542600898,-17.803738317757002,-38.42564102564103,17.282023571006192,95.01206399315346,2.139036112800687,4.410892687491071,17.84506020888244,670.160161243473,1
0.6127140289471233,-2.3611865468978586,-3.443207762557079,-47.73078631719238,111.82332127060715,-120.37582037996546,109.91932280336707,-21.896551724137936,16.282051282051274,-13.607142857142865,-13.290697674418604,4.7037037037036935,-17.654708520179383,-17.803738317757002,-41.03076923076923,18.283670413769997,109.47585794175383,2.139036112800687,4.410892687491071,17.84506020888244,670.160161243473,1
2.438842115220891,-1.1407979945686328,-3.7331621004566227,-47.22301199466904,111.41479694410936,-120.75601611974669,109.03045493237492,-21.896551724137936,16.282051282051274,-13.607142857142865,-13.290697674418604,4.7037037037036935,-17.654708520179383,-17.803738317757002,-41.03076923076923,18.283670413769997,109.47585794175383,2.4376007367487156,9.604635168575232,17.36565736323143,670.2763071049457,1
2.438842115220891,-1.1407979945686328,-3.7331621004566227,-47.22301199466904,111.41479694410936,-120.75601611974669,109.03045493237492,-17.51724137931035,16.282051282051274,-15.875000000000007,-10.337209302325581,4.7037037037036935,-18.793721973094183,-21.364485981308405,-41.03076923076923,18.23802285657034,112.16039113808016,2.4376007367487156,9.604635168575232,17.36565736323143,670.2763071049457,1
2.438842115220891,-1.1407979945686328,-3.7331621004566227,-47.22301199466904,111.41479694410936,-120.75601611974669,109.03045493237492,-10.948275862068968,16.282051282051274,-18.142857142857153,-13.290697674418604,2.6131687242798254,-18.793721973094183,-15.429906542056067,-37.12307692307692,16.577969515487872,95.48296496392207,2.4376007367487156,9.604635168575232,17.36565736323143,670.2763071049457,1
2.3907861129505283,1.1938583664090139,-4.004994292237444,-46.602398933807194,111.06755126658624,-121.01922855497985,108.1896339733283,-10.948275862068968,16.282051282051274,-18.142857142857153,-13.290697674418604,2.6131687242798254,-18.793721973094183,-15.429906542056067,-37.12307692307692,16.577969515487872,95.48296496392207,2.5298795905323286,11.561118664690452,17.267083864151218,647.3961539753597,1
2.3907861129505283,1.1938583664090139,-4.004994292237444,-46.602398933807194,111.06755126658624,-121.01922855497985,108.1896339733283,-17.51724137931035,18.88717948717948,-11.339285714285722,-14.767441860465116,4.7037037037036935,-18.793721973094183,-15.429906542056067,-38.42564102564103,17.483015210716953,93.5614550759007,2.5298795905323286,11.561118664690452,17.267083864151218,647.3961539753597,1
2.3907861129505283,1.1938583664090139,-4.004994292237444,-46.602398933807194,111.06755126658624,-121.01922855497985,108.1896339733283,-10.948275862068968,18.88717948717948,-9.07142857142858,-10.337209302325581,4.7037037037036935,-17.654708520179383,-20.177570093457938,-42.333333333333336,16.76417610920962,135.7853154724294,2.5298795905323286,11.561118664690452,17.267083864151218,647.3961539753597,1
2.1745341027338982,2.3081261750574367,-4.69363584474886,-45.98178587294535,110.86328910333734,-121.13621185952792,107.15662536649958,-10.948275862068968,18.88717948717948,-9.07142857142858,-10.337209302325581,4.7037037037036935,-17.654708520179383,-20.177570093457938,-42.333333333333336,16.76417610920962,135.7853154724294,3.0587653741800644,16.035712775215828,17.661182630917217,602.9650900903287,1
2.1745341027338982,2.3081261750574367,-4.69363584474886,-45.98178587294535,110.86328910333734,-121.13621185952792,107.15662536649958,-19.706896551724142,20.189743589743582,-4.535714285714294,-13.290697674418604,5.748971193415628,-18.793721973094183,-22.551401869158873,-43.63589743589744,18.556630571645844,148.1894982827425,3.0587653741800644,16.035712775215828,17.661182630917217,602.9650900903287,1
2.1745341027338982,2.3081261750574367,-4.69363584474886,-45.98178587294535,110.86328910333734,-121.13621185952792,107.15662536649958,-15.327586206896555,21.492307692307687,-4.535714285714294,-13.290697674418604,3.6584362139917594,-16.515695067264584,-18.99065420560747,-39.72820512820513,16.692412059300764,127.1577348168003,3.0587653741800644,16.035712775215828,17.661182630917217,602.9650900903287,1
2.150506101598717,2.7326091497806457,-5.146689497716896,-45.474011550422006,110.74073180538801,-121.19470351180196,105.9794760238343,-15.327586206896555,21.492307692307687,-4.535714285714294,-13.290697674418604,3.6584362139917594,-16.515695067264584,-18.99065420560747,-39.72820512820513,16.692412059300764,127.1577348168003,3.343268249698753,19.278542458305076,17.78443673263985,576.4913611737398,1
2.150506101598717,2.7326091497806457,-5.146689497716896,-45.474011550422006,110.74073180538801,-121.19470351180196,105.9794760238343,-8.758620689655174,25.39999999999999,6.80357142857142,-7.383720930232558,4.7037037037036935,-14.23766816143499,-16.616822429906534,-38.42564102564103,15.291218546143174,132.7993053490038,3.343268249698753,19.278542458305076,17.78443673263985,576.4913611737398,1
2.150506101598717,2.7326091497806457,-5.146689497716896,-45.474011550422006,110.74073180538801,-121.19470351180196,105.9794760238343,-15.327586206896555,17.58461538461538,-15.875000000000007,-17.72093023255814,4.7037037037036935,-19.93273542600898,-22.551401869158873,-39.72820512820513,19.178022243893345,96.30901029032907,3.343268249698753,19.278542458305076,17.78443673263985,576.4913611737398,1
2.4148141140857096,4.218299561311876,-5.056078767123289,-45.02265659706802,110.67945315641333,-121.19470351180196,104.8743970490873,-15.327586206896555,17.58461538461538,-15.875000000000007,-17.72093023255814,4.7037037037036935,-19.93273542600898,-22.551401869158873,-39.72820512820513,19.178022243893345,96.30901029032907,3.896397480840291,24.18014892996728,18.099011641834394,543.8374617560303,1
2.4148141140857096,4.218299561311876,-5.056078767123289,-45.02265659706802,110.67945315641333,-121.19470351180196,104.8743970490873,-15.327586206896555,24.09743589743589,-31.750000000000007,-17.72093023255814,6.794238683127562,-17.654708520179383,-16.616822429906534,-38.42564102564103,21.048420374468137,100.5608957285344,3.896397480840291,24.18014892996728,18.099011641834394,543.8374617560303,1
2.4148141140857096,4.218299561311876,-5.056078767123289,-45.02265659706802,110.67945315641333,-121.19470351180196,104.8743970490873,-13.137931034482762,17.58461538461538,-13.607142857142865,-16.24418604651163,1.5679012345678913,-19.93273542600898,-20.177570093457938,-42.333333333333336,18.0731769262651,130.96453647250826,3.896397480840291,24.18014892996728,18.099011641834394,543.8374617560303,1
3.303850156087412,3.475454355546261,-4.494292237442924,-44.90981785872941,110.63860072376357,-121.29706390328151,103.91345881017688,-13.137931034482762,17.58461538461538,-13.607142857142865,-16.24418604651163,1.5679012345678913,-19.93273542600898,-20.177570093457938,-42.333333333333336,18.0731769262651,130.96453647250826,3.757865583025532,20.726222257918277,17.6265214839062,558.543203464728,1
3.303850156087412,3.475454355546261,-4.494292237442924,-44.90981785872941,110.63860072376357,-121.29706390328151,103.91345881017688,-15.327586206896555,13.676923076923071,-13.607142857142865,-8.86046511627907,5.748971193415628,-19.93273542600898,-18.99065420560747,-38.42564102564103,16.82126488848933,98.50787567685657,3.757865583025532,20.726222257918277,17.6265214839062,558.543203464728,1
3.303850156087412,3.475454355546261,-4.494292237442924,-44.90981785872941,110.63860072376357,-121.29706390328151,103.91345881017688,-21.896551724137936,16.282051282051274,-18.142857142857153,-8.86046511627907,9.930041152263364,-17.654708520179383,-20.177570093457938,-43.63589743589744,19.572517808390444,115.58399742781934,3.757865583025532,20.726222257918277,17.6265214839062,558.543203464728,1
4.120802194683572,-0.3448924169626171,-4.82049086757991,-45.30475344291426,110.69987937273822,-121.50178468624064,102.80837983542988,-21.896551724137936,16.282051282051274,-18.142857142857153,-8.86046511627907,9.930041152263364,-17.654708520179383,-20.177570093457938,-43.63589743589744,19.572517808390444,115.58399742781934,3.095395159742033,19.986688580155796,16.823378909152265,613.3992668721119,1
4.120802194683572,-0.3448924169626171,-4.82049086757991,-45.30475344291426,110.69987937273822,-121.50178468624064,102.80837983542988,-10.948275862068968,17.58461538461538,-9.07142857142858,-14.767441860465116,-2.613168724279845,-34.739910313901355,-24.925233644859805,-38.42564102564103,19.134464423407508,158.84527824601756,3.095395159742033,19.986688580155796,16.823378909152265,613.3992668721119,1
4.120802194683572,-0.3448924169626171,-4.82049086757991,-45.30475344291426,110.69987937273822,-121.50178468624064,102.80837983542988,-13.137931034482762,14.979487179487172,-13.607142857142865,-11.813953488372093,5.748971193415628,-18.793721973094183,-15.429906542056067,-35.820512820512825,16.16645338607045,76.90374158874909,3.095395159742033,19.986688580155796,16.823378909152265,613.3992668721119,1
4.4091382083057455,-3.2632128681846773,-5.128567351598175,-45.925366503776104,110.82243667068758,-121.75037420840529,101.5111132129008,-13.137931034482762,14.979487179487172,-13.607142857142865,-11.813953488372093,5.748971193415628,-18.793721973094183,-15.429906542056067,-35.820512820512825,16.16645338607045,76.90374158874909,4.266972809362866,25.552057622856122,18.105715574519653,581.3196202064572,1
4.4091382083057455,-3.2632128681846773,-5.128567351598175,-45.925366503776104,110.82243667068758,-121.75037420840529,101.5111132129008,-10.948275862068968,17.58461538461538,-15.875000000000007,-13.290697674418604,6.794238683127562,-14.23766816143499,-15.429906542056067,-41.03076923076923,16.89889644231135,106.23414543279635,4.266972809362866,25.552057622856122,18.105715574519653,581.3196202064572,1
4.4091382083057455,-3.2632128681846773,-5.128567351598175,-45.925366503776104,110.82243667068758,-121.75037420840529,101.5111132129008,-19.706896551724142,18.88717948717948,-6.803571428571437,-10.337209302325581,7.839506172839496,-15.376681614349787,-18.99065420560747,-39.72820512820513,17.208737986350314,109.42627439013891,4.266972809362866,25.552057622856122,18.105715574519653,581.3196202064572,1
3.9045501844669412,-4.112178817631094,-5.110445205479453,-46.3767214571302,110.88371531966223,-121.98434081750143,100.06970585453514,-19.706896551724142,18.88717948717948,-6.803571428571437,-10.337209302325581,7.839506172839496,-15.376681614349787,-18.99065420560747,-39.72820512820513,17.208737986350314,109.42627439013891,4.375724735859163,24.42243692582372,18.533115160080246,581.6989426641168,1
3.9045501844669412,-4.112178817631094,-5.110445205479453,-46.3767214571302,110.88371531966223,-121.98434081750143,100.06970585453514,-19.706896551724142,13.676923076923071,-11.339285714285722,-13.290697674418604,2.6131687242798254,-14.23766816143499,-15.429906542056067,-38.42564102564103,16.09002343384543,104.81185121522462,4.375724735859163,24.42243692582372,18.533115160080246,581.6989426641168,1
3.9045501844669412,-4.112178817631094,-5.110445205479453,-46.3767214571302,110.88371531966223,-121.98434081750143,100.06970585453514,-19.706896551724142,12.374358974358968,-13.607142857142865,-11.813953488372093,6.794238683127562,-17.654708520179383,-17.803738317757002,-42.333333333333336,17.761046340749417,115.64383570783765,4.375724735859163,24.42243692582372,18.533115160080246,581.6989426641168,1
3.568158168574405,-4.855024023396709,-5.092323059360732,-46.71523767214569,110.86328910333734,-122.27679907887162,98.67634540811501,-19.706896551724142,12.374358974358968,-13.607142857142865,-11.813953488372093,6.794238683127562,-17.654708520179383,-17.803738317757002,-42.333333333333336,17.761046340749417,115.64383570783765,4.505168417110615,24.33504069517094,18.887528251634375,580.8001364024279,1
3.568158168574405,-4.855024023396709,-5.092323059360732,-46.71523767214569,110.86328910333734,-122.27679907887162,98.67634540811501,-13.137931034482762,20.189743589743582,-4.535714285714294,-11.813953488372093,6.794238683127562,-16.515695067264584,-18.99065420560747,-38.42564102564103,16.300446422494172,110.12020697702901,4.505168417110615,24.33504069517094,18.887528251634375,580.8001364024279,1
3.568158168574405,-4.855024023396709,-5.092323059360732,-46.71523767214569,110.86328910333734,-122.27679907887162,98.67634540811501,-6.568965517241383,20.189743589743582,-20.410714285714292,-14.767441860465116,3.6584362139917594,-17.654708520179383,-17.803738317757002,-37.12307692307692,17.27210315352118,102.716585566109,4.505168417110615,24.33504069517094,18.887528251634375,580.8001364024279,1
4.529278213981652,-5.120325882598715,-4.965468036529682,-47.33585073300753,110.88371531966223,-122.62774899251583,97.42712569753145,-6.568965517241383,20.189743589743582,-20.410714285714292,-14.767441860465116,3.6584362139917594,-17.654708520179383,-17.803738317757002,-37.12307692307692,17.27210315352118,102.716585566109,4.871690711036683,30.54817442247146,19.14054821737864,596.2373081989939,1
4.529278213981652,-5.120325882598715,-4.965468036529682,-47.33585073300753,110.88371531966223,-122.62774899251583,97.42712569753145,-19.706896551724142,13.676923076923071,-20.410714285714292,-14.767441860465116,5.748971193415628,-16.515695067264584,-16.616822429906534,-41.03076923076923,18.559279212022822,102.85449986034291,4.871690711036683,30.54817442247146,19.14054821737864,596.2373081989939,1
4.529278213981652,-5.120325882598715,-4.965468036529682,-47.33585073300753,110.88371531966223,-122.62774899251583,97.42712569753145,-13.137931034482762,17.58461538461538,-18.142857142857153,-16.24418604651163,3.6584362139917594,-21.071748878923778,-21.364485981308405,-42.333333333333336,19.192199252003025,119.15597248395798,4.871690711036683,30.54817442247146,19.14054821737864,596.2373081989939,1
5.97095828209252,-5.86317108836433,-5.110445205479453,-48.40781874722347,111.04712505026134,-122.94945308002302,96.20192944292066,-13.137931034482762,17.58461538461538,-18.142857142857153,-16.24418604651163,3.6584362139917594,-21.071748878923778,-21.364485981308405,-42.333333333333336,19.192199252003025,119.15597248395798,5.648191525312101,43.901786244307765,19.793811680355752,614.2126993807581,1
5.97095828209252,-5.86317108836433,-5.110445205479453,-48.40781874722347,111.04712505026134,-122.94945308002302,96.20192944292066,-13.137931034482762,22.79487179487179,-9.07142857142858,-7.383720930232558,6.794238683127562,-15.376681614349787,-16.616822429906534,-37.12307692307692,16.037346497684563,101.18504946790151,5.648191525312101,43.901786244307765,19.793811680355752,614.2126993807581,1
5.97095828209252,-5.86317108836433,-5.110445205479453,-48.40781874722347,111.04712505026134,-122.94945308002302,96.20192944292066,-17.51724137931035,13.676923076923071,-15.875000000000007,-16.24418604651163,-2.613168724279845,-22.210762331838577,-16.616822429906534,-35.820512820512825,17.571827101160352,85.57469355096158,5.648191525312101,43.901786244307765,19.793811680355752,614.2126993807581,1
6.8119383218238605,-5.86317108836433,-5.219178082191783,-49.59262549977791,111.29223964616003,-123.2272884283247,94.92868627636433,-17.51724137931035,13.676923076923071,-15.875000000000007,-16.24418604651163,-2.613168724279845,-22.210762331838577,-16.616822429906534,-35.820512820512825,17.571827101160352,85.57469355096158,5.964762497459991,50.97014791320245,20.224991556778008,646.9471243055298,1
6.8119383218238605,-5.86317108836433,-5.219178082191783,-49.59262549977791,111.29223964616003,-123.2272884283247,94.92868627636433,-10.948275862068968,16.282051282051274,-15.875000000000007,-14.767441860465116,5.748971193415628,-19.93273542600898,-20.177570093457938,-41.03076923076923,18.09535186852964,108.07882833276811,5.964762497459991,50.97014791320245,20.224991556778008,646.9471243055298,1
6.8119383218238605,-5.86317108836433,-5.219178082191783,-49.59262549977791,111.29223964616003,-123.2272884283247,94.92868627636433,-13.137931034482762,20.189743589743582,-6.803571428571437,-8.86046511627907,5.748971193415628,-15.376681614349787,-16.616822429906534,-38.42564102564103,15.644978429048729,109.86375530485235,5.964762497459991,50.97014791320245,20.224991556778008,646.9471243055298,1
5.3462302525778105,-4.961144767077512,-5.201055936073061,-50.21323856063975,111.41479694410936,-123.44663212435233,93.55934928591697,-13.137931034482762,20.189743589743582,-6.803571428571437,-8.86046511627907,5.748971193415628,-15.376681614349787,-16.616822429906534,-38.42564102564103,15.644978429048729,109.86375530485235,5.169476985242794,36.25746385168813,20.12514642126344,678.9843557829511,1
5.3462302525778105,-4.961144767077512,-5.201055936073061,-50.21323856063975,111.41479694410936,-123.44663212435233,93.55934928591697,-19.706896551724142,13.676923076923071,-15.875000000000007,-8.86046511627907,-0.5226337448559768,-18.793721973094183,-14.242990654205599,-42.333333333333336,16.751495556301922,144.2133803095609,5.169476985242794,36.25746385168813,20.12514642126344,678.9843557829511,1
5.3462302525778105,-4.961144767077512,-5.201055936073061,-50.21323856063975,111.41479694410936,-123.44663212435233,93.55934928591697,-8.758620689655174,24.09743589743589,-4.535714285714294,-13.290697674418604,3.6584362139917594,-18.793721973094183,-15.429906542056067,-38.42564102564103,15.873771787750874,131.4288858679675,5.169476985242794,36.25746385168813,20.12514642126344,678.9843557829511,1
4.769558225333462,-3.7938165865886884,-5.291666666666668,-50.49533540648599,111.41479694410936,-123.63672999424294,92.26208266338787,-8.758620689655174,24.09743589743589,-4.535714285714294,-13.290697674418604,3.6584362139917594,-18.793721973094183,-15.429906542056067,-38.42564102564103,15.873771787750874,131.4288858679675,4.618347159529606,29.467198226542564,19.86027288658045,704.4411804144884,1
4.769558225333462,-3.7938165865886884,-5.291666666666668,-50.49533540648599,111.41479694410936,-123.63672999424294,92.26208266338787,-8.758620689655174,22.79487179487179,-4.535714285714294,-16.24418604651163,4.7037037037036935,-17.654708520179383,-20.177570093457938,-38.42564102564103,16.661877019966866,125.32835983853984,4.618347159529606,29.467198226542564,19.86027288658045,704.4411804144884,1
4.769558225333462,-3.7938165865886884,-5.291666666666668,-50.49533540648599,111.41479694410936,-123.63672999424294,92.26208266338787,-15.327586206896555,20.189743589743582,-4.535714285714294,-13.290697674418604,3.6584362139917594,-18.793721973094183,-16.616822429906534,-35.820512820512825,16.029154399284792,101.44596219719377,4.618347159529606,29.467198226542564,19.86027288658045,704.4411804144884,1
6.019014284362883,-2.095884687695854,-5.146689497716896,-50.89027099067084,111.45564937675914,-123.78295912492804,91.25309751253192,-15.327586206896555,20.189743589743582,-4.535714285714294,-13.290697674418604,3.6584362139917594,-18.793721973094183,-16.616822429906534,-35.820512820512825,16.029154399284792,101.44596219719377,4.420529489925211,33.30532271078636,19.377615058694534,747.1124654125532,1
6.019014284362883,-2.095884687695854,-5.146689497716896,-50.89027099067084,111.45564937675914,-123.78295912492804,91.25309751253192,-19.706896551724142,12.374358974358968,-20.410714285714292,-14.767441860465116,6.794238683127562,-17.654708520179383,-16.616822429906534,-38.42564102564103,18.34385279138963,84.95496210554612,4.420529489925211,33.30532271078636,19.377615058694534,747.1124654125532,1
6.019014284362883,-2.095884687695854,-5.146689497716896,-50.89027099067084,111.45564937675914,-123.78295912492804,91.25309751253192,-10.948275862068968,14.979487179487172,-4.535714285714294,-14.767441860465116,8.88477366255143,-19.93273542600898,-17.803738317757002,-41.03076923076923,16.610366978102775,121.77368012458643,4.420529489925211,33.30532271078636,19.377615058694534,747.1124654125532,1
6.019014284362883,-0.9285565072070288,-4.9835901826484035,-51.05952909817859,111.45564937675914,-123.91456534254462,90.31618272959426,-10.948275862068968,14.979487179487172,-4.535714285714294,-14.767441860465116,8.88477366255143,-19.93273542600898,-17.803738317757002,-41.03076923076923,16.610366978102775,121.77368012458643,3.9770536580727716,30.961557178389274,18.99055859601134,775.4249763288956,1
6.019014284362883,-0.9285565072070288,-4.9835901826484035,-51.05952909817859,111.45564937675914,-123.91456534254462,90.31618272959426,-10.948275862068968,24.09743589743589,-13.607142857142865,-13.290697674418604,2.6131687242798254,-25.62780269058297,-15.429906542056067,-39.72820512820513,18.167829422023793,128.830450780399,3.9770536580727716,30.961557178389274,18.99055859601134,775.4249763288956,1
6.019014284362883,-0.9285565072070288,-4.9835901826484035,-51.05952909817859,111.45564937675914,-123.91456534254462,90.31618272959426,-15.327586206896555,18.88717948717948,-4.535714285714294,-8.86046511627907,4.7037037037036935,-17.654708520179383,-18.99065420560747,-43.63589743589744,16.574488620182173,155.9402376518101,3.9770536580727716,30.961557178389274,18.99055859601134,775.4249763288956,1
6.59568631160723,1.6714017129726235,-4.929223744292239,-51.22878720568633,111.51692802573382,-123.94381116868163,89.52340868249314,-15.327586206896555,18.88717948717948,-4.535714285714294,-8.86046511627907,4.7037037037036935,-17.654708520179383,-18.99065420560747,-43.63589743589744,16.574488620182173,155.9402376518101,4.398770589624031,33.44006450533595,19.276470887650397,768.366239662807,1
6.59568631160723,1.6714017129726235,-4.929223744292239,-51.22878720568633,111.51692802573382,-123.94381116868163,89.52340868249314,-15.327586206896555,12.374358974358968,-18.142857142857153,-11.813953488372093,6.794238683127562,-16.515695067264584,-18.99065420560747,-39.72820512820513,17.46094361208619,96.51729991370482,4.398770589624031,33.44006450533595,19.276470887650397,768.366239662807,1
6.59568631160723,1.6714017129726235,-4.929223744292239,-51.22878720568633,111.51692802573382,-123.94381116868163,89.52340868249314,-15.327586206896555,18.88717948717948,-20.410714285714292,-10.337209302325581,6.794238683127562,-17.654708520179383,-17.803738317757002,-38.42564102564103,18.20512697860261,87.8651162574239,4.398770589624031,33.44006450533595,19.276470887650397,768.366239662807,1
5.1299782423611795,3.4223939837058595,-4.421803652968038,-50.833851621501594,111.37394451145957,-123.97305699481865,88.82672845928309,-15.327586206896555,18.88717948717948,-20.410714285714292,-10.337209302325581,6.794238683127562,-17.654708520179383,-17.803738317757002,-38.42564102564103,18.20512697860261,87.8651162574239,4.324725293011692,25.947302989924466,19.559349752725165,733.820555276829,1
5.1299782423611795,3.4223939837058595,-4.421803652968038,-50.833851621501594,111.37394451145957,-123.97305699481865,88.82672845928309,-21.896551724137936,20.189743589743582,-18.142857142857153,-16.24418604651163,6.794238683127562,-14.23766816143499,-17.803738317757002,-38.42564102564103,19.21682808640136,81.17222512940786,4.324725293011692,25.947302989924466,19.559349752725165,733.820555276829,1
5.1299782423611795,3.4223939837058595,-4.421803652968038,-50.833851621501594,111.37394451145957,-123.97305699481865,88.82672845928309,-8.758620689655174,24.09743589743589,-13.607142857142865,-13.290697674418604,5.748971193415628,-18.793721973094183,-15.429906542056067,-38.42564102564103,17.269017231607428,104.90167785314861,4.324725293011692,25.947302989924466,19.559349752725165,733.820555276829,1
4.745530224198282,4.961144767077491,-4.385559360730595,-50.156819191470504,111.1492561318858,-123.98767990788716,88.27418897190958,-8.758620689655174,24.09743589743589,-13.607142857142865,-13.290697674418604,5.748971193415628,-18.793721973094183,-15.429906542056067,-38.42564102564103,17.269017231607428,104.90167785314861,4.697411450668789,28.46402744864706,19.834507773092863,689.6647519548062,1
4.745530224198282,4.961144767077491,-4.385559360730595,-50.156819191470504,111.1492561318858,-123.98767990788716,88.27418897190958,-21.896551724137936,12.374358974358968,-18.142857142857153,-11.813953488372093,4.7037037037036935,-19.93273542600898,-16.616822429906534,-42.333333333333336,18.47678952783484,122.55016551315673,4.697411450668789,28.46402744864706,19.834507773092863,689.6647519548062,1
4.745530224198282,4.961144767077491,-4.385559360730595,-50.156819191470504,111.1492561318858,-123.98767990788716,88.27418897190958,-13.137931034482762,14.979487179487172,-20.410714285714292,-13.290697674418604,5.748971193415628,-19.93273542600898,-17.803738317757002,-39.72820512820513,18.1290600299362,98.08508884896733,4.697411450668789,28.46402744864706,19.834507773092863,689.6647519548062,1
5.202062245766723,6.552955922289524,-4.657391552511417,-49.64904486894716,111.02669883393645,-123.95843408175014,87.79371985245437,-13.137931034482762,14.979487179487172,-20.410714285714292,-13.290697674418604,5.748971193415628,-19.93273542600898,-17.803738317757002,-39.72820512820513,18.1290600299362,98.08508884896733,5.470803240189221,37.45093890523773,20.2864641145827,647.5191524874236,1
5.202062245766723,6.552955922289524,-4.657391552511417,-49.64904486894716,111.02669883393645,-123.95843408175014,87.79371985245437,-13.137931034482762,18.88717948717948,-6.803571428571437,-11.813953488372093,4.7037037037036935,-19.93273542600898,-20.177570093457938,-39.72820512820513,16.89810622374769,119.38918544929003,5.470803240189221,37.45093890523773,20.2864641145827,647.5191524874236,1
5.202062245766723,6.552955922289524,-4.657391552511417,-49.64904486894716,111.02669883393645,-123.95843408175014,87.79371985245437,-10.948275862068968,17.58461538461538,-11.339285714285722,-10.337209302325581,5.748971193415628,-18.793721973094183,-15.429906542056067,-37.12307692307692,15.913132861867307,91.59398156136172,5.470803240189221,37.45093890523773,20.2864641145827,647.5191524874236,1
4.985810235550093,8.78149153958637,-4.639269406392695,-48.85917370057757,110.88371531966223,-123.81220495106506,87.36129764494467,-10.948275862068968,17.58461538461538,-11.339285714285722,-10.337209302325581,5.748971193415628,-18.793721973094183,-15.429906542056067,-37.12307692307692,15.913132861867307,91.59398156136172,6.135523727176387,47.86102984077815,20.759978215518878,596.463091230837,1
4.985810235550093,8.78149153958637,-4.639269406392695,-48.85917370057757,110.88371531966223,-123.81220495106506,87.36129764494467,-13.137931034482762,16.282051282051274,-15.875000000000007,-11.813953488372093,4.7037037037036935,-17.654708520179383,-21.364485981308405,-42.333333333333336,17.89564591792887,121.37547701512622,6.135523727176387,47.86102984077815,20.759978215518878,596.463091230837,1
4.985810235550093,8.78149153958637,-4.639269406392695,-48.85917370057757,110.88371531966223,-123.81220495106506,87.36129764494467,-13.137931034482762,20.189743589743582,-13.607142857142865,-11.813953488372093,4.7037037037036935,-18.793721973094183,-17.803738317757002,-39.72820512820513,17.472267511562663,104.7637072588254,6.135523727176387,47.86102984077815,20.759978215518878,596.463091230837,1
4.913726232144549,10.79778566952161,-4.94734589041096,-48.01288316303862,110.80201045436269,-123.5636154289004,86.90485198146222,-13.137931034482762,20.189743589743582,-13.607142857142865,-11.813953488372093,4.7037037037036935,-18.793721973094183,-17.803738317757002,-39.72820512820513,17.472267511562663,104.7637072588254,6.886285930692374,63.29534445140204,21.25267157432373,545.638604606843,1
4.913726232144549,10.79778566952161,-4.94734589041096,-48.01288316303862,110.80201045436269,-123.5636154289004,86.90485198146222,-10.948275862068968,16.282051282051274,-18.142857142857153,-14.767441860465116,6.794238683127562,-18.793721973094183,-14.242990654205599,-37.12307692307692,17.136831797618346,80.45625687578399,6.886285930692374,63.29534445140204,21.25267157432373,545.638604606843,1
4.913726232144549,10.79778566952161,-4.94734589041096,-48.01288316303862,110.80201045436269,-123.5636154289004,86.90485198146222,-15.327586206896555,14.979487179487172,-18.142857142857153,-16.24418604651163,3.6584362139917594,-22.210762331838577,-18.99065420560747,-39.72820512820513,18.66027180692443,101.76973974323558,6.886285930692374,63.29534445140204,21.25267157432373,545.638604606843,1
5.154006243496362,12.283476081052841,-5.418521689497719,-47.279431363838285,110.82243667068758,-123.2272884283247,86.44840631797976,-15.327586206896555,14.979487179487172,-18.142857142857153,-16.24418604651163,3.6584362139917594,-22.210762331838577,-18.99065420560747,-39.72820512820513,18.66027180692443,101.76973974323558,7.6186680046823065,79.32806868785745,21.660476378129616,504.0300406193583,1
5.154006243496362,12.283476081052841,-5.418521689497719,-47.279431363838285,110.82243667068758,-123.2272884283247,86.44840631797976,-13.137931034482762,21.492307692307687,-22.678571428571438,-14.767441860465116,5.748971193415628,-17.654708520179383,-18.99065420560747,-35.820512820512825,18.78638734444279,75.99802227198055,7.6186680046823065,79.32806868785745,21.660476378129616,504.0300406193583,1
5.154006243496362,12.283476081052841,-5.418521689497719,-47.279431363838285,110.82243667068758,-123.2272884283247,86.44840631797976,-17.51724137931035,14.979487179487172,-18.142857142857153,-7.383720930232558,5.748971193415628,-18.793721973094183,-18.99065420560747,-39.72820512820513,17.660607391526206,106.42497707606674,7.6186680046823065,79.32806868785745,21.660476378129616,504.0300406193583,1
5.466370258253717,14.299770210988083,-5.327910958904111,-46.43314082629945,110.86328910333734,-122.84709268854347,86.20817175825216,-17.51724137931035,14.979487179487172,-18.142857142857153,-7.383720930232558,5.748971193415628,-18.793721973094183,-18.99065420560747,-39.72820512820513,17.660607391526206,106.42497707606674,8.36468380938197,96.63188830449909,22.02027399873055,467.1146146652618,1
5.466370258253717,14.299770210988083,-5.327910958904111,-46.43314082629945,110.86328910333734,-122.84709268854347,86.20817175825216,-19.706896551724142,11.071794871794864,-27.214285714285722,-29.53488372093023,1.5679012345678913,-19.93273542600898,-16.616822429906534,-38.42564102564103,20.508870121857424,130.1977170103544,8.36468380938197,96.63188830449909,22.02027399873055,467.1146146652618,1
5.466370258253717,14.299770210988083,-5.327910958904111,-46.43314082629945,110.86328910333734,-122.84709268854347,86.20817175825216,-15.327586206896555,22.79487179487179,-11.339285714285722,-10.337209302325581,4.7037037037036935,-17.654708520179383,-15.429906542056067,-41.03076923076923,17.327255126886,120.50397355959338,8.36468380938197,96.63188830449909,22.02027399873055,467.1146146652618,1
5.898874278686977,15.360977647796103,-4.892979452054796,-45.643269657929864,110.90414153598712,-122.46689694876223,86.06403102241559,-15.327586206896555,22.79487179487179,-11.339285714285722,-10.337209302325581,4.7037037037036935,-17.654708520179383,-15.429906542056067,-41.03076923076923,17.327255126886,120.50397355959338,8.717610459512626,102.703047552672,21.96574225259359,447.8637245793486,1
5.898874278686977,15.360977647796103,-4.892979452054796,-45.643269657929864,110.90414153598712,-122.46689694876223,86.06403102241559,-13.137931034482762,21.492307692307687,-2.2678571428571512,-5.906976744186046,5.748971193415628,-17.654708520179383,-9.495327102803731,-43.63589743589744,14.917497108266229,176.18549954628332,8.717610459512626,102.703047552672,21.96574225259359,447.8637245793486,1
5.898874278686977,15.360977647796103,-4.892979452054796,-45.643269657929864,110.90414153598712,-122.46689694876223,86.06403102241559,-10.948275862068968,24.09743589743589,-2.2678571428571512,-2.953488372093023,5.748971193415628,-15.376681614349787,-17.803738317757002,-37.12307692307692,14.539940665381796,141.10391141722366,8.717610459512626,102.703047552672,21.96574225259359,447.8637245793486,1
4.769558225333462,16.793607687486933,-4.603025114155253,-44.40204353620618,110.82243667068758,-122.04283246977548,85.89586683060627,-10.948275862068968,24.09743589743589,-2.2678571428571512,-2.953488372093023,5.748971193415628,-15.376681614349787,-17.803738317757002,-37.12307692307692,14.539940665381796,141.10391141722366,8.722063675658548,115.03982986204751,21.93289211261612,415.7996501414688,1
4.769558225333462,16.793607687486933,-4.603025114155253,-44.40204353620618,110.82243667068758,-122.04283246977548,85.89586683060627,-15.327586206896555,22.79487179487179,-4.535714285714294,-5.906976744186046,5.748971193415628,-17.654708520179383,-21.364485981308405,-41.03076923076923,16.795510494667667,148.2853518328458,8.722063675658548,115.03982986204751,21.93289211261612,415.7996501414688,1
4.769558225333462,16.793607687486933,-4.603025114155253,-44.40204353620618,110.82243667068758,-122.04283246977548,85.89586683060627,-6.568965517241383,22.79487179487179,9.071428571428562,-1.4767441860465116,6.794238683127562,-16.515695067264584,-11.869158878504665,-37.12307692307692,14.026772452695248,130.16513569563222,8.722063675658548,115.03982986204751,21.93289211261612,415.7996501414688,1
5.634566266199984,16.899728431167734,-4.421803652968038,-43.49933362949798,110.84286288701244,-121.61876799078871,85.79977300671523,-6.568965517241383,22.79487179487179,9.071428571428562,-1.4767441860465116,6.794238683127562,-16.515695067264584,-11.869158878504665,-37.12307692307692,14.026772452695248,130.16513569563222,8.985366116778586,113.77369749483324,21.606955237877916,398.38182542400733,1
5.634566266199984,16.899728431167734,-4.421803652968038,-43.49933362949798,110.84286288701244,-121.61876799078871,85.79977300671523,-13.137931034482762,18.88717948717948,-4.535714285714294,-7.383720930232558,5.748971193415628,-18.793721973094183,-20.177570093457938,-34.51794871794872,15.397844714440694,98.93594555153477,8.985366116778586,113.77369749483324,21.606955237877916,398.38182542400733,1
5.634566266199984,16.899728431167734,-4.421803652968038,-43.49933362949798,110.84286288701244,-121.61876799078871,85.79977300671523,-26.27586206896552,14.979487179487172,-20.410714285714292,-25.104651162790695,3.6584362139917594,-22.210762331838577,-17.803738317757002,-42.333333333333336,21.597123111734792,120.84960653575767,8.985366116778586,113.77369749483324,21.606955237877916,398.38182542400733,1
6.3794343013906,15.201796532274901,-4.07748287671233,-42.99155930697464,110.94499396863691,-121.282440990213,85.70367918282417,-26.27586206896552,14.979487179487172,-20.410714285714292,-25.104651162790695,3.6584362139917594,-22.210762331838577,-17.803738317757002,-42.333333333333336,21.597123111734792,120.84960653575767,8.552904570125945,93.14530112207282,20.756946238653956,401.7211023002866,1
6.3794343013906,15.201796532274901,-4.07748287671233,-42.99155930697464,110.94499396863691,-121.282440990213,85.70367918282417,-15.327586206896555,17.58461538461538,-2.2678571428571512,2.953488372093023,21.42798353909464,-6.264573991031401,-13.056074766355133,-42.333333333333336,15.151939092034576,168.90648085799629,8.552904570125945,93.14530112207282,20.756946238653956,401.7211023002866,1
6.3794343013906,15.201796532274901,-4.07748287671233,-42.99155930697464,110.94499396863691,-121.282440990213,85.70367918282417,-17.51724137931035,17.58461538461538,-8.881784197001252e-15,-16.24418604651163,17.246913580246904,-15.376681614349787,-14.242990654205599,-38.42564102564103,17.079783710610084,108.4978525415125,8.552904570125945,93.14530112207282,20.756946238653956,401.7211023002866,1
6.355406300255419,15.997702109880915,-3.9325057077625587,-42.20168813860505,110.9858464012867,-120.88762233736327,85.65563227087866,-17.51724137931035,17.58461538461538,-8.881784197001252e-15,-16.24418604651163,17.246913580246904,-15.376681614349787,-14.242990654205599,-38.42564102564103,17.079783710610084,108.4978525415125,8.761871372632966,99.33803093658315,20.710631985416175,382.7913619900605,1
6.355406300255419,15.997702109880915,-3.9325057077625587,-42.20168813860505,110.9858464012867,-120.88762233736327,85.65563227087866,2.18965517241379,34.51794871794871,4.535714285714278,-1.4767441860465116,1.5679012345678913,-23.349775784753376,-18.99065420560747,-34.51794871794872,15.143292788125095,212.04091336258963,8.761871372632966,99.33803093658315,20.710631985416175,382.7913619900605,1
6.355406300255419,15.997702109880915,-3.9325057077625587,-42.20168813860505,110.9858464012867,-120.88762233736327,85.65563227087866,-15.327586206896555,20.189743589743582,-20.410714285714292,-19.19767441860465,7.839506172839496,-18.793721973094183,-18.99065420560747,-43.63589743589744,20.54818728604971,104.18327639624522,8.761871372632966,99.33803093658315,20.710631985416175,382.7913619900605,1
9.118626430801251,15.307917275955703,-4.56678082191781,-42.709462461128396,111.49650180940893,-120.49280368451353,85.58356190296038,-15.327586206896555,20.189743589743582,-20.410714285714292,-19.19767441860465,7.839506172839496,-18.793721973094183,-18.99065420560747,-43.63589743589744,20.54818728604971,104.18327639624522,9.664441509558253,103.43355288671754,20.861386853000635,386.8468089149158,1
9.118626430801251,15.307917275955703,-4.56678082191781,-42.709462461128396,111.49650180940893,-120.49280368451353,85.58356190296038,-8.758620689655174,17.58461538461538,-18.142857142857153,-23.627906976744185,6.794238683127562,-16.515695067264584,-11.869158878504665,-35.820512820512825,17.38920070541019,85.31641609706931,9.664441509558253,103.43355288671754,20.861386853000635,386.8468089149158,1
9.118626430801251,15.307917275955703,-4.56678082191781,-42.709462461128396,111.49650180940893,-120.49280368451353,85.58356190296038,-24.08620689655173,11.071794871794864,-27.214285714285722,-20.674418604651162,-5.748971193415647,-26.76681614349777,-18.99065420560747,-37.12307692307692,21.459528069110164,96.42415428149788,9.664441509558253,103.43355288671754,20.861386853000635,386.8468089149158,1
5.586510263929622,10.320242322958,-4.367437214611874,-42.709462461128396,111.72119018898269,-120.21496833621185,84.88688167975032,-24.08620689655173,11.071794871794864,-27.214285714285722,-20.674418604651162,-5.748971193415647,-26.76681614349777,-18.99065420560747,-37.12307692307692,21.459528069110164,96.42415428149788,6.758063267166499,56.20286996843073,19.13238066623276,425.7680616368874,1
5.586510263929622,10.320242322958,-4.367437214611874,-42.709462461128396,111.72119018898269,-120.21496833621185,84.88688167975032,-28.465517241379313,11.071794871794864,-29.482142857142865,-25.104651162790695,-7.839506172839515,-16.515695067264584,-22.551401869158873,-43.63589743589744,23.08332583478352,130.92491858397145,6.758063267166499,56.20286996843073,19.13238066623276,425.7680616368874,1
5.586510263929622,10.320242322958,-4.367437214611874,-42.709462461128396,111.72119018898269,-120.21496833621185,84.88688167975032,-24.08620689655173,1.953846153846147,-29.482142857142865,-4.430232558139535,-2.613168724279845,-32.461883408071756,-23.738317757009337,-41.03076923076923,19.974570948226305,226.93614109727812,6.758063267166499,56.20286996843073,19.13238066623276,425.7680616368874,1
4.793586226468644,9.948819720075193,-4.494292237442924,-42.483784984451404,111.84374748693205,-119.99562464018422,84.23824836848577,-24.08620689655173,1.953846153846147,-29.482142857142865,-4.430232558139535,-2.613168724279845,-32.461883408071756,-23.738317757009337,-41.03076923076923,19.974570948226305,226.93614109727812,6.412232727995587,53.57410029189965,18.975632313989838,421.9128989979946,1
4.793586226468644,9.948819720075193,-4.494292237442924,-42.483784984451404,111.84374748693205,-119.99562464018422,84.23824836848577,-10.948275862068968,20.189743589743582,-4.535714285714294,10.337209302325583,12.020576131687232,-24.488789237668172,-26.112149532710273,-44.93846153846154,19.196364935047455,164.63177208344956,6.412232727995587,53.57410029189965,18.975632313989838,421.9128989979946,1
4.793586226468644,9.948819720075193,-4.494292237442924,-42.483784984451404,111.84374748693205,-119.99562464018422,84.23824836848577,-13.137931034482762,28.005128205128198,11.339285714285705,38.3953488372093,28.744855967078177,-0.5695067264574121,-7.121495327102796,-37.12307692307692,20.55457859185266,205.0255228849554,6.412232727995587,53.57410029189965,18.975632313989838,421.9128989979946,1
-2.1264781004635296,8.675370795905566,-4.240582191780823,-40.17059084851178,111.10840369923602,-119.90788716177317,83.27731012957534,-13.137931034482762,28.005128205128198,11.339285714285705,38.3953488372093,28.744855967078177,-0.5695067264574121,-7.121495327102796,-37.12307692307692,20.55457859185266,205.0255228849554,5.014143696049973,47.995202878173295,17.695514612066056,383.76362636635406,1
-2.1264781004635296,8.675370795905566,-4.240582191780823,-40.17059084851178,111.10840369923602,-119.90788716177317,83.27731012957534,-2.1896551724137954,24.09743589743589,2.2678571428571352,4.4302325581395365,32.92592592592591,-10.820627802690595,-3.5607476635513944,-29.30769230769231,13.70002180883832,168.7926712990468,5.014143696049973,47.995202878173295,17.695514612066056,383.76362636635406,1
-2.1264781004635296,8.675370795905566,-4.240582191780823,-40.17059084851178,111.10840369923602,-119.90788716177317,83.27731012957534,-17.51724137931035,14.979487179487172,-20.410714285714292,-26.58139534883721,-3.658436213991779,-27.905829596412566,-26.112149532710273,-35.820512820512825,21.623220794622057,95.8528815315557,5.014143696049973,47.995202878173295,17.695514612066056,383.76362636635406,1
-3.4960741651688547,12.495717568414445,-3.986872146118723,-36.841848067525575,110.06666666666666,-119.74703511801957,82.60465336233804,-17.51724137931035,14.979487179487172,-20.410714285714292,-26.58139534883721,-3.658436213991779,-27.905829596412566,-26.112149532710273,-35.820512820512825,21.623220794622057,95.8528815315557,6.659554626567341,87.94234153434036,17.774812594019583,290.76399391608265,1
-3.4960741651688547,12.495717568414445,-3.986872146118723,-36.841848067525575,110.06666666666666,-119.74703511801957,82.60465336233804,-19.706896551724142,26.702564102564097,9.071428571428562,14.767441860465116,45.469135802469125,-10.820627802690595,-13.056074766355133,-42.333333333333336,22.740937848878765,201.66504555594614,6.659554626567341,87.94234153434036,17.774812594019583,290.76399391608265,1
-3.4960741651688547,12.495717568414445,-3.986872146118723,-36.841848067525575,110.06666666666666,-119.74703511801957,82.60465336233804,-17.51724137931035,14.979487179487172,-13.607142857142865,-10.337209302325581,13.065843621399166,-22.210762331838577,-21.364485981308405,-46.241025641025644,19.91539978672972,129.8533959648317,6.659554626567341,87.94234153434036,17.774812594019583,290.76399391608265,1
-2.270646107274615,15.997702109880915,-3.2076198630137,-33.62594402487787,109.0453558504222,-119.57156016119747,82.41246571455595,-17.51724137931035,14.979487179487172,-13.607142857142865,-10.337209302325581,13.065843621399166,-22.210762331838577,-21.364485981308405,-46.241025641025644,19.91539978672972,129.8533959648317,7.158656026723077,117.2424764141237,17.610421999257493,233.26926028525546,1
-2.270646107274615,15.997702109880915,-3.2076198630137,-33.62594402487787,109.0453558504222,-119.57156016119747,82.41246571455595,-19.706896551724142,12.374358974358968,-9.07142857142858,-1.4767441860465116,-3.658436213991779,-18.793721973094183,-4.74766355140186,-42.333333333333336,14.020322919422423,176.3774349667694,7.158656026723077,117.2424764141237,17.610421999257493,233.26926028525546,1
-2.270646107274615,15.997702109880915,-3.2076198630137,-33.62594402487787,109.0453558504222,-119.57156016119747,82.41246571455595,-2.1896551724137954,18.88717948717948,-22.678571428571438,-31.01162790697674,-60.10288065843622,-14.23766816143499,-30.85981308411214,-43.63589743589744,27.950411666877777,322.74882488471036,7.158656026723077,117.2424764141237,17.610421999257493,233.26926028525546,1
-3.952606186737297,18.438479214539367,-2.537100456621006,-30.071523767214558,107.90148773622838,-119.39608520437535,82.29234843469214,-2.1896551724137954,18.88717948717948,-22.678571428571438,-31.01162790697674,-60.10288065843622,-14.23766816143499,-30.85981308411214,-43.63589743589744,27.950411666877777,322.74882488471036,8.30939528596589,157.22321741007556,17.01570114612498,191.05433983571012,1
-3.952606186737297,18.438479214539367,-2.537100456621006,-30.071523767214558,107.90148773622838,-119.39608520437535,82.29234843469214,-2.1896551724137954,14.979487179487172,-11.339285714285722,-25.104651162790695,-32.92592592592593,-38.15695067264575,-24.925233644859805,-14.97948717948718,20.575084581487005,141.00735475613016,8.30939528596589,157.22321741007556,17.01570114612498,191.05433983571012,1
-3.952606186737297,18.438479214539367,-2.537100456621006,-30.071523767214558,107.90148773622838,-119.39608520437535,82.29234843469214,-19.706896551724142,14.979487179487172,-43.08928571428572,-103.37209302325581,-7.839506172839515,-19.93273542600898,-21.364485981308405,-54.05641025641026,35.542612538165,983.7590097977014,8.30939528596589,157.22321741007556,17.01570114612498,191.05433983571012,1
-10.872670513669469,21.834343012325036,-3.1532534246575357,-24.76810306530433,106.14483313228789,-119.1474956822107,81.90797313912798,-19.706896551724142,14.979487179487172,-43.08928571428572,-103.37209302325581,-7.839506172839515,-19.93273542600898,-21.364485981308405,-54.05641025641026,35.542612538165,983.7590097977014,11.953422316884014,292.28635161353685,16.585233167428967,137.46529686978084,1
-10.872670513669469,21.834343012325036,-3.1532534246575357,-24.76810306530433,106.14483313228789,-119.1474956822107,81.90797313912798,-6.568965517241383,22.79487179487179,18.142857142857135,14.767441860465116,-17.246913580246922,-31.32286995515696,1.1869158878504749,-30.61025641025641,17.830136518618275,111.95181763397477,11.953422316884014,292.28635161353685,16.585233167428967,137.46529686978084,1
-10.872670513669469,21.834343012325036,-3.1532534246575357,-24.76810306530433,106.14483313228789,-119.1474956822107,81.90797313912798,-2.1896551724137954,21.492307692307687,-9.07142857142858,-2.953488372093023,41.28806584362138,-29.044843049327365,-15.429906542056067,-18.887179487179488,17.544609341303424,176.90515826267261,11.953422316884014,292.28635161353685,16.585233167428967,137.46529686978084,1
-13.972282660107837,17.536452893252548,-3.9687500000000013,-18.44913371834741,103.87752312022516,-119.03051237766263,81.21129291591791,-2.1896551724137954,21.492307692307687,-9.07142857142858,-2.953488372093023,41.28806584362138,-29.044843049327365,-15.429906542056067,-18.887179487179488,17.544609341303424,176.90515826267261,11.825828517786796,259.22413888889974,13.318112203866653,65.76617678644169,1
-13.972282660107837,17.536452893252548,-3.9687500000000013,-18.44913371834741,103.87752312022516,-119.03051237766263,81.21129291591791,-21.896551724137936,9.769230769230763,-40.821428571428584,-62.02325581395348,5.748971193415628,-22.210762331838577,-18.99065420560747,-21.492307692307694,25.369145287740018,326.90782125770414,11.825828517786796,259.22413888889974,13.318112203866653,65.76617678644169,1
-13.972282660107837,17.536452893252548,-3.9687500000000013,-18.44913371834741,103.87752312022516,-119.03051237766263,81.21129291591791,-13.137931034482762,22.79487179487179,-11.339285714285722,-11.813953488372093,52.78600823045266,8.542600896860975,-9.495327102803731,-57.96410256410257,23.484260103279038,408.2305209426983,11.825828517786796,259.22413888889974,13.318112203866653,65.76617678644169,1
-10.175858480749216,15.997702109880915,-4.113727168949773,-12.920035539760079,101.8553277040611,-118.89890616004605,80.70680034048993,-13.137931034482762,22.79487179487179,-11.339285714285722,-11.813953488372093,52.78600823045266,8.542600896860975,-9.495327102803731,-57.96410256410257,23.484260103279038,408.2305209426983,10.095762586526634,187.71238294504903,11.01048827286359,38.041993172553724,1
-10.175858480749216,15.997702109880915,-4.113727168949773,-12.920035539760079,101.8553277040611,-118.89890616004605,80.70680034048993,-10.948275862068968,26.702564102564097,-2.2678571428571512,-5.906976744186046,14.1111111111111,-14.23766816143499,-21.364485981308405,-41.03076923076923,17.071213542037498,154.75950089670556,10.095762586526634,187.71238294504903,11.01048827286359,38.041993172553724,1
-10.175858480749216,15.997702109880915,-4.113727168949773,-12.920035539760079,101.8553277040611,-118.89890616004605,80.70680034048993,-8.758620689655174,13.676923076923071,-27.214285714285722,-13.290697674418604,-1.5679012345679109,-9.681614349775796,-8.308411214953264,-24.0974358974359,13.324486231501929,72.37203866113717,10.095762586526634,187.71238294504903,11.01048827286359,38.041993172553724,1
-4.577334216252007,15.414038019636504,-5.69035388127854,-8.801421590404289,100.5276236429433,-118.60644789867588,80.25035467700748,-8.758620689655174,13.676923076923071,-27.214285714285722,-13.290697674418604,-1.5679012345679109,-9.681614349775796,-8.308411214953264,-24.0974358974359,13.324486231501929,72.37203866113717,8.560575372389017,141.04818902599968,9.968604497106444,24.659245258911834,1
-4.577334216252007,15.414038019636504,-5.69035388127854,-8.801421590404289,100.5276236429433,-118.60644789867588,80.25035467700748,-15.327586206896555,17.58461538461538,-24.94642857142858,-7.383720930232558,1.5679012345678913,-8.542600896860998,-32.04672897196261,-59.266666666666666,20.833281107903904,337.6796252252414,8.560575372389017,141.04818902599968,9.968604497106444,24.659245258911834,1
-4.577334216252007,15.414038019636504,-5.69035388127854,-8.801421590404289,100.5276236429433,-118.60644789867588,80.25035467700748,-28.465517241379313,13.676923076923071,-15.875000000000007,20.674418604651166,62.19341563786007,-0.5695067264574121,-5.934579439252328,-48.84615384615385,24.529439321584654,450.3936034513255,8.560575372389017,141.04818902599968,9.968604497106444,24.659245258911834,1
0.9491060448396587,13.23856277418006,-6.252140410958906,-6.657485561972521,99.9352633695215,-118.27012089810017,79.76988555755226,-28.465517241379313,13.676923076923071,-15.875000000000007,20.674418604651166,62.19341563786007,-0.5695067264574121,-5.934579439252328,-48.84615384615385,24.529439321584654,450.3936034513255,6.813269743326209,97.1293679784446,8.716062915703828,15.380829900300713,1
0.9491060448396587,13.23856277418006,-6.252140410958906,-6.657485561972521,99.9352633695215,-118.27012089810017,79.76988555755226,-24.08620689655173,12.374358974358968,-24.94642857142858,-50.20930232558139,-23.518518518518526,-16.515695067264584,-20.177570093457938,-48.84615384615385,27.584279286664447,201.19981833749702,6.813269743326209,97.1293679784446,8.716062915703828,15.380829900300713,1
0.9491060448396587,13.23856277418006,-6.252140410958906,-6.657485561972521,99.9352633695215,-118.27012089810017,79.76988555755226,-15.327586206896555,13.676923076923071,-2.2678571428571512,0.0,-14.111111111111121,-24.488789237668172,-17.803738317757002,-28.00512820512821,14.46014166229266,93.49361194909167,6.813269743326209,97.1293679784446,8.716062915703828,15.380829900300713,1
7.797086368366288,8.569250052224765,-4.458047945205481,-6.713904931141769,100.03739445114596,-118.19700633275762,79.6257448217157,-15.327586206896555,13.676923076923071,-2.2678571428571512,0.0,-14.111111111111121,-24.488789237668172,-17.803738317757002,-28.00512820512821,14.46014166229266,93.49361194909167,6.941461455265511,53.41584115203403,6.580400976190671,4.23886317068064,1
7.797086368366288,8.569250052224765,-4.458047945205481,-6.713904931141769,100.03739445114596,-118.19700633275762,79.6257448217157,-15.327586206896555,24.09743589743589,-43.08928571428572,-32.48837209302326,8.88477366255143,-10.820627802690595,-17.803738317757002,-42.333333333333336,24.355644128496724,183.90462447836438,6.941461455265511,53.41584115203403,6.580400976190671,4.23886317068064,1
7.797086368366288,8.569250052224765,-4.458047945205481,-6.713904931141769,100.03739445114596,-118.19700633275762,79.6257448217157,-26.27586206896552,8.46666666666666,-27.214285714285722,-20.674418604651162,-5.748971193415647,-21.071748878923778,-21.364485981308405,-43.63589743589744,21.806542068014295,137.65059495129768,6.941461455265511,53.41584115203403,6.580400976190671,4.23886317068064,1
7.172358338851578,4.536661792354282,-3.878139269406394,-6.713904931141769,99.9148371531966,-118.35785837651123,79.5056275418519,-26.27586206896552,8.46666666666666,-27.214285714285722,-20.674418604651162,-5.748971193415647,-21.071748878923778,-21.364485981308405,-43.63589743589744,21.806542068014295,137.65059495129768,5.195719800204085,33.31154509739025,5.042901997634149,2.2026010811507186,1
7.172358338851578,4.536661792354282,-3.878139269406394,-6.713904931141769,99.9148371531966,-118.35785837651123,79.5056275418519,-30.655172413793107,4.558974358974352,-36.28571428571429,-25.104651162790695,-6.794238683127581,-24.488789237668172,-20.177570093457938,-34.51794871794872,22.822882369184356,140.69061903366315,5.195719800204085,33.31154509739025,5.042901997634149,2.2026010811507186,1
7.172358338851578,4.536661792354282,-3.878139269406394,-6.713904931141769,99.9148371531966,-118.35785837651123,79.5056275418519,-4.379310344827589,24.09743589743589,4.535714285714278,8.86046511627907,3.6584362139917594,-13.09865470852019,-15.429906542056067,-31.912820512820517,13.24659295270567,105.23379470476736,5.195719800204085,33.31154509739025,5.042901997634149,2.2026010811507186,1
8.493898401286541,0.4510131606433987,-2.7726883561643847,-7.165259884495754,99.75142742259749,-118.73805411629246,79.43355717393361,-4.379310344827589,24.09743589743589,4.535714285714278,8.86046511627907,3.6584362139917594,-13.09865470852019,-15.429906542056067,-31.912820512820517,13.24659295270567,105.23379470476736,3.9058666393647754,33.66937193779878,3.4629871337678453,11.627661568961145,1
8.493898401286541,0.4510131606433987,-2.7726883561643847,-7.165259884495754,99.75142742259749,-118.73805411629246,79.43355717393361,13.137931034482754,52.75384615384615,13.607142857142847,4.4302325581395365,26.65432098765431,-13.09865470852019,-11.869158878504665,-38.42564102564103,21.747116025491437,268.04182470506504,3.9058666393647754,33.66937193779878,3.4629871337678453,11.627661568961145,1
8.493898401286541,0.4510131606433987,-2.7726883561643847,-7.165259884495754,99.75142742259749,-118.73805411629246,79.43355717393361,-13.137931034482762,21.492307692307687,-9.07142857142858,-2.953488372093023,7.839506172839496,-9.681614349775796,-9.495327102803731,-31.912820512820517,13.198052976068949,85.1157823071148,3.9058666393647754,33.66937193779878,3.4629871337678453,11.627661568961145,1
14.2846466748652,-5.491748485481523,-1.0692066210045676,-9.591292758773875,100.1190993164455,-119.4545768566494,79.72183864560674,-13.137931034482762,21.492307692307687,-9.07142857142858,-2.953488372093023,7.839506172839496,-9.681614349775796,-9.495327102803731,-31.912820512820517,13.198052976068949,85.1157823071148,6.948533927117097,107.7342488520546,5.384082621753322,18.1651819885492,1
14.2846466748652,-5.491748485481523,-1.0692066210045676,-9.591292758773875,100.1190993164455,-119.4545768566494,79.72183864560674,-15.327586206896555,18.88717948717948,9.071428571428562,1.4767441860465116,7.839506172839496,-33.60089686098656,-27.29906542056074,-51.45128205128205,20.619211119652494,265.40980350102876,6.948533927117097,107.7342488520546,5.384082621753322,18.1651819885492,1
14.2846466748652,-5.491748485481523,-1.0692066210045676,-9.591292758773875,100.1190993164455,-119.4545768566494,79.72183864560674,-19.706896551724142,14.979487179487172,-8.881784197001252e-15,7.383720930232556,24.56378600823044,-17.654708520179383,-15.429906542056067,-42.333333333333336,17.756479883155386,155.74099470106344,6.948533927117097,107.7342488520546,5.384082621753322,18.1651819885492,1
18.537602875792267,-10.956966785042834,-0.9785958904109604,-13.653487338960417,100.9361479694411,-120.34657455382843,79.96207320533435,-19.706896551724142,14.979487179487172,-8.881784197001252e-15,7.383720930232556,24.56378600823044,-17.654708520179383,-15.429906542056067,-42.333333333333336,17.756479883155386,155.74099470106344,10.157721850415355,225.06325657844056,8.52968333813807,44.58199700684143,1
18.537602875792267,-10.956966785042834,-0.9785958904109604,-13.653487338960417,100.9361479694411,-120.34657455382843,79.96207320533435,-26.27586206896552,4.558974358974352,-34.01785714285715,-25.104651162790695,7.839506172839496,-18.793721973094183,-11.869158878504665,-28.00512820512821,19.55810749539428,111.19038853770758,10.157721850415355,225.06325657844056,8.52968333813807,44.58199700684143,1
18.537602875792267,-10.956966785042834,-0.9785958904109604,-13.653487338960417,100.9361479694411,-120.34657455382843,79.96207320533435,-2.1896551724137954,34.51794871794871,-8.881784197001252e-15,-20.674418604651162,-23.518518518518526,-21.071748878923778,-20.177570093457938,-29.30769230769231,18.93219403670078,145.64366673773617,10.157721850415355,225.06325657844056,8.52968333813807,44.58199700684143,1
17.792734840601646,-11.222268644244838,-1.957191780821919,-17.884940026654817,101.81447527141134,-121.23857225100748,80.1062139411709,-2.1896551724137954,34.51794871794871,-8.881784197001252e-15,-20.674418604651162,-23.518518518518526,-21.071748878923778,-20.177570093457938,-29.30769230769231,18.93219403670078,145.64366673773617,10.324065088556134,219.62861301040058,10.354800150573858,63.9876672362921,1
17.792734840601646,-11.222268644244838,-1.957191780821919,-17.884940026654817,101.81447527141134,-121.23857225100748,80.1062139411709,-26.27586206896552,3.2564102564102484,-8.881784197001252e-15,-39.872093023255815,-17.246913580246922,-24.488789237668172,-16.616822429906534,-52.753846153846155,22.56384209378742,310.57672501081237,10.324065088556134,219.62861301040058,10.354800150573858,63.9876672362921,1
17.792734840601646,-11.222268644244838,-1.957191780821919,-17.884940026654817,101.81447527141134,-121.23857225100748,80.1062139411709,-17.51724137931035,18.88717948717948,-31.750000000000007,-28.058139534883722,-8.88477366255145,-26.76681614349777,-22.551401869158873,-37.12307692307692,23.942328624957323,79.30148639898927,10.324065088556134,219.62861301040058,10.354800150573858,63.9876672362921,1
18.297322864440453,-8.569250052224785,-1.214183789954339,-22.511328298533954,102.73365500603134,-122.21830742659758,80.63472997257165,-17.51724137931035,18.88717948717948,-31.750000000000007,-28.058139534883722,-8.88477366255145,-26.76681614349777,-22.551401869158873,-37.12307692307692,23.942328624957323,79.30148639898927,9.360252235539859,192.76810532222854,10.764920713571025,117.00781829465319,1
18.297322864440453,-8.569250052224785,-1.214183789954339,-22.511328298533954,102.73365500603134,-122.21830742659758,80.63472997257165,4.379310344827584,25.39999999999999,-9.07142857142858,-7.383720930232558,13.065843621399166,-10.820627802690595,-16.616822429906534,-31.912820512820517,14.831321776663192,89.1075459126813,9.360252235539859,192.76810532222854,10.764920713571025,117.00781829465319,1
18.297322864440453,-8.569250052224785,-1.214183789954339,-22.511328298533954,102.73365500603134,-122.21830742659758,80.63472997257165,-21.896551724137936,14.979487179487172,-18.142857142857153,-8.86046511627907,17.246913580246904,-21.071748878923778,-28.48598130841121,-41.03076923076923,21.464346770139056,94.60277806195435,9.360252235539859,192.76810532222854,10.764920713571025,117.00781829465319,1
14.308674676000381,-6.0754125757259345,0.8517408675799079,-26.12216792536651,103.22388419782871,-123.2419113413932,81.16324600397239,-21.896551724137936,14.979487179487172,-18.142857142857153,-8.86046511627907,17.246913580246904,-21.071748878923778,-28.48598130841121,-41.03076923076923,21.464346770139056,94.60277806195435,7.078609373102073,107.4309225728842,11.016440456224117,177.9589383076236,1
14.308674676000381,-6.0754125757259345,0.8517408675799079,-26.12216792536651,103.22388419782871,-123.2419113413932,81.16324600397239,-26.27586206896552,5.861538461538455,-20.410714285714292,13.290697674418603,36.061728395061714,-13.09865470852019,-22.551401869158873,-50.14871794871795,23.46241442651195,201.3745693335273,7.078609373102073,107.4309225728842,11.016440456224117,177.9589383076236,1
14.308674676000381,-6.0754125757259345,0.8517408675799079,-26.12216792536651,103.22388419782871,-123.2419113413932,81.16324600397239,-19.706896551724142,9.769230769230763,-22.678571428571438,-5.906976744186046,18.292181069958836,-13.09865470852019,-10.682242990654197,-39.72820512820513,17.482869923881342,112.34613330092839,7.078609373102073,107.4309225728842,11.016440456224117,177.9589383076236,1
6.259294295714694,-2.308126175057458,1.9571917808219164,-27.081297201243956,102.69280257338158,-124.26551525618883,81.57164475550933,-19.706896551724142,9.769230769230763,-22.678571428571438,-5.906976744186046,18.292181069958836,-13.09865470852019,-10.682242990654197,-39.72820512820513,17.482869923881342,112.34613330092839,3.508204083864689,18.350286139399916,10.44887171904111,207.50897180303733,1
6.259294295714694,-2.308126175057458,1.9571917808219164,-27.081297201243956,102.69280257338158,-124.26551525618883,81.57164475550933,-21.896551724137936,-7.164102564102571,-27.214285714285722,-14.767441860465116,-14.111111111111121,-19.93273542600898,-17.803738317757002,-34.51794871794872,19.675989429477145,71.03154698602215,3.508204083864689,18.350286139399916,10.44887171904111,207.50897180303733,1
6.259294295714694,-2.308126175057458,1.9571917808219164,-27.081297201243956,102.69280257338158,-124.26551525618883,81.57164475550933,-8.758620689655174,22.79487179487179,-4.535714285714294,-35.44186046511628,-10.975308641975317,-23.349775784753376,-21.364485981308405,-42.333333333333336,21.194246372090998,170.52442299066732,3.508204083864689,18.350286139399916,10.44887171904111,207.50897180303733,1
4.529278213981652,-0.7693753916858252,1.1416952054794507,-27.194135939582452,101.91660635303577,-125.18675877950488,81.98004350704626,-8.758620689655174,22.79487179487179,-4.535714285714294,-35.44186046511628,-10.975308641975317,-23.349775784753376,-21.364485981308405,-42.333333333333336,21.194246372090998,170.52442299066732,2.1467829370489757,7.20060658328257,9.701735512249243,229.52271004356112,1
4.529278213981652,-0.7693753916858252,1.1416952054794507,-27.194135939582452,101.91660635303577,-125.18675877950488,81.98004350704626,-21.896551724137936,8.46666666666666,-27.214285714285722,-14.767441860465116,-4.703703703703713,-26.76681614349777,-22.551401869158873,-43.63589743589744,21.250345639726653,149.7807336747144,2.1467829370489757,7.20060658328257,9.701735512249243,229.52271004356112,1
4.529278213981652,-0.7693753916858252,1.1416952054794507,-27.194135939582452,101.91660635303577,-125.18675877950488,81.98004350704626,-19.706896551724142,17.58461538461538,-4.535714285714294,-23.627906976744185,-14.111111111111121,-24.488789237668172,-17.803738317757002,-42.333333333333336,20.524013149833454,116.35124288965176,2.1467829370489757,7.20060658328257,9.701735512249243,229.52271004356112,1
