Gyro 0,Gyro 1,Gyro 2,Orientation 0,Orientation 1,Orientation 2,Orientation 3,Sensor 0,Sensor 1,Sensor 2,Sensor 3,Sensor 4,Sensor 5,Sensor 6,Sensor 7,Sensor Mean,Sensor Variance,Gyro Mean,Gyro Variance,Orientation Mean,Orientation Variance,Label
0.8657123381049711,-3.309943865276664,-8.603640040444905,21.004974240540093,126.19450317124733,-124.13358531317495,112.98848952112061,-28.786666666666672,-8.715686274509803,-20.48387096774194,-37.653266331658294,-5.669642857142861,-0.9007092198581546,27.608695652173914,2.627586206896553,16.555765522081025,193.04946231680918,4.259765414608847,22.521326398829764,10.972852715420553,82.4884015198228,1
0.8657123381049711,-3.309943865276664,-8.603640040444905,21.004974240540093,126.19450317124733,-124.13358531317495,112.98848952112061,-30.480000000000004,-9.960784313725489,-19.118279569892476,-33.824120603015075,-6.803571428571432,-6.3049645390070905,26.22826086956522,2.627586206896553,16.918445941334166,146.97484391487342,4.259765414608847,22.521326398829764,10.972852715420553,82.4884015198228,1
0.8657123381049711,-3.309943865276664,-8.603640040444905,21.004974240540093,126.19450317124733,-124.13358531317495,112.98848952112061,-27.09333333333334,-9.960784313725489,-19.118279569892476,-35.10050251256282,-5.669642857142861,-4.503546099290778,33.130434782608695,6.131034482758622,17.588444743914387,163.37639826204045,4.259765414608847,22.521326398829764,10.972852715420553,82.4884015198228,1
0.5771415587366456,-2.9534883720930236,-8.689248399056298,21.095221176052632,126.02669133192387,-124.22958963282937,113.42979693777824,-27.09333333333334,-9.960784313725489,-19.118279569892476,-35.10050251256282,-5.669642857142861,-4.503546099290778,33.130434782608695,6.131034482758622,17.588444743914387,163.37639826204045,4.073292776628656,21.871712274210996,10.912652649067319,85.98826212679134,1
0.5771415587366456,-2.9534883720930236,-8.689248399056298,21.095221176052632,126.02669133192387,-124.22958963282937,113.42979693777824,-30.480000000000004,-11.205882352941174,-17.752688172043015,-29.994974874371863,-9.071428571428577,-4.503546099290778,30.369565217391305,4.379310344827587,17.219674454036788,134.48324890236606,4.073292776628656,21.871712274210996,10.912652649067319,85.98826212679134,1
0.08657123381049253,-3.2590216519647157,-8.646444219750602,21.230591579321413,125.75819238900635,-124.31187904967604,113.78835921381256,-30.480000000000004,-11.205882352941174,-17.752688172043015,-29.994974874371863,-9.071428571428577,-4.503546099290778,30.369565217391305,4.379310344827587,17.219674454036788,134.48324890236606,3.9973457018419367,19.413812098895875,11.045352483678911,85.06040205752555,1
0.08657123381049253,-3.2590216519647157,-8.646444219750602,21.230591579321413,125.75819238900635,-124.31187904967604,113.78835921381256,-27.09333333333334,-8.715686274509803,-16.38709677419355,-26.165829145728644,-6.803571428571432,0.9007092198581574,31.75,6.131034482758622,15.493407582369192,133.65513870298597,3.9973457018419367,19.413812098895875,11.045352483678911,85.06040205752555,1
0.08657123381049253,-3.2590216519647157,-8.646444219750602,21.230591579321413,125.75819238900635,-124.31187904967604,113.78835921381256,-22.01333333333334,-3.735294117647057,-13.655913978494628,-31.2713567839196,-5.669642857142861,2.7021276595744697,33.130434782608695,6.131034482758622,14.788642249434908,155.421589765785,3.9973457018419367,19.413812098895875,11.045352483678911,85.06040205752555,1
0.08657123381049253,-3.309943865276664,-8.496629592180666,21.456208918102675,125.52325581395348,-124.36673866090713,114.06417634922357,-22.01333333333334,-3.735294117647057,-13.655913978494628,-31.2713567839196,-5.669642857142861,2.7021276595744697,33.130434782608695,6.131034482758622,14.788642249434908,155.421589765785,3.964381563755941,18.68489334454867,11.08759412518667,87.3565567503249,1
0.08657123381049253,-3.309943865276664,-8.496629592180666,21.456208918102675,125.52325581395348,-124.36673866090713,114.06417634922357,-30.480000000000004,-9.960784313725489,-21.8494623655914,-37.653266331658294,-10.205357142857146,-13.510638297872338,27.608695652173914,0.8758620689655192,19.018008271605513,154.23312255847438,3.964381563755941,18.68489334454867,11.08759412518667,87.3565567503249,1
0.08657123381049253,-3.309943865276664,-8.496629592180666,21.456208918102675,125.52325581395348,-124.36673866090713,114.06417634922357,-32.17333333333334,-13.696078431372548,-19.118279569892476,-33.824120603015075,-4.53571428571429,0.9007092198581574,33.130434782608695,4.379310344827587,17.719747571327773,194.0797296692463,3.964381563755941,18.68489334454867,11.08759412518667,87.3565567503249,1
-1.3562826630311342,-2.69887730553328,-8.02578361981801,21.907443595665313,125.05338266384774,-124.42159827213824,114.31241177109348,-32.17333333333334,-13.696078431372548,-19.118279569892476,-33.824120603015075,-4.53571428571429,0.9007092198581574,33.130434782608695,4.379310344827587,17.719747571327773,194.0797296692463,4.026981196127475,12.443455711303844,10.8773681736722,98.34090558143403,1
-1.3562826630311342,-2.69887730553328,-8.02578361981801,21.907443595665313,125.05338266384774,-124.42159827213824,114.31241177109348,-22.01333333333334,-6.22549019607843,-15.02150537634409,-28.718592964824122,-5.669642857142861,8.106382978723406,33.130434782608695,6.131034482758622,15.627052121476696,121.88318600809284,4.026981196127475,12.443455711303844,10.8773681736722,98.34090558143403,1
-1.3562826630311342,-2.69887730553328,-8.02578361981801,21.907443595665313,125.05338266384774,-124.42159827213824,114.31241177109348,-23.70666666666667,-1.2450980392156845,-10.924731182795703,-27.442211055276385,-10.205357142857146,0.9007092198581574,27.608695652173914,2.627586206896553,13.082631895717526,134.4062614915234,4.026981196127475,12.443455711303844,10.8773681736722,98.34090558143403,1
-2.510565780504436,-3.055332798716921,-7.961577350859466,22.403801740984193,124.4492600422833,-124.49017278617711,114.45032033879897,-23.70666666666667,-1.2450980392156845,-10.924731182795703,-27.442211055276385,-10.205357142857146,0.9007092198581574,27.608695652173914,2.627586206896553,13.082631895717526,134.4062614915234,4.509158643360274,9.013588974950823,11.140237296853527,101.16872189167051,1
-2.510565780504436,-3.055332798716921,-7.961577350859466,22.403801740984193,124.4492600422833,-124.49017278617711,114.45032033879897,-28.786666666666672,-9.960784313725489,-17.752688172043015,-35.10050251256282,-9.071428571428577,2.7021276595744697,31.75,4.379310344827587,17.43793853010358,165.61031196638243,4.509158643360274,9.013588974950823,11.140237296853527,101.16872189167051,1
-2.510565780504436,-3.055332798716921,-7.961577350859466,22.403801740984193,124.4492600422833,-124.49017278617711,114.45032033879897,-27.09333333333334,-8.715686274509803,-16.38709677419355,-29.994974874371863,-7.9375000000000036,2.7021276595744697,28.98913043478261,2.627586206896553,15.555929444707774,137.13301748801618,4.509158643360274,9.013588974950823,11.140237296853527,101.16872189167051,1
-3.5205635082935745,-2.749799518845229,-8.261206605999337,23.035530289571852,123.77801268498939,-124.5450323974082,114.50548376588118,-27.09333333333334,-8.715686274509803,-16.38709677419355,-29.994974874371863,-7.9375000000000036,2.7021276595744697,28.98913043478261,2.627586206896553,15.555929444707774,137.13301748801618,4.84385654437938,8.907230364598027,11.34884547147214,110.02785354828487,1
-3.5205635082935745,-2.749799518845229,-8.261206605999337,23.035530289571852,123.77801268498939,-124.5450323974082,114.50548376588118,-28.786666666666672,-14.941176470588234,-15.02150537634409,-28.718592964824122,-9.071428571428577,-4.503546099290778,31.75,4.379310344827587,17.14652831174626,125.72861078299594,4.84385654437938,8.907230364598027,11.34884547147214,110.02785354828487,1
-3.5205635082935745,-2.749799518845229,-8.261206605999337,23.035530289571852,123.77801268498939,-124.5450323974082,114.50548376588118,-28.786666666666672,-12.450980392156861,-19.118279569892476,-33.824120603015075,-12.47321428571429,-8.106382978723403,19.326086956521742,-4.379310344827584,17.308130224689762,101.52548279248751,4.84385654437938,8.907230364598027,11.34884547147214,110.02785354828487,1
-3.8957055214723977,-2.3933440256615883,-8.603640040444905,23.71238230591581,123.07320295983084,-124.57246220302376,114.50548376588118,-28.786666666666672,-12.450980392156861,-19.118279569892476,-33.824120603015075,-12.47321428571429,-8.106382978723403,19.326086956521742,-4.379310344827584,17.308130224689762,101.52548279248751,4.964229862526297,10.498252348376887,11.569788790674101,120.22387710510087,1
-3.8957055214723977,-2.3933440256615883,-8.603640040444905,23.71238230591581,123.07320295983084,-124.57246220302376,114.50548376588118,-27.09333333333334,-12.450980392156861,-24.580645161290327,-36.37688442211056,-12.47321428571429,-9.907801418439714,26.22826086956522,2.627586206896553,18.967338261188356,126.72193942976362,4.964229862526297,10.498252348376887,11.569788790674101,120.22387710510087,1
-3.8957055214723977,-2.3933440256615883,-8.603640040444905,23.71238230591581,123.07320295983084,-124.57246220302376,114.50548376588118,-23.70666666666667,-4.980392156862743,-16.38709677419355,-28.718592964824122,-4.440892098500626e-15,2.7021276595744697,37.27173913043478,13.13793103448276,15.863068298379888,176.58552141382012,4.964229862526297,10.498252348376887,11.569788790674101,120.22387710510087,1
-2.8857077936832587,-1.8331996792301526,-8.903269295584778,24.34411085450347,122.4690803382664,-124.59989200863932,114.69855576066888,-23.70666666666667,-4.980392156862743,-16.38709677419355,-28.718592964824122,-4.440892098500626e-15,2.7021276595744697,37.27173913043478,13.13793103448276,15.863068298379888,176.58552141382012,4.540725589499396,14.55078402337629,11.693526609772798,132.52443239479607,1
-2.8857077936832587,-1.8331996792301526,-8.903269295584778,24.34411085450347,122.4690803382664,-124.59989200863932,114.69855576066888,-28.786666666666672,-4.980392156862743,-12.290322580645164,-31.2713567839196,-4.53571428571429,4.503546099290782,30.369565217391305,2.627586206896553,14.920643749673388,167.3558173054593,4.540725589499396,14.55078402337629,11.693526609772798,132.52443239479607,1
-2.8857077936832587,-1.8331996792301526,-8.903269295584778,24.34411085450347,122.4690803382664,-124.59989200863932,114.69855576066888,-25.400000000000006,-8.715686274509803,-17.752688172043015,-33.824120603015075,-4.53571428571429,-0.9007092198581546,30.369565217391305,4.379310344827587,15.734724264669904,166.0818156321881,4.540725589499396,14.55078402337629,11.693526609772798,132.52443239479607,1
-2.2219950011361105,-2.69887730553328,-9.780754971351545,24.61485166104103,122.16701902748412,-124.62732181425487,114.75371918775109,-25.400000000000006,-8.715686274509803,-17.752688172043015,-33.824120603015075,-4.53571428571429,-0.9007092198581546,30.369565217391305,4.379310344827587,15.734724264669904,166.0818156321881,4.900542426006979,17.919210048865658,12.36482797930862,125.08555797065756,1
-2.2219950011361105,-2.69887730553328,-9.780754971351545,24.61485166104103,122.16701902748412,-124.62732181425487,114.75371918775109,-16.933333333333337,8.715686274509807,-21.8494623655914,-33.824120603015075,-2.267857142857147,8.106382978723406,37.27173913043478,11.386206896551725,17.544348590627084,158.77466168672314,4.900542426006979,17.919210048865658,12.36482797930862,125.08555797065756,1
-2.2219950011361105,-2.69887730553328,-9.780754971351545,24.61485166104103,122.16701902748412,-124.62732181425487,114.75371918775109,-30.480000000000004,-13.696078431372548,-21.8494623655914,-35.10050251256282,-15.875000000000004,-0.9007092198581546,24.847826086956523,-2.6275862068965505,18.172145602904752,151.6268304019738,4.900542426006979,17.919210048865658,12.36482797930862,125.08555797065756,1
-1.3562826630311342,-3.7173215717722536,-10.16599258510281,24.70509859655357,122.03276955602536,-124.65475161987041,114.72613747420999,-30.480000000000004,-13.696078431372548,-21.8494623655914,-35.10050251256282,-15.875000000000004,-0.9007092198581546,24.847826086956523,-2.6275862068965505,18.172145602904752,151.6268304019738,5.079865606635399,20.79514191296789,12.862804251142876,115.57629098205196,1
-1.3562826630311342,-3.7173215717722536,-10.16599258510281,24.70509859655357,122.03276955602536,-124.65475161987041,114.72613747420999,-25.400000000000006,-6.22549019607843,-17.752688172043015,-35.10050251256282,-10.205357142857146,-6.3049645390070905,27.608695652173914,6.131034482758622,16.84109158718513,129.41036672293941,5.079865606635399,20.79514191296789,12.862804251142876,115.57629098205196,1
-1.3562826630311342,-3.7173215717722536,-10.16599258510281,24.70509859655357,122.03276955602536,-124.65475161987041,114.72613747420999,-28.786666666666672,-7.470588235294116,-17.752688172043015,-31.2713567839196,-4.440892098500626e-15,4.503546099290782,33.130434782608695,7.882758620689657,16.34975492006407,174.15245586514175,5.079865606635399,20.79514191296789,12.862804251142876,115.57629098205196,1
-1.500568052715297,-4.226543704891741,-10.529828109201226,24.750222064309867,121.8985200845666,-124.68218142548596,114.67097404712779,-28.786666666666672,-7.470588235294116,-17.752688172043015,-31.2713567839196,-4.440892098500626e-15,4.503546099290782,33.130434782608695,7.882758620689657,16.34975492006407,174.15245586514175,5.4189799556027545,21.448312450920376,13.168864626134278,110.52872865349157,1
-1.500568052715297,-4.226543704891741,-10.529828109201226,24.750222064309867,121.8985200845666,-124.68218142548596,114.67097404712779,-23.70666666666667,-12.450980392156861,-19.118279569892476,-31.2713567839196,-5.669642857142861,4.503546099290782,34.51086956521739,7.882758620689657,17.389262569372036,135.27321193615256,5.4189799556027545,21.448312450920376,13.168864626134278,110.52872865349157,1
-1.500568052715297,-4.226543704891741,-10.529828109201226,24.750222064309867,121.8985200845666,-124.68218142548596,114.67097404712779,-23.70666666666667,-16.18627450980392,-6.8279569892473155,-24.889447236180906,-7.9375000000000036,-6.3049645390070905,31.75,4.379310344827587,15.247765035716686,108.59282026141055,5.4189799556027545,21.448312450920376,13.168864626134278,110.52872865349157,1
-1.7025675982731248,-4.175621491579792,-10.444219750589832,24.885592467578647,121.73070824524314,-124.69589632829374,114.56064719296339,-23.70666666666667,-16.18627450980392,-6.8279569892473155,-24.889447236180906,-7.9375000000000036,-6.3049645390070905,31.75,4.379310344827587,15.247765035716686,108.59282026141055,5.440802946814249,20.30463367402772,13.168477903249423,112.79191131842792,1
-1.7025675982731248,-4.175621491579792,-10.444219750589832,24.885592467578647,121.73070824524314,-124.69589632829374,114.56064719296339,-23.70666666666667,1.2450980392156872,1.3655913978494567,-28.718592964824122,-1.1339285714285756,8.106382978723406,34.51086956521739,11.386206896551725,13.77166713505963,180.07903921816373,5.440802946814249,20.30463367402772,13.168477903249423,112.79191131842792,1
-1.7025675982731248,-4.175621491579792,-10.444219750589832,24.885592467578647,121.73070824524314,-124.69589632829374,114.56064719296339,-32.17333333333334,-14.941176470588234,-24.580645161290327,-37.653266331658294,-14.741071428571432,-6.3049645390070905,26.22826086956522,4.379310344827587,20.12525355985519,143.4691227631493,5.440802946814249,20.30463367402772,13.168477903249423,112.79191131842792,1
-0.23085662349466538,-4.277465918203689,-10.016177957532873,24.750222064309867,121.69714587737843,-124.79190064794817,114.69855576066888,-32.17333333333334,-14.941176470588234,-24.580645161290327,-37.653266331658294,-14.741071428571432,-6.3049645390070905,26.22826086956522,4.379310344827587,20.12525355985519,143.4691227631493,4.841500166410409,24.176729377458415,13.014621980015477,111.52643597145332,1
-0.23085662349466538,-4.277465918203689,-10.016177957532873,24.750222064309867,121.69714587737843,-124.79190064794817,114.69855576066888,-25.400000000000006,-11.205882352941174,-23.215053763440864,-33.824120603015075,-4.53571428571429,-2.7021276595744665,30.369565217391305,0.8758620689655192,16.51604074388034,174.63666630201442,4.841500166410409,24.176729377458415,13.014621980015477,111.52643597145332,1
-0.23085662349466538,-4.277465918203689,-10.016177957532873,24.750222064309867,121.69714587737843,-124.79190064794817,114.69855576066888,-23.70666666666667,-4.980392156862743,-13.655913978494628,-28.718592964824122,-4.440892098500626e-15,2.7021276595744697,34.51086956521739,6.131034482758622,14.30069968429983,171.12328901835278,4.841500166410409,24.176729377458415,13.014621980015477,111.52643597145332,1
-1.0388548057259763,-4.532076984763433,-9.866363329962937,24.795345532066108,121.39508456659615,-124.90161987041037,114.8364643283744,-23.70666666666667,-4.980392156862743,-13.655913978494628,-28.718592964824122,-4.440892098500626e-15,2.7021276595744697,34.51086956521739,6.131034482758622,14.30069968429983,171.12328901835278,5.145765040150782,19.76368645836288,13.06459528226416,110.32152877056681,1
-1.0388548057259763,-4.532076984763433,-9.866363329962937,24.795345532066108,121.39508456659615,-124.90161987041037,114.8364643283744,-28.786666666666672,-8.715686274509803,-23.215053763440864,-32.54773869346734,-5.669642857142861,0.9007092198581574,28.98913043478261,4.379310344827587,16.65049228183699,168.2174863112107,5.145765040150782,19.76368645836288,13.06459528226416,110.32152877056681,1
-1.0388548057259763,-4.532076984763433,-9.866363329962937,24.795345532066108,121.39508456659615,-124.90161987041037,114.8364643283744,-25.400000000000006,-9.960784313725489,-23.215053763440864,-35.10050251256282,-3.4017857142857184,0.9007092198581574,31.75,9.634482758620692,17.42041478531172,171.55194183582813,5.145765040150782,19.76368645836288,13.06459528226416,110.32152877056681,1
-1.0388548057259763,-4.939454691259022,-9.930569598921482,24.795345532066108,121.19371035940804,-125.01133909287257,114.9192094689977,-25.400000000000006,-9.960784313725489,-23.215053763440864,-35.10050251256282,-3.4017857142857184,0.9007092198581574,31.75,9.634482758620692,17.42041478531172,171.55194183582813,5.302959698635493,19.864749908673772,13.22178994074887,106.68819877435547,1
-1.0388548057259763,-4.939454691259022,-9.930569598921482,24.795345532066108,121.19371035940804,-125.01133909287257,114.9192094689977,-15.240000000000006,1.7763568394002505e-15,-8.193548387096778,-28.718592964824122,-4.440892098500626e-15,9.907801418439718,34.51086956521739,18.393103448275863,14.370489472981735,157.07608243713892,5.302959698635493,19.864749908673772,13.22178994074887,106.68819877435547,1
-1.0388548057259763,-4.939454691259022,-9.930569598921482,24.795345532066108,121.19371035940804,-125.01133909287257,114.9192094689977,-16.933333333333337,4.980392156862747,-8.193548387096778,-31.2713567839196,-15.875000000000004,-8.106382978723403,24.847826086956523,2.627586206896553,14.104428241723618,101.02037805791555,5.302959698635493,19.864749908673772,13.22178994074887,106.68819877435547,1
-0.692569870483986,-5.499599037690457,-10.187394674755657,24.659975128797328,121.09302325581393,-125.09362850971922,114.86404604191549,-16.933333333333337,4.980392156862747,-8.193548387096778,-31.2713567839196,-15.875000000000004,-8.106382978723403,24.847826086956523,2.627586206896553,14.104428241723618,101.02037805791555,5.459854527643366,22.539109235512306,13.448989613747814,99.75850414770939,1
-0.692569870483986,-5.499599037690457,-10.187394674755657,24.659975128797328,121.09302325581393,-125.09362850971922,114.86404604191549,-28.786666666666672,-12.450980392156861,-21.8494623655914,-33.824120603015075,-4.53571428571429,-0.9007092198581546,30.369565217391305,0.8758620689655192,16.69913510241991,188.39170463185437,5.459854527643366,22.539109235512306,13.448989613747814,99.75850414770939,1
-0.692569870483986,-5.499599037690457,-10.187394674755657,24.659975128797328,121.09302325581393,-125.09362850971922,114.86404604191549,-28.786666666666672,-13.696078431372548,-28.67741935483871,-35.10050251256282,-1.1339285714285756,4.503546099290782,34.51086956521739,6.131034482758622,19.067505710517015,201.75623299268054,5.459854527643366,22.539109235512306,13.448989613747814,99.75850414770939,1
-0.08657123381050269,-6.314354450681636,-10.401415571284137,24.389234322259767,121.05946088794923,-125.2170626349892,114.86404604191549,-28.786666666666672,-13.696078431372548,-28.67741935483871,-35.10050251256282,-1.1339285714285756,4.503546099290782,34.51086956521739,6.131034482758622,19.067505710517015,201.75623299268054,5.600780418592092,26.98089435103237,13.701668114741844,89.8440707309444,1
-0.08657123381050269,-6.314354450681636,-10.401415571284137,24.389234322259767,121.05946088794923,-125.2170626349892,114.86404604191549,-23.70666666666667,-3.735294117647057,-24.580645161290327,-37.653266331658294,-9.071428571428577,-4.503546099290778,31.75,6.131034482758622,17.641485178842544,179.4834116684294,5.600780418592092,26.98089435103237,13.701668114741844,89.8440707309444,1
-0.08657123381050269,-6.314354450681636,-10.401415571284137,24.389234322259767,121.05946088794923,-125.2170626349892,114.86404604191549,-15.240000000000006,-1.2450980392156845,-15.02150537634409,-26.165829145728644,2.267857142857139,11.709219858156029,33.130434782608695,11.386206896551725,14.52076890518275,118.11467044047019,5.600780418592092,26.98089435103237,13.701668114741844,89.8440707309444,1
0.34628493524198534,-6.314354450681636,-10.572632288506922,24.07337004796591,121.09302325581393,-125.31306695464363,114.86404604191549,-15.240000000000006,-1.2450980392156845,-15.02150537634409,-26.165829145728644,2.267857142857139,11.709219858156029,33.130434782608695,11.386206896551725,14.52076890518275,118.11467044047019,5.744423891476848,30.286633418751922,13.653452262384823,85.96424752973029,1
0.34628493524198534,-6.314354450681636,-10.572632288506922,24.07337004796591,121.09302325581393,-125.31306695464363,114.86404604191549,-28.786666666666672,-19.92156862745098,-28.67741935483871,-33.824120603015075,-21.54464285714286,-17.113475177304963,28.98913043478261,0.8758620689655192,22.466610723770927,107.45675666909952,5.744423891476848,30.286633418751922,13.653452262384823,85.96424752973029,1
0.34628493524198534,-6.314354450681636,-10.572632288506922,24.07337004796591,121.09302325581393,-125.31306695464363,114.86404604191549,-27.09333333333334,-3.735294117647057,-16.38709677419355,-31.2713567839196,-3.4017857142857184,4.503546099290782,31.75,2.627586206896553,15.096249878695826,174.01178980560832,5.744423891476848,30.286633418751922,13.653452262384823,85.96424752973029,1
1.1831401954101288,-6.670809943865277,-10.615436467812618,23.57701190264703,121.2608350951374,-125.45021598272139,114.9192094689977,-27.09333333333334,-3.735294117647057,-16.38709677419355,-31.2713567839196,-3.4017857142857184,4.503546099290782,31.75,2.627586206896553,15.096249878695826,174.01178980560832,6.1564622023626745,36.07517041359958,13.621086104774975,78.23036347290795,1
1.1831401954101288,-6.670809943865277,-10.615436467812618,23.57701190264703,121.2608350951374,-125.45021598272139,114.9192094689977,-23.70666666666667,-9.960784313725489,-13.655913978494628,-28.718592964824122,-3.4017857142857184,-0.9007092198581546,28.98913043478261,4.379310344827587,14.214111704683123,132.58121860520373,6.1564622023626745,36.07517041359958,13.621086104774975,78.23036347290795,1
1.1831401954101288,-6.670809943865277,-10.615436467812618,23.57701190264703,121.2608350951374,-125.45021598272139,114.9192094689977,-32.17333333333334,-14.941176470588234,-16.38709677419355,-31.2713567839196,-4.53571428571429,-0.9007092198581546,31.75,7.882758620689657,17.4802681860371,164.557569386171,6.1564622023626745,36.07517041359958,13.621086104774975,78.23036347290795,1
0.8945694160418036,-5.805132317562149,-10.91506572295249,23.26114762835317,121.3615221987315,-125.54622030237581,115.0295363231621,-32.17333333333334,-14.941176470588234,-16.38709677419355,-31.2713567839196,-4.53571428571429,-0.9007092198581546,31.75,7.882758620689657,17.4802681860371,164.557569386171,5.871589152185481,35.07748414049144,13.327115222955937,80.5416047254928,1
0.8945694160418036,-5.805132317562149,-10.91506572295249,23.26114762835317,121.3615221987315,-125.54622030237581,115.0295363231621,-30.480000000000004,-2.490196078431371,-12.290322580645164,-31.2713567839196,-6.803571428571432,-2.7021276595744665,30.369565217391305,2.627586206896553,14.879340744428736,182.2611130974824,5.871589152185481,35.07748414049144,13.327115222955937,80.5416047254928,1
0.8945694160418036,-5.805132317562149,-10.91506572295249,23.26114762835317,121.3615221987315,-125.54622030237581,115.0295363231621,-27.09333333333334,1.7763568394002505e-15,-10.924731182795703,-32.54773869346734,-6.803571428571432,-4.503546099290778,23.467391304347828,7.882758620689657,14.152883832812009,141.39252000866665,5.871589152185481,35.07748414049144,13.327115222955937,80.5416047254928,1
1.3851397409679567,-6.619887730553328,-10.529828109201226,22.71966601527805,121.52933403805497,-125.68336933045357,115.11228146378541,-27.09333333333334,1.7763568394002505e-15,-10.924731182795703,-32.54773869346734,-6.803571428571432,-4.503546099290778,23.467391304347828,7.882758620689657,14.152883832812009,141.39252000866665,6.17828519357417,36.889092909159494,13.289793951677536,70.5137737930504,1
1.3851397409679567,-6.619887730553328,-10.529828109201226,22.71966601527805,121.52933403805497,-125.68336933045357,115.11228146378541,-32.17333333333334,-12.450980392156861,-17.752688172043015,-32.54773869346734,-11.339285714285719,-4.503546099290778,27.608695652173914,0.8758620689655192,17.40651626571456,150.3767988262651,6.17828519357417,36.889092909159494,13.289793951677536,70.5137737930504,1
1.3851397409679567,-6.619887730553328,-10.529828109201226,22.71966601527805,121.52933403805497,-125.68336933045357,115.11228146378541,-35.56,-22.41176470588235,-25.946236559139788,-33.824120603015075,-5.669642857142861,2.7021276595744697,31.75,4.379310344827587,20.28040034119777,194.34417464292164,6.17828519357417,36.889092909159494,13.289793951677536,70.5137737930504,1
0.9234264939786361,-6.721732157177225,-10.743849005729706,22.268431337715413,121.66358350951373,-125.80680345572355,115.1398631773265,-35.56,-22.41176470588235,-25.946236559139788,-33.824120603015075,-5.669642857142861,2.7021276595744697,31.75,4.379310344827587,20.28040034119777,194.34417464292164,6.129669218961856,35.12519872180793,13.24467083354078,65.11554621337893,1
0.9234264939786361,-6.721732157177225,-10.743849005729706,22.268431337715413,121.66358350951373,-125.80680345572355,115.1398631773265,-25.400000000000006,-11.205882352941174,-12.290322580645164,-28.718592964824122,-4.53571428571429,-0.9007092198581546,30.369565217391305,4.379310344827587,14.725012120775226,139.25805520539575,6.129669218961856,35.12519872180793,13.24467083354078,65.11554621337893,1
0.9234264939786361,-6.721732157177225,-10.743849005729706,22.268431337715413,121.66358350951373,-125.80680345572355,115.1398631773265,-28.786666666666672,-13.696078431372548,-23.215053763440864,-36.37688442211056,-7.9375000000000036,-2.7021276595744665,33.130434782608695,6.131034482758622,18.996972526066553,170.9874507540296,6.129669218961856,35.12519872180793,13.24467083354078,65.11554621337893,1
1.5294251306521194,-6.467121090617482,-11.064880350522426,21.772073192396533,121.8649577167019,-125.91652267818574,115.2226083179498,-28.786666666666672,-13.696078431372548,-23.215053763440864,-36.37688442211056,-7.9375000000000036,-2.7021276595744665,33.130434782608695,6.131034482758622,18.996972526066553,170.9874507540296,6.353808857264009,40.616778705681,13.101358211178814,61.67082126714547,1
1.5294251306521194,-6.467121090617482,-11.064880350522426,21.772073192396533,121.8649577167019,-125.91652267818574,115.2226083179498,-27.09333333333334,-9.960784313725489,-20.48387096774194,-32.54773869346734,-6.803571428571432,-0.9007092198581546,27.608695652173914,2.627586206896553,16.00328622697102,154.23042640136734,6.353808857264009,40.616778705681,13.101358211178814,61.67082126714547,1
1.5294251306521194,-6.467121090617482,-11.064880350522426,21.772073192396533,121.8649577167019,-125.91652267818574,115.2226083179498,-25.400000000000006,-6.22549019607843,-9.55913978494624,-29.994974874371863,-7.9375000000000036,2.7021276595744697,31.75,4.379310344827587,14.743567857474824,147.6509018878633,6.353808857264009,40.616778705681,13.101358211178814,61.67082126714547,1
3.2031356509884064,-6.518043303929431,-11.300303336703752,21.004974240540093,122.33483086680758,-126.03995680345572,115.41568031273752,-25.400000000000006,-6.22549019607843,-9.55913978494624,-29.994974874371863,-7.9375000000000036,2.7021276595744697,31.75,4.379310344827587,14.743567857474824,147.6509018878633,7.007160763873863,54.62017896071951,12.94110696039109,54.4869693891609,1
3.2031356509884064,-6.518043303929431,-11.300303336703752,21.004974240540093,122.33483086680758,-126.03995680345572,115.41568031273752,-23.70666666666667,-1.2450980392156845,-8.193548387096778,-24.889447236180906,-1.1339285714285756,2.7021276595744697,34.51086956521739,4.379310344827587,12.595124558776007,171.40622805641058,7.007160763873863,54.62017896071951,12.94110696039109,54.4869693891609,1
3.2031356509884064,-6.518043303929431,-11.300303336703752,21.004974240540093,122.33483086680758,-126.03995680345572,115.41568031273752,-22.01333333333334,2.4901960784313744,-25.946236559139788,-36.37688442211056,-9.071428571428577,-2.7021276595744665,28.98913043478261,2.627586206896553,16.277115408212158,186.36902107893297,7.007160763873863,54.62017896071951,12.94110696039109,54.4869693891609,1
3.607134742104062,-6.467121090617482,-11.450117964273689,20.102504885414817,122.93895348837208,-126.14967602591793,115.63633402106632,-22.01333333333334,2.4901960784313744,-25.946236559139788,-36.37688442211056,-9.071428571428577,-2.7021276595744665,28.98913043478261,2.627586206896553,16.277115408212158,186.36902107893297,7.174791265665078,58.84029124828528,12.673247980101996,47.60295808457055,1
3.607134742104062,-6.467121090617482,-11.450117964273689,20.102504885414817,122.93895348837208,-126.14967602591793,115.63633402106632,-33.866666666666674,-16.18627450980392,-30.043010752688176,-38.92964824120603,-11.339285714285719,-2.7021276595744665,27.608695652173914,2.627586206896553,20.412911925411933,199.7965705684139,7.174791265665078,58.84029124828528,12.673247980101996,47.60295808457055,1
3.607134742104062,-6.467121090617482,-11.450117964273689,20.102504885414817,122.93895348837208,-126.14967602591793,115.63633402106632,-28.786666666666672,-12.450980392156861,-17.752688172043015,-31.2713567839196,-5.669642857142861,-8.106382978723403,27.608695652173914,0.8758620689655192,16.56528444647398,134.62158538677255,7.174791265665078,58.84029124828528,12.673247980101996,47.60295808457055,1
4.241990456714378,-6.518043303929431,-11.407313784967993,19.109788594777058,123.64376321353063,-126.24568034557235,115.82940601585403,-28.786666666666672,-12.450980392156861,-17.752688172043015,-31.2713567839196,-5.669642857142861,-8.106382978723403,27.608695652173914,0.8758620689655192,16.56528444647398,134.62158538677255,7.389115848537268,64.09733593594791,12.345048561224829,40.29752225034693,1
4.241990456714378,-6.518043303929431,-11.407313784967993,19.109788594777058,123.64376321353063,-126.24568034557235,115.82940601585403,-23.70666666666667,-4.980392156862743,-17.752688172043015,-31.2713567839196,-6.803571428571432,-0.9007092198581546,35.891304347826086,7.882758620689657,16.148680924554668,170.15005009138798,7.389115848537268,64.09733593594791,12.345048561224829,40.29752225034693,1
4.241990456714378,-6.518043303929431,-11.407313784967993,19.109788594777058,123.64376321353063,-126.24568034557235,115.82940601585403,-18.626666666666672,-7.470588235294116,-15.02150537634409,-29.994974874371863,-4.53571428571429,0.9007092198581574,30.369565217391305,4.379310344827587,13.912379277558511,134.6492850924446,7.389115848537268,64.09733593594791,12.345048561224829,40.29752225034693,1
3.9534196773460524,-6.467121090617482,-11.621334681496473,18.25244270740808,124.28144820295984,-126.31425485961124,115.96731458355954,-18.626666666666672,-7.470588235294116,-15.02150537634409,-29.994974874371863,-4.53571428571429,0.9007092198581574,30.369565217391305,4.379310344827587,13.912379277558511,134.6492850924446,7.34729181648667,62.954426829246,12.113632826507343,34.90521950048379,1
3.9534196773460524,-6.467121090617482,-11.621334681496473,18.25244270740808,124.28144820295984,-126.31425485961124,115.96731458355954,-28.786666666666672,-9.960784313725489,-16.38709677419355,-29.994974874371863,-7.9375000000000036,-9.907801418439714,26.22826086956522,2.627586206896553,16.478833890482385,111.38620598804444,7.34729181648667,62.954426829246,12.113632826507343,34.90521950048379,1
3.9534196773460524,-6.467121090617482,-11.621334681496473,18.25244270740808,124.28144820295984,-126.31425485961124,115.96731458355954,-30.480000000000004,-9.960784313725489,-23.215053763440864,-36.37688442211056,-10.205357142857146,2.7021276595744697,27.608695652173914,2.627586206896553,17.897061145097375,172.66011111195843,7.34729181648667,62.954426829246,12.113632826507343,34.90521950048379,1
4.068847989093383,-6.212510024057739,-11.450117964273689,17.44022028779534,124.91913319238898,-126.38282937365011,116.16038657834724,-30.480000000000004,-9.960784313725489,-23.215053763440864,-36.37688442211056,-10.205357142857146,2.7021276595744697,27.608695652173914,2.627586206896553,17.897061145097375,172.66011111195843,7.24382532580827,62.32952729862771,11.70094942537559,31.56255675801856,1
4.068847989093383,-6.212510024057739,-11.450117964273689,17.44022028779534,124.91913319238898,-126.38282937365011,116.16038657834724,-28.786666666666672,-16.18627450980392,-20.48387096774194,-28.718592964824122,-4.440892098500626e-15,17.113475177304966,34.51086956521739,4.379310344827587,18.772382524548327,145.54927952730134,7.24382532580827,62.32952729862771,11.70094942537559,31.56255675801856,1
4.068847989093383,-6.212510024057739,-11.450117964273689,17.44022028779534,124.91913319238898,-126.38282937365011,116.16038657834724,-25.400000000000006,-6.22549019607843,-19.118279569892476,-32.54773869346734,-5.669642857142861,-0.9007092198581546,33.130434782608695,7.882758620689657,16.359381742467203,165.78076965273542,7.24382532580827,62.32952729862771,11.70094942537559,31.56255675801856,1
4.443990002272206,-7.027265437048918,-11.171890798786665,16.582874400426363,125.55681818181819,-126.45140388768898,116.32587685959385,-25.400000000000006,-6.22549019607843,-19.118279569892476,-32.54773869346734,-5.669642857142861,-0.9007092198581546,33.130434782608695,7.882758620689657,16.359381742467203,165.78076965273542,7.547715412702597,65.4372256560322,11.594010212087314,22.961054264558804,1
4.443990002272206,-7.027265437048918,-11.171890798786665,16.582874400426363,125.55681818181819,-126.45140388768898,116.32587685959385,-28.786666666666672,-4.980392156862743,-19.118279569892476,-35.10050251256282,-5.669642857142861,-0.9007092198581546,30.369565217391305,2.627586206896553,15.944168050909198,197.06703478145593,7.547715412702597,65.4372256560322,11.594010212087314,22.961054264558804,1
4.443990002272206,-7.027265437048918,-11.171890798786665,16.582874400426363,125.55681818181819,-126.45140388768898,116.32587685959385,-23.70666666666667,-9.960784313725489,-12.290322580645164,-31.2713567839196,-6.803571428571432,2.7021276595744697,30.369565217391305,7.882758620689657,15.623394158897973,125.0697065022812,7.547715412702597,65.4372256560322,11.594010212087314,22.961054264558804,1
4.184276300840713,-7.33279871692061,-11.043478260869577,15.680405045301143,126.22806553911204,-126.51997840172787,116.35345857313496,-23.70666666666667,-9.960784313725489,-12.290322580645164,-31.2713567839196,-6.803571428571432,2.7021276595744697,30.369565217391305,7.882758620689657,15.623394158897973,125.0697065022812,7.5201844262102995,63.0494447723853,11.352227341030442,17.492127349279816,1
4.184276300840713,-7.33279871692061,-11.043478260869577,15.680405045301143,126.22806553911204,-126.51997840172787,116.35345857313496,-23.70666666666667,3.7352941176470615,-1.3655913978494674,-28.718592964824122,-12.47321428571429,-6.3049645390070905,31.75,2.627586206896553,13.835238772325656,154.51008499527873,7.5201844262102995,63.0494447723853,11.352227341030442,17.492127349279816,1
4.184276300840713,-7.33279871692061,-11.043478260869577,15.680405045301143,126.22806553911204,-126.51997840172787,116.35345857313496,-25.400000000000006,-8.715686274509803,-13.655913978494628,-27.442211055276385,-1.1339285714285756,6.304964539007093,35.891304347826086,6.131034482758622,15.584380406162651,154.93035767635152,7.5201844262102995,63.0494447723853,11.352227341030442,17.492127349279816,1
2.3374233128834305,-7.638331996792301,-10.89366363329964,15.138923432225965,126.53012684989426,-126.57483801295896,116.24313171897055,-25.400000000000006,-8.715686274509803,-13.655913978494628,-27.442211055276385,-1.1339285714285756,6.304964539007093,35.891304347826086,6.131034482758622,15.584380406162651,154.93035767635152,6.956472980991791,47.529089973270864,11.223639687439302,14.146381117554395,1
2.3374233128834305,-7.638331996792301,-10.89366363329964,15.138923432225965,126.53012684989426,-126.57483801295896,116.24313171897055,-28.786666666666672,-11.205882352941174,-21.8494623655914,-40.20603015075377,-7.9375000000000036,-2.7021276595744665,28.98913043478261,11.386206896551725,19.13287581585773,165.70759119267765,6.956472980991791,47.529089973270864,11.223639687439302,14.146381117554395,1
2.3374233128834305,-7.638331996792301,-10.89366363329964,15.138923432225965,126.53012684989426,-126.57483801295896,116.24313171897055,-27.09333333333334,-11.205882352941174,-10.924731182795703,-32.54773869346734,-4.53571428571429,-0.9007092198581546,31.75,6.131034482758622,15.636142943858577,164.20712737379543,6.956472980991791,47.529089973270864,11.223639687439302,14.146381117554395,1
1.0388548057259663,-7.791098636728147,-10.67964273677116,14.777935690175923,126.59725158562367,-126.67084233261339,116.13280486480615,-27.09333333333334,-11.205882352941174,-10.924731182795703,-32.54773869346734,-4.53571428571429,-0.9007092198581546,31.75,6.131034482758622,15.636142943858577,164.20712737379543,6.503198726408425,37.2724915778853,11.08289235455841,12.32593069354187,1
1.0388548057259663,-7.791098636728147,-10.67964273677116,14.777935690175923,126.59725158562367,-126.67084233261339,116.13280486480615,-25.400000000000006,-14.941176470588234,-21.8494623655914,-29.994974874371863,-5.669642857142861,4.503546099290782,31.75,2.627586206896553,17.092048609235214,139.39782275597722,6.503198726408425,37.2724915778853,11.08289235455841,12.32593069354187,1
1.0388548057259663,-7.791098636728147,-10.67964273677116,14.777935690175923,126.59725158562367,-126.67084233261339,116.13280486480615,-27.09333333333334,-9.960784313725489,-12.290322580645164,-29.994974874371863,-12.47321428571429,-2.7021276595744665,27.608695652173914,4.379310344827587,15.812845380545765,118.27840758435313,6.503198726408425,37.2724915778853,11.08289235455841,12.32593069354187,1
1.1831401954101288,-7.485565356856456,-10.508426019548377,14.462071415882065,126.63081395348837,-126.7805615550756,116.10522315126505,-27.09333333333334,-9.960784313725489,-12.290322580645164,-29.994974874371863,-12.47321428571429,-2.7021276595744665,27.608695652173914,4.379310344827587,15.812845380545765,118.27840758435313,6.392377190604987,36.82947718278449,10.818687597428967,12.240105882936973,1
1.1831401954101288,-7.485565356856456,-10.508426019548377,14.462071415882065,126.63081395348837,-126.7805615550756,116.10522315126505,-23.70666666666667,-2.490196078431371,-9.55913978494624,-31.2713567839196,-5.669642857142861,2.7021276595744697,30.369565217391305,4.379310344827587,13.768500674112513,157.40633394148693,6.392377190604987,36.82947718278449,10.818687597428967,12.240105882936973,1
1.1831401954101288,-7.485565356856456,-10.508426019548377,14.462071415882065,126.63081395348837,-126.7805615550756,116.10522315126505,-22.01333333333334,-2.490196078431371,-27.311827956989248,-36.37688442211056,-10.205357142857146,0.9007092198581574,28.98913043478261,6.131034482758622,16.80230913389013,183.4829583463435,6.392377190604987,36.82947718278449,10.818687597428967,12.240105882936973,1
1.0965689615996312,-6.925421010425021,-10.765251095382553,14.191330609344504,126.69793868921772,-126.84913606911448,116.05005972418284,-22.01333333333334,-2.490196078431371,-27.311827956989248,-36.37688442211056,-10.205357142857146,0.9007092198581574,28.98913043478261,6.131034482758622,16.80230913389013,183.4829583463435,6.262413689135735,36.63323220947231,10.627334238384025,13.212626369500837,1
1.0965689615996312,-6.925421010425021,-10.765251095382553,14.191330609344504,126.69793868921772,-126.84913606911448,116.05005972418284,-28.786666666666672,-16.18627450980392,-20.48387096774194,-31.2713567839196,-6.803571428571432,2.7021276595744697,27.608695652173914,2.627586206896553,17.058768734418564,140.4108603287346,6.262413689135735,36.63323220947231,10.627334238384025,13.212626369500837,1
1.0965689615996312,-6.925421010425021,-10.765251095382553,14.191330609344504,126.69793868921772,-126.84913606911448,116.05005972418284,-33.866666666666674,-9.960784313725489,-16.38709677419355,-31.2713567839196,-5.669642857142861,-0.9007092198581546,28.98913043478261,2.627586206896553,16.209121657148188,181.5640073922298,6.262413689135735,36.63323220947231,10.627334238384025,13.212626369500837,1
1.240854351283794,-6.9763432237369685,-10.957869902258185,13.965713270563185,126.79862579281183,-126.87656587473002,115.93973287001845,-33.866666666666674,-9.960784313725489,-16.38709677419355,-31.2713567839196,-5.669642857142861,-0.9007092198581546,28.98913043478261,2.627586206896553,16.209121657148188,181.5640073922298,6.391689159092983,38.697294015442765,10.633308798852779,12.291828345250678,1
1.240854351283794,-6.9763432237369685,-10.957869902258185,13.965713270563185,126.79862579281183,-126.87656587473002,115.93973287001845,-27.09333333333334,-8.715686274509803,-15.02150537634409,-32.54773869346734,-6.803571428571432,-2.7021276595744665,31.75,4.379310344827587,16.126659138828508,156.4700962150703,6.391689159092983,38.697294015442765,10.633308798852779,12.291828345250678,1
1.240854351283794,-6.9763432237369685,-10.957869902258185,13.965713270563185,126.79862579281183,-126.87656587473002,115.93973287001845,-27.09333333333334,-6.22549019607843,-15.02150537634409,-29.994974874371863,-7.9375000000000036,-4.503546099290778,31.75,2.627586206896553,15.644242010789384,148.3519512906064,6.391689159092983,38.697294015442765,10.633308798852779,12.291828345250678,1
0.7502840263576409,-7.2309542902967125,-10.91506572295249,13.740095931781866,126.86575052854124,-126.9451403887689,115.82940601585403,-27.09333333333334,-6.22549019607843,-15.02150537634409,-29.994974874371863,-7.9375000000000036,-4.503546099290778,31.75,2.627586206896553,15.644242010789384,148.3519512906064,6.298768013202281,35.55887114819776,10.628705315010356,10.6537329396566,1
0.7502840263576409,-7.2309542902967125,-10.91506572295249,13.740095931781866,126.86575052854124,-126.9451403887689,115.82940601585403,-25.400000000000006,-7.470588235294116,-17.752688172043015,-31.2713567839196,-4.53571428571429,-0.9007092198581546,31.75,7.882758620689657,15.870476914689853,152.94763509672913,6.298768013202281,35.55887114819776,10.628705315010356,10.6537329396566,1
0.7502840263576409,-7.2309542902967125,-10.91506572295249,13.740095931781866,126.86575052854124,-126.9451403887689,115.82940601585403,-20.320000000000007,-3.735294117647057,-21.8494623655914,-33.824120603015075,-4.53571428571429,2.7021276595744697,28.98913043478261,6.131034482758622,15.260860493635441,155.85821764175626,6.298768013202281,35.55887114819776,10.628705315010356,10.6537329396566,1
0.5771415587366456,-6.467121090617482,-10.615436467812618,13.559602060756788,126.86575052854124,-127.0,115.74666087523073,-20.320000000000007,-3.735294117647057,-21.8494623655914,-33.824120603015075,-4.53571428571429,2.7021276595744697,28.98913043478261,6.131034482758622,15.260860493635441,155.85821764175626,5.8865663723889154,32.01732660369211,10.21405320639563,12.696652969856352,1
0.5771415587366456,-6.467121090617482,-10.615436467812618,13.559602060756788,126.86575052854124,-127.0,115.74666087523073,-28.786666666666672,-8.715686274509803,-19.118279569892476,-33.824120603015075,-6.803571428571432,-4.503546099290778,30.369565217391305,7.882758620689657,17.5005243100034,145.01245584438934,5.8865663723889154,32.01732660369211,10.21405320639563,12.696652969856352,1
0.5771415587366456,-6.467121090617482,-10.615436467812618,13.559602060756788,126.86575052854124,-127.0,115.74666087523073,-30.480000000000004,-14.941176470588234,-24.580645161290327,-33.824120603015075,-11.339285714285719,-8.106382978723403,33.130434782608695,6.131034482758622,20.316635024158757,132.5616105743204,5.8865663723889154,32.01732660369211,10.21405320639563,12.696652969856352,1
-0.23085662349466538,-4.9903769045709705,-10.35861139197844,13.694972464025625,126.76506342494713,-126.97257019438446,115.63633402106632,-30.480000000000004,-14.941176470588234,-24.580645161290327,-33.824120603015075,-11.339285714285719,-8.106382978723403,33.130434782608695,6.131034482758622,20.316635024158757,132.5616105743204,5.193281640014692,25.67373191138558,9.681320253525014,19.286538428090076,1
-0.23085662349466538,-4.9903769045709705,-10.35861139197844,13.694972464025625,126.76506342494713,-126.97257019438446,115.63633402106632,-20.320000000000007,-2.490196078431371,-20.48387096774194,-33.824120603015075,-6.803571428571432,0.9007092198581574,27.608695652173914,9.634482758620692,15.258205838551572,146.06057321850113,5.193281640014692,25.67373191138558,9.681320253525014,19.286538428090076,1
-0.23085662349466538,-4.9903769045709705,-10.35861139197844,13.694972464025625,126.76506342494713,-126.97257019438446,115.63633402106632,-20.320000000000007,-11.205882352941174,-25.946236559139788,-27.442211055276385,-2.267857142857147,6.304964539007093,33.130434782608695,9.634482758620692,17.031508648806373,125.64610920394239,5.193281640014692,25.67373191138558,9.681320253525014,19.286538428090076,1
-0.750284026357651,-3.4117882919005615,-10.123188405797114,13.965713270563185,126.59725158562367,-126.93142548596113,115.58117059398413,-20.320000000000007,-11.205882352941174,-25.946236559139788,-27.442211055276385,-2.267857142857147,6.304964539007093,33.130434782608695,9.634482758620692,17.031508648806373,125.64610920394239,4.761753574685109,23.32963882507154,9.166896656086953,28.532203546732504,1
-0.750284026357651,-3.4117882919005615,-10.123188405797114,13.965713270563185,126.59725158562367,-126.93142548596113,115.58117059398413,-28.786666666666672,-11.205882352941174,-23.215053763440864,-35.10050251256282,-4.440892098500626e-15,4.503546099290782,33.130434782608695,2.627586206896553,17.321209048050946,207.1207939281654,4.761753574685109,23.32963882507154,9.166896656086953,28.532203546732504,1
-0.750284026357651,-3.4117882919005615,-10.123188405797114,13.965713270563185,126.59725158562367,-126.93142548596113,115.58117059398413,-28.786666666666672,-6.22549019607843,-15.02150537634409,-32.54773869346734,-5.669642857142861,4.503546099290782,27.608695652173914,-2.6275862068965505,15.37385896850758,154.73665280079325,4.761753574685109,23.32963882507154,9.166896656086953,28.532203546732504,1
-0.7791411042944836,-2.800721732157178,-9.887765419615786,14.416947948125824,126.32875264270609,-126.8902807775378,115.69149744814854,-28.786666666666672,-6.22549019607843,-15.02150537634409,-32.54773869346734,-5.669642857142861,4.503546099290782,27.608695652173914,-2.6275862068965505,15.37385896850758,154.73665280079325,4.489209418689149,22.880002230093183,9.035145033299596,34.27939901751079,1
-0.7791411042944836,-2.800721732157178,-9.887765419615786,14.416947948125824,126.32875264270609,-126.8902807775378,115.69149744814854,-23.70666666666667,-6.22549019607843,-12.290322580645164,-31.2713567839196,-2.267857142857147,2.7021276595744697,33.130434782608695,4.379310344827587,14.496695769647221,168.24682697968723,4.489209418689149,22.880002230093183,9.035145033299596,34.27939901751079,1
-0.7791411042944836,-2.800721732157178,-9.887765419615786,14.416947948125824,126.32875264270609,-126.8902807775378,115.69149744814854,-23.70666666666667,-6.22549019607843,-15.02150537634409,-35.10050251256282,-5.669642857142861,-4.503546099290778,31.75,7.882758620689657,16.232514041096913,153.3035339063792,4.489209418689149,22.880002230093183,9.035145033299596,34.27939901751079,1
-0.9234264939786463,-2.4951884522854852,-9.737950792045849,14.823059157932164,126.06025369978857,-126.87656587473002,115.85698772939514,-23.70666666666667,-6.22549019607843,-15.02150537634409,-35.10050251256282,-5.669642857142861,-4.503546099290778,31.75,7.882758620689657,16.232514041096913,153.3035339063792,4.385521912769994,22.10398009417478,9.0187328007545,38.382054923033266,1
-0.9234264939786463,-2.4951884522854852,-9.737950792045849,14.823059157932164,126.06025369978857,-126.87656587473002,115.85698772939514,-28.786666666666672,-13.696078431372548,-20.48387096774194,-31.2713567839196,-9.071428571428577,-0.9007092198581546,30.369565217391305,6.131034482758622,17.58883879264218,140.25794789505352,4.385521912769994,22.10398009417478,9.0187328007545,38.382054923033266,1
-0.9234264939786463,-2.4951884522854852,-9.737950792045849,14.823059157932164,126.06025369978857,-126.87656587473002,115.85698772939514,-27.09333333333334,-3.735294117647057,-9.55913978494624,-31.2713567839196,-2.267857142857147,6.304964539007093,33.130434782608695,2.627586206896553,14.498745836401966,183.57038102585946,4.385521912769994,22.10398009417478,9.0187328007545,38.382054923033266,1
-1.6737105203362923,-2.597032878909383,-9.566734074823065,15.274293835494802,125.69106765327695,-126.84913606911448,115.91215115647734,-27.09333333333334,-3.735294117647057,-9.55913978494624,-31.2713567839196,-2.267857142857147,6.304964539007093,33.130434782608695,2.627586206896553,14.498745836401966,183.57038102585946,4.612492491356247,18.6215132949741,9.14602026307575,40.310986423887485,1
-1.6737105203362923,-2.597032878909383,-9.566734074823065,15.274293835494802,125.69106765327695,-126.84913606911448,115.91215115647734,-28.786666666666672,-9.960784313725489,-17.752688172043015,-32.54773869346734,-15.875000000000004,-4.503546099290778,28.98913043478261,0.8758620689655192,17.411427056117677,141.51066663820575,4.612492491356247,18.6215132949741,9.14602026307575,40.310986423887485,1
-1.6737105203362923,-2.597032878909383,-9.566734074823065,15.274293835494802,125.69106765327695,-126.84913606911448,115.91215115647734,-27.09333333333334,-8.715686274509803,-16.38709677419355,-29.994974874371863,-3.4017857142857184,4.503546099290782,31.75,6.131034482758622,15.99718219409296,144.06782984040947,4.612492491356247,18.6215132949741,9.14602026307575,40.310986423887485,1
-2.6259940922517657,-3.0044105854049725,-9.416919447253129,15.770651980813682,125.22119450317126,-126.86285097192226,115.91215115647734,-27.09333333333334,-8.715686274509803,-16.38709677419355,-29.994974874371863,-3.4017857142857184,4.503546099290782,31.75,6.131034482758622,15.99718219409296,144.06782984040947,5.015774708303289,14.563356020461983,9.397327337823928,40.74451772952564,1
-2.6259940922517657,-3.0044105854049725,-9.416919447253129,15.770651980813682,125.22119450317126,-126.86285097192226,115.91215115647734,-25.400000000000006,-6.22549019607843,-8.193548387096778,-28.718592964824122,-5.669642857142861,-0.9007092198581546,30.369565217391305,2.627586206896553,13.513141881161026,153.8770493176644,5.015774708303289,14.563356020461983,9.397327337823928,40.74451772952564,1
-2.6259940922517657,-3.0044105854049725,-9.416919447253129,15.770651980813682,125.22119450317126,-126.86285097192226,115.91215115647734,-30.480000000000004,-14.941176470588234,-17.752688172043015,-29.994974874371863,-3.4017857142857184,8.106382978723406,34.51086956521739,4.379310344827587,17.94589851500715,154.02106993902635,5.015774708303289,14.563356020461983,9.397327337823928,40.74451772952564,1
-3.231992728925249,-3.309943865276664,-9.695146612740153,16.3572570616451,124.68419661733611,-126.86285097192226,115.82940601585403,-30.480000000000004,-14.941176470588234,-17.752688172043015,-29.994974874371863,-3.4017857142857184,8.106382978723406,34.51086956521739,4.379310344827587,17.94589851500715,154.02106993902635,5.412361068980689,13.758208105290908,9.787449179887306,42.564485233958955,1
-3.231992728925249,-3.309943865276664,-9.695146612740153,16.3572570616451,124.68419661733611,-126.86285097192226,115.82940601585403,-28.786666666666672,-11.205882352941174,-19.118279569892476,-33.824120603015075,-9.071428571428577,6.304964539007093,27.608695652173914,0.8758620689655192,17.099487503011314,144.24779236905428,5.412361068980689,13.758208105290908,9.787449179887306,42.564485233958955,1
-3.231992728925249,-3.309943865276664,-9.695146612740153,16.3572570616451,124.68419661733611,-126.86285097192226,115.82940601585403,-27.09333333333334,-6.22549019607843,-13.655913978494628,-35.10050251256282,-7.9375000000000036,-4.503546099290778,28.98913043478261,6.131034482758622,16.204556379662655,150.26837481911156,5.412361068980689,13.758208105290908,9.787449179887306,42.564485233958955,1
-2.4817087025676035,-3.1062550120288694,-9.84496124031009,16.808491739207682,124.21432346723043,-126.8902807775378,115.82940601585403,-27.09333333333334,-6.22549019607843,-13.655913978494628,-35.10050251256282,-7.9375000000000036,-4.503546099290778,28.98913043478261,6.131034482758622,16.204556379662655,150.26837481911156,5.144308318302188,16.66961794305149,9.91990266384888,46.942034994633495,1
-2.4817087025676035,-3.1062550120288694,-9.84496124031009,16.808491739207682,124.21432346723043,-126.8902807775378,115.82940601585403,-28.786666666666672,-9.960784313725489,-17.752688172043015,-31.2713567839196,1.1339285714285676,8.106382978723406,31.75,7.882758620689657,17.08057076339955,146.3110765728897,5.144308318302188,16.66961794305149,9.91990266384888,46.942034994633495,1
-2.4817087025676035,-3.1062550120288694,-9.84496124031009,16.808491739207682,124.21432346723043,-126.8902807775378,115.82940601585403,-22.01333333333334,-12.450980392156861,-25.946236559139788,-29.994974874371863,-9.071428571428577,-4.503546099290778,31.75,9.634482758620692,18.170622823542736,110.65795684641002,5.144308318302188,16.66961794305149,9.91990266384888,46.942034994633495,1
-2.366280390820273,-2.4951884522854852,-10.16599258510281,17.25972641677032,123.8786997885835,-126.86285097192226,115.82940601585403,-22.01333333333334,-12.450980392156861,-25.946236559139788,-29.994974874371863,-9.071428571428577,-4.503546099290778,31.75,9.634482758620692,18.170622823542736,110.65795684641002,5.009153809402856,19.94889394099963,9.973635818052871,54.52564617055093,1
-2.366280390820273,-2.4951884522854852,-10.16599258510281,17.25972641677032,123.8786997885835,-126.86285097192226,115.82940601585403,-28.786666666666672,-6.22549019607843,-19.118279569892476,-32.54773869346734,-3.4017857142857184,-0.9007092198581546,28.98913043478261,-0.8758620689655157,15.105707820499614,188.62196921956684,5.009153809402856,19.94889394099963,9.973635818052871,54.52564617055093,1
-2.366280390820273,-2.4951884522854852,-10.16599258510281,17.25972641677032,123.8786997885835,-126.86285097192226,115.82940601585403,-28.786666666666672,-9.960784313725489,-19.118279569892476,-33.824120603015075,-7.9375000000000036,-0.9007092198581546,31.75,0.8758620689655192,16.644240305265424,184.83829788563267,5.009153809402856,19.94889394099963,9.973635818052871,54.52564617055093,1
-1.87571006589412,-1.6295108259823579,-10.16599258510281,17.62071415882042,123.67732558139534,-126.82170626349892,115.88456944293624,-28.786666666666672,-9.960784313725489,-19.118279569892476,-33.824120603015075,-7.9375000000000036,-0.9007092198581546,31.75,0.8758620689655192,16.644240305265424,184.83829788563267,4.557071158993096,23.610153189637753,9.805405856635195,64.02716309960302,1
-1.87571006589412,-1.6295108259823579,-10.16599258510281,17.62071415882042,123.67732558139534,-126.82170626349892,115.88456944293624,-23.70666666666667,-7.470588235294116,-17.752688172043015,-32.54773869346734,-10.205357142857146,-2.7021276595744665,31.75,4.379310344827587,16.31430961434129,143.1095780393276,4.557071158993096,23.610153189637753,9.805405856635195,64.02716309960302,1
-1.87571006589412,-1.6295108259823579,-10.16599258510281,17.62071415882042,123.67732558139534,-126.82170626349892,115.88456944293624,-18.626666666666672,-9.960784313725489,-15.02150537634409,-21.06030150753769,-4.53571428571429,-0.9007092198581546,31.75,6.131034482758622,13.498339481575627,103.53522479226265,4.557071158993096,23.610153189637753,9.805405856635195,64.02716309960302,1
-2.9722790274937565,-1.9859663191659989,-10.508426019548377,18.207319239651838,123.30813953488371,-126.73941684665228,115.77424258877184,-18.626666666666672,-9.960784313725489,-15.02150537634409,-21.06030150753769,-4.53571428571429,-0.9007092198581546,31.75,6.131034482758622,13.498339481575627,103.53522479226265,5.155557122069378,21.733107264850737,10.233903859455404,65.8395944550252,1
-2.9722790274937565,-1.9859663191659989,-10.508426019548377,18.207319239651838,123.30813953488371,-126.73941684665228,115.77424258877184,-23.70666666666667,-6.22549019607843,-8.193548387096778,-29.994974874371863,-3.4017857142857184,6.304964539007093,33.130434782608695,13.13793103448276,15.51197452432475,137.7400515715681,5.155557122069378,21.733107264850737,10.233903859455404,65.8395944550252,1
-2.9722790274937565,-1.9859663191659989,-10.508426019548377,18.207319239651838,123.30813953488371,-126.73941684665228,115.77424258877184,-27.09333333333334,-4.980392156862743,-15.02150537634409,-37.653266331658294,-17.008928571428577,-4.503546099290778,28.98913043478261,4.379310344827587,17.453676581066002,162.0505882667876,5.155557122069378,21.733107264850737,10.233903859455404,65.8395944550252,1
-1.7891388320836223,-2.1896551724137936,-10.829457364341097,18.65855391721442,123.07320295983084,-126.67084233261339,115.74666087523073,-27.09333333333334,-4.980392156862743,-15.02150537634409,-37.653266331658294,-17.008928571428577,-4.503546099290778,28.98913043478261,4.379310344827587,17.453676581066002,162.0505882667876,4.936083789612838,26.088992403196876,10.559222151323103,67.86092676939006,1
-1.7891388320836223,-2.1896551724137936,-10.829457364341097,18.65855391721442,123.07320295983084,-126.67084233261339,115.74666087523073,-25.400000000000006,-8.715686274509803,-20.48387096774194,-28.718592964824122,-6.803571428571432,-8.106382978723403,33.130434782608695,6.131034482758622,17.186196734967254,121.39488501841518,4.936083789612838,26.088992403196876,10.559222151323103,67.86092676939006,1
-1.7891388320836223,-2.1896551724137936,-10.829457364341097,18.65855391721442,123.07320295983084,-126.67084233261339,115.74666087523073,-28.786666666666672,-6.22549019607843,-15.02150537634409,-32.54773869346734,-4.53571428571429,-2.7021276595744665,30.369565217391305,7.882758620689657,16.00894583949078,159.20880308438993,4.936083789612838,26.088992403196876,10.559222151323103,67.86092676939006,1
-1.1542831174733066,-2.597032878909383,-11.064880350522426,19.01954165926452,122.90539112050737,-126.58855291576674,115.74666087523073,-28.786666666666672,-6.22549019607843,-15.02150537634409,-32.54773869346734,-4.53571428571429,-2.7021276595744665,30.369565217391305,7.882758620689657,16.00894583949078,159.20880308438993,4.938732115635038,28.66765086539135,10.893818296232107,67.44664533002388,1
-1.1542831174733066,-2.597032878909383,-11.064880350522426,19.01954165926452,122.90539112050737,-126.58855291576674,115.74666087523073,-28.786666666666672,-7.470588235294116,-21.8494623655914,-32.54773869346734,-4.53571428571429,2.7021276595744697,31.75,9.634482758620692,17.40959758311612,160.74905971868662,4.938732115635038,28.66765086539135,10.893818296232107,67.44664533002388,1
-1.1542831174733066,-2.597032878909383,-11.064880350522426,19.01954165926452,122.90539112050737,-126.58855291576674,115.74666087523073,-23.70666666666667,-4.980392156862743,-19.118279569892476,-35.10050251256282,-10.205357142857146,-6.3049645390070905,26.22826086956522,11.386206896551725,17.128828794245734,114.09418598733957,4.938732115635038,28.66765086539135,10.893818296232107,67.44664533002388,1
-0.9811406498523113,-3.2590216519647157,-11.171890798786665,19.290282465802136,122.83826638477802,-126.51997840172787,115.66391573460743,-23.70666666666667,-4.980392156862743,-19.118279569892476,-35.10050251256282,-10.205357142857146,-6.3049645390070905,26.22826086956522,11.386206896551725,17.128828794245734,114.09418598733957,5.137351033534564,28.608938098752812,11.240398305517838,64.2538507791787,1
-0.9811406498523113,-3.2590216519647157,-11.171890798786665,19.290282465802136,122.83826638477802,-126.51997840172787,115.66391573460743,-28.786666666666672,-9.960784313725489,-21.8494623655914,-33.824120603015075,-13.607142857142861,-8.106382978723403,28.98913043478261,0.8758620689655192,18.249944036076627,139.55435472239043,5.137351033534564,28.608938098752812,11.240398305517838,64.2538507791787,1
-0.9811406498523113,-3.2590216519647157,-11.171890798786665,19.290282465802136,122.83826638477802,-126.51997840172787,115.66391573460743,-27.09333333333334,-8.715686274509803,-16.38709677419355,-31.2713567839196,-4.53571428571429,-0.9007092198581546,30.369565217391305,9.634482758620692,16.11349308094259,145.11529295485772,5.137351033534564,28.608938098752812,11.240398305517838,64.2538507791787,1
-2.1065666893887802,-3.055332798716921,-11.107684529828122,19.651270207852235,122.63689217758986,-126.42397408207344,115.44326202627862,-27.09333333333334,-8.715686274509803,-16.38709677419355,-31.2713567839196,-4.53571428571429,-0.9007092198581546,30.369565217391305,9.634482758620692,16.11349308094259,145.11529295485772,5.423194672644608,24.4601079848691,11.271429178799094,68.87639385453421,1
-2.1065666893887802,-3.055332798716921,-11.107684529828122,19.651270207852235,122.63689217758986,-126.42397408207344,115.44326202627862,-32.17333333333334,-9.960784313725489,-20.48387096774194,-33.824120603015075,-6.803571428571432,-4.503546099290778,27.608695652173914,2.627586206896553,17.248188575593566,164.8164899628582,5.423194672644608,24.4601079848691,11.271429178799094,68.87639385453421,1
-2.1065666893887802,-3.055332798716921,-11.107684529828122,19.651270207852235,122.63689217758986,-126.42397408207344,115.44326202627862,-25.400000000000006,-1.2450980392156845,-17.752688172043015,-35.10050251256282,-1.1339285714285756,4.503546099290782,31.75,4.379310344827587,15.15813421742106,200.6528285769326,5.423194672644608,24.4601079848691,11.271429178799094,68.87639385453421,1
-3.4051351965462446,-3.8700882117081,-11.000674081563881,20.192751820927356,122.23414376321352,-126.36911447084233,115.1398631773265,-25.400000000000006,-1.2450980392156845,-17.752688172043015,-35.10050251256282,-1.1339285714285756,4.503546099290782,31.75,4.379310344827587,15.15813421742106,200.6528285769326,6.091965829939409,18.125607851251665,11.687838038066445,66.96148255226984,1
-3.4051351965462446,-3.8700882117081,-11.000674081563881,20.192751820927356,122.23414376321352,-126.36911447084233,115.1398631773265,-27.09333333333334,-9.960784313725489,-27.311827956989248,-40.20603015075377,-13.607142857142861,-20.716312056737586,26.22826086956522,0.8758620689655192,20.74994420090163,150.6077131342238,6.091965829939409,18.125607851251665,11.687838038066445,66.96148255226984,1
-3.4051351965462446,-3.8700882117081,-11.000674081563881,20.192751820927356,122.23414376321352,-126.36911447084233,115.1398631773265,-23.70666666666667,-2.490196078431371,-6.8279569892473155,-28.718592964824122,-6.803571428571432,-2.7021276595744665,30.369565217391305,0.8758620689655192,12.811817384209025,157.5874408455313,6.091965829939409,18.125607851251665,11.687838038066445,66.96148255226984,1
-3.2897068847989144,-3.0044105854049725,-10.572632288506922,20.734233434002533,121.79783298097249,-126.31425485961124,114.94679118253879,-23.70666666666667,-2.490196078431371,-6.8279569892473155,-28.718592964824122,-6.803571428571432,-2.7021276595744665,30.369565217391305,0.8758620689655192,12.811817384209025,157.5874408455313,5.62224991957027,18.400062693621116,11.437092102638141,79.14712263834886,1
-3.2897068847989144,-3.0044105854049725,-10.572632288506922,20.734233434002533,121.79783298097249,-126.31425485961124,114.94679118253879,-30.480000000000004,-11.205882352941174,-17.752688172043015,-32.54773869346734,-2.267857142857147,9.907801418439718,34.51086956521739,4.379310344827587,17.88151846122417,169.23028472551212,5.62224991957027,18.400062693621116,11.437092102638141,79.14712263834886,1
-3.2897068847989144,-3.0044105854049725,-10.572632288506922,20.734233434002533,121.79783298097249,-126.31425485961124,114.94679118253879,-33.866666666666674,-16.18627450980392,-21.8494623655914,-36.37688442211056,-6.803571428571432,-0.9007092198581546,27.608695652173914,2.627586206896553,18.277481308959075,193.33384024564117,5.62224991957027,18.400062693621116,11.437092102638141,79.14712263834886,1
-2.9722790274937565,-2.8516439454691263,-10.743849005729706,21.275715047077654,121.3615221987315,-126.28682505399568,114.86404604191549,-33.866666666666674,-16.18627450980392,-21.8494623655914,-36.37688442211056,-6.803571428571432,-0.9007092198581546,27.608695652173914,2.627586206896553,18.277481308959075,193.33384024564117,5.522590659564197,20.449792243806016,11.623735999425497,85.44224983053788,1
-2.9722790274937565,-2.8516439454691263,-10.743849005729706,21.275715047077654,121.3615221987315,-126.28682505399568,114.86404604191549,-23.70666666666667,-1.2450980392156845,-10.924731182795703,-31.2713567839196,-4.53571428571429,4.503546099290782,33.130434782608695,7.882758620689657,14.650038307612634,163.49043781227434,5.522590659564197,20.449792243806016,11.623735999425497,85.44224983053788,1
-2.9722790274937565,-2.8516439454691263,-10.743849005729706,21.275715047077654,121.3615221987315,-126.28682505399568,114.86404604191549,-32.17333333333334,-13.696078431372548,-23.215053763440864,-29.994974874371863,-9.071428571428577,0.9007092198581574,24.847826086956523,-6.1310344827586185,17.50380484544006,135.48340672762978,5.522590659564197,20.449792243806016,11.623735999425497,85.44224983053788,1
-2.193137923199278,-3.6154771451483563,-10.743849005729706,21.546455853615214,121.12658562367864,-126.27311015118791,114.72613747420999,-32.17333333333334,-13.696078431372548,-23.215053763440864,-29.994974874371863,-9.071428571428577,0.9007092198581574,24.847826086956523,-6.1310344827586185,17.50380484544006,135.48340672762978,5.517488024692447,20.99189904365523,11.968594001497758,81.50499958936712,1
-2.193137923199278,-3.6154771451483563,-10.743849005729706,21.546455853615214,121.12658562367864,-126.27311015118791,114.72613747420999,-23.70666666666667,-12.450980392156861,-19.118279569892476,-31.2713567839196,-5.669642857142861,-0.9007092198581546,26.22826086956522,16.641379310344828,16.998409458693335,106.6693191151356,5.517488024692447,20.99189904365523,11.968594001497758,81.50499958936712,1
-2.193137923199278,-3.6154771451483563,-10.743849005729706,21.546455853615214,121.12658562367864,-126.27311015118791,114.72613747420999,-23.70666666666667,-8.715686274509803,-16.38709677419355,-31.2713567839196,-2.267857142857147,2.7021276595744697,34.51086956521739,7.882758620689657,15.930552435953537,159.96094166933312,5.517488024692447,20.99189904365523,11.968594001497758,81.50499958936712,1
-2.4528516246307706,-3.309943865276664,-10.743849005729706,21.907443595665313,120.89164904862577,-126.23196544276459,114.56064719296339,-23.70666666666667,-8.715686274509803,-16.38709677419355,-31.2713567839196,-2.267857142857147,2.7021276595744697,34.51086956521739,7.882758620689657,15.930552435953537,159.96094166933312,5.502214831879047,20.78969838660316,11.987078822223895,87.62596433791661,1
-2.4528516246307706,-3.309943865276664,-10.743849005729706,21.907443595665313,120.89164904862577,-126.23196544276459,114.56064719296339,-25.400000000000006,-4.980392156862743,-15.02150537634409,-31.2713567839196,-3.4017857142857184,0.9007092198581574,33.130434782608695,2.627586206896553,14.591721280096944,183.86776955580194,5.502214831879047,20.78969838660316,11.987078822223895,87.62596433791661,1
-2.4528516246307706,-3.309943865276664,-10.743849005729706,21.907443595665313,120.89164904862577,-126.23196544276459,114.56064719296339,-32.17333333333334,-9.960784313725489,-23.215053763440864,-32.54773869346734,-7.9375000000000036,2.7021276595744697,30.369565217391305,6.131034482758622,18.12964218296143,161.9098124604428,5.502214831879047,20.78969838660316,11.987078822223895,87.62596433791661,1
-3.0877073392410868,-4.073777064955895,-11.000674081563881,22.268431337715413,120.52246300211414,-126.21825053995681,114.31241177109348,-32.17333333333334,-9.960784313725489,-23.215053763440864,-32.54773869346734,-7.9375000000000036,2.7021276595744697,30.369565217391305,6.131034482758622,18.12964218296143,161.9098124604428,6.054052828586954,18.594879741295088,12.447627494745063,84.33161666124904,1
-3.0877073392410868,-4.073777064955895,-11.000674081563881,22.268431337715413,120.52246300211414,-126.21825053995681,114.31241177109348,-23.70666666666667,-6.22549019607843,-13.655913978494628,-28.718592964824122,-4.440892098500626e-15,6.304964539007093,31.75,9.634482758620692,14.999513887961456,136.10847742233025,6.054052828586954,18.594879741295088,12.447627494745063,84.33161666124904,1
-3.0877073392410868,-4.073777064955895,-11.000674081563881,22.268431337715413,120.52246300211414,-126.21825053995681,114.31241177109348,-22.01333333333334,-7.470588235294116,-15.02150537634409,-33.824120603015075,-10.205357142857146,2.7021276595744697,27.608695652173914,4.379310344827587,15.403129793427468,129.27589641597189,6.054052828586954,18.594879741295088,12.447627494745063,84.33161666124904,1
-3.318563962735747,-3.360866078588613,-10.91506572295249,22.764789483034292,120.08615221987316,-126.17710583153348,114.11933977630576,-22.01333333333334,-7.470588235294116,-15.02150537634409,-33.824120603015075,-10.205357142857146,2.7021276595744697,27.608695652173914,4.379310344827587,15.403129793427468,129.27589641597189,5.864831921425616,19.129093454814836,12.346907094858466,95.66568815712489,1
-3.318563962735747,-3.360866078588613,-10.91506572295249,22.764789483034292,120.08615221987316,-126.17710583153348,114.11933977630576,-27.09333333333334,-8.715686274509803,-17.752688172043015,-31.2713567839196,-5.669642857142861,4.503546099290782,30.369565217391305,6.131034482758622,16.438356652548663,136.2339840306857,5.864831921425616,19.129093454814836,12.346907094858466,95.66568815712489,1
-3.318563962735747,-3.360866078588613,-10.91506572295249,22.764789483034292,120.08615221987316,-126.17710583153348,114.11933977630576,-25.400000000000006,-11.205882352941174,-8.193548387096778,-31.2713567839196,-6.803571428571432,-4.503546099290778,31.75,2.627586206896553,15.21943640733954,149.17872200817354,5.864831921425616,19.129093454814836,12.346907094858466,95.66568815712489,1
-1.87571006589412,-2.4951884522854852,-11.257499157398057,23.12577722508439,119.88477801268499,-126.12224622030239,114.09175806276467,-25.400000000000006,-11.205882352941174,-8.193548387096778,-31.2713567839196,-6.803571428571432,-4.503546099290778,31.75,2.627586206896553,15.21943640733954,149.17872200817354,5.209465891859221,27.52996815359978,12.29282161158931,107.20921771619851,1
-1.87571006589412,-2.4951884522854852,-11.257499157398057,23.12577722508439,119.88477801268499,-126.12224622030239,114.09175806276467,-23.70666666666667,-8.715686274509803,-15.02150537634409,-29.994974874371863,-3.4017857142857184,-0.9007092198581546,31.75,0.8758620689655192,14.295898774375228,164.22066521955722,5.209465891859221,27.52996815359978,12.29282161158931,107.20921771619851,1
-1.87571006589412,-2.4951884522854852,-11.257499157398057,23.12577722508439,119.88477801268499,-126.12224622030239,114.09175806276467,-30.480000000000004,-12.450980392156861,-23.215053763440864,-33.824120603015075,-15.875000000000004,-17.113475177304963,26.22826086956522,6.131034482758622,20.6647406610302,88.74471793521839,5.209465891859221,27.52996815359978,12.29282161158931,107.20921771619851,1
-0.2885707793683304,-2.546110665597434,-11.321705426356601,23.17090069284069,120.01902748414375,-126.0536717062635,114.09175806276467,-30.480000000000004,-12.450980392156861,-23.215053763440864,-33.824120603015075,-15.875000000000004,-17.113475177304963,26.22826086956522,6.131034482758622,20.6647406610302,88.74471793521839,4.718795623774121,33.97293498025867,12.34623892826491,107.13274258936758,1
-0.2885707793683304,-2.546110665597434,-11.321705426356601,23.17090069284069,120.01902748414375,-126.0536717062635,114.09175806276467,-28.786666666666672,-14.941176470588234,-13.655913978494628,-27.442211055276385,-11.339285714285719,-6.3049645390070905,28.98913043478261,2.627586206896553,16.760866883249737,108.52320969387537,4.718795623774121,33.97293498025867,12.34623892826491,107.13274258936758,1
-0.2885707793683304,-2.546110665597434,-11.321705426356601,23.17090069284069,120.01902748414375,-126.0536717062635,114.09175806276467,-27.09333333333334,-12.450980392156861,-15.02150537634409,-28.718592964824122,1.1339285714285676,9.907801418439718,33.130434782608695,0.8758620689655192,16.041554863512612,154.09573373942334,4.718795623774121,33.97293498025867,12.34623892826491,107.13274258936758,1
-0.4617132469893257,-1.8331996792301526,-11.343107516009448,23.30627109610947,120.15327695560251,-125.9439524838013,114.03659463568246,-27.09333333333334,-12.450980392156861,-15.02150537634409,-28.718592964824122,1.1339285714285676,9.907801418439718,33.130434782608695,0.8758620689655192,16.041554863512612,154.09573373942334,4.546006814076309,35.12067722262015,12.16085943044969,115.7747376637779,1
-0.4617132469893257,-1.8331996792301526,-11.343107516009448,23.30627109610947,120.15327695560251,-125.9439524838013,114.03659463568246,-28.786666666666672,-13.696078431372548,-20.48387096774194,-33.824120603015075,-10.205357142857146,-0.9007092198581546,28.98913043478261,0.8758620689655192,17.220224441907455,164.81760245283644,4.546006814076309,35.12067722262015,12.16085943044969,115.7747376637779,1
-0.4617132469893257,-1.8331996792301526,-11.343107516009448,23.30627109610947,120.15327695560251,-125.9439524838013,114.03659463568246,-32.17333333333334,-12.450980392156861,-17.752688172043015,-33.824120603015075,-3.4017857142857184,-0.9007092198581546,33.130434782608695,4.379310344827587,17.251670320266054,199.6579746881751,4.546006814076309,35.12067722262015,12.16085943044969,115.7747376637779,1
-0.7214269484208184,-1.2221331194867684,-11.471520053926536,23.53188843489079,120.25396405919662,-125.82051835853132,114.06417634922357,-32.17333333333334,-12.450980392156861,-17.752688172043015,-33.824120603015075,-3.4017857142857184,-0.9007092198581546,33.130434782608695,4.379310344827587,17.251670320266054,199.6579746881751,4.471693373944707,36.81085682977495,12.075180536101366,124.70460004160414,1
-0.7214269484208184,-1.2221331194867684,-11.471520053926536,23.53188843489079,120.25396405919662,-125.82051835853132,114.06417634922357,-27.09333333333334,-2.490196078431371,-17.752688172043015,-35.10050251256282,-3.4017857142857184,13.510638297872342,31.75,13.13793103448276,18.02963439287642,151.66978514153018,4.471693373944707,36.81085682977495,12.075180536101366,124.70460004160414,1
-0.7214269484208184,-1.2221331194867684,-11.471520053926536,23.53188843489079,120.25396405919662,-125.82051835853132,114.06417634922357,-25.400000000000006,-11.205882352941174,-19.118279569892476,-35.10050251256282,-13.607142857142861,-6.3049645390070905,27.608695652173914,7.882758620689657,18.27852826305125,106.39054280127195,4.471693373944707,36.81085682977495,12.075180536101366,124.70460004160414,1
-0.8945694160418137,-1.0693664795509226,-11.086282440175273,23.80262924142835,120.22040169133192,-125.72451403887689,114.17450320338797,-25.400000000000006,-11.205882352941174,-19.118279569892476,-35.10050251256282,-13.607142857142861,-6.3049645390070905,27.608695652173914,7.882758620689657,18.27852826305125,106.39054280127195,4.350072778589336,34.04002895698564,11.986092720384848,129.80755285541886,1
-0.8945694160418137,-1.0693664795509226,-11.086282440175273,23.80262924142835,120.22040169133192,-125.72451403887689,114.17450320338797,-28.786666666666672,-9.960784313725489,-25.946236559139788,-32.54773869346734,-3.4017857142857184,-0.9007092198581546,34.51086956521739,4.379310344827587,17.554262634648516,202.54238496887027,4.350072778589336,34.04002895698564,11.986092720384848,129.80755285541886,1
-0.8945694160418137,-1.0693664795509226,-11.086282440175273,23.80262924142835,120.22040169133192,-125.72451403887689,114.17450320338797,-22.01333333333334,-3.735294117647057,-13.655913978494628,-28.718592964824122,-2.267857142857147,2.7021276595744697,34.51086956521739,7.882758620689657,14.435843422829727,158.31641485113778,4.350072778589336,34.04002895698564,11.986092720384848,129.80755285541886,1
-0.11542831174733523,-0.712910986367282,-11.086282440175273,24.07337004796591,120.32108879492597,-125.60107991360691,114.31241177109348,-22.01333333333334,-3.735294117647057,-13.655913978494628,-28.718592964824122,-2.267857142857147,2.7021276595744697,34.51086956521739,7.882758620689657,14.435843422829727,158.31641485113778,3.971540579429963,38.05391019539898,11.95752115816949,136.9970545699555,1
-0.11542831174733523,-0.712910986367282,-11.086282440175273,24.07337004796591,120.32108879492597,-125.60107991360691,114.31241177109348,-27.09333333333334,-4.980392156862743,-16.38709677419355,-35.10050251256282,-9.071428571428577,-6.3049645390070905,27.608695652173914,0.8758620689655192,15.927784451065945,159.27589977920107,3.971540579429963,38.05391019539898,11.95752115816949,136.9970545699555,1
-0.11542831174733523,-0.712910986367282,-11.086282440175273,24.07337004796591,120.32108879492597,-125.60107991360691,114.31241177109348,-27.09333333333334,-9.960784313725489,-21.8494623655914,-33.824120603015075,-3.4017857142857184,0.9007092198581574,31.75,2.627586206896553,16.425972719588216,189.0836528043505,3.971540579429963,38.05391019539898,11.95752115816949,136.9970545699555,1
-0.40399909111566057,-0.712910986367282,-11.278901247050905,24.389234322259767,120.38821353065538,-125.43650107991361,114.36757519817567,-27.09333333333334,-9.960784313725489,-21.8494623655914,-33.824120603015075,-3.4017857142857184,0.9007092198581574,31.75,2.627586206896553,16.425972719588216,189.0836528043505,4.13193710817795,38.33317894150903,12.127015518559318,140.68154503958397,1
-0.40399909111566057,-0.712910986367282,-11.278901247050905,24.389234322259767,120.38821353065538,-125.43650107991361,114.36757519817567,-27.09333333333334,-19.92156862745098,-28.67741935483871,-32.54773869346734,-7.9375000000000036,-4.503546099290778,30.369565217391305,2.627586206896553,19.209782191583628,153.29170890038375,4.13193710817795,38.33317894150903,12.127015518559318,140.68154503958397,1
-0.40399909111566057,-0.712910986367282,-11.278901247050905,24.389234322259767,120.38821353065538,-125.43650107991361,114.36757519817567,-23.70666666666667,-1.2450980392156845,-15.02150537634409,-32.54773869346734,-4.440892098500626e-15,11.709219858156029,33.130434782608695,14.889655172413795,16.53128982360904,159.81746503841472,4.13193710817795,38.33317894150903,12.127015518559318,140.68154503958397,1
-0.11542831174733523,-1.17121090617482,-11.150488709133818,24.659975128797328,120.48890063424943,-125.29935205183585,114.45032033879897,-23.70666666666667,-1.2450980392156845,-15.02150537634409,-32.54773869346734,-4.440892098500626e-15,11.709219858156029,33.130434782608695,14.889655172413795,16.53128982360904,159.81746503841472,4.145709309018657,37.07887005488229,12.327224914701988,138.96904224960903,1
-0.11542831174733523,-1.17121090617482,-11.150488709133818,24.659975128797328,120.48890063424943,-125.29935205183585,114.45032033879897,-30.480000000000004,-7.470588235294116,-20.48387096774194,-40.20603015075377,-11.339285714285719,-6.3049645390070905,30.369565217391305,-0.8758620689655157,18.441270861679932,198.81710787750742,4.145709309018657,37.07887005488229,12.327224914701988,138.96904224960903,1
-0.11542831174733523,-1.17121090617482,-11.150488709133818,24.659975128797328,120.48890063424943,-125.29935205183585,114.45032033879897,-20.320000000000007,2.4901960784313744,-15.02150537634409,-32.54773869346734,-6.803571428571432,-0.9007092198581546,30.369565217391305,2.627586206896553,13.885109027620032,162.5784192454437,4.145709309018657,37.07887005488229,12.327224914701988,138.96904224960903,1
0.11542831174732507,-1.5785886126704094,-10.89366363329964,24.795345532066108,120.58958773784354,-125.2170626349892,114.58822890650448,-20.320000000000007,2.4901960784313744,-15.02150537634409,-32.54773869346734,-6.803571428571432,-0.9007092198581546,30.369565217391305,2.627586206896553,13.885109027620032,162.5784192454437,4.195893519239125,35.14007023911039,12.422532592678719,136.50753068479165,1
0.11542831174732507,-1.5785886126704094,-10.89366363329964,24.795345532066108,120.58958773784354,-125.2170626349892,114.58822890650448,-28.786666666666672,-9.960784313725489,-16.38709677419355,-29.994974874371863,-4.53571428571429,0.9007092198581574,30.369565217391305,2.627586206896553,15.445387194852234,162.60623678292936,4.195893519239125,35.14007023911039,12.422532592678719,136.50753068479165,1
0.11542831174732507,-1.5785886126704094,-10.89366363329964,24.795345532066108,120.58958773784354,-125.2170626349892,114.58822890650448,-30.480000000000004,-13.696078431372548,-23.215053763440864,-36.37688442211056,-12.47321428571429,-2.7021276595744665,31.75,-0.8758620689655157,18.94615257889728,182.6982897749052,4.195893519239125,35.14007023911039,12.422532592678719,136.50753068479165,1
-0.5482844807998233,-2.1896551724137936,-10.508426019548377,25.020962870847427,120.55602536997884,-125.16220302375811,114.67097404712779,-30.480000000000004,-13.696078431372548,-23.215053763440864,-36.37688442211056,-12.47321428571429,-2.7021276595744665,31.75,-0.8758620689655157,18.94615257889728,182.6982897749052,4.415455224253998,28.516744271054996,12.5730146876032,133.514047581334,1
-0.5482844807998233,-2.1896551724137936,-10.508426019548377,25.020962870847427,120.55602536997884,-125.16220302375811,114.67097404712779,-22.01333333333334,-4.980392156862743,-15.02150537634409,-29.994974874371863,-5.669642857142861,2.7021276595744697,30.369565217391305,0.8758620689655192,13.953425442998272,148.52494415617863,4.415455224253998,28.516744271054996,12.5730146876032,133.514047581334,1
-0.5482844807998233,-2.1896551724137936,-10.508426019548377,25.020962870847427,120.55602536997884,-125.16220302375811,114.67097404712779,-25.400000000000006,-6.22549019607843,-15.02150537634409,-29.994974874371863,-2.267857142857147,2.7021276595744697,33.130434782608695,7.882758620689657,15.328143581565545,157.40760666804022,4.415455224253998,28.516744271054996,12.5730146876032,133.514047581334,1
-1.1542831174733066,-2.3424218123496394,-10.422817660936985,25.246580209628746,120.45533826638479,-125.107343412527,114.67097404712779,-25.400000000000006,-6.22549019607843,-15.02150537634409,-29.994974874371863,-2.267857142857147,2.7021276595744697,33.130434782608695,7.882758620689657,15.328143581565545,157.40760666804022,4.639840863586644,25.43503386858492,12.670606560971791,134.9395341762525,1
-1.1542831174733066,-2.3424218123496394,-10.422817660936985,25.246580209628746,120.45533826638479,-125.107343412527,114.67097404712779,-32.17333333333334,-8.715686274509803,-13.655913978494628,-31.2713567839196,-5.669642857142861,2.7021276595744697,30.369565217391305,4.379310344827587,16.117117056149198,168.33025767166555,4.639840863586644,25.43503386858492,12.670606560971791,134.9395341762525,1
-1.1542831174733066,-2.3424218123496394,-10.422817660936985,25.246580209628746,120.45533826638479,-125.107343412527,114.67097404712779,-23.70666666666667,-2.490196078431371,-9.55913978494624,-31.2713567839196,-7.9375000000000036,0.9007092198581574,31.75,2.627586206896553,13.780394342589824,171.00996803056768,4.639840863586644,25.43503386858492,12.670606560971791,134.9395341762525,1
-1.2408543512838042,-3.309943865276664,-10.465621840242681,25.517321016166306,120.28752642706132,-125.07991360691145,114.67097404712779,-23.70666666666667,-2.490196078431371,-9.55913978494624,-31.2713567839196,-7.9375000000000036,0.9007092198581574,31.75,2.627586206896553,13.780394342589824,171.00996803056768,5.005473352267717,23.43019898728027,13.097628907228552,128.48749588096152,1
-1.2408543512838042,-3.309943865276664,-10.465621840242681,25.517321016166306,120.28752642706132,-125.07991360691145,114.67097404712779,-18.626666666666672,7.4705882352941195,-9.55913978494624,-29.994974874371863,-3.4017857142857184,2.7021276595744697,34.51086956521739,11.386206896551725,14.706544924613524,143.29968963577812,5.005473352267717,23.43019898728027,13.097628907228552,128.48749588096152,1
-1.2408543512838042,-3.309943865276664,-10.465621840242681,25.517321016166306,120.28752642706132,-125.07991360691145,114.67097404712779,-30.480000000000004,-9.960784313725489,-19.118279569892476,-33.824120603015075,-12.47321428571429,-6.3049645390070905,30.369565217391305,6.131034482758622,18.582745376438044,132.93052777112055,5.005473352267717,23.43019898728027,13.097628907228552,128.48749588096152,1
-0.6348557146103209,-4.175621491579792,-10.38001348163129,25.562444483922548,120.18683932346721,-125.09362850971922,114.64339233358669,-30.480000000000004,-9.960784313725489,-19.118279569892476,-33.824120603015075,-12.47321428571429,-6.3049645390070905,30.369565217391305,6.131034482758622,18.582745376438044,132.93052777112055,5.063496895940467,24.33326702628375,13.372693152377876,121.06614813522512,1
-0.6348557146103209,-4.175621491579792,-10.38001348163129,25.562444483922548,120.18683932346721,-125.09362850971922,114.64339233358669,-23.70666666666667,-11.205882352941174,-17.752688172043015,-32.54773869346734,-5.669642857142861,0.9007092198581574,31.75,4.379310344827587,15.98907978836835,153.86895451950826,5.063496895940467,24.33326702628375,13.372693152377876,121.06614813522512,1
-0.6348557146103209,-4.175621491579792,-10.38001348163129,25.562444483922548,120.18683932346721,-125.09362850971922,114.64339233358669,-20.320000000000007,-4.980392156862743,-17.752688172043015,-28.718592964824122,-6.803571428571432,-2.7021276595744665,35.891304347826086,13.13793103448276,16.28832597052308,138.5038228000664,5.063496895940467,24.33326702628375,13.372693152377876,121.06614813522512,1
-0.9811406498523113,-4.582999198075381,-10.016177957532873,25.562444483922548,120.08615221987316,-125.14848812095033,114.61581062004558,-20.320000000000007,-4.980392156862743,-17.752688172043015,-28.718592964824122,-6.803571428571432,-2.7021276595744665,35.891304347826086,13.13793103448276,16.28832597052308,138.5038228000664,5.1934392684868556,20.68745259746788,13.387207213176934,118.55715980726984,1
-0.9811406498523113,-4.582999198075381,-10.016177957532873,25.562444483922548,120.08615221987316,-125.14848812095033,114.61581062004558,-27.09333333333334,-11.205882352941174,-19.118279569892476,-33.824120603015075,-5.669642857142861,0.9007092198581574,38.65217391304348,7.882758620689657,18.043362558739528,193.3973368846377,5.1934392684868556,20.68745259746788,13.387207213176934,118.55715980726984,1
-1.4717109747784645,-5.143143544506817,-9.716548702393002,25.607567951678845,119.78409090909088,-125.23077753779698,114.61581062004558,-27.09333333333334,-11.205882352941174,-19.118279569892476,-33.824120603015075,-5.669642857142861,0.9007092198581574,38.65217391304348,7.882758620689657,18.043362558739528,193.3973368846377,5.443801073892761,17.062133501156357,13.489086732859555,115.3721989727019,1
-1.4717109747784645,-5.143143544506817,-9.716548702393002,25.607567951678845,119.78409090909088,-125.23077753779698,114.61581062004558,-33.866666666666674,-14.941176470588234,-17.752688172043015,-28.718592964824122,-3.4017857142857184,-4.503546099290778,24.847826086956523,-4.379310344827584,16.55144906493533,140.99264990207573,5.443801073892761,17.062133501156357,13.489086732859555,115.3721989727019,1
-1.4717109747784645,-5.143143544506817,-9.716548702393002,25.607567951678845,119.78409090909088,-125.23077753779698,114.61581062004558,-22.01333333333334,-2.490196078431371,-8.193548387096778,-32.54773869346734,-7.9375000000000036,2.7021276595744697,31.75,2.627586206896553,13.782753794849981,168.97644889158641,5.443801073892761,17.062133501156357,13.489086732859555,115.3721989727019,1
-1.933424221767785,-5.143143544506817,-9.352713178294586,25.833185290460165,119.3813424947146,-125.32678185745141,114.58822890650448,-22.01333333333334,-2.490196078431371,-8.193548387096778,-32.54773869346734,-7.9375000000000036,2.7021276595744697,31.75,2.627586206896553,13.782753794849981,168.97644889158641,5.476426981523062,13.844770542152158,13.443014004420524,119.56737749847795,1
-1.933424221767785,-5.143143544506817,-9.352713178294586,25.833185290460165,119.3813424947146,-125.32678185745141,114.58822890650448,-22.01333333333334,-7.470588235294116,-15.02150537634409,-24.889447236180906,-4.53571428571429,6.304964539007093,33.130434782608695,9.634482758620692,15.375058818387902,106.45164571420621,5.476426981523062,13.844770542152158,13.443014004420524,119.56737749847795,1
-1.933424221767785,-5.143143544506817,-9.352713178294586,25.833185290460165,119.3813424947146,-125.32678185745141,114.58822890650448,-23.70666666666667,-12.450980392156861,-19.118279569892476,-29.994974874371863,-10.205357142857146,0.9007092198581574,30.369565217391305,6.131034482758622,16.609695945744136,120.00639430724208,5.476426981523062,13.844770542152158,13.443014004420524,119.56737749847795,1
-1.3562826630311342,-5.7032878909382525,-8.96747556454332,26.013679161485186,118.87790697674416,-125.47764578833694,114.69855576066888,-23.70666666666667,-12.450980392156861,-19.118279569892476,-29.994974874371863,-10.205357142857146,0.9007092198581574,30.369565217391305,6.131034482758622,16.609695945744136,120.00639430724208,5.3423487061709025,14.580272167332765,13.561480872322255,118.95666196660302,1
-1.3562826630311342,-5.7032878909382525,-8.96747556454332,26.013679161485186,118.87790697674416,-125.47764578833694,114.69855576066888,-30.480000000000004,-12.450980392156861,-19.118279569892476,-35.10050251256282,-14.741071428571432,-4.503546099290778,26.22826086956522,2.627586206896553,18.15627838486702,139.54494808712553,5.3423487061709025,14.580272167332765,13.561480872322255,118.95666196660302,1
-1.3562826630311342,-5.7032878909382525,-8.96747556454332,26.013679161485186,118.87790697674416,-125.47764578833694,114.69855576066888,-22.01333333333334,-4.980392156862743,-25.946236559139788,-33.824120603015075,-6.803571428571432,-2.7021276595744665,33.130434782608695,11.386206896551725,17.59830292745716,161.41840623806274,5.3423487061709025,14.580272167332765,13.561480872322255,118.95666196660302,1
-0.11542831174733523,-6.8744987971130715,-8.646444219750602,25.968555693728945,118.50872093023253,-125.6696544276458,114.8916277554566,-22.01333333333334,-4.980392156862743,-25.946236559139788,-33.824120603015075,-6.803571428571432,-2.7021276595744665,33.130434782608695,11.386206896551725,17.59830292745716,161.41840623806274,5.212123776203669,20.267176138258854,13.829832903530871,111.29639087815707,1
-0.11542831174733523,-6.8744987971130715,-8.646444219750602,25.968555693728945,118.50872093023253,-125.6696544276458,114.8916277554566,-28.786666666666672,-8.715686274509803,-16.38709677419355,-35.10050251256282,-6.803571428571432,2.7021276595744697,27.608695652173914,2.627586206896553,16.09149164689365,165.20901684566223,5.212123776203669,20.267176138258854,13.829832903530871,111.29639087815707,1
-0.11542831174733523,-6.8744987971130715,-8.646444219750602,25.968555693728945,118.50872093023253,-125.6696544276458,114.8916277554566,-28.786666666666672,-11.205882352941174,-19.118279569892476,-29.994974874371863,-3.4017857142857184,-2.7021276595744665,28.98913043478261,0.8758620689655192,15.634338667685064,160.57160022411043,5.212123776203669,20.267176138258854,13.829832903530871,111.29639087815707,1
-0.028857077936837616,-7.994787489975943,-8.304010785305033,25.923432225972647,118.07241014799155,-125.8890928725702,115.00195460962101,-28.786666666666672,-11.205882352941174,-19.118279569892476,-29.994974874371863,-3.4017857142857184,-2.7021276595744665,28.98913043478261,0.8758620689655192,15.634338667685064,160.57160022411043,5.442551784405938,22.00497254273221,14.074076833751207,105.32932216996902,1
-0.028857077936837616,-7.994787489975943,-8.304010785305033,25.923432225972647,118.07241014799155,-125.8890928725702,115.00195460962101,-28.786666666666672,-12.450980392156861,-32.7741935483871,-35.10050251256282,1.1339285714285676,9.907801418439718,28.98913043478261,9.634482758620692,19.847210787880634,167.32016939429073,5.442551784405938,22.00497254273221,14.074076833751207,105.32932216996902,1
-0.028857077936837616,-7.994787489975943,-8.304010785305033,25.923432225972647,118.07241014799155,-125.8890928725702,115.00195460962101,-28.786666666666672,-12.450980392156861,-15.02150537634409,-36.37688442211056,-20.410714285714292,-13.510638297872338,23.467391304347828,0.8758620689655192,18.86258035177227,119.55244688321191,5.442551784405938,22.00497254273221,14.074076833751207,105.32932216996902,1
-0.14428538968416776,-9.726142742582198,-8.496629592180666,25.878308758216406,117.5689746300211,-126.10853131749461,114.9743728960799,-28.786666666666672,-12.450980392156861,-15.02150537634409,-36.37688442211056,-20.410714285714292,-13.510638297872338,23.467391304347828,0.8758620689655192,18.86258035177227,119.55244688321191,6.122352574815676,27.1808910992122,14.700360364326423,94.08782336910332,1
-0.14428538968416776,-9.726142742582198,-8.496629592180666,25.878308758216406,117.5689746300211,-126.10853131749461,114.9743728960799,-38.94666666666667,-18.676470588235293,-30.043010752688176,-32.54773869346734,-2.267857142857147,4.503546099290782,31.75,2.627586206896553,20.170359518762744,230.46225357948666,6.122352574815676,27.1808910992122,14.700360364326423,94.08782336910332,1
-0.14428538968416776,-9.726142742582198,-8.496629592180666,25.878308758216406,117.5689746300211,-126.10853131749461,114.9743728960799,-28.786666666666672,-7.470588235294116,-13.655913978494628,-26.165829145728644,-11.339285714285719,-6.3049645390070905,31.75,6.131034482758622,16.450535345279437,114.94851783391609,6.122352574815676,27.1808910992122,14.700360364326423,94.08782336910332,1
0.3174278573051528,-10.693664795509221,-8.496629592180666,25.878308758216406,117.06553911205071,-126.30053995680346,114.8364643283744,-28.786666666666672,-7.470588235294116,-13.655913978494628,-26.165829145728644,-11.339285714285719,-6.3049645390070905,31.75,6.131034482758622,16.450535345279437,114.94851783391609,6.5025740816650135,33.95978896939401,15.022867715302098,89.58719109830758,1
0.3174278573051528,-10.693664795509221,-8.496629592180666,25.878308758216406,117.06553911205071,-126.30053995680346,114.8364643283744,-38.94666666666667,-31.127450980392155,-13.655913978494628,-33.824120603015075,-6.803571428571432,2.7021276595744697,34.51086956521739,6.131034482758622,20.962719420586303,226.14444373360564,6.5025740816650135,33.95978896939401,15.022867715302098,89.58719109830758,1
0.3174278573051528,-10.693664795509221,-8.496629592180666,25.878308758216406,117.06553911205071,-126.30053995680346,114.8364643283744,-40.64000000000001,-18.676470588235293,-19.118279569892476,-36.37688442211056,-20.410714285714292,-22.517730496453897,23.467391304347828,11.386206896551725,24.07420969541326,93.81078777457023,6.5025740816650135,33.95978896939401,15.022867715302098,89.58719109830758,1
-0.028857077936837616,-9.827987169206095,-8.02578361981801,25.833185290460165,116.62922832980973,-126.49254859611231,114.69855576066888,-40.64000000000001,-18.676470588235293,-19.118279569892476,-36.37688442211056,-20.410714285714292,-22.517730496453897,23.467391304347828,11.386206896551725,24.07420969541326,93.81078777457023,5.960875955653648,27.203620382548202,14.562318693161425,96.08630979893513,1
-0.028857077936837616,-9.827987169206095,-8.02578361981801,25.833185290460165,116.62922832980973,-126.49254859611231,114.69855576066888,-22.01333333333334,-9.960784313725489,-23.215053763440864,-42.75879396984925,-13.607142857142861,-9.907801418439714,28.98913043478261,6.131034482758622,19.572884321684093,149.65042558568567,5.960875955653648,27.203620382548202,14.562318693161425,96.08630979893513,1
-0.028857077936837616,-9.827987169206095,-8.02578361981801,25.833185290460165,116.62922832980973,-126.49254859611231,114.69855576066888,-23.70666666666667,-13.696078431372548,-9.55913978494624,-23.61306532663317,18.14285714285714,27.921985815602838,42.79347826086956,11.386206896551725,21.35243479068749,117.265555830528,5.960875955653648,27.203620382548202,14.562318693161425,96.08630979893513,1
-3.8091342876619,-8.300320769847634,-7.233906302662634,26.464913839047824,115.6223572938689,-126.6159827213823,114.31241177109348,-23.70666666666667,-13.696078431372548,-9.55913978494624,-23.61306532663317,18.14285714285714,27.921985815602838,42.79347826086956,11.386206896551725,21.35243479068749,117.265555830528,6.447787120057389,5.50617653138692,13.999713637186028,116.82022200832685,1
-3.8091342876619,-8.300320769847634,-7.233906302662634,26.464913839047824,115.6223572938689,-126.6159827213823,114.31241177109348,-32.17333333333334,-9.960784313725489,-24.580645161290327,-31.2713567839196,-11.339285714285719,6.304964539007093,24.847826086956523,-11.386206896551723,18.983050353633725,106.99843069044424,6.447787120057389,5.50617653138692,13.999713637186028,116.82022200832685,1
-3.8091342876619,-8.300320769847634,-7.233906302662634,26.464913839047824,115.6223572938689,-126.6159827213823,114.31241177109348,-35.56,-18.676470588235293,-25.946236559139788,-26.165829145728644,-4.440892098500626e-15,26.120567375886527,38.65217391304348,14.889655172413795,23.251366594305942,149.16428449612113,6.447787120057389,5.50617653138692,13.999713637186028,116.82022200832685,1
-10.76369007043854,-2.6479550922213315,-5.757162116616122,28.856457630129682,113.50792811839324,-126.49254859611231,113.70561407318925,-35.56,-18.676470588235293,-25.946236559139788,-26.165829145728644,-4.440892098500626e-15,26.120567375886527,38.65217391304348,14.889655172413795,23.251366594305942,149.16428449612113,6.3896024264253315,16.76627411826825,12.420524946322379,205.0217044701203,1
-10.76369007043854,-2.6479550922213315,-5.757162116616122,28.856457630129682,113.50792811839324,-126.49254859611231,113.70561407318925,-33.866666666666674,-27.392156862745097,-34.13978494623656,-56.798994974874375,-61.23214285714286,-18.914893617021274,20.706521739130437,-9.634482758620688,32.83570555280475,327.45649454450216,6.3896024264253315,16.76627411826825,12.420524946322379,205.0217044701203,1
-10.76369007043854,-2.6479550922213315,-5.757162116616122,28.856457630129682,113.50792811839324,-126.49254859611231,113.70561407318925,-25.400000000000006,-9.960784313725489,9.559139784946233,-15.954773869346736,11.339285714285708,29.72340425531915,57.97826086956522,9.634482758620692,21.193766445726155,280.46649286680486,6.3896024264253315,16.76627411826825,12.420524946322379,205.0217044701203,1
-5.4828448079981875,10.337209302325581,-5.6287495786990345,32.150470776336874,112.19899577167018,-125.73822894168467,113.81594092735365,-25.400000000000006,-9.960784313725489,9.559139784946233,-15.954773869346736,11.339285714285708,29.72340425531915,57.97826086956522,9.634482758620692,21.193766445726155,280.46649286680486,7.149601229674268,84.201207207709,16.038809885787163,200.23161073130518,1
-5.4828448079981875,10.337209302325581,-5.6287495786990345,32.150470776336874,112.19899577167018,-125.73822894168467,113.81594092735365,-22.01333333333334,-4.980392156862743,32.77419354838709,10.849246231155774,-3.4017857142857184,-26.120567375886523,6.90217391304348,-6.1310344827586185,14.14659084446416,125.61751021219594,7.149601229674268,84.201207207709,16.038809885787163,200.23161073130518,1
-5.4828448079981875,10.337209302325581,-5.6287495786990345,32.150470776336874,112.19899577167018,-125.73822894168467,113.81594092735365,-42.33333333333334,-26.14705882352941,-17.752688172043015,-38.92964824120603,3.40178571428571,22.5177304964539,26.22826086956522,-4.379310344827584,22.711226999405525,200.82527875670954,7.149601229674268,84.201207207709,16.038809885787163,200.23161073130518,1
-5.569416041808685,19.350441058540497,-4.879676440849355,36.43720021318177,111.29281183932346,-124.38045356371491,113.67803235964814,-42.33333333333334,-26.14705882352941,-17.752688172043015,-38.92964824120603,3.40178571428571,22.5177304964539,26.22826086956522,-4.379310344827584,22.711226999405525,200.82527875670954,9.93317784706618,201.4289354421989,20.222439237523872,249.53961227844408,1
-5.569416041808685,19.350441058540497,-4.879676440849355,36.43720021318177,111.29281183932346,-124.38045356371491,113.67803235964814,-5.080000000000005,38.59803921568628,36.87096774193547,-52.969849246231156,13.607142857142854,-0.9007092198581546,22.086956521739133,39.41379310344828,26.190932238255165,345.77358852114577,9.93317784706618,201.4289354421989,20.222439237523872,249.53961227844408,1
-5.569416041808685,19.350441058540497,-4.879676440849355,36.43720021318177,111.29281183932346,-124.38045356371491,113.67803235964814,-50.800000000000004,-24.901960784313722,-46.43010752688172,-32.54773869346734,-12.47321428571429,-15.312056737588652,96.63043478260869,9.634482758620692,36.09124944614939,830.7908396715331,9.93317784706618,201.4289354421989,20.222439237523872,249.53961227844408,1
-20.6616678027721,18.993985565356855,-9.374115267947433,43.52158465091492,108.44001057082448,-122.41922246220302,111.47149527636006,-50.800000000000004,-24.901960784313722,-46.43010752688172,-32.54773869346734,-12.47321428571429,-15.312056737588652,96.63043478260869,9.634482758620692,36.09124944614939,830.7908396715331,16.343256212025462,417.4548051946906,23.963228494739734,310.03244778359175,1
-20.6616678027721,18.993985565356855,-9.374115267947433,43.52158465091492,108.44001057082448,-122.41922246220302,111.47149527636006,-22.01333333333334,2.4901960784313744,-4.0967741935483915,-24.889447236180906,15.874999999999996,11.709219858156029,-1.3804347826086953,-63.93793103448276,18.299042064592687,418.186088494446,16.343256212025462,417.4548051946906,23.963228494739734,310.03244778359175,1
-20.6616678027721,18.993985565356855,-9.374115267947433,43.52158465091492,108.44001057082448,-122.41922246220302,111.47149527636006,-6.7733333333333405,7.4705882352941195,-16.38709677419355,-47.8643216080402,-38.55357142857143,-18.914893617021274,13.804347826086957,9.634482758620692,19.925329447645197,230.37175361483088,16.343256212025462,417.4548051946906,23.963228494739734,310.03244778359175,1
-21.960236309929567,33.099438652766636,-21.830131445904968,52.32066086338608,106.19133192389006,-119.25107991360692,108.43750678683894,-6.7733333333333405,7.4705882352941195,-16.38709677419355,-47.8643216080402,-38.55357142857143,-18.914893617021274,13.804347826086957,9.634482758620692,19.925329447645197,230.37175361483088,25.629935469533724,1008.140400916379,35.750076987352564,237.6875087251526,1
-21.960236309929567,33.099438652766636,-21.830131445904968,52.32066086338608,106.19133192389006,-119.25107991360692,108.43750678683894,-27.09333333333334,-16.18627450980392,-55.98924731182796,-38.92964824120603,-21.54464285714286,6.304964539007093,59.35869565217391,44.66896551724138,33.75947149521706,364.4910912634009,25.629935469533724,1008.140400916379,35.750076987352564,237.6875087251526,1
-21.960236309929567,33.099438652766636,-21.830131445904968,52.32066086338608,106.19133192389006,-119.25107991360692,108.43750678683894,-15.240000000000006,-14.941176470588234,10.924731182795693,-19.78391959798995,2.267857142857139,-13.510638297872338,23.467391304347828,-7.882758620689653,13.502309077142606,44.04109120337405,25.629935469533724,1008.140400916379,35.750076987352564,237.6875087251526,1
-4.645989547830044,52.34803528468324,-37.00421300977419,59.67578610765685,108.70850951374206,-114.39600431965444,104.87946574003689,-15.240000000000006,-14.941176470588234,10.924731182795693,-19.78391959798995,2.267857142857139,-13.510638297872338,23.467391304347828,-7.882758620689653,13.502309077142606,44.04109120337405,31.332745947429157,2046.5329612494374,49.67601146737143,133.85484014337035,1
-4.645989547830044,52.34803528468324,-37.00421300977419,59.67578610765685,108.70850951374206,-114.39600431965444,104.87946574003689,-22.01333333333334,2.4901960784313744,-17.752688172043015,-17.231155778894475,13.607142857142854,0.9007092198581574,22.086956521739133,6.131034482758622,12.77665205552512,72.61496169079587,31.332745947429157,2046.5329612494374,49.67601146737143,133.85484014337035,1
-4.645989547830044,52.34803528468324,-37.00421300977419,59.67578610765685,108.70850951374206,-114.39600431965444,104.87946574003689,-23.70666666666667,2.4901960784313744,-39.602150537634415,-54.2462311557789,-13.607142857142861,6.304964539007093,17.945652173913047,11.386206896551725,21.16115136314076,310.4907829522978,31.332745947429157,2046.5329612494374,49.67601146737143,133.85484014337035,1
-6.665985003408321,66.14795509222132,-46.61375126390294,64.00763901225793,113.30655391120507,-109.7877969762419,102.03854924530349,-23.70666666666667,2.4901960784313744,-39.602150537634415,-54.2462311557789,-13.607142857142861,6.304964539007093,17.945652173913047,11.386206896551725,21.16115136314076,310.4907829522978,39.80923045317753,3268.816053632975,58.92311512279406,114.78556718846868,1
-6.665985003408321,66.14795509222132,-46.61375126390294,64.00763901225793,113.30655391120507,-109.7877969762419,102.03854924530349,-42.33333333333334,-42.33333333333333,-39.602150537634415,-40.20603015075377,7.9374999999999964,-0.9007092198581546,37.27173913043478,-18.39310344827586,28.622237394202955,286.6459425607171,39.80923045317753,3268.816053632975,58.92311512279406,114.78556718846868,1
-6.665985003408321,66.14795509222132,-46.61375126390294,64.00763901225793,113.30655391120507,-109.7877969762419,102.03854924530349,-3.3866666666666703,9.96078431372549,5.462365591397845,-27.442211055276385,-4.440892098500626e-15,-9.907801418439714,13.804347826086957,2.627586206896553,9.073970384811203,75.79033849744944,39.80923045317753,3268.816053632975,58.92311512279406,114.78556718846868,1
-38.293342422176785,60.240978348035284,-64.37748567576678,71.22739385325991,115.08535940803381,-103.91781857451404,93.62612661526765,-3.3866666666666703,9.96078431372549,5.462365591397845,-27.442211055276385,-4.440892098500626e-15,-9.907801418439714,13.804347826086957,2.627586206896553,9.073970384811203,75.79033849744944,54.30393548199296,4319.85941242875,65.28195262568732,30.788876760983957,1
-38.293342422176785,60.240978348035284,-64.37748567576678,71.22739385325991,115.08535940803381,-103.91781857451404,93.62612661526765,-35.56,-24.901960784313722,-30.043010752688176,-28.718592964824122,7.9374999999999964,13.510638297872342,57.97826086956522,13.13793103448276,26.47348683796829,254.9746433971937,54.30393548199296,4319.85941242875,65.28195262568732,30.788876760983957,1
-38.293342422176785,60.240978348035284,-64.37748567576678,71.22739385325991,115.08535940803381,-103.91781857451404,93.62612661526765,-32.17333333333334,-16.18627450980392,-27.311827956989248,-33.824120603015075,-4.440892098500626e-15,-4.503546099290778,35.891304347826086,37.66206896551724,23.44405947697196,216.71909102081398,54.30393548199296,4319.85941242875,65.28195262568732,30.788876760983957,1
-80.54010452169962,57.23656776263031,-81.75598247387934,82.50826079232553,111.93049682875261,-96.40205183585314,79.25605386035399,-32.17333333333334,-16.18627450980392,-27.311827956989248,-33.824120603015075,-4.440892098500626e-15,-4.503546099290778,35.891304347826086,37.66206896551724,23.44405947697196,216.71909102081398,73.17755158606975,6383.803134364483,73.8336036762784,206.73768150629434,1
-80.54010452169962,57.23656776263031,-81.75598247387934,82.50826079232553,111.93049682875261,-96.40205183585314,79.25605386035399,-3.3866666666666703,21.166666666666668,-1.3655913978494674,-24.889447236180906,-19.27678571428572,4.503546099290782,38.65217391304348,25.400000000000002,17.330109711747962,172.74457637924579,73.17755158606975,6383.803134364483,73.8336036762784,206.73768150629434,1
-80.54010452169962,57.23656776263031,-81.75598247387934,82.50826079232553,111.93049682875261,-96.40205183585314,79.25605386035399,-22.01333333333334,-4.980392156862743,-12.290322580645164,-15.954773869346736,7.9374999999999964,-8.106382978723403,26.22826086956522,7.882758620689657,13.174215551145782,57.89932124231988,73.17755158606975,6383.803134364483,73.8336036762784,206.73768150629434,1
-111.64803453760508,63.041700080192456,-100.11897539602293,95.63918990939777,105.21802325581393,-86.85647948164147,60.27983494407643,-22.01333333333334,-4.980392156862743,-12.290322580645164,-15.954773869346736,7.9374999999999964,-8.106382978723403,26.22826086956522,7.882758620689657,13.174215551145782,57.89932124231988,91.60290333794016,9545.138101230252,86.2666217952044,409.5648610028689,1
-111.64803453760508,63.041700080192456,-100.11897539602293,95.63918990939777,105.21802325581393,-86.85647948164147,60.27983494407643,-27.09333333333334,-7.470588235294116,-21.8494623655914,-40.20603015075377,-4.440892098500626e-15,-2.7021276595744665,33.130434782608695,13.13793103448276,18.198738445204818,215.9660075007837,91.60290333794016,9545.138101230252,86.2666217952044,409.5648610028689,1
-111.64803453760508,63.041700080192456,-100.11897539602293,95.63918990939777,105.21802325581393,-86.85647948164147,60.27983494407643,-23.70666666666667,1.2450980392156872,-27.311827956989248,-32.54773869346734,-10.205357142857146,-2.7021276595744665,22.086956521739133,-7.882758620689653,15.961066412649917,141.74639513101397,91.60290333794016,9545.138101230252,86.2666217952044,409.5648610028689,1
-113.37945921381504,80.8644747393745,-117.71149309066398,105.92734055782552,99.07610993657505,-75.26738660907128,39.455641220545104,-23.70666666666667,1.2450980392156872,-27.311827956989248,-32.54773869346734,-10.205357142857146,-2.7021276595744665,22.086956521739133,-7.882758620689653,15.961066412649917,141.74639513101397,103.98514234795117,12863.647899126281,101.50110279595465,354.1193758885245,1
-113.37945921381504,80.8644747393745,-117.71149309066398,105.92734055782552,99.07610993657505,-75.26738660907128,39.455641220545104,-25.400000000000006,-7.470588235294116,-19.118279569892476,-33.824120603015075,-15.875000000000004,-6.3049645390070905,24.847826086956523,7.882758620689657,17.59044220685687,100.92581830812158,103.98514234795117,12863.647899126281,101.50110279595465,354.1193758885245,1
-113.37945921381504,80.8644747393745,-117.71149309066398,105.92734055782552,99.07610993657505,-75.26738660907128,39.455641220545104,-15.240000000000006,9.96078431372549,-16.38709677419355,-31.2713567839196,-13.607142857142861,-4.503546099290778,30.369565217391305,7.882758620689657,16.152781333294158,97.21362867105458,103.98514234795117,12863.647899126281,101.50110279595465,354.1193758885245,1
-102.84662576687117,100.214915797915,-123.04061341422313,112.15437910818974,94.24312896405917,-62.55367170626351,19.76229775219892,-15.240000000000006,9.96078431372549,-16.38709677419355,-31.2713567839196,-13.607142857142861,-4.503546099290778,30.369565217391305,7.882758620689657,16.152781333294158,97.21362867105458,108.70071832633643,15247.469687260107,111.80330277344262,130.34555886239832,1
-102.84662576687117,100.214915797915,-123.04061341422313,112.15437910818974,94.24312896405917,-62.55367170626351,19.76229775219892,-27.09333333333334,-2.490196078431371,-17.752688172043015,-28.718592964824122,-4.53571428571429,2.7021276595744697,35.891304347826086,13.13793103448276,16.54023598452868,168.59931615248334,108.70071832633643,15247.469687260107,111.80330277344262,130.34555886239832,1
-102.84662576687117,100.214915797915,-123.04061341422313,112.15437910818974,94.24312896405917,-62.55367170626351,19.76229775219892,-28.786666666666672,-11.205882352941174,-25.946236559139788,-40.20603015075377,-15.875000000000004,-0.9007092198581546,23.467391304347828,0.8758620689655192,18.407972290334115,191.06585278745735,108.70071832633643,15247.469687260107,111.80330277344262,130.34555886239832,1
-105.90547602817541,108.26062550120288,-126.16531850353894,115.08740451234684,88.73890063424943,-49.839956803455735,1.5307851015311087,-28.786666666666672,-11.205882352941174,-25.946236559139788,-40.20603015075377,-15.875000000000004,-0.9007092198581546,23.467391304347828,0.8758620689655192,18.407972290334115,191.06585278745735,113.44380667763907,16872.18391398881,116.5044495056962,81.65052026185788,1
-105.90547602817541,108.26062550120288,-126.16531850353894,115.08740451234684,88.73890063424943,-49.839956803455735,1.5307851015311087,-23.70666666666667,2.4901960784313744,-23.215053763440864,-29.994974874371863,4.535714285714281,11.709219858156029,44.17391304347826,27.151724137931033,20.8721828385238,195.41278276462052,113.44380667763907,16872.18391398881,116.5044495056962,81.65052026185788,1
-105.90547602817541,108.26062550120288,-126.16531850353894,115.08740451234684,88.73890063424943,-49.839956803455735,1.5307851015311087,-25.400000000000006,-8.715686274509803,-16.38709677419355,-35.10050251256282,-12.47321428571429,-11.709219858156027,13.804347826086957,-21.89655172413793,18.185827406920172,76.94525105400044,113.44380667763907,16872.18391398881,116.5044495056962,81.65052026185788,1
-119.61258804817088,109.3299919807538,-127.0,116.8020962870848,79.74418604651163,-36.46792656587474,-16.287001846020217,-25.400000000000006,-8.715686274509803,-16.38709677419355,-35.10050251256282,-12.47321428571429,-11.709219858156027,13.804347826086957,-21.89655172413793,18.185827406920172,76.94525105400044,118.64752667630823,18053.523985878295,117.71069608927952,78.67646105046747,1
-119.61258804817088,109.3299919807538,-127.0,116.8020962870848,79.74418604651163,-36.46792656587474,-16.287001846020217,-33.866666666666674,-23.65686274509804,-23.215053763440864,-33.824120603015075,-11.339285714285719,0.9007092198581574,27.608695652173914,-0.8758620689655157,19.410907054187994,181.10564401640525,118.64752667630823,18053.523985878295,117.71069608927952,78.67646105046747,1
-119.61258804817088,109.3299919807538,-127.0,116.8020962870848,79.74418604651163,-36.46792656587474,-16.287001846020217,-22.01333333333334,-4.980392156862743,-19.118279569892476,-33.824120603015075,-2.267857142857147,4.503546099290782,31.75,13.13793103448276,16.44943249246679,151.4847285031935,118.64752667630823,18053.523985878295,117.71069608927952,78.67646105046747,1
-127.0,115.4915797914996,-122.8051904280418,117.11796056137854,68.16516913319236,-22.64330453563716,-32.339559126941055,-22.01333333333334,-4.980392156862743,-19.118279569892476,-33.824120603015075,-2.267857142857147,4.503546099290782,31.75,13.13793103448276,16.44943249246679,151.4847285031935,121.76559007318046,19267.518899031187,118.4715769269733,14.746433084640284,1
-127.0,115.4915797914996,-122.8051904280418,117.11796056137854,68.16516913319236,-22.64330453563716,-32.339559126941055,-28.786666666666672,-8.715686274509803,-12.290322580645164,-33.824120603015075,-10.205357142857146,4.503546099290782,30.369565217391305,0.8758620689655192,16.196390831667685,164.0975412398556,121.76559007318046,19267.518899031187,118.4715769269733,14.746433084640284,1
-127.0,115.4915797914996,-122.8051904280418,117.11796056137854,68.16516913319236,-22.64330453563716,-32.339559126941055,-33.866666666666674,-17.431372549019606,-20.48387096774194,-37.653266331658294,-5.669642857142861,-0.9007092198581546,20.706521739130437,-2.6275862068965505,17.417454567264315,189.97712650457566,121.76559007318046,19267.518899031187,118.4715769269733,14.746433084640284,1
-122.44058168598046,123.84282277465918,-117.69009100101113,114.77154023805298,56.08271670190274,-8.750107991360704,-46.1579976110327,-33.866666666666674,-17.431372549019606,-20.48387096774194,-37.653266331658294,-5.669642857142861,-0.9007092198581546,20.706521739130437,-2.6275862068965505,17.417454567264315,189.97712650457566,121.32449848721693,19836.038485239398,118.76815133790775,21.443702282226443,1
-122.44058168598046,123.84282277465918,-117.69009100101113,114.77154023805298,56.08271670190274,-8.750107991360704,-46.1579976110327,-32.17333333333334,-16.18627450980392,-25.946236559139788,-35.10050251256282,-18.142857142857146,-11.709219858156027,27.608695652173914,2.627586206896553,21.186838221865436,120.96111395251273,121.32449848721693,19836.038485239398,118.76815133790775,21.443702282226443,1
-122.44058168598046,123.84282277465918,-117.69009100101113,114.77154023805298,56.08271670190274,-8.750107991360704,-46.1579976110327,-28.786666666666672,-9.960784313725489,-16.38709677419355,-35.10050251256282,-11.339285714285719,2.7021276595744697,28.98913043478261,21.896551724137932,19.395268224991156,124.96710546575241,121.32449848721693,19836.038485239398,118.76815133790775,21.443702282226443,1
-114.0431720063622,126.99999999999999,-110.71300977418268,109.6274649138391,44.33588794926004,4.7316414686824935,-57.687153871212956,-28.786666666666672,-9.960784313725489,-16.38709677419355,-35.10050251256282,-11.339285714285719,2.7021276595744697,28.98913043478261,21.896551724137932,19.395268224991156,124.96710546575241,117.25206059351495,19103.395961213664,115.7801582293406,94.7082389299296,1
-114.0431720063622,126.99999999999999,-110.71300977418268,109.6274649138391,44.33588794926004,4.7316414686824935,-57.687153871212956,-20.320000000000007,-3.735294117647057,-13.655913978494628,-29.994974874371863,-9.071428571428577,-0.9007092198581546,31.75,7.882758620689657,14.663884922811242,135.1576621584702,117.25206059351495,19103.395961213664,115.7801582293406,94.7082389299296,1
-114.0431720063622,126.99999999999999,-110.71300977418268,109.6274649138391,44.33588794926004,4.7316414686824935,-57.687153871212956,-28.786666666666672,-8.715686274509803,-19.118279569892476,-32.54773869346734,-17.008928571428577,-18.914893617021274,28.98913043478261,11.386206896551725,20.68344134054006,74.87907854726801,117.25206059351495,19103.395961213664,115.7801582293406,94.7082389299296,1
-111.50374914792093,123.28267842822774,-107.35288169868555,102.18209273405586,31.81712473572938,17.8156587473002,-67.83722445433816,-28.786666666666672,-8.715686274509803,-19.118279569892476,-32.54773869346734,-17.008928571428577,-18.914893617021274,28.98913043478261,11.386206896551725,20.68344134054006,74.87907854726801,114.04643642494473,18055.776311601043,110.93921762032305,120.9550331663934,1
-111.50374914792093,123.28267842822774,-107.35288169868555,102.18209273405586,31.81712473572938,17.8156587473002,-67.83722445433816,-35.56,-8.715686274509803,-13.655913978494628,-35.10050251256282,-5.669642857142861,-4.503546099290778,31.75,-6.1310344827586185,17.63579077559494,195.55942594834852,114.04643642494473,18055.776311601043,110.93921762032305,120.9550331663934,1
-111.50374914792093,123.28267842822774,-107.35288169868555,102.18209273405586,31.81712473572938,17.8156587473002,-67.83722445433816,-16.933333333333337,-2.490196078431371,-23.215053763440864,-32.54773869346734,-4.440892098500626e-15,11.709219858156029,33.130434782608695,0.8758620689655192,15.112729822300395,185.65353158069829,114.04643642494473,18055.776311601043,110.93921762032305,120.9550331663934,1
