Gyro 0,Gyro 1,Gyro 2,Orientation 0,Orientation 1,Orientation 2,Orientation 3,Sensor 0,Sensor 1,Sensor 2,Sensor 3,Sensor 4,Sensor 5,Sensor 6,Sensor 7,Sensor Mean,Sensor Variance,Gyro Mean,Gyro Variance,Orientation Mean,Orientation Variance,Label
-8.972826086956523,20.399505766062603,27.02089510094593,-127.0,126.99999999999999,-127.0,97.98132242672122,-74.44827586206895,-91.44,-50.493975903614455,8.193548387096783,28.222222222222204,17.584615384615386,-27.214285714285715,6.6842105263157805,38.03514175002741,976.8896708125741,18.79774231798835,367.02077336007443,58.14013362233617,3567.2215973433135,1
-8.972826086956523,20.399505766062603,27.02089510094593,-127.0,126.99999999999999,-127.0,97.98132242672122,-21.89655172413792,-38.1,-29.07228915662651,45.06451612903227,64.50793650793649,76.19999999999999,36.28571428571428,26.73684210526315,42.23298123858883,362.47223046634565,18.79774231798835,367.02077336007443,58.14013362233617,3567.2215973433135,1
-8.972826086956523,20.399505766062603,27.02089510094593,-127.0,126.99999999999999,-127.0,97.98132242672122,-30.655172413793096,-63.5,-65.79518072289156,4.096774193548399,26.206349206349188,21.49230769230769,45.357142857142854,13.368421052631572,33.80891851733304,508.30175837808565,18.79774231798835,367.02077336007443,58.14013362233617,3567.2215973433135,1
-8.972826086956523,20.399505766062603,27.02089510094593,-127.0,126.99999999999999,-127.0,97.98132242672122,-48.172413793103445,-60.96,-41.31325301204819,16.38709677419356,38.30158730158728,25.4,18.14285714285714,13.368421052631572,32.755703634552646,292.6550625126843,18.79774231798835,367.02077336007443,58.14013362233617,3567.2215973433135,1
-9.694416996047433,20.608731466227347,26.913313567697305,-126.95220173127586,126.99999999999999,-126.93030115936064,98.36223585548741,-48.172413793103445,-60.96,-41.31325301204819,16.38709677419356,38.30158730158728,25.4,18.14285714285714,13.368421052631572,32.755703634552646,292.6550625126843,19.072154009990694,383.02574987142873,58.15808225506684,3559.410094748736,1
-9.694416996047433,20.608731466227347,26.913313567697305,-126.95220173127586,126.99999999999999,-126.93030115936064,98.36223585548741,-21.89655172413792,-40.64,-22.951807228915666,36.870967741935495,50.39682539682538,33.215384615384615,81.64285714285714,20.052631578947363,38.45837817862545,413.67334551180244,19.072154009990694,383.02574987142873,58.15808225506684,3559.410094748736,1
-9.694416996047433,20.608731466227347,26.913313567697305,-126.95220173127586,126.99999999999999,-126.93030115936064,98.36223585548741,-13.137931034482751,-35.56,-19.891566265060245,32.7741935483871,40.3174603174603,52.753846153846155,13.607142857142854,26.73684210526315,29.347372785205323,189.32480584441268,19.072154009990694,383.02574987142873,58.15808225506684,3559.410094748736,1
-11.012104743083006,19.405683690280068,26.124382323874066,-126.80880692510351,126.9228198116074,-126.93030115936064,98.6046353101568,-13.137931034482751,-35.56,-19.891566265060245,32.7741935483871,40.3174603174603,52.753846153846155,13.607142857142854,26.73684210526315,29.347372785205323,189.32480584441268,18.847390252412378,391.583572696694,57.44629097975255,3619.6541915340645,1
-11.012104743083006,19.405683690280068,26.124382323874066,-126.80880692510351,126.9228198116074,-126.93030115936064,98.6046353101568,-21.89655172413792,-50.800000000000004,-35.19277108433735,32.7741935483871,44.34920634920633,44.93846153846154,-22.67857142857143,26.73684210526315,34.920824722295606,118.93709135972601,18.847390252412378,391.583572696694,57.44629097975255,3619.6541915340645,1
-11.012104743083006,19.405683690280068,26.124382323874066,-126.80880692510351,126.9228198116074,-126.93030115936064,98.6046353101568,-65.68965517241378,-81.28,-53.55421686746988,28.67741935483872,46.365079365079346,29.307692307692307,9.071428571428568,26.73684210526315,42.58529171802322,558.5388730227976,18.847390252412378,391.583572696694,57.44629097975255,3619.6541915340645,1
-9.725790513833994,20.033360790774303,25.263730057885077,-126.76100865637937,126.9228198116074,-126.80832818824176,98.84703476482619,-65.68965517241378,-81.28,-53.55421686746988,28.67741935483872,46.365079365079346,29.307692307692307,9.071428571428568,26.73684210526315,42.58529171802322,558.5388730227976,18.340960454164456,356.2050664799431,57.35269983501292,3619.974190749217,1
-9.725790513833994,20.033360790774303,25.263730057885077,-126.76100865637937,126.9228198116074,-126.80832818824176,98.84703476482619,-48.172413793103445,-53.34,-38.25301204819277,40.96774193548388,46.365079365079346,37.12307692307692,-63.5,13.368421052631572,42.63621813969599,214.77388412383894,18.340960454164456,356.2050664799431,57.35269983501292,3619.974190749217,1
-9.725790513833994,20.033360790774303,25.263730057885077,-126.76100865637937,126.9228198116074,-126.80832818824176,98.84703476482619,-21.89655172413792,-53.34,-59.674698795180724,20.483870967741943,46.365079365079346,33.215384615384615,127.0,13.368421052631572,46.91800081501951,1322.2256944027993,18.340960454164456,356.2050664799431,57.35269983501292,3619.974190749217,1
-9.192440711462453,20.765650741350907,25.156148524636453,-126.76100865637937,126.99999999999999,-126.65150579680319,99.12406271301978,-21.89655172413792,-53.34,-59.674698795180724,20.483870967741943,46.365079365079346,33.215384615384615,127.0,13.368421052631572,46.91800081501951,1322.2256944027993,18.371413325816604,349.431549465069,57.56093597412224,3596.306662118511,1
-9.192440711462453,20.765650741350907,25.156148524636453,-126.76100865637937,126.99999999999999,-126.65150579680319,99.12406271301978,-30.655172413793096,-50.800000000000004,-47.433734939759034,20.483870967741943,46.365079365079346,44.93846153846154,-117.92857142857142,20.052631578947363,47.33219027904422,963.6685407690251,18.371413325816604,349.431549465069,57.56093597412224,3596.306662118511,1
-10.321887351778658,20.504118616144975,25.227869546802204,-126.61761385020702,126.98070495290183,-126.49468340536463,99.29720518064079,-30.655172413793096,-50.800000000000004,-47.433734939759034,20.483870967741943,46.365079365079346,44.93846153846154,-117.92857142857142,20.052631578947363,47.33219027904422,963.6685407690251,18.68462517157528,372.72361372292437,57.44986733771807,3593.711323925667,1
-10.321887351778658,20.504118616144975,25.227869546802204,-126.61761385020702,126.98070495290183,-126.49468340536463,99.29720518064079,-48.172413793103445,-71.12,-59.674698795180724,16.38709677419356,32.25396825396824,37.12307692307692,72.57142857142857,20.052631578947363,44.66941433623735,476.07877671433835,18.68462517157528,372.72361372292437,57.44986733771807,3593.711323925667,1
-10.321887351778658,20.504118616144975,25.227869546802204,-126.61761385020702,126.98070495290183,-126.49468340536463,99.29720518064079,-4.37931034482758,-40.64,-10.71084337349398,28.67741935483872,36.28571428571426,56.661538461538456,-81.64285714285714,46.78947368421052,38.22339458093508,614.5250473642216,18.68462517157528,372.72361372292437,57.44986733771807,3593.711323925667,1
-11.074851778656129,20.556425041186163,25.335451080050827,-126.28302596913812,126.9228198116074,-126.35528572408589,99.47034764826178,-4.37931034482758,-40.64,-10.71084337349398,28.67741935483872,36.28571428571426,56.661538461538456,-81.64285714285714,46.78947368421052,38.22339458093508,614.5250473642216,18.988909299964373,391.51448623273376,57.39163403012504,3565.227684941075,1
-11.074851778656129,20.556425041186163,25.335451080050827,-126.28302596913812,126.9228198116074,-126.35528572408589,99.47034764826178,-21.89655172413792,-48.260000000000005,-32.13253012048193,24.58064516129033,26.206349206349188,29.307692307692307,95.25,20.052631578947363,37.210800012362384,626.9184551121499,18.988909299964373,391.51448623273376,57.39163403012504,3565.227684941075,1
-11.074851778656129,20.556425041186163,25.335451080050827,-126.28302596913812,126.9228198116074,-126.35528572408589,99.47034764826178,-48.172413793103445,-63.5,-38.25301204819277,32.7741935483871,46.365079365079346,41.03076923076923,-127.0,33.42105263157894,53.81456507713885,971.6320279755594,18.988909299964373,391.51448623273376,57.39163403012504,3565.227684941075,1
-11.35721343873518,19.824135090609555,25.62233516871382,-125.99623635679336,126.84563962321481,-126.26816217328668,99.60886162235857,-48.172413793103445,-63.5,-38.25301204819277,32.7741935483871,46.365079365079346,41.03076923076923,-127.0,33.42105263157894,53.81456507713885,971.6320279755594,18.934561232686185,395.5637725774801,57.14756887203891,3563.509041856146,1
-11.35721343873518,19.824135090609555,25.62233516871382,-125.99623635679336,126.84563962321481,-126.26816217328668,99.60886162235857,-83.20689655172413,-78.74000000000001,-56.6144578313253,20.483870967741943,44.34920634920633,33.215384615384615,77.10714285714286,-6.684210526315795,50.05014621235512,824.0468544295269,18.934561232686185,395.5637725774801,57.14756887203891,3563.509041856146,1
-11.35721343873518,19.824135090609555,25.62233516871382,-125.99623635679336,126.84563962321481,-126.26816217328668,99.60886162235857,-39.41379310344827,-58.42,-44.373493975903614,20.483870967741943,32.25396825396824,33.215384615384615,-22.67857142857143,26.73684210526315,34.69699055628516,156.66382371843704,18.934561232686185,395.5637725774801,57.14756887203891,3563.509041856146,1
-10.541501976284588,19.876441515650743,25.407172102216578,-125.90063981934514,126.82634457611668,-126.18103862248749,99.78200408997958,-39.41379310344827,-58.42,-44.373493975903614,20.483870967741943,32.25396825396824,33.215384615384615,-22.67857142857143,26.73684210526315,34.69699055628516,156.66382371843704,18.608371864717302,374.6912391836746,57.06141781240416,3561.776110095975,1
-10.541501976284588,19.876441515650743,25.407172102216578,-125.90063981934514,126.82634457611668,-126.18103862248749,99.78200408997958,-21.89655172413792,-50.800000000000004,-29.07228915662651,24.58064516129033,38.30158730158728,21.49230769230769,13.607142857142854,26.73684210526315,28.31092074979447,132.3404519155543,18.608371864717302,374.6912391836746,57.06141781240416,3561.776110095975,1
-10.541501976284588,19.876441515650743,25.407172102216578,-125.90063981934514,126.82634457611668,-126.18103862248749,99.78200408997958,-39.41379310344827,-50.800000000000004,-38.25301204819277,28.67741935483872,40.3174603174603,25.4,13.607142857142854,6.6842105263157805,30.39412977592484,218.5485733246558,18.608371864717302,374.6912391836746,57.06141781240416,3561.776110095975,1
-11.294466403162058,19.248764415156508,25.3713115911337,-125.80504328189687,126.80704952901853,-126.16361391232765,99.85126107702797,-39.41379310344827,-50.800000000000004,-38.25301204819277,28.67741935483872,40.3174603174603,25.4,13.607142857142854,6.6842105263157805,30.39412977592484,218.5485733246558,18.638180803150757,385.7923014450224,56.808373096062354,3579.776768530135,1
-11.294466403162058,19.248764415156508,25.3713115911337,-125.80504328189687,126.80704952901853,-126.16361391232765,99.85126107702797,-65.68965517241378,-68.58,-41.31325301204819,24.58064516129033,44.34920634920633,33.215384615384615,13.607142857142854,6.6842105263157805,37.25243721172524,503.9049211417674,18.638180803150757,385.7923014450224,56.808373096062354,3579.776768530135,1
-11.294466403162058,19.248764415156508,25.3713115911337,-125.80504328189687,126.80704952901853,-126.16361391232765,99.85126107702797,-21.89655172413792,-43.18000000000001,-32.13253012048193,4.096774193548399,26.206349206349188,13.676923076923078,-72.57142857142857,6.6842105263157805,27.55559592739811,500.5556245239137,18.638180803150757,385.7923014450224,56.808373096062354,3579.776768530135,1
-11.702322134387353,19.562602965403627,25.76577721304532,-125.47045540082797,126.69127924642963,-126.12876449200796,100.02440354464898,-21.89655172413792,-43.18000000000001,-32.13253012048193,4.096774193548399,26.206349206349188,13.676923076923078,-72.57142857142857,6.6842105263157805,27.55559592739811,500.5556245239137,19.010234104278766,403.3055634918717,56.93294519309231,3532.662571793254,1
-11.702322134387353,19.562602965403627,25.76577721304532,-125.47045540082797,126.69127924642963,-126.12876449200796,100.02440354464898,-30.655172413793096,-38.1,-19.891566265060245,28.67741935483872,46.365079365079346,29.307692307692307,54.42857142857142,26.73684210526315,34.27029290503729,128.54058644612834,19.010234104278766,403.3055634918717,56.93294519309231,3532.662571793254,1
-11.702322134387353,19.562602965403627,25.76577721304532,-125.47045540082797,126.69127924642963,-126.12876449200796,100.02440354464898,-30.655172413793096,-63.5,-38.25301204819277,28.67741935483872,50.39682539682538,37.12307692307692,-13.607142857142861,20.052631578947363,35.28316007160214,257.6701500737037,19.010234104278766,403.3055634918717,56.93294519309231,3532.662571793254,1
-11.984683794466406,18.67339373970346,25.478893124382324,-125.18366578848327,126.57550896384076,-126.12876449200796,100.05903203817317,-30.655172413793096,-63.5,-38.25301204819277,28.67741935483872,50.39682539682538,37.12307692307692,-13.607142857142861,20.052631578947363,35.28316007160214,257.6701500737037,18.71232355285073,398.2920225867551,56.44531755085635,3555.2990942966676,1
-11.984683794466406,18.67339373970346,25.478893124382324,-125.18366578848327,126.57550896384076,-126.12876449200796,100.05903203817317,-30.655172413793096,-55.88,-41.31325301204819,12.29032258064517,40.3174603174603,44.93846153846154,18.14285714285714,40.105263157894726,35.45534877039502,206.5793111448967,18.71232355285073,398.2920225867551,56.44531755085635,3555.2990942966676,1
-11.984683794466406,18.67339373970346,25.478893124382324,-125.18366578848327,126.57550896384076,-126.12876449200796,100.05903203817317,-30.655172413793096,-58.42,-41.31325301204819,36.870967741935495,46.365079365079346,41.03076923076923,31.749999999999996,20.052631578947363,38.30723416782159,131.8215367309911,18.71232355285073,398.2920225867551,56.44531755085635,3555.2990942966676,1
-11.012104743083006,18.778006589785832,25.012706480304956,-125.04027098231086,126.5562139167426,-126.04164094120875,100.02440354464898,-30.655172413793096,-58.42,-41.31325301204819,36.870967741935495,46.365079365079346,41.03076923076923,31.749999999999996,20.052631578947363,38.30723416782159,131.8215367309911,18.2676059377246,370.6848732717165,56.27699468413388,3556.00899612578,1
-11.012104743083006,18.778006589785832,25.012706480304956,-125.04027098231086,126.5562139167426,-126.04164094120875,100.02440354464898,-30.655172413793096,-58.42,-32.13253012048193,32.7741935483871,38.30158730158728,33.215384615384615,13.607142857142854,20.052631578947363,32.39483030446553,174.48839167342632,18.2676059377246,370.6848732717165,56.27699468413388,3556.00899612578,1
-11.012104743083006,18.778006589785832,25.012706480304956,-125.04027098231086,126.5562139167426,-126.04164094120875,100.02440354464898,-48.172413793103445,-55.88,-32.13253012048193,32.7741935483871,44.34920634920633,33.215384615384615,-49.89285714285714,20.052631578947363,39.55865214354599,141.74664801473622,18.2676059377246,370.6848732717165,56.27699468413388,3556.00899612578,1
-11.60820158102767,18.1503294892916,25.012706480304956,-124.8968761761385,126.51762382254633,-126.02421623104892,99.98977505112477,-48.172413793103445,-55.88,-32.13253012048193,32.7741935483871,44.34920634920633,33.215384615384615,-49.89285714285714,20.052631578947363,39.55865214354599,141.74664801473622,18.25707918354141,378.958882777754,56.01997071524502,3569.7941338933415,1
-11.60820158102767,18.1503294892916,25.012706480304956,-124.8968761761385,126.51762382254633,-126.02421623104892,99.98977505112477,-30.655172413793096,-43.18000000000001,-41.31325301204819,32.7741935483871,44.34920634920633,33.215384615384615,27.214285714285708,26.73684210526315,34.92979221979602,50.00735834457225,18.25707918354141,378.958882777754,56.01997071524502,3569.7941338933415,1
-11.60820158102767,18.1503294892916,25.012706480304956,-124.8968761761385,126.51762382254633,-126.02421623104892,99.98977505112477,4.379310344827594,-22.860000000000003,4.590361445783131,12.29032258064517,20.15873015873014,9.76923076923077,13.607142857142854,53.47368421052631,17.641097795860745,252.94518087247795,18.25707918354141,378.958882777754,56.01997071524502,3569.7941338933415,1
-11.451333992094863,17.941103789126856,25.62233516871382,-124.70568310124202,126.44044363415374,-126.04164094120875,99.98977505112477,4.379310344827594,-22.860000000000003,4.590361445783131,12.29032258064517,20.15873015873014,9.76923076923077,13.607142857142854,53.47368421052631,17.641097795860745,252.94518087247795,18.338257649978512,382.8956098791397,56.08970735302756,3545.8644247863526,1
-11.451333992094863,17.941103789126856,25.62233516871382,-124.70568310124202,126.44044363415374,-126.04164094120875,99.98977505112477,-13.137931034482751,-45.720000000000006,-32.13253012048193,20.483870967741943,38.30158730158728,33.215384615384615,-3.552713678800501e-15,26.73684210526315,26.21601826811771,214.55818195573812,18.338257649978512,382.8956098791397,56.08970735302756,3545.8644247863526,1
-11.451333992094863,17.941103789126856,25.62233516871382,-124.70568310124202,126.44044363415374,-126.04164094120875,99.98977505112477,-65.68965517241378,-68.58,-44.373493975903614,24.58064516129033,50.39682539682538,52.753846153846155,45.357142857142854,13.368421052631572,45.63750372125671,355.4430996127383,18.338257649978512,382.8956098791397,56.08970735302756,3545.8644247863526,1
-10.35326086956522,17.88879736408567,25.98094027954257,-124.8968761761385,126.45973868125189,-126.11133978184812,100.12828902522156,-65.68965517241378,-68.58,-44.373493975903614,24.58064516129033,50.39682539682538,52.753846153846155,45.357142857142854,13.368421052631572,45.63750372125671,355.4430996127383,18.074332837731152,363.8784672301555,56.25553793992225,3550.0956803850277,1
-10.35326086956522,17.88879736408567,25.98094027954257,-124.8968761761385,126.45973868125189,-126.11133978184812,100.12828902522156,-39.41379310344827,-58.42,-41.31325301204819,32.7741935483871,36.28571428571426,29.307692307692307,-13.607142857142861,26.73684210526315,34.732328902462015,167.45795831414398,18.074332837731152,363.8784672301555,56.25553793992225,3550.0956803850277,1
-10.35326086956522,17.88879736408567,25.98094027954257,-124.8968761761385,126.45973868125189,-126.11133978184812,100.12828902522156,-39.41379310344827,-60.96,-44.373493975903614,28.67741935483872,44.34920634920633,37.12307692307692,-31.75,20.052631578947363,38.337452660677656,151.1476143555465,18.074332837731152,363.8784672301555,56.25553793992225,3550.0956803850277,1
-10.416007905138342,17.784184514003297,25.335451080050827,-124.8968761761385,126.47903372835002,-126.09391507168829,100.09366053169737,-39.41379310344827,-60.96,-44.373493975903614,28.67741935483872,44.34920634920633,37.12307692307692,-31.75,20.052631578947363,38.337452660677656,151.1476143555465,17.84521449973082,355.07321646629737,56.00550392339755,3573.771284837172,1
-10.416007905138342,17.784184514003297,25.335451080050827,-124.8968761761385,126.47903372835002,-126.09391507168829,100.09366053169737,-4.37931034482758,-20.32,1.5301204819277103,40.96774193548388,44.34920634920633,33.215384615384615,18.14285714285714,33.42105263157894,24.540709187658273,258.721507267645,17.84521449973082,355.07321646629737,56.00550392339755,3573.771284837172,1
-10.416007905138342,17.784184514003297,25.335451080050827,-124.8968761761385,126.47903372835002,-126.09391507168829,100.09366053169737,-30.655172413793096,-40.64,-16.83132530120482,32.7741935483871,44.34920634920633,1.9538461538461576,-18.142857142857146,26.73684210526315,26.510430376819727,191.5798184875895,17.84521449973082,355.07321646629737,56.00550392339755,3573.771284837172,1
-10.60424901185771,17.73187808896211,25.945079768459692,-124.8968761761385,126.47903372835002,-126.09391507168829,100.05903203817317,-30.655172413793096,-40.64,-16.83132530120482,32.7741935483871,44.34920634920633,1.9538461538461576,-18.142857142857146,26.73684210526315,26.510430376819727,191.5798184875895,18.09373562309317,367.7077025322759,56.19127801118677,3557.2085848598904,1
-10.60424901185771,17.73187808896211,25.945079768459692,-124.8968761761385,126.47903372835002,-126.09391507168829,100.05903203817317,-30.655172413793096,-63.5,-47.433734939759034,16.38709677419356,34.26984126984125,33.215384615384615,-22.67857142857143,26.73684210526315,34.359580443350765,221.8142463439108,18.09373562309317,367.7077025322759,56.19127801118677,3557.2085848598904,1
-10.60424901185771,17.73187808896211,25.945079768459692,-124.8968761761385,126.47903372835002,-126.09391507168829,100.05903203817317,-48.172413793103445,-68.58,-44.373493975903614,36.870967741935495,56.44444444444443,56.661538461538456,58.96428571428571,6.6842105263157805,47.093919332190865,361.0780122287977,18.09373562309317,367.7077025322759,56.19127801118677,3557.2085848598904,1
-11.012104743083006,17.47034596375618,25.514753635465198,-124.70568310124202,126.42114858705558,-126.09391507168829,100.02440354464898,-48.172413793103445,-68.58,-44.373493975903614,36.870967741935495,56.44444444444443,56.661538461538456,58.96428571428571,6.6842105263157805,47.093919332190865,361.0780122287977,17.999068114101462,368.3623126771153,55.89692756682113,3567.161752343936,1
-11.012104743083006,17.47034596375618,25.514753635465198,-124.70568310124202,126.42114858705558,-126.09391507168829,100.02440354464898,-39.41379310344827,-53.34,-29.07228915662651,32.7741935483871,40.3174603174603,29.307692307692307,-9.071428571428577,13.368421052631572,30.83315975720933,208.27463629509316,17.999068114101462,368.3623126771153,55.89692756682113,3567.161752343936,1
-11.012104743083006,17.47034596375618,25.514753635465198,-124.70568310124202,126.42114858705558,-126.09391507168829,100.02440354464898,-56.93103448275861,-81.28,-87.21686746987952,12.29032258064517,42.333333333333314,37.12307692307692,-22.67857142857143,6.6842105263157805,43.317177093072594,903.3746658456732,17.999068114101462,368.3623126771153,55.89692756682113,3567.161752343936,1
-11.545454545454549,17.418039538714993,25.478893124382324,-124.5622882950696,126.343968398663,-126.12876449200796,99.98977505112477,-56.93103448275861,-81.28,-87.21686746987952,12.29032258064517,42.333333333333314,37.12307692307692,-22.67857142857143,6.6842105263157805,43.317177093072594,903.3746658456732,18.14746240285062,379.11061174504084,55.81974031938898,3560.397766773956,1
-11.545454545454549,17.418039538714993,25.478893124382324,-124.5622882950696,126.343968398663,-126.12876449200796,99.98977505112477,-48.172413793103445,-68.58,-32.13253012048193,20.483870967741943,36.28571428571426,33.215384615384615,18.14285714285714,13.368421052631572,33.797648997239364,323.63292480214074,18.14746240285062,379.11061174504084,55.81974031938898,3560.397766773956,1
-11.545454545454549,17.418039538714993,25.478893124382324,-124.5622882950696,126.343968398663,-126.12876449200796,99.98977505112477,-48.172413793103445,-63.5,-32.13253012048193,28.67741935483872,30.23809523809522,9.76923076923077,-9.071428571428577,26.73684210526315,31.037244994055225,329.7386463459707,18.14746240285062,379.11061174504084,55.81974031938898,3560.397766773956,1
-10.572875494071148,17.679571663920925,26.052661301708316,-124.61008656379374,126.343968398663,-126.1461892021678,100.02440354464898,-48.172413793103445,-63.5,-32.13253012048193,28.67741935483872,30.23809523809522,9.76923076923077,-9.071428571428577,26.73684210526315,31.037244994055225,329.7386463459707,18.10170281990013,368.2898910127587,56.11410650980766,3536.3016201876494,1
-10.572875494071148,17.679571663920925,26.052661301708316,-124.61008656379374,126.343968398663,-126.1461892021678,100.02440354464898,-30.655172413793096,-25.400000000000002,-10.71084337349398,28.67741935483872,44.34920634920633,37.12307692307692,-9.071428571428577,26.73684210526315,26.590498636387597,143.95766951711525,18.10170281990013,368.2898910127587,56.11410650980766,3536.3016201876494,1
-10.572875494071148,17.679571663920925,26.052661301708316,-124.61008656379374,126.343968398663,-126.1461892021678,100.02440354464898,-39.41379310344827,-33.02,-10.71084337349398,24.58064516129033,46.365079365079346,37.12307692307692,68.03571428571428,26.73684210526315,35.74824928967078,287.2513885432202,18.10170281990013,368.2898910127587,56.11410650980766,3536.3016201876494,1
-10.917984189723322,17.20881383855025,26.16024283495694,-124.5622882950696,126.30537830446671,-126.21588804280717,100.02440354464898,-39.41379310344827,-33.02,-10.71084337349398,24.58064516129033,46.365079365079346,37.12307692307692,68.03571428571428,26.73684210526315,35.74824928967078,287.2513885432202,18.0956802877435,374.33996128245576,55.977114989525596,3547.976518283057,1
-10.917984189723322,17.20881383855025,26.16024283495694,-124.5622882950696,126.30537830446671,-126.21588804280717,100.02440354464898,-13.137931034482751,-45.720000000000006,-53.55421686746988,24.58064516129033,54.42857142857141,44.93846153846154,-4.535714285714288,26.73684210526315,33.45404780265667,357.0236458118398,18.0956802877435,374.33996128245576,55.977114989525596,3547.976518283057,1
-10.917984189723322,17.20881383855025,26.16024283495694,-124.5622882950696,126.30537830446671,-126.21588804280717,100.02440354464898,-30.655172413793096,-53.34,-44.373493975903614,12.29032258064517,16.12698412698411,5.861538461538462,-45.35714285714286,26.73684210526315,29.342687065158806,297.65347184966834,18.0956802877435,374.33996128245576,55.977114989525596,3547.976518283057,1
-10.13364624505929,16.685749588138385,25.873358746293945,-124.7534813699661,126.343968398663,-126.28558688344653,100.02440354464898,-30.655172413793096,-53.34,-44.373493975903614,12.29032258064517,16.12698412698411,5.861538461538462,-45.35714285714286,26.73684210526315,29.342687065158806,297.65347184966834,17.564251526497205,350.0327605580169,55.77086323479947,3590.0542440974205,1
-10.13364624505929,16.685749588138385,25.873358746293945,-124.7534813699661,126.343968398663,-126.28558688344653,100.02440354464898,-65.68965517241378,-66.04,-44.373493975903614,36.870967741935495,40.3174603174603,33.215384615384615,4.535714285714281,6.6842105263157805,37.215860829390984,531.2480006265578,17.564251526497205,350.0327605580169,55.77086323479947,3590.0542440974205,1
-10.13364624505929,16.685749588138385,25.873358746293945,-124.7534813699661,126.343968398663,-126.28558688344653,100.02440354464898,-30.655172413793096,-76.2,-44.373493975903614,28.67741935483872,48.380952380952365,44.93846153846154,-4.535714285714288,20.052631578947363,37.22673069107637,461.97253381274146,17.564251526497205,350.0327605580169,55.77086323479947,3590.0542440974205,1
-11.043478260869568,16.162685337726526,25.335451080050827,-124.7534813699661,126.30537830446671,-126.37271043424573,99.92051806407636,-30.655172413793096,-76.2,-44.373493975903614,28.67741935483872,48.380952380952365,44.93846153846154,-4.535714285714288,20.052631578947363,37.22673069107637,461.97253381274146,17.513871559548974,357.95691151813537,55.417205929247814,3626.6742268342537,1
-11.043478260869568,16.162685337726526,25.335451080050827,-124.7534813699661,126.30537830446671,-126.37271043424573,99.92051806407636,-48.172413793103445,-66.04,-47.433734939759034,16.38709677419356,30.23809523809522,33.215384615384615,-18.142857142857146,20.052631578947363,34.96027676029255,310.2095813927487,17.513871559548974,357.95691151813537,55.417205929247814,3626.6742268342537,1
-11.043478260869568,16.162685337726526,25.335451080050827,-124.7534813699661,126.30537830446671,-126.37271043424573,99.92051806407636,-30.655172413793096,-45.720000000000006,-35.19277108433735,32.7741935483871,38.30158730158728,44.93846153846154,68.03571428571428,26.73684210526315,40.29434278469297,169.12263869319978,17.513871559548974,357.95691151813537,55.417205929247814,3626.6742268342537,1
-11.325839920948619,16.47652388797364,25.335451080050827,-124.65788483251788,126.24749316317228,-126.4424092748851,99.85126107702797,-30.655172413793096,-45.720000000000006,-35.19277108433735,32.7741935483871,38.30158730158728,44.93846153846154,68.03571428571428,26.73684210526315,40.29434278469297,169.12263869319978,17.712604962991026,365.91704703635963,55.48995326684746,3607.7722155535816,1
-11.325839920948619,16.47652388797364,25.335451080050827,-124.65788483251788,126.24749316317228,-126.4424092748851,99.85126107702797,-30.655172413793096,-66.04,-38.25301204819277,20.483870967741943,44.34920634920633,33.215384615384615,-9.071428571428577,33.42105263157894,34.436140949665784,280.92744607734096,17.712604962991026,365.91704703635963,55.48995326684746,3607.7722155535816,1
-11.325839920948619,16.47652388797364,25.335451080050827,-124.65788483251788,126.24749316317228,-126.4424092748851,99.85126107702797,-65.68965517241378,-60.96,-44.373493975903614,36.870967741935495,46.365079365079346,37.12307692307692,-31.75,26.73684210526315,43.733639410459034,187.06322119759258,17.712604962991026,365.91704703635963,55.48995326684746,3607.7722155535816,1
-11.35721343873518,16.37191103789127,25.69405619087957,-124.51449002634547,126.17031297477969,-126.5295328256843,99.78200408997958,-65.68965517241378,-60.96,-44.373493975903614,36.870967741935495,46.365079365079346,37.12307692307692,-31.75,26.73684210526315,43.733639410459034,187.06322119759258,17.807726889168674,371.43388594334,55.52681908503877,3591.199653992856,1
-11.35721343873518,16.37191103789127,25.69405619087957,-124.51449002634547,126.17031297477969,-126.5295328256843,99.78200408997958,-48.172413793103445,-68.58,-53.55421686746988,32.7741935483871,44.34920634920633,52.753846153846155,27.214285714285708,20.052631578947363,43.43134925065574,252.61267769107948,17.807726889168674,371.43388594334,55.52681908503877,3591.199653992856,1
-11.35721343873518,16.37191103789127,25.69405619087957,-124.51449002634547,126.17031297477969,-126.5295328256843,99.78200408997958,-4.37931034482758,-7.6200000000000045,-4.590361445783138,20.483870967741943,50.39682539682538,72.29230769230769,4.535714285714281,46.78947368421052,26.385982977176315,703.4268112902993,17.807726889168674,371.43388594334,55.52681908503877,3591.199653992856,1
-10.949357707509884,16.005766062602966,26.052661301708316,-124.46669175762139,126.11242783348526,-126.63408108664335,99.71274710293117,-4.37931034482758,-7.6200000000000045,-4.590361445783138,20.483870967741943,50.39682539682538,72.29230769230769,4.535714285714281,46.78947368421052,26.385982977176315,703.4268112902993,17.669261690607055,366.11136869436757,55.50837304064422,3591.672316190542,1
-10.949357707509884,16.005766062602966,26.052661301708316,-124.46669175762139,126.11242783348526,-126.63408108664335,99.71274710293117,-48.172413793103445,-63.5,-41.31325301204819,8.193548387096783,34.26984126984125,29.307692307692307,-13.607142857142861,26.73684210526315,33.1375917165235,325.04665623629745,17.669261690607055,366.11136869436757,55.50837304064422,3591.672316190542,1
-10.949357707509884,16.005766062602966,26.052661301708316,-124.46669175762139,126.11242783348526,-126.63408108664335,99.71274710293117,-48.172413793103445,-60.96,-50.493975903614455,36.870967741935495,42.333333333333314,52.753846153846155,54.42857142857142,6.6842105263157805,44.087164860090006,282.6593607827966,17.669261690607055,366.11136869436757,55.50837304064422,3591.672316190542,1
-10.949357707509884,16.424217462932457,25.945079768459692,-124.46669175762139,126.07383773928895,-126.7386293476024,99.67811860940697,-48.172413793103445,-60.96,-50.493975903614455,36.870967741935495,42.333333333333314,52.753846153846155,54.42857142857142,6.6842105263157805,44.087164860090006,282.6593607827966,17.77288497963401,366.8598255534825,55.61199632967118,3578.388516617044,1
-10.949357707509884,16.424217462932457,25.945079768459692,-124.46669175762139,126.07383773928895,-126.7386293476024,99.67811860940697,-48.172413793103445,-68.58,-47.433734939759034,8.193548387096783,38.30158730158728,17.584615384615386,-18.142857142857146,6.6842105263157805,31.636620934416854,497.7081780984758,17.77288497963401,366.8598255534825,55.61199632967118,3578.388516617044,1
-10.949357707509884,16.424217462932457,25.945079768459692,-124.46669175762139,126.07383773928895,-126.7386293476024,99.67811860940697,-48.172413793103445,-60.96,-44.373493975903614,16.38709677419356,16.12698412698411,1.9538461538461576,-31.75,20.052631578947363,29.972058300372282,394.5314848498424,17.77288497963401,366.8598255534825,55.61199632967118,3578.388516617044,1
-11.482707509881426,17.261120263591433,25.801637724128195,-124.37109522017312,125.99665755089636,-126.80832818824176,99.67811860940697,-48.172413793103445,-60.96,-44.373493975903614,16.38709677419356,16.12698412698411,1.9538461538461576,-31.75,20.052631578947363,29.972058300372282,394.5314848498424,18.181821832533686,381.5450788489365,55.81128440263092,3543.5708541263157,1
-11.482707509881426,17.261120263591433,25.801637724128195,-124.37109522017312,125.99665755089636,-126.80832818824176,99.67811860940697,-48.172413793103445,-66.04,-47.433734939759034,20.483870967741943,38.30158730158728,29.307692307692307,4.535714285714281,6.6842105263157805,32.61990301523926,461.4500630983859,18.181821832533686,381.5450788489365,55.81128440263092,3543.5708541263157,1
-11.482707509881426,17.261120263591433,25.801637724128195,-124.37109522017312,125.99665755089636,-126.80832818824176,99.67811860940697,-74.44827586206895,-83.82000000000001,-50.493975903614455,32.7741935483871,48.380952380952365,29.307692307692307,-13.607142857142861,6.6842105263157805,42.43955542327173,744.6701452460264,18.181821832533686,381.5450788489365,55.81128440263092,3543.5708541263157,1
-11.639575098814232,17.365733113673805,25.76577721304532,-124.22770041400076,125.90018231540564,-126.87802702888112,99.67811860940697,-74.44827586206895,-83.82000000000001,-50.493975903614455,32.7741935483871,48.380952380952365,29.307692307692307,-13.607142857142861,6.6842105263157805,42.43955542327173,744.6701452460264,18.257028475177787,385.1715044911915,55.786403580239956,3530.798519433064,1
-11.639575098814232,17.365733113673805,25.76577721304532,-124.22770041400076,125.90018231540564,-126.87802702888112,99.67811860940697,-30.655172413793096,-50.800000000000004,-35.19277108433735,32.7741935483871,42.333333333333314,44.93846153846154,-3.552713678800501e-15,26.73684210526315,32.928846752946946,240.7174385064634,18.257028475177787,385.1715044911915,55.786403580239956,3530.798519433064,1
-11.639575098814232,17.365733113673805,25.76577721304532,-124.22770041400076,125.90018231540564,-126.87802702888112,99.67811860940697,-48.172413793103445,-50.800000000000004,-10.71084337349398,32.7741935483871,40.3174603174603,41.03076923076923,77.10714285714286,13.368421052631572,39.285155521623565,453.8216593511923,18.257028475177787,385.1715044911915,55.786403580239956,3530.798519433064,1
-11.231719367588935,17.73187808896211,26.339545390371313,-124.08430560782836,125.86159222120934,-126.89545173904096,99.64349011588277,-48.172413793103445,-50.800000000000004,-10.71084337349398,32.7741935483871,40.3174603174603,41.03076923076923,77.10714285714286,13.368421052631572,39.285155521623565,453.8216593511923,18.43438094897412,387.43030825160423,56.05190969572059,3489.82815424927,1
-11.231719367588935,17.73187808896211,26.339545390371313,-124.08430560782836,125.86159222120934,-126.89545173904096,99.64349011588277,-48.172413793103445,-33.02,-22.951807228915666,32.7741935483871,44.34920634920633,41.03076923076923,-9.071428571428577,33.42105263157894,33.098858919173665,156.74186818085067,18.43438094897412,387.43030825160423,56.05190969572059,3489.82815424927,1
-11.231719367588935,17.73187808896211,26.339545390371313,-124.08430560782836,125.86159222120934,-126.89545173904096,99.64349011588277,-30.655172413793096,-60.96,-50.493975903614455,20.483870967741943,42.333333333333314,37.12307692307692,-22.67857142857143,20.052631578947363,35.597579068634815,224.89289576360412,18.43438094897412,387.43030825160423,56.05190969572059,3489.82815424927,1
-12.047430830039527,17.20881383855025,26.41126641253706,-123.79751599548365,125.70723184442419,-126.96515057968033,99.60886162235857,-30.655172413793096,-60.96,-50.493975903614455,20.483870967741943,42.333333333333314,37.12307692307692,-22.67857142857143,20.052631578947363,35.597579068634815,224.89289576360412,18.555837027042276,403.28072984683877,55.80586541552365,3488.31969478465,1
-12.047430830039527,17.20881383855025,26.41126641253706,-123.79751599548365,125.70723184442419,-126.96515057968033,99.60886162235857,-30.655172413793096,-55.88,-22.951807228915666,49.161290322580655,50.39682539682538,44.93846153846154,22.678571428571423,20.052631578947363,37.0893449885119,210.9581134803766,18.555837027042276,403.28072984683877,55.80586541552365,3488.31969478465,1
-12.047430830039527,17.20881383855025,26.41126641253706,-123.79751599548365,125.70723184442419,-126.96515057968033,99.60886162235857,-21.89655172413792,-53.34,-50.493975903614455,8.193548387096783,38.30158730158728,29.307692307692307,-22.67857142857143,26.73684210526315,31.368596144745418,232.08693834618757,18.555837027042276,403.28072984683877,55.80586541552365,3488.31969478465,1
-11.200345849802375,17.83649093904448,25.514753635465198,-123.6063229205871,125.64934670312972,-126.96515057968033,99.60886162235857,-21.89655172413792,-53.34,-50.493975903614455,8.193548387096783,38.30158730158728,29.307692307692307,-22.67857142857143,26.73684210526315,31.368596144745418,232.08693834618757,18.183863474770686,375.01535649174525,55.65252249836559,3478.028173376146,1
-11.200345849802375,17.83649093904448,25.514753635465198,-123.6063229205871,125.64934670312972,-126.96515057968033,99.60886162235857,-39.41379310344827,-50.800000000000004,-32.13253012048193,20.483870967741943,28.222222222222204,9.76923076923077,-4.535714285714288,20.052631578947363,25.676249130973346,232.37568962676258,18.183863474770686,375.01535649174525,55.65252249836559,3478.028173376146,1
-11.200345849802375,17.83649093904448,25.514753635465198,-123.6063229205871,125.64934670312972,-126.96515057968033,99.60886162235857,-30.655172413793096,-63.5,-47.433734939759034,32.7741935483871,50.39682539682538,44.93846153846154,86.17857142857142,33.42105263157894,48.66225148717206,350.71386834137786,18.183863474770686,375.01535649174525,55.65252249836559,3478.028173376146,1
-11.733695652173916,18.202635914332784,24.72582239164196,-123.36733157696648,125.59146156183529,-126.9128764492008,99.50497614178599,-30.655172413793096,-63.5,-47.433734939759034,32.7741935483871,50.39682539682538,44.93846153846154,86.17857142857142,33.42105263157894,48.66225148717206,350.71386834137786,18.220717986049554,378.00539424415166,55.431929960980405,3472.0520849984305,1
-11.733695652173916,18.202635914332784,24.72582239164196,-123.36733157696648,125.59146156183529,-126.9128764492008,99.50497614178599,-30.655172413793096,-68.58,-59.674698795180724,24.58064516129033,38.30158730158728,41.03076923076923,-4.535714285714288,26.73684210526315,36.76192866169976,411.8122343528753,18.220717986049554,378.00539424415166,55.431929960980405,3472.0520849984305,1
-11.733695652173916,18.202635914332784,24.72582239164196,-123.36733157696648,125.59146156183529,-126.9128764492008,99.50497614178599,-48.172413793103445,-50.800000000000004,-29.07228915662651,28.67741935483872,48.380952380952365,37.12307692307692,-9.071428571428577,26.73684210526315,34.75430278566121,203.13003814105514,18.220717986049554,378.00539424415166,55.431929960980405,3472.0520849984305,1
-12.07880434782609,18.202635914332784,24.618240858393335,-123.03274369589764,125.5142813734427,-126.84317760856143,99.29720518064079,-48.172413793103445,-50.800000000000004,-29.07228915662651,28.67741935483872,48.380952380952365,37.12307692307692,-9.071428571428577,26.73684210526315,34.75430278566121,203.13003814105514,18.299893706850735,384.1331230027105,55.28454015620792,3452.654308840983,1
-12.07880434782609,18.202635914332784,24.618240858393335,-123.03274369589764,125.5142813734427,-126.84317760856143,99.29720518064079,-48.172413793103445,-60.96,-44.373493975903614,8.193548387096783,32.25396825396824,1.9538461538461576,22.678571428571423,26.73684210526315,30.6653355122191,403.32202108042645,18.299893706850735,384.1331230027105,55.28454015620792,3452.654308840983,1
-12.07880434782609,18.202635914332784,24.618240858393335,-123.03274369589764,125.5142813734427,-126.84317760856143,99.29720518064079,-48.172413793103445,-58.42,-44.373493975903614,28.67741935483872,42.333333333333314,25.4,-36.28571428571429,20.052631578947363,37.96437579023009,164.36582451127742,18.299893706850735,384.1331230027105,55.28454015620792,3452.654308840983,1
-12.737648221343875,17.47034596375618,24.833403924890582,-122.6503575461046,125.41780613795198,-126.8257528984016,99.0201772324472,-48.172413793103445,-58.42,-44.373493975903614,28.67741935483872,42.333333333333314,25.4,-36.28571428571429,20.052631578947363,37.96437579023009,164.36582451127742,18.347132703330214,396.3869157668554,54.984702478250455,3447.5343124561177,1
-12.737648221343875,17.47034596375618,24.833403924890582,-122.6503575461046,125.41780613795198,-126.8257528984016,99.0201772324472,-65.68965517241378,-86.36000000000001,-32.13253012048193,49.161290322580655,48.380952380952365,44.93846153846154,13.607142857142854,20.052631578947363,45.04033299637256,562.9862617299734,18.347132703330214,396.3869157668554,54.984702478250455,3447.5343124561177,1
-12.737648221343875,17.47034596375618,24.833403924890582,-122.6503575461046,125.41780613795198,-126.8257528984016,99.0201772324472,-30.655172413793096,-50.800000000000004,-47.433734939759034,45.06451612903227,42.333333333333314,44.93846153846154,95.25,33.42105263157894,48.737033873244776,399.98104992310084,18.347132703330214,396.3869157668554,54.984702478250455,3447.5343124561177,1
-12.32979249011858,16.947281713344317,24.976845969222083,-122.41136620248398,125.35992099665755,-126.80832818824176,98.70852079072941,-30.655172413793096,-50.800000000000004,-47.433734939759034,45.06451612903227,42.333333333333314,44.93846153846154,95.25,33.42105263157894,48.737033873244776,399.98104992310084,18.08464005756166,385.56770819838306,54.778497961683456,3446.7721253929303,1
-12.32979249011858,16.947281713344317,24.976845969222083,-122.41136620248398,125.35992099665755,-126.80832818824176,98.70852079072941,-13.137931034482751,-45.720000000000006,-26.012048192771086,24.58064516129033,40.3174603174603,41.03076923076923,-3.552713678800501e-15,40.105263157894726,28.863014636833555,256.66046446702944,18.08464005756166,385.56770819838306,54.778497961683456,3446.7721253929303,1
-12.32979249011858,16.947281713344317,24.976845969222083,-122.41136620248398,125.35992099665755,-126.80832818824176,98.70852079072941,-30.655172413793096,-66.04,-44.373493975903614,24.58064516129033,36.28571428571426,25.4,-18.142857142857146,26.73684210526315,34.0268406356027,231.06632329442277,18.08464005756166,385.56770819838306,54.778497961683456,3446.7721253929303,1
-12.298418972332017,16.267298187808898,24.116193703233094,-122.17237485886335,125.30203585536309,-126.79090347808192,98.29297886843901,-30.655172413793096,-66.04,-44.373493975903614,24.58064516129033,36.28571428571426,25.4,-18.142857142857146,26.73684210526315,34.0268406356027,231.06632329442277,17.560636954458,367.2715623327737,54.18528891663512,3482.0841813899574,1
-12.298418972332017,16.267298187808898,24.116193703233094,-122.17237485886335,125.30203585536309,-126.79090347808192,98.29297886843901,-13.137931034482751,-48.260000000000005,-44.373493975903614,28.67741935483872,44.34920634920633,33.215384615384615,22.678571428571423,26.73684210526315,32.67860610795633,149.8848585475678,17.560636954458,367.2715623327737,54.18528891663512,3482.0841813899574,1
-12.298418972332017,16.267298187808898,24.116193703233094,-122.17237485886335,125.30203585536309,-126.79090347808192,98.29297886843901,-39.41379310344827,-53.34,-41.31325301204819,16.38709677419356,44.34920634920633,37.12307692307692,-40.82142857142858,26.73684210526315,37.435587104833125,126.96596389607463,17.560636954458,367.2715623327737,54.18528891663512,3482.0841813899574,1
-12.11017786561265,16.162685337726526,23.21968092616123,-122.028980052691,125.32133090246124,-126.7386293476024,97.80817995910023,-39.41379310344827,-53.34,-41.31325301204819,16.38709677419356,44.34920634920633,37.12307692307692,-40.82142857142858,26.73684210526315,37.435587104833125,126.96596389607463,17.164181376500135,349.5591504494332,53.803782105526246,3503.458522881157,1
-12.11017786561265,16.162685337726526,23.21968092616123,-122.028980052691,125.32133090246124,-126.7386293476024,97.80817995910023,-30.655172413793096,-48.260000000000005,-29.07228915662651,12.29032258064517,44.34920634920633,44.93846153846154,22.678571428571423,26.73684210526315,32.3726081965709,156.66069816050617,17.164181376500135,349.5591504494332,53.803782105526246,3503.458522881157,1
-12.11017786561265,16.162685337726526,23.21968092616123,-122.028980052691,125.32133090246124,-126.7386293476024,97.80817995910023,-39.41379310344827,-55.88,-22.951807228915666,28.67741935483872,34.26984126984125,29.307692307692307,54.42857142857142,6.6842105263157805,33.95166690245293,263.42667803782336,17.164181376500135,349.5591504494332,53.803782105526246,3503.458522881157,1
-12.07880434782609,16.52883031301483,23.650007059155726,-121.83778697779451,125.28274080826496,-126.70377992728271,97.42726653033404,-39.41379310344827,-55.88,-22.951807228915666,28.67741935483872,34.26984126984125,29.307692307692307,54.42857142857142,6.6842105263157805,33.95166690245293,263.42667803782336,17.419213906665547,357.6093139489331,54.00554144998836,3463.5879395708776,1
-12.07880434782609,16.52883031301483,23.650007059155726,-121.83778697779451,125.28274080826496,-126.70377992728271,97.42726653033404,-39.41379310344827,-45.720000000000006,-41.31325301204819,32.7741935483871,50.39682539682538,76.19999999999999,-9.071428571428577,13.368421052631572,38.53223933559614,450.58798372940754,17.419213906665547,357.6093139489331,54.00554144998836,3463.5879395708776,1
-12.07880434782609,16.52883031301483,23.650007059155726,-121.83778697779451,125.28274080826496,-126.70377992728271,97.42726653033404,39.413793103448285,2.539999999999999,4.590361445783131,16.38709677419356,32.25396825396824,25.4,-3.552713678800501e-15,46.78947368421052,20.921836657700467,317.493481201796,17.419213906665547,357.6093139489331,54.00554144998836,3463.5879395708776,1
-12.016057312252967,16.999588138385505,23.8293096145701,-121.55099736544975,125.2634457611668,-126.63408108664335,97.04635310156785,39.413793103448285,2.539999999999999,4.590361445783131,16.38709677419356,32.25396825396824,25.4,-3.552713678800501e-15,46.78947368421052,20.921836657700467,317.493481201796,17.614985021736192,362.2405177463325,54.12663170613511,3421.1950872812895,1
-12.016057312252967,16.999588138385505,23.8293096145701,-121.55099736544975,125.2634457611668,-126.63408108664335,97.04635310156785,-4.37931034482758,-43.18000000000001,-26.012048192771086,28.67741935483872,50.39682539682538,64.47692307692307,27.214285714285708,26.73684210526315,33.88420677321684,335.740819168262,17.614985021736192,362.2405177463325,54.12663170613511,3421.1950872812895,1
-12.016057312252967,16.999588138385505,23.8293096145701,-121.55099736544975,125.2634457611668,-126.63408108664335,97.04635310156785,-65.68965517241378,-78.74000000000001,-41.31325301204819,32.7741935483871,50.39682539682538,41.03076923076923,-40.82142857142858,13.368421052631572,45.516818248062975,398.6104046053023,17.614985021736192,362.2405177463325,54.12663170613511,3421.1950872812895,1
-11.733695652173916,16.319604612850085,24.00861216998447,-121.4076025592774,125.2248556669705,-126.63408108664335,96.73469665985006,-65.68965517241378,-78.74000000000001,-41.31325301204819,32.7741935483871,50.39682539682538,41.03076923076923,-40.82142857142858,13.368421052631572,45.516818248062975,398.6104046053023,17.353970811669488,353.9368435711983,53.91193978070398,3431.5285797425922,1
-11.733695652173916,16.319604612850085,24.00861216998447,-121.4076025592774,125.2248556669705,-126.63408108664335,96.73469665985006,-39.41379310344827,-53.34,-32.13253012048193,28.67741935483872,34.26984126984125,17.584615384615386,4.535714285714281,20.052631578947363,28.750818137235903,220.9916667603825,17.353970811669488,353.9368435711983,53.91193978070398,3431.5285797425922,1
-11.733695652173916,16.319604612850085,24.00861216998447,-121.4076025592774,125.2248556669705,-126.63408108664335,96.73469665985006,-30.655172413793096,-58.42,-53.55421686746988,16.38709677419356,38.30158730158728,29.307692307692307,45.357142857142854,20.052631578947363,36.50444251260329,230.56619358203338,17.353970811669488,353.9368435711983,53.91193978070398,3431.5285797425922,1
-11.074851778656129,16.6334431630972,23.793449103487223,-121.35980429055326,125.24415071406865,-126.59923166632366,96.45766871165647,-30.655172413793096,-58.42,-53.55421686746988,16.38709677419356,38.30158730158728,29.307692307692307,45.357142857142854,20.052631578947363,36.50444251260329,230.56619358203338,17.167248015080187,339.13561667554876,53.928898852379234,3423.011677425581,1
-11.074851778656129,16.6334431630972,23.793449103487223,-121.35980429055326,125.24415071406865,-126.59923166632366,96.45766871165647,-56.93103448275861,-63.5,-65.79518072289156,20.483870967741943,38.30158730158728,21.49230769230769,-13.607142857142861,20.052631578947363,37.52046945042216,467.98509870789155,17.167248015080187,339.13561667554876,53.928898852379234,3423.011677425581,1
-11.074851778656129,16.6334431630972,23.793449103487223,-121.35980429055326,125.24415071406865,-126.59923166632366,96.45766871165647,-48.172413793103445,-58.42,-38.25301204819277,20.483870967741943,34.26984126984125,48.84615384615385,-4.535714285714288,26.73684210526315,34.96473103950134,304.55723056922426,17.167248015080187,339.13561667554876,53.928898852379234,3423.011677425581,1
-11.419960474308303,17.31342668863262,24.438938302978965,-121.26420775310498,125.2248556669705,-126.56438224600399,96.31915473755967,-48.172413793103445,-58.42,-38.25301204819277,20.483870967741943,34.26984126984125,48.84615384615385,-4.535714285714288,26.73684210526315,34.96473103950134,304.55723056922426,17.72410848863996,360.3735125235629,54.33885758157219,3371.9451006282593,1
-11.419960474308303,17.31342668863262,24.438938302978965,-121.26420775310498,125.2248556669705,-126.56438224600399,96.31915473755967,-4.37931034482758,-33.02,-47.433734939759034,24.58064516129033,46.365079365079346,33.215384615384615,13.607142857142854,33.42105263157894,29.502793739382838,222.2072619948369,17.72410848863996,360.3735125235629,54.33885758157219,3371.9451006282593,1
-11.419960474308303,17.31342668863262,24.438938302978965,-121.26420775310498,125.2248556669705,-126.56438224600399,96.31915473755967,-48.172413793103445,-66.04,-62.734939759036145,20.483870967741943,38.30158730158728,25.4,-40.82142857142858,13.368421052631572,39.41533268069112,366.5503408977599,17.72410848863996,360.3735125235629,54.33885758157219,3371.9451006282593,1
-11.639575098814232,17.20881383855025,24.474798814061838,-120.881821603312,125.12838043147978,-126.5295328256843,96.18064076346286,-48.172413793103445,-66.04,-62.734939759036145,20.483870967741943,38.30158730158728,25.4,-40.82142857142858,13.368421052631572,39.41533268069112,366.5503408977599,17.774395917142105,364.8786808441395,54.18847808530803,3349.2001866239525,1
-11.639575098814232,17.20881383855025,24.474798814061838,-120.881821603312,125.12838043147978,-126.5295328256843,96.18064076346286,-56.93103448275861,-66.04,-29.07228915662651,20.483870967741943,38.30158730158728,25.4,-4.535714285714288,20.052631578947363,32.602140971672,414.12383050802924,17.774395917142105,364.8786808441395,54.18847808530803,3349.2001866239525,1
-11.639575098814232,17.20881383855025,24.474798814061838,-120.881821603312,125.12838043147978,-126.5295328256843,96.18064076346286,-65.68965517241378,-73.66,-44.373493975903614,12.29032258064517,42.333333333333314,44.93846153846154,40.82142857142857,-7.105427357601002e-15,40.51333689652324,601.1867326677292,17.774395917142105,364.8786808441395,54.18847808530803,3349.2001866239525,1
-11.670948616600793,17.31342668863262,24.438938302978965,-120.59503199096724,125.0512002430872,-126.51210811552446,96.00749829584188,-65.68965517241378,-73.66,-44.373493975903614,12.29032258064517,42.333333333333314,44.93846153846154,40.82142857142857,-7.105427357601002e-15,40.51333689652324,601.1867326677292,17.80777120273746,365.79847682427436,54.11579899419294,3327.3095438211003,1
-11.670948616600793,17.31342668863262,24.438938302978965,-120.59503199096724,125.0512002430872,-126.51210811552446,96.00749829584188,-48.172413793103445,-63.5,-50.493975903614455,16.38709677419356,32.25396825396824,9.76923076923077,-22.67857142857143,-7.105427357601002e-15,30.40690711533524,489.2062759031228,17.80777120273746,365.79847682427436,54.11579899419294,3327.3095438211003,1
-11.670948616600793,17.31342668863262,24.438938302978965,-120.59503199096724,125.0512002430872,-126.51210811552446,96.00749829584188,-48.172413793103445,-60.96,-26.012048192771086,24.58064516129033,34.26984126984125,17.584615384615386,-4.535714285714288,20.052631578947363,29.520988708285394,321.707011438883,17.80777120273746,365.79847682427436,54.11579899419294,3327.3095438211003,1
-11.263092885375496,17.99341021416804,24.438938302978965,-120.45163718479489,125.01261014889091,-126.45983398504494,95.93824130879348,-48.172413793103445,-60.96,-26.012048192771086,24.58064516129033,34.26984126984125,17.584615384615386,-4.535714285714288,20.052631578947363,29.520988708285394,321.707011438883,17.8984804675075,362.0204728219143,54.2946619006473,3292.945242146399,1
-11.263092885375496,17.99341021416804,24.438938302978965,-120.45163718479489,125.01261014889091,-126.45983398504494,95.93824130879348,-21.89655172413792,-63.5,-47.433734939759034,24.58064516129033,42.333333333333314,33.215384615384615,9.071428571428568,26.73684210526315,33.59599005632462,289.8391928169245,17.8984804675075,362.0204728219143,54.2946619006473,3292.945242146399,1
-11.263092885375496,17.99341021416804,24.438938302978965,-120.45163718479489,125.01261014889091,-126.45983398504494,95.93824130879348,-13.137931034482751,-43.18000000000001,-53.55421686746988,12.29032258064517,38.30158730158728,17.584615384615386,-45.35714285714286,6.6842105263157805,28.76125331903239,330.96080457258074,17.8984804675075,362.0204728219143,54.2946619006473,3292.945242146399,1
-11.60820158102767,18.882619439868204,24.510659325144715,-120.16484757245013,124.93542996049833,-126.37271043424573,95.90361281526927,-13.137931034482751,-43.18000000000001,-53.55421686746988,12.29032258064517,38.30158730158728,17.584615384615386,-45.35714285714286,6.6842105263157805,28.76125331903239,330.96080457258074,18.333826782013528,377.6561854396661,54.519375445821005,3239.914716283596,1
-11.60820158102767,18.882619439868204,24.510659325144715,-120.16484757245013,124.93542996049833,-126.37271043424573,95.90361281526927,-30.655172413793096,-50.800000000000004,-32.13253012048193,32.7741935483871,40.3174603174603,41.03076923076923,9.071428571428568,26.73684210526315,32.93979953844792,150.42212479315072,18.333826782013528,377.6561854396661,54.519375445821005,3239.914716283596,1
-11.60820158102767,18.882619439868204,24.510659325144715,-120.16484757245013,124.93542996049833,-126.37271043424573,95.90361281526927,-30.655172413793096,-43.18000000000001,-44.373493975903614,36.870967741935495,52.41269841269839,44.93846153846154,45.357142857142854,33.42105263157894,41.40112369643924,51.58518949473982,18.333826782013528,377.6561854396661,54.519375445821005,3239.914716283596,1
-11.263092885375496,18.987232289950576,24.79754341380771,-119.97365449755364,124.89683986630202,-126.32043630376621,95.93824130879348,-30.655172413793096,-43.18000000000001,-44.373493975903614,36.870967741935495,52.41269841269839,44.93846153846154,45.357142857142854,33.42105263157894,41.40112369643924,51.58518949473982,18.34928952971126,374.86856314515893,54.586143400437315,3215.0848844456373,1
-11.263092885375496,18.987232289950576,24.79754341380771,-119.97365449755364,124.89683986630202,-126.32043630376621,95.93824130879348,-56.93103448275861,-58.42,-29.07228915662651,20.483870967741943,40.3174603174603,48.84615384615385,-9.071428571428577,-7.105427357601002e-15,32.89277966777122,479.58308400927854,18.34928952971126,374.86856314515893,54.586143400437315,3215.0848844456373,1
-11.263092885375496,18.987232289950576,24.79754341380771,-119.97365449755364,124.89683986630202,-126.32043630376621,95.93824130879348,21.896551724137936,5.079999999999998,50.493975903614455,32.7741935483871,38.30158730158728,60.56923076923077,22.678571428571423,46.78947368421052,34.82294804496743,323.88125912192305,18.34928952971126,374.86856314515893,54.586143400437315,3215.0848844456373,1
-11.514081027667986,18.725700164744648,25.407172102216578,-119.73466315393301,124.81965967790943,-126.28558688344653,95.97286980231767,21.896551724137936,5.079999999999998,50.493975903614455,32.7741935483871,38.30158730158728,60.56923076923077,22.678571428571423,46.78947368421052,34.82294804496743,323.88125912192305,18.548984431543072,387.0442277495381,54.622511806964745,3190.854706585682,1
-11.514081027667986,18.725700164744648,25.407172102216578,-119.73466315393301,124.81965967790943,-126.28558688344653,95.97286980231767,-48.172413793103445,-60.96,-38.25301204819277,4.096774193548399,30.23809523809522,5.861538461538462,4.535714285714281,20.052631578947363,26.521272449892493,465.8767393430739,18.548984431543072,387.0442277495381,54.622511806964745,3190.854706585682,1
-11.514081027667986,18.725700164744648,25.407172102216578,-119.73466315393301,124.81965967790943,-126.28558688344653,95.97286980231767,-48.172413793103445,-76.2,-59.674698795180724,32.7741935483871,36.28571428571426,29.307692307692307,-122.46428571428572,20.052631578947363,53.11645375291387,1109.5115448273177,18.548984431543072,387.0442277495381,54.622511806964745,3190.854706585682,1
-11.639575098814232,18.725700164744648,25.83749823521107,-119.49567181031239,124.74247948951684,-126.26816217328668,96.00749829584188,-48.172413793103445,-76.2,-59.674698795180724,32.7741935483871,36.28571428571426,29.307692307692307,-122.46428571428572,20.052631578947363,53.11645375291387,1109.5115448273177,18.734257832923316,396.1931065517835,54.68629007008936,3162.836389111237,1
-11.639575098814232,18.725700164744648,25.83749823521107,-119.49567181031239,124.74247948951684,-126.26816217328668,96.00749829584188,-39.41379310344827,-50.800000000000004,-19.891566265060245,24.58064516129033,54.42857142857141,80.1076923076923,-4.535714285714288,33.42105263157894,38.39737939791948,550.907267500745,18.734257832923316,396.1931065517835,54.68629007008936,3162.836389111237,1
-11.639575098814232,18.725700164744648,25.83749823521107,-119.49567181031239,124.74247948951684,-126.26816217328668,96.00749829584188,-56.93103448275861,-55.88,-41.31325301204819,24.58064516129033,50.39682539682538,52.753846153846155,-36.28571428571429,6.6842105263157805,40.603191127349845,309.98529516477004,18.734257832923316,396.1931065517835,54.68629007008936,3162.836389111237,1
-10.666996047430832,18.67339373970346,25.227869546802204,-119.40007527286411,124.74247948951684,-126.19846333264732,96.00749829584188,-56.93103448275861,-55.88,-41.31325301204819,24.58064516129033,50.39682539682538,52.753846153846155,-36.28571428571429,6.6842105263157805,40.603191127349845,309.98529516477004,18.18941977797883,365.37683366581194,54.43377951978993,3176.204976183389,1
-10.666996047430832,18.67339373970346,25.227869546802204,-119.40007527286411,124.74247948951684,-126.19846333264732,96.00749829584188,-65.68965517241378,-71.12,-44.373493975903614,28.67741935483872,44.34920634920633,-25.4,-45.35714285714286,6.6842105263157805,41.456391029477636,447.06983856709866,18.18941977797883,365.37683366581194,54.43377951978993,3176.204976183389,1
-10.666996047430832,18.67339373970346,25.227869546802204,-119.40007527286411,124.74247948951684,-126.19846333264732,96.00749829584188,-39.41379310344827,-68.58,-53.55421686746988,4.096774193548399,22.174603174603156,-9.769230769230766,-13.607142857142861,20.052631578947363,28.906049068048837,518.7767248337237,18.18941977797883,365.37683366581194,54.43377951978993,3176.204976183389,1
-10.698369565217394,18.5164744645799,24.654101369476212,-119.3044787354159,124.74247948951684,-126.11133978184812,95.97286980231767,-39.41379310344827,-68.58,-53.55421686746988,4.096774193548399,22.174603174603156,-9.769230769230766,-13.607142857142861,20.052631578947363,28.906049068048837,518.7767248337237,17.95631513309117,356.82912948290766,54.15835152315734,3192.431034072759,1
-10.698369565217394,18.5164744645799,24.654101369476212,-119.3044787354159,124.74247948951684,-126.11133978184812,95.97286980231767,-39.41379310344827,-55.88,-41.31325301204819,32.7741935483871,38.30158730158728,25.4,-4.535714285714288,13.368421052631572,31.37337028797709,270.58659907386766,17.95631513309117,356.82912948290766,54.15835152315734,3192.431034072759,1
-10.698369565217394,18.5164744645799,24.654101369476212,-119.3044787354159,124.74247948951684,-126.11133978184812,95.97286980231767,-48.172413793103445,-60.96,-32.13253012048193,36.870967741935495,48.380952380952365,29.307692307692307,-45.35714285714286,20.052631578947363,40.15429134753197,169.82424556275313,17.95631513309117,356.82912948290766,54.15835152315734,3192.431034072759,1
-11.8278162055336,18.778006589785832,24.367217280813215,-119.11328566051935,124.72318444241871,-126.02421623104892,95.83435582822088,-48.172413793103445,-60.96,-32.13253012048193,36.870967741935495,48.380952380952365,29.307692307692307,-45.35714285714286,20.052631578947363,40.15429134753197,169.82424556275313,18.324346692044216,379.67268570082615,54.08616984370613,3179.204162627104,1
-11.8278162055336,18.778006589785832,24.367217280813215,-119.11328566051935,124.72318444241871,-126.02421623104892,95.83435582822088,-100.72413793103448,-68.58,-16.83132530120482,20.483870967741943,38.30158730158728,37.12307692307692,27.214285714285708,6.6842105263157805,39.49281183315586,957.7748283731962,18.324346692044216,379.67268570082615,54.08616984370613,3179.204162627104,1
-11.8278162055336,18.778006589785832,24.367217280813215,-119.11328566051935,124.72318444241871,-126.02421623104892,95.83435582822088,-39.41379310344827,-53.34,-44.373493975903614,36.870967741935495,26.206349206349188,-1.9538461538461505,-3.552713678800501e-15,20.052631578947363,27.77638522005376,378.2222280391823,18.324346692044216,379.67268570082615,54.08616984370613,3179.204162627104,1
-11.953310276679844,19.667215815486,24.474798814061838,-118.73089951072637,124.64600425402612,-125.86739383961034,95.73047034764829,-39.41379310344827,-53.34,-44.373493975903614,36.870967741935495,26.206349206349188,-1.9538461538461505,-3.552713678800501e-15,20.052631578947363,27.77638522005376,378.2222280391823,18.698441635409228,391.66294276008546,54.290971380091406,3120.156466683098,1
-11.953310276679844,19.667215815486,24.474798814061838,-118.73089951072637,124.64600425402612,-125.86739383961034,95.73047034764829,-30.655172413793096,-53.34,-44.373493975903614,28.67741935483872,36.28571428571426,41.03076923076923,-4.535714285714288,20.052631578947363,32.36886439071007,231.02961583779182,18.698441635409228,391.66294276008546,54.290971380091406,3120.156466683098,1
-11.953310276679844,19.667215815486,24.474798814061838,-118.73089951072637,124.64600425402612,-125.86739383961034,95.73047034764829,-83.20689655172413,-88.9,-44.373493975903614,53.25806451612904,78.61904761904759,25.4,45.357142857142854,20.052631578947363,54.895909637361825,687.004566860888,18.698441635409228,391.66294276008546,54.290971380091406,3120.156466683098,1
-11.639575098814232,19.824135090609555,25.156148524636453,-118.3485133609334,124.58811911273169,-125.71057144817178,95.66121336059989,-83.20689655172413,-88.9,-44.373493975903614,53.25806451612904,78.61904761904759,25.4,45.357142857142854,20.052631578947363,54.895909637361825,687.004566860888,18.873286238020082,395.3867838530101,54.44293232539314,3070.050057432663,1
-11.639575098814232,19.824135090609555,25.156148524636453,-118.3485133609334,124.58811911273169,-125.71057144817178,95.66121336059989,39.413793103448285,-33.02,-1.5301204819277174,73.74193548387098,32.25396825396824,-1.9538461538461505,-9.071428571428577,33.42105263157894,28.050768085008613,576.0872344823887,18.873286238020082,395.3867838530101,54.44293232539314,3070.050057432663,1
-11.639575098814232,19.824135090609555,25.156148524636453,-118.3485133609334,124.58811911273169,-125.71057144817178,95.66121336059989,4.379310344827594,-17.78,-10.71084337349398,16.38709677419356,50.39682539682538,72.29230769230769,-13.607142857142861,40.105263157894726,28.207348699585722,558.9905616472186,18.873286238020082,395.3867838530101,54.44293232539314,3070.050057432663,1
-11.451333992094863,22.073311367380562,25.69405619087957,-117.87053067369214,124.49164387724095,-125.50147492625369,95.90361281526927,4.379310344827594,-17.78,-10.71084337349398,16.38709677419356,50.39682539682538,72.29230769230769,-13.607142857142861,40.105263157894726,28.207348699585722,558.9905616472186,19.739567183451665,419.46527523348425,55.212632743984095,2947.786577996508,1
-11.451333992094863,22.073311367380562,25.69405619087957,-117.87053067369214,124.49164387724095,-125.50147492625369,95.90361281526927,-21.89655172413792,-30.480000000000004,-32.13253012048193,12.29032258064517,44.34920634920633,64.47692307692307,31.749999999999996,66.84210526315789,38.02720488931904,374.79280774526586,19.739567183451665,419.46527523348425,55.212632743984095,2947.786577996508,1
-11.451333992094863,22.073311367380562,25.69405619087957,-117.87053067369214,124.49164387724095,-125.50147492625369,95.90361281526927,-30.655172413793096,-81.28,-127.0,-57.35483870967741,-2.0158730158730336,41.03076923076923,-31.75,-6.684210526315795,47.221357987053565,1695.175893720803,19.739567183451665,419.46527523348425,55.212632743984095,2947.786577996508,1
-12.016057312252967,26.519357495881387,24.940985458139206,-116.77117049303723,124.26010331206318,-124.9961583316183,96.28452624403548,-30.655172413793096,-81.28,-127.0,-57.35483870967741,-2.0158730158730336,41.03076923076923,-31.75,-6.684210526315795,47.221357987053565,1695.175893720803,21.158800088757854,475.5487438428505,56.07717114901928,2763.443981851121,1
-12.016057312252967,26.519357495881387,24.940985458139206,-116.77117049303723,124.26010331206318,-124.9961583316183,96.28452624403548,-48.172413793103445,-68.58,-65.79518072289156,16.38709677419356,38.30158730158728,48.84615384615385,-3.552713678800501e-15,26.73684210526315,39.1024093178991,565.3100490182231,21.158800088757854,475.5487438428505,56.07717114901928,2763.443981851121,1
-12.016057312252967,26.519357495881387,24.940985458139206,-116.77117049303723,124.26010331206318,-124.9961583316183,96.28452624403548,-21.89655172413792,-43.18000000000001,-13.7710843373494,-32.77419354838709,-8.063492063492077,56.661538461538456,36.28571428571428,33.42105263157894,30.75670338152477,249.87616372889394,21.158800088757854,475.5487438428505,56.07717114901928,2763.443981851121,1
-8.910079051383402,32.01153212520593,24.474798814061838,-115.52841550621002,124.16362807657246,-124.03779927282706,96.97709611451944,-21.89655172413792,-43.18000000000001,-13.7710843373494,-32.77419354838709,-8.063492063492077,56.661538461538456,36.28571428571428,33.42105263157894,30.75670338152477,249.87616372889394,21.79880333021706,474.3217800636609,57.33824881515926,2553.772211900032,1
-8.910079051383402,32.01153212520593,24.474798814061838,-115.52841550621002,124.16362807657246,-124.03779927282706,96.97709611451944,-100.72413793103448,-99.06,-90.27710843373494,24.58064516129033,40.3174603174603,-60.56923076923077,-40.82142857142858,6.6842105263157805,57.879277713811895,1273.9300999528334,21.79880333021706,474.3217800636609,57.33824881515926,2553.772211900032,1
-8.910079051383402,32.01153212520593,24.474798814061838,-115.52841550621002,124.16362807657246,-124.03779927282706,96.97709611451944,-100.72413793103448,-45.720000000000006,32.13253012048192,102.41935483870968,84.66666666666664,48.84615384615385,-36.28571428571429,-20.052631578947377,58.85589865846353,1045.5588469686695,21.79880333021706,474.3217800636609,57.33824881515926,2553.772211900032,1
-3.7961956521739157,40.11902800658979,23.8293096145701,-115.00263455024464,124.54952901853538,-122.50442477876106,98.01595092024542,-100.72413793103448,-45.720000000000006,32.13253012048192,102.41935483870968,84.66666666666664,48.84615384615385,-36.28571428571429,-20.052631578947377,58.85589865846353,1045.5588469686695,22.581511091111267,492.8450559222409,59.65032405713484,2364.247439017051,1
-3.7961956521739157,40.11902800658979,23.8293096145701,-115.00263455024464,124.54952901853538,-122.50442477876106,98.01595092024542,-83.20689655172413,-93.98,-44.373493975903614,32.7741935483871,52.41269841269839,1.9538461538461576,9.071428571428568,13.368421052631572,41.39262228332744,1157.7004708120915,22.581511091111267,492.8450559222409,59.65032405713484,2364.247439017051,1
-3.7961956521739157,40.11902800658979,23.8293096145701,-115.00263455024464,124.54952901853538,-122.50442477876106,98.01595092024542,-56.93103448275861,-63.5,-62.734939759036145,-36.87096774193547,32.25396825396824,37.12307692307692,-72.57142857142857,20.052631578947363,47.754755913893916,344.5087862018195,22.581511091111267,492.8450559222409,59.65032405713484,2364.247439017051,1
-10.10227272727273,43.98970345963757,20.673584639277145,-111.99134362062478,124.24080826496505,-120.4657336900597,98.6046353101568,-56.93103448275861,-63.5,-62.734939759036145,-36.87096774193547,32.25396825396824,37.12307692307692,-72.57142857142857,20.052631578947363,47.754755913893916,344.5087862018195,24.92185360872915,736.1227802161097,58.884877239846496,2251.1329278008416,1
-10.10227272727273,43.98970345963757,20.673584639277145,-111.99134362062478,124.24080826496505,-120.4657336900597,98.6046353101568,-30.655172413793096,-43.18000000000001,-38.25301204819277,28.67741935483872,28.222222222222204,37.12307692307692,-22.67857142857143,20.052631578947363,31.10526324620531,62.95462815499784,24.92185360872915,736.1227802161097,58.884877239846496,2251.1329278008416,1
-10.10227272727273,43.98970345963757,20.673584639277145,-111.99134362062478,124.24080826496505,-120.4657336900597,98.6046353101568,30.65517241379311,-15.240000000000002,38.25301204819277,98.3225806451613,72.57142857142856,37.12307692307692,58.96428571428571,33.42105263157894,48.06882611843966,722.3160671282633,24.92185360872915,736.1227802161097,58.884877239846496,2251.1329278008416,1
-19.326086956521742,49.32495881383855,15.796555132006212,-106.49454271735044,123.23746581586143,-117.8694518762434,98.39686434901161,30.65517241379311,-15.240000000000002,38.25301204819277,98.3225806451613,72.57142857142856,37.12307692307692,58.96428571428571,33.42105263157894,48.06882611843966,722.3160671282633,28.149200300788834,1178.453321015808,57.20535222106506,2103.1066881973084,1
-19.326086956521742,49.32495881383855,15.796555132006212,-106.49454271735044,123.23746581586143,-117.8694518762434,98.39686434901161,13.137931034482769,-48.260000000000005,-16.83132530120482,28.67741935483872,64.50793650793649,80.1076923076923,-13.607142857142861,46.78947368421052,38.98986513093856,628.3670692058352,28.149200300788834,1178.453321015808,57.20535222106506,2103.1066881973084,1
-19.326086956521742,49.32495881383855,15.796555132006212,-106.49454271735044,123.23746581586143,-117.8694518762434,98.39686434901161,-39.41379310344827,-99.06,-62.734939759036145,16.38709677419356,24.190476190476172,1.9538461538461576,-36.28571428571429,20.052631578947363,37.509812230707745,946.0585618535526,28.149200300788834,1178.453321015808,57.20535222106506,2103.1066881973084,1
-26.416501976284586,52.25411861614498,7.441056049696456,-99.42039894617994,121.82892737769673,-114.7504287576319,97.25412406271303,-39.41379310344827,-99.06,-62.734939759036145,16.38709677419356,24.190476190476172,1.9538461538461576,-36.28571428571429,20.052631578947363,37.509812230707745,946.0585618535526,28.70389221404201,1557.268559410851,53.03852453734046,2115.5113494041266,1
-26.416501976284586,52.25411861614498,7.441056049696456,-99.42039894617994,121.82892737769673,-114.7504287576319,97.25412406271303,-30.655172413793096,-53.34,-44.373493975903614,-12.290322580645153,-8.063492063492077,-13.676923076923075,-13.607142857142861,6.6842105263157805,22.836344686776954,316.41088849483407,28.70389221404201,1557.268559410851,53.03852453734046,2115.5113494041266,1
-26.416501976284586,52.25411861614498,7.441056049696456,-99.42039894617994,121.82892737769673,-114.7504287576319,97.25412406271303,-21.89655172413792,-53.34,-41.31325301204819,32.7741935483871,46.365079365079346,33.215384615384615,-4.535714285714288,33.42105263157894,33.3576536477913,227.74351175241415,28.70389221404201,1557.268559410851,53.03852453734046,2115.5113494041266,1
-35.42070158102767,54.76482701812191,-0.1255117887900603,-90.72111403838915,119.8222424794895,-111.40488440694244,95.4880708929789,-21.89655172413792,-53.34,-41.31325301204819,32.7741935483871,46.365079365079346,33.215384615384615,-4.535714285714288,33.42105263157894,33.3576536477913,227.74351175241415,30.10368012931322,2065.354880919281,48.5371509484337,2080.9787486636164,1
-35.42070158102767,54.76482701812191,-0.1255117887900603,-90.72111403838915,119.8222424794895,-111.40488440694244,95.4880708929789,-30.655172413793096,-53.34,-50.493975903614455,4.096774193548399,50.39682539682538,80.1076923076923,4.535714285714281,20.052631578947363,36.70984826001691,707.1685424491441,30.10368012931322,2065.354880919281,48.5371509484337,2080.9787486636164,1
-35.42070158102767,54.76482701812191,-0.1255117887900603,-90.72111403838915,119.8222424794895,-111.40488440694244,95.4880708929789,-13.137931034482751,-17.78,-4.590361445783138,45.06451612903227,64.50793650793649,72.29230769230769,77.10714285714286,40.105263157894726,41.8231823530725,784.083177636259,30.10368012931322,2065.354880919281,48.5371509484337,2080.9787486636164,1
-43.79743083003953,55.86326194398682,-12.353946068050263,-80.34888972525403,117.23670616833788,-107.51917404129794,92.37150647580097,-13.137931034482751,-17.78,-4.590361445783138,45.06451612903227,64.50793650793649,72.29230769230769,77.10714285714286,40.105263157894726,41.8231823530725,784.083177636259,37.338212947358876,2595.7556478556426,49.522032579097036,1185.9864831301838,1
-43.79743083003953,55.86326194398682,-12.353946068050263,-80.34888972525403,117.23670616833788,-107.51917404129794,92.37150647580097,-39.41379310344827,-58.42,-53.55421686746988,24.58064516129033,52.41269841269839,60.56923076923077,-9.071428571428577,20.052631578947363,39.7593305580642,384.613190953669,37.338212947358876,2595.7556478556426,49.522032579097036,1185.9864831301838,1
-43.79743083003953,55.86326194398682,-12.353946068050263,-80.34888972525403,117.23670616833788,-107.51917404129794,92.37150647580097,-83.20689655172413,-96.52000000000001,-102.51807228915662,36.870967741935495,48.380952380952365,41.03076923076923,-22.67857142857143,26.73684210526315,57.242883966046556,1021.1937469482806,37.338212947358876,2595.7556478556426,49.522032579097036,1185.9864831301838,1
-40.47183794466403,60.4662273476112,-26.626429479034307,-70.07226194956718,115.15284108173806,-102.16978802222681,87.28111792774371,-83.20689655172413,-96.52000000000001,-102.51807228915662,36.870967741935495,48.380952380952365,41.03076923076923,-22.67857142857143,26.73684210526315,57.242883966046556,1021.1937469482806,42.52149825710318,2994.219872275265,52.388306258737565,520.8246966029542,1
-40.47183794466403,60.4662273476112,-26.626429479034307,-70.07226194956718,115.15284108173806,-102.16978802222681,87.28111792774371,-30.655172413793096,-45.720000000000006,-38.25301204819277,36.870967741935495,20.15873015873014,17.584615384615386,-3.552713678800501e-15,13.368421052631572,25.326364849987307,230.8184168379744,42.52149825710318,2994.219872275265,52.388306258737565,520.8246966029542,1
-40.47183794466403,60.4662273476112,-26.626429479034307,-70.07226194956718,115.15284108173806,-102.16978802222681,87.28111792774371,-13.137931034482751,-43.18000000000001,-41.31325301204819,24.58064516129033,42.333333333333314,33.215384615384615,-4.535714285714288,26.73684210526315,28.62913794343958,203.12780341087267,42.52149825710318,2994.219872275265,52.388306258737565,520.8246966029542,1
-44.89550395256917,61.40774299835255,-40.75547084568686,-60.60820474219042,113.28122151321786,-96.47190779995884,80.90947511929109,-13.137931034482751,-43.18000000000001,-41.31325301204819,24.58064516129033,42.333333333333314,33.215384615384615,-4.535714285714288,26.73684210526315,28.62913794343958,203.12780341087267,49.01957259886953,3625.8070748962755,54.257139528743274,136.88110827603657,1
-44.89550395256917,61.40774299835255,-40.75547084568686,-60.60820474219042,113.28122151321786,-96.47190779995884,80.90947511929109,-56.93103448275861,-58.42,-62.734939759036145,36.870967741935495,52.41269841269839,48.84615384615385,-18.142857142857146,-7.105427357601002e-15,41.79483142317996,490.9882160437538,49.01957259886953,3625.8070748962755,54.257139528743274,136.88110827603657,1
-44.89550395256917,61.40774299835255,-40.75547084568686,-60.60820474219042,113.28122151321786,-96.47190779995884,80.90947511929109,-48.172413793103445,-53.34,-29.07228915662651,49.161290322580655,48.380952380952365,56.661538461538456,77.10714285714286,26.73684210526315,48.579058634650934,251.42638721153085,49.01957259886953,3625.8070748962755,54.257139528743274,136.88110827603657,1
-61.20973320158103,56.22940691927513,-60.514612452350704,-48.706435829883276,110.36766940139775,-89.95506620017838,71.04035446489436,-48.172413793103445,-53.34,-29.07228915662651,49.161290322580655,48.380952380952365,56.661538461538456,77.10714285714286,26.73684210526315,48.579058634650934,251.42638721153085,59.3179175244023,4570.266814037442,55.15015173383637,35.73185260331891,1
-61.20973320158103,56.22940691927513,-60.514612452350704,-48.706435829883276,110.36766940139775,-89.95506620017838,71.04035446489436,-30.655172413793096,-48.260000000000005,-29.07228915662651,32.7741935483871,38.30158730158728,29.307692307692307,4.535714285714281,26.73684210526315,29.955436389882966,152.98163555333008,59.3179175244023,4570.266814037442,55.15015173383637,35.73185260331891,1
-61.20973320158103,56.22940691927513,-60.514612452350704,-48.706435829883276,110.36766940139775,-89.95506620017838,71.04035446489436,-65.68965517241378,-78.74000000000001,-47.433734939759034,-12.290322580645153,18.142857142857125,-21.49230769230769,-31.75,6.6842105263157805,35.27788600678732,686.2456332694683,59.3179175244023,4570.266814037442,55.15015173383637,35.73185260331891,1
-84.17514822134387,56.12479406919275,-81.27784836933503,-33.74557771923219,105.7754481920389,-82.47986554160664,57.95078391274713,-65.68965517241378,-78.74000000000001,-47.433734939759034,-12.290322580645153,18.142857142857125,-21.49230769230769,-31.75,6.6842105263157805,35.27788600678732,686.2456332694683,73.85926355329055,6428.659050375045,57.04940671925332,565.4703697031462,1
-84.17514822134387,56.12479406919275,-81.27784836933503,-33.74557771923219,105.7754481920389,-82.47986554160664,57.95078391274713,4.379310344827594,-17.78,-22.951807228915666,12.29032258064517,50.39682539682538,56.661538461538456,13.607142857142854,26.73684210526315,25.600473621894785,345.7790370551803,73.85926355329055,6428.659050375045,57.04940671925332,565.4703697031462,1
-84.17514822134387,56.12479406919275,-81.27784836933503,-33.74557771923219,105.7754481920389,-82.47986554160664,57.95078391274713,-39.41379310344827,-50.800000000000004,-29.07228915662651,28.67741935483872,46.365079365079346,37.12307692307692,13.607142857142854,26.73684210526315,33.97445535818447,142.20385952033016,73.85926355329055,6428.659050375045,57.04940671925332,565.4703697031462,1
-109.90143280632411,62.349258649093905,-101.1445715092475,-15.821226947685318,98.96429656639317,-73.88948343280511,42.471847307430146,-39.41379310344827,-50.800000000000004,-29.07228915662651,28.67741935483872,46.365079365079346,37.12307692307692,13.607142857142854,26.73684210526315,33.97445535818447,142.20385952033016,91.13175432155516,9412.869304415075,59.77168570200891,1825.0011935159241,1
-109.90143280632411,62.349258649093905,-101.1445715092475,-15.821226947685318,98.96429656639317,-73.88948343280511,42.471847307430146,-30.655172413793096,-55.88,-10.71084337349398,12.29032258064517,18.142857142857125,21.49230769230769,-4.535714285714288,20.052631578947363,21.71998113346984,252.541548527216,91.13175432155516,9412.869304415075,59.77168570200891,1825.0011935159241,1
-109.90143280632411,62.349258649093905,-101.1445715092475,-15.821226947685318,98.96429656639317,-73.88948343280511,42.471847307430146,-4.37931034482758,-50.800000000000004,-41.31325301204819,49.161290322580655,44.34920634920633,44.93846153846154,90.71428571428571,53.47368421052631,47.391186436492035,547.2676071137901,91.13175432155516,9412.869304415075,59.77168570200891,1825.0011935159241,1
-118.99975296442688,77.67504118616145,-116.60045178596641,1.9119307489650055,91.0726223032513,-63.85285038073678,26.127198364008194,-4.37931034482758,-50.800000000000004,-41.31325301204819,49.161290322580655,44.34920634920633,44.93846153846154,90.71428571428571,53.47368421052631,47.391186436492035,547.2676071137901,104.42508197885157,12738.283078314093,65.39580790703096,3401.448891856158,1
-118.99975296442688,77.67504118616145,-116.60045178596641,1.9119307489650055,91.0726223032513,-63.85285038073678,26.127198364008194,-39.41379310344827,-50.800000000000004,-32.13253012048193,28.67741935483872,44.34920634920633,48.84615384615385,4.535714285714281,20.052631578947363,33.60093107984884,247.46857011794444,104.42508197885157,12738.283078314093,65.39580790703096,3401.448891856158,1
-118.99975296442688,77.67504118616145,-116.60045178596641,1.9119307489650055,91.0726223032513,-63.85285038073678,26.127198364008194,-48.172413793103445,-60.96,-50.493975903614455,8.193548387096783,40.3174603174603,37.12307692307692,-22.67857142857143,6.6842105263157805,34.32790715990489,398.4077039479544,104.42508197885157,12738.283078314093,65.39580790703096,3401.448891856158,1
-116.5526185770751,91.01317957166393,-124.45390371311592,17.06398193451264,82.94940747493162,-52.823008849557525,9.851806407634644,-48.172413793103445,-60.96,-50.493975903614455,8.193548387096783,40.3174603174603,37.12307692307692,-22.67857142857143,6.6842105263157805,34.32790715990489,398.4077039479544,110.67323395395165,14928.67580786239,77.5103550730975,3019.893526982947,1
-116.5526185770751,91.01317957166393,-124.45390371311592,17.06398193451264,82.94940747493162,-52.823008849557525,9.851806407634644,-21.89655172413792,-50.800000000000004,-29.07228915662651,28.67741935483872,42.333333333333314,37.12307692307692,13.607142857142854,13.368421052631572,29.609779300223476,178.2688689895744,110.67323395395165,14928.67580786239,77.5103550730975,3019.893526982947,1
-116.5526185770751,91.01317957166393,-124.45390371311592,17.06398193451264,82.94940747493162,-52.823008849557525,9.851806407634644,-21.89655172413792,-58.42,-32.13253012048193,28.67741935483872,42.333333333333314,29.307692307692307,-22.67857142857143,6.6842105263157805,30.266288599421426,232.70166535020988,110.67323395395165,14928.67580786239,77.5103550730975,3019.893526982947,1
-120.1919466403162,96.97611202635915,-125.02767189044192,30.543093714715837,73.95791552719537,-41.462097825341296,-5.938786639400121,-21.89655172413792,-58.42,-32.13253012048193,28.67741935483872,42.333333333333314,29.307692307692307,-22.67857142857143,6.6842105263157805,30.266288599421426,232.70166535020988,114.06524351903909,16078.50500285416,84.18229254383897,2354.5952409747083,1
-120.1919466403162,96.97611202635915,-125.02767189044192,30.543093714715837,73.95791552719537,-41.462097825341296,-5.938786639400121,-21.89655172413792,-55.88,-38.25301204819277,36.870967741935495,44.34920634920633,37.12307692307692,4.535714285714281,26.73684210526315,33.205671397190855,240.60972011038544,114.06524351903909,16078.50500285416,84.18229254383897,2354.5952409747083,1
-120.1919466403162,96.97611202635915,-125.02767189044192,30.543093714715837,73.95791552719537,-41.462097825341296,-5.938786639400121,-21.89655172413792,-58.42,-38.25301204819277,24.58064516129033,22.174603174603156,21.49230769230769,90.71428571428571,33.42105263157894,38.86905726829957,596.1583184070377,114.06524351903909,16078.50500285416,84.18229254383897,2354.5952409747083,1
-127.0,104.03747940691927,-125.99590568967952,42.63605570191942,63.75083561227591,-29.73526788776841,-21.106066802999308,-21.89655172413792,-58.42,-38.25301204819277,24.58064516129033,22.174603174603156,21.49230769230769,90.71428571428571,33.42105263157894,38.86905726829957,596.1583184070377,119.01112836553291,17715.780559181134,90.88981359950606,1866.861984633034,1
-127.0,104.03747940691927,-125.99590568967952,42.63605570191942,63.75083561227591,-29.73526788776841,-21.106066802999308,-56.93103448275861,-50.800000000000004,-29.07228915662651,32.7741935483871,40.3174603174603,41.03076923076923,-3.552713678800501e-15,13.368421052631572,33.036770973579166,356.7769810719968,119.01112836553291,17715.780559181134,90.88981359950606,1866.861984633034,1
-127.0,104.03747940691927,-125.99590568967952,42.63605570191942,63.75083561227591,-29.73526788776841,-21.106066802999308,-30.655172413793096,-53.34,-29.07228915662651,24.58064516129033,36.28571428571426,33.215384615384615,-9.071428571428577,26.73684210526315,30.369684538687572,153.26053938524018,119.01112836553291,17715.780559181134,90.88981359950606,1866.861984633034,1
-125.0548418972332,116.95716639209226,-127.0,51.956718103123876,53.19644484958978,-17.39857309460109,-35.44226312201771,-30.655172413793096,-53.34,-29.07228915662651,24.58064516129033,36.28571428571426,33.215384615384615,-9.071428571428577,26.73684210526315,30.369684538687572,153.26053938524018,123.00400276310849,19681.44913838938,98.63796149840539,1659.5684904161649,1
-125.0548418972332,116.95716639209226,-127.0,51.956718103123876,53.19644484958978,-17.39857309460109,-35.44226312201771,-21.89655172413792,-58.42,-32.13253012048193,20.483870967741943,48.380952380952365,37.12307692307692,18.14285714285714,26.73684210526315,32.914585170563925,205.76369830924818,123.00400276310849,19681.44913838938,98.63796149840539,1659.5684904161649,1
-125.0548418972332,116.95716639209226,-127.0,51.956718103123876,53.19644484958978,-17.39857309460109,-35.44226312201771,-48.172413793103445,-53.34,-41.31325301204819,28.67741935483872,46.365079365079346,37.12307692307692,-9.071428571428577,6.6842105263157805,33.84336019323637,312.3921405778735,123.00400276310849,19681.44913838938,98.63796149840539,1659.5684904161649,1
-119.84683794466403,127.0,-124.66906677961316,58.07489649981187,42.564873898511095,-4.783082938876319,-48.739604635310144,-48.172413793103445,-53.34,-41.31325301204819,28.67741935483872,46.365079365079346,37.12307692307692,-9.071428571428577,6.6842105263157805,33.84336019323637,312.3921405778735,123.8386349080924,20715.655744656204,103.24798775980834,1531.814442907453,1
-119.84683794466403,127.0,-124.66906677961316,58.07489649981187,42.564873898511095,-4.783082938876319,-48.739604635310144,-21.89655172413792,-45.720000000000006,-29.07228915662651,36.870967741935495,36.28571428571426,33.215384615384615,-4.535714285714288,33.42105263157894,30.127209305136503,152.95828739628425,123.8386349080924,20715.655744656204,103.24798775980834,1531.814442907453,1
-119.84683794466403,127.0,-124.66906677961316,58.07489649981187,42.564873898511095,-4.783082938876319,-48.739604635310144,-39.41379310344827,-53.34,-44.373493975903614,28.67741935483872,44.34920634920633,33.215384615384615,95.25,33.42105263157894,46.505043753795064,449.6992024143281,123.8386349080924,20715.655744656204,103.24798775980834,1531.814442907453,1
-114.6074604743083,124.3846787479407,-120.90371311591133,61.372977041776494,31.93330294743238,7.361940042532751,-61.4828902522154,-39.41379310344827,-53.34,-44.373493975903614,28.67741935483872,44.34920634920633,33.215384615384615,95.25,33.42105263157894,46.505043753795064,449.6992024143281,119.96528411272011,19553.880098418063,102.22045630187618,1254.4167018610476,1
-114.6074604743083,124.3846787479407,-120.90371311591133,61.372977041776494,31.93330294743238,7.361940042532751,-61.4828902522154,-48.172413793103445,-50.800000000000004,-29.07228915662651,20.483870967741943,38.30158730158728,37.12307692307692,-4.535714285714288,13.368421052631572,30.232171685060248,271.22237064339924,119.96528411272011,19553.880098418063,102.22045630187618,1254.4167018610476,1
-114.6074604743083,124.3846787479407,-120.90371311591133,61.372977041776494,31.93330294743238,7.361940042532751,-61.4828902522154,-39.41379310344827,-48.260000000000005,-35.19277108433735,32.7741935483871,44.34920634920633,33.215384615384615,-9.071428571428577,20.052631578947363,32.79117610639245,163.9394958770758,119.96528411272011,19553.880098418063,102.22045630187618,1254.4167018610476,1
-116.45849802371542,114.76029654036245,-112.11788790060709,63.14151298456909,20.742175630507433,18.618302805789938,-73.01417859577369,-39.41379310344827,-48.260000000000005,-35.19277108433735,32.7741935483871,44.34920634920633,33.215384615384615,-9.071428571428577,20.052631578947363,32.79117610639245,163.9394958770758,114.44556082156164,17492.447071856113,96.67323247517955,845.027739852602,1
-116.45849802371542,114.76029654036245,-112.11788790060709,63.14151298456909,20.742175630507433,18.618302805789938,-73.01417859577369,-39.41379310344827,-53.34,-41.31325301204819,36.870967741935495,48.380952380952365,48.84615384615385,22.678571428571423,33.42105263157894,40.53309301808606,97.05006377956288,114.44556082156164,17492.447071856113,96.67323247517955,845.027739852602,1
-116.45849802371542,114.76029654036245,-112.11788790060709,63.14151298456909,20.742175630507433,18.618302805789938,-73.01417859577369,-48.172413793103445,-58.42,-38.25301204819277,16.38709677419356,44.34920634920633,37.12307692307692,-36.28571428571429,-6.684210526315795,35.709341337475394,281.4797039535844,114.44556082156164,17492.447071856113,96.67323247517955,845.027739852602,1
-123.1096837944664,108.01276771004943,-102.00522377523649,64.24087316522389,8.489820723184437,29.142827742333807,-82.74478527607361,-48.172413793103445,-58.42,-38.25301204819277,16.38709677419356,44.34920634920633,37.12307692307692,-36.28571428571429,-6.684210526315795,35.709341337475394,281.4797039535844,111.04255842658411,16328.42376161236,91.41962155016995,563.0359188613324,1
-123.1096837944664,108.01276771004943,-102.00522377523649,64.24087316522389,8.489820723184437,29.142827742333807,-82.74478527607361,-39.41379310344827,-55.88,-38.25301204819277,28.67741935483872,44.34920634920633,41.03076923076923,18.14285714285714,33.42105263157894,37.39601373261142,124.360029354086,111.04255842658411,16328.42376161236,91.41962155016995,563.0359188613324,1
-123.1096837944664,108.01276771004943,-102.00522377523649,64.24087316522389,8.489820723184437,29.142827742333807,-82.74478527607361,-30.655172413793096,-53.34,-35.19277108433735,32.7741935483871,46.365079365079346,33.215384615384615,68.03571428571428,26.73684210526315,40.78939467724487,197.72512196854709,111.04255842658411,16328.42376161236,91.41962155016995,563.0359188613324,1
-125.36857707509881,106.49588138385502,-95.8013553578992,63.76289047798264,-4.244910361592233,39.28400905536118,-91.19413769597818,-30.655172413793096,-53.34,-35.19277108433735,32.7741935483871,46.365079365079346,33.215384615384615,68.03571428571428,26.73684210526315,40.78939467724487,197.72512196854709,109.221937938951,15926.586614981221,88.68670907324561,494.4907717571442,1
-125.36857707509881,106.49588138385502,-95.8013553578992,63.76289047798264,-4.244910361592233,39.28400905536118,-91.19413769597818,-39.41379310344827,-55.88,-44.373493975903614,24.58064516129033,44.34920634920633,33.215384615384615,9.071428571428568,26.73684210526315,34.70259923524061,211.7624060804549,109.221937938951,15926.586614981221,88.68670907324561,494.4907717571442,1
-125.36857707509881,106.49588138385502,-95.8013553578992,63.76289047798264,-4.244910361592233,39.28400905536118,-91.19413769597818,-48.172413793103445,-58.42,-38.25301204819277,28.67741935483872,46.365079365079346,37.12307692307692,-4.535714285714288,33.42105263157894,36.87097105019805,258.4000000916134,109.221937938951,15926.586614981221,88.68670907324561,494.4907717571442,1
-125.14896245059289,107.85584843492586,-90.20711562897078,61.32517877305236,-17.17259191735036,49.18124442615078,-98.53537832310838,-48.172413793103445,-58.42,-38.25301204819277,28.67741935483872,46.365079365079346,37.12307692307692,-4.535714285714288,33.42105263157894,36.87097105019805,258.4000000916134,107.73730883816317,15790.185381479747,86.462714278983,551.7912108979415,1
-125.14896245059289,107.85584843492586,-90.20711562897078,61.32517877305236,-17.17259191735036,49.18124442615078,-98.53537832310838,-48.172413793103445,-58.42,-41.31325301204819,8.193548387096783,42.333333333333314,52.753846153846155,4.535714285714281,-6.684210526315795,32.800789936432245,505.7990237440102,107.73730883816317,15790.185381479747,86.462714278983,551.7912108979415,1
-125.14896245059289,107.85584843492586,-90.20711562897078,61.32517877305236,-17.17259191735036,49.18124442615078,-98.53537832310838,-48.172413793103445,-58.42,-50.493975903614455,-4.096774193548377,12.095238095238077,13.676923076923078,-36.28571428571429,20.052631578947363,30.411708865886137,421.86297525034604,107.73730883816317,15790.185381479747,86.462714278983,551.7912108979415,1
-121.4155138339921,110.57578253706755,-79.80756741493718,57.07113285660523,-29.714372531145557,58.67771146326403,-104.14519427402863,-48.172413793103445,-58.42,-50.493975903614455,-4.096774193548377,12.095238095238077,13.676923076923078,-36.28571428571429,20.052631578947363,30.411708865886137,421.86297525034604,103.93295459533228,15299.50045601388,82.48482760286998,721.0626759426667,1
-121.4155138339921,110.57578253706755,-79.80756741493718,57.07113285660523,-29.714372531145557,58.67771146326403,-104.14519427402863,-30.655172413793096,-55.88,-35.19277108433735,28.67741935483872,46.365079365079346,41.03076923076923,9.071428571428568,26.73684210526315,34.201185265688686,199.40929640437065,103.93295459533228,15299.50045601388,82.48482760286998,721.0626759426667,1
-121.4155138339921,110.57578253706755,-79.80756741493718,57.07113285660523,-29.714372531145557,58.67771146326403,-104.14519427402863,-39.41379310344827,-55.88,-41.31325301204819,24.58064516129033,46.365079365079346,37.12307692307692,45.357142857142854,20.052631578947363,38.760702750129155,136.44281749775635,103.93295459533228,15299.50045601388,82.48482760286998,721.0626759426667,1
-117.30558300395256,110.3665568369028,-70.41211351122406,51.191945803537806,-41.81236706168338,67.73856074638128,-108.40449897750511,-39.41379310344827,-55.88,-41.31325301204819,24.58064516129033,46.365079365079346,37.12307692307692,45.357142857142854,20.052631578947363,38.760702750129155,136.44281749775635,99.36141778402647,14452.421398936029,77.32353871722155,911.2344965210838,1
-117.30558300395256,110.3665568369028,-70.41211351122406,51.191945803537806,-41.81236706168338,67.73856074638128,-108.40449897750511,-13.137931034482751,-43.18000000000001,-26.012048192771086,57.35483870967742,60.47619047619045,80.1076923076923,36.28571428571428,60.157894736842096,47.0890387179213,467.7912298870986,99.36141778402647,14452.421398936029,77.32353871722155,911.2344965210838,1
-117.30558300395256,110.3665568369028,-70.41211351122406,51.191945803537806,-41.81236706168338,67.73856074638128,-108.40449897750511,-56.93103448275861,-58.42,-41.31325301204819,12.29032258064517,6.04761904761903,-13.676923076923075,-9.071428571428577,-13.36842105263159,26.38987522800678,489.30132760241685,99.36141778402647,14452.421398936029,77.32353871722155,911.2344965210838,1
-110.24654150197628,99.48682042833609,-65.570944515036,44.165600301091445,-53.42798541476755,75.84105097070727,-112.38677573278801,-56.93103448275861,-58.42,-41.31325301204819,12.29032258064517,6.04761904761903,-13.676923076923075,-9.071428571428577,-13.36842105263159,26.38987522800678,489.30132760241685,91.76810214844944,12204.676306805397,69.74112174815451,778.1521327084794,1
-110.24654150197628,99.48682042833609,-65.570944515036,44.165600301091445,-53.42798541476755,75.84105097070727,-112.38677573278801,-39.41379310344827,-53.34,-35.19277108433735,24.58064516129033,36.28571428571426,29.307692307692307,13.607142857142854,20.052631578947363,31.472548797321593,154.2896538779284,91.76810214844944,12204.676306805397,69.74112174815451,778.1521327084794,1
-110.24654150197628,99.48682042833609,-65.570944515036,44.165600301091445,-53.42798541476755,75.84105097070727,-112.38677573278801,-39.41379310344827,-58.42,-38.25301204819277,28.67741935483872,52.41269841269839,52.753846153846155,-27.214285714285715,26.73684210526315,40.48523711157165,160.73295974245065,91.76810214844944,12204.676306805397,69.74112174815451,778.1521327084794,1
-100.70899209486166,83.37644151565074,-61.303543696173946,36.56567557395556,-64.40686721361288,82.67153735336488,-116.50756646216769,-39.41379310344827,-58.42,-38.25301204819277,28.67741935483872,52.41269841269839,52.753846153846155,-27.214285714285715,26.73684210526315,40.48523711157165,160.73295974245065,81.79632576889544,9395.422391994303,60.41522026192675,548.4037909049168,1
-100.70899209486166,83.37644151565074,-61.303543696173946,36.56567557395556,-64.40686721361288,82.67153735336488,-116.50756646216769,-39.41379310344827,-50.800000000000004,-41.31325301204819,20.483870967741943,40.3174603174603,29.307692307692307,-4.535714285714288,26.73684210526315,31.613578262421058,212.1405930462894,81.79632576889544,9395.422391994303,60.41522026192675,548.4037909049168,1
-100.70899209486166,83.37644151565074,-61.303543696173946,36.56567557395556,-64.40686721361288,82.67153735336488,-116.50756646216769,-39.41379310344827,-58.42,-38.25301204819277,20.483870967741943,52.41269841269839,72.29230769230769,9.071428571428568,20.052631578947363,38.79996779684562,466.19899072013465,81.79632576889544,9395.422391994303,60.41522026192675,548.4037909049168,1
-92.55187747035573,71.34596375617792,-53.70111534660455,28.91795257809565,-74.65253722272865,88.42169170611237,-120.1781867757328,-39.41379310344827,-58.42,-38.25301204819277,20.483870967741943,52.41269841269839,72.29230769230769,9.071428571428568,20.052631578947363,38.79996779684562,466.19899072013465,72.53298552437941,7334.776011408646,51.32167722695937,454.280327455784,1
-92.55187747035573,71.34596375617792,-53.70111534660455,28.91795257809565,-74.65253722272865,88.42169170611237,-120.1781867757328,-39.41379310344827,-58.42,-38.25301204819277,16.38709677419356,26.206349206349188,-5.8615384615384585,-36.28571428571429,13.368421052631572,29.274490616508515,294.100723703597,72.53298552437941,7334.776011408646,51.32167722695937,454.280327455784,1
-92.55187747035573,71.34596375617792,-53.70111534660455,28.91795257809565,-74.65253722272865,88.42169170611237,-120.1781867757328,-48.172413793103445,-73.66,-41.31325301204819,24.58064516129033,38.30158730158728,56.661538461538456,13.607142857142854,20.052631578947363,39.54365152070724,401.7958482189866,72.53298552437941,7334.776011408646,51.32167722695937,454.280327455784,1
-83.54767786561266,70.19522240527183,-44.55668502047155,20.74444862627024,-83.79838954725008,93.70137888454414,-123.15623721881391,-48.172413793103445,-73.66,-41.31325301204819,24.58064516129033,38.30158730158728,56.661538461538456,13.607142857142854,20.052631578947363,39.54365152070724,401.7958482189866,66.09986176378534,6387.529527433227,45.16545201733788,611.6227047778532,1
-83.54767786561266,70.19522240527183,-44.55668502047155,20.74444862627024,-83.79838954725008,93.70137888454414,-123.15623721881391,-30.655172413793096,-50.800000000000004,-41.31325301204819,20.483870967741943,54.42857142857141,72.29230769230769,31.749999999999996,46.78947368421052,43.56408114983411,264.2977993464513,66.09986176378534,6387.529527433227,45.16545201733788,611.6227047778532,1
-83.54767786561266,70.19522240527183,-44.55668502047155,20.74444862627024,-83.79838954725008,93.70137888454414,-123.15623721881391,-48.172413793103445,-43.18000000000001,-44.373493975903614,12.29032258064517,26.206349206349188,-5.8615384615384585,-40.82142857142858,-33.42105263157895,31.790824902568424,246.340946429995,66.09986176378534,6387.529527433227,45.16545201733788,611.6227047778532,1
-74.13562252964428,69.09678747940691,-35.268812650007064,12.284155062100126,-91.72865390458827,98.5454483089799,-125.51097477845943,-48.172413793103445,-43.18000000000001,-44.373493975903614,12.29032258064517,26.206349206349188,-5.8615384615384585,-40.82142857142858,-33.42105263157895,31.790824902568424,246.340946429995,59.50040755301942,5486.388446265592,38.8832517305047,816.716927945976,1
-74.13562252964428,69.09678747940691,-35.268812650007064,12.284155062100126,-91.72865390458827,98.5454483089799,-125.51097477845943,-21.89655172413792,-50.800000000000004,-32.13253012048193,12.29032258064517,34.26984126984125,25.4,27.214285714285708,13.368421052631572,27.171494057752945,153.7491189833067,59.50040755301942,5486.388446265592,38.8832517305047,816.716927945976,1
-74.13562252964428,69.09678747940691,-35.268812650007064,12.284155062100126,-91.72865390458827,98.5454483089799,-125.51097477845943,-21.89655172413792,-50.800000000000004,-29.07228915662651,49.161290322580655,60.47619047619045,52.753846153846155,49.89285714285714,46.78947368421052,45.10531233255617,166.44368221642586,59.50040755301942,5486.388446265592,38.8832517305047,816.716927945976,1
-63.782361660079054,62.349258649093905,-19.956374417619656,4.636432066240104,-98.17319963536919,102.7273787473417,-126.6190865712338,-21.89655172413792,-50.800000000000004,-29.07228915662651,49.161290322580655,60.47619047619045,52.753846153846155,49.89285714285714,46.78947368421052,45.10531233255617,166.44368221642586,48.6959982422642,4100.686672351014,28.980688377651223,893.7712698825544,1
-63.782361660079054,62.349258649093905,-19.956374417619656,4.636432066240104,-98.17319963536919,102.7273787473417,-126.6190865712338,-56.93103448275861,-53.34,-38.25301204819277,28.67741935483872,38.30158730158728,33.215384615384615,13.607142857142854,26.73684210526315,36.132802845646,199.6623563566325,48.6959982422642,4100.686672351014,28.980688377651223,893.7712698825544,1
-63.782361660079054,62.349258649093905,-19.956374417619656,4.636432066240104,-98.17319963536919,102.7273787473417,-126.6190865712338,-39.41379310344827,-58.42,-29.07228915662651,32.7741935483871,22.174603174603156,-21.49230769230769,18.14285714285714,13.368421052631572,29.35730810885768,207.4838848294822,48.6959982422642,4100.686672351014,28.980688377651223,893.7712698825544,1
-55.49975296442688,55.13097199341021,-5.648030495552732,-4.9232216785848095,-104.54056517775751,107.74569527337584,-127.0,-39.41379310344827,-58.42,-29.07228915662651,32.7741935483871,22.174603174603156,-21.49230769230769,18.14285714285714,13.368421052631572,29.35730810885768,207.4838848294822,38.75958515112994,3069.7397802272694,21.900741389182585,828.3175064628985,1
-55.49975296442688,55.13097199341021,-5.648030495552732,-4.9232216785848095,-104.54056517775751,107.74569527337584,-127.0,-30.655172413793096,-63.5,-38.25301204819277,28.67741935483872,30.23809523809522,37.12307692307692,-13.607142857142861,13.368421052631572,31.927792485971395,251.27710073625272,38.75958515112994,3069.7397802272694,21.900741389182585,828.3175064628985,1
-55.49975296442688,55.13097199341021,-5.648030495552732,-4.9232216785848095,-104.54056517775751,107.74569527337584,-127.0,-30.655172413793096,-58.42,-41.31325301204819,36.870967741935495,56.44444444444443,52.753846153846155,4.535714285714281,46.78947368421052,40.97285896699902,309.63698590567213,38.75958515112994,3069.7397802272694,21.900741389182585,828.3175064628985,1
-50.41724308300395,51.83566721581549,4.285331074403501,-13.383515242755038,-109.63445761166818,112.20642107429512,-126.06503067484661,-30.655172413793096,-58.42,-41.31325301204819,36.870967741935495,56.44444444444443,52.753846153846155,4.535714285714281,46.78947368421052,40.97285896699902,309.63698590567213,35.512747124407646,2618.1772918643915,23.16817117765801,637.0632356136418,1
-50.41724308300395,51.83566721581549,4.285331074403501,-13.383515242755038,-109.63445761166818,112.20642107429512,-126.06503067484661,-65.68965517241378,-71.12,-47.433734939759034,20.483870967741943,30.23809523809522,13.676923076923078,-13.607142857142861,-7.105427357601002e-15,32.78117778150949,676.0633440143538,35.512747124407646,2618.1772918643915,23.16817117765801,637.0632356136418,1
-50.41724308300395,51.83566721581549,4.285331074403501,-13.383515242755038,-109.63445761166818,112.20642107429512,-126.06503067484661,-30.655172413793096,-50.800000000000004,-19.891566265060245,20.483870967741943,38.30158730158728,41.03076923076923,49.89285714285714,26.73684210526315,34.724083178384014,149.1769837877412,35.512747124407646,2618.1772918643915,23.16817117765801,637.0632356136418,1
-51.13883399209486,49.429571663920925,5.576309473386981,-21.557019194580334,-114.55469462169553,116.38835151265693,-124.57600545330607,-30.655172413793096,-50.800000000000004,-19.891566265060245,20.483870967741943,38.30158730158728,41.03076923076923,49.89285714285714,26.73684210526315,34.724083178384014,149.1769837877412,35.38157170980092,2542.286719875808,25.52096677729608,492.561811516817,1
-51.13883399209486,49.429571663920925,5.576309473386981,-21.557019194580334,-114.55469462169553,116.38835151265693,-124.57600545330607,-56.93103448275861,-63.5,-41.31325301204819,40.96774193548388,54.42857142857141,56.661538461538456,9.071428571428568,20.052631578947363,42.86577493384706,373.7334762463065,35.38157170980092,2542.286719875808,25.52096677729608,492.561811516817,1
-51.13883399209486,49.429571663920925,5.576309473386981,-21.557019194580334,-114.55469462169553,116.38835151265693,-124.57600545330607,-4.37931034482758,-45.720000000000006,-47.433734939759034,20.483870967741943,24.190476190476172,-17.584615384615383,-4.535714285714288,20.052631578947363,23.04754421151022,263.80130852458035,35.38157170980092,2542.286719875808,25.52096677729608,492.561811516817,1
-41.13068181818182,45.61120263591434,8.66031342651419,-29.01354911554381,-118.43299908842297,119.90814296494477,-123.60640763462848,-4.37931034482758,-45.720000000000006,-47.433734939759034,20.483870967741943,24.190476190476172,-17.584615384615383,-4.535714285714288,20.052631578947363,23.04754421151022,263.80130852458035,31.800732626870115,1894.7776565784122,27.761688392657447,342.51741979347025,1
-41.13068181818182,45.61120263591434,8.66031342651419,-29.01354911554381,-118.43299908842297,119.90814296494477,-123.60640763462848,-30.655172413793096,-58.42,-41.31325301204819,28.67741935483872,34.26984126984125,17.584615384615386,-4.535714285714288,6.6842105263157805,27.76752828089584,323.2031899562967,31.800732626870115,1894.7776565784122,27.761688392657447,342.51741979347025,1
-41.13068181818182,45.61120263591434,8.66031342651419,-29.01354911554381,-118.43299908842297,119.90814296494477,-123.60640763462848,-21.89655172413792,-58.42,-35.19277108433735,20.483870967741943,42.333333333333314,72.29230769230769,22.678571428571423,46.78947368421052,40.010859989330015,352.197922773715,31.800732626870115,1894.7776565784122,27.761688392657447,342.51741979347025,1
-25.004693675889328,41.37438220757825,17.159254553155442,-35.17952578095594,-120.49756912792463,122.67867188035947,-123.2947511929107,-21.89655172413792,-58.42,-35.19277108433735,20.483870967741943,42.333333333333314,72.29230769230769,22.678571428571423,46.78947368421052,40.010859989330015,352.197922773715,27.846110145541008,1128.3921087874512,31.237720847229877,158.24647143165842,1
-25.004693675889328,41.37438220757825,17.159254553155442,-35.17952578095594,-120.49756912792463,122.67867188035947,-123.2947511929107,-21.89655172413792,-30.480000000000004,-38.25301204819277,32.7741935483871,46.365079365079346,25.4,9.071428571428568,26.73684210526315,28.87213842031111,124.16531169139128,27.846110145541008,1128.3921087874512,31.237720847229877,158.24647143165842,1
-25.004693675889328,41.37438220757825,17.159254553155442,-35.17952578095594,-120.49756912792463,122.67867188035947,-123.2947511929107,-56.93103448275861,-53.34,-38.25301204819277,16.38709677419356,50.39682539682538,48.84615384615385,22.678571428571423,33.42105263157894,40.031718326034316,222.12735690388885,27.846110145541008,1128.3921087874512,31.237720847229877,158.24647143165842,1
-20.235918972332016,35.04530477759473,23.721728081321476,-40.00715092209259,-122.00258280158006,124.85676065033957,-122.8099522835719,-56.93103448275861,-53.34,-38.25301204819277,16.38709677419356,50.39682539682538,48.84615384615385,22.678571428571423,33.42105263157894,40.031718326034316,222.12735690388885,26.334317277082743,852.7519704965698,32.924727927002934,69.67638391012676,1
-20.235918972332016,35.04530477759473,23.721728081321476,-40.00715092209259,-122.00258280158006,124.85676065033957,-122.8099522835719,-39.41379310344827,-58.42,-32.13253012048193,28.67741935483872,30.23809523809522,33.215384615384615,9.071428571428568,33.42105263157894,33.07371295440703,183.87645785423382,26.334317277082743,852.7519704965698,32.924727927002934,69.67638391012676,1
-20.235918972332016,35.04530477759473,23.721728081321476,-40.00715092209259,-122.00258280158006,124.85676065033957,-122.8099522835719,-48.172413793103445,-55.88,-32.13253012048193,40.96774193548388,50.39682539682538,41.03076923076923,36.28571428571428,26.73684210526315,41.45035460845516,94.83312361280426,26.334317277082743,852.7519704965698,32.924727927002934,69.67638391012676,1
-18.667243083003953,24.16556836902801,22.610052237752367,-43.49642453895365,-123.7584320875114,126.23331275296698,-122.8445807770961,-48.172413793103445,-55.88,-32.13253012048193,40.96774193548388,50.39682539682538,41.03076923076923,36.28571428571428,26.73684210526315,41.45035460845516,94.83312361280426,21.814287896594777,590.147412719485,30.090681715244674,135.39036310023315,1
-18.667243083003953,24.16556836902801,22.610052237752367,-43.49642453895365,-123.7584320875114,126.23331275296698,-122.8445807770961,-13.137931034482751,-55.88,-35.19277108433735,32.7741935483871,42.333333333333314,13.676923076923078,-27.214285714285715,20.052631578947363,30.032758671337085,216.2886428664722,21.814287896594777,590.147412719485,30.090681715244674,135.39036310023315,1
-18.667243083003953,24.16556836902801,22.610052237752367,-43.49642453895365,-123.7584320875114,126.23331275296698,-122.8445807770961,-30.655172413793096,-53.34,-44.373493975903614,32.7741935483871,48.380952380952365,48.84615384615385,18.14285714285714,13.368421052631572,36.23515554508484,222.67131324011547,21.814287896594777,590.147412719485,30.090681715244674,135.39036310023315,1
-10.447381422924904,11.7166392092257,22.07214457150925,-45.36055701919463,-124.8389547250076,126.77347876792206,-123.5025221540559,-30.655172413793096,-53.34,-44.373493975903614,32.7741935483871,48.380952380952365,48.84615384615385,18.14285714285714,13.368421052631572,36.23515554508484,222.67131324011547,14.74538840121995,275.99997879889327,26.383113599976525,296.9166418742892,1
-10.447381422924904,11.7166392092257,22.07214457150925,-45.36055701919463,-124.8389547250076,126.77347876792206,-123.5025221540559,-30.655172413793096,-53.34,-41.31325301204819,24.58064516129033,42.333333333333314,25.4,36.28571428571428,26.73684210526315,35.0806200389303,102.78169518187785,14.74538840121995,275.99997879889327,26.383113599976525,296.9166418742892,1
-10.447381422924904,11.7166392092257,22.07214457150925,-45.36055701919463,-124.8389547250076,126.77347876792206,-123.5025221540559,-48.172413793103445,-66.04,-32.13253012048193,24.58064516129033,42.333333333333314,52.753846153846155,36.28571428571428,6.6842105263157805,38.62283667176065,331.59909789632985,14.74538840121995,275.99997879889327,26.383113599976525,296.9166418742892,1
-11.639575098814232,4.812191103789127,22.179726104757872,-46.5555137372977,-126.20890306897599,127.0,-124.02194955691888,-48.172413793103445,-66.04,-32.13253012048193,24.58064516129033,42.333333333333314,52.753846153846155,36.28571428571428,6.6842105263157805,38.62283667176065,331.59909789632985,12.877164102453742,286.0061695154883,24.515810315281566,439.7192132002909,1
-11.639575098814232,4.812191103789127,22.179726104757872,-46.5555137372977,-126.20890306897599,127.0,-124.02194955691888,-56.93103448275861,-63.5,-47.433734939759034,24.58064516129033,32.25396825396824,17.584615384615386,-9.071428571428577,6.6842105263157805,32.254954665016996,468.71569480838633,12.877164102453742,286.0061695154883,24.515810315281566,439.7192132002909,1
-11.639575098814232,4.812191103789127,22.179726104757872,-46.5555137372977,-126.20890306897599,127.0,-124.02194955691888,4.379310344827594,-40.64,-35.19277108433735,28.67741935483872,42.333333333333314,37.12307692307692,49.89285714285714,33.42105263157894,33.95747760185625,183.3327285896757,12.877164102453742,286.0061695154883,24.515810315281566,439.7192132002909,1
-5.992341897233204,-5.492174629324545,22.215586615840746,-45.647346631539335,-127.0,126.23331275296698,-125.02617586912066,4.379310344827594,-40.64,-35.19277108433735,28.67741935483872,42.333333333333314,37.12307692307692,49.89285714285714,33.42105263157894,33.95747760185625,183.3327285896757,11.23336771413283,260.6095719189435,24.451702625568206,406.85962073858326,1
-5.992341897233204,-5.492174629324545,22.215586615840746,-45.647346631539335,-127.0,126.23331275296698,-125.02617586912066,-39.41379310344827,-66.04,-38.25301204819277,32.7741935483871,46.365079365079346,37.12307692307692,-9.071428571428577,13.368421052631572,35.301125576530566,324.5232238688096,11.23336771413283,260.6095719189435,24.451702625568206,406.85962073858326,1
-5.992341897233204,-5.492174629324545,22.215586615840746,-45.647346631539335,-127.0,126.23331275296698,-125.02617586912066,-39.41379310344827,-55.88,-38.25301204819277,24.58064516129033,50.39682539682538,48.84615384615385,-9.071428571428577,20.052631578947363,35.81181121328582,270.5459371864921,11.23336771413283,260.6095719189435,24.451702625568206,406.85962073858326,1
1.2549407114624476,-17.15650741350906,31.75448256388536,-42.54045916447126,-126.6719841993315,124.80448651986003,-125.23394683026584,-39.41379310344827,-55.88,-38.25301204819277,24.58064516129033,50.39682539682538,48.84615384615385,-9.071428571428577,20.052631578947363,35.81181121328582,270.5459371864921,16.72197689628562,610.2480693058319,30.483816380621892,162.2971960357612,1
1.2549407114624476,-17.15650741350906,31.75448256388536,-42.54045916447126,-126.6719841993315,124.80448651986003,-125.23394683026584,-30.655172413793096,-48.260000000000005,-32.13253012048193,28.67741935483872,50.39682539682538,37.12307692307692,49.89285714285714,46.78947368421052,40.49091937951046,86.29422039571135,16.72197689628562,610.2480693058319,30.483816380621892,162.2971960357612,1
1.2549407114624476,-17.15650741350906,31.75448256388536,-42.54045916447126,-126.6719841993315,124.80448651986003,-125.23394683026584,-65.68965517241378,-55.88,-44.373493975903614,12.29032258064517,22.174603174603156,1.9538461538461576,-9.071428571428577,-13.36842105263159,28.100221335184006,571.0458170366929,16.72197689628562,610.2480693058319,30.483816380621892,162.2971960357612,1
-1.7763568394002505e-15,-27.722405271828663,43.301567132570945,-37.80843056078288,-126.22819811607414,122.99231666323661,-123.98732106339469,-65.68965517241378,-55.88,-44.373493975903614,12.29032258064517,22.174603174603156,1.9538461538461576,-9.071428571428577,-13.36842105263159,28.100221335184006,571.0458170366929,23.674657468133205,1281.32702104883,36.27746765506083,62.435456634824405,1
-1.7763568394002505e-15,-27.722405271828663,43.301567132570945,-37.80843056078288,-126.22819811607414,122.99231666323661,-123.98732106339469,-39.41379310344827,-55.88,-32.13253012048193,24.58064516129033,46.365079365079346,56.661538461538456,-3.552713678800501e-15,26.73684210526315,35.22130353963769,351.93093745147115,23.674657468133205,1281.32702104883,36.27746765506083,62.435456634824405,1
-1.7763568394002505e-15,-27.722405271828663,43.301567132570945,-37.80843056078288,-126.22819811607414,122.99231666323661,-123.98732106339469,-30.655172413793096,-58.42,-35.19277108433735,36.870967741935495,50.39682539682538,37.12307692307692,68.03571428571428,33.42105263157894,43.76444755965768,184.54406580135532,23.674657468133205,1281.32702104883,36.27746765506083,62.435456634824405,1
4.078557312252961,-33.52841845140033,52.12325285895807,-31.451260820474204,-125.18626557277423,120.55285724085888,-122.35978186775733,-30.655172413793096,-58.42,-35.19277108433735,36.870967741935495,50.39682539682538,37.12307692307692,68.03571428571428,33.42105263157894,43.76444755965768,184.54406580135532,29.910076207537116,1843.1310324202104,39.03431071027753,129.56895088455803,1
4.078557312252961,-33.52841845140033,52.12325285895807,-31.451260820474204,-125.18626557277423,120.55285724085888,-122.35978186775733,-39.41379310344827,-63.5,-19.891566265060245,28.67741935483872,30.23809523809522,25.4,-4.535714285714288,20.052631578947363,28.96365247826301,296.40052829000064,29.910076207537116,1843.1310324202104,39.03431071027753,129.56895088455803,1
4.078557312252961,-33.52841845140033,52.12325285895807,-31.451260820474204,-125.18626557277423,120.55285724085888,-122.35978186775733,-30.655172413793096,-43.18000000000001,-38.25301204819277,24.58064516129033,40.3174603174603,37.12307692307692,-18.142857142857146,33.42105263157894,33.20915957978119,71.24532486520165,29.910076207537116,1843.1310324202104,39.03431071027753,129.56895088455803,1
6.149209486166004,-36.196046128500825,60.478751941267824,-23.32555513737293,-122.98663020358553,117.64293064416546,-119.3124744376278,-30.655172413793096,-43.18000000000001,-38.25301204819277,24.58064516129033,40.3174603174603,37.12307692307692,-18.142857142857146,33.42105263157894,33.20915957978119,71.24532486520165,34.27466918531155,2348.4727397137876,40.000117735713864,355.9432287818397,1
6.149209486166004,-36.196046128500825,60.478751941267824,-23.32555513737293,-122.98663020358553,117.64293064416546,-119.3124744376278,-56.93103448275861,-58.42,-26.012048192771086,36.870967741935495,56.44444444444443,48.84615384615385,36.28571428571428,33.42105263157894,44.15392695316959,157.01739314737446,34.27466918531155,2348.4727397137876,40.000117735713864,355.9432287818397,1
6.149209486166004,-36.196046128500825,60.478751941267824,-23.32555513737293,-122.98663020358553,117.64293064416546,-119.3124744376278,-13.137931034482751,-25.400000000000002,-22.951807228915666,8.193548387096783,28.222222222222204,29.307692307692307,4.535714285714281,20.052631578947363,18.975193380633918,87.04808633395564,34.27466918531155,2348.4727397137876,40.000117735713864,355.9432287818397,1
8.125741106719364,-41.68822075782537,72.95820979810816,-13.909296198720313,-120.01519295047098,114.38450984427521,-114.77614178595772,-13.137931034482751,-25.400000000000002,-22.951807228915666,8.193548387096783,28.222222222222204,29.307692307692307,4.535714285714281,20.052631578947363,18.975193380633918,87.04808633395564,40.9240572208843,3304.7473054131187,42.85190891821795,872.709176917971,1
8.125741106719364,-41.68822075782537,72.95820979810816,-13.909296198720313,-120.01519295047098,114.38450984427521,-114.77614178595772,-30.655172413793096,-43.18000000000001,-38.25301204819277,24.58064516129033,42.333333333333314,52.753846153846155,4.535714285714281,20.052631578947363,32.043044371889664,236.49423350430249,40.9240572208843,3304.7473054131187,42.85190891821795,872.709176917971,1
