Gyro 0,Gyro 1,Gyro 2,Orientation 0,Orientation 1,Orientation 2,Orientation 3,Sensor 0,Sensor 1,Sensor 2,Sensor 3,Sensor 4,Sensor 5,Sensor 6,Sensor 7,Sensor Mean,Sensor Variance,Gyro Mean,Gyro Variance,Orientation Mean,Orientation Variance,Label
-12.25801045055703,-50.7936547589308,-6.754855534966719,-89.52061978545896,115.3038618566361,-123.72857665568972,89.81952834091848,7.650602409638537,23.94857142857144,-7.0,-8.343065693430656,1.021405182655144e-14,-6.748792270531414,-0.6719576719576756,3.2016806722689064,7.19558376829983,56.10137329750895,23.268840248151516,575.7827388958508,49.0230433597855,1714.8942315371025,1
-12.25801045055703,-50.7936547589308,-6.754855534966719,-89.52061978545896,115.3038618566361,-123.72857665568972,89.81952834091848,7.650602409638537,21.045714285714297,1.0,-4.635036496350365,1.2700000000000102,-5.521739130434796,-2.0158730158730194,5.336134453781511,6.059387473974067,42.12121940289843,23.268840248151516,575.7827388958508,49.0230433597855,1714.8942315371025,1
-12.25801045055703,-50.7936547589308,-6.754855534966719,-89.52061978545896,115.3038618566361,-123.72857665568972,89.81952834091848,-4.590361445783149,21.045714285714297,-13.0,-0.9270072992700726,-7.61999999999999,-6.748792270531414,-4.703703703703708,1.0672268907563014,7.462850736969866,45.02487434754164,23.268840248151516,575.7827388958508,49.0230433597855,1714.8942315371025,1
-12.658680863649803,-52.50686984761428,-6.859446846475881,-89.33897497020268,115.3038618566361,-123.89586534943285,89.46222589987588,-4.590361445783149,21.045714285714297,-13.0,-0.9270072992700726,-7.61999999999999,-6.748792270531414,-4.703703703703708,1.0672268907563014,7.462850736969866,45.02487434754164,24.008332519246654,617.5327511887591,49.568430554764284,1707.1939589864837,1
-12.658680863649803,-52.50686984761428,-6.859446846475881,-89.33897497020268,115.3038618566361,-123.89586534943285,89.46222589987588,4.590361445783116,15.24000000000001,-17.0,-6.4890510948905105,-3.80999999999999,-6.748792270531414,7.391534391534388,3.2016806722689064,8.058927484376042,27.116305946682864,24.008332519246654,617.5327511887591,49.568430554764284,1707.1939589864837,1
-12.558513260376609,-54.41044216837371,-6.824583075972827,-89.39952324195474,115.33786225821567,-124.15609220636662,89.04187008688456,4.590361445783116,15.24000000000001,-17.0,-6.4890510948905105,-3.80999999999999,-6.748792270531414,7.391534391534388,3.2016806722689064,8.058927484376042,27.116305946682864,24.59784616824105,674.8126490402487,50.21151616210043,1717.8784205584918,1
-12.558513260376609,-54.41044216837371,-6.824583075972827,-89.39952324195474,115.33786225821567,-124.15609220636662,89.04187008688456,13.77108433734938,25.400000000000013,-7.0,2.781021897810219,1.2700000000000102,-5.521739130434796,0.6719576719576683,9.60504201680672,8.25260563179485,67.3576730275905,24.59784616824105,674.8126490402487,50.21151616210043,1717.8784205584918,1
-12.558513260376609,-54.41044216837371,-6.824583075972827,-89.39952324195474,115.33786225821567,-124.15609220636662,89.04187008688456,1.5301204819276943,16.69142857142858,-21.0,8.343065693430656,3.8100000000000103,-6.748792270531414,-2.0158730158730194,1.0672268907563014,7.650813365493459,55.50532210622466,24.59784616824105,674.8126490402487,50.21151616210043,1717.8784205584918,1
-11.306418219461692,-53.52210841868598,-6.423649715187706,-89.7628128724673,115.45686366374406,-124.3419685327479,88.68456764584195,1.5301204819276943,16.69142857142858,-21.0,8.343065693430656,3.8100000000000103,-6.748792270531414,-2.0158730158730194,1.0672268907563014,7.650813365493459,55.50532210622466,23.750725451111794,670.7117899180573,49.902857002113656,1746.1782645511873,1
-11.306418219461692,-53.52210841868598,-6.423649715187706,-89.7628128724673,115.45686366374406,-124.3419685327479,88.68456764584195,4.590361445783116,21.045714285714297,-11.0,4.635036496350365,1.021405182655144e-14,-9.202898550724651,2.0158730158730123,3.2016806722689064,6.961445558339295,45.398731729401526,23.750725451111794,670.7117899180573,49.902857002113656,1746.1782645511873,1
-11.306418219461692,-53.52210841868598,-6.423649715187706,-89.7628128724673,115.45686366374406,-124.3419685327479,88.68456764584195,13.77108433734938,18.142857142857153,-7.0,2.781021897810219,6.35000000000001,3.067632850241532,0.6719576719576683,5.336134453781511,7.140086044249684,35.193173071416766,23.750725451111794,670.7117899180573,49.902857002113656,1746.1782645511873,1
-10.980873508823814,-51.93579815138646,-5.848397501887314,-90.06555423122768,115.54186466769295,-124.49066959385291,88.45337194869673,13.77108433734938,18.142857142857153,-7.0,2.781021897810219,6.35000000000001,3.067632850241532,0.6719576719576683,5.336134453781511,7.140086044249684,35.193173071416766,22.921689720699195,637.9494435112028,49.28324996150048,1778.4093808183202,1
-10.980873508823814,-51.93579815138646,-5.848397501887314,-90.06555423122768,115.54186466769295,-124.49066959385291,88.45337194869673,4.590361445783116,18.142857142857153,-13.0,-6.4890510948905105,-8.88999999999999,-9.202898550724651,2.0158730158730123,1.0672268907563014,7.924783517610592,32.550439457231796,22.921689720699195,637.9494435112028,49.28324996150048,1778.4093808183202,1
-10.980873508823814,-51.93579815138646,-5.848397501887314,-90.06555423122768,115.54186466769295,-124.49066959385291,88.45337194869673,-1.530120481927728,12.337142857142869,-23.0,0.9270072992700733,7.62000000000001,-1.840579710144941,-7.391534391534396,3.2016806722689064,7.231008176536116,56.06336350920318,22.921689720699195,637.9494435112028,49.28324996150048,1778.4093808183202,1
-12.358178053830223,-51.55508368723457,-5.81353373138426,-90.06555423122768,115.52486446690315,-124.71372118551042,88.24319404220107,-1.530120481927728,12.337142857142869,-23.0,0.9270072992700733,7.62000000000001,-1.840579710144941,-7.391534391534396,3.2016806722689064,7.231008176536116,56.06336350920318,23.24226515748302,611.9198621508132,49.144723883282175,1778.958115364891,1
-12.358178053830223,-51.55508368723457,-5.81353373138426,-90.06555423122768,115.52486446690315,-124.71372118551042,88.24319404220107,10.710843373493958,22.49714285714287,-7.0,-2.7810218978102186,-1.2699999999999898,-5.521739130434796,0.6719576719576683,3.2016806722689064,6.706798200388551,51.50476253729869,23.24226515748302,611.9198621508132,49.144723883282175,1778.958115364891,1
-12.358178053830223,-51.55508368723457,-5.81353373138426,-90.06555423122768,115.52486446690315,-124.71372118551042,88.24319404220107,1.5301204819276943,18.142857142857153,-9.0,19.467153284671532,3.8100000000000103,-6.748792270531414,-3.3597883597883635,3.2016806722689064,8.157549026505635,48.67299658657503,23.24226515748302,611.9198621508132,49.144723883282175,1778.958115364891,1
-12.333136153011925,-52.18960779415438,-6.388785944684652,-89.94445768772357,115.47386386453385,-124.9739480424442,88.07505171700454,1.5301204819276943,18.142857142857153,-9.0,19.467153284671532,3.8100000000000103,-6.748792270531414,-3.3597883597883635,3.2016806722689064,8.157549026505635,48.67299658657503,23.637176630616988,620.2648188612161,49.507617142187534,1750.7823755005466,1
-12.333136153011925,-52.18960779415438,-6.388785944684652,-89.94445768772357,115.47386386453385,-124.9739480424442,88.07505171700454,4.590361445783116,32.65714285714287,-3.0,0.9270072992700733,-1.2699999999999898,-5.521739130434796,0.6719576719576683,1.0672268907563014,6.2131794119181025,117.46913663771956,23.637176630616988,620.2648188612161,49.507617142187534,1750.7823755005466,1
-12.333136153011925,-52.18960779415438,-6.388785944684652,-89.94445768772357,115.47386386453385,-124.9739480424442,88.07505171700454,7.650602409638537,28.302857142857157,-5.0,0.9270072992700733,1.2700000000000102,-9.202898550724651,-6.047619047619051,7.470588235294116,8.233946585675449,74.5356282382237,23.637176630616988,620.2648188612161,49.507617142187534,1750.7823755005466,1
-10.229616484274864,-52.82413190107419,-6.144739551163274,-90.61048867699651,115.59286527006225,-125.21558726673985,87.92792718245758,7.650602409638537,28.302857142857157,-5.0,0.9270072992700733,1.2700000000000102,-9.202898550724651,-6.047619047619051,7.470588235294116,8.233946585675449,74.5356282382237,23.066162645504107,668.3241055512574,49.85978670974466,1790.2062006570684,1
-10.229616484274864,-52.82413190107419,-6.144739551163274,-90.61048867699651,115.59286527006225,-125.21558726673985,87.92792718245758,-4.590361445783149,7.982857142857153,-23.0,-2.7810218978102186,-5.079999999999989,-14.111111111111123,2.0158730158730123,-1.067226890756304,7.578556438023869,56.02684881862793,23.066162645504107,668.3241055512574,49.85978670974466,1790.2062006570684,1
-10.229616484274864,-52.82413190107419,-6.144739551163274,-90.61048867699651,115.59286527006225,-125.21558726673985,87.92792718245758,10.710843373493958,23.94857142857144,-9.0,-4.635036496350365,-2.53999999999999,-10.42995169082127,-2.0158730158730194,1.0672268907563014,8.043437861983293,56.228981567437195,23.066162645504107,668.3241055512574,49.85978670974466,1790.2062006570684,1
-10.60524499654934,-52.63377466899824,-5.726374305126626,-91.21597139451728,115.6948664748009,-125.47581412367362,87.80182043856018,10.710843373493958,23.94857142857144,-9.0,-4.635036496350365,-2.53999999999999,-10.42995169082127,-2.0158730158730194,1.0672268907563014,8.043437861983293,56.228981567437195,22.9884646568914,665.0841490913474,49.85870678954738,1832.8935539282577,1
-10.60524499654934,-52.63377466899824,-5.726374305126626,-91.21597139451728,115.6948664748009,-125.47581412367362,87.80182043856018,4.590361445783116,15.24000000000001,-3.0,6.489051094890511,5.080000000000011,-11.657004830917888,0.6719576719576683,3.2016806722689064,6.241256964477264,23.60070603001009,22.9884646568914,665.0841490913474,49.85870678954738,1832.8935539282577,1
-10.60524499654934,-52.63377466899824,-5.726374305126626,-91.21597139451728,115.6948664748009,-125.47581412367362,87.80182043856018,4.590361445783116,19.594285714285725,-11.0,-6.4890510948905105,-1.2699999999999898,-9.202898550724651,4.703703703703701,3.2016806722689064,7.506497647707074,33.716715554597805,22.9884646568914,665.0841490913474,49.85870678954738,1832.8935539282577,1
-10.805580203095726,-50.09567824131901,-5.76123807562968,-91.51871275327778,115.72886687638044,-125.66169045005488,87.78080264791063,4.590361445783116,19.594285714285725,-11.0,-6.4890510948905105,-1.2699999999999898,-9.202898550724651,4.703703703703701,3.2016806722689064,7.506497647707074,33.716715554597805,22.22083217334814,589.1166293595354,49.125209690075486,1839.2924726785786,1
-10.805580203095726,-50.09567824131901,-5.76123807562968,-91.51871275327778,115.72886687638044,-125.66169045005488,87.78080264791063,7.650602409638537,19.594285714285725,-19.0,4.635036496350365,5.080000000000011,-0.6135265700483226,0.6719576719576683,3.2016806722689064,7.555886191818692,57.87215502120513,22.22083217334814,589.1166293595354,49.125209690075486,1839.2924726785786,1
-10.805580203095726,-50.09567824131901,-5.76123807562968,-91.51871275327778,115.72886687638044,-125.66169045005488,87.78080264791063,4.590361445783116,19.594285714285725,-13.0,-2.7810218978102186,-1.2699999999999898,-6.748792270531414,-2.0158730158730194,5.336134453781511,6.917058599758125,39.81044404399067,22.22083217334814,589.1166293595354,49.125209690075486,1839.2924726785786,1
-11.381543921916588,-48.7631776167874,-5.4648960263537205,-91.51871275327778,115.64386587243158,-125.82897914379802,87.86487381050888,4.590361445783116,19.594285714285725,-13.0,-2.7810218978102186,-1.2699999999999898,-6.748792270531414,-2.0158730158730194,5.336134453781511,6.917058599758125,39.81044404399067,21.869872521685902,551.1890747836762,48.58226213213964,1851.3393911271978,1
-11.381543921916588,-48.7631776167874,-5.4648960263537205,-91.51871275327778,115.64386587243158,-125.82897914379802,87.86487381050888,29.07228915662649,34.10857142857144,-13.0,12.05109489051095,12.70000000000001,14.111111111111097,10.079365079365076,11.739495798319327,17.10774093306305,83.03513569916547,21.869872521685902,551.1890747836762,48.58226213213964,1851.3393911271978,1
-11.381543921916588,-48.7631776167874,-5.4648960263537205,-91.51871275327778,115.64386587243158,-125.82897914379802,87.86487381050888,13.77108433734938,47.171428571428585,21.0,-8.343065693430656,-7.61999999999999,-7.9758454106280325,-6.047619047619051,3.2016806722689064,14.391340466590574,205.2872434778,21.869872521685902,551.1890747836762,48.58226213213964,1851.3393911271978,1
-11.05599921127871,-48.50936797401948,-5.4648960263537205,-91.45816448152573,115.55886486848271,-125.99626783754117,88.01199834505584,13.77108433734938,47.171428571428585,21.0,-8.343065693430656,-7.61999999999999,-7.9758454106280325,-6.047619047619051,3.2016806722689064,14.391340466590574,205.2872434778,21.676754403883972,547.806971959285,48.47747616063298,1848.7113177166411,1
-11.05599921127871,-48.50936797401948,-5.4648960263537205,-91.45816448152573,115.55886486848271,-125.99626783754117,88.01199834505584,-4.590361445783149,15.24000000000001,-21.0,0.9270072992700733,2.5400000000000102,-4.294685990338177,2.0158730158730123,-1.067226890756304,6.459394330252592,55.92811497633191,21.676754403883972,547.806971959285,48.47747616063298,1848.7113177166411,1
-11.05599921127871,-48.50936797401948,-5.4648960263537205,-91.45816448152573,115.55886486848271,-125.99626783754117,88.01199834505584,7.650602409638537,10.885714285714297,-23.0,-2.7810218978102186,1.021405182655144e-14,-6.748792270531414,4.703703703703701,3.2016806722689064,7.3714394049583865,50.99734415701231,21.676754403883972,547.806971959285,48.47747616063298,1848.7113177166411,1
-11.95750764073745,-49.397701723707215,-5.447464141102193,-91.3370679380215,115.42286326216453,-126.25649469447494,88.09606950765411,7.650602409638537,10.885714285714297,-23.0,-2.7810218978102186,1.021405182655144e-14,-6.748792270531414,4.703703703703701,3.2016806722689064,7.3714394049583865,50.99734415701231,22.267557835182284,562.6286971508357,48.7274112676103,1844.5929770695948,1
-11.95750764073745,-49.397701723707215,-5.447464141102193,-91.3370679380215,115.42286326216453,-126.25649469447494,88.09606950765411,7.650602409638537,18.142857142857153,-9.0,0.9270072992700733,1.2700000000000102,-11.657004830917888,-2.0158730158730194,1.0672268907563014,6.466321448664123,39.6784570471831,22.267557835182284,562.6286971508357,48.7274112676103,1844.5929770695948,1
-11.95750764073745,-49.397701723707215,-5.447464141102193,-91.3370679380215,115.42286326216453,-126.25649469447494,88.09606950765411,1.5301204819276943,16.69142857142858,-17.0,6.489051094890511,3.8100000000000103,-9.202898550724651,-2.0158730158730194,7.470588235294116,8.026244993767323,36.53869218414092,22.267557835182284,562.6286971508357,48.7274112676103,1844.5929770695948,1
-11.732130533372764,-48.69972520609542,-5.935556928144949,-91.09487485101317,115.28686165584634,-126.42378338821807,88.1591228796028,1.5301204819276943,16.69142857142858,-17.0,6.489051094890511,3.8100000000000103,-9.202898550724651,-2.0158730158730194,7.470588235294116,8.026244993767323,36.53869218414092,22.12247088920438,538.1629016587337,48.57671899508452,1813.0387051679968,1
-11.732130533372764,-48.69972520609542,-5.935556928144949,-91.09487485101317,115.28686165584634,-126.42378338821807,88.1591228796028,1.5301204819276943,16.69142857142858,-15.0,-10.197080291970803,-8.88999999999999,-23.92753623188407,-2.0158730158730194,-3.2016806722689086,10.181714908169134,63.78007834668252,22.12247088920438,538.1629016587337,48.57671899508452,1813.0387051679968,1
-11.732130533372764,-48.69972520609542,-5.935556928144949,-91.09487485101317,115.28686165584634,-126.42378338821807,88.1591228796028,-1.530120481927728,15.24000000000001,-17.0,8.343065693430656,1.021405182655144e-14,-4.294685990338177,-2.0158730158730194,3.2016806722689064,6.453178231729813,41.83091006132211,22.12247088920438,538.1629016587337,48.57671899508452,1813.0387051679968,1
-13.585231193926841,-48.06520109917561,-5.778669960881206,-90.24719904648396,114.98085804163043,-126.62824734723746,88.24319404220107,-1.530120481927728,15.24000000000001,-17.0,8.343065693430656,1.021405182655144e-14,-4.294685990338177,-2.0158730158730194,3.2016806722689064,6.453178231729813,41.83091006132211,22.476367417994553,506.3269064436823,48.03035670218026,1783.7340120703307,1
-13.585231193926841,-48.06520109917561,-5.778669960881206,-90.24719904648396,114.98085804163043,-126.62824734723746,88.24319404220107,13.77108433734938,23.94857142857144,-5.0,-2.7810218978102186,-2.53999999999999,-7.9758454106280325,0.6719576719576683,7.470588235294116,8.019883622701355,58.24136846099203,22.476367417994553,506.3269064436823,48.03035670218026,1783.7340120703307,1
-13.585231193926841,-48.06520109917561,-5.778669960881206,-90.24719904648396,114.98085804163043,-126.62824734723746,88.24319404220107,10.710843373493958,18.142857142857153,-13.0,-2.7810218978102186,3.8100000000000103,-6.748792270531414,4.703703703703701,1.0672268907563014,7.6205556598940944,34.194666318394965,22.476367417994553,506.3269064436823,48.03035670218026,1783.7340120703307,1
-13.309770284925559,-47.621034224331744,-6.162171436414801,-89.7628128724673,114.8108560337327,-126.79553604098061,88.26421183285063,10.710843373493958,18.142857142857153,-13.0,-2.7810218978102186,3.8100000000000103,-6.748792270531414,4.703703703703701,1.0672268907563014,7.6205556598940944,34.194666318394965,22.364325315224033,491.1980510143586,47.84867284440461,1747.3056766358657,1
-13.309770284925559,-47.621034224331744,-6.162171436414801,-89.7628128724673,114.8108560337327,-126.79553604098061,88.26421183285063,13.77108433734938,37.01142857142858,-11.0,-12.051094890510948,-2.53999999999999,-5.521739130434796,-0.6719576719576756,7.470588235294116,11.254736604621934,129.36673531255798,22.364325315224033,491.1980510143586,47.84867284440461,1747.3056766358657,1
-13.309770284925559,-47.621034224331744,-6.162171436414801,-89.7628128724673,114.8108560337327,-126.79553604098061,88.26421183285063,1.5301204819276943,18.142857142857153,-11.0,-10.197080291970803,-5.079999999999989,-7.9758454106280325,-2.0158730158730194,-1.067226890756304,7.126125404251625,34.97927164656976,22.364325315224033,491.1980510143586,47.84867284440461,1747.3056766358657,1
-13.334812185743857,-44.89258056457656,-5.534623567359828,-89.21787842669846,114.58985342346566,-126.92564946944749,88.4113363673976,1.5301204819276943,18.142857142857153,-11.0,-10.197080291970803,-5.079999999999989,-7.9758454106280325,-2.0158730158730194,-1.067226890756304,7.126125404251625,34.97927164656976,21.25400543922675,434.2974110881971,46.54836085287829,1752.7779922356021,1
-13.334812185743857,-44.89258056457656,-5.534623567359828,-89.21787842669846,114.58985342346566,-126.92564946944749,88.4113363673976,-4.590361445783149,10.885714285714297,-25.0,0.9270072992700733,-1.2699999999999898,-11.657004830917888,-0.6719576719576756,1.0672268907563014,7.0086590530499215,73.07832634973525,21.25400543922675,434.2974110881971,46.54836085287829,1752.7779922356021,1
-13.334812185743857,-44.89258056457656,-5.534623567359828,-89.21787842669846,114.58985342346566,-126.92564946944749,88.4113363673976,13.77108433734938,23.94857142857144,-13.0,4.635036496350365,6.35000000000001,-5.521739130434796,-2.0158730158730194,9.60504201680672,9.855918303173215,49.09715357328594,21.25400543922675,434.2974110881971,46.54836085287829,1752.7779922356021,1
-12.783890367741295,-44.00424681488883,-5.4648960263537205,-88.79404052443385,114.40285121477814,-127.0,88.62151427389325,13.77108433734938,23.94857142857144,-13.0,4.635036496350365,6.35000000000001,-5.521739130434796,-2.0158730158730194,9.60504201680672,9.855918303173215,49.09715357328594,20.75101106966128,418.92664900966196,46.0877277885588,1739.1922504212132,1
-12.783890367741295,-44.00424681488883,-5.4648960263537205,-88.79404052443385,114.40285121477814,-127.0,88.62151427389325,4.590361445783116,23.94857142857144,-5.0,10.197080291970803,2.5400000000000102,-7.9758454106280325,2.0158730158730123,7.470588235294116,7.967289978515067,49.38620056441757,20.75101106966128,418.92664900966196,46.0877277885588,1739.1922504212132,1
-12.783890367741295,-44.00424681488883,-5.4648960263537205,-88.79404052443385,114.40285121477814,-127.0,88.62151427389325,-4.590361445783149,16.69142857142858,-17.0,-0.9270072992700726,-1.2699999999999898,-9.202898550724651,6.047619047619044,3.2016806722689064,7.3663744483868,41.222495055343174,20.75101106966128,418.92664900966196,46.0877277885588,1739.1922504212132,1
-11.05599921127871,-42.98900824381713,-5.482327911605248,-88.85458879618602,114.38585101398837,-126.92564946944749,88.8316921803889,-4.590361445783149,16.69142857142858,-17.0,-0.9270072992700726,-1.2699999999999898,-9.202898550724651,6.047619047619044,3.2016806722689064,7.3663744483868,41.222495055343174,19.842445122233695,409.5889911952856,45.77530831720279,1743.5560723258614,1
-11.05599921127871,-42.98900824381713,-5.482327911605248,-88.85458879618602,114.38585101398837,-126.92564946944749,88.8316921803889,1.5301204819276943,12.337142857142869,-13.0,8.343065693430656,3.8100000000000103,-4.294685990338177,2.0158730158730123,3.2016806722689064,6.066571088872665,20.85739434568748,19.842445122233695,409.5889911952856,45.77530831720279,1743.5560723258614,1
-11.05599921127871,-42.98900824381713,-5.482327911605248,-88.85458879618602,114.38585101398837,-126.92564946944749,88.8316921803889,1.5301204819276943,18.142857142857153,-17.0,0.9270072992700733,1.2700000000000102,-7.9758454106280325,-2.0158730158730194,1.0672268907563014,6.241116280164036,54.311620630674796,19.842445122233695,409.5889911952856,45.77530831720279,1743.5560723258614,1
-11.131124913733604,-42.481388958281286,-5.517191682108302,-88.85458879618602,114.38585101398837,-126.81412367361874,88.99983450558543,1.5301204819276943,18.142857142857153,-17.0,0.9270072992700733,1.2700000000000102,-7.9758454106280325,-2.0158730158730194,1.0672268907563014,6.241116280164036,54.311620630674796,19.709901851374397,396.78453037730674,45.6177231455252,1743.6578835379285,1
-11.131124913733604,-42.481388958281286,-5.517191682108302,-88.85458879618602,114.38585101398837,-126.81412367361874,88.99983450558543,4.590361445783116,13.788571428571439,-21.0,-10.197080291970803,-2.53999999999999,-16.56521739130436,2.0158730158730123,5.336134453781511,9.504154753410528,49.56300117951026,19.709901851374397,396.78453037730674,45.6177231455252,1743.6578835379285,1
-11.131124913733604,-42.481388958281286,-5.517191682108302,-88.85458879618602,114.38585101398837,-126.81412367361874,88.99983450558543,10.710843373493958,18.142857142857153,-19.0,-4.635036496350365,-6.34999999999999,-4.294685990338177,-2.0158730158730194,5.336134453781511,8.810678809086772,42.37848692365464,19.709901851374397,396.78453037730674,45.6177231455252,1743.6578835379285,1
-12.483387557921715,-41.27579315513364,-5.098826436071653,-88.43075089392141,114.26684960845995,-126.70259787778997,89.21001241208108,10.710843373493958,18.142857142857153,-19.0,-4.635036496350365,-6.34999999999999,-4.294685990338177,-2.0158730158730194,5.336134453781511,8.810678809086772,42.37848692365464,19.61933571637567,365.38454733813643,44.935123495042234,1746.0954323646263,1
-12.483387557921715,-41.27579315513364,-5.098826436071653,-88.43075089392141,114.26684960845995,-126.70259787778997,89.21001241208108,4.590361445783116,9.434285714285725,-25.0,-6.4890510948905105,3.8100000000000103,-4.294685990338177,0.6719576719576683,3.2016806722689064,7.186502823690514,58.240154367171954,19.61933571637567,365.38454733813643,44.935123495042234,1746.0954323646263,1
-12.483387557921715,-41.27579315513364,-5.098826436071653,-88.43075089392141,114.26684960845995,-126.70259787778997,89.21001241208108,10.710843373493958,29.754285714285725,-11.0,-4.635036496350365,2.5400000000000102,-6.748792270531414,4.703703703703701,7.470588235294116,9.695406224207412,74.34976383807195,19.61933571637567,365.38454733813643,44.935123495042234,1746.0954323646263,1
-12.808932268559593,-40.641269048213836,-5.6217829936174635,-87.7041716328963,114.06284719898267,-126.57248444932308,89.44120810922631,10.710843373493958,29.754285714285725,-11.0,-4.635036496350365,2.5400000000000102,-6.748792270531414,4.703703703703701,7.470588235294116,9.695406224207412,74.34976383807195,19.690661436796965,342.1097481407442,44.65574122490921,1696.4666213254986,1
-12.808932268559593,-40.641269048213836,-5.6217829936174635,-87.7041716328963,114.06284719898267,-126.57248444932308,89.44120810922631,13.77108433734938,23.94857142857144,-7.0,0.9270072992700733,1.2700000000000102,-0.6135265700483226,0.6719576719576683,7.470588235294116,6.959091942811376,69.12214643243327,19.690661436796965,342.1097481407442,44.65574122490921,1696.4666213254986,1
-12.808932268559593,-40.641269048213836,-5.6217829936174635,-87.7041716328963,114.06284719898267,-126.57248444932308,89.44120810922631,-4.590361445783149,16.69142857142858,-11.0,-2.7810218978102186,-1.2699999999999898,-3.067632850241559,0.6719576719576683,-1.067226890756304,5.142453665997183,32.7806318216927,19.690661436796965,342.1097481407442,44.65574122490921,1696.4666213254986,1
-11.1812087153702,-41.40269797651761,-5.7438061903781525,-87.7041716328963,114.0458469981929,-126.42378338821807,89.67240380637153,-4.590361445783149,16.69142857142858,-11.0,-2.7810218978102186,-1.2699999999999898,-3.067632850241559,0.6719576719576683,-1.067226890756304,5.142453665997183,32.7806318216927,19.44257096075532,369.076720466007,44.95022526659736,1688.8140882731764,1
-11.1812087153702,-41.40269797651761,-5.7438061903781525,-87.7041716328963,114.0458469981929,-126.42378338821807,89.67240380637153,-1.530120481927728,16.69142857142858,-13.0,-10.197080291970803,-1.2699999999999898,-3.067632850241559,3.3597883597883564,5.336134453781511,6.8065231261423165,33.44017520383138,19.44257096075532,369.076720466007,44.95022526659736,1688.8140882731764,1
-11.1812087153702,-41.40269797651761,-5.7438061903781525,-87.7041716328963,114.0458469981929,-126.42378338821807,89.67240380637153,7.650602409638537,21.045714285714297,-11.0,2.781021897810219,1.021405182655144e-14,-6.748792270531414,-2.0158730158730194,7.470588235294116,7.339074014357702,43.53020863212091,19.44257096075532,369.076720466007,44.95022526659736,1688.8140882731764,1
-11.707088632554466,-42.98900824381713,-5.7438061903781525,-87.5830750893922,114.02884679740313,-126.31225759238932,89.7564749689698,7.650602409638537,21.045714285714297,-11.0,2.781021897810219,1.021405182655144e-14,-6.748792270531414,-2.0158730158730194,7.470588235294116,7.339074014357702,43.53020863212091,20.14663435558325,400.2207180086939,45.43862984119583,1678.91696795904,1
-11.707088632554466,-42.98900824381713,-5.7438061903781525,-87.5830750893922,114.02884679740313,-126.31225759238932,89.7564749689698,7.650602409638537,21.045714285714297,-11.0,2.781021897810219,1.021405182655144e-14,-7.9758454106280325,0.6719576719576683,1.0672268907563014,6.524046070813133,50.69815473044856,20.14663435558325,400.2207180086939,45.43862984119583,1678.91696795904,1
-11.707088632554466,-42.98900824381713,-5.7438061903781525,-87.5830750893922,114.02884679740313,-126.31225759238932,89.7564749689698,10.710843373493958,22.49714285714287,-3.0,0.9270072992700733,1.2700000000000102,-5.521739130434796,4.703703703703701,7.470588235294116,7.012628074917441,49.61776357718246,20.14663435558325,400.2207180086939,45.43862984119583,1678.91696795904,1
-13.159518880015769,-44.448413689732696,-5.691510534623571,-87.21978545887964,113.94384579345427,-126.31225759238932,89.7564749689698,10.710843373493958,22.49714285714287,-3.0,0.9270072992700733,1.2700000000000102,-5.521739130434796,4.703703703703701,7.470588235294116,7.012628074917441,49.61776357718246,21.09981436812401,422.810604872481,45.78656989441197,1663.0578995523615,1
-13.159518880015769,-44.448413689732696,-5.691510534623571,-87.21978545887964,113.94384579345427,-126.31225759238932,89.7564749689698,-1.530120481927728,25.400000000000013,-5.0,-4.635036496350365,-1.2699999999999898,-12.884057971014505,-4.703703703703708,3.2016806722689064,7.328074915658152,66.33811624508685,21.09981436812401,422.810604872481,45.78656989441197,1663.0578995523615,1
-13.159518880015769,-44.448413689732696,-5.691510534623571,-87.21978545887964,113.94384579345427,-126.31225759238932,89.7564749689698,-4.590361445783149,9.434285714285725,-29.0,-4.635036496350365,1.021405182655144e-14,-7.9758454106280325,-2.0158730158730194,1.0672268907563014,7.339828621709575,87.19898316605511,21.09981436812401,422.810604872481,45.78656989441197,1663.0578995523615,1
-13.710440698018333,-44.7656757431926,-5.552055452611356,-86.67485101311092,113.80784418713608,-126.33084522502745,89.71443938767067,-4.590361445783149,9.434285714285725,-29.0,-4.635036496350365,1.021405182655144e-14,-7.9758454106280325,-2.0158730158730194,1.0672268907563014,7.339828621709575,87.19898316605511,21.34272396460743,428.1158149695633,45.66419406963829,1645.8324912748712,1
-13.710440698018333,-44.7656757431926,-5.552055452611356,-86.67485101311092,113.80784418713608,-126.33084522502745,89.71443938767067,1.5301204819276943,16.69142857142858,-5.0,6.489051094890511,5.080000000000011,-1.840579710144941,4.703703703703701,5.336134453781511,5.833877251984619,22.224734762442182,21.34272396460743,428.1158149695633,45.66419406963829,1645.8324912748712,1
-13.710440698018333,-44.7656757431926,-5.552055452611356,-86.67485101311092,113.80784418713608,-126.33084522502745,89.71443938767067,7.650602409638537,15.24000000000001,-15.0,2.781021897810219,1.021405182655144e-14,-6.748792270531414,-0.6719576719576756,1.0672268907563014,6.1449501425867705,38.36811420678436,21.34272396460743,428.1158149695633,45.66419406963829,1645.8324912748712,1
-13.009267475105979,-45.844366724956274,-6.3364902889300705,-86.37210965435042,113.75684358476676,-126.31225759238932,89.58833264377327,7.650602409638537,15.24000000000001,-15.0,2.781021897810219,1.021405182655144e-14,-6.748792270531414,-0.6719576719576756,1.0672268907563014,6.1449501425867705,38.36811420678436,21.730041496330774,447.2569997680306,46.184322222745585,1601.5117691069702,1
-13.009267475105979,-45.844366724956274,-6.3364902889300705,-86.37210965435042,113.75684358476676,-126.31225759238932,89.58833264377327,4.590361445783116,21.045714285714297,-13.0,-0.9270072992700726,-1.2699999999999898,-3.067632850241559,0.6719576719576683,3.2016806722689064,5.9717942781544515,52.897113267275586,21.730041496330774,447.2569997680306,46.184322222745585,1601.5117691069702,1
-13.009267475105979,-45.844366724956274,-6.3364902889300705,-86.37210965435042,113.75684358476676,-126.31225759238932,89.58833264377327,7.650602409638537,21.045714285714297,-3.0,4.635036496350365,7.62000000000001,-14.111111111111123,4.703703703703701,5.336134453781511,8.512787807537443,37.14056236153065,21.730041496330774,447.2569997680306,46.184322222745585,1601.5117691069702,1
-11.431627723553184,-46.22508118910816,-6.7722874202182455,-86.49320619785465,113.82484438792585,-126.25649469447494,89.504261481175,7.650602409638537,21.045714285714297,-3.0,4.635036496350365,7.62000000000001,-14.111111111111123,4.703703703703701,5.336134453781511,8.512787807537443,37.14056236153065,21.476332110959863,464.80279871542996,46.49685826906035,1588.9116197735154,1
-11.431627723553184,-46.22508118910816,-6.7722874202182455,-86.49320619785465,113.82484438792585,-126.25649469447494,89.504261481175,10.710843373493958,28.302857142857157,5.0,0.9270072992700733,-5.079999999999989,-5.521739130434796,0.6719576719576683,7.470588235294116,7.96062410666347,78.1740228759228,21.476332110959863,464.80279871542996,46.49685826906035,1588.9116197735154,1
-11.431627723553184,-46.22508118910816,-6.7722874202182455,-86.49320619785465,113.82484438792585,-126.25649469447494,89.504261481175,4.590361445783116,15.24000000000001,-9.0,2.781021897810219,1.2700000000000102,-3.067632850241559,2.0158730158730123,3.2016806722689064,5.145821235247104,22.223580852179786,21.476332110959863,464.80279871542996,46.49685826906035,1588.9116197735154,1
-10.630286897367638,-44.702223332500616,-6.650264223457556,-86.79594755661503,113.96084599424404,-126.10779363336992,89.48324369052544,4.590361445783116,15.24000000000001,-9.0,2.781021897810219,1.2700000000000102,-3.067632850241559,2.0158730158730123,3.2016806722689064,5.145821235247104,22.223580852179786,20.66092481777527,437.4481708268109,46.049478370857734,1607.193961338473,1
-10.630286897367638,-44.702223332500616,-6.650264223457556,-86.79594755661503,113.96084599424404,-126.10779363336992,89.48324369052544,4.590361445783116,5.080000000000011,-35.0,2.781021897810219,2.5400000000000102,-6.748792270531414,2.0158730158730123,1.0672268907563014,7.477909440094261,127.06562551546975,20.66092481777527,437.4481708268109,46.049478370857734,1607.193961338473,1
-10.630286897367638,-44.702223332500616,-6.650264223457556,-86.79594755661503,113.96084599424404,-126.10779363336992,89.48324369052544,1.5301204819276943,23.94857142857144,-1.0,6.489051094890511,6.35000000000001,-6.748792270531414,0.6719576719576683,1.0672268907563014,5.97571497982938,60.109852509926505,20.66092481777527,437.4481708268109,46.049478370857734,1607.193961338473,1
-10.079365079365074,-45.780914314264294,-6.737423649715192,-87.40143027413592,114.14784820293156,-125.97768020490304,89.44120810922631,1.5301204819276943,23.94857142857144,-1.0,6.489051094890511,6.35000000000001,-6.748792270531414,0.6719576719576683,1.0672268907563014,5.97571497982938,60.109852509926505,20.865901014448188,468.3605589273127,46.63992274603847,1627.2239127905423,1
-10.079365079365074,-45.780914314264294,-6.737423649715192,-87.40143027413592,114.14784820293156,-125.97768020490304,89.44120810922631,1.5301204819276943,15.24000000000001,-21.0,-6.4890510948905105,-3.80999999999999,-7.9758454106280325,0.6719576719576683,5.336134453781511,7.756638639148178,49.062739572953696,20.865901014448188,468.3605589273127,46.63992274603847,1627.2239127905423,1
-10.079365079365074,-45.780914314264294,-6.737423649715192,-87.40143027413592,114.14784820293156,-125.97768020490304,89.44120810922631,10.710843373493958,21.045714285714297,-17.0,-2.7810218978102186,-5.079999999999989,-12.884057971014505,-0.6719576719576756,3.2016806722689064,9.171909484032444,54.842083676829894,20.865901014448188,468.3605589273127,46.63992274603847,1627.2239127905423,1
-9.653652765454003,-46.79615288533599,-6.929174387481989,-88.0069129916568,114.3688508131986,-125.86615440907428,89.37815473727761,10.710843373493958,21.045714285714297,-17.0,-2.7810218978102186,-5.079999999999989,-12.884057971014505,-0.6719576719576756,3.2016806722689064,9.171909484032444,54.842083676829894,21.126326679423997,496.06067868930404,47.24408008815826,1643.5504033759962,1
-9.653652765454003,-46.79615288533599,-6.929174387481989,-88.0069129916568,114.3688508131986,-125.86615440907428,89.37815473727761,-1.530120481927728,15.24000000000001,-13.0,10.197080291970803,3.8100000000000103,-1.840579710144941,0.6719576719576683,-3.2016806722689086,6.186427353533759,32.85862398216988,21.126326679423997,496.06067868930404,47.24408008815826,1643.5504033759962,1
-9.653652765454003,-46.79615288533599,-6.929174387481989,-88.0069129916568,114.3688508131986,-125.86615440907428,89.37815473727761,7.650602409638537,23.94857142857144,-9.0,0.9270072992700733,-1.2699999999999898,-6.748792270531414,2.0158730158730123,3.2016806722689064,6.845315887019172,57.21884810601836,21.126326679423997,496.06067868930404,47.24408008815826,1643.5504033759962,1
-10.104406980183374,-45.717461903572314,-7.190652666254894,-88.37020262216924,114.53885282109633,-125.68027808269301,89.31510136532891,7.650602409638537,23.94857142857144,-9.0,0.9270072992700733,-1.2699999999999898,-6.748792270531414,2.0158730158730123,3.2016806722689064,6.845315887019172,57.21884810601836,21.004173850003525,460.1824458644835,47.09277239733215,1648.948441976883,1
-10.104406980183374,-45.717461903572314,-7.190652666254894,-88.37020262216924,114.53885282109633,-125.68027808269301,89.31510136532891,7.650602409638537,21.045714285714297,-5.0,-4.635036496350365,1.021405182655144e-14,-10.42995169082127,0.6719576719576683,3.2016806722689064,6.579367903343882,45.87412754304584,21.004173850003525,460.1824458644835,47.09277239733215,1648.948441976883,1
-10.104406980183374,-45.717461903572314,-7.190652666254894,-88.37020262216924,114.53885282109633,-125.68027808269301,89.31510136532891,-1.530120481927728,15.24000000000001,-19.0,-4.635036496350365,-2.53999999999999,-0.6135265700483226,-3.3597883597883635,3.2016806722689064,6.265019072547961,47.34938171121458,21.004173850003525,460.1824458644835,47.09277239733215,1648.948441976883,1
-8.677018633540367,-44.575318511116656,-7.15578889575184,-88.91513706793808,114.75985543136338,-125.40146359312111,89.35713694662805,-1.530120481927728,15.24000000000001,-19.0,-4.635036496350365,-2.53999999999999,-0.6135265700483226,-3.3597883597883635,3.2016806722689064,6.265019072547961,47.34938171121458,20.13604201346962,448.537211775115,46.882081491602186,1675.138619971297,1
-8.677018633540367,-44.575318511116656,-7.15578889575184,-88.91513706793808,114.75985543136338,-125.40146359312111,89.35713694662805,10.710843373493958,25.400000000000013,-15.0,-0.9270072992700726,-2.53999999999999,-4.294685990338177,2.0158730158730123,9.60504201680672,8.811681461972743,69.3988815317974,20.13604201346962,448.537211775115,46.882081491602186,1675.138619971297,1
-8.677018633540367,-44.575318511116656,-7.15578889575184,-88.91513706793808,114.75985543136338,-125.40146359312111,89.35713694662805,16.831325301204803,34.10857142857144,-9.0,-4.635036496350365,-7.61999999999999,-4.294685990338177,3.3597883597883564,3.2016806722689064,10.381386031065254,112.14771098754554,20.13604201346962,448.537211775115,46.882081491602186,1675.138619971297,1
-9.10273094745144,-45.527104671496375,-7.086061354745732,-89.15733015494641,114.91285723847133,-125.10406147091109,89.33611915597848,16.831325301204803,34.10857142857144,-9.0,-4.635036496350365,-7.61999999999999,-4.294685990338177,3.3597883597883564,3.2016806722689064,10.381386031065254,112.14771098754554,20.57196565789785,468.0859614525564,47.25683206039617,1686.1672582486308,1
-9.10273094745144,-45.527104671496375,-7.086061354745732,-89.15733015494641,114.91285723847133,-125.10406147091109,89.33611915597848,16.831325301204803,31.205714285714297,-15.0,-2.7810218978102186,2.5400000000000102,-6.748792270531414,-0.6719576719576756,5.336134453781511,10.139368235124993,106.8990782493626,20.57196565789785,468.0859614525564,47.25683206039617,1686.1672582486308,1
-9.10273094745144,-45.527104671496375,-7.086061354745732,-89.15733015494641,114.91285723847133,-125.10406147091109,89.33611915597848,-4.590361445783149,9.434285714285725,-31.0,-6.4890510948905105,-5.079999999999989,-16.56521739130436,-0.6719576719576756,-1.067226890756304,9.362262526122215,101.96751427999683,20.57196565789785,468.0859614525564,47.25683206039617,1686.1672582486308,1
-9.077689046633141,-46.351986010492126,-6.8943106169789345,-89.64171632896307,115.09985944715885,-124.8995975118917,89.29408357467935,-4.590361445783149,9.434285714285725,-31.0,-6.4890510948905105,-5.079999999999989,-16.56521739130436,-0.6719576719576756,-1.067226890756304,9.362262526122215,101.96751427999683,20.774661891368066,491.8414171628138,47.629337652144706,1713.0070084282506,1
-9.077689046633141,-46.351986010492126,-6.8943106169789345,-89.64171632896307,115.09985944715885,-124.8995975118917,89.29408357467935,1.5301204819276943,21.045714285714297,-15.0,-2.7810218978102186,1.2700000000000102,-4.294685990338177,0.6719576719576683,5.336134453781511,6.491204347691197,55.6992365700995,20.774661891368066,491.8414171628138,47.629337652144706,1713.0070084282506,1
-9.077689046633141,-46.351986010492126,-6.8943106169789345,-89.64171632896307,115.09985944715885,-124.8995975118917,89.29408357467935,10.710843373493958,28.302857142857157,3.0,-2.7810218978102186,-3.80999999999999,-5.521739130434796,-0.6719576719576756,9.60504201680672,8.050432654170065,78.82090084915406,20.774661891368066,491.8414171628138,47.629337652144706,1713.0070084282506,1
-10.680370699004234,-47.494129402947785,-6.824583075972827,-89.7628128724673,115.20186065189748,-124.78807171606293,89.14695904013239,10.710843373493958,28.302857142857157,3.0,-2.7810218978102186,-3.80999999999999,-5.521739130434796,-0.6719576719576756,9.60504201680672,8.050432654170065,78.82090084915406,21.666361059308283,504.0219877580107,48.0271751171293,1719.900593744086,1
-10.680370699004234,-47.494129402947785,-6.824583075972827,-89.7628128724673,115.20186065189748,-124.78807171606293,89.14695904013239,10.710843373493958,28.302857142857157,5.0,4.635036496350365,7.62000000000001,-0.6135265700483226,3.3597883597883564,3.2016806722689064,7.930466576850884,77.01411461893042,21.666361059308283,504.0219877580107,48.0271751171293,1719.900593744086,1
-10.680370699004234,-47.494129402947785,-6.824583075972827,-89.7628128724673,115.20186065189748,-124.78807171606293,89.14695904013239,-1.530120481927728,9.434285714285725,-27.0,-10.197080291970803,-5.079999999999989,-23.92753623188407,-3.3597883597883635,1.0672268907563014,10.199504746326623,100.40697524760328,21.666361059308283,504.0219877580107,48.0271751171293,1719.900593744086,1
-10.930789707187218,-46.98651011741193,-6.737423649715192,-89.82336114421935,115.28686165584634,-124.6951335528723,89.04187008688456,-1.530120481927728,9.434285714285725,-27.0,-10.197080291970803,-5.079999999999989,-23.92753623188407,-3.3597883597883635,1.0672268907563014,10.199504746326623,100.40697524760328,21.551574491438114,489.5980424460637,47.849098303782164,1726.376296119612,1
-10.930789707187218,-46.98651011741193,-6.737423649715192,-89.82336114421935,115.28686165584634,-124.6951335528723,89.04187008688456,-1.530120481927728,10.885714285714297,-19.0,-2.7810218978102186,-1.2699999999999898,-7.9758454106280325,-0.6719576719576756,-3.2016806722689086,5.914542552538356,40.806987771934686,21.551574491438114,489.5980424460637,47.849098303782164,1726.376296119612,1
-10.930789707187218,-46.98651011741193,-6.737423649715192,-89.82336114421935,115.28686165584634,-124.6951335528723,89.04187008688456,10.710843373493958,21.045714285714297,-9.0,6.489051094890511,11.43000000000001,4.2946859903381505,7.391534391534388,5.336134453781511,9.462245448719104,28.096809650110238,21.551574491438114,489.5980424460637,47.849098303782164,1726.376296119612,1
-11.63196293009957,-46.66924806395203,-6.650264223457556,-89.7628128724673,115.3208620574259,-124.60219538968167,88.91576334298716,10.710843373493958,21.045714285714297,-9.0,6.489051094890511,11.43000000000001,4.2946859903381505,7.391534391534388,5.336134453781511,9.462245448719104,28.096809650110238,21.65049173916972,475.6579565300659,47.69410838662563,1727.7116897442456,1
-11.63196293009957,-46.66924806395203,-6.650264223457556,-89.7628128724673,115.3208620574259,-124.60219538968167,88.91576334298716,-1.530120481927728,7.982857142857153,-23.0,-0.9270072992700726,1.021405182655144e-14,-7.9758454106280325,0.6719576719576683,5.336134453781511,5.927990307552772,58.191147818548075,21.65049173916972,475.6579565300659,47.69410838662563,1727.7116897442456,1
-11.63196293009957,-46.66924806395203,-6.650264223457556,-89.7628128724673,115.3208620574259,-124.60219538968167,88.91576334298716,4.590361445783116,19.594285714285725,-17.0,6.489051094890511,5.080000000000011,-1.840579710144941,-0.6719576719576756,9.60504201680672,8.108909706733588,47.4260564056215,21.65049173916972,475.6579565300659,47.69410838662563,1727.7116897442456,1
-10.955831608005516,-46.73270047464401,-6.842014961224354,-89.64171632896307,115.35486245900543,-124.45349432857665,88.81067438973933,4.590361445783116,19.594285714285725,-17.0,6.489051094890511,5.080000000000011,-1.840579710144941,-0.6719576719576756,9.60504201680672,8.108909706733588,47.4260564056215,21.51018234795796,481.3624373390883,47.73881058827715,1714.7068298172444,1
-10.955831608005516,-46.73270047464401,-6.842014961224354,-89.64171632896307,115.35486245900543,-124.45349432857665,88.81067438973933,13.77108433734938,25.400000000000013,-5.0,0.9270072992700733,3.8100000000000103,-4.294685990338177,2.0158730158730123,1.0672268907563014,7.035734691698371,71.83039287880453,21.51018234795796,481.3624373390883,47.73881058827715,1714.7068298172444,1
-10.955831608005516,-46.73270047464401,-6.842014961224354,-89.64171632896307,115.35486245900543,-124.45349432857665,88.81067438973933,-1.530120481927728,13.788571428571439,-17.0,0.9270072992700733,-2.53999999999999,-4.294685990338177,-0.6719576719576756,1.0672268907563014,5.2274462203526735,41.45745563919412,21.51018234795796,481.3624373390883,47.73881058827715,1714.7068298172444,1
-10.630286897367638,-47.367224581563825,-6.563104797199922,-89.7628128724673,115.43986346295429,-124.37914379802415,88.72660322714108,-1.530120481927728,13.788571428571439,-17.0,0.9270072992700733,-2.53999999999999,-4.294685990338177,-0.6719576719576756,1.0672268907563014,5.2274462203526735,41.45745563919412,21.520205425377128,505.1867920041927,47.89771408374367,1730.75892028637,1
-10.630286897367638,-47.367224581563825,-6.563104797199922,-89.7628128724673,115.43986346295429,-124.37914379802415,88.72660322714108,1.5301204819276943,25.400000000000013,-3.0,-0.9270072992700726,1.021405182655144e-14,-9.202898550724651,-0.6719576719576756,5.336134453781511,5.758514807207704,72.24226695716273,21.520205425377128,505.1867920041927,47.89771408374367,1730.75892028637,1
-10.630286897367638,-47.367224581563825,-6.563104797199922,-89.7628128724673,115.43986346295429,-124.37914379802415,88.72660322714108,22.951807228915644,18.142857142857153,-9.0,0.9270072992700733,1.021405182655144e-14,-3.067632850241559,4.703703703703701,9.60504201680672,8.549756280224358,68.11620504045429,21.520205425377128,505.1867920041927,47.89771408374367,1730.75892028637,1
-11.556837227644676,-47.367224581563825,-6.319058403678544,-89.58116805721102,115.42286326216453,-124.3419685327479,88.64253206454282,22.951807228915644,18.142857142857153,-9.0,0.9270072992700733,1.021405182655144e-14,-3.067632850241559,4.703703703703701,9.60504201680672,8.549756280224358,68.11620504045429,21.747706737629017,499.12835266896764,47.75581701415113,1733.257979048214,1
-11.556837227644676,-47.367224581563825,-6.319058403678544,-89.58116805721102,115.42286326216453,-124.3419685327479,88.64253206454282,7.650602409638537,22.49714285714287,-11.0,-0.9270072992700726,1.2700000000000102,-6.748792270531414,-2.0158730158730194,1.0672268907563014,6.647080592901528,55.057838227571324,21.747706737629017,499.12835266896764,47.75581701415113,1733.257979048214,1
-11.556837227644676,-47.367224581563825,-6.319058403678544,-89.58116805721102,115.42286326216453,-124.3419685327479,88.64253206454282,-4.590361445783149,15.24000000000001,-21.0,0.9270072992700733,3.8100000000000103,-16.56521739130436,-0.6719576719576756,5.336134453781511,8.5175847827621,61.8061059609169,21.747706737629017,499.12835266896764,47.75581701415113,1733.257979048214,1
-11.50675342600808,-48.89008243817137,-6.022716354402585,-89.70226460071524,115.45686366374406,-124.4163190633004,88.51642532064542,-4.590361445783149,15.24000000000001,-21.0,0.9270072992700733,3.8100000000000103,-16.56521739130436,-0.6719576719576756,5.336134453781511,8.5175847827621,61.8061059609169,22.139850739527347,544.1998375990405,48.205021131096395,1750.9186804225803,1
-11.50675342600808,-48.89008243817137,-6.022716354402585,-89.70226460071524,115.45686366374406,-124.4163190633004,88.51642532064542,10.710843373493958,12.337142857142869,-23.0,-0.9270072992700726,-8.88999999999999,-9.202898550724651,2.0158730158730123,5.336134453781511,9.052487443785758,48.209983926095575,22.139850739527347,544.1998375990405,48.205021131096395,1750.9186804225803,1
-11.50675342600808,-48.89008243817137,-6.022716354402585,-89.70226460071524,115.45686366374406,-124.4163190633004,88.51642532064542,4.590361445783116,25.400000000000013,-7.0,4.635036496350365,1.2700000000000102,-3.067632850241559,-2.0158730158730194,3.2016806722689064,6.397573060064624,62.08874678595743,22.139850739527347,544.1998375990405,48.205021131096395,1750.9186804225803,1
-11.682046731736168,-49.08043967024731,-6.162171436414801,-89.7628128724673,115.47386386453385,-124.50925722649103,88.39031857674803,4.590361445783116,25.400000000000013,-7.0,4.635036496350365,1.2700000000000102,-3.067632850241559,-2.0158730158730194,3.2016806722689064,6.397573060064624,62.08874678595743,22.30821927946609,545.1810943083959,48.335141326376466,1747.6834143458868,1
-11.682046731736168,-49.08043967024731,-6.162171436414801,-89.7628128724673,115.47386386453385,-124.50925722649103,88.39031857674803,1.5301204819276943,22.49714285714287,-13.0,-4.635036496350365,-2.53999999999999,-5.521739130434796,0.6719576719576683,7.470588235294116,7.233323109138437,53.36871169366173,22.30821927946609,545.1810943083959,48.335141326376466,1747.6834143458868,1
-11.682046731736168,-49.08043967024731,-6.162171436414801,-89.7628128724673,115.47386386453385,-124.50925722649103,88.39031857674803,19.891566265060224,41.3657142857143,3.0,4.635036496350365,6.35000000000001,0.6135265700482959,8.735449735449732,9.60504201680672,11.774541921178706,176.77505994510267,22.30821927946609,545.1810943083959,48.335141326376466,1747.6834143458868,1
-10.90574780636892,-47.93829627779165,-6.127307665911746,-89.7628128724673,115.47386386453385,-124.49066959385291,88.39031857674803,19.891566265060224,41.3657142857143,3.0,4.635036496350365,6.35000000000001,0.6135265700482959,8.735449735449732,9.60504201680672,11.774541921178706,176.77505994510267,21.657117250024104,523.7336508611596,47.94280560539024,1748.7244480394716,1
-10.90574780636892,-47.93829627779165,-6.127307665911746,-89.7628128724673,115.47386386453385,-124.49066959385291,88.39031857674803,7.650602409638537,23.94857142857144,-17.0,-4.635036496350365,1.2700000000000102,-5.521739130434796,0.6719576719576683,3.2016806722689064,7.987448476152716,67.85135400190835,21.657117250024104,523.7336508611596,47.94280560539024,1748.7244480394716,1
-10.90574780636892,-47.93829627779165,-6.127307665911746,-89.7628128724673,115.47386386453385,-124.49066959385291,88.39031857674803,-1.530120481927728,9.434285714285725,-21.0,-4.635036496350365,1.2700000000000102,-6.748792270531414,-0.6719576719576756,-1.067226890756304,5.7946774407261525,47.707697610578045,21.657117250024104,523.7336508611596,47.94280560539024,1748.7244480394716,1
-10.955831608005516,-47.430676992255805,-6.127307665911746,-89.7628128724673,115.49086406532362,-124.49066959385291,88.39031857674803,-1.530120481927728,9.434285714285725,-21.0,-4.635036496350365,1.2700000000000102,-6.748792270531414,-0.6719576719576756,-1.067226890756304,5.7946774407261525,47.707697610578045,21.50460542205769,509.94955116211946,47.773599176878285,1748.8126295074749,1
-10.955831608005516,-47.430676992255805,-6.127307665911746,-89.7628128724673,115.49086406532362,-124.49066959385291,88.39031857674803,4.590361445783116,28.302857142857157,-9.0,4.635036496350365,1.2700000000000102,-7.9758454106280325,0.6719576719576683,1.0672268907563014,7.189160632291582,82.56456708039657,21.50460542205769,509.94955116211946,47.773599176878285,1748.8126295074749,1
-10.955831608005516,-47.430676992255805,-6.127307665911746,-89.7628128724673,115.49086406532362,-124.49066959385291,88.39031857674803,10.710843373493958,32.65714285714287,13.0,-0.9270072992700726,2.5400000000000102,-3.067632850241559,3.3597883597883564,7.470588235294116,9.216625371903868,107.78012280512083,21.50460542205769,509.94955116211946,47.773599176878285,1748.8126295074749,1
-11.78221433500936,-48.319010741943536,-6.075012010157166,-89.52061978545896,115.42286326216453,-124.54643249176729,88.30624741414977,10.710843373493958,32.65714285714287,13.0,-0.9270072992700726,2.5400000000000102,-3.067632850241559,3.3597883597883564,7.470588235294116,9.216625371903868,107.78012280512083,22.058745695703355,525.3441798182874,47.97154751251989,1740.882912269228,1
-11.78221433500936,-48.319010741943536,-6.075012010157166,-89.52061978545896,115.42286326216453,-124.54643249176729,88.30624741414977,-1.530120481927728,12.337142857142869,-19.0,-4.635036496350365,2.5400000000000102,-7.9758454106280325,0.6719576719576683,-3.2016806722689086,6.4864729487844475,40.17189594586943,22.058745695703355,525.3441798182874,47.97154751251989,1740.882912269228,1
-11.78221433500936,-48.319010741943536,-6.075012010157166,-89.52061978545896,115.42286326216453,-124.54643249176729,88.30624741414977,1.5301204819276943,13.788571428571439,-15.0,0.9270072992700733,-1.2699999999999898,-0.6135265700483226,4.703703703703701,-1.067226890756304,4.86251954678469,36.34652273439575,22.058745695703355,525.3441798182874,47.97154751251989,1740.882912269228,1
-12.207926648920433,-49.71496377716712,-5.987852583899531,-89.39952324195474,115.3718626597952,-124.6951335528723,88.20115846090194,1.5301204819276943,13.788571428571439,-15.0,0.9270072992700733,-1.2699999999999898,-0.6135265700483226,4.703703703703701,-1.067226890756304,4.86251954678469,36.34652273439575,22.63691433666236,559.5879014704014,48.367446534340466,1740.7385525317532,1
-12.207926648920433,-49.71496377716712,-5.987852583899531,-89.39952324195474,115.3718626597952,-124.6951335528723,88.20115846090194,10.710843373493958,21.045714285714297,-3.0,6.489051094890511,-3.80999999999999,-3.067632850241559,-0.6719576719576756,11.739495798319327,7.566836884327165,44.69851946042382,22.63691433666236,559.5879014704014,48.367446534340466,1740.7385525317532,1
-12.207926648920433,-49.71496377716712,-5.987852583899531,-89.39952324195474,115.3718626597952,-124.6951335528723,88.20115846090194,1.5301204819276943,15.24000000000001,-7.0,4.635036496350365,-2.53999999999999,-9.202898550724651,-2.0158730158730194,3.2016806722689064,5.67070115214308,21.89815206208787,22.63691433666236,559.5879014704014,48.367446534340466,1740.7385525317532,1
-11.581879128462974,-49.588058955783154,-6.214467092169381,-89.27842669845063,115.35486245900543,-124.75089645078668,88.03301613570541,1.5301204819276943,15.24000000000001,-7.0,4.635036496350365,-2.53999999999999,-9.202898550724651,-2.0158730158730194,3.2016806722689064,5.67070115214308,21.89815206208787,22.461468392138503,559.0912146975486,48.36031758213438,1726.0358580289076,1
-11.581879128462974,-49.588058955783154,-6.214467092169381,-89.27842669845063,115.35486245900543,-124.75089645078668,88.03301613570541,1.5301204819276943,16.69142857142858,-19.0,-6.4890510948905105,-1.2699999999999898,-5.521739130434796,2.0158730158730123,-1.067226890756304,6.698179898163861,51.776164178305486,22.461468392138503,559.0912146975486,48.36031758213438,1726.0358580289076,1
-11.581879128462974,-49.588058955783154,-6.214467092169381,-89.27842669845063,115.35486245900543,-124.75089645078668,88.03301613570541,1.5301204819276943,21.045714285714297,-29.0,-2.7810218978102186,-3.80999999999999,-5.521739130434796,-0.6719576719576756,3.2016806722689064,8.445279267514199,111.30335647077858,22.461468392138503,559.0912146975486,48.36031758213438,1726.0358580289076,1
-11.63196293009957,-47.87484386709967,-6.10987578066022,-88.97568533969013,115.3038618566361,-124.73230881814855,87.94894497310715,1.5301204819276943,21.045714285714297,-29.0,-2.7810218978102186,-3.80999999999999,-5.521739130434796,-0.6719576719576756,3.2016806722689064,8.445279267514199,111.30335647077858,21.872227525953154,514.7254040601457,47.65346832915001,1716.722353814955,1
-11.63196293009957,-47.87484386709967,-6.10987578066022,-88.97568533969013,115.3038618566361,-124.73230881814855,87.94894497310715,7.650602409638537,25.400000000000013,-11.0,-4.635036496350365,2.5400000000000102,-6.748792270531414,0.6719576719576683,7.470588235294116,8.264622135471516,58.286065860123394,21.872227525953154,514.7254040601457,47.65346832915001,1716.722353814955,1
-11.63196293009957,-47.87484386709967,-6.10987578066022,-88.97568533969013,115.3038618566361,-124.73230881814855,87.94894497310715,-1.530120481927728,19.594285714285725,-13.0,-6.4890510948905105,-1.2699999999999898,-7.9758454106280325,2.0158730158730123,-1.067226890756304,6.617800326045162,45.35036621112328,21.872227525953154,514.7254040601457,47.65346832915001,1716.722353814955,1
-11.581879128462974,-47.557581813639764,-6.266762747923963,-88.79404052443385,115.3208620574259,-124.67654592023418,87.82283822920975,-1.530120481927728,19.594285714285725,-13.0,-6.4890510948905105,-1.2699999999999898,-7.9758454106280325,2.0158730158730123,-1.067226890756304,6.617800326045162,45.35036621112328,21.802074563342234,504.57223082476503,47.53946169533253,1702.6881405543213,1
-11.581879128462974,-47.557581813639764,-6.266762747923963,-88.79404052443385,115.3208620574259,-124.67654592023418,87.82283822920975,-4.590361445783149,10.885714285714297,-27.0,0.9270072992700733,2.5400000000000102,-6.748792270531414,2.0158730158730123,1.0672268907563014,6.971871900991032,76.82486688266759,21.802074563342234,504.57223082476503,47.53946169533253,1702.6881405543213,1
-11.581879128462974,-47.557581813639764,-6.266762747923963,-88.79404052443385,115.3208620574259,-124.67654592023418,87.82283822920975,10.710843373493958,16.69142857142858,-11.0,6.489051094890511,3.8100000000000103,-4.294685990338177,-7.391534391534396,7.470588235294116,8.482266457122469,17.74969723426851,21.802074563342234,504.57223082476503,47.53946169533253,1702.6881405543213,1
-12.157842847283836,-49.65151136647514,-6.319058403678544,-88.67294398092974,115.28686165584634,-124.76948408342481,87.65469590401324,10.710843373493958,16.69142857142858,-11.0,6.489051094890511,3.8100000000000103,-4.294685990338177,-7.391534391534396,7.470588235294116,8.482266457122469,17.74969723426851,22.709470872479173,552.9280104298107,48.214504583694485,1697.0893587880641,1
-12.157842847283836,-49.65151136647514,-6.319058403678544,-88.67294398092974,115.28686165584634,-124.76948408342481,87.65469590401324,13.77108433734938,35.56000000000002,1.0,-4.635036496350365,-3.80999999999999,-6.748792270531414,0.6719576719576683,3.2016806722689064,8.674818931057217,135.05494894381835,22.709470872479173,552.9280104298107,48.214504583694485,1697.0893587880641,1
-12.157842847283836,-49.65151136647514,-6.319058403678544,-88.67294398092974,115.28686165584634,-124.76948408342481,87.65469590401324,1.5301204819276943,19.594285714285725,-7.0,-0.9270072992700726,2.5400000000000102,-7.9758454106280325,-8.73544973544974,1.0672268907563014,6.171241941539697,39.853656056883665,22.709470872479173,552.9280104298107,48.214504583694485,1697.0893587880641,1
-11.156166814551902,-49.96877341993504,-6.040148239654112,-88.85458879618602,115.3208620574259,-124.8995975118917,87.54960695076541,1.5301204819276943,19.594285714285725,-7.0,-0.9270072992700726,2.5400000000000102,-7.9758454106280325,-8.73544973544974,1.0672268907563014,6.171241941539697,39.853656056883665,22.388362824713685,577.0526979654236,48.28783681859173,1716.6770520661407,1
-11.156166814551902,-49.96877341993504,-6.040148239654112,-88.85458879618602,115.3208620574259,-124.8995975118917,87.54960695076541,-4.590361445783149,12.337142857142869,-15.0,4.635036496350365,1.2700000000000102,-9.202898550724651,-4.703703703703708,1.0672268907563014,6.600796243057632,25.823718652513264,22.388362824713685,577.0526979654236,48.28783681859173,1716.6770520661407,1
-11.156166814551902,-49.96877341993504,-6.040148239654112,-88.85458879618602,115.3208620574259,-124.8995975118917,87.54960695076541,7.650602409638537,19.594285714285725,-21.0,-12.051094890510948,1.2700000000000102,-4.294685990338177,6.047619047619044,5.336134453781511,9.655552813271743,52.56632738772206,22.388362824713685,577.0526979654236,48.28783681859173,1716.6770520661407,1
-11.581879128462974,-49.334249313015235,-6.127307665911746,-88.7334922526818,115.3038618566361,-124.95536040980608,87.40248241621845,7.650602409638537,19.594285714285725,-21.0,-12.051094890510948,1.2700000000000102,-4.294685990338177,6.047619047619044,5.336134453781511,9.655552813271743,52.56632738772206,22.34781203579665,553.638935147959,48.06501641053626,1707.1536471164331,1
-11.581879128462974,-49.334249313015235,-6.127307665911746,-88.7334922526818,115.3038618566361,-124.95536040980608,87.40248241621845,7.650602409638537,21.045714285714297,-7.0,4.635036496350365,-1.2699999999999898,-1.840579710144941,-2.0158730158730194,9.60504201680672,6.882855991815984,42.03841819233042,22.34781203579665,553.638935147959,48.06501641053626,1707.1536471164331,1
-11.581879128462974,-49.334249313015235,-6.127307665911746,-88.7334922526818,115.3038618566361,-124.95536040980608,87.40248241621845,-1.530120481927728,9.434285714285725,-15.0,-4.635036496350365,-2.53999999999999,-5.521739130434796,-3.3597883597883635,3.2016806722689064,5.652831356881984,20.09638573286129,22.34781203579665,553.638935147959,48.06501641053626,1707.1536471164331,1
-12.483387557921715,-49.588058955783154,-5.952988813396477,-88.43075089392141,115.21886085268724,-125.08547383827296,87.27637567232105,-1.530120481927728,9.434285714285725,-15.0,-4.635036496350365,-2.53999999999999,-5.521739130434796,-3.3597883597883635,3.2016806722689064,5.652831356881984,20.09638573286129,22.674811775700448,553.9036822727965,47.99059955436701,1702.559216857299,1
-12.483387557921715,-49.588058955783154,-5.952988813396477,-88.43075089392141,115.21886085268724,-125.08547383827296,87.27637567232105,4.590361445783116,18.142857142857153,-13.0,-4.635036496350365,1.021405182655144e-14,0.6135265700482959,7.391534391534388,7.470588235294116,6.980488035233431,37.38877503513769,22.674811775700448,553.9036822727965,47.99059955436701,1702.559216857299,1
-12.483387557921715,-49.588058955783154,-5.952988813396477,-88.43075089392141,115.21886085268724,-125.08547383827296,87.27637567232105,1.5301204819276943,16.69142857142858,-21.0,-6.4890510948905105,-7.61999999999999,-10.42995169082127,-4.703703703703708,5.336134453781511,9.225048749569158,42.95544240213319,22.674811775700448,553.9036822727965,47.99059955436701,1702.559216857299,1
-11.1812087153702,-50.286035473394946,-5.778669960881206,-88.61239570917769,115.21886085268724,-125.27135016465422,87.21332230037235,1.5301204819276943,16.69142857142858,-21.0,-6.4890510948905105,-7.61999999999999,-10.42995169082127,-4.703703703703708,5.336134453781511,9.225048749569158,42.95544240213319,22.415304716548786,589.8800809388969,48.225700381151285,1718.540265855247,1
-11.1812087153702,-50.286035473394946,-5.778669960881206,-88.61239570917769,115.21886085268724,-125.27135016465422,87.21332230037235,7.650602409638537,19.594285714285725,-3.0,10.197080291970803,10.16000000000001,-6.748792270531414,3.3597883597883564,3.2016806722689064,7.989028714810469,30.737470282333238,22.415304716548786,589.8800809388969,48.225700381151285,1718.540265855247,1
-11.1812087153702,-50.286035473394946,-5.778669960881206,-88.61239570917769,115.21886085268724,-125.27135016465422,87.21332230037235,1.5301204819276943,19.594285714285725,-15.0,-0.9270072992700726,5.080000000000011,-6.748792270531414,4.703703703703701,3.2016806722689064,7.098198767748441,44.684203239093335,22.415304716548786,589.8800809388969,48.225700381151285,1718.540265855247,1
-10.980873508823814,-49.96877341993504,-5.499759796856774,-88.91513706793808,115.23586105347701,-125.45722649103548,87.21332230037235,1.5301204819276943,19.594285714285725,-15.0,-0.9270072992700726,5.080000000000011,-6.748792270531414,4.703703703703701,3.2016806722689064,7.098198767748441,44.684203239093335,22.14980224187188,587.93201993531,48.127890094909965,1742.0729298814736,1
-10.980873508823814,-49.96877341993504,-5.499759796856774,-88.91513706793808,115.23586105347701,-125.45722649103548,87.21332230037235,7.650602409638537,31.205714285714297,7.0,4.635036496350365,2.5400000000000102,-5.521739130434796,0.6719576719576683,3.2016806722689064,7.803341333295572,94.75975516968643,22.14980224187188,587.93201993531,48.127890094909965,1742.0729298814736,1
-10.980873508823814,-49.96877341993504,-5.499759796856774,-88.91513706793808,115.23586105347701,-125.45722649103548,87.21332230037235,13.77108433734938,26.851428571428585,-3.0,13.905109489051094,-3.80999999999999,-6.748792270531414,-2.0158730158730194,5.336134453781511,9.429802767251875,70.60356860814204,22.14980224187188,587.93201993531,48.127890094909965,1742.0729298814736,1
-11.63196293009957,-49.461154134399195,-5.430032255850667,-89.09678188319435,115.23586105347701,-125.66169045005488,87.19230450972279,13.77108433734938,26.851428571428585,-3.0,13.905109489051094,-3.80999999999999,-6.748792270531414,-2.0158730158730194,5.336134453781511,9.429802767251875,70.60356860814204,22.174383106783143,568.0418908572074,47.9959894244814,1751.641279021545,1
-11.63196293009957,-49.461154134399195,-5.430032255850667,-89.09678188319435,115.23586105347701,-125.66169045005488,87.19230450972279,1.5301204819276943,18.142857142857153,-17.0,-2.7810218978102186,-2.53999999999999,-11.657004830917888,-3.3597883597883635,1.0672268907563014,7.259752450507202,51.6244406196058,22.174383106783143,568.0418908572074,47.9959894244814,1751.641279021545,1
-11.63196293009957,-49.461154134399195,-5.430032255850667,-89.09678188319435,115.23586105347701,-125.66169045005488,87.19230450972279,10.710843373493958,22.49714285714287,-9.0,6.489051094890511,1.2700000000000102,-3.067632850241559,0.6719576719576683,7.470588235294116,7.647152010377587,49.05777180826238,22.174383106783143,568.0418908572074,47.9959894244814,1751.641279021545,1
-12.333136153011925,-48.89008243817137,-5.708942419875099,-89.09678188319435,115.16786025031794,-125.86615440907428,87.17128671907322,10.710843373493958,22.49714285714287,-9.0,6.489051094890511,1.2700000000000102,-3.067632850241559,0.6719576719576683,7.470588235294116,7.647152010377587,49.05777180826238,22.310720337019465,540.8168529316449,47.89860224708027,1739.1202173170705,1
-12.333136153011925,-48.89008243817137,-5.708942419875099,-89.09678188319435,115.16786025031794,-125.86615440907428,87.17128671907322,7.650602409638537,16.69142857142858,-17.0,10.197080291970803,2.5400000000000102,-6.748792270531414,0.6719576719576683,5.336134453781511,8.354499458663565,36.094045280058815,22.310720337019465,540.8168529316449,47.89860224708027,1739.1202173170705,1
-12.333136153011925,-48.89008243817137,-5.708942419875099,-89.09678188319435,115.16786025031794,-125.86615440907428,87.17128671907322,7.650602409638537,19.594285714285725,-17.0,-2.7810218978102186,1.2700000000000102,-6.748792270531414,-0.6719576719576756,1.0672268907563014,7.097985856872485,54.98574347781067,22.310720337019465,540.8168529316449,47.89860224708027,1739.1202173170705,1
-12.132800946465538,-45.717461903572314,-5.203417747580815,-89.03623361144219,115.09985944715885,-125.99626783754117,87.29739346297062,7.650602409638537,19.594285714285725,-17.0,-2.7810218978102186,1.2700000000000102,-6.748792270531414,-0.6719576719576756,1.0672268907563014,7.097985856872485,54.98574347781067,21.017893532539556,469.5555961657378,46.652371087531776,1757.6407953027106,1
-12.132800946465538,-45.717461903572314,-5.203417747580815,-89.03623361144219,115.09985944715885,-125.99626783754117,87.29739346297062,1.5301204819276943,18.142857142857153,-17.0,4.635036496350365,1.021405182655144e-14,-10.42995169082127,2.0158730158730123,5.336134453781511,7.386246660201378,49.550992387567696,21.017893532539556,469.5555961657378,46.652371087531776,1757.6407953027106,1
-12.132800946465538,-45.717461903572314,-5.203417747580815,-89.03623361144219,115.09985944715885,-125.99626783754117,87.29739346297062,19.891566265060224,35.56000000000002,11.0,13.905109489051094,6.35000000000001,-5.521739130434796,4.703703703703701,7.470588235294116,13.050338352942994,108.68514992964981,21.017893532539556,469.5555961657378,46.652371087531776,1757.6407953027106,1
-11.757172434191062,-45.527104671496375,-4.436414796513628,-89.21787842669846,115.04885884478952,-126.14496889864617,87.48655357881671,19.891566265060224,35.56000000000002,11.0,13.905109489051094,6.35000000000001,-5.521739130434796,4.703703703703701,7.470588235294116,13.050338352942994,108.68514992964981,20.573563967400357,480.4077683506358,46.393799298236154,1797.5375135011031,1
-11.757172434191062,-45.527104671496375,-4.436414796513628,-89.21787842669846,115.04885884478952,-126.14496889864617,87.48655357881671,7.650602409638537,15.24000000000001,-23.0,-0.9270072992700726,-25.39999999999999,-11.657004830917888,-0.6719576719576756,3.2016806722689064,10.968531610506634,92.84674601513237,20.573563967400357,480.4077683506358,46.393799298236154,1797.5375135011031,1
-11.757172434191062,-45.527104671496375,-4.436414796513628,-89.21787842669846,115.04885884478952,-126.14496889864617,87.48655357881671,19.891566265060224,37.01142857142858,1.0,-17.613138686131386,-10.15999999999999,-0.6135265700483226,3.3597883597883564,3.2016806722689064,11.60639114059072,160.60247672671176,20.573563967400357,480.4077683506358,46.393799298236154,1797.5375135011031,1
-9.778862269545494,-40.070197351986,-3.913458238967817,-89.7628128724673,115.08285924636905,-126.12638126600805,88.01199834505584,19.891566265060224,37.01142857142858,1.0,-17.613138686131386,-10.15999999999999,-0.6135265700483226,3.3597883597883564,3.2016806722689064,11.60639114059072,160.60247672671176,17.920839286833104,376.5462881342446,44.5821561544737,1857.7962519235991,1
-9.778862269545494,-40.070197351986,-3.913458238967817,-89.7628128724673,115.08285924636905,-126.12638126600805,88.01199834505584,13.77108433734938,23.94857142857144,1.0,52.83941605839416,44.45000000000001,-12.884057971014505,6.047619047619044,7.470588235294116,20.30141713478033,356.1693228245634,17.920839286833104,376.5462881342446,44.5821561544737,1857.7962519235991,1
-9.778862269545494,-40.070197351986,-3.913458238967817,-89.7628128724673,115.08285924636905,-126.12638126600805,88.01199834505584,-7.650602409638569,6.531428571428581,-23.0,21.32116788321168,16.510000000000012,-7.9758454106280325,2.0158730158730123,3.2016806722689064,11.0258247453811,66.10595699268781,17.920839286833104,376.5462881342446,44.5821561544737,1857.7962519235991,1
-8.401557724539085,-37.912815388458654,-4.5933017637773705,-90.85268176400484,115.28686165584634,-125.92191730698866,88.55846090194456,-7.650602409638569,6.531428571428581,-23.0,21.32116788321168,16.510000000000012,-7.9758454106280325,2.0158730158730123,3.2016806722689064,11.0258247453811,66.10595699268781,16.969224958925036,332.6011884257084,44.45293297208028,1892.2500130116086,1
-8.401557724539085,-37.912815388458654,-4.5933017637773705,-90.85268176400484,115.28686165584634,-125.92191730698866,88.55846090194456,22.951807228915644,29.754285714285725,-1.0,0.9270072992700733,19.05000000000001,26.381642512077278,0.6719576719576683,20.277310924369747,15.126751418859518,150.56112502018792,16.969224958925036,332.6011884257084,44.45293297208028,1892.2500130116086,1
-8.401557724539085,-37.912815388458654,-4.5933017637773705,-90.85268176400484,115.28686165584634,-125.92191730698866,88.55846090194456,13.77108433734938,21.045714285714297,-1.0,-0.9270072992700726,49.53000000000001,6.748792270531387,-2.0158730158730194,7.470588235294116,12.813632430504034,268.5073310501307,16.969224958925036,332.6011884257084,44.45293297208028,1892.2500130116086,1
-14.51178152420388,-43.686984761428924,-4.105208976734614,-89.70226460071524,114.9468576400509,-125.99626783754117,88.66354985519239,13.77108433734938,21.045714285714297,-1.0,-0.9270072992700726,49.53000000000001,6.748792270531387,-2.0158730158730194,7.470588235294116,12.813632430504034,268.5073310501307,20.767991754122473,421.0343683981568,45.831486112959595,1835.1631474087458,1
-14.51178152420388,-43.686984761428924,-4.105208976734614,-89.70226460071524,114.9468576400509,-125.99626783754117,88.66354985519239,29.07228915662649,44.26857142857144,31.0,-6.4890510948905105,35.56000000000001,5.521739130434769,12.767195767195764,16.008403361344534,22.58590624238294,205.90005426991658,20.767991754122473,421.0343683981568,45.831486112959595,1835.1631474087458,1
-14.51178152420388,-43.686984761428924,-4.105208976734614,-89.70226460071524,114.9468576400509,-125.99626783754117,88.66354985519239,-7.650602409638569,16.69142857142858,-21.0,-26.883211678832115,-8.88999999999999,-22.70048309178745,-6.047619047619051,-9.605042016806724,14.93354835201406,62.847172141300796,20.767991754122473,421.0343683981568,45.831486112959595,1835.1631474087458,1
-11.05599921127871,-46.542343242568066,-4.4712785670166815,-89.09678188319435,114.77685563215314,-125.94050493962678,88.74762101779065,-7.650602409638569,16.69142857142858,-21.0,-26.883211678832115,-8.88999999999999,-22.70048309178745,-6.047619047619051,-9.605042016806724,14.93354835201406,62.847172141300796,20.689873673621154,512.1022736007372,46.70346789759302,1790.388423744942,1
-11.05599921127871,-46.542343242568066,-4.4712785670166815,-89.09678188319435,114.77685563215314,-125.94050493962678,88.74762101779065,-16.831325301204835,2.1771428571428686,-59.0,-10.197080291970803,-97.78999999999999,-21.473429951690832,-0.6719576719576756,1.0672268907563014,26.151020370590413,1203.9413959644905,20.689873673621154,512.1022736007372,46.70346789759302,1790.388423744942,1
-11.05599921127871,-46.542343242568066,-4.4712785670166815,-89.09678188319435,114.77685563215314,-125.94050493962678,88.74762101779065,29.07228915662649,37.01142857142858,-11.0,43.56934306569343,38.10000000000001,-22.70048309178745,6.047619047619044,7.470588235294116,24.37146889605614,220.2698349994376,20.689873673621154,512.1022736007372,46.70346789759302,1790.388423744942,1
-5.722074336981164,-47.684486635023724,-2.7455219271155076,-89.39952324195474,114.96385784084066,-125.56875228686425,88.78965659908977,29.07228915662649,37.01142857142858,-11.0,43.56934306569343,38.10000000000001,-22.70048309178745,6.047619047619044,7.470588235294116,24.37146889605614,220.2698349994376,18.717360966373466,631.5357431897017,46.609843934697984,1878.0951286680624,1
-5.722074336981164,-47.684486635023724,-2.7455219271155076,-89.39952324195474,114.96385784084066,-125.56875228686425,88.78965659908977,-22.951807228915676,10.885714285714297,-15.0,-19.467153284671532,10.16000000000001,-4.294685990338177,-6.047619047619051,-22.411764705882355,13.902343067892636,51.94056664370201,18.717360966373466,631.5357431897017,46.609843934697984,1878.0951286680624,1
-5.722074336981164,-47.684486635023724,-2.7455219271155076,-89.39952324195474,114.96385784084066,-125.56875228686425,88.78965659908977,-35.192771084337366,12.337142857142869,-17.0,49.13138686131387,72.39000000000001,14.111111111111097,15.455026455026452,9.60504201680672,28.152810048217297,503.3619897372121,18.717360966373466,631.5357431897017,46.609843934697984,1878.0951286680624,1
-11.33146012027999,-53.90282288283787,1.2115160249811225,-88.06746126340886,114.65785422662475,-125.68027808269301,88.4743897393463,-35.192771084337366,12.337142857142869,-17.0,49.13138686131387,72.39000000000001,14.111111111111097,15.455026455026452,9.60504201680672,28.152810048217297,503.3619897372121,22.14859967603299,834.53958854797,47.727266723742616,1914.591926220794,1
-11.33146012027999,-53.90282288283787,1.2115160249811225,-88.06746126340886,114.65785422662475,-125.68027808269301,88.4743897393463,13.77108433734938,15.24000000000001,-43.0,-91.77372262773723,-62.22999999999999,-31.28985507246378,-10.079365079365083,11.739495798319327,34.890440364404355,863.6587415229222,22.14859967603299,834.53958854797,47.727266723742616,1914.591926220794,1
-11.33146012027999,-53.90282288283787,1.2115160249811225,-88.06746126340886,114.65785422662475,-125.68027808269301,88.4743897393463,-19.891566265060256,-12.337142857142851,-23.0,-8.343065693430656,-13.96999999999999,-26.381642512077306,-18.142857142857146,-18.142857142857142,17.52614145167817,34.09138089902415,22.14859967603299,834.53958854797,47.727266723742616,1914.591926220794,1
-17.867396233855857,-54.60079940044966,5.203417747580806,-85.10059594755671,113.58684157686903,-126.53530918404684,88.57947869259412,-19.891566265060256,-12.337142857142851,-23.0,-8.343065693430656,-13.96999999999999,-26.381642512077306,-18.142857142857146,-18.142857142857142,17.52614145167817,34.09138089902415,25.890537793962107,909.6916257757263,48.30160436519572,1625.6496646488022,1
-17.867396233855857,-54.60079940044966,5.203417747580806,-85.10059594755671,113.58684157686903,-126.53530918404684,88.57947869259412,-10.710843373493994,0.7257142857142966,1.0,15.75912408759124,34.29000000000001,-25.154589371980688,-10.079365079365083,-9.605042016806724,13.415584776869004,132.45477125456355,25.890537793962107,909.6916257757263,48.30160436519572,1625.6496646488022,1
-17.867396233855857,-54.60079940044966,5.203417747580806,-85.10059594755671,113.58684157686903,-126.53530918404684,88.57947869259412,-29.072289156626525,-21.045714285714276,-59.0,-39.86131386861314,-43.17999999999999,-3.067632850241559,-3.3597883597883635,-7.4705882352941195,25.757165844534747,427.37318984276266,25.890537793962107,909.6916257757263,48.30160436519572,1625.6496646488022,1
-14.261362516020895,-34.42293280039969,6.545672911948387,-81.83098927294407,112.14182450973831,-127.0,90.3659908978072,-29.072289156626525,-21.045714285714276,-59.0,-39.86131386861314,-43.17999999999999,-3.067632850241559,-3.3597883597883635,-7.4705882352941195,25.757165844534747,427.37318984276266,18.409989409456326,419.6413822744257,40.93319832843071,1448.7573828279028,1
-14.261362516020895,-34.42293280039969,6.545672911948387,-81.83098927294407,112.14182450973831,-127.0,90.3659908978072,-22.951807228915676,-2.1771428571428473,-37.0,-39.86131386861314,-46.98999999999999,-27.608695652173925,-14.111111111111114,-9.605042016806724,25.038139091845427,247.98042007344733,18.409989409456326,419.6413822744257,40.93319832843071,1448.7573828279028,1
-14.261362516020895,-34.42293280039969,6.545672911948387,-81.83098927294407,112.14182450973831,-127.0,90.3659908978072,-16.831325301204835,3.6285714285714405,-39.0,-26.883211678832115,-93.97999999999999,-14.111111111111123,-12.767195767195771,-22.411764705882355,28.701647499099707,806.6489858079094,18.409989409456326,419.6413822744257,40.93319832843071,1448.7573828279028,1
-2.6168786355121707,5.234823882088442,1.7344725825269318,-79.1668653158523,111.56381768288603,-124.56502012440542,92.86710798510549,-16.831325301204835,3.6285714285714405,-39.0,-26.883211678832115,-93.97999999999999,-14.111111111111123,-12.767195767195771,-22.411764705882355,28.701647499099707,806.6489858079094,3.195391700042515,15.472658177994688,28.712053926822563,1912.3291090320097,1
-2.6168786355121707,5.234823882088442,1.7344725825269318,-79.1668653158523,111.56381768288603,-124.56502012440542,92.86710798510549,-7.650602409638569,25.400000000000013,19.0,47.277372262773724,95.25000000000001,32.516908212560374,19.486772486772484,11.739495798319327,32.290143896258066,800.8680551184154,3.195391700042515,15.472658177994688,28.712053926822563,1912.3291090320097,1
-2.6168786355121707,5.234823882088442,1.7344725825269318,-79.1668653158523,111.56381768288603,-124.56502012440542,92.86710798510549,32.13253012048191,32.65714285714287,-9.0,15.75912408759124,-3.80999999999999,-3.067632850241559,-7.391534391534396,7.470588235294116,13.911069067785759,144.93809474577122,3.195391700042515,15.472658177994688,28.712053926822563,1912.3291090320097,1
-7.875677807354821,21.66899825131152,-11.5834877496397,-71.4772348033373,110.76480824576669,-119.5277716794731,93.665784029789,32.13253012048191,32.65714285714287,-9.0,15.75912408759124,-3.80999999999999,-3.067632850241559,-7.391534391534396,7.470588235294116,13.911069067785759,144.93809474577122,13.709387936102013,332.06059387051596,34.90990693476284,1028.3064811056997,1
-7.875677807354821,21.66899825131152,-11.5834877496397,-71.4772348033373,110.76480824576669,-119.5277716794731,93.665784029789,-7.650602409638569,23.94857142857144,5.0,6.489051094890511,-6.34999999999999,6.748792270531387,11.42328042328042,5.336134453781511,9.118304010086728,39.83717061392367,13.709387936102013,332.06059387051596,34.90990693476284,1028.3064811056997,1
-7.875677807354821,21.66899825131152,-11.5834877496397,-71.4772348033373,110.76480824576669,-119.5277716794731,93.665784029789,38.25301204819275,51.5257142857143,33.0,0.9270072992700733,8.890000000000011,-9.202898550724651,14.111111111111107,24.546218487394956,22.556995222800982,300.41042552134223,13.709387936102013,332.06059387051596,34.90990693476284,1028.3064811056997,1
-19.01932367149758,23.63602298276294,-30.218173083522068,-63.42431466030996,110.23780202128373,-114.17453347969266,92.82507240380636,38.25301204819275,51.5257142857143,33.0,0.9270072992700733,8.890000000000011,-9.202898550724651,14.111111111111107,24.546218487394956,22.556995222800982,300.41042552134223,24.291173245927528,807.5278767157005,39.09283690886499,454.8467821640271,1
-19.01932367149758,23.63602298276294,-30.218173083522068,-63.42431466030996,110.23780202128373,-114.17453347969266,92.82507240380636,29.07228915662649,31.205714285714297,-9.0,23.175182481751825,31.75000000000001,-4.294685990338177,4.703703703703701,9.60504201680672,17.850827204367654,146.96513104879432,24.291173245927528,807.5278767157005,39.09283690886499,454.8467821640271,1
-19.01932367149758,23.63602298276294,-30.218173083522068,-63.42431466030996,110.23780202128373,-114.17453347969266,92.82507240380636,22.951807228915644,26.851428571428585,-39.0,-8.343065693430656,12.70000000000001,-6.748792270531414,3.3597883597883564,18.142857142857142,17.262217408368976,143.11512256769092,24.291173245927528,807.5278767157005,39.09283690886499,454.8467821640271,1
-34.57034407966084,41.212340744441676,-37.41754169240272,-49.61930870083438,108.38478013519847,-107.68744968898646,91.16466694249068,22.951807228915644,26.851428571428585,-39.0,-8.343065693430656,12.70000000000001,-6.748792270531414,3.3597883597883564,18.142857142857142,17.262217408368976,143.11512256769092,37.73340883883508,1988.9633775712055,42.749730379226264,38.99345469887013,1
-34.57034407966084,41.212340744441676,-37.41754169240272,-49.61930870083438,108.38478013519847,-107.68744968898646,91.16466694249068,4.590361445783116,5.080000000000011,-35.0,0.9270072992700733,-35.55999999999999,-25.154589371980688,-8.73544973544974,-9.605042016806724,15.581556233661294,199.4699834474277,37.73340883883508,1988.9633775712055,42.749730379226264,38.99345469887013,1
-34.57034407966084,41.212340744441676,-37.41754169240272,-49.61930870083438,108.38478013519847,-107.68744968898646,91.16466694249068,-7.650602409638569,31.205714285714297,9.0,-21.32116788321168,-11.429999999999989,-0.6135265700483226,2.0158730158730123,1.0672268907563014,10.538013881905272,116.53523724555797,37.73340883883508,1988.9633775712055,42.749730379226264,38.99345469887013,1
-44.161392093069104,64.62628028978267,-48.48678882712237,-31.51537544696066,105.66474800883475,-99.15572630808634,88.4743897393463,-7.650602409638569,31.205714285714297,9.0,-21.32116788321168,-11.429999999999989,-0.6135265700483226,2.0158730158730123,1.0672268907563014,10.538013881905272,116.53523724555797,52.42482040332472,4108.005520738565,48.20948152128856,274.1406793840051,1
-44.161392093069104,64.62628028978267,-48.48678882712237,-31.51537544696066,105.66474800883475,-99.15572630808634,88.4743897393463,13.77108433734938,34.10857142857144,-7.0,23.175182481751825,2.5400000000000102,-21.473429951690832,-4.703703703703708,7.470588235294116,14.280320017295164,121.88578348852603,52.42482040332472,4108.005520738565,48.20948152128856,274.1406793840051,1
-44.161392093069104,64.62628028978267,-48.48678882712237,-31.51537544696066,105.66474800883475,-99.15572630808634,88.4743897393463,56.61445783132528,84.90857142857143,47.0,2.781021897810219,24.13000000000001,5.521739130434769,8.735449735449732,22.41176470588235,31.51287559118422,839.7496540721668,52.42482040332472,4108.005520738565,48.20948152128856,274.1406793840051,1
-37.67553978112984,91.08593554833877,-69.28302793219409,-13.229797377830778,103.45472190616425,-86.77636297109404,83.68233347124534,56.61445783132528,84.90857142857143,47.0,2.781021897810219,24.13000000000001,5.521739130434769,8.735449735449732,22.41176470588235,31.51287559118422,839.7496540721668,66.01483442055424,7216.125880676916,57.86625361945454,1613.1516144873299,1
-37.67553978112984,91.08593554833877,-69.28302793219409,-13.229797377830778,103.45472190616425,-86.77636297109404,83.68233347124534,-1.530120481927728,13.788571428571439,-23.0,6.489051094890511,20.32000000000001,1.8405797101449135,-0.6719576719576756,-9.605042016806724,9.655665300537375,75.24532408586312,66.01483442055424,7216.125880676916,57.86625361945454,1613.1516144873299,1
-37.67553978112984,91.08593554833877,-69.28302793219409,-13.229797377830778,103.45472190616425,-86.77636297109404,83.68233347124534,-10.710843373493994,3.6285714285714405,-39.0,-52.83941605839416,-67.30999999999999,-11.657004830917888,0.6719576719576683,-7.4705882352941195,24.161047699828657,641.9465507815631,66.01483442055424,7216.125880676916,57.86625361945454,1613.1516144873299,1
-39.52864044168392,102.12665500874346,-83.92581154347677,5.600715137067937,100.73468977980056,-72.11072081961215,76.85155151013652,-10.710843373493994,3.6285714285714405,-39.0,-52.83941605839416,-67.30999999999999,-11.657004830917888,0.6719576719576683,-7.4705882352941195,24.161047699828657,641.9465507815631,75.19370233130138,9442.141973525793,63.88439389642938,2630.558083005116,1
-39.52864044168392,102.12665500874346,-83.92581154347677,5.600715137067937,100.73468977980056,-72.11072081961215,76.85155151013652,29.07228915662649,41.3657142857143,-1.0,-21.32116788321168,-27.93999999999999,-20.246376811594214,-2.0158730158730194,18.142857142857142,20.138034786984605,184.48219110611967,75.19370233130138,9442.141973525793,63.88439389642938,2630.558083005116,1
-39.52864044168392,102.12665500874346,-83.92581154347677,5.600715137067937,100.73468977980056,-72.11072081961215,76.85155151013652,7.650602409638537,10.885714285714297,-11.0,25.029197080291972,20.32000000000001,3.067632850241532,3.3597883597883564,5.336134453781511,10.831133679932027,64.00840355992703,75.19370233130138,9442.141973525793,63.88439389642938,2630.558083005116,1
-43.25988366361037,83.40819385460904,-100.71271704069727,24.31013110846243,97.35164982263572,-56.12535675082327,66.38469176665288,7.650602409638537,10.885714285714297,-11.0,25.029197080291972,20.32000000000001,3.067632850241532,3.3597883597883564,5.336134453781511,10.831133679932027,64.00840355992703,75.79359818630556,8874.356625689046,69.47701400125625,1604.8971133629793,1
-43.25988366361037,83.40819385460904,-100.71271704069727,24.31013110846243,97.35164982263572,-56.12535675082327,66.38469176665288,-4.590361445783149,6.531428571428581,-25.0,-28.73722627737226,-5.079999999999989,3.067632850241532,4.703703703703701,1.0672268907563014,9.84719746741069,113.90019155407641,75.79359818630556,8874.356625689046,69.47701400125625,1604.8971133629793,1
-43.25988366361037,83.40819385460904,-100.71271704069727,24.31013110846243,97.35164982263572,-56.12535675082327,66.38469176665288,1.5301204819276943,7.982857142857153,-13.0,15.75912408759124,5.080000000000011,-15.338164251207742,-7.391534391534396,-9.605042016806724,9.46085529649062,25.044614390626748,75.79359818630556,8874.356625689046,69.47701400125625,1604.8971133629793,1
-58.93611357586512,51.999250562078444,-117.77853270194221,45.078188319427795,91.91158556990831,-39.63812660080498,51.69325610260653,1.5301204819276943,7.982857142857153,-13.0,15.75912408759124,5.080000000000011,-15.338164251207742,-7.391534391534396,-9.605042016806724,9.46085529649062,25.044614390626748,76.23796561329526,7432.263499178638,71.61865719448282,1610.0258557897735,1
-58.93611357586512,51.999250562078444,-117.77853270194221,45.078188319427795,91.91158556990831,-39.63812660080498,51.69325610260653,13.77108433734938,23.94857142857144,-11.0,13.905109489051094,13.97000000000001,-1.840579710144941,-2.0158730158730194,7.470588235294116,10.9902257770355,52.81006748905562,76.23796561329526,7432.263499178638,71.61865719448282,1610.0258557897735,1
-58.93611357586512,51.999250562078444,-117.77853270194221,45.078188319427795,91.91158556990831,-39.63812660080498,51.69325610260653,4.590361445783116,21.045714285714297,-11.0,19.467153284671532,29.21000000000001,-5.521739130434796,2.0158730158730123,3.2016806722689064,12.00656522934321,101.24727176054894,76.23796561329526,7432.263499178638,71.61865719448282,1610.0258557897735,1
-86.75766538499457,34.35948038970773,-124.55953606478622,68.9947556615017,82.79947794658995,-23.541236736187344,35.25734381464625,4.590361445783116,21.045714285714297,-11.0,19.467153284671532,29.21000000000001,-5.521739130434796,2.0158730158730123,3.2016806722689064,12.00656522934321,101.24727176054894,81.8922272798295,6892.266369727649,75.97125737199855,2070.5161930342388,1
-86.75766538499457,34.35948038970773,-124.55953606478622,68.9947556615017,82.79947794658995,-23.541236736187344,35.25734381464625,7.650602409638537,21.045714285714297,-15.0,-0.9270072992700726,11.43000000000001,-3.067632850241559,0.6719576719576683,1.0672268907563014,7.607517675947306,57.99490281335967,81.8922272798295,6892.266369727649,75.97125737199855,2070.5161930342388,1
-86.75766538499457,34.35948038970773,-124.55953606478622,68.9947556615017,82.79947794658995,-23.541236736187344,35.25734381464625,4.590361445783116,10.885714285714297,-17.0,12.05109489051095,31.75000000000001,14.111111111111097,8.735449735449732,20.277310924369747,14.925130299117367,69.48376334320604,81.8922272798295,6892.266369727649,75.97125737199855,2070.5161930342388,1
-110.97318347628907,25.66650012490632,-124.10630704824652,92.54803337306316,70.8653369921692,-9.191584339553607,19.662143152668595,4.590361445783116,10.885714285714297,-17.0,12.05109489051095,31.75000000000001,14.111111111111097,8.735449735449732,20.277310924369747,14.925130299117367,69.48376334320604,86.91533021648063,6879.129306319585,80.77361351540533,2526.5766190144295,1
-110.97318347628907,25.66650012490632,-124.10630704824652,92.54803337306316,70.8653369921692,-9.191584339553607,19.662143152668595,41.31325301204817,63.13714285714287,25.0,-17.613138686131386,-10.15999999999999,-0.6135265700483226,3.3597883597883564,20.277310924369747,22.684270051191106,433.96528656186223,86.91533021648063,6879.129306319585,80.77361351540533,2526.5766190144295,1
-110.97318347628907,25.66650012490632,-124.10630704824652,92.54803337306316,70.8653369921692,-9.191584339553607,19.662143152668595,-4.590361445783149,6.531428571428581,-19.0,15.75912408759124,16.510000000000012,1.8405797101449135,0.6719576719576683,5.336134453781511,8.779948242585885,51.61067599227759,86.91533021648063,6879.129306319585,80.77361351540533,2526.5766190144295,1
-106.26530612244898,22.240069947539354,-126.32015647519044,109.44100119189511,58.37018941168597,4.97219173069886,3.3943731899048366,-4.590361445783149,6.531428571428581,-19.0,15.75912408759124,16.510000000000012,1.8405797101449135,0.6719576719576683,5.336134453781511,8.779948242585885,51.61067599227759,84.94184418172625,6497.661596055455,86.00040920487497,3120.262117427299,1
-106.26530612244898,22.240069947539354,-126.32015647519044,109.44100119189511,58.37018941168597,4.97219173069886,3.3943731899048366,-4.590361445783149,6.531428571428581,-27.0,8.343065693430656,7.62000000000001,-3.067632850241559,4.703703703703701,3.2016806722689064,8.132234117107071,61.87460394732591,84.94184418172625,6497.661596055455,86.00040920487497,3120.262117427299,1
-106.26530612244898,22.240069947539354,-126.32015647519044,109.44100119189511,58.37018941168597,4.97219173069886,3.3943731899048366,19.891566265060224,32.65714285714287,3.0,13.905109489051094,15.24000000000001,-0.6135265700483226,15.455026455026452,13.873949579831931,14.329540152020112,97.97257496374391,84.94184418172625,6497.661596055455,86.00040920487497,3120.262117427299,1
-106.96647934536134,27.25281039220586,-127.0,120.70297973778304,44.821029382236816,19.061617270398827,-12.768307819611092,19.891566265060224,32.65714285714287,3.0,13.905109489051094,15.24000000000001,-0.6135265700483226,15.455026455026452,13.873949579831931,14.329540152020112,97.97257496374391,87.07309657918906,7035.014866895109,91.65193004332963,3120.3480749255095,1
-106.96647934536134,27.25281039220586,-127.0,120.70297973778304,44.821029382236816,19.061617270398827,-12.768307819611092,-4.590361445783149,9.434285714285725,-33.0,-12.051094890510948,-22.85999999999999,-9.202898550724651,0.6719576719576683,-1.067226890756304,11.609728145502304,124.9833134837494,87.07309657918906,7035.014866895109,91.65193004332963,3120.3480749255095,1
-106.96647934536134,27.25281039220586,-127.0,120.70297973778304,44.821029382236816,19.061617270398827,-12.768307819611092,-1.530120481927728,10.885714285714297,-23.0,-10.197080291970803,-17.77999999999999,-15.338164251207742,-6.047619047619051,-3.2016806722689086,10.997547378838565,54.92346310732262,87.07309657918906,7035.014866895109,91.65193004332963,3120.3480749255095,1
-108.19353248545795,38.99150637022234,-122.25852721158465,126.33396901072706,30.540860718827403,32.83505305525064,-27.522796855606124,-1.530120481927728,10.885714285714297,-23.0,-10.197080291970803,-17.77999999999999,-15.338164251207742,-6.047619047619051,-3.2016806722689086,10.997547378838565,54.92346310732262,89.81452202242166,7977.13884495466,95.86133419751134,2429.785294293671,1
-108.19353248545795,38.99150637022234,-122.25852721158465,126.33396901072706,30.540860718827403,32.83505305525064,-27.522796855606124,16.831325301204803,23.94857142857144,-11.0,4.635036496350365,12.70000000000001,-3.067632850241559,7.391534391534388,9.60504201680672,11.147392810588661,46.11260007258495,89.81452202242166,7977.13884495466,95.86133419751134,2429.785294293671,1
-108.19353248545795,38.99150637022234,-122.25852721158465,126.33396901072706,30.540860718827403,32.83505305525064,-27.522796855606124,7.650602409638537,21.045714285714297,-15.0,-6.4890510948905105,-8.88999999999999,-6.748792270531414,0.6719576719576683,5.336134453781511,8.97903152331424,39.58309849964856,89.81452202242166,7977.13884495466,95.86133419751134,2429.785294293671,1
-110.74780636892437,45.90781913564827,-116.73261958685059,127.0,15.512683220667967,46.05085986095865,-40.827058336781135,7.650602409638537,21.045714285714297,-15.0,-6.4890510948905105,-8.88999999999999,-6.748792270531414,0.6719576719576683,5.336134453781511,8.97903152331424,39.58309849964856,91.12941503047442,8504.785883221548,96.54681290749961,1949.585542806281,1
-110.74780636892437,45.90781913564827,-116.73261958685059,127.0,15.512683220667967,46.05085986095865,-40.827058336781135,-1.530120481927728,15.24000000000001,-13.0,0.9270072992700733,-15.239999999999991,-15.338164251207742,-6.047619047619051,-9.605042016806724,9.615994137103915,37.295268021479195,91.12941503047442,8504.785883221548,96.54681290749961,1949.585542806281,1
-110.74780636892437,45.90781913564827,-116.73261958685059,127.0,15.512683220667967,46.05085986095865,-40.827058336781135,-4.590361445783149,0.7257142857142966,-25.0,-2.7810218978102186,-1.2699999999999898,-10.42995169082127,0.6719576719576683,-1.067226890756304,5.8170292353553625,70.80240312083025,91.12941503047442,8504.785883221548,96.54681290749961,1949.585542806281,1
-117.05836537513555,42.86210342243318,-115.2509093404708,123.42765196662685,-0.8415099390937542,58.653274789608474,-53.33264377327265,-4.590361445783149,0.7257142857142966,-25.0,-2.7810218978102186,-1.2699999999999898,-10.42995169082127,0.6719576719576683,-1.067226890756304,5.8170292353553625,70.80240312083025,91.72379271267984,8429.591340452274,93.84688824317693,1966.3009924067571,1
-117.05836537513555,42.86210342243318,-115.2509093404708,123.42765196662685,-0.8415099390937542,58.653274789608474,-53.33264377327265,4.590361445783116,15.24000000000001,-17.0,4.635036496350365,-2.53999999999999,-6.748792270531414,2.0158730158730123,7.470588235294116,7.530081432979003,31.72382859075652,91.72379271267984,8429.591340452274,93.84688824317693,1966.3009924067571,1
-117.05836537513555,42.86210342243318,-115.2509093404708,123.42765196662685,-0.8415099390937542,58.653274789608474,-53.33264377327265,13.77108433734938,16.69142857142858,-21.0,-25.02919708029197,-7.61999999999999,-9.202898550724651,0.6719576719576683,5.336134453781511,12.415337583191718,67.75228562647887,91.72379271267984,8429.591340452274,93.84688824317693,1966.3009924067571,1
-118.68608892832495,30.044716462653014,-112.11316999519593,115.73802145411196,-17.943711933605506,69.89879253567507,-65.06057095573024,13.77108433734938,16.69142857142858,-21.0,-25.02919708029197,-7.61999999999999,-9.202898550724651,0.6719576719576683,5.336134453781511,12.415337583191718,67.75228562647887,86.9479917953913,7062.153402952185,85.96530263732029,2348.618855613594,1
-118.68608892832495,30.044716462653014,-112.11316999519593,115.73802145411196,-17.943711933605506,69.89879253567507,-65.06057095573024,-1.530120481927728,16.69142857142858,-21.0,4.635036496350365,10.16000000000001,6.748792270531387,-0.6719576719576756,-11.739495798319329,9.147103911314385,51.58737512488543,86.9479917953913,7062.153402952185,85.96530263732029,2348.618855613594,1
-118.68608892832495,30.044716462653014,-112.11316999519593,115.73802145411196,-17.943711933605506,69.89879253567507,-65.06057095573024,7.650602409638537,22.49714285714287,-11.0,-0.9270072992700726,-5.079999999999989,-4.294685990338177,0.6719576719576683,5.336134453781511,7.182191335266103,49.57401475204761,86.9479917953913,7062.153402952185,85.96530263732029,2348.618855613594,1
-118.26037661441387,19.511616287784165,-105.68080433738247,104.29439809296775,-35.062914128907025,79.7688254665203,-75.33827058336782,7.650602409638537,22.49714285714287,-11.0,-0.9270072992700726,-5.079999999999989,-4.294685990338177,0.6719576719576683,5.336134453781511,7.182191335266103,49.57401475204761,81.1509324131935,5802.0849748175015,76.49560623937812,2435.8618636711594,1
-118.26037661441387,19.511616287784165,-105.68080433738247,104.29439809296775,-35.062914128907025,79.7688254665203,-75.33827058336782,7.650602409638537,19.594285714285725,-13.0,0.9270072992700733,-1.2699999999999898,-7.9758454106280325,3.3597883597883564,9.60504201680672,7.92282140130218,39.84718867747172,81.1509324131935,5802.0849748175015,76.49560623937812,2435.8618636711594,1
-118.26037661441387,19.511616287784165,-105.68080433738247,104.29439809296775,-35.062914128907025,79.7688254665203,-75.33827058336782,1.5301204819276943,18.142857142857153,-19.0,-21.32116788321168,-26.66999999999999,-11.657004830917888,4.703703703703701,16.008403361344534,14.87915717549533,71.65009374492381,81.1509324131935,5802.0849748175015,76.49560623937812,2435.8618636711594,1
-124.27043281080547,19.321259055708225,-98.30711687598655,89.27842669845052,-52.70912254869151,89.09981705085985,-83.47215556474968,1.5301204819276943,18.142857142857153,-19.0,-21.32116788321168,-26.66999999999999,-11.657004830917888,4.703703703703701,16.008403361344534,14.87915717549533,71.65009374492381,80.63293624750008,5854.850428624525,68.96893421004843,1869.0480477536512,1
-124.27043281080547,19.321259055708225,-98.30711687598655,89.27842669845052,-52.70912254869151,89.09981705085985,-83.47215556474968,-1.530120481927728,16.69142857142858,-17.0,-21.32116788321168,-7.61999999999999,9.202898550724623,12.767195767195764,7.470588235294116,11.70042493622281,41.55806070244048,80.63293624750008,5854.850428624525,68.96893421004843,1869.0480477536512,1
-124.27043281080547,19.321259055708225,-98.30711687598655,89.27842669845052,-52.70912254869151,89.09981705085985,-83.47215556474968,10.710843373493958,21.045714285714297,-11.0,-0.9270072992700726,-27.93999999999999,-33.74396135265702,-20.830687830687836,-7.4705882352941195,16.70860029713966,122.15868269060353,80.63293624750008,5854.850428624525,68.96893421004843,1869.0480477536512,1
-127.0,23.63602298276294,-88.56269302038295,70.62955899880808,-70.30433036610668,98.02188071716063,-89.33611915597848,10.710843373493958,21.045714285714297,-11.0,-0.9270072992700726,-27.93999999999999,-33.74396135265702,-20.830687830687836,-7.4705882352941195,16.70860029713966,122.15868269060353,79.73290533438195,6126.198310110565,60.94275833398465,1124.2437008835136,1
-127.0,23.63602298276294,-88.56269302038295,70.62955899880808,-70.30433036610668,98.02188071716063,-89.33611915597848,4.590361445783116,21.045714285714297,-19.0,-0.9270072992700726,1.2700000000000102,-10.42995169082127,-6.047619047619051,-1.067226890756304,8.047235082495515,65.12833891464597,79.73290533438195,6126.198310110565,60.94275833398465,1124.2437008835136,1
-127.0,23.63602298276294,-88.56269302038295,70.62955899880808,-70.30433036610668,98.02188071716063,-89.33611915597848,-7.650602409638569,7.982857142857153,-7.0,26.883211678832115,27.940000000000012,20.24637681159419,26.206349206349202,24.546218487394956,18.556951967083272,88.41857426379298,79.73290533438195,6126.198310110565,60.94275833398465,1124.2437008835136,1
-116.3822340530415,17.86185360979266,-81.64223457552673,48.89272943980927,-86.67552372665818,105.6985729967069,-94.33835333057509,-7.650602409638569,7.982857142857153,-7.0,26.883211678832115,27.940000000000012,20.24637681159419,26.206349206349202,24.546218487394956,18.556951967083272,88.41857426379298,71.96210741278696,4854.901033619374,49.46560587504289,1017.2303895910777,1
-116.3822340530415,17.86185360979266,-81.64223457552673,48.89272943980927,-86.67552372665818,105.6985729967069,-94.33835333057509,10.710843373493958,23.94857142857144,1.0,23.175182481751825,57.15000000000001,-3.067632850241559,-12.767195767195771,18.142857142857142,18.745285380513963,311.85099352800387,71.96210741278696,4854.901033619374,49.46560587504289,1017.2303895910777,1
-116.3822340530415,17.86185360979266,-81.64223457552673,48.89272943980927,-86.67552372665818,105.6985729967069,-94.33835333057509,4.590361445783116,19.594285714285725,-29.0,-13.905109489051094,-57.14999999999999,-65.64734299516908,-57.11640211640212,24.546218487394956,33.94371503101076,523.2070821408021,71.96210741278696,4854.901033619374,49.46560587504289,1017.2303895910777,1
-94.24519372966577,-1.110417187109661,-77.37142268890261,26.066030989272917,-101.00669299243691,111.25627515550676,-99.84501448076128,4.590361445783116,19.594285714285725,-29.0,-13.905109489051094,-57.14999999999999,-65.64734299516908,-57.11640211640212,24.546218487394956,33.94371503101076,523.2070821408021,57.57567786855935,2462.4252851520755,34.8492902884284,1511.7944729732744,1
-94.24519372966577,-1.110417187109661,-77.37142268890261,26.066030989272917,-101.00669299243691,111.25627515550676,-99.84501448076128,38.25301204819275,44.26857142857144,7.0,38.00729927007299,59.69000000000001,57.057971014492736,20.83068783068783,84.3109243697479,43.67730824522071,573.6648257682876,57.57567786855935,2462.4252851520755,34.8492902884284,1511.7944729732744,1
-94.24519372966577,-1.110417187109661,-77.37142268890261,26.066030989272917,-101.00669299243691,111.25627515550676,-99.84501448076128,22.951807228915644,32.65714285714287,15.0,-10.197080291970803,22.86000000000001,106.14009661835746,124.31216931216932,92.84873949579831,53.37087947554431,2142.4788926302513,57.57567786855935,2462.4252851520755,34.8492902884284,1511.7944729732744,1
-54.17815242038844,2.50637022233326,-66.92972342323793,6.44839094159704,-109.89779800548826,114.1373582144164,-106.40256516342573,22.951807228915644,32.65714285714287,15.0,-10.197080291970803,22.86000000000001,106.14009661835746,124.31216931216932,92.84873949579831,53.37087947554431,2142.4788926302513,41.20474868865321,1366.1847951717455,25.294828195722744,1303.9832572924015,1
-54.17815242038844,2.50637022233326,-66.92972342323793,6.44839094159704,-109.89779800548826,114.1373582144164,-106.40256516342573,10.710843373493958,38.46285714285715,21.0,71.37956204379562,118.11000000000001,126.99999999999999,127.0,30.949579831932773,68.07660529900994,2460.087214629014,41.20474868865321,1366.1847951717455,25.294828195722744,1303.9832572924015,1
-54.17815242038844,2.50637022233326,-66.92972342323793,6.44839094159704,-109.89779800548826,114.1373582144164,-106.40256516342573,-19.891566265060256,21.045714285714297,-17.0,-23.175182481751825,-62.22999999999999,-9.202898550724651,-42.333333333333336,-88.5798319327731,35.43231585616968,745.2653577098687,41.20474868865321,1366.1847951717455,25.294828195722744,1303.9832572924015,1
-53.076308784383315,7.963277541843624,-63.44334637293254,-14.13802145411205,-118.2108961916873,116.94409074277351,-112.30856433595366,-19.891566265060256,21.045714285714297,-17.0,-23.175182481751825,-62.22999999999999,-9.202898550724651,-42.333333333333336,-88.5798319327731,35.43231585616968,745.2653577098687,41.49431089971983,1488.7020843575976,28.514881789629403,924.5300942058202,1
-53.076308784383315,7.963277541843624,-63.44334637293254,-14.13802145411205,-118.2108961916873,116.94409074277351,-112.30856433595366,-1.530120481927728,-6.531428571428563,-29.0,13.905109489051094,-2.53999999999999,-26.381642512077306,43.67724867724868,13.873949579831931,17.17993741394566,217.25458457023598,41.49431089971983,1488.7020843575976,28.514881789629403,924.5300942058202,1
-53.076308784383315,7.963277541843624,-63.44334637293254,-14.13802145411205,-118.2108961916873,116.94409074277351,-112.30856433595366,1.5301204819276943,5.080000000000011,-39.0,-60.25547445255474,-45.71999999999999,-123.31884057971014,-75.93121693121694,-77.90756302521008,53.59290193382745,1619.3242416839275,41.49431089971983,1488.7020843575976,28.514881789629403,924.5300942058202,1
-57.608892832495314,58.1541343992006,-66.31960743943449,-41.929678188319485,-126.21799076367043,121.46088547383826,-118.44575920562681,1.5301204819276943,5.080000000000011,-39.0,-60.25547445255474,-45.71999999999999,-123.31884057971014,-75.93121693121694,-77.90756302521008,53.59290193382745,1619.3242416839275,60.69421155704347,4828.444571686849,55.467806675651524,154.12942969733012,1
-57.608892832495314,58.1541343992006,-66.31960743943449,-41.929678188319485,-126.21799076367043,121.46088547383826,-118.44575920562681,1.5301204819276943,13.788571428571439,-29.0,-12.051094890510948,-22.85999999999999,-69.32850241545894,-88.02645502645504,-35.21848739495798,33.975403954735256,894.584250539176,60.69421155704347,4828.444571686849,55.467806675651524,154.12942969733012,1
-57.608892832495314,58.1541343992006,-66.31960743943449,-41.929678188319485,-126.21799076367043,121.46088547383826,-118.44575920562681,-4.590361445783149,15.24000000000001,-27.0,-2.7810218978102186,55.88000000000001,-12.884057971014505,-35.61375661375662,-7.4705882352941195,20.18247327045733,334.8754258604154,60.69421155704347,4828.444571686849,55.467806675651524,154.12942969733012,1
-14.36153011929409,80.36247814139396,-35.50003431473475,-62.152800953516135,-127.0,125.25276253201608,-123.76326023996691,-4.590361445783149,15.24000000000001,-27.0,-2.7810218978102186,55.88000000000001,-12.884057971014505,-35.61375661375662,-7.4705882352941195,20.18247327045733,334.8754258604154,43.4080141918076,3807.265982206356,59.33843780321496,509.10019648136836,1
-14.36153011929409,80.36247814139396,-35.50003431473475,-62.152800953516135,-127.0,125.25276253201608,-123.76326023996691,-29.072289156626525,19.594285714285725,-11.0,-63.96350364963503,-19.04999999999999,-31.28985507246378,-34.26984126984127,-33.08403361344538,30.165476059537212,253.24987037997494,43.4080141918076,3807.265982206356,59.33843780321496,509.10019648136836,1
-14.36153011929409,80.36247814139396,-35.50003431473475,-62.152800953516135,-127.0,125.25276253201608,-123.76326023996691,-1.530120481927728,22.49714285714287,-17.0,19.467153284671532,58.42000000000001,19.01932367149757,0.6719576719576683,-18.142857142857142,19.593569388756812,315.630705233828,43.4080141918076,3807.265982206356,59.33843780321496,509.10019648136836,1
-4.795524006704126,15.323757182113418,-9.352206437444243,-68.81311084624554,-125.55498293286928,127.0,-125.38163011998344,-1.530120481927728,22.49714285714287,-17.0,19.467153284671532,58.42000000000001,19.01932367149757,0.6719576719576683,-18.142857142857142,19.593569388756812,315.630705233828,9.82382920875393,172.4086684805094,31.163024821934396,1072.0615878025612,1
-4.795524006704126,15.323757182113418,-9.352206437444243,-68.81311084624554,-125.55498293286928,127.0,-125.38163011998344,-4.590361445783149,13.788571428571439,-21.0,-8.343065693430656,-20.31999999999999,-32.516908212560395,-65.17989417989419,-69.36974789915966,29.388568607424936,620.4473422373311,9.82382920875393,172.4086684805094,31.163024821934396,1072.0615878025612,1
-4.795524006704126,15.323757182113418,-9.352206437444243,-68.81311084624554,-125.55498293286928,127.0,-125.38163011998344,-1.530120481927728,21.045714285714297,-1.0,34.2992700729927,34.29000000000001,1.8405797101449135,4.703703703703701,-11.739495798319329,13.806110506600334,205.28088732313375,9.82382920875393,172.4086684805094,31.163024821934396,1072.0615878025612,1
17.867396233855867,-17.29078191356482,4.122640861986133,-67.17830750893927,-121.54293554648282,126.75836077570435,-126.76880430285479,-1.530120481927728,21.045714285714297,-1.0,34.2992700729927,34.29000000000001,1.8405797101449135,4.703703703703701,-11.739495798319329,13.806110506600334,205.28088732313375,13.09360633646894,313.92507764046604,29.530576761496736,1106.3637075125152,1
17.867396233855867,-17.29078191356482,4.122640861986133,-67.17830750893927,-121.54293554648282,126.75836077570435,-126.76880430285479,47.43373493975902,32.65714285714287,1.0,23.175182481751825,36.83000000000001,63.193236714975825,116.24867724867725,90.71428571428571,51.406532494574066,1400.8793241856026,13.09360633646894,313.92507764046604,29.530576761496736,1106.3637075125152,1
17.867396233855867,-17.29078191356482,4.122640861986133,-67.17830750893927,-121.54293554648282,126.75836077570435,-126.76880430285479,-1.530120481927728,22.49714285714287,-11.0,4.635036496350365,-81.27999999999999,-73.0096618357488,-26.20634920634921,-58.69747899159664,34.85697373363945,999.9847465528294,13.09360633646894,313.92507764046604,29.530576761496736,1106.3637075125152,1
40.25485556541458,-56.18710966774918,26.13911193466474,-56.70345649582839,-115.03185864399973,124.62078302231978,-127.0,-1.530120481927728,22.49714285714287,-11.0,4.635036496350365,-81.27999999999999,-73.0096618357488,-26.20634920634921,-58.69747899159664,34.85697373363945,999.9847465528294,40.86035905594283,2712.985606602265,46.34322603274743,306.2213233779749,1
40.25485556541458,-56.18710966774918,26.13911193466474,-56.70345649582839,-115.03185864399973,124.62078302231978,-127.0,13.77108433734938,21.045714285714297,-7.0,0.9270072992700733,1.021405182655144e-14,1.8405797101449135,-14.111111111111114,-1.067226890756304,7.470340454293261,62.80378111809695,40.86035905594283,2712.985606602265,46.34322603274743,306.2213233779749,1
40.25485556541458,-56.18710966774918,26.13911193466474,-56.70345649582839,-115.03185864399973,124.62078302231978,-127.0,-4.590361445783149,19.594285714285725,-15.0,10.197080291970803,-2.53999999999999,3.067632850241532,-2.0158730158730194,9.60504201680672,8.326284416870116,41.650621039515514,40.86035905594283,2712.985606602265,46.34322603274743,306.2213233779749,1
27.358276643990934,-89.30926804896328,46.56928144945439,-38.53897497020262,-107.92577471387457,122.37167947310647,-122.56524617294167,-4.590361445783149,19.594285714285725,-15.0,10.197080291970803,-2.53999999999999,3.067632850241532,-2.0158730158730194,9.60504201680672,8.326284416870116,41.650621039515514,54.41227538080287,5407.226484018657,58.13917482287343,744.8024893300275,1
27.358276643990934,-89.30926804896328,46.56928144945439,-38.53897497020262,-107.92577471387457,122.37167947310647,-122.56524617294167,29.07228915662649,60.234285714285726,-25.0,-26.883211678832115,-25.39999999999999,-28.835748792270543,-18.142857142857146,-1.067226890756304,26.82945242195354,267.0686787634374,54.41227538080287,5407.226484018657,58.13917482287343,744.8024893300275,1
27.358276643990934,-89.30926804896328,46.56928144945439,-38.53897497020262,-107.92577471387457,122.37167947310647,-122.56524617294167,13.77108433734938,19.594285714285725,-5.0,-0.9270072992700726,17.780000000000012,19.01932367149757,11.42328042328042,26.68067226890756,14.274456714323843,69.93855776720766,54.41227538080287,5407.226484018657,58.13917482287343,744.8024893300275,1
25.104505570344088,-113.35773170122408,66.31960743943449,-14.380214541120381,-99.44267451977778,119.50918404683497,-114.5995035167563,13.77108433734938,19.594285714285725,-5.0,-0.9270072992700726,17.780000000000012,19.01932367149757,11.42328042328042,26.68067226890756,14.274456714323843,69.93855776720766,68.26061490366756,8859.070328832462,64.68585122725965,2451.139095315271,1
25.104505570344088,-113.35773170122408,66.31960743943449,-14.380214541120381,-99.44267451977778,119.50918404683497,-114.5995035167563,1.5301204819276943,7.982857142857153,-13.0,-13.905109489051094,-35.55999999999999,-38.65217391304349,-2.0158730158730194,13.873949579831931,15.815010452823046,197.50818156225196,68.26061490366756,8859.070328832462,64.68585122725965,2451.139095315271,1
25.104505570344088,-113.35773170122408,66.31960743943449,-14.380214541120381,-99.44267451977778,119.50918404683497,-114.5995035167563,1.5301204819276943,7.982857142857153,-13.0,-13.905109489051094,-35.55999999999999,-38.65217391304349,-2.0158730158730194,13.873949579831931,15.815010452823046,197.50818156225196,68.26061490366756,8859.070328832462,64.68585122725965,2451.139095315271,1
25.104505570344088,-113.35773170122408,66.31960743943449,-14.380214541120381,-99.44267451977778,119.50918404683497,-114.5995035167563,22.951807228915644,35.56000000000002,-1.0,45.42335766423358,88.9,20.24637681159419,18.14285714285714,35.21848739495798,33.430360780319816,685.357027862775,68.26061490366756,8859.070328832462,64.68585122725965,2451.139095315271,1
42.05787242433206,-127.0,82.28721432983322,13.16924910607861,-88.12054079378889,115.1225027442371,-105.16251551510136,22.951807228915644,35.56000000000002,-1.0,45.42335766423358,88.9,20.24637681159419,18.14285714285714,35.21848739495798,33.430360780319816,685.357027862775,83.78169558472176,12333.350376788832,74.15215447863727,3288.9943613554015,1
42.05787242433206,-127.0,82.28721432983322,13.16924910607861,-88.12054079378889,115.1225027442371,-105.16251551510136,-22.951807228915676,0.7257142857142966,-39.0,-56.54744525547445,-26.66999999999999,-12.884057971014505,-10.079365079365083,-13.873949579831933,22.841542425039492,320.48644650384983,83.78169558472176,12333.350376788832,74.15215447863727,3288.9943613554015,1
42.05787242433206,-127.0,82.28721432983322,13.16924910607861,-88.12054079378889,115.1225027442371,-105.16251551510136,13.77108433734938,13.788571428571439,1.0,-4.635036496350365,24.13000000000001,-12.884057971014505,-73.24338624338625,-28.81512605042017,21.533407815886516,519.4158256239107,83.78169558472176,12333.350376788832,74.15215447863727,3288.9943613554015,1
66.42364192053634,-125.9847614289283,93.54821220231968,40.415971394517214,-73.53436851616357,108.95140870837906,-95.5573851882499,13.77108433734938,13.788571428571439,1.0,-4.635036496350365,24.13000000000001,-12.884057971014505,-73.24338624338625,-28.81512605042017,21.533407815886516,519.4158256239107,95.31887185059476,14325.243750639982,86.64964834192172,1866.197094490274,1
66.42364192053634,-125.9847614289283,93.54821220231968,40.415971394517214,-73.53436851616357,108.95140870837906,-95.5573851882499,4.590361445783116,12.337142857142869,-27.0,-4.635036496350365,-15.239999999999991,-22.70048309178745,-26.20634920634921,-5.336134453781513,14.755688443899313,92.10484943001067,95.31887185059476,14325.243750639982,86.64964834192172,1866.197094490274,1
66.42364192053634,-125.9847614289283,93.54821220231968,40.415971394517214,-73.53436851616357,108.95140870837906,-95.5573851882499,13.77108433734938,21.045714285714297,-19.0,6.489051094890511,1.2700000000000102,23.92753623188404,49.05291005291005,65.10084033613445,24.957142042360346,467.32120194455496,95.31887185059476,14325.243750639982,86.64964834192172,1866.197094490274,1
101.4071773636991,-123.76392705470896,100.52096630293047,64.81692491060778,-54.919148651362015,100.14087083790704,-86.94009102192801,13.77108433734938,21.045714285714297,-19.0,6.489051094890511,1.2700000000000102,23.92753623188404,49.05291005291005,65.10084033613445,24.957142042360346,467.32120194455496,108.5640235737795,16834.420837249592,96.36727275608241,881.6271430050126,1
101.4071773636991,-123.76392705470896,100.52096630293047,64.81692491060778,-54.919148651362015,100.14087083790704,-86.94009102192801,19.891566265060224,23.94857142857144,-9.0,-32.44525547445255,-40.63999999999999,-38.65217391304349,-42.333333333333336,-13.873949579831933,27.598106249286623,162.83672466183523,108.5640235737795,16834.420837249592,96.36727275608241,881.6271430050126,1
101.4071773636991,-123.76392705470896,100.52096630293047,64.81692491060778,-54.919148651362015,100.14087083790704,-86.94009102192801,26.01204819277107,22.49714285714287,-3.0,8.343065693430656,-1.2699999999999898,4.2946859903381505,35.613756613756614,39.48739495798319,17.56476178817782,234.40560402092024,108.5640235737795,16834.420837249592,96.36727275608241,881.6271430050126,1
114.15350488021296,-107.39320509617787,102.2815867133347,82.98140643623356,-34.48490730205474,90.06637394804244,-77.90244104261481,26.01204819277107,22.49714285714287,-3.0,8.343065693430656,-1.2699999999999898,4.2946859903381505,35.613756613756614,39.48739495798319,17.56476178817782,234.40560402092024,107.94276556324185,15531.234243781091,97.55206608191537,165.7602525056805,1
114.15350488021296,-107.39320509617787,102.2815867133347,82.98140643623356,-34.48490730205474,90.06637394804244,-77.90244104261481,-22.951807228915676,-12.337142857142851,-17.0,21.32116788321168,5.080000000000011,41.1062801932367,19.486772486772484,35.21848739495798,21.812707255529673,135.97685628519864,107.94276556324185,15531.234243781091,97.55206608191537,165.7602525056805,1
114.15350488021296,-107.39320509617787,102.2815867133347,82.98140643623356,-34.48490730205474,90.06637394804244,-77.90244104261481,13.77108433734938,38.46285714285715,-1.0,-30.59124087591241,-60.959999999999994,-19.019323671497595,-14.111111111111114,-35.21848739495798,26.641763066710702,349.27306163206333,107.94276556324185,15531.234243781091,97.55206608191537,165.7602525056805,1
127.00000000000001,-93.62403197601799,101.27053736874613,93.15351609058393,-12.605648885616745,78.6535675082327,-68.67563094745553,13.77108433734938,38.46285714285715,-1.0,-30.59124087591241,-60.959999999999994,-19.019323671497595,-14.111111111111114,-35.21848739495798,26.641763066710702,349.27306163206333,107.29818978158805,14553.476982121527,96.01602847844936,20.76274405826738,1
127.00000000000001,-93.62403197601799,101.27053736874613,93.15351609058393,-12.605648885616745,78.6535675082327,-68.67563094745553,-68.85542168674701,-38.46285714285713,-41.0,-8.343065693430656,-2.53999999999999,-26.381642512077306,23.518518518518515,11.739495798319327,27.605125168993744,466.8718388842417,107.29818978158805,14553.476982121527,96.01602847844936,20.76274405826738,1
127.00000000000001,-93.62403197601799,101.27053736874613,93.15351609058393,-12.605648885616745,78.6535675082327,-68.67563094745553,19.891566265060224,38.46285714285715,17.0,2.781021897810219,24.13000000000001,-16.56521739130436,2.0158730158730123,-11.739495798319329,16.573253938903036,138.9943906734791,107.29818978158805,14553.476982121527,96.01602847844936,20.76274405826738,1
122.36724834861481,-72.1771171621284,103.29263605792326,95.57544696066748,9.069607121343964,67.03629710940358,-57.36805957798924,19.891566265060224,38.46285714285715,17.0,2.781021897810219,24.13000000000001,-16.56521739130436,2.0158730158730123,-11.739495798319329,16.573253938903036,138.9943906734791,99.27900052288881,11500.164213520613,90.34840006023971,262.5353935130954,1
122.36724834861481,-72.1771171621284,103.29263605792326,95.57544696066748,9.069607121343964,67.03629710940358,-57.36805957798924,26.01204819277107,42.81714285714287,-17.0,21.32116788321168,48.26000000000001,-3.067632850241559,-39.64550264550265,-54.42857142857143,31.569008232180156,307.6259380717137,99.27900052288881,11500.164213520613,90.34840006023971,262.5353935130954,1
