Gyro 0,Gyro 1,Gyro 2,Orientation 0,Orientation 1,Orientation 2,Orientation 3,Sensor 0,Sensor 1,Sensor 2,Sensor 3,Sensor 4,Sensor 5,Sensor 6,Sensor 7,Sensor Mean,Sensor Variance,Gyro Mean,Gyro Variance,Orientation Mean,Orientation Variance,Label
-23.202910266774463,5.681504562653016,-12.0956533681247,-67.58983050847462,108.36448598130839,-125.57954618499711,78.67111493758073,-24.901960784313722,-10.297297297297286,-20.277310924369743,18.861386138613867,-4.096774193548402,-15.067796610169495,-17.00892857142857,-21.89655172413793,16.551000780484877,44.88041075359467,13.660022732517392,212.28465332447763,28.455662813084114,1158.897637132893,1
-23.202910266774463,5.681504562653016,-12.0956533681247,-67.58983050847462,108.36448598130839,-125.57954618499711,78.67111493758073,-29.882352941176464,-13.72972972972972,-30.949579831932766,1.257425742574262,-6.827956989247327,-13.991525423728817,-17.00892857142857,-18.14285714285714,16.473794546584383,104.38307852901222,13.660022732517392,212.28465332447763,28.455662813084114,1158.897637132893,1
-23.202910266774463,5.681504562653016,-12.0956533681247,-67.58983050847462,108.36448598130839,-125.57954618499711,78.67111493758073,-17.431372549019603,-4.5765765765765645,-11.739495798319322,8.801980198019807,-4.096774193548402,-8.610169491525426,-14.741071428571427,-13.137931034482756,10.391921408757915,22.42502439677916,13.660022732517392,212.28465332447763,28.455662813084114,1158.897637132893,1
-16.8888439773646,1.4415757845537502,-12.584014282771406,-63.8382566585957,107.09345794392523,-125.72648968310087,78.71485148514853,-17.431372549019603,-4.5765765765765645,-11.739495798319322,8.801980198019807,-4.096774193548402,-8.610169491525426,-14.741071428571427,-13.137931034482756,10.391921408757915,22.42502439677916,10.304811348229919,91.87550401403804,25.95461557530695,1107.416180217223,1
-16.8888439773646,1.4415757845537502,-12.584014282771406,-63.8382566585957,107.09345794392523,-125.72648968310087,78.71485148514853,-27.392156862745093,-16.018018018018005,-35.218487394957975,23.891089108910897,5.462365591397834,-5.381355932203392,-20.410714285714285,-18.14285714285714,18.989630542100578,105.39165135657369,10.304811348229919,91.87550401403804,25.95461557530695,1107.416180217223,1
-16.8888439773646,1.4415757845537502,-12.584014282771406,-63.8382566585957,107.09345794392523,-125.72648968310087,78.71485148514853,-24.901960784313722,-18.306306306306297,-62.96638655462184,-76.7029702970297,-51.89247311827958,-20.449152542372886,-17.00892857142857,-16.891625615763544,36.139975473764515,577.1692349694523,10.304811348229919,91.87550401403804,25.95461557530695,1107.416180217223,1
-12.29446240905417,-0.19786334297796637,-12.932843507519054,-61.562711864406765,106.30841121495327,-125.7917979044803,78.78045630650023,-24.901960784313722,-18.306306306306297,-62.96638655462184,-76.7029702970297,-51.89247311827958,-20.449152542372886,-17.00892857142857,-16.891625615763544,36.139975473764515,577.1692349694523,8.475056419850397,51.48582653058798,24.89780623830126,1048.7814083762312,1
-12.29446240905417,-0.19786334297796637,-12.932843507519054,-61.562711864406765,106.30841121495327,-125.7917979044803,78.78045630650023,-27.392156862745093,-16.018018018018005,-30.949579831932766,-23.891089108910887,-32.77419354838711,-9.686440677966104,-23.8125,-20.645320197044335,23.14616228062554,58.69263726812081,8.475056419850397,51.48582653058798,24.89780623830126,1048.7814083762312,1
-12.29446240905417,-0.19786334297796637,-12.932843507519054,-61.562711864406765,106.30841121495327,-125.7917979044803,78.78045630650023,-22.411764705882348,-8.009009009008997,-18.14285714285714,6.287128712871292,-19.118279569892486,1.0762711864406764,-14.741071428571427,-14.389162561576352,13.021943039637591,52.79554722015331,8.475056419850397,51.48582653058798,24.89780623830126,1048.7814083762312,1
-12.217461600646732,-1.1023814823058093,-13.177023964842407,-59.225665859564174,105.5607476635514,-125.82445201517002,78.73671975893242,-22.411764705882348,-8.009009009008997,-18.14285714285714,6.287128712871292,-19.118279569892486,1.0762711864406764,-14.741071428571427,-14.389162561576352,13.021943039637591,52.79554722015331,8.83228901593165,45.04379284149935,24.501690435570797,940.7650997048415,1
-12.217461600646732,-1.1023814823058093,-13.177023964842407,-59.225665859564174,105.5607476635514,-125.82445201517002,78.73671975893242,-14.94117647058823,-1.144144144144132,-16.008403361344534,-3.7722772277227676,-2.73118279569894,-5.381355932203392,-20.410714285714285,-16.891625615763544,10.160109979147478,58.22383146170385,8.83228901593165,45.04379284149935,24.501690435570797,940.7650997048415,1
-12.217461600646732,-1.1023814823058093,-13.177023964842407,-59.225665859564174,105.5607476635514,-125.82445201517002,78.73671975893242,-19.921568627450974,-2.2882882882882765,-7.470588235294112,-11.316831683168312,-53.258064516129046,-21.525423728813564,-21.544642857142854,-23.147783251231523,20.059148898439833,238.1123856505369,8.83228901593165,45.04379284149935,24.501690435570797,940.7650997048415,1
-12.217461600646732,-3.8724682839973297,-13.49097026711529,-57.196125907990336,104.83177570093456,-125.98772256861864,78.58364184244513,-19.921568627450974,-2.2882882882882765,-7.470588235294112,-11.316831683168312,-53.258064516129046,-21.525423728813564,-21.544642857142854,-23.147783251231523,20.059148898439833,238.1123856505369,9.860300050586451,27.296053029622975,24.85318815303432,807.6781120655305,1
-12.217461600646732,-3.8724682839973297,-13.49097026711529,-57.196125907990336,104.83177570093456,-125.98772256861864,78.58364184244513,-29.882352941176464,-19.45045045045044,-41.62184873949579,-13.831683168316827,-16.387096774193562,-9.686440677966104,-18.142857142857142,-18.14285714285714,20.893198379664184,103.35049826277161,9.860300050586451,27.296053029622975,24.85318815303432,807.6781120655305,1
-12.217461600646732,-3.8724682839973297,-13.49097026711529,-57.196125907990336,104.83177570093456,-125.98772256861864,78.58364184244513,-34.86274509803921,-18.306306306306297,-28.81512605042016,8.801980198019807,9.559139784946222,-4.305084745762714,-23.8125,-21.89655172413793,18.794929238454042,112.6754731693333,9.860300050586451,27.296053029622975,24.85318815303432,807.6781120655305,1
-6.237065481002433,-6.755619853104831,-13.944448259287233,-57.13462469733656,104.70093457943925,-126.15099312206723,78.53990529487731,-34.86274509803921,-18.306306306306297,-28.81512605042016,8.801980198019807,9.559139784946222,-4.305084745762714,-23.8125,-21.89655172413793,18.794929238454042,112.6754731693333,8.9790445311315,18.558650296893774,25.944897603242875,742.5191206164152,1
-6.237065481002433,-6.755619853104831,-13.944448259287233,-57.13462469733656,104.70093457943925,-126.15099312206723,78.53990529487731,-12.450980392156858,-1.144144144144132,-30.949579831932766,-1.2574257425742528,-8.19354838709679,-9.686440677966104,-18.142857142857142,-15.640394088669948,12.183171300924748,94.72897813896961,8.9790445311315,18.558650296893774,25.944897603242875,742.5191206164152,1
-6.237065481002433,-6.755619853104831,-13.944448259287233,-57.13462469733656,104.70093457943925,-126.15099312206723,78.53990529487731,-27.392156862745093,-16.018018018018005,-28.81512605042016,11.31683168316832,2.73118279569891,-11.83898305084746,-24.94642857142857,-18.14285714285714,17.650198021897957,81.73740695502116,8.9790445311315,18.558650296893774,25.944897603242875,742.5191206164152,1
-2.951697655618439,-7.886267527264634,-13.682826340726498,-57.93414043583539,104.88785046728971,-126.29793662017099,78.56177356866122,-27.392156862745093,-16.018018018018005,-28.81512605042016,11.31683168316832,2.73118279569891,-11.83898305084746,-24.94642857142857,-18.14285714285714,17.650198021897957,81.73740695502116,8.173597174536523,28.851199458738296,26.501078101275507,749.428079315726,1
-2.951697655618439,-7.886267527264634,-13.682826340726498,-57.93414043583539,104.88785046728971,-126.29793662017099,78.56177356866122,-27.392156862745093,-9.153153153153141,-24.546218487394952,-13.831683168316827,-6.827956989247327,-11.83898305084746,-13.607142857142854,-20.645320197044335,15.9803268457365,54.73458598055021,8.173597174536523,28.851199458738296,26.501078101275507,749.428079315726,1
-2.951697655618439,-7.886267527264634,-13.682826340726498,-57.93414043583539,104.88785046728971,-126.29793662017099,78.56177356866122,-29.882352941176464,-19.45045045045044,-33.08403361344537,-6.287128712871283,-8.19354838709679,-7.5338983050847474,-19.27678571428571,-18.14285714285714,17.731381908408494,102.11323774046261,8.173597174536523,28.851199458738296,26.501078101275507,749.428079315726,1
-2.104688763136628,-10.599821945248165,-14.083979949186293,-59.28716707021795,105.2429906542056,-126.49386128430932,78.40869565217392,-29.882352941176464,-19.45045045045044,-33.08403361344537,-6.287128712871283,-8.19354838709679,-7.5338983050847474,-19.27678571428571,-18.14285714285714,17.731381908408494,102.11323774046261,8.929496885857029,37.968343683064305,27.990322988217468,737.6541763688879,1
-2.104688763136628,-10.599821945248165,-14.083979949186293,-59.28716707021795,105.2429906542056,-126.49386128430932,78.40869565217392,-12.450980392156858,-3.43243243243242,-13.873949579831928,-1.2574257425742528,-23.215053763440874,-7.5338983050847474,-14.741071428571427,-13.137931034482756,11.205342834821908,48.857314406231026,8.929496885857029,37.968343683064305,27.990322988217468,737.6541763688879,1
-2.104688763136628,-10.599821945248165,-14.083979949186293,-59.28716707021795,105.2429906542056,-126.49386128430932,78.40869565217392,-29.882352941176464,-6.8648648648648525,-24.546218487394952,-1.2574257425742528,-28.677419354838722,-10.762711864406782,-18.142857142857142,-21.89655172413793,17.753800265281388,109.92179254433704,8.929496885857029,37.968343683064305,27.990322988217468,737.6541763688879,1
-1.3090137429264423,-11.334742933452038,-14.13630433289844,-61.00920096852303,105.6915887850467,-126.68978594844765,78.27748600947052,-29.882352941176464,-6.8648648648648525,-24.546218487394952,-1.2574257425742528,-28.677419354838722,-10.762711864406782,-18.142857142857142,-21.89655172413793,17.753800265281388,109.92179254433704,8.926687003092306,45.48389599270155,28.8267494116245,778.7448277278073,1
-1.3090137429264423,-11.334742933452038,-14.13630433289844,-61.00920096852303,105.6915887850467,-126.68978594844765,78.27748600947052,-37.35294117647058,-26.315315315315306,-45.890756302521,-8.801980198019798,-16.387096774193562,-13.991525423728817,-19.27678571428571,-18.14285714285714,23.26990725592399,157.7604559509798,8.926687003092306,45.48389599270155,28.8267494116245,778.7448277278073,1
-1.3090137429264423,-11.334742933452038,-14.13630433289844,-61.00920096852303,105.6915887850467,-126.68978594844765,78.27748600947052,-22.411764705882348,-3.43243243243242,-24.546218487394952,-3.7722772277227676,-1.365591397849478,-8.610169491525426,-19.27678571428571,-20.645320197044335,13.007569956767181,93.0091813941269,8.926687003092306,45.48389599270155,28.8267494116245,778.7448277278073,1
-0.7443411479385684,-8.621188515468507,-13.944448259287233,-62.73123486682812,106.23364485981305,-126.77142122517195,78.21188118811882,-22.411764705882348,-3.43243243243242,-24.546218487394952,-3.7722772277227676,-1.365591397849478,-8.610169491525426,-19.27678571428571,-20.645320197044335,13.007569956767181,93.0091813941269,7.769992640898103,44.104107750433656,28.432290547194615,889.3974596560296,1
-0.7443411479385684,-8.621188515468507,-13.944448259287233,-62.73123486682812,106.23364485981305,-126.77142122517195,78.21188118811882,-24.901960784313722,-5.720720720720709,-26.680672268907557,-8.801980198019798,-15.0215053763441,-8.610169491525426,-11.339285714285712,-15.640394088669948,14.589586080348372,58.90017411877761,7.769992640898103,44.104107750433656,28.432290547194615,889.3974596560296,1
-0.7443411479385684,-8.621188515468507,-13.944448259287233,-62.73123486682812,106.23364485981305,-126.77142122517195,78.21188118811882,-14.94117647058823,1.2434497875801753e-14,-18.14285714285714,-11.316831683168312,-12.290322580645176,-9.686440677966104,-18.142857142857142,-15.640394088669948,12.520109973344006,35.0159748169452,7.769992640898103,44.104107750433656,28.432290547194615,889.3974596560296,1
-2.669361358124502,-7.094814155352772,-13.944448259287233,-63.89975786924947,106.57009345794391,-126.82040239120654,78.12440809298323,-14.94117647058823,1.2434497875801753e-14,-18.14285714285714,-11.316831683168312,-12.290322580645176,-9.686440677966104,-18.142857142857142,-15.640394088669948,12.520109973344006,35.0159748169452,7.902874590921502,32.27161740784149,28.31300676129649,961.5420126539897,1
-2.669361358124502,-7.094814155352772,-13.944448259287233,-63.89975786924947,106.57009345794391,-126.82040239120654,78.12440809298323,-14.94117647058823,-10.297297297297286,-9.605042016806717,6.287128712871292,4.09677419354837,-9.686440677966104,-13.607142857142854,-13.137931034482756,10.20736665758795,13.70078475624456,7.902874590921502,32.27161740784149,28.31300676129649,961.5420126539897,1
-2.669361358124502,-7.094814155352772,-13.944448259287233,-63.89975786924947,106.57009345794391,-126.82040239120654,78.12440809298323,-14.94117647058823,-4.5765765765765645,-9.605042016806717,13.831683168316836,-4.096774193548402,-15.067796610169495,-17.00892857142857,-15.640394088669948,11.846046462013096,26.12474236195529,7.902874590921502,32.27161740784149,28.31300676129649,961.5420126539897,1
-2.361358124494753,-3.8159359002893396,-13.961889720524615,-64.63777239709452,106.86915887850465,-126.72244005913737,78.19001291433491,-14.94117647058823,-4.5765765765765645,-9.605042016806717,13.831683168316836,-4.096774193548402,-15.067796610169495,-17.00892857142857,-15.640394088669948,11.846046462013096,26.12474236195529,6.713061248436236,39.938084789778244,27.47186600596949,1061.713543135988,1
-2.361358124494753,-3.8159359002893396,-13.961889720524615,-64.63777239709452,106.86915887850465,-126.72244005913737,78.19001291433491,-34.86274509803921,-14.873873873873862,-39.487394957983184,-3.7722772277227676,-23.215053763440874,-8.610169491525426,-15.874999999999998,-20.645320197044335,20.167729326203705,149.64967391255885,6.713061248436236,39.938084789778244,27.47186600596949,1061.713543135988,1
-2.361358124494753,-3.8159359002893396,-13.961889720524615,-64.63777239709452,106.86915887850465,-126.72244005913737,78.19001291433491,-32.37254901960784,-11.44144144144143,-43.756302521008394,-6.287128712871283,-10.924731182795714,-8.610169491525426,-23.8125,-19.394088669950737,19.5748638799001,172.03982062731083,6.713061248436236,39.938084789778244,27.47186600596949,1061.713543135988,1
-3.721705739692813,-5.059648341865124,-14.275836022797499,-65.37578692493946,107.16822429906541,-126.62447772706821,78.01506672406373,-32.37254901960784,-11.44144144144143,-43.756302521008394,-6.287128712871283,-10.924731182795714,-8.610169491525426,-23.8125,-19.394088669950737,19.5748638799001,172.03982062731083,7.685730034785145,33.019645301604115,28.23709042986736,1055.6966118573528,1
-3.721705739692813,-5.059648341865124,-14.275836022797499,-65.37578692493946,107.16822429906541,-126.62447772706821,78.01506672406373,-27.392156862745093,-6.8648648648648525,-22.411764705882348,-13.831683168316827,-21.849462365591414,-16.144067796610173,-20.410714285714285,-21.89655172413793,18.850158221732865,40.35967565422383,7.685730034785145,33.019645301604115,28.23709042986736,1055.6966118573528,1
-3.721705739692813,-5.059648341865124,-14.275836022797499,-65.37578692493946,107.16822429906541,-126.62447772706821,78.01506672406373,-17.431372549019603,-8.009009009008997,-18.14285714285714,-1.2574257425742528,-8.19354838709679,-5.381355932203392,-17.00892857142857,-14.389162561576352,11.226707486970636,40.41064975449692,7.685730034785145,33.019645301604115,28.23709042986736,1055.6966118573528,1
-8.521422797089741,-6.69908746939684,-14.223511639085352,-64.94527845036328,107.09345794392523,-126.65713183775793,77.51209642703401,-17.431372549019603,-8.009009009008997,-18.14285714285714,-1.2574257425742528,-8.19354838709679,-5.381355932203392,-17.00892857142857,-14.389162561576352,11.226707486970636,40.41064975449692,9.814673968523978,15.408613715660183,28.622625852948488,1003.6555585557105,1
-8.521422797089741,-6.69908746939684,-14.223511639085352,-64.94527845036328,107.09345794392523,-126.65713183775793,77.51209642703401,-24.901960784313722,-6.8648648648648525,-30.949579831932766,-16.34653465346534,-24.580645161290334,-8.610169491525426,-17.00892857142857,-21.89655172413793,18.894904385369866,69.04088248316992,9.814673968523978,15.408613715660183,28.622625852948488,1003.6555585557105,1
-8.521422797089741,-6.69908746939684,-14.223511639085352,-64.94527845036328,107.09345794392523,-126.65713183775793,77.51209642703401,-24.901960784313722,-8.009009009008997,-13.873949579831928,-8.801980198019798,-10.924731182795714,-11.83898305084746,-17.00892857142857,-14.389162561576352,13.718588117227817,29.21126436925926,9.814673968523978,15.408613715660183,28.622625852948488,1003.6555585557105,1
-9.368431689571551,-7.151346539060762,-14.049097026711529,-64.14576271186445,106.81308411214953,-126.78774828051681,77.11846749892382,-24.901960784313722,-8.009009009008997,-13.873949579831928,-8.801980198019798,-10.924731182795714,-11.83898305084746,-17.00892857142857,-14.389162561576352,13.718588117227817,29.21126436925926,10.189625085114614,12.400509392134257,28.44873542587892,967.6030582397685,1
-9.368431689571551,-7.151346539060762,-14.049097026711529,-64.14576271186445,106.81308411214953,-126.78774828051681,77.11846749892382,-24.901960784313722,-10.297297297297286,-33.08403361344537,-11.316831683168312,-13.655913978494638,-11.83898305084746,-18.142857142857142,-18.14285714285714,17.672591836660132,62.16770872717456,10.189625085114614,12.400509392134257,28.44873542587892,967.6030582397685,1
-9.368431689571551,-7.151346539060762,-14.049097026711529,-64.14576271186445,106.81308411214953,-126.78774828051681,77.11846749892382,-24.901960784313722,-9.153153153153141,-26.680672268907557,-8.801980198019798,-20.48387096774195,-11.83898305084746,-20.410714285714285,-15.640394088669948,17.238966099670982,48.10500694203375,10.189625085114614,12.400509392134257,28.44873542587892,967.6030582397685,1
-6.288399353274057,-5.285777876697084,-13.578177573302202,-64.08426150121068,106.71962616822428,-126.93469177862056,77.14033577270772,-24.901960784313722,-9.153153153153141,-26.680672268907557,-8.801980198019798,-20.48387096774195,-11.83898305084746,-20.410714285714285,-15.640394088669948,17.238966099670982,48.10500694203375,8.384118267757781,20.485001508457792,27.64940565040332,1012.8150138338972,1
-6.288399353274057,-5.285777876697084,-13.578177573302202,-64.08426150121068,106.71962616822428,-126.93469177862056,77.14033577270772,-32.37254901960784,-20.594594594594582,-26.680672268907557,-1.2574257425742528,-6.827956989247327,-6.45762711864407,-17.00892857142857,-16.891625615763544,16.011422490095967,113.94086560746962,8.384118267757781,20.485001508457792,27.64940565040332,1012.8150138338972,1
-6.288399353274057,-5.285777876697084,-13.578177573302202,-64.08426150121068,106.71962616822428,-126.93469177862056,77.14033577270772,-27.392156862745093,-17.16216216216215,-35.218487394957975,-26.405940594059402,-17.752688172043026,-16.144067796610173,-18.142857142857142,-18.14285714285714,22.04515215853651,46.95587773468022,8.384118267757781,20.485001508457792,27.64940565040332,1012.8150138338972,1
-4.081042845594187,-3.4202092143334077,-13.159582503605025,-64.4532687651332,106.79439252336446,-126.95101883396542,77.29341368919502,-27.392156862745093,-17.16216216216215,-35.218487394957975,-26.405940594059402,-17.752688172043026,-16.144067796610173,-18.142857142857142,-18.14285714285714,22.04515215853651,46.95587773468022,6.8869448545108725,29.618662579676382,27.01102016102388,1075.1553334158893,1
-4.081042845594187,-3.4202092143334077,-13.159582503605025,-64.4532687651332,106.79439252336446,-126.95101883396542,77.29341368919502,-34.86274509803921,-13.72972972972972,-16.008403361344534,-6.287128712871283,-17.752688172043026,-13.991525423728817,-22.678571428571427,-19.394088669950737,18.088110074534846,69.0920899573516,6.8869448545108725,29.618662579676382,27.01102016102388,1075.1553334158893,1
-4.081042845594187,-3.4202092143334077,-13.159582503605025,-64.4532687651332,106.79439252336446,-126.95101883396542,77.29341368919502,-19.921568627450974,-9.153153153153141,-28.81512605042016,-6.287128712871283,-15.0215053763441,-9.686440677966104,-13.607142857142854,-15.640394088669948,14.766557443002322,50.76112242858831,6.8869448545108725,29.618662579676382,27.01102016102388,1075.1553334158893,1
-4.825383993532748,-2.5156910750055648,-13.020050813705966,-64.39176755447943,106.79439252336446,-126.88571061258598,77.40275505811451,-19.921568627450974,-9.153153153153141,-28.81512605042016,-6.287128712871283,-15.0215053763441,-9.686440677966104,-13.607142857142854,-15.640394088669948,14.766557443002322,50.76112242858831,6.787041960748094,30.471469865262073,26.64250314773032,1096.3406158179987,1
-4.825383993532748,-2.5156910750055648,-13.020050813705966,-64.39176755447943,106.79439252336446,-126.88571061258598,77.40275505811451,-24.901960784313722,-10.297297297297286,-30.949579831932766,-3.7722772277227676,-20.48387096774195,-12.915254237288138,-18.142857142857142,-18.14285714285714,17.450744329001363,72.39143159259272,6.787041960748094,30.471469865262073,26.64250314773032,1096.3406158179987,1
-4.825383993532748,-2.5156910750055648,-13.020050813705966,-64.39176755447943,106.79439252336446,-126.88571061258598,77.40275505811451,-24.901960784313722,-9.153153153153141,-26.680672268907557,-1.2574257425742528,-10.924731182795714,-7.5338983050847474,-19.27678571428571,-18.14285714285714,14.733935536746497,79.64050177540376,6.787041960748094,30.471469865262073,26.64250314773032,1096.3406158179987,1
-6.339733225545682,-3.9290006677053197,-13.002609352468584,-64.20726392251822,106.71962616822428,-126.9183647232757,77.38088678433061,-24.901960784313722,-9.153153153153141,-26.680672268907557,-1.2574257425742528,-10.924731182795714,-7.5338983050847474,-19.27678571428571,-18.14285714285714,14.733935536746497,79.64050177540376,7.757114415239862,22.089320718726995,27.04629131423071,1056.2860075364738,1
-6.339733225545682,-3.9290006677053197,-13.002609352468584,-64.20726392251822,106.71962616822428,-126.9183647232757,77.38088678433061,-14.94117647058823,-6.8648648648648525,-48.0252100840336,-18.861386138613856,-23.215053763440874,-10.762711864406782,-14.741071428571427,-16.891625615763544,19.287887528785397,159.10826610857546,7.757114415239862,22.089320718726995,27.04629131423071,1056.2860075364738,1
-6.339733225545682,-3.9290006677053197,-13.002609352468584,-64.20726392251822,106.71962616822428,-126.9183647232757,77.38088678433061,-24.901960784313722,-10.297297297297286,-26.680672268907557,-16.34653465346534,-19.118279569892486,-9.686440677966104,-18.142857142857142,-16.891625615763544,17.758208501307898,36.600532141770586,7.757114415239862,22.089320718726995,27.04629131423071,1056.2860075364738,1
-6.442400970088932,-4.946583574449144,-13.386321499690997,-64.08426150121068,106.6448598130841,-127.0,77.31528196297891,-24.901960784313722,-10.297297297297286,-26.680672268907557,-16.34653465346534,-19.118279569892486,-9.686440677966104,-18.142857142857142,-16.891625615763544,17.758208501307898,36.600532141770586,8.258435348076357,20.280779708215547,27.472388858450273,1023.1292078689721,1
-6.442400970088932,-4.946583574449144,-13.386321499690997,-64.08426150121068,106.6448598130841,-127.0,77.31528196297891,-22.411764705882348,-5.720720720720709,-13.873949579831928,-21.37623762376237,-24.580645161290334,-8.610169491525426,-20.410714285714285,-19.394088669950737,17.04728627983477,47.23359526335452,8.258435348076357,20.280779708215547,27.472388858450273,1023.1292078689721,1
-6.442400970088932,-4.946583574449144,-13.386321499690997,-64.08426150121068,106.6448598130841,-127.0,77.31528196297891,-14.94117647058823,1.1441441441441569,-16.008403361344534,-8.801980198019798,-15.0215053763441,-15.067796610169495,-14.741071428571427,-16.891625615763544,12.82721290061816,28.186121230533228,8.258435348076357,20.280779708215547,27.472388858450273,1023.1292078689721,1
-4.722716248989498,-3.0810149120854664,-13.403762960928379,-64.14576271186445,106.68224299065419,-126.95101883396542,77.40275505811451,-14.94117647058823,1.1441441441441569,-16.008403361344534,-8.801980198019798,-15.0215053763441,-15.067796610169495,-14.741071428571427,-16.891625615763544,12.82721290061816,28.186121230533228,7.069164707334448,30.769147095724584,26.876846861626095,1068.3688483090832,1
-4.722716248989498,-3.0810149120854664,-13.403762960928379,-64.14576271186445,106.68224299065419,-126.95101883396542,77.40275505811451,-34.86274509803921,-18.306306306306297,-30.949579831932766,-1.2574257425742528,-9.55913978494625,-8.610169491525426,-20.410714285714285,-15.640394088669948,17.449559328713555,128.68912121356877,7.069164707334448,30.769147095724584,26.876846861626095,1068.3688483090832,1
-4.722716248989498,-3.0810149120854664,-13.403762960928379,-64.14576271186445,106.68224299065419,-126.95101883396542,77.40275505811451,-32.37254901960784,-21.73873873873873,-33.08403361344537,-3.7722772277227676,-20.48387096774195,-11.83898305084746,-20.410714285714285,-21.89655172413793,20.699714828494542,93.9027457586744,7.069164707334448,30.769147095724584,26.876846861626095,1068.3688483090832,1
-3.7987065481002498,-2.911417760961496,-13.70026780196388,-64.57627118644075,106.86915887850465,-126.8367294465514,77.42462333189842,-32.37254901960784,-21.73873873873873,-33.08403361344537,-3.7722772277227676,-20.48387096774195,-11.83898305084746,-20.410714285714285,-21.89655172413793,20.699714828494542,93.9027457586744,6.803464037008542,35.871246977172135,27.06265224978871,1084.553525595063,1
-3.7987065481002498,-2.911417760961496,-13.70026780196388,-64.57627118644075,106.86915887850465,-126.8367294465514,77.42462333189842,-14.94117647058823,-3.43243243243242,-28.81512605042016,-6.287128712871283,-4.096774193548402,-11.83898305084746,-13.607142857142854,-14.389162561576352,12.175990791178396,66.8527462766771,6.803464037008542,35.871246977172135,27.06265224978871,1084.553525595063,1
-3.7987065481002498,-2.911417760961496,-13.70026780196388,-64.57627118644075,106.86915887850465,-126.8367294465514,77.42462333189842,-24.901960784313722,-10.297297297297286,-24.546218487394952,23.891089108910897,-5.462365591397864,-10.762711864406782,-18.142857142857142,-18.14285714285714,17.01841967742947,55.20429028270002,6.803464037008542,35.871246977172135,27.06265224978871,1084.553525595063,1
-5.621059013742934,-4.211662586245271,-13.578177573302202,-64.51476997578698,106.9252336448598,-126.78774828051681,77.29341368919502,-24.901960784313722,-10.297297297297286,-24.546218487394952,23.891089108910897,-5.462365591397864,-10.762711864406782,-18.142857142857142,-18.14285714285714,17.01841967742947,55.20429028270002,7.803633057763469,25.505622843914644,27.43487004511148,1053.1221349023717,1
-5.621059013742934,-4.211662586245271,-13.578177573302202,-64.51476997578698,106.9252336448598,-126.78774828051681,77.29341368919502,-24.901960784313722,-13.72972972972972,-43.756302521008394,-6.287128712871283,-23.215053763440874,-12.915254237288138,-19.27678571428571,-19.394088669950737,20.43453801661107,125.09429022345626,7.803633057763469,25.505622843914644,27.43487004511148,1053.1221349023717,1
-5.621059013742934,-4.211662586245271,-13.578177573302202,-64.51476997578698,106.9252336448598,-126.78774828051681,77.29341368919502,-32.37254901960784,-24.027027027027017,-52.29411764705882,-13.831683168316827,-23.215053763440874,-7.5338983050847474,-13.607142857142854,-16.891625615763544,22.971637175430313,199.4115627098932,7.803633057763469,25.505622843914644,27.43487004511148,1053.1221349023717,1
-5.980396119644308,-4.663921655909192,-13.107258119892878,-64.4532687651332,106.88785046728971,-126.82040239120654,77.24967714162722,-32.37254901960784,-24.027027027027017,-52.29411764705882,-13.831683168316827,-23.215053763440874,-7.5338983050847474,-13.607142857142854,-16.891625615763544,22.971637175430313,199.4115627098932,7.917191965148793,20.63586627138171,27.40814951364509,1047.0781279287405,1
-5.980396119644308,-4.663921655909192,-13.107258119892878,-64.4532687651332,106.88785046728971,-126.82040239120654,77.24967714162722,-27.392156862745093,-17.16216216216215,-18.14285714285714,3.7722772277227765,-13.655913978494638,-9.686440677966104,-18.142857142857142,-19.394088669950737,15.918594233094474,49.522189977009766,7.917191965148793,20.63586627138171,27.40814951364509,1047.0781279287405,1
-5.980396119644308,-4.663921655909192,-13.107258119892878,-64.4532687651332,106.88785046728971,-126.82040239120654,77.24967714162722,-9.960784313725485,-2.2882882882882765,-22.411764705882348,-1.2574257425742528,-8.19354838709679,-6.45762711864407,-18.142857142857142,-14.389162561576352,10.387682282580588,55.73381517697518,7.917191965148793,20.63586627138171,27.40814951364509,1047.0781279287405,1
-4.825383993532748,-3.137547295793457,-12.810753278857376,-64.63777239709452,106.9252336448598,-126.82040239120654,77.33715023676282,-9.960784313725485,-2.2882882882882765,-22.411764705882348,-1.2574257425742528,-8.19354838709679,-6.45762711864407,-18.142857142857142,-14.389162561576352,10.387682282580588,55.73381517697518,6.924561522727861,26.697638222004176,26.86202432391512,1093.648085363934,1
-4.825383993532748,-3.137547295793457,-12.810753278857376,-64.63777239709452,106.9252336448598,-126.82040239120654,77.33715023676282,-24.901960784313722,-9.153153153153141,-5.336134453781508,-3.7722772277227676,-9.55913978494625,-4.305084745762714,-17.00892857142857,-18.14285714285714,11.522441982995726,58.97667721122974,6.924561522727861,26.697638222004176,26.86202432391512,1093.648085363934,1
-4.825383993532748,-3.137547295793457,-12.810753278857376,-64.63777239709452,106.9252336448598,-126.82040239120654,77.33715023676282,-22.411764705882348,-3.43243243243242,-33.08403361344537,-16.34653465346534,-19.118279569892486,-8.610169491525426,-21.544642857142854,-16.891625615763544,17.679935367443726,80.6189474774277,6.924561522727861,26.697638222004176,26.86202432391512,1093.648085363934,1
-4.0297089733225615,-3.137547295793457,-12.584014282771406,-65.19128329297826,107.09345794392523,-126.80407533586167,77.44649160568233,-22.411764705882348,-3.43243243243242,-33.08403361344537,-16.34653465346534,-19.118279569892486,-8.610169491525426,-21.544642857142854,-16.891625615763544,17.679935367443726,80.6189474774277,6.583756850629141,27.20130505369675,26.97094829051437,1117.9044404094407,1
-4.0297089733225615,-3.137547295793457,-12.584014282771406,-65.19128329297826,107.09345794392523,-126.80407533586167,77.44649160568233,-19.921568627450974,-10.297297297297286,-39.487394957983184,-31.435643564356432,-38.23655913978496,-13.991525423728817,-20.410714285714285,-19.394088669950737,24.146848995783337,119.47427360042558,6.583756850629141,27.20130505369675,26.97094829051437,1117.9044404094407,1
-4.0297089733225615,-3.137547295793457,-12.584014282771406,-65.19128329297826,107.09345794392523,-126.80407533586167,77.44649160568233,-34.86274509803921,-17.16216216216215,-26.680672268907557,-1.2574257425742528,-9.55913978494625,-21.525423728813564,-20.410714285714285,-23.147783251231523,19.3257582902986,106.09269676313662,6.583756850629141,27.20130505369675,26.97094829051437,1117.9044404094407,1
-4.799717057396935,-3.0810149120854664,-12.444482592872347,-65.3142857142858,107.13084112149532,-126.78774828051681,77.53396470081792,-34.86274509803921,-17.16216216216215,-26.680672268907557,-1.2574257425742528,-9.55913978494625,-21.525423728813564,-20.410714285714285,-23.147783251231523,19.3257582902986,106.09269676313662,6.775071520784916,24.845150694305225,26.946594406414537,1125.9784339743603,1
-4.799717057396935,-3.0810149120854664,-12.444482592872347,-65.3142857142858,107.13084112149532,-126.78774828051681,77.53396470081792,-22.411764705882348,-9.153153153153141,-37.35294117647058,-1.2574257425742528,-2.73118279569894,-7.5338983050847474,-15.874999999999998,-14.389162561576352,13.838066055055045,139.1766820162412,6.775071520784916,24.845150694305225,26.946594406414537,1125.9784339743603,1
-4.799717057396935,-3.0810149120854664,-12.444482592872347,-65.3142857142858,107.13084112149532,-126.78774828051681,77.53396470081792,-19.921568627450974,-11.44144144144143,-20.277310924369743,3.7722772277227765,-20.48387096774195,-10.762711864406782,-18.142857142857142,-15.640394088669948,15.055304035582592,35.58394069518069,6.775071520784916,24.845150694305225,26.946594406414537,1125.9784339743603,1
-4.825383993532748,-3.9290006677053197,-12.740987433907847,-65.37578692493946,107.14953271028035,-126.78774828051681,77.51209642703401,-19.921568627450974,-11.44144144144143,-20.277310924369743,3.7722772277227765,-20.48387096774195,-10.762711864406782,-18.142857142857142,-15.640394088669948,15.055304035582592,35.58394069518069,7.165124031715305,23.518565276638004,27.348591675517543,1103.963461595175,1
-4.825383993532748,-3.9290006677053197,-12.740987433907847,-65.37578692493946,107.14953271028035,-126.78774828051681,77.51209642703401,-24.901960784313722,-9.153153153153141,-7.470588235294112,1.257425742574262,-4.096774193548402,-9.686440677966104,-17.00892857142857,-15.640394088669948,11.151958180868533,58.69793881182797,7.165124031715305,23.518565276638004,27.348591675517543,1103.963461595175,1
-4.825383993532748,-3.9290006677053197,-12.740987433907847,-65.37578692493946,107.14953271028035,-126.78774828051681,77.51209642703401,-22.411764705882348,1.1441441441441569,-18.14285714285714,-1.2574257425742528,-6.827956989247327,-9.686440677966104,-21.544642857142854,-15.640394088669948,12.081953293560517,73.6847967859868,7.165124031715305,23.518565276638004,27.348591675517543,1103.963461595175,1
-7.212409054163306,-1.8938348542176722,-12.374716747922816,-64.82227602905573,107.01869158878502,-126.72244005913737,77.44649160568233,-22.411764705882348,1.1441441441441569,-18.14285714285714,-1.2574257425742528,-6.827956989247327,-9.686440677966104,-21.544642857142854,-15.640394088669948,12.081953293560517,73.6847967859868,7.160320218767931,27.46425625252872,26.36360921039874,1136.7640114188002,1
-7.212409054163306,-1.8938348542176722,-12.374716747922816,-64.82227602905573,107.01869158878502,-126.72244005913737,77.44649160568233,-17.431372549019603,-6.8648648648648525,-9.605042016806717,-16.34653465346534,-31.408602150537646,-18.29661016949153,-23.8125,-16.891625615763544,17.582144002493656,58.71703557428076,7.160320218767931,27.46425625252872,26.36360921039874,1136.7640114188002,1
-7.212409054163306,-1.8938348542176722,-12.374716747922816,-64.82227602905573,107.01869158878502,-126.72244005913737,77.44649160568233,-29.882352941176464,-17.16216216216215,-28.81512605042016,-23.891089108910887,-28.677419354838722,-8.610169491525426,-15.874999999999998,-24.39901477832512,22.164041735919866,57.49849051416151,7.160320218767931,27.46425625252872,26.36360921039874,1136.7640114188002,1
-9.009094583670176,1.1589138660137985,-12.04332898441255,-63.4077481840194,106.607476635514,-126.62447772706821,77.55583297460183,-29.882352941176464,-17.16216216216215,-28.81512605042016,-23.891089108910887,-28.677419354838722,-8.610169491525426,-15.874999999999998,-24.39901477832512,22.164041735919866,57.49849051416151,7.4037791446988415,47.81569841885447,25.536663678148585,1105.2819043555132,1
-9.009094583670176,1.1589138660137985,-12.04332898441255,-63.4077481840194,106.607476635514,-126.62447772706821,77.55583297460183,-27.392156862745093,-9.153153153153141,-52.29411764705882,-26.405940594059402,-25.9462365591398,-7.5338983050847474,-18.142857142857142,-21.89655172413793,23.595613998529508,192.9462810867273,7.4037791446988415,47.81569841885447,25.536663678148585,1105.2819043555132,1
-9.009094583670176,1.1589138660137985,-12.04332898441255,-63.4077481840194,106.607476635514,-126.62447772706821,77.55583297460183,-27.392156862745093,-14.873873873873862,-26.680672268907557,-13.831683168316827,-13.655913978494638,-10.762711864406782,-19.27678571428571,-19.394088669950737,18.23348580012265,37.87159632702664,7.4037791446988415,47.81569841885447,25.536663678148585,1105.2819043555132,1
-5.6980598221503715,0.7631871800578676,-12.18286067431161,-63.03874092009687,106.49532710280373,-126.5428424503439,77.88385708136032,-27.392156862745093,-14.873873873873862,-26.680672268907557,-13.831683168316827,-13.655913978494638,-10.762711864406782,-19.27678571428571,-19.394088669950737,18.23348580012265,37.87159632702664,6.21470255883995,41.900084993893444,25.328262924822116,1099.1623486529168,1
-5.6980598221503715,0.7631871800578676,-12.18286067431161,-63.03874092009687,106.49532710280373,-126.5428424503439,77.88385708136032,-12.450980392156858,-1.144144144144132,-30.949579831932766,1.257425742574262,-15.0215053763441,-10.762711864406782,-12.473214285714285,-13.137931034482756,12.149686583969494,86.36320200602354,6.21470255883995,41.900084993893444,25.328262924822116,1099.1623486529168,1
-5.6980598221503715,0.7631871800578676,-12.18286067431161,-63.03874092009687,106.49532710280373,-126.5428424503439,77.88385708136032,-19.921568627450974,-6.8648648648648525,-26.680672268907557,-3.7722772277227676,-5.462365591397864,-5.381355932203392,-17.00892857142857,-16.891625615763544,12.74795733746744,71.91819725512143,6.21470255883995,41.900084993893444,25.328262924822116,1099.1623486529168,1
-3.3110347615198132,0.5935900289338969,-12.339833825448052,-63.46924939467317,106.6448598130841,-126.41222600758502,78.25561773568663,-19.921568627450974,-6.8648648648648525,-26.680672268907557,-3.7722772277227676,-5.462365591397864,-5.381355932203392,-17.00892857142857,-16.891625615763544,12.74795733746744,71.91819725512143,5.414819538633921,44.006459981352194,25.467557749685042,1117.5899867423575,1
-3.3110347615198132,0.5935900289338969,-12.339833825448052,-63.46924939467317,106.6448598130841,-126.41222600758502,78.25561773568663,-24.901960784313722,-10.297297297297286,-24.546218487394952,3.7722772277227765,-4.096774193548402,-11.83898305084746,-19.27678571428571,-19.394088669950737,14.765548178170132,71.91254533068896,5.414819538633921,44.006459981352194,25.467557749685042,1117.5899867423575,1
-3.3110347615198132,0.5935900289338969,-12.339833825448052,-63.46924939467317,106.6448598130841,-126.41222600758502,78.25561773568663,-27.392156862745093,-9.153153153153141,-26.680672268907557,-8.801980198019798,-19.118279569892486,-7.5338983050847474,-13.607142857142854,-19.394088669950737,16.46017148561205,62.7855550194257,5.414819538633921,44.006459981352194,25.467557749685042,1117.5899867423575,1
-5.05638641875506,0.9893167148898279,-12.549131360296641,-63.22324455205819,106.607476635514,-126.26528250948127,78.53990529487731,-27.392156862745093,-9.153153153153141,-26.680672268907557,-8.801980198019798,-19.118279569892486,-7.5338983050847474,-13.607142857142854,-19.394088669950737,16.46017148561205,62.7855550194257,6.198278164647177,45.99688823728013,25.58723087574822,1095.7594727415837,1
-5.05638641875506,0.9893167148898279,-12.549131360296641,-63.22324455205819,106.607476635514,-126.26528250948127,78.53990529487731,-22.411764705882348,-9.153153153153141,-13.873949579831928,-1.2574257425742528,-13.655913978494638,-9.686440677966104,-19.27678571428571,-16.891625615763544,13.275882395993957,43.910740313432875,6.198278164647177,45.99688823728013,25.58723087574822,1095.7594727415837,1
-5.05638641875506,0.9893167148898279,-12.549131360296641,-63.22324455205819,106.607476635514,-126.26528250948127,78.53990529487731,-22.411764705882348,-6.8648648648648525,-22.411764705882348,6.287128712871292,-4.096774193548402,-12.915254237288138,-19.27678571428571,-15.640394088669948,13.73809140291163,54.450179128686194,6.198278164647177,45.99688823728013,25.58723087574822,1095.7594727415837,1
-5.2873888439773715,1.8373024705096812,-12.53168989905926,-62.669733656174344,106.49532710280373,-126.0856849006878,78.88979767541973,-22.411764705882348,-6.8648648648648525,-22.411764705882348,6.287128712871292,-4.096774193548402,-12.915254237288138,-19.27678571428571,-15.640394088669948,13.73809140291163,54.450179128686194,6.552127071182103,51.61817763668637,25.67957534191443,1054.796339703489,1
-5.2873888439773715,1.8373024705096812,-12.53168989905926,-62.669733656174344,106.49532710280373,-126.0856849006878,78.88979767541973,-14.94117647058823,-10.297297297297286,-16.008403361344534,-1.2574257425742528,-9.55913978494625,-10.762711864406782,-18.142857142857142,-16.891625615763544,12.232579659972252,30.248363412124583,6.552127071182103,51.61817763668637,25.67957534191443,1054.796339703489,1
-5.2873888439773715,1.8373024705096812,-12.53168989905926,-62.669733656174344,106.49532710280373,-126.0856849006878,78.88979767541973,-27.392156862745093,-18.306306306306297,-24.546218487394952,-6.287128712871283,-31.408602150537646,-10.762711864406782,-20.410714285714285,-15.640394088669948,19.34427909483079,71.06318695656968,6.552127071182103,51.61817763668637,25.67957534191443,1054.796339703489,1
-3.2083670169765637,4.0420654351213,-12.165419213074228,-62.48523002421314,106.51401869158876,-125.80812495982516,79.48024106758503,-27.392156862745093,-18.306306306306297,-24.546218487394952,-6.287128712871283,-31.408602150537646,-10.762711864406782,-20.410714285714285,-15.640394088669948,19.34427909483079,71.06318695656968,6.471950555057364,65.91335223459093,26.23090489080289,1002.279287309712,1
-3.2083670169765637,4.0420654351213,-12.165419213074228,-62.48523002421314,106.51401869158876,-125.80812495982516,79.48024106758503,-12.450980392156858,3.432432432432446,-9.605042016806717,-6.287128712871283,-16.387096774193562,-13.991525423728817,-18.142857142857142,-15.640394088669948,11.992182122964596,26.596969298252507,6.471950555057364,65.91335223459093,26.23090489080289,1002.279287309712,1
-3.2083670169765637,4.0420654351213,-12.165419213074228,-62.48523002421314,106.51401869158876,-125.80812495982516,79.48024106758503,-17.431372549019603,-3.43243243243242,-7.470588235294112,-6.287128712871283,-16.387096774193562,-9.686440677966104,-15.874999999999998,-16.891625615763544,11.682710624692579,31.25613024209645,6.471950555057364,65.91335223459093,26.23090489080289,1002.279287309712,1
-2.5666936135812524,4.663921655909192,-12.0956533681247,-63.03874092009687,106.79439252336446,-125.51423796361767,79.96134309083084,-17.431372549019603,-3.43243243243242,-7.470588235294112,-6.287128712871283,-16.387096774193562,-9.686440677966104,-15.874999999999998,-16.891625615763544,11.682710624692579,31.25613024209645,6.442089545871714,70.66103769421962,26.599438648043588,1009.6747216161381,1
-2.5666936135812524,4.663921655909192,-12.0956533681247,-63.03874092009687,106.79439252336446,-125.51423796361767,79.96134309083084,-29.882352941176464,-18.306306306306297,-35.218487394957975,-3.7722772277227676,1.365591397849446,-8.610169491525426,-17.00892857142857,-18.14285714285714,16.538371309228012,141.28182403579203,6.442089545871714,70.66103769421962,26.599438648043588,1009.6747216161381,1
-2.5666936135812524,4.663921655909192,-12.0956533681247,-63.03874092009687,106.79439252336446,-125.51423796361767,79.96134309083084,-29.882352941176464,-17.16216216216215,-35.218487394957975,-13.831683168316827,-23.215053763440874,-11.83898305084746,-21.544642857142854,-21.89655172413793,21.823739632772817,61.668300390545255,6.442089545871714,70.66103769421962,26.599438648043588,1009.6747216161381,1
-7.623080032336304,-0.8197195637658585,-11.38055345739202,-62.54673123486691,106.55140186915885,-125.59587324034197,80.18002582866984,-29.882352941176464,-17.16216216216215,-35.218487394957975,-13.831683168316827,-23.215053763440874,-11.83898305084746,-21.544642857142854,-21.89655172413793,21.823739632772817,61.668300390545255,6.607784351164727,28.655922122345018,24.915668085341597,1089.9554884548625,1
-7.623080032336304,-0.8197195637658585,-11.38055345739202,-62.54673123486691,106.55140186915885,-125.59587324034197,80.18002582866984,-32.37254901960784,-14.873873873873862,-37.35294117647058,-6.287128712871283,-16.387096774193562,-12.915254237288138,-19.27678571428571,-18.14285714285714,19.701060831431015,105.00404834844655,6.607784351164727,28.655922122345018,24.915668085341597,1089.9554884548625,1
-7.623080032336304,-0.8197195637658585,-11.38055345739202,-62.54673123486691,106.55140186915885,-125.59587324034197,80.18002582866984,-17.431372549019603,-1.144144144144132,-7.470588235294112,-18.861386138613856,-16.387096774193562,-8.610169491525426,-19.27678571428571,-16.891625615763544,13.259146082854993,44.268170631683,6.607784351164727,28.655922122345018,24.915668085341597,1089.9554884548625,1
-7.905416329830242,-0.8762519474738486,-11.432877841104167,-61.562711864406765,106.10280373831775,-125.74281673844573,80.55178648299614,-17.431372549019603,-1.144144144144132,-7.470588235294112,-18.861386138613856,-16.387096774193562,-8.610169491525426,-19.27678571428571,-16.891625615763544,13.259146082854993,44.268170631683,6.738182039469419,28.88241448096213,24.623947217661595,1051.2148377852398,1
-7.905416329830242,-0.8762519474738486,-11.432877841104167,-61.562711864406765,106.10280373831775,-125.74281673844573,80.55178648299614,-22.411764705882348,-2.2882882882882765,-18.14285714285714,1.257425742574262,-10.924731182795714,-7.5338983050847474,-15.874999999999998,-14.389162561576352,11.602890991132355,56.632029974391024,6.738182039469419,28.88241448096213,24.623947217661595,1051.2148377852398,1
-7.905416329830242,-0.8762519474738486,-11.432877841104167,-61.562711864406765,106.10280373831775,-125.74281673844573,80.55178648299614,-19.921568627450974,-6.8648648648648525,-26.680672268907557,-16.34653465346534,-38.23655913978496,-11.83898305084746,-17.00892857142857,-19.394088669950737,19.536524980837555,91.04093835545265,6.738182039469419,28.88241448096213,24.623947217661595,1051.2148377852398,1
-5.415723524656435,0.4239928778099262,-11.397994918629403,-61.00920096852303,105.85981308411213,-125.71016262775599,81.01102023245804,-19.921568627450974,-6.8648648648648525,-26.680672268907557,-16.34653465346534,-38.23655913978496,-11.83898305084746,-17.00892857142857,-19.394088669950737,19.536524980837555,91.04093835545265,5.745903773698587,34.94154235859039,24.27706292165412,1042.0446543186536,1
-5.415723524656435,0.4239928778099262,-11.397994918629403,-61.00920096852303,105.85981308411213,-125.71016262775599,81.01102023245804,-34.86274509803921,-13.72972972972972,-39.487394957983184,-6.287128712871283,-13.655913978494638,-11.83898305084746,-18.142857142857142,-21.89655172413793,19.98766304937007,134.559025403041,5.745903773698587,34.94154235859039,24.27706292165412,1042.0446543186536,1
-5.415723524656435,0.4239928778099262,-11.397994918629403,-61.00920096852303,105.85981308411213,-125.71016262775599,81.01102023245804,-29.882352941176464,-18.306306306306297,-56.56302521008403,-8.801980198019798,-30.043010752688186,-11.83898305084746,-20.410714285714285,-19.394088669950737,24.405057676848408,225.07768146818094,5.745903773698587,34.94154235859039,24.27706292165412,1042.0446543186536,1
-4.081042845594187,1.5546405519697304,-11.415436379866785,-60.886198547215486,105.82242990654204,-125.61220029568683,81.51399052948774,-29.882352941176464,-18.306306306306297,-56.56302521008403,-8.801980198019798,-30.043010752688186,-11.83898305084746,-20.410714285714285,-19.394088669950737,24.405057676848408,225.07768146818094,5.683706592476901,42.2961919151525,24.618758493017335,1010.8042296535102,1
-4.081042845594187,1.5546405519697304,-11.415436379866785,-60.886198547215486,105.82242990654204,-125.61220029568683,81.51399052948774,-27.392156862745093,-14.873873873873862,-26.680672268907557,-6.287128712871283,-23.215053763440874,-10.762711864406782,-18.142857142857142,-16.891625615763544,18.030760013108267,55.90673682067226,5.683706592476901,42.2961919151525,24.618758493017335,1010.8042296535102,1
-4.081042845594187,1.5546405519697304,-11.415436379866785,-60.886198547215486,105.82242990654204,-125.61220029568683,81.51399052948774,-22.411764705882348,-10.297297297297286,-24.546218487394952,-6.287128712871283,-4.096774193548402,-8.610169491525426,-19.27678571428571,-16.891625615763544,14.052220527321118,59.78388646278684,5.683706592476901,42.2961919151525,24.618758493017335,1010.8042296535102,1
-2.387025060630565,2.4026263075895837,-11.781707065851815,-61.68571428571431,106.08411214953269,-125.44892974223822,82.01696082651745,-22.411764705882348,-10.297297297297286,-24.546218487394952,-6.287128712871283,-4.096774193548402,-8.610169491525426,-19.27678571428571,-16.891625615763544,14.052220527321118,59.78388646278684,5.523786144690654,52.06602057620743,25.290015886385238,1015.4769354486951,1
-2.387025060630565,2.4026263075895837,-11.781707065851815,-61.68571428571431,106.08411214953269,-125.44892974223822,82.01696082651745,-22.411764705882348,-10.297297297297286,-20.277310924369743,-1.2574257425742528,-16.387096774193562,-11.83898305084746,-18.142857142857142,-16.891625615763544,14.688045156723167,45.4787662984545,5.523786144690654,52.06602057620743,25.290015886385238,1015.4769354486951,1
-2.387025060630565,2.4026263075895837,-11.781707065851815,-61.68571428571431,106.08411214953269,-125.44892974223822,82.01696082651745,-22.411764705882348,-6.8648648648648525,-18.14285714285714,-6.287128712871283,-6.827956989247327,-8.610169491525426,-17.00892857142857,-15.640394088669948,12.724258070918362,39.64749509672021,5.523786144690654,52.06602057620743,25.290015886385238,1015.4769354486951,1
-4.389046079223936,-0.3674604941019366,-12.25262651926114,-62.05472154963684,106.25233644859811,-125.30198624413448,82.12630219543695,-22.411764705882348,-6.8648648648648525,-18.14285714285714,-6.287128712871283,-6.827956989247327,-8.610169491525426,-17.00892857142857,-15.640394088669948,12.724258070918362,39.64749509672021,5.669711030862338,36.5443699001659,24.891602854333303,1071.137336232314,1
-4.389046079223936,-0.3674604941019366,-12.25262651926114,-62.05472154963684,106.25233644859811,-125.30198624413448,82.12630219543695,-37.35294117647058,-21.73873873873873,-24.546218487394952,-18.861386138613856,-21.849462365591414,-10.762711864406782,-20.410714285714285,-20.645320197044335,22.020936656746866,54.68171024205128,5.669711030862338,36.5443699001659,24.891602854333303,1071.137336232314,1
-4.389046079223936,-0.3674604941019366,-12.25262651926114,-62.05472154963684,106.25233644859811,-125.30198624413448,82.12630219543695,-12.450980392156858,-3.43243243243242,1.0672268907563094,21.376237623762382,-5.462365591397864,-11.83898305084746,-14.741071428571427,-10.635467980295564,10.125595673777536,43.58297641098505,5.669711030862338,36.5443699001659,24.891602854333303,1071.137336232314,1
-7.289409862570743,-1.8938348542176722,-12.671221588958318,-61.43970944309933,106.15887850467287,-125.18769685672045,81.99509255273355,-12.450980392156858,-3.43243243243242,1.0672268907563094,21.376237623762382,-5.462365591397864,-11.83898305084746,-14.741071428571427,-10.635467980295564,10.125595673777536,43.58297641098505,7.284822101915577,29.038031993201784,25.334921962091773,1006.7047754940811,1
-7.289409862570743,-1.8938348542176722,-12.671221588958318,-61.43970944309933,106.15887850467287,-125.18769685672045,81.99509255273355,-29.882352941176464,-10.297297297297286,-24.546218487394952,3.7722772277227765,-8.19354838709679,-7.5338983050847474,-18.142857142857142,-15.640394088669948,14.751105484662514,81.8077733835207,7.284822101915577,29.038031993201784,25.334921962091773,1006.7047754940811,1
-7.289409862570743,-1.8938348542176722,-12.671221588958318,-61.43970944309933,106.15887850467287,-125.18769685672045,81.99509255273355,-24.901960784313722,-13.72972972972972,-35.218487394957975,-11.316831683168312,-20.48387096774195,-10.762711864406782,-19.27678571428571,-19.394088669950737,19.385558351069363,64.82525167698894,7.284822101915577,29.038031993201784,25.334921962091773,1006.7047754940811,1
-6.185731608730808,-1.32851101713777,-12.217743596786375,-61.13220338983058,106.12149532710278,-125.08973452465129,81.99509255273355,-24.901960784313722,-13.72972972972972,-35.218487394957975,-11.316831683168312,-20.48387096774195,-10.762711864406782,-19.27678571428571,-19.394088669950737,19.385558351069363,64.82525167698894,6.577328740884984,29.758857778853688,24.89281933458491,1014.6135640711157,1
-6.185731608730808,-1.32851101713777,-12.217743596786375,-61.13220338983058,106.12149532710278,-125.08973452465129,81.99509255273355,-24.901960784313722,-9.153153153153141,-20.277310924369743,-13.831683168316827,-8.19354838709679,-8.610169491525426,-19.27678571428571,-19.394088669950737,15.454837536626513,40.650147361367644,6.577328740884984,29.758857778853688,24.89281933458491,1014.6135640711157,1
-6.185731608730808,-1.32851101713777,-12.217743596786375,-61.13220338983058,106.12149532710278,-125.08973452465129,81.99509255273355,-17.431372549019603,-8.009009009008997,-30.949579831932766,-11.316831683168312,-8.19354838709679,-7.5338983050847474,-15.874999999999998,-16.891625615763544,14.525108172634344,61.05007224854072,6.577328740884984,29.758857778853688,24.89281933458491,1014.6135640711157,1
-5.800727566693621,-1.837302470509682,-12.409599670397581,-60.886198547215486,106.12149532710278,-124.94279102654754,81.92948773138184,-17.431372549019603,-8.009009009008997,-30.949579831932766,-11.316831683168312,-8.19354838709679,-7.5338983050847474,-15.874999999999998,-16.891625615763544,14.525108172634344,61.05007224854072,6.682543235866961,28.526566176489098,25.044366896040916,991.4210391040439,1
-5.800727566693621,-1.837302470509682,-12.409599670397581,-60.886198547215486,106.12149532710278,-124.94279102654754,81.92948773138184,-9.960784313725485,10.297297297297309,-35.218487394957975,-16.34653465346534,-10.924731182795714,-4.305084745762714,-17.00892857142857,-16.891625615763544,15.11918422189958,85.2284180327102,6.682543235866961,28.526566176489098,25.044366896040916,991.4210391040439,1
-5.800727566693621,-1.837302470509682,-12.409599670397581,-60.886198547215486,106.12149532710278,-124.94279102654754,81.92948773138184,-17.431372549019603,-4.5765765765765645,-26.680672268907557,-6.287128712871283,-9.55913978494625,-9.686440677966104,-15.874999999999998,-16.891625615763544,13.373494523256364,52.56116336393156,6.682543235866961,28.526566176489098,25.044366896040916,991.4210391040439,1
-6.108730800323371,-1.9503672379256627,-12.967726429993819,-60.4556900726393,106.06542056074765,-124.79584752844379,81.88575118381405,-17.431372549019603,-4.5765765765765645,-26.680672268907557,-6.287128712871283,-9.55913978494625,-9.686440677966104,-15.874999999999998,-16.891625615763544,13.373494523256364,52.56116336393156,7.008941489414283,30.953335355327326,25.12459458018626,966.5602824143889,1
-6.108730800323371,-1.9503672379256627,-12.967726429993819,-60.4556900726393,106.06542056074765,-124.79584752844379,81.88575118381405,-22.411764705882348,-11.44144144144143,-22.411764705882348,8.801980198019807,-19.118279569892486,-15.067796610169495,-15.874999999999998,-18.14285714285714,16.658860546768132,23.79153615695958,7.008941489414283,30.953335355327326,25.12459458018626,966.5602824143889,1
-6.108730800323371,-1.9503672379256627,-12.967726429993819,-60.4556900726393,106.06542056074765,-124.79584752844379,81.88575118381405,-29.882352941176464,-12.585585585585573,-35.218487394957975,-13.831683168316827,-8.19354838709679,-12.915254237288138,-20.410714285714285,-19.394088669950737,19.05396433376085,86.46382871560918,7.008941489414283,30.953335355327326,25.12459458018626,966.5602824143889,1
-5.646725949878746,-3.4767415980413983,-13.05493373618073,-60.394188861985526,106.12149532710278,-124.71421225171949,81.75454154111064,-29.882352941176464,-12.585585585585573,-35.218487394957975,-13.831683168316827,-8.19354838709679,-12.915254237288138,-20.410714285714285,-19.394088669950737,19.05396433376085,86.46382871560918,7.392800428033625,25.222023221226404,25.64195473206922,928.7237739241684,1
-5.646725949878746,-3.4767415980413983,-13.05493373618073,-60.394188861985526,106.12149532710278,-124.71421225171949,81.75454154111064,-22.411764705882348,-10.297297297297286,-26.680672268907557,-3.7722772277227676,-5.462365591397864,-9.686440677966104,-17.00892857142857,-18.14285714285714,14.182825435432454,66.76015224639072,7.392800428033625,25.222023221226404,25.64195473206922,928.7237739241684,1
-5.903395311236871,-3.8724682839973297,-13.037492274943348,-60.27118644067798,106.12149532710278,-124.66523108568491,81.62333189840724,-22.411764705882348,-10.297297297297286,-26.680672268907557,-3.7722772277227676,-5.462365591397864,-9.686440677966104,-17.00892857142857,-18.14285714285714,14.182825435432454,66.76015224639072,7.60445195672585,23.169611472025686,25.72704899987289,915.9724898355782,1
-5.903395311236871,-3.8724682839973297,-13.037492274943348,-60.27118644067798,106.12149532710278,-124.66523108568491,81.62333189840724,-27.392156862745093,-10.297297297297286,-24.546218487394952,3.7722772277227765,-4.096774193548402,-8.610169491525426,-18.142857142857142,-16.891625615763544,14.218672039856827,80.16504126211358,7.60445195672585,23.169611472025686,25.72704899987289,915.9724898355782,1
-5.903395311236871,-3.8724682839973297,-13.037492274943348,-60.27118644067798,106.12149532710278,-124.66523108568491,81.62333189840724,-32.37254901960784,-27.45945945945945,-43.756302521008394,-6.287128712871283,-23.215053763440874,-18.29661016949153,-19.27678571428571,-18.14285714285714,23.600843312877778,124.944256953881,7.60445195672585,23.169611472025686,25.72704899987289,915.9724898355782,1
-6.955739692805182,-3.3071444469174276,-12.601455744008788,-59.77917675544802,106.0093457943925,-124.61624991965033,81.51399052948774,-32.37254901960784,-27.45945945945945,-43.756302521008394,-6.287128712871283,-23.215053763440874,-18.29661016949153,-19.27678571428571,-18.14285714285714,23.600843312877778,124.944256953881,7.621446627910466,21.92842991439548,25.229258982124747,916.8686692293597,1
-6.955739692805182,-3.3071444469174276,-12.601455744008788,-59.77917675544802,106.0093457943925,-124.61624991965033,81.51399052948774,-32.37254901960784,-12.585585585585573,-50.159663865546214,-21.37623762376237,-15.0215053763441,-5.381355932203392,-17.00892857142857,-19.394088669950737,21.662489330553598,192.17795693811803,7.621446627910466,21.92842991439548,25.229258982124747,916.8686692293597,1
-6.955739692805182,-3.3071444469174276,-12.601455744008788,-59.77917675544802,106.0093457943925,-124.61624991965033,81.51399052948774,-19.921568627450974,-8.009009009008997,-20.277310924369743,-8.801980198019798,-16.387096774193562,-7.5338983050847474,-13.607142857142854,-15.640394088669948,13.772300097992577,26.760020577561694,7.621446627910466,21.92842991439548,25.229258982124747,916.8686692293597,1
-6.699070331447056,-2.346093923881594,-12.25262651926114,-59.410169491525494,105.91588785046729,-124.59992286430546,81.51399052948774,-19.921568627450974,-8.009009009008997,-20.277310924369743,-8.801980198019798,-16.387096774193562,-7.5338983050847474,-13.607142857142854,-15.640394088669948,13.772300097992577,26.760020577561694,7.0992635915299305,24.65496299989117,24.669629978222744,929.7136612723417,1
-6.699070331447056,-2.346093923881594,-12.25262651926114,-59.410169491525494,105.91588785046729,-124.59992286430546,81.51399052948774,-27.392156862745093,-12.585585585585573,-33.08403361344537,-11.316831683168312,-30.043010752688186,-19.372881355932208,-21.544642857142854,-19.394088669950737,21.841653922582292,61.868821616022046,7.0992635915299305,24.65496299989117,24.669629978222744,929.7136612723417,1
-6.699070331447056,-2.346093923881594,-12.25262651926114,-59.410169491525494,105.91588785046729,-124.59992286430546,81.51399052948774,-27.392156862745093,-8.009009009008997,-26.680672268907557,-8.801980198019798,-10.924731182795714,-10.762711864406782,-17.00892857142857,-19.394088669950737,16.121784828407904,60.733155311057324,7.0992635915299305,24.65496299989117,24.669629978222744,929.7136612723417,1
-6.724737267582869,-4.720454039617183,-12.0956533681247,-59.28716707021795,105.80373831775698,-124.71421225171949,81.47025398191994,-27.392156862745093,-8.009009009008997,-26.680672268907557,-8.801980198019798,-10.924731182795714,-10.762711864406782,-17.00892857142857,-19.394088669950737,16.121784828407904,60.733155311057324,7.84694822510825,14.542909358696955,25.367758159319944,876.4931169323345,1
-6.724737267582869,-4.720454039617183,-12.0956533681247,-59.28716707021795,105.80373831775698,-124.71421225171949,81.47025398191994,-29.882352941176464,-9.153153153153141,-13.873949579831928,8.801980198019807,-9.55913978494625,-5.381355932203392,-24.94642857142857,-23.147783251231523,15.593267926498884,82.85383404116013,7.84694822510825,14.542909358696955,25.367758159319944,876.4931169323345,1
-6.724737267582869,-4.720454039617183,-12.0956533681247,-59.28716707021795,105.80373831775698,-124.71421225171949,81.47025398191994,-24.901960784313722,-6.8648648648648525,-20.277310924369743,3.7722772277227765,-9.55913978494625,-9.686440677966104,-22.678571428571427,-18.14285714285714,14.485427854451503,63.2425181561995,7.84694822510825,14.542909358696955,25.367758159319944,876.4931169323345,1
-5.980396119644308,-4.09859781882929,-12.53168989905926,-59.28716707021795,105.80373831775698,-124.73053930706435,81.42651743435215,-24.901960784313722,-6.8648648648648525,-20.277310924369743,3.7722772277227765,-9.55913978494625,-9.686440677966104,-22.678571428571427,-18.14285714285714,14.485427854451503,63.2425181561995,7.536894612510952,19.596276177131458,25.305818262702164,883.8283105919501,1
-5.980396119644308,-4.09859781882929,-12.53168989905926,-59.28716707021795,105.80373831775698,-124.73053930706435,81.42651743435215,-14.94117647058823,-1.144144144144132,-5.336134453781508,11.31683168316832,-9.55913978494625,-15.067796610169495,-20.410714285714285,-14.389162561576352,11.52063749926107,37.336146896700164,7.536894612510952,19.596276177131458,25.305818262702164,883.8283105919501,1
-5.980396119644308,-4.09859781882929,-12.53168989905926,-59.28716707021795,105.80373831775698,-124.73053930706435,81.42651743435215,-24.901960784313722,-12.585585585585573,-28.81512605042016,-6.287128712871283,-13.655913978494638,-11.83898305084746,-21.544642857142854,-19.394088669950737,17.377928711203303,57.0503799003064,7.536894612510952,19.596276177131458,25.305818262702164,883.8283105919501,1
-7.007073565076806,-3.3636768306254177,-12.53168989905926,-58.733656174334214,105.67289719626167,-124.68155814102977,81.27343951786483,-24.901960784313722,-12.585585585585573,-28.81512605042016,-6.287128712871283,-13.655913978494638,-11.83898305084746,-21.544642857142854,-19.394088669950737,17.377928711203303,57.0503799003064,7.634146764920494,21.30803150421508,24.876340968006293,880.7514606412261,1
-7.007073565076806,-3.3636768306254177,-12.53168989905926,-58.733656174334214,105.67289719626167,-124.68155814102977,81.27343951786483,-7.470588235294112,5.720720720720733,-16.008403361344534,-13.831683168316827,-23.215053763440874,-10.762711864406782,-13.607142857142854,-10.635467980295564,12.656471493870285,29.667544286153447,7.634146764920494,21.30803150421508,24.876340968006293,880.7514606412261,1
-7.007073565076806,-3.3636768306254177,-12.53168989905926,-58.733656174334214,105.67289719626167,-124.68155814102977,81.27343951786483,-24.901960784313722,-19.45045045045044,-28.81512605042016,13.831683168316836,-6.827956989247327,-10.762711864406782,-14.741071428571427,-15.640394088669948,16.87141935304958,52.46776739171162,7.634146764920494,21.30803150421508,24.876340968006293,880.7514606412261,1
-6.673403395311244,-2.2330291564656135,-12.53168989905926,-58.24164648910414,105.5607476635514,-124.61624991965033,81.25157124408094,-24.901960784313722,-19.45045045045044,-28.81512605042016,13.831683168316836,-6.827956989247327,-10.762711864406782,-14.741071428571427,-15.640394088669948,16.87141935304958,52.46776739171162,7.146040816945373,26.68314287200659,24.335455181543,888.7379600114609,1
-6.673403395311244,-2.2330291564656135,-12.53168989905926,-58.24164648910414,105.5607476635514,-124.61624991965033,81.25157124408094,-32.37254901960784,-14.873873873873862,-28.81512605042016,-3.7722772277227676,-10.924731182795714,-7.5338983050847474,-21.544642857142854,-21.89655172413793,17.716706280098233,103.20602226320467,7.146040816945373,26.68314287200659,24.335455181543,888.7379600114609,1
-6.673403395311244,-2.2330291564656135,-12.53168989905926,-58.24164648910414,105.5607476635514,-124.61624991965033,81.25157124408094,-29.882352941176464,-12.585585585585573,-52.29411764705882,-16.34653465346534,-6.827956989247327,-7.5338983050847474,-17.00892857142857,-21.89655172413793,20.546990802148095,221.13550259717405,7.146040816945373,26.68314287200659,24.335455181543,888.7379600114609,1
-5.595392077607121,-2.572223458713555,-12.357275286685434,-58.118644067796595,105.54205607476634,-124.56726875361574,81.29530779164874,-29.882352941176464,-12.585585585585573,-52.29411764705882,-16.34653465346534,-6.827956989247327,-7.5338983050847474,-17.00892857142857,-21.89655172413793,20.546990802148095,221.13550259717405,6.84163027433537,25.101642051262317,24.349380937731862,879.2091590796858,1
-5.595392077607121,-2.572223458713555,-12.357275286685434,-58.118644067796595,105.54205607476634,-124.56726875361574,81.29530779164874,-24.901960784313722,-16.018018018018005,-37.35294117647058,-6.287128712871283,-10.924731182795714,-8.610169491525426,-18.142857142857142,-18.14285714285714,17.547582956463625,99.989244843391,6.84163027433537,25.101642051262317,24.349380937731862,879.2091590796858,1
-5.595392077607121,-2.572223458713555,-12.357275286685434,-58.118644067796595,105.54205607476634,-124.56726875361574,81.29530779164874,-29.882352941176464,-11.44144144144143,-22.411764705882348,-6.287128712871283,-15.0215053763441,-10.762711864406782,-18.142857142857142,-19.394088669950737,16.667981356866285,55.6970707474414,6.84163027433537,25.101642051262317,24.349380937731862,879.2091590796858,1
-5.672392886014559,-2.5156910750055648,-12.200302135548993,-58.057142857142935,105.50467289719624,-124.56726875361574,81.36091261300044,-29.882352941176464,-11.44144144144143,-22.411764705882348,-6.287128712871283,-15.0215053763441,-10.762711864406782,-18.142857142857142,-19.394088669950737,16.667981356866285,55.6970707474414,6.796128698856371,24.395009481297464,24.25771202256583,880.2490664045212,1
-5.672392886014559,-2.5156910750055648,-12.200302135548993,-58.057142857142935,105.50467289719624,-124.56726875361574,81.36091261300044,-29.882352941176464,-13.72972972972972,-26.680672268907557,-21.37623762376237,-21.849462365591414,-15.067796610169495,-22.678571428571427,-18.14285714285714,21.175960013845696,30.11577300781466,6.796128698856371,24.395009481297464,24.25771202256583,880.2490664045212,1
-5.672392886014559,-2.5156910750055648,-12.200302135548993,-58.057142857142935,105.50467289719624,-124.56726875361574,81.36091261300044,-14.94117647058823,-6.8648648648648525,-24.546218487394952,6.287128712871292,-6.827956989247327,-11.83898305084746,-19.27678571428571,-14.389162561576352,13.121534606459523,42.91965328805171,6.796128698856371,24.395009481297464,24.25771202256583,880.2490664045212,1
-6.955739692805182,-2.402626307589584,-11.938680216988256,-57.50363196125909,105.33644859813081,-124.55094169827088,81.38278088678433,-14.94117647058823,-6.8648648648648525,-24.546218487394952,6.287128712871292,-6.827956989247327,-11.83898305084746,-19.27678571428571,-14.389162561576352,13.121534606459523,42.91965328805171,7.09901540579434,22.74947698818884,23.948312828612313,867.2036626110676,1
-6.955739692805182,-2.402626307589584,-11.938680216988256,-57.50363196125909,105.33644859813081,-124.55094169827088,81.38278088678433,-27.392156862745093,-6.8648648648648525,-20.277310924369743,-11.316831683168312,-23.215053763440874,-10.762711864406782,-21.544642857142854,-19.394088669950737,17.59595768626116,50.690261256673175,7.09901540579434,22.74947698818884,23.948312828612313,867.2036626110676,1
-6.955739692805182,-2.402626307589584,-11.938680216988256,-57.50363196125909,105.33644859813081,-124.55094169827088,81.38278088678433,-17.431372549019603,-10.297297297297286,-13.873949579831928,-3.7722772277227676,-20.48387096774195,-7.5338983050847474,-15.874999999999998,-14.389162561576352,12.95710356103433,29.846227026448194,7.09901540579434,22.74947698818884,23.948312828612313,867.2036626110676,1
-7.828415521422805,-2.1764967727576234,-11.903797294513492,-56.704116222760376,105.03738317757008,-124.5835958089606,81.47025398191994,-17.431372549019603,-10.297297297297286,-13.873949579831928,-3.7722772277227676,-20.48387096774195,-7.5338983050847474,-15.874999999999998,-14.389162561576352,12.95710356103433,29.846227026448194,7.3029031962313065,23.86221626308413,23.594803430010497,845.8250390662511,1
-7.828415521422805,-2.1764967727576234,-11.903797294513492,-56.704116222760376,105.03738317757008,-124.5835958089606,81.47025398191994,-22.411764705882348,-20.594594594594582,-41.62184873949579,13.831683168316836,-2.73118279569894,-8.610169491525426,-17.00892857142857,-19.394088669950737,18.275532592111652,132.16946398988713,7.3029031962313065,23.86221626308413,23.594803430010497,845.8250390662511,1
-7.828415521422805,-2.1764967727576234,-11.903797294513492,-56.704116222760376,105.03738317757008,-124.5835958089606,81.47025398191994,-27.392156862745093,-10.297297297297286,-20.277310924369743,-26.405940594059402,-31.408602150537646,-6.45762711864407,-20.410714285714285,-19.394088669950737,20.255467237914786,71.92359600542615,7.3029031962313065,23.86221626308413,23.594803430010497,845.8250390662511,1
-6.237065481002433,-1.21544624972179,-12.008446061937786,-56.33510895883785,104.90654205607474,-124.55094169827088,81.62333189840724,-27.392156862745093,-10.297297297297286,-20.277310924369743,-26.405940594059402,-31.408602150537646,-6.45762711864407,-20.410714285714285,-19.394088669950737,20.255467237914786,71.92359600542615,6.486985930887336,29.169056410076635,23.18633375683248,853.2531842814384,1
-6.237065481002433,-1.21544624972179,-12.008446061937786,-56.33510895883785,104.90654205607474,-124.55094169827088,81.62333189840724,-24.901960784313722,-13.72972972972972,-24.546218487394952,-13.831683168316827,-27.311827956989262,-5.381355932203392,-19.27678571428571,-16.891625615763544,18.23389842362464,53.494491186987375,6.486985930887336,29.169056410076635,23.18633375683248,853.2531842814384,1
-6.237065481002433,-1.21544624972179,-12.008446061937786,-56.33510895883785,104.90654205607474,-124.55094169827088,81.62333189840724,-22.411764705882348,-3.43243243243242,-11.739495798319322,6.287128712871292,-9.55913978494625,-5.381355932203392,-15.874999999999998,-16.891625615763544,11.44724287280232,42.96805280213556,6.486985930887336,29.169056410076635,23.18633375683248,853.2531842814384,1
-4.928051738075998,-0.763187180057868,-12.113094829362081,-56.45811138014528,104.9626168224299,-124.48563347689144,81.79827808867844,-22.411764705882348,-3.43243243243242,-11.739495798319322,6.287128712871292,-9.55913978494625,-5.381355932203392,-15.874999999999998,-16.891625615763544,11.44724287280232,42.96805280213556,5.934777915831982,32.96522410966795,23.111464463188412,866.2042463650755,1
-4.928051738075998,-0.763187180057868,-12.113094829362081,-56.45811138014528,104.9626168224299,-124.48563347689144,81.79827808867844,-22.411764705882348,-9.153153153153141,-26.680672268907557,-3.7722772277227676,-9.55913978494625,-11.83898305084746,-21.544642857142854,-20.645320197044335,15.70074415570584,65.9983395319757,5.934777915831982,32.96522410966795,23.111464463188412,866.2042463650755,1
-4.928051738075998,-0.763187180057868,-12.113094829362081,-56.45811138014528,104.9626168224299,-124.48563347689144,81.79827808867844,-22.411764705882348,-10.297297297297286,-28.81512605042016,8.801980198019807,-1.5987211554602254e-14,-10.762711864406782,-19.27678571428571,-18.14285714285714,14.813565371646156,82.45254583789665,5.934777915831982,32.96522410966795,23.111464463188412,866.2042463650755,1
-6.31406628940987,-1.0458490985978193,-12.060770445649933,-56.15060532687653,104.85046728971962,-124.45297936620172,81.95135600516574,-22.411764705882348,-10.297297297297286,-28.81512605042016,8.801980198019807,-1.5987211554602254e-14,-10.762711864406782,-19.27678571428571,-18.14285714285714,14.813565371646156,82.45254583789665,6.47356194455254,30.351202218443127,23.085741623708092,850.2960318522653,1
-6.31406628940987,-1.0458490985978193,-12.060770445649933,-56.15060532687653,104.85046728971962,-124.45297936620172,81.95135600516574,-27.392156862745093,-13.72972972972972,-28.81512605042016,-8.801980198019798,-12.290322580645176,-12.915254237288138,-17.00892857142857,-20.645320197044335,17.69985230341512,53.39037522678098,6.47356194455254,30.351202218443127,23.085741623708092,850.2960318522653,1
-6.31406628940987,-1.0458490985978193,-12.060770445649933,-56.15060532687653,104.85046728971962,-124.45297936620172,81.95135600516574,-24.901960784313722,-6.8648648648648525,-24.546218487394952,-8.801980198019798,-15.0215053763441,-11.83898305084746,-17.00892857142857,-15.640394088669948,15.578104427735425,43.64853418697506,6.47356194455254,30.351202218443127,23.085741623708092,850.2960318522653,1
-7.802748585286992,-0.8197195637658585,-13.002609352468584,-55.04358353510895,104.57009345794391,-124.32236292344282,81.92948773138184,-24.901960784313722,-6.8648648648648525,-24.546218487394952,-8.801980198019798,-15.0215053763441,-11.83898305084746,-17.00892857142857,-15.640394088669948,15.578104427735425,43.64853418697506,7.2083591671738105,37.37067498619298,22.955304150447798,809.3489563019716,1
-7.802748585286992,-0.8197195637658585,-13.002609352468584,-55.04358353510895,104.57009345794391,-124.32236292344282,81.92948773138184,-24.901960784313722,-2.2882882882882765,-18.14285714285714,-1.2574257425742528,-12.290322580645176,-12.915254237288138,-20.410714285714285,-20.645320197044335,14.106517907340665,74.9742634398139,7.2083591671738105,37.37067498619298,22.955304150447798,809.3489563019716,1
-7.802748585286992,-0.8197195637658585,-13.002609352468584,-55.04358353510895,104.57009345794391,-124.32236292344282,81.92948773138184,-27.392156862745093,-11.44144144144143,-22.411764705882348,-13.831683168316827,-36.8709677419355,-12.915254237288138,-18.142857142857142,-18.14285714285714,20.143622805415454,73.33053762710763,7.2083591671738105,37.37067498619298,22.955304150447798,809.3489563019716,1
-6.031729991915933,0.5370576452259064,-13.299114193504085,-54.30556900726401,104.49532710280373,-124.0448029825802,81.95135600516574,-27.392156862745093,-11.44144144144143,-22.411764705882348,-13.831683168316827,-36.8709677419355,-12.915254237288138,-18.142857142857142,-18.14285714285714,20.143622805415454,73.33053762710763,6.622633943548641,47.900582551037566,22.713913615331336,789.2420396373342,1
-6.031729991915933,0.5370576452259064,-13.299114193504085,-54.30556900726401,104.49532710280373,-124.0448029825802,81.95135600516574,-32.37254901960784,-18.306306306306297,-39.487394957983184,-3.7722772277227676,-10.924731182795714,-10.762711864406782,-20.410714285714285,-16.891625615763544,19.116038807537553,138.61624154518455,6.622633943548641,47.900582551037566,22.713913615331336,789.2420396373342,1
-6.031729991915933,0.5370576452259064,-13.299114193504085,-54.30556900726401,104.49532710280373,-124.0448029825802,81.95135600516574,-27.392156862745093,-5.720720720720709,-26.680672268907557,-3.7722772277227676,-12.290322580645176,-10.762711864406782,-18.142857142857142,-19.394088669950737,15.519475917244495,79.21344655007185,6.622633943548641,47.900582551037566,22.713913615331336,789.2420396373342,1
-3.4907033144705,1.3850434008457597,-12.915402046281672,-54.613075060532765,104.70093457943925,-123.76724304171756,82.14817046922084,-27.392156862745093,-5.720720720720709,-26.680672268907557,-3.7722772277227676,-12.290322580645176,-10.762711864406782,-18.142857142857142,-19.394088669950737,15.519475917244495,79.21344655007185,5.930382920532644,52.85009870059802,22.9711735025534,784.1447432767375,1
-3.4907033144705,1.3850434008457597,-12.915402046281672,-54.613075060532765,104.70093457943925,-123.76724304171756,82.14817046922084,-32.37254901960784,-19.45045045045044,-33.08403361344537,-6.287128712871283,-23.215053763440874,-9.686440677966104,-15.874999999999998,-20.645320197044335,20.076997054353278,92.38677998024926,5.930382920532644,52.85009870059802,22.9711735025534,784.1447432767375,1
-3.4907033144705,1.3850434008457597,-12.915402046281672,-54.613075060532765,104.70093457943925,-123.76724304171756,82.14817046922084,-29.882352941176464,-18.306306306306297,-58.69747899159663,-8.801980198019798,-6.827956989247327,-22.60169491525424,-18.142857142857142,-16.891625615763544,22.519031637527682,266.5769095799014,5.930382920532644,52.85009870059802,22.9711735025534,784.1447432767375,1
-5.4927243330638715,1.7807700868016907,-12.060770445649933,-54.24406779661024,104.66355140186913,-123.57131837757923,82.41058975462764,-29.882352941176464,-18.306306306306297,-58.69747899159663,-8.801980198019798,-6.827956989247327,-22.60169491525424,-18.142857142857142,-16.891625615763544,22.519031637527682,266.5769095799014,6.444754955171831,47.93853252072891,22.695202776353952,772.917764894243,1
-5.4927243330638715,1.7807700868016907,-12.060770445649933,-54.24406779661024,104.66355140186913,-123.57131837757923,82.41058975462764,-19.921568627450974,-6.8648648648648525,-28.81512605042016,-11.316831683168312,-23.215053763440874,-34.4406779661017,-21.544642857142854,-16.891625615763544,20.37629892854416,79.34666320341002,6.444754955171831,47.93853252072891,22.695202776353952,772.917764894243,1
-5.4927243330638715,1.7807700868016907,-12.060770445649933,-54.24406779661024,104.66355140186913,-123.57131837757923,82.41058975462764,-19.921568627450974,-9.153153153153141,-9.605042016806717,-3.7722772277227676,-16.387096774193562,-8.610169491525426,-15.874999999999998,-19.394088669950737,12.839799495100415,34.15295256473987,6.444754955171831,47.93853252072891,22.695202776353952,772.917764894243,1
-6.339733225545682,0.3109281103939461,-11.921238755750874,-53.62905569007273,104.45794392523364,-123.48968310085492,82.65114076625055,-19.921568627450974,-9.153153153153141,-9.605042016806717,-3.7722772277227676,-16.387096774193562,-8.610169491525426,-15.874999999999998,-19.394088669950737,12.839799495100415,34.15295256473987,6.190633363896834,37.501734405047436,21.953740852072517,786.1940058852496,1
-6.339733225545682,0.3109281103939461,-11.921238755750874,-53.62905569007273,104.45794392523364,-123.48968310085492,82.65114076625055,-22.411764705882348,-13.72972972972972,-37.35294117647058,-13.831683168316827,-2.73118279569894,-2.152542372881358,-15.874999999999998,-14.389162561576352,15.309250813819514,124.78878399934318,6.190633363896834,37.501734405047436,21.953740852072517,786.1940058852496,1
-6.339733225545682,0.3109281103939461,-11.921238755750874,-53.62905569007273,104.45794392523364,-123.48968310085492,82.65114076625055,-29.882352941176464,-11.44144144144143,-22.411764705882348,-3.7722772277227676,-23.215053763440874,-13.991525423728817,-19.27678571428571,-18.14285714285714,17.766757295066945,64.3681131031424,6.190633363896834,37.501734405047436,21.953740852072517,786.1940058852496,1
-4.697049312853686,-2.063432005341643,-11.781707065851815,-53.44455205811141,104.40186915887848,-123.44070193482034,82.86982350408955,-29.882352941176464,-11.44144144144143,-22.411764705882348,-3.7722772277227676,-23.215053763440874,-13.991525423728817,-19.27678571428571,-18.14285714285714,17.766757295066945,64.3681131031424,6.180729461349048,25.262197625212913,22.429897043101622,745.0428368129874,1
-4.697049312853686,-2.063432005341643,-11.781707065851815,-53.44455205811141,104.40186915887848,-123.44070193482034,82.86982350408955,-22.411764705882348,-6.8648648648648525,-9.605042016806717,3.7722772277227765,-8.19354838709679,-4.305084745762714,-20.410714285714285,-23.147783251231523,12.33888493563525,68.00013425318382,6.180729461349048,25.262197625212913,22.429897043101622,745.0428368129874,1
-4.697049312853686,-2.063432005341643,-11.781707065851815,-53.44455205811141,104.40186915887848,-123.44070193482034,82.86982350408955,-22.411764705882348,-9.153153153153141,-30.949579831932766,-8.801980198019798,-17.752688172043026,-12.915254237288138,-24.94642857142857,-23.147783251231523,18.759829015122413,63.72502527233722,6.180729461349048,25.262197625212913,22.429897043101622,745.0428368129874,1
-4.260711398544874,-0.19786334297796637,-11.24102176749296,-53.260048426150206,104.36448598130839,-123.2937584367166,83.15411106328025,-22.411764705882348,-9.153153153153141,-30.949579831932766,-8.801980198019798,-17.752688172043026,-12.915254237288138,-24.94642857142857,-23.147783251231523,18.759829015122413,63.72502527233722,5.2331988363386,31.197135859734075,21.566311178873708,783.8575725217852,1
-4.260711398544874,-0.19786334297796637,-11.24102176749296,-53.260048426150206,104.36448598130839,-123.2937584367166,83.15411106328025,-22.411764705882348,-16.018018018018005,-62.96638655462184,-13.831683168316827,-8.19354838709679,-9.686440677966104,-22.678571428571427,-20.645320197044335,22.05396664218971,303.6334360703383,5.2331988363386,31.197135859734075,21.566311178873708,783.8575725217852,1
-4.260711398544874,-0.19786334297796637,-11.24102176749296,-53.260048426150206,104.36448598130839,-123.2937584367166,83.15411106328025,-24.901960784313722,-6.8648648648648525,-41.62184873949579,-3.7722772277227676,-12.290322580645176,-9.686440677966104,-12.473214285714285,-15.640394088669948,15.90641540617408,147.83030627325175,5.2331988363386,31.197135859734075,21.566311178873708,783.8575725217852,1
-5.338722716248997,3.646338749165368,-10.020119480876192,-52.58353510895893,104.21495327102802,-123.06517966188855,83.59147653895826,-24.901960784313722,-6.8648648648648525,-41.62184873949579,-3.7722772277227676,-12.290322580645176,-9.686440677966104,-12.473214285714285,-15.640394088669948,15.90641540617408,147.83030627325175,6.335060315430186,48.236480959767796,22.08333111300016,707.8531030503063,1
-5.338722716248997,3.646338749165368,-10.020119480876192,-52.58353510895893,104.21495327102802,-123.06517966188855,83.59147653895826,-27.392156862745093,-14.873873873873862,-16.008403361344534,16.34653465346535,-6.827956989247327,-16.144067796610173,-18.142857142857142,-20.645320197044335,17.04764635964848,33.24385953566708,6.335060315430186,48.236480959767796,22.08333111300016,707.8531030503063,1
-5.338722716248997,3.646338749165368,-10.020119480876192,-52.58353510895893,104.21495327102802,-123.06517966188855,83.59147653895826,-17.431372549019603,-8.009009009008997,-16.008403361344534,-23.891089108910887,-13.655913978494638,-1.7763568394002505e-15,-18.142857142857142,-13.137931034482756,13.78457202301482,51.883881162579804,6.335060315430186,48.236480959767796,22.08333111300016,707.8531030503063,1
-6.724737267582869,5.738036946361005,-8.031792899814597,-51.59951573849878,103.87850467289717,-122.88558205309508,84.20378820490745,-17.431372549019603,-8.009009009008997,-16.008403361344534,-23.891089108910887,-13.655913978494638,-1.7763568394002505e-15,-18.142857142857142,-13.137931034482756,13.78457202301482,51.883881162579804,6.831522371252824,57.7728915876869,21.78978186155813,667.7805044540183,1
-6.724737267582869,5.738036946361005,-8.031792899814597,-51.59951573849878,103.87850467289717,-122.88558205309508,84.20378820490745,-34.86274509803921,-1.144144144144132,-20.277310924369743,-3.7722772277227676,8.193548387096758,18.296610169491522,-12.473214285714285,-18.14285714285714,14.645338422429445,116.1252134470567,6.831522371252824,57.7728915876869,21.78978186155813,667.7805044540183,1
-6.724737267582869,5.738036946361005,-8.031792899814597,-51.59951573849878,103.87850467289717,-122.88558205309508,84.20378820490745,-19.921568627450974,-4.5765765765765645,1.0672268907563094,-1.2574257425742528,-32.77419354838711,-21.525423728813564,-21.544642857142854,-15.640394088669948,14.788431507546447,131.0339404842368,6.831522371252824,57.7728915876869,21.78978186155813,667.7805044540183,1
-9.214430072756677,3.7028711328733577,-6.776007690723064,-49.75447941888626,103.13084112149532,-122.95089027447452,84.88170469220836,-19.921568627450974,-4.5765765765765645,1.0672268907563094,-1.2574257425742528,-32.77419354838711,-21.525423728813564,-21.544642857142854,-15.640394088669948,14.788431507546447,131.0339404842368,6.564436298784368,47.10157925829853,20.07778608082756,662.8906376866813,1
-9.214430072756677,3.7028711328733577,-6.776007690723064,-49.75447941888626,103.13084112149532,-122.95089027447452,84.88170469220836,-22.411764705882348,-9.153153153153141,-13.873949579831928,-1.2574257425742528,5.462365591397834,-5.381355932203392,-19.27678571428571,-14.389162561576352,11.40074537261312,53.96542030436429,6.564436298784368,47.10157925829853,20.07778608082756,662.8906376866813,1
-9.214430072756677,3.7028711328733577,-6.776007690723064,-49.75447941888626,103.13084112149532,-122.95089027447452,84.88170469220836,2.490196078431378,13.729729729729744,3.201680672268914,-16.34653465346534,-28.677419354838722,-1.7763568394002505e-15,-13.607142857142854,-8.133004926108372,10.773213533998167,88.19485102681267,6.564436298784368,47.10157925829853,20.07778608082756,662.8906376866813,1
-13.475141471301542,-0.14133095926997585,-7.369017372794066,-46.371912832929866,101.84112149532707,-123.11416082792313,85.25346534653465,2.490196078431378,13.729729729729744,3.201680672268914,-16.34653465346534,-28.677419354838722,-1.7763568394002505e-15,-13.607142857142854,-8.133004926108372,10.773213533998167,88.19485102681267,6.995163267788528,44.552450861562995,17.960753721664638,618.4553342572822,1
-13.475141471301542,-0.14133095926997585,-7.369017372794066,-46.371912832929866,101.84112149532707,-123.11416082792313,85.25346534653465,4.980392156862749,16.018018018018033,9.605042016806728,-28.920792079207917,-64.18279569892474,-16.144067796610173,-19.27678571428571,-19.394088669950737,22.31524776883335,336.29647451193904,6.995163267788528,44.552450861562995,17.960753721664638,618.4553342572822,1
-13.475141471301542,-0.14133095926997585,-7.369017372794066,-46.371912832929866,101.84112149532707,-123.11416082792313,85.25346534653465,-19.921568627450974,-8.009009009008997,13.873949579831937,28.920792079207928,30.043010752688154,3.228813559322031,-9.07142857142857,-14.389162561576352,15.932216842564369,94.51058468659802,6.995163267788528,44.552450861562995,17.960753721664638,618.4553342572822,1
-11.319118835893297,5.003115958157133,-8.781775733022041,-42.989346246973355,100.70093457943925,-122.95089027447452,85.82204046491606,-19.921568627450974,-8.009009009008997,13.873949579831937,28.920792079207928,30.043010752688154,3.228813559322031,-9.07142857142857,-14.389162561576352,15.932216842564369,94.51058468659802,8.368003509024158,77.14611627188991,18.924745979384173,437.8983069526854,1
-11.319118835893297,5.003115958157133,-8.781775733022041,-42.989346246973355,100.70093457943925,-122.95089027447452,85.82204046491606,-39.843137254901954,-18.306306306306297,-5.336134453781508,3.7722772277227765,-5.462365591397864,-21.525423728813564,-18.142857142857142,-23.147783251231523,16.94203561962658,146.74353072892913,8.368003509024158,77.14611627188991,18.924745979384173,437.8983069526854,1
-11.319118835893297,5.003115958157133,-8.781775733022041,-42.989346246973355,100.70093457943925,-122.95089027447452,85.82204046491606,-12.450980392156858,2.2882882882883013,-52.29411764705882,-18.861386138613856,-19.118279569892486,-11.83898305084746,-18.142857142857142,-18.14285714285714,19.14221867157151,211.8985974587851,8.368003509024158,77.14611627188991,18.924745979384173,437.8983069526854,1
-7.1097413096200555,19.305809036278657,-9.56664148870425,-39.299273607748205,99.85981308411213,-121.8733046217137,86.82798105897547,-12.450980392156858,2.2882882882883013,-52.29411764705882,-18.861386138613856,-19.118279569892486,-11.83898305084746,-18.142857142857142,-18.14285714285714,19.14221867157151,211.8985974587851,11.994063944867653,256.23934298071316,22.723908044243704,229.76990380278983,1
-7.1097413096200555,19.305809036278657,-9.56664148870425,-39.299273607748205,99.85981308411213,-121.8733046217137,86.82798105897547,-24.901960784313722,2.2882882882883013,-41.62184873949579,-49.039603960396036,-53.258064516129046,-12.915254237288138,-19.27678571428571,-13.137931034482756,27.054967159334936,350.60855809964363,11.994063944867653,256.23934298071316,22.723908044243704,229.76990380278983,1
-7.1097413096200555,19.305809036278657,-9.56664148870425,-39.299273607748205,99.85981308411213,-121.8733046217137,86.82798105897547,-27.392156862745093,2.2882882882883013,-56.56302521008403,-6.287128712871283,-16.387096774193562,-1.7763568394002505e-15,-14.741071428571427,-11.88669950738916,16.943183348017858,332.14691232342295,11.994063944867653,256.23934298071316,22.723908044243704,229.76990380278983,1
-3.59337105901375,35.417538393055864,-9.636407333653779,-34.4406779661017,99.2056074766355,-119.60384392877805,88.14007748600949,-27.392156862745093,2.2882882882883013,-56.56302521008403,-6.287128712871283,-16.387096774193562,-1.7763568394002505e-15,-14.741071428571427,-11.88669950738916,16.943183348017858,332.14691232342295,16.215772261907798,598.037894873248,26.49820789760378,213.47880276725576,1
-3.59337105901375,35.417538393055864,-9.636407333653779,-34.4406779661017,99.2056074766355,-119.60384392877805,88.14007748600949,-32.37254901960784,-28.60360360360359,-56.56302521008403,-33.950495049504944,-49.161290322580655,-35.516949152542374,-26.08035714285714,-21.89655172413793,35.51810265311481,137.68646070523084,16.215772261907798,598.037894873248,26.49820789760378,213.47880276725576,1
-3.59337105901375,35.417538393055864,-9.636407333653779,-34.4406779661017,99.2056074766355,-119.60384392877805,88.14007748600949,-14.94117647058823,4.5765765765765885,-9.605042016806717,-1.2574257425742528,-72.37634408602152,-21.525423728813564,-24.94642857142857,-21.89655172413793,21.390621114618423,497.2878159451931,16.215772261907798,598.037894873248,26.49820789760378,213.47880276725576,1
-2.104688763136628,42.992877809926554,-14.36304332898441,-29.33607748184022,99.01869158878502,-116.38741402584046,88.88359879466208,-14.94117647058823,4.5765765765765885,-9.605042016806717,-1.2574257425742528,-72.37634408602152,-21.525423728813564,-24.94642857142857,-21.89655172413793,21.390621114618423,497.2878159451931,19.820203300682532,912.2932428611468,28.897332873583725,205.06122822499154,1
-2.104688763136628,42.992877809926554,-14.36304332898441,-29.33607748184022,99.01869158878502,-116.38741402584046,88.88359879466208,49.80392156862746,58.35135135135137,75.77310924369748,28.920792079207928,-4.096774193548402,16.144067796610166,6.803571428571431,16.89162561576355,32.098151659672226,689.9980673273787,19.820203300682532,912.2932428611468,28.897332873583725,205.06122822499154,1
-2.104688763136628,42.992877809926554,-14.36304332898441,-29.33607748184022,99.01869158878502,-116.38741402584046,88.88359879466208,-34.86274509803921,-28.60360360360359,-50.159663865546214,-3.7722772277227676,-31.408602150537646,-24.754237288135595,-34.01785714285714,-35.66009852216749,30.404885612326208,170.8960458074,19.820203300682532,912.2932428611468,28.897332873583725,205.06122822499154,1
-5.467057396928059,47.11974182060984,-27.025544187324037,-20.60290556900725,98.71962616822428,-111.39133509031305,87.50589754627637,-34.86274509803921,-28.60360360360359,-50.159663865546214,-3.7722772277227676,-31.408602150537646,-24.754237288135595,-34.01785714285714,-35.66009852216749,30.404885612326208,170.8960458074,26.537447801620647,1454.6105403059396,31.582730525647047,191.36161169022472,1
-5.467057396928059,47.11974182060984,-27.025544187324037,-20.60290556900725,98.71962616822428,-111.39133509031305,87.50589754627637,12.450980392156865,32.03603603603605,50.15966386554622,11.31683168316832,-30.043010752688186,-5.381355932203392,-9.07142857142857,0.6256157635468007,18.885615374596803,283.75557566078453,26.537447801620647,1454.6105403059396,31.582730525647047,191.36161169022472,1
-5.467057396928059,47.11974182060984,-27.025544187324037,-20.60290556900725,98.71962616822428,-111.39133509031305,87.50589754627637,-49.803921568627445,-48.05405405405404,-43.756302521008394,23.891089108910897,12.290322580645146,-21.525423728813564,-27.21428571428571,-21.89655172413793,31.053993875060392,199.2412570304958,26.537447801620647,1454.6105403059396,31.582730525647047,191.36161169022472,1
-6.827405012126119,56.84331181838415,-39.42642312710293,-14.944794188862033,99.42990654205606,-106.32994793340619,85.69083082221266,-49.803921568627445,-48.05405405405404,-43.756302521008394,23.891089108910897,12.290322580645146,-21.525423728813564,-27.21428571428571,-21.89655172413793,31.053993875060392,199.2412570304958,34.365713319204396,2397.4196717076575,37.0715097114497,443.0306577842616,1
-6.827405012126119,56.84331181838415,-39.42642312710293,-14.944794188862033,99.42990654205606,-106.32994793340619,85.69083082221266,-24.901960784313722,-25.17117117117116,-109.92436974789915,21.376237623762382,36.870967741935466,3.228813559322031,-11.339285714285712,-13.137931034482756,30.743842172146547,1129.0876554300262,34.365713319204396,2397.4196717076575,37.0715097114497,443.0306577842616,1
-6.827405012126119,56.84331181838415,-39.42642312710293,-14.944794188862033,99.42990654205606,-106.32994793340619,85.69083082221266,-44.8235294117647,-35.46846846846846,-35.218487394957975,-46.52475247524752,-10.924731182795714,-8.610169491525426,-14.741071428571427,-26.901477832512313,27.901585960730444,225.50585217574863,34.365713319204396,2397.4196717076575,37.0715097114497,443.0306577842616,1
-36.67805173807599,64.0229245492989,-51.059877772437,-0.5535108958838464,97.65420560747661,-100.17464806839365,81.14222987516143,-44.8235294117647,-35.46846846846846,-35.218487394957975,-46.52475247524752,-10.924731182795714,-8.610169491525426,-14.741071428571427,-26.901477832512313,27.901585960730444,225.50585217574863,50.58695135327063,3931.9291559228013,38.545437739206584,1124.5500243860674,1
-36.67805173807599,64.0229245492989,-51.059877772437,-0.5535108958838464,97.65420560747661,-100.17464806839365,81.14222987516143,-27.392156862745093,4.5765765765765885,48.02521008403362,8.801980198019807,4.09677419354837,-2.152542372881358,-17.00892857142857,-30.655172413793103,17.838667659128312,265.6981004687244,50.58695135327063,3931.9291559228013,38.545437739206584,1124.5500243860674,1
-36.67805173807599,64.0229245492989,-51.059877772437,-0.5535108958838464,97.65420560747661,-100.17464806839365,81.14222987516143,-29.882352941176464,-24.027027027027017,-24.546218487394952,33.95049504950496,20.48387096774192,-8.610169491525426,-19.27678571428571,-18.14285714285714,22.3649721026892,59.764557891413354,50.58695135327063,3931.9291559228013,38.545437739206584,1124.5500243860674,1
-55.8512530315279,69.45003338526597,-65.34443452585319,19.188377723970916,94.36448598130839,-92.50093205630907,73.7288850624193,-29.882352941176464,-24.027027027027017,-24.546218487394952,33.95049504950496,20.48387096774192,-8.610169491525426,-19.27678571428571,-18.14285714285714,22.3649721026892,59.764557891413354,63.54857364754901,5660.013575338223,51.327615211696695,778.9119252179312,1
-55.8512530315279,69.45003338526597,-65.34443452585319,19.188377723970916,94.36448598130839,-92.50093205630907,73.7288850624193,-39.843137254901954,-32.03603603603602,-52.29411764705882,-38.980198019801975,-49.161290322580655,-17.22033898305085,-24.94642857142857,-29.403940886699505,35.48568596519479,142.04729728704638,63.54857364754901,5660.013575338223,51.327615211696695,778.9119252179312,1
-55.8512530315279,69.45003338526597,-65.34443452585319,19.188377723970916,94.36448598130839,-92.50093205630907,73.7288850624193,-24.901960784313722,-3.43243243243242,-26.680672268907557,-61.61386138613861,-58.720430107526894,-13.991525423728817,-23.8125,-20.645320197044335,29.224837825011544,420.6289088194787,63.54857364754901,5660.013575338223,51.327615211696695,778.9119252179312,1
-68.14571544058205,91.61072779879812,-75.8441941907574,41.882324455205776,89.71028037383176,-82.90062351353089,65.02531209642704,-24.901960784313722,-3.43243243243242,-26.680672268907557,-61.61386138613861,-58.720430107526894,-13.991525423728817,-23.8125,-20.645320197044335,29.224837825011544,420.6289088194787,78.53354581004587,8937.089771682055,69.77908214825376,645.8177128418437,1
-68.14571544058205,91.61072779879812,-75.8441941907574,41.882324455205776,89.71028037383176,-82.90062351353089,65.02531209642704,-67.23529411764706,-58.35135135135134,-90.71428571428571,21.376237623762382,-4.096774193548402,-19.372881355932208,-28.348214285714285,-30.655172413793103,40.01877638200431,847.8461974350214,78.53354581004587,8937.089771682055,69.77908214825376,645.8177128418437,1
-68.14571544058205,91.61072779879812,-75.8441941907574,41.882324455205776,89.71028037383176,-82.90062351353089,65.02531209642704,-39.843137254901954,-24.027027027027017,-35.218487394957975,-13.831683168316827,-13.655913978494638,-15.067796610169495,-17.00892857142857,-16.891625615763544,21.9430749526325,104.65653843967587,78.53354581004587,8937.089771682055,69.77908214825376,645.8177128418437,1
-73.3817704122878,109.13576674827509,-90.94849962233056,64.51476997578686,84.34579439252336,-71.0145272224722,54.17864829961258,-39.843137254901954,-24.027027027027017,-35.218487394957975,-13.831683168316827,-13.655913978494638,-15.067796610169495,-17.00892857142857,-16.891625615763544,21.9430749526325,104.65653843967587,91.1553455942978,12275.825832559985,88.19967878213083,503.4253502512384,1
-73.3817704122878,109.13576674827509,-90.94849962233056,64.51476997578686,84.34579439252336,-71.0145272224722,54.17864829961258,-49.803921568627445,-40.045045045045036,-71.50420168067225,-8.801980198019798,8.193548387096758,-1.7763568394002505e-15,-14.741071428571427,-25.65024630541872,27.34250182668143,605.1187511566048,91.1553455942978,12275.825832559985,88.19967878213083,503.4253502512384,1
-73.3817704122878,109.13576674827509,-90.94849962233056,64.51476997578686,84.34579439252336,-71.0145272224722,54.17864829961258,7.105427357601002e-15,13.729729729729744,-11.739495798319322,-13.831683168316827,-9.55913978494625,-3.2288135593220364,-10.20535714285714,-10.635467980295564,9.116210895473362,24.551310656437796,91.1553455942978,12275.825832559985,88.19967878213083,503.4253502512384,1
-78.36115602263541,117.95481860672156,-105.5818856004944,85.48668280871664,78.0093457943925,-57.250819566754515,40.9046061127852,7.105427357601002e-15,13.729729729729744,-11.739495798319322,-13.831683168316827,-9.55913978494625,-3.2288135593220364,-10.20535714285714,-10.635467980295564,9.116210895473362,24.551310656437796,100.63262007661712,14874.931356874937,103.00779567197753,268.51441476949117,1
-78.36115602263541,117.95481860672156,-105.5818856004944,85.48668280871664,78.0093457943925,-57.250819566754515,40.9046061127852,-27.392156862745093,-18.306306306306297,-26.680672268907557,13.831683168316836,-1.5987211554602254e-14,-11.83898305084746,-18.142857142857142,-16.891625615763544,16.63553555196799,75.62118518346594,100.63262007661712,14874.931356874937,103.00779567197753,268.51441476949117,1
-78.36115602263541,117.95481860672156,-105.5818856004944,85.48668280871664,78.0093457943925,-57.250819566754515,40.9046061127852,-34.86274509803921,-25.17117117117116,-77.90756302521008,-3.7722772277227676,-19.118279569892486,-15.067796610169495,-21.544642857142854,-24.39901477832512,27.73043629220915,490.43302809310546,100.63262007661712,14874.931356874937,103.00779567197753,268.51441476949117,1
-82.39086499595797,124.90830180280437,-114.77353567259493,102.15351089588376,70.90654205607474,-43.07893552741532,26.843306069737416,-34.86274509803921,-25.17117117117116,-77.90756302521008,-3.7722772277227676,-19.118279569892486,-15.067796610169495,-21.544642857142854,-24.39901477832512,27.73043629220915,490.43302809310546,107.35756749045242,16911.49418853272,113.94511612376103,129.95983651608694,1
-82.39086499595797,124.90830180280437,-114.77353567259493,102.15351089588376,70.90654205607474,-43.07893552741532,26.843306069737416,-27.392156862745093,-14.873873873873862,-33.08403361344537,-8.801980198019798,-19.118279569892486,-10.762711864406782,-13.607142857142854,-10.635467980295564,17.284455852477727,76.16904292920586,107.35756749045242,16911.49418853272,113.94511612376103,129.95983651608694,1
-82.39086499595797,124.90830180280437,-114.77353567259493,102.15351089588376,70.90654205607474,-43.07893552741532,26.843306069737416,-34.86274509803921,-10.297297297297286,-35.218487394957975,-31.435643564356432,-31.408602150537646,-20.449152542372886,-30.616071428571427,-35.66009852216749,28.743512249787543,79.16078307806302,107.35756749045242,16911.49418853272,113.94511612376103,129.95983651608694,1
-88.8589329021827,124.90830180280437,-117.73858408294994,115.43777239709436,62.30841121495327,-28.613164491868616,12.300904003443833,-34.86274509803921,-10.297297297297286,-35.218487394957975,-31.435643564356432,-31.408602150537646,-20.449152542372886,-30.616071428571427,-35.66009852216749,28.743512249787543,79.16078307806302,110.50193959597901,17567.99601929902,119.36155276094956,24.39825230343037,1
-88.8589329021827,124.90830180280437,-117.73858408294994,115.43777239709436,62.30841121495327,-28.613164491868616,12.300904003443833,-14.94117647058823,-8.009009009008997,-28.81512605042016,11.31683168316832,-24.580645161290334,-13.991525423728817,-18.142857142857142,-16.891625615763544,17.086099569603192,46.3925631052305,110.50193959597901,17567.99601929902,119.36155276094956,24.39825230343037,1
-88.8589329021827,124.90830180280437,-117.73858408294994,115.43777239709436,62.30841121495327,-28.613164491868616,12.300904003443833,-7.470588235294112,-3.43243243243242,-9.605042016806717,21.376237623762382,15.02150537634407,-1.07627118644068,-9.07142857142857,-3.1280788177339875,8.772698032530368,45.71278268168443,110.50193959597901,17567.99601929902,119.36155276094956,24.39825230343037,1
-90.19361358124496,116.20231471177387,-123.16287852777587,123.80193704600481,52.68224299065419,-14.131066400977055,-3.378648299612557,-7.470588235294112,-3.43243243243242,-9.605042016806717,21.376237623762382,15.02150537634407,-1.07627118644068,-9.07142857142857,-3.1280788177339875,8.772698032530368,45.71278268168443,109.85293560693157,16830.32456360975,121.05571009518485,17.76868400821653,1
-90.19361358124496,116.20231471177387,-123.16287852777587,123.80193704600481,52.68224299065419,-14.131066400977055,-3.378648299612557,-22.411764705882348,-4.5765765765765645,-24.546218487394952,-8.801980198019798,-23.215053763440874,-21.525423728813564,-18.142857142857142,-19.394088669950737,17.826745409116995,52.636808766718296,109.85293560693157,16830.32456360975,121.05571009518485,17.76868400821653,1
-90.19361358124496,116.20231471177387,-123.16287852777587,123.80193704600481,52.68224299065419,-14.131066400977055,-3.378648299612557,-22.411764705882348,-9.153153153153141,-24.546218487394952,1.257425742574262,-2.73118279569894,-7.5338983050847474,-12.473214285714285,-14.389162561576352,11.81200250463488,71.54660043223173,109.85293560693157,16830.32456360975,121.05571009518485,17.76868400821653,1
-90.65561843168958,110.8882706432228,-127.0,127.0,41.26168224299063,1.1020762357780995,-20.392165303486863,-22.411764705882348,-9.153153153153141,-24.546218487394952,1.257425742574262,-2.73118279569894,-7.5338983050847474,-12.473214285714285,-14.389162561576352,11.81200250463488,71.54660043223173,109.51462969163747,16421.947100774458,121.62942354774093,86.52927428867879,1
-90.65561843168958,110.8882706432228,-127.0,127.0,41.26168224299063,1.1020762357780995,-20.392165303486863,-37.35294117647058,-25.17117117117116,-60.83193277310924,-13.831683168316827,-9.55913978494625,-13.991525423728817,-20.410714285714285,-20.645320197044335,25.224303497562687,280.0731603067664,109.51462969163747,16421.947100774458,121.62942354774093,86.52927428867879,1
-90.65561843168958,110.8882706432228,-127.0,127.0,41.26168224299063,1.1020762357780995,-20.392165303486863,-27.392156862745093,-8.009009009008997,-7.470588235294112,6.287128712871292,-1.5987211554602254e-14,-4.305084745762714,-17.00892857142857,-18.14285714285714,11.07696915999599,80.74555198334394,109.51462969163747,16421.947100774458,121.62942354774093,86.52927428867879,1
-99.30537590945838,118.40707767638548,-122.7268419968413,126.01598062953985,28.17757009345793,16.220929485119235,-35.721825226000846,-27.392156862745093,-8.009009009008997,-7.470588235294112,6.287128712871292,-1.5987211554602254e-14,-4.305084745762714,-17.00892857142857,-18.14285714285714,11.07696915999599,80.74555198334394,113.47976519422839,17682.140789504138,122.38330010092221,14.562366813319086,1
-99.30537590945838,118.40707767638548,-122.7268419968413,126.01598062953985,28.17757009345793,16.220929485119235,-35.721825226000846,-14.94117647058823,-1.144144144144132,5.3361344537815185,-23.891089108910887,-32.77419354838711,-33.364406779661024,-28.348214285714285,-10.635467980295564,18.804353346435345,157.00606950004823,113.47976519422839,17682.140789504138,122.38330010092221,14.562366813319086,1
-99.30537590945838,118.40707767638548,-122.7268419968413,126.01598062953985,28.17757009345793,16.220929485119235,-35.721825226000846,-22.411764705882348,-5.720720720720709,-18.14285714285714,11.31683168316832,9.559139784946222,-6.45762711864407,-20.410714285714285,-21.89655172413793,14.489525895758877,48.83017692416609,113.47976519422839,17682.140789504138,122.38330010092221,14.562366813319086,1
-110.49616006467261,127.0,-115.87234773055002,121.8953995157384,14.140186915887838,30.409140579803307,-47.96805854498493,-22.411764705882348,-5.720720720720709,-18.14285714285714,11.31683168316832,9.559139784946222,-6.45762711864407,-20.410714285714285,-21.89655172413793,14.489525895758877,48.83017692416609,117.78950259840754,19236.71778857209,121.58924908209615,31.02645732346334,1
-110.49616006467261,127.0,-115.87234773055002,121.8953995157384,14.140186915887838,30.409140579803307,-47.96805854498493,-27.392156862745093,-12.585585585585573,-33.08403361344537,1.257425742574262,-9.55913978494625,-5.381355932203392,-12.473214285714285,-13.137931034482756,14.358855355212123,114.85289377787832,117.78950259840754,19236.71778857209,121.58924908209615,31.02645732346334,1
-110.49616006467261,127.0,-115.87234773055002,121.8953995157384,14.140186915887838,30.409140579803307,-47.96805854498493,-22.411764705882348,-9.153153153153141,-20.277310924369743,-6.287128712871283,-24.580645161290334,-10.762711864406782,-15.874999999999998,-16.891625615763544,15.779917517217147,43.15786928798587,117.78950259840754,19236.71778857209,121.58924908209615,31.02645732346334,1
-115.96321746160065,121.177164478077,-113.65728215340246,113.9002421307506,-1.4112149532710418,44.058558848106955,-59.36142918639689,-22.411764705882348,-9.153153153153141,-20.277310924369743,-6.287128712871283,-24.580645161290334,-10.762711864406782,-15.874999999999998,-16.891625615763544,15.779917517217147,43.15786928798587,116.93255469769338,18564.682568142496,116.24489625407669,18.260209762760667,1
-115.96321746160065,121.177164478077,-113.65728215340246,113.9002421307506,-1.4112149532710418,44.058558848106955,-59.36142918639689,-14.94117647058823,3.432432432432446,-9.605042016806717,1.257425742574262,-4.096774193548402,-6.45762711864407,-14.741071428571427,-18.14285714285714,9.084300818252837,39.08701235483568,116.93255469769338,18564.682568142496,116.24489625407669,18.260209762760667,1
-115.96321746160065,121.177164478077,-113.65728215340246,113.9002421307506,-1.4112149532710418,44.058558848106955,-59.36142918639689,-17.431372549019603,-10.297297297297286,-41.62184873949579,-23.891089108910887,-27.311827956989262,-9.686440677966104,-13.607142857142854,-14.389162561576352,19.779522718549767,116.45411077201683,116.93255469769338,18564.682568142496,116.24489625407669,18.260209762760667,1
-111.62550525464835,114.73247273536613,-112.94218224266977,100.3699757869249,-17.224299065420567,56.84264318313299,-70.47051226861815,-17.431372549019603,-10.297297297297286,-41.62184873949579,-23.891089108910887,-27.311827956989262,-9.686440677966104,-13.607142857142854,-14.389162561576352,19.779522718549767,116.45411077201683,113.10005341089476,17179.236059564395,109.34821025498694,61.25780563468264,1
-111.62550525464835,114.73247273536613,-112.94218224266977,100.3699757869249,-17.224299065420567,56.84264318313299,-70.47051226861815,-22.411764705882348,-11.44144144144143,-26.680672268907557,-8.801980198019798,-10.924731182795714,-7.5338983050847474,-21.544642857142854,-16.891625615763544,15.778844571879748,50.90849232875769,113.10005341089476,17179.236059564395,109.34821025498694,61.25780563468264,1
-111.62550525464835,114.73247273536613,-112.94218224266977,100.3699757869249,-17.224299065420567,56.84264318313299,-70.47051226861815,-24.901960784313722,-2.2882882882882765,-11.739495798319322,1.257425742574262,-12.290322580645176,-10.762711864406782,-18.142857142857142,-16.891625615763544,12.284335977146029,62.69711273674683,113.10005341089476,17179.236059564395,109.34821025498694,61.25780563468264,1
-112.16451091350041,107.60939238815936,-111.35500927006798,82.28861985472156,-33.52336448598132,68.8430288616057,-80.70486439948341,-24.901960784313722,-2.2882882882882765,-11.739495798319322,1.257425742574262,-12.290322580645176,-10.762711864406782,-18.142857142857142,-16.891625615763544,12.284335977146029,62.69711273674683,110.37630419057592,16041.105509817256,100.41767383764964,250.00436019344994,1
-112.16451091350041,107.60939238815936,-111.35500927006798,82.28861985472156,-33.52336448598132,68.8430288616057,-80.70486439948341,-29.882352941176464,-12.585585585585573,-26.680672268907557,-11.316831683168312,-13.655913978494638,-5.381355932203392,-15.874999999999998,-24.39901477832512,17.47209089598263,73.12282529847887,110.37630419057592,16041.105509817256,100.41767383764964,250.00436019344994,1
-112.16451091350041,107.60939238815936,-111.35500927006798,82.28861985472156,-33.52336448598132,68.8430288616057,-80.70486439948341,-12.450980392156858,-1.144144144144132,5.3361344537815185,23.891089108910897,30.043010752688154,1.0762711864406764,-12.473214285714285,-9.384236453201968,11.97488509712981,107.97104096162369,110.37630419057592,16041.105509817256,100.41767383764964,250.00436019344994,1
-126.56366208569119,99.41219675050078,-106.82022934834855,61.50121065375299,-51.78504672897197,80.43523815645689,-88.73052087817476,-12.450980392156858,-1.144144144144132,5.3361344537815185,23.891089108910897,30.043010752688154,1.0762711864406764,-12.473214285714285,-9.384236453201968,11.97488509712981,107.97104096162369,110.93202939484684,15664.450914604313,89.24454558420076,590.9892115399468,1
-126.56366208569119,99.41219675050078,-106.82022934834855,61.50121065375299,-51.78504672897197,80.43523815645689,-88.73052087817476,-44.8235294117647,-26.315315315315306,-39.487394957983184,-21.37623762376237,-46.430107526881734,-21.525423728813564,-31.75,-30.655172413793103,32.795397622289244,97.20550147668916,110.93202939484684,15664.450914604313,89.24454558420076,590.9892115399468,1
-126.56366208569119,99.41219675050078,-106.82022934834855,61.50121065375299,-51.78504672897197,80.43523815645689,-88.73052087817476,-19.921568627450974,-4.5765765765765645,-16.008403361344534,-8.801980198019798,-19.118279569892486,-12.915254237288138,-11.339285714285712,-13.137931034482756,13.22740991491762,26.477119567235256,110.93202939484684,15664.450914604313,89.24454558420076,590.9892115399468,1
-127.0,99.8079234364567,-98.5529767218293,36.90072639225173,-69.99065420560748,91.3906922928585,-94.6349547998278,-19.921568627450974,-4.5765765765765645,-16.008403361344534,-8.801980198019798,-19.118279569892486,-12.915254237288138,-11.339285714285712,-13.137931034482756,13.22740991491762,26.477119567235256,108.45363338609532,15266.352329758647,78.42054218351257,1293.3150503193137,1
-127.0,99.8079234364567,-98.5529767218293,36.90072639225173,-69.99065420560748,91.3906922928585,-94.6349547998278,-9.960784313725485,-6.8648648648648525,-22.411764705882348,21.376237623762382,6.827956989247294,-1.07627118644068,-15.874999999999998,0.6256157635468007,10.627311930933729,71.74894733074915,108.45363338609532,15266.352329758647,78.42054218351257,1293.3150503193137,1
-127.0,99.8079234364567,-98.5529767218293,36.90072639225173,-69.99065420560748,91.3906922928585,-94.6349547998278,-27.392156862745093,-12.585585585585573,-30.949579831932766,-16.34653465346534,-17.752688172043026,-11.83898305084746,-26.08035714285714,-26.901477832512313,21.23092039149859,55.28443699977585,108.45363338609532,15266.352329758647,78.42054218351257,1293.3150503193137,1
-115.70654810024253,98.73380814600489,-88.99505596374374,8.979176755447952,-86.60747663551402,101.33386899787875,-99.03047783039173,-27.392156862745093,-12.585585585585573,-30.949579831932766,-16.34653465346534,-17.752688172043026,-11.83898305084746,-26.08035714285714,-26.901477832512313,21.23092039149859,55.28443699977585,101.14513740333037,13656.716103185365,65.56934695506553,2425.546345933138,1
-115.70654810024253,98.73380814600489,-88.99505596374374,8.979176755447952,-86.60747663551402,101.33386899787875,-99.03047783039173,-9.960784313725485,-4.5765765765765645,-22.411764705882348,21.376237623762382,40.96774193548385,26.906779661016948,26.080357142857146,15.64039408866995,20.990079505996835,125.98044787249566,101.14513740333037,13656.716103185365,65.56934695506553,2425.546345933138,1
-115.70654810024253,98.73380814600489,-88.99505596374374,8.979176755447952,-86.60747663551402,101.33386899787875,-99.03047783039173,-47.31372549019608,-20.594594594594582,-52.29411764705882,-16.34653465346534,-46.430107526881734,-32.288135593220346,-64.63392857142857,-81.95566502463053,45.232101137684495,484.231490364416,101.14513740333037,13656.716103185365,65.56934695506553,2425.546345933138,1
-109.05881164106711,82.05675495214778,-81.5824349378562,-17.527845036319604,-101.78504672897196,109.17085556341196,-101.91708996986654,-47.31372549019608,-20.594594594594582,-52.29411764705882,-16.34653465346534,-46.430107526881734,-32.288135593220346,-64.63392857142857,-81.95566502463053,45.232101137684495,484.231490364416,90.89933384369037,10676.31592313985,60.38901164210787,1377.8659469758434,1
-109.05881164106711,82.05675495214778,-81.5824349378562,-17.527845036319604,-101.78504672897196,109.17085556341196,-101.91708996986654,12.450980392156865,2.2882882882883013,-1.0672268907562987,56.584158415841586,51.892473118279554,46.27966101694915,-57.83035714285714,29.40394088669951,32.22463576897855,585.6185237784232,90.89933384369037,10676.31592313985,60.38901164210787,1377.8659469758434,1
-109.05881164106711,82.05675495214778,-81.5824349378562,-17.527845036319604,-101.78504672897196,109.17085556341196,-101.91708996986654,-47.31372549019608,-20.594594594594582,-50.159663865546214,-38.980198019801975,-30.043010752688186,-43.05084745762712,-45.357142857142854,-43.16748768472906,39.833333840290756,97.32544963842643,90.89933384369037,10676.31592313985,60.38901164210787,1377.8659469758434,1
-95.17299919159257,75.27286890718896,-75.86163565199479,-44.40387409200969,-115.14953271028037,115.60371536928714,-104.51941455015066,-47.31372549019608,-20.594594594594582,-50.159663865546214,-38.980198019801975,-30.043010752688186,-43.05084745762712,-45.357142857142854,-43.16748768472906,39.833333840290756,97.32544963842643,82.10250125025878,8711.060197009278,65.17945955039782,323.80537492403846,1
-95.17299919159257,75.27286890718896,-75.86163565199479,-44.40387409200969,-115.14953271028037,115.60371536928714,-104.51941455015066,12.450980392156865,1.1441441441441569,-9.605042016806717,36.46534653465347,79.2043010752688,83.94915254237289,123.59821428571429,85.70935960591133,54.015817574628564,2025.720048945459,82.10250125025878,8711.060197009278,65.17945955039782,323.80537492403846,1
-95.17299919159257,75.27286890718896,-75.86163565199479,-44.40387409200969,-115.14953271028037,115.60371536928714,-104.51941455015066,-49.803921568627445,-10.297297297297286,-33.08403361344537,-16.34653465346534,-58.720430107526894,-65.65254237288136,-86.17857142857143,-118.24137931034483,54.790588794019996,1299.7533763014992,82.10250125025878,8711.060197009278,65.17945955039782,323.80537492403846,1
-54.13156831042846,91.83685733363009,-71.85009956739682,-72.6944309927361,-123.89719626168224,120.4038696406762,-109.8334050796384,-49.803921568627445,-10.297297297297286,-33.08403361344537,-16.34653465346534,-58.720430107526894,-65.65254237288136,-86.17857142857143,-118.24137931034483,54.790588794019996,1299.7533763014992,72.60617507048512,8069.024582404644,78.79379596458767,127.76931129640889,1
-54.13156831042846,91.83685733363009,-71.85009956739682,-72.6944309927361,-123.89719626168224,120.4038696406762,-109.8334050796384,-9.960784313725485,-3.43243243243242,-24.546218487394952,23.891089108910897,34.13978494623654,-8.610169491525426,44.223214285714285,11.886699507389167,20.086299071666147,199.03867942921968,72.60617507048512,8069.024582404644,78.79379596458767,127.76931129640889,1
-54.13156831042846,91.83685733363009,-71.85009956739682,-72.6944309927361,-123.89719626168224,120.4038696406762,-109.8334050796384,39.84313725490197,6.864864864864877,-11.739495798319322,1.257425742574262,-27.311827956989262,33.36440677966102,126.99999999999999,127.00000000000001,46.797644799663836,2624.4231361099287,72.60617507048512,8069.024582404644,78.79379596458767,127.76931129640889,1
-12.936135812449482,123.04273314044069,-61.54219597610382,-101.29249394673127,-127.0,124.2080735360288,-117.29048643994832,39.84313725490197,6.864864864864877,-11.739495798319322,1.257425742574262,-27.311827956989262,33.36440677966102,126.99999999999999,127.00000000000001,46.797644799663836,2624.4231361099287,65.84035497633133,9154.066323883302,95.29247435442527,972.5791942065371,1
-12.936135812449482,123.04273314044069,-61.54219597610382,-101.29249394673127,-127.0,124.2080735360288,-117.29048643994832,-44.8235294117647,-18.306306306306297,-39.487394957983184,-46.52475247524752,-92.86021505376345,-21.525423728813564,-37.419642857142854,-95.7192118226601,49.58330957671021,864.1143534804221,65.84035497633133,9154.066323883302,95.29247435442527,972.5791942065371,1
-12.936135812449482,123.04273314044069,-61.54219597610382,-101.29249394673127,-127.0,124.2080735360288,-117.29048643994832,2.490196078431378,3.432432432432446,-11.739495798319322,8.801980198019807,-13.655913978494638,3.228813559322031,11.339285714285715,34.40886699507389,11.137123094297404,107.20685019441069,65.84035497633133,9154.066323883302,95.29247435442527,972.5791942065371,1
18.685529506871458,124.17338081460048,-38.58923298770857,-122.94092009685232,-124.70093457943926,126.68978594844764,-124.22272922944467,2.490196078431378,3.432432432432446,-11.739495798319322,8.801980198019807,-13.655913978494638,3.228813559322031,11.339285714285715,34.40886699507389,11.137123094297404,107.20685019441069,60.48271443639351,6816.6256073486165,95.23451129972045,2406.8954061391614,1
18.685529506871458,124.17338081460048,-38.58923298770857,-122.94092009685232,-124.70093457943926,126.68978594844764,-124.22272922944467,-49.803921568627445,-10.297297297297286,-18.14285714285714,-11.316831683168312,-25.9462365591398,-31.211864406779664,-75.97321428571428,-46.92118226600985,33.701675651199224,511.1699502540497,60.48271443639351,6816.6256073486165,95.23451129972045,2406.8954061391614,1
