,Gyro 0,Gyro 1,Gyro 2,Label,Orientation 0,Orientation 1,Orientation 2,Orientation 3,Sensor 0,Sensor 1,Sensor 2,Sensor 3,Sensor 4,Sensor 5,Sensor 6,Sensor 7,Timestamp
0,33.0,-14.0,1.0,0.0,7877.0,3221.0,-12296.0,-6696.0,-7.0,-5.0,-15.0,-3.0,4.0,-2.0,1.0,2.0,1.9073486328125e-06
1,33.0,-14.0,1.0,0.0,7877.0,3221.0,-12296.0,-6696.0,1.0,4.0,1.0,11.0,-5.0,2.0,6.0,1.0,0.003041505813598633
2,33.0,-14.0,1.0,0.0,7877.0,3221.0,-12296.0,-6696.0,-4.0,-5.0,-7.0,7.0,9.0,2.0,-1.0,-3.0,0.005925416946411133
3,48.0,-3.0,3.0,0.0,7879.0,3222.0,-12298.0,-6689.0,-4.0,-5.0,-7.0,7.0,9.0,2.0,-1.0,-3.0,0.0085296630859375
4,48.0,-3.0,3.0,0.0,7879.0,3222.0,-12298.0,-6689.0,3.0,0.0,8.0,-6.0,-12.0,-21.0,4.0,2.0,0.010891914367675781
5,20.0,-10.0,3.0,0.0,7878.0,3222.0,-12301.0,-6685.0,3.0,0.0,8.0,-6.0,-12.0,-21.0,4.0,2.0,0.013213872909545898
6,20.0,-10.0,3.0,0.0,7878.0,3222.0,-12301.0,-6685.0,-4.0,-15.0,-35.0,2.0,3.0,3.0,-1.0,-3.0,0.01555943489074707
7,20.0,-10.0,3.0,0.0,7878.0,3222.0,-12301.0,-6685.0,2.0,-3.0,-4.0,5.0,2.0,15.0,-4.0,-2.0,0.017828941345214844
8,-54.0,-12.0,-4.0,0.0,7879.0,3215.0,-12298.0,-6691.0,2.0,-3.0,-4.0,5.0,2.0,15.0,-4.0,-2.0,0.020168781280517578
9,-54.0,-12.0,-4.0,0.0,7879.0,3215.0,-12298.0,-6691.0,-2.0,-8.0,6.0,0.0,-15.0,-22.0,-4.0,-1.0,0.023363828659057617
10,-54.0,-12.0,-4.0,0.0,7879.0,3215.0,-12298.0,-6691.0,0.0,5.0,7.0,-2.0,-17.0,-2.0,-2.0,1.0,0.026185274124145508
11,-40.0,8.0,21.0,0.0,7883.0,3209.0,-12297.0,-6693.0,0.0,5.0,7.0,-2.0,-17.0,-2.0,-2.0,1.0,0.028863906860351562
12,-40.0,8.0,21.0,0.0,7883.0,3209.0,-12297.0,-6693.0,3.0,4.0,5.0,-3.0,8.0,4.0,-4.0,0.0,0.031304359436035156
13,-40.0,8.0,21.0,0.0,7883.0,3209.0,-12297.0,-6693.0,-6.0,-8.0,24.0,-1.0,-14.0,-1.0,-1.0,-1.0,0.033533334732055664
14,-11.0,22.0,34.0,0.0,7885.0,3208.0,-12297.0,-6690.0,-6.0,-8.0,24.0,-1.0,-14.0,-1.0,-1.0,-1.0,0.03579306602478027
15,-11.0,22.0,34.0,0.0,7885.0,3208.0,-12297.0,-6690.0,1.0,7.0,0.0,-12.0,12.0,9.0,19.0,9.0,0.038102149963378906
16,-11.0,22.0,34.0,0.0,7885.0,3208.0,-12297.0,-6690.0,6.0,-2.0,-24.0,1.0,1.0,-17.0,-4.0,-4.0,0.04033923149108887
17,-40.0,26.0,32.0,0.0,7891.0,3203.0,-12294.0,-6692.0,6.0,-2.0,-24.0,1.0,1.0,-17.0,-4.0,-4.0,0.042574167251586914
18,-40.0,26.0,32.0,0.0,7891.0,3203.0,-12294.0,-6692.0,-3.0,-1.0,11.0,-3.0,-1.0,-4.0,0.0,-1.0,0.0449070930480957
19,-40.0,26.0,32.0,0.0,7891.0,3203.0,-12294.0,-6692.0,-3.0,4.0,2.0,-7.0,-8.0,-3.0,1.0,1.0,0.04715228080749512
20,-24.0,30.0,24.0,0.0,7895.0,3201.0,-12292.0,-6692.0,-3.0,4.0,2.0,-7.0,-8.0,-3.0,1.0,1.0,0.04938983917236328
21,-24.0,30.0,24.0,0.0,7895.0,3201.0,-12292.0,-6692.0,4.0,7.0,9.0,-8.0,20.0,1.0,0.0,1.0,0.05172848701477051
22,-24.0,30.0,24.0,0.0,7895.0,3201.0,-12292.0,-6692.0,2.0,12.0,25.0,-10.0,-11.0,-15.0,-4.0,-3.0,0.05424690246582031
23,-3.0,39.0,16.0,0.0,7898.0,3204.0,-12290.0,-6689.0,2.0,12.0,25.0,-10.0,-11.0,-15.0,-4.0,-3.0,0.05676078796386719
24,-3.0,39.0,16.0,0.0,7898.0,3204.0,-12290.0,-6689.0,-4.0,-12.0,-3.0,-13.0,-13.0,-7.0,-5.0,-5.0,0.05933427810668945
25,-3.0,39.0,16.0,0.0,7898.0,3204.0,-12290.0,-6689.0,0.0,-4.0,-33.0,-10.0,-1.0,12.0,4.0,1.0,0.061588287353515625
26,12.0,55.0,18.0,0.0,7903.0,3209.0,-12289.0,-6683.0,0.0,-4.0,-33.0,-10.0,-1.0,12.0,4.0,1.0,0.06384730339050293
27,12.0,55.0,18.0,0.0,7903.0,3209.0,-12289.0,-6683.0,-2.0,1.0,0.0,9.0,2.0,4.0,-12.0,-7.0,0.06635832786560059
28,12.0,55.0,18.0,0.0,7903.0,3209.0,-12289.0,-6683.0,2.0,-5.0,-17.0,-2.0,-14.0,-6.0,0.0,0.0,0.06864094734191895
29,41.0,58.0,23.0,0.0,7906.0,3217.0,-12290.0,-6674.0,2.0,-5.0,-17.0,-2.0,-14.0,-6.0,0.0,0.0,0.07098937034606934
30,41.0,58.0,23.0,0.0,7906.0,3217.0,-12290.0,-6674.0,-2.0,-3.0,-2.0,-3.0,-1.0,-5.0,2.0,-1.0,0.07343125343322754
31,41.0,58.0,23.0,0.0,7906.0,3217.0,-12290.0,-6674.0,-2.0,2.0,12.0,-12.0,-23.0,-6.0,-2.0,0.0,0.07571530342102051
32,23.0,52.0,27.0,0.0,7910.0,3222.0,-12291.0,-6665.0,-2.0,2.0,12.0,-12.0,-23.0,-6.0,-2.0,0.0,0.07795405387878418
33,23.0,52.0,27.0,0.0,7910.0,3222.0,-12291.0,-6665.0,-4.0,-1.0,4.0,12.0,7.0,1.0,-8.0,-6.0,0.08026933670043945
34,23.0,52.0,27.0,0.0,7910.0,3222.0,-12291.0,-6665.0,7.0,8.0,2.0,0.0,26.0,8.0,-3.0,-3.0,0.08258485794067383
35,-7.0,55.0,33.0,0.0,7918.0,3222.0,-12288.0,-6662.0,7.0,8.0,2.0,0.0,26.0,8.0,-3.0,-3.0,0.08497238159179688
36,-7.0,55.0,33.0,0.0,7918.0,3222.0,-12288.0,-6662.0,2.0,6.0,10.0,7.0,-10.0,-4.0,-2.0,0.0,0.08764076232910156
37,-7.0,55.0,33.0,0.0,7918.0,3222.0,-12288.0,-6662.0,-4.0,-2.0,-2.0,12.0,10.0,0.0,-3.0,1.0,0.0904228687286377
38,29.0,55.0,28.0,0.0,7925.0,3227.0,-12286.0,-6655.0,-4.0,-2.0,-2.0,12.0,10.0,0.0,-3.0,1.0,0.09271788597106934
39,29.0,55.0,28.0,0.0,7925.0,3227.0,-12286.0,-6655.0,0.0,4.0,19.0,-1.0,0.0,2.0,-2.0,0.0,0.09503960609436035
40,29.0,55.0,28.0,0.0,7925.0,3227.0,-12286.0,-6655.0,1.0,4.0,-6.0,-3.0,-10.0,-3.0,-2.0,-1.0,0.09727358818054199
41,51.0,45.0,15.0,0.0,7928.0,3234.0,-12287.0,-6645.0,1.0,4.0,-6.0,-3.0,-10.0,-3.0,-2.0,-1.0,0.09955668449401855
42,51.0,45.0,15.0,0.0,7928.0,3234.0,-12287.0,-6645.0,-3.0,-3.0,-1.0,-3.0,12.0,-14.0,-2.0,-1.0,0.10189962387084961
43,51.0,45.0,15.0,0.0,7928.0,3234.0,-12287.0,-6645.0,-2.0,-3.0,13.0,9.0,30.0,18.0,2.0,0.0,0.10419869422912598
44,12.0,27.0,19.0,0.0,7928.0,3238.0,-12288.0,-6641.0,-2.0,-3.0,13.0,9.0,30.0,18.0,2.0,0.0,0.1064920425415039
45,12.0,27.0,19.0,0.0,7928.0,3238.0,-12288.0,-6641.0,1.0,-5.0,-9.0,-5.0,-13.0,-3.0,1.0,-2.0,0.1088104248046875
46,12.0,27.0,19.0,0.0,7928.0,3238.0,-12288.0,-6641.0,-5.0,-3.0,-3.0,4.0,-6.0,2.0,5.0,1.0,0.11105465888977051
47,-42.0,25.0,17.0,0.0,7931.0,3236.0,-12284.0,-6646.0,-5.0,-3.0,-3.0,4.0,-6.0,2.0,5.0,1.0,0.11335635185241699
48,-42.0,25.0,17.0,0.0,7931.0,3236.0,-12284.0,-6646.0,-5.0,-1.0,0.0,-7.0,-9.0,-6.0,1.0,2.0,0.11568808555603027
49,-42.0,25.0,17.0,0.0,7931.0,3236.0,-12284.0,-6646.0,12.0,2.0,4.0,-6.0,-7.0,4.0,3.0,1.0,0.1181483268737793
50,-53.0,24.0,21.0,0.0,7935.0,3232.0,-12281.0,-6649.0,12.0,2.0,4.0,-6.0,-7.0,4.0,3.0,1.0,0.12089896202087402
51,-53.0,24.0,21.0,0.0,7935.0,3232.0,-12281.0,-6649.0,0.0,-9.0,-25.0,13.0,13.0,4.0,6.0,0.0,0.12335014343261719
52,-53.0,24.0,21.0,0.0,7935.0,3232.0,-12281.0,-6649.0,1.0,-9.0,-20.0,-8.0,15.0,8.0,-3.0,-3.0,0.12559127807617188
53,-11.0,6.0,3.0,0.0,7934.0,3232.0,-12281.0,-6649.0,1.0,-9.0,-20.0,-8.0,15.0,8.0,-3.0,-3.0,0.12788152694702148
54,-11.0,6.0,3.0,0.0,7934.0,3232.0,-12281.0,-6649.0,1.0,-1.0,-1.0,-1.0,-1.0,9.0,3.0,5.0,0.13022780418395996
55,-11.0,6.0,3.0,0.0,7934.0,3232.0,-12281.0,-6649.0,-8.0,-3.0,10.0,-6.0,-21.0,-12.0,-3.0,-1.0,0.13246417045593262
56,-4.0,11.0,-8.0,0.0,7933.0,3233.0,-12282.0,-6650.0,-8.0,-3.0,10.0,-6.0,-21.0,-12.0,-3.0,-1.0,0.13472747802734375
57,-4.0,11.0,-8.0,0.0,7933.0,3233.0,-12282.0,-6650.0,0.0,-2.0,-15.0,-8.0,-3.0,-3.0,5.0,1.0,0.13705921173095703
58,-4.0,11.0,-8.0,0.0,7933.0,3233.0,-12282.0,-6650.0,-3.0,-2.0,-3.0,2.0,21.0,1.0,-3.0,-3.0,0.13930535316467285
59,-7.0,-17.0,-6.0,0.0,7927.0,3234.0,-12285.0,-6651.0,-3.0,-2.0,-3.0,2.0,21.0,1.0,-3.0,-3.0,0.14167070388793945
60,-7.0,-17.0,-6.0,0.0,7927.0,3234.0,-12285.0,-6651.0,3.0,17.0,30.0,-3.0,-3.0,11.0,0.0,-1.0,0.14400148391723633
61,-7.0,-17.0,-6.0,0.0,7927.0,3234.0,-12285.0,-6651.0,-1.0,5.0,-2.0,13.0,20.0,5.0,-11.0,-6.0,0.14650440216064453
62,-8.0,3.0,2.0,0.0,7926.0,3235.0,-12285.0,-6651.0,-1.0,5.0,-2.0,13.0,20.0,5.0,-11.0,-6.0,0.15004873275756836
63,-8.0,3.0,2.0,0.0,7926.0,3235.0,-12285.0,-6651.0,-2.0,-5.0,-6.0,-9.0,-19.0,-12.0,-13.0,-5.0,0.1530933380126953
64,-8.0,3.0,2.0,0.0,7926.0,3235.0,-12285.0,-6651.0,-6.0,-3.0,7.0,5.0,8.0,4.0,-3.0,-4.0,0.15563273429870605
65,-30.0,5.0,16.0,0.0,7927.0,3232.0,-12284.0,-6653.0,-6.0,-3.0,7.0,5.0,8.0,4.0,-3.0,-4.0,0.1578810214996338
66,-30.0,5.0,16.0,0.0,7927.0,3232.0,-12284.0,-6653.0,3.0,-1.0,-3.0,-1.0,-11.0,-4.0,3.0,2.0,0.16020798683166504
67,-30.0,5.0,16.0,0.0,7927.0,3232.0,-12284.0,-6653.0,0.0,2.0,-29.0,2.0,11.0,-3.0,2.0,0.0,0.16263389587402344
68,-2.0,-11.0,22.0,0.0,7926.0,3229.0,-12286.0,-6652.0,0.0,2.0,-29.0,2.0,11.0,-3.0,2.0,0.0,0.16493916511535645
69,-2.0,-11.0,22.0,0.0,7926.0,3229.0,-12286.0,-6652.0,-2.0,6.0,17.0,4.0,9.0,-6.0,-3.0,-2.0,0.16727328300476074
70,-2.0,-11.0,22.0,0.0,7926.0,3229.0,-12286.0,-6652.0,0.0,3.0,1.0,-5.0,-17.0,-6.0,-1.0,0.0,0.16953301429748535
71,24.0,-4.0,8.0,0.0,7922.0,3232.0,-12290.0,-6648.0,0.0,3.0,1.0,-5.0,-17.0,-6.0,-1.0,0.0,0.1718902587890625
72,24.0,-4.0,8.0,0.0,7922.0,3232.0,-12290.0,-6648.0,-3.0,-4.0,-17.0,5.0,18.0,13.0,0.0,0.0,0.1742708683013916
73,24.0,-4.0,8.0,0.0,7922.0,3232.0,-12290.0,-6648.0,1.0,-6.0,10.0,2.0,2.0,-6.0,-12.0,-8.0,0.17661380767822266
74,32.0,1.0,1.0,0.0,7921.0,3234.0,-12292.0,-6643.0,1.0,-6.0,10.0,2.0,2.0,-6.0,-12.0,-8.0,0.17885994911193848
75,32.0,1.0,1.0,0.0,7921.0,3234.0,-12292.0,-6643.0,-1.0,-15.0,-22.0,7.0,12.0,-15.0,-8.0,-1.0,0.18155241012573242
76,32.0,1.0,1.0,0.0,7921.0,3234.0,-12292.0,-6643.0,-2.0,-4.0,5.0,-4.0,-4.0,-16.0,14.0,7.0,0.1841564178466797
77,51.0,6.0,5.0,0.0,7920.0,3240.0,-12295.0,-6637.0,-2.0,-4.0,5.0,-4.0,-4.0,-16.0,14.0,7.0,0.18662428855895996
78,51.0,6.0,5.0,0.0,7920.0,3240.0,-12295.0,-6637.0,2.0,3.0,-6.0,-10.0,-10.0,2.0,0.0,-1.0,0.18897128105163574
79,51.0,6.0,5.0,0.0,7920.0,3240.0,-12295.0,-6637.0,-4.0,-4.0,-1.0,1.0,3.0,12.0,3.0,3.0,0.19121336936950684
80,55.0,31.0,5.0,0.0,7921.0,3248.0,-12297.0,-6628.0,-4.0,-4.0,-1.0,1.0,3.0,12.0,3.0,3.0,0.1935136318206787
81,55.0,31.0,5.0,0.0,7921.0,3248.0,-12297.0,-6628.0,-1.0,0.0,5.0,13.0,-4.0,-6.0,-1.0,1.0,0.19582843780517578
82,55.0,31.0,5.0,0.0,7921.0,3248.0,-12297.0,-6628.0,-2.0,-4.0,16.0,15.0,9.0,13.0,1.0,-3.0,0.1980578899383545
83,44.0,28.0,9.0,0.0,7924.0,3252.0,-12298.0,-6620.0,-2.0,-4.0,16.0,15.0,9.0,13.0,1.0,-3.0,0.20032334327697754
84,44.0,28.0,9.0,0.0,7924.0,3252.0,-12298.0,-6620.0,-3.0,-5.0,12.0,-13.0,-19.0,-13.0,-7.0,-2.0,0.20264601707458496
85,44.0,28.0,9.0,0.0,7924.0,3252.0,-12298.0,-6620.0,0.0,-4.0,-6.0,6.0,-14.0,-2.0,1.0,5.0,0.20487499237060547
86,30.0,35.0,-2.0,0.0,7927.0,3258.0,-12297.0,-6616.0,0.0,-4.0,-6.0,6.0,-14.0,-2.0,1.0,5.0,0.2071242332458496
87,30.0,35.0,-2.0,0.0,7927.0,3258.0,-12297.0,-6616.0,2.0,14.0,26.0,3.0,-33.0,-20.0,2.0,-2.0,0.20948481559753418
88,30.0,35.0,-2.0,0.0,7927.0,3258.0,-12297.0,-6616.0,1.0,0.0,5.0,2.0,0.0,-5.0,3.0,1.0,0.2118394374847412
89,7.0,45.0,-10.0,0.0,7932.0,3264.0,-12293.0,-6615.0,1.0,0.0,5.0,2.0,0.0,-5.0,3.0,1.0,0.21465635299682617
90,7.0,45.0,-10.0,0.0,7932.0,3264.0,-12293.0,-6615.0,-5.0,-1.0,-2.0,-1.0,3.0,-3.0,-4.0,-6.0,0.21730518341064453
91,7.0,45.0,-10.0,0.0,7932.0,3264.0,-12293.0,-6615.0,4.0,5.0,0.0,0.0,23.0,10.0,2.0,2.0,0.2195577621459961
92,36.0,53.0,-2.0,0.0,7936.0,3271.0,-12292.0,-6607.0,4.0,5.0,0.0,0.0,23.0,10.0,2.0,2.0,0.22181200981140137
93,36.0,53.0,-2.0,0.0,7936.0,3271.0,-12292.0,-6607.0,-9.0,-4.0,9.0,1.0,-8.0,9.0,-5.0,-5.0,0.22415423393249512
94,36.0,53.0,-2.0,0.0,7936.0,3271.0,-12292.0,-6607.0,4.0,8.0,7.0,-1.0,8.0,7.0,5.0,2.0,0.2264096736907959
95,36.0,70.0,9.0,0.0,7943.0,3280.0,-12290.0,-6599.0,4.0,8.0,7.0,-1.0,8.0,7.0,5.0,2.0,0.2287440299987793
96,36.0,70.0,9.0,0.0,7943.0,3280.0,-12290.0,-6599.0,-2.0,-10.0,-1.0,-5.0,11.0,2.0,-6.0,-6.0,0.23117876052856445
97,36.0,70.0,9.0,0.0,7943.0,3280.0,-12290.0,-6599.0,-2.0,-6.0,2.0,-1.0,-10.0,-4.0,-2.0,-3.0,0.23355984687805176
98,16.0,69.0,19.0,0.0,7952.0,3284.0,-12287.0,-6592.0,-2.0,-6.0,2.0,-1.0,-10.0,-4.0,-2.0,-3.0,0.23581862449645996
99,16.0,69.0,19.0,0.0,7952.0,3284.0,-12287.0,-6592.0,-2.0,1.0,-10.0,0.0,-12.0,2.0,-5.0,4.0,0.23827695846557617
100,16.0,69.0,19.0,0.0,7952.0,3284.0,-12287.0,-6592.0,-3.0,-2.0,-11.0,1.0,-7.0,8.0,1.0,-5.0,0.24051499366760254
101,18.0,77.0,24.0,0.0,7962.0,3288.0,-12284.0,-6583.0,-3.0,-2.0,-11.0,1.0,-7.0,8.0,1.0,-5.0,0.24277281761169434
102,18.0,77.0,24.0,0.0,7962.0,3288.0,-12284.0,-6583.0,2.0,0.0,-6.0,-6.0,-11.0,-20.0,7.0,2.0,0.24567174911499023
103,18.0,77.0,24.0,0.0,7962.0,3288.0,-12284.0,-6583.0,-2.0,5.0,-32.0,-20.0,-13.0,-18.0,-10.0,-7.0,0.24834322929382324
104,16.0,68.0,16.0,0.0,7972.0,3293.0,-12279.0,-6579.0,-2.0,5.0,-32.0,-20.0,-13.0,-18.0,-10.0,-7.0,0.25096917152404785
105,16.0,68.0,16.0,0.0,7972.0,3293.0,-12279.0,-6579.0,0.0,0.0,-18.0,11.0,4.0,3.0,3.0,1.0,0.25336766242980957
106,16.0,68.0,16.0,0.0,7972.0,3293.0,-12279.0,-6579.0,-1.0,2.0,3.0,-2.0,-2.0,-5.0,1.0,2.0,0.2556612491607666
107,4.0,73.0,16.0,0.0,7977.0,3301.0,-12275.0,-6575.0,-1.0,2.0,3.0,-2.0,-2.0,-5.0,1.0,2.0,0.25789785385131836
108,4.0,73.0,16.0,0.0,7977.0,3301.0,-12275.0,-6575.0,1.0,-5.0,-5.0,0.0,10.0,14.0,5.0,2.0,0.2602252960205078
109,4.0,73.0,16.0,0.0,7977.0,3301.0,-12275.0,-6575.0,-4.0,-8.0,-2.0,-7.0,-7.0,-6.0,-4.0,0.0,0.26250457763671875
110,2.0,72.0,28.0,0.0,7985.0,3305.0,-12272.0,-6570.0,-4.0,-8.0,-2.0,-7.0,-7.0,-6.0,-4.0,0.0,0.2647430896759033
111,2.0,72.0,28.0,0.0,7985.0,3305.0,-12272.0,-6570.0,-6.0,1.0,24.0,-5.0,-19.0,-17.0,-1.0,0.0,0.26708436012268066
112,2.0,72.0,28.0,0.0,7985.0,3305.0,-12272.0,-6570.0,3.0,-4.0,1.0,7.0,7.0,11.0,6.0,5.0,0.26937341690063477
113,-15.0,73.0,32.0,0.0,7993.0,3308.0,-12267.0,-6567.0,3.0,-4.0,1.0,7.0,7.0,11.0,6.0,5.0,0.2716822624206543
114,-15.0,73.0,32.0,0.0,7993.0,3308.0,-12267.0,-6567.0,1.0,3.0,-16.0,-12.0,0.0,3.0,-1.0,-5.0,0.27402830123901367
115,-15.0,73.0,32.0,0.0,7993.0,3308.0,-12267.0,-6567.0,-3.0,-1.0,-11.0,-9.0,-37.0,-7.0,-1.0,-3.0,0.2768557071685791
116,0.0,83.0,36.0,0.0,8002.0,3313.0,-12262.0,-6563.0,-3.0,-1.0,-11.0,-9.0,-37.0,-7.0,-1.0,-3.0,0.2794520854949951
117,0.0,83.0,36.0,0.0,8002.0,3313.0,-12262.0,-6563.0,1.0,14.0,-13.0,-9.0,8.0,16.0,3.0,4.0,0.2817723751068115
118,0.0,83.0,36.0,0.0,8002.0,3313.0,-12262.0,-6563.0,-3.0,2.0,10.0,5.0,8.0,1.0,-4.0,-4.0,0.28403544425964355
119,20.0,63.0,27.0,0.0,8009.0,3317.0,-12260.0,-6556.0,-3.0,2.0,10.0,5.0,8.0,1.0,-4.0,-4.0,0.2863481044769287
120,20.0,63.0,27.0,0.0,8009.0,3317.0,-12260.0,-6556.0,0.0,-6.0,-5.0,0.0,-19.0,1.0,-3.0,-1.0,0.28866124153137207
121,20.0,63.0,27.0,0.0,8009.0,3317.0,-12260.0,-6556.0,6.0,2.0,8.0,-6.0,2.0,6.0,0.0,-2.0,0.2909669876098633
122,-1.0,42.0,17.0,0.0,8015.0,3319.0,-12258.0,-6552.0,6.0,2.0,8.0,-6.0,2.0,6.0,0.0,-2.0,0.29329705238342285
123,-1.0,42.0,17.0,0.0,8015.0,3319.0,-12258.0,-6552.0,2.0,2.0,27.0,-3.0,6.0,-1.0,0.0,2.0,0.29564809799194336
124,-1.0,42.0,17.0,0.0,8015.0,3319.0,-12258.0,-6552.0,-1.0,-5.0,8.0,17.0,9.0,2.0,-3.0,0.0,0.2978813648223877
125,11.0,46.0,10.0,0.0,8019.0,3323.0,-12256.0,-6548.0,-1.0,-5.0,8.0,17.0,9.0,2.0,-3.0,0.0,0.3001284599304199
126,11.0,46.0,10.0,0.0,8019.0,3323.0,-12256.0,-6548.0,1.0,0.0,0.0,18.0,27.0,12.0,9.0,3.0,0.3024880886077881
127,11.0,46.0,10.0,0.0,8019.0,3323.0,-12256.0,-6548.0,-3.0,-3.0,3.0,-6.0,16.0,-5.0,-5.0,-4.0,0.30472898483276367
128,6.0,39.0,6.0,0.0,8020.0,3330.0,-12254.0,-6547.0,-3.0,-3.0,3.0,-6.0,16.0,-5.0,-5.0,-4.0,0.30766940116882324
129,6.0,39.0,6.0,0.0,8020.0,3330.0,-12254.0,-6547.0,-2.0,-4.0,8.0,1.0,4.0,-2.0,-1.0,2.0,0.3103349208831787
130,6.0,39.0,6.0,0.0,8020.0,3330.0,-12254.0,-6547.0,-1.0,-2.0,-3.0,-1.0,-7.0,-13.0,-3.0,-2.0,0.3125896453857422
131,12.0,23.0,0.0,0.0,8017.0,3337.0,-12255.0,-6546.0,-1.0,-2.0,-3.0,-1.0,-7.0,-13.0,-3.0,-2.0,0.3148672580718994
132,12.0,23.0,0.0,0.0,8017.0,3337.0,-12255.0,-6546.0,-1.0,-2.0,5.0,2.0,6.0,11.0,0.0,-3.0,0.3172013759613037
133,12.0,23.0,0.0,0.0,8017.0,3337.0,-12255.0,-6546.0,-3.0,-3.0,-14.0,-18.0,-16.0,10.0,0.0,1.0,0.31945133209228516
134,-6.0,8.0,-7.0,0.0,8016.0,3338.0,-12255.0,-6546.0,-3.0,-3.0,-14.0,-18.0,-16.0,10.0,0.0,1.0,0.33228182792663574
135,-6.0,8.0,-7.0,0.0,8016.0,3338.0,-12255.0,-6546.0,1.0,3.0,15.0,-4.0,0.0,1.0,-4.0,-3.0,0.3346281051635742
136,-6.0,8.0,-7.0,0.0,8016.0,3338.0,-12255.0,-6546.0,8.0,0.0,-4.0,12.0,-10.0,-8.0,-1.0,-1.0,0.33740687370300293
137,-30.0,3.0,0.0,0.0,8012.0,3340.0,-12254.0,-6552.0,8.0,0.0,-4.0,12.0,-10.0,-8.0,-1.0,-1.0,0.35487866401672363
138,-30.0,3.0,0.0,0.0,8012.0,3340.0,-12254.0,-6552.0,-4.0,-4.0,-27.0,2.0,15.0,5.0,4.0,1.0,0.3572056293487549
139,-30.0,3.0,0.0,0.0,8012.0,3340.0,-12254.0,-6552.0,-5.0,-1.0,4.0,2.0,13.0,-18.0,0.0,-1.0,0.35945963859558105
140,-48.0,-4.0,6.0,0.0,8012.0,3337.0,-12252.0,-6559.0,-5.0,-1.0,4.0,2.0,13.0,-18.0,0.0,-1.0,0.36887168884277344
141,-48.0,-4.0,6.0,0.0,8012.0,3337.0,-12252.0,-6559.0,3.0,2.0,-24.0,-3.0,1.0,0.0,0.0,-1.0,0.3846571445465088
142,-48.0,-4.0,6.0,0.0,8012.0,3337.0,-12252.0,-6559.0,-4.0,-1.0,-31.0,-4.0,21.0,19.0,-3.0,2.0,0.3869447708129883
143,-20.0,-9.0,1.0,0.0,8011.0,3335.0,-12251.0,-6562.0,-4.0,-1.0,-31.0,-4.0,21.0,19.0,-3.0,2.0,0.3931081295013428
144,-20.0,-9.0,1.0,0.0,8011.0,3335.0,-12251.0,-6562.0,-5.0,-5.0,16.0,-17.0,-12.0,7.0,-5.0,-4.0,0.39567089080810547
145,-20.0,-9.0,1.0,0.0,8011.0,3335.0,-12251.0,-6562.0,1.0,3.0,10.0,5.0,8.0,3.0,-1.0,1.0,0.39794278144836426
146,-19.0,-14.0,6.0,0.0,8006.0,3335.0,-12252.0,-6566.0,1.0,3.0,10.0,5.0,8.0,3.0,-1.0,1.0,0.4159126281738281
147,-19.0,-14.0,6.0,0.0,8006.0,3335.0,-12252.0,-6566.0,0.0,-1.0,0.0,17.0,20.0,14.0,-1.0,1.0,0.420025110244751
148,-55.0,-19.0,10.0,0.0,8001.0,3332.0,-12251.0,-6575.0,0.0,-1.0,0.0,17.0,20.0,14.0,-1.0,1.0,0.4239840507507324
149,-55.0,-19.0,10.0,0.0,8001.0,3332.0,-12251.0,-6575.0,-2.0,2.0,9.0,-19.0,-18.0,-4.0,-3.0,-2.0,0.4276094436645508
150,-55.0,-19.0,10.0,0.0,8001.0,3332.0,-12251.0,-6575.0,0.0,-6.0,-34.0,-7.0,-20.0,-7.0,0.0,-1.0,0.4372594356536865
151,-72.0,-21.0,15.0,0.0,7998.0,3325.0,-12250.0,-6585.0,0.0,-6.0,-34.0,-7.0,-20.0,-7.0,0.0,-1.0,0.4395484924316406
152,-72.0,-21.0,15.0,0.0,7998.0,3325.0,-12250.0,-6585.0,-5.0,-3.0,-7.0,6.0,-37.0,-14.0,-6.0,-8.0,0.4447169303894043
153,-72.0,-21.0,15.0,0.0,7998.0,3325.0,-12250.0,-6585.0,0.0,2.0,11.0,-6.0,2.0,-6.0,-12.0,-9.0,0.46015119552612305
154,-84.0,-12.0,31.0,0.0,8000.0,3313.0,-12247.0,-6593.0,0.0,2.0,11.0,-6.0,2.0,-6.0,-12.0,-9.0,0.46477460861206055
155,-84.0,-12.0,31.0,0.0,8000.0,3313.0,-12247.0,-6593.0,-2.0,-2.0,7.0,6.0,1.0,-4.0,5.0,4.0,0.4696540832519531
156,-84.0,-12.0,31.0,0.0,8000.0,3313.0,-12247.0,-6593.0,-1.0,-2.0,5.0,-7.0,-19.0,-11.0,9.0,5.0,0.4735875129699707
157,-96.0,-7.0,42.0,0.0,8006.0,3298.0,-12243.0,-6601.0,-1.0,-2.0,5.0,-7.0,-19.0,-11.0,9.0,5.0,0.4821140766143799
158,-96.0,-7.0,42.0,0.0,8006.0,3298.0,-12243.0,-6601.0,1.0,5.0,18.0,-8.0,-15.0,-5.0,-2.0,1.0,0.4845130443572998
159,-96.0,-7.0,42.0,0.0,8006.0,3298.0,-12243.0,-6601.0,-2.0,-3.0,-22.0,-1.0,4.0,7.0,-2.0,-1.0,0.49719786643981934
160,-105.0,-3.0,47.0,0.0,8014.0,3280.0,-12238.0,-6609.0,-2.0,-3.0,-22.0,-1.0,4.0,7.0,-2.0,-1.0,0.49999308586120605
161,-105.0,-3.0,47.0,0.0,8014.0,3280.0,-12238.0,-6609.0,-2.0,-6.0,-19.0,-5.0,11.0,16.0,2.0,0.0,0.5035762786865234
162,-105.0,-3.0,47.0,0.0,8014.0,3280.0,-12238.0,-6609.0,-2.0,-7.0,2.0,-5.0,-5.0,-10.0,-3.0,-1.0,0.5193798542022705
163,-85.0,5.0,46.0,0.0,8021.0,3267.0,-12234.0,-6615.0,-2.0,-7.0,2.0,-5.0,-5.0,-10.0,-3.0,-1.0,0.5216171741485596
164,-85.0,5.0,46.0,0.0,8021.0,3267.0,-12234.0,-6615.0,1.0,7.0,17.0,1.0,9.0,-17.0,-7.0,-7.0,0.5265467166900635
165,-85.0,5.0,46.0,0.0,8021.0,3267.0,-12234.0,-6615.0,-5.0,-4.0,0.0,23.0,15.0,14.0,-4.0,-4.0,0.5343649387359619
166,-45.0,12.0,25.0,0.0,8025.0,3262.0,-12231.0,-6619.0,-5.0,-4.0,0.0,23.0,15.0,14.0,-4.0,-4.0,0.5366475582122803
167,-45.0,12.0,25.0,0.0,8025.0,3262.0,-12231.0,-6619.0,3.0,5.0,20.0,-7.0,-9.0,10.0,14.0,7.0,0.5415303707122803
168,-45.0,12.0,25.0,0.0,8025.0,3262.0,-12231.0,-6619.0,1.0,4.0,2.0,-8.0,-12.0,4.0,3.0,2.0,0.5569791793823242
169,-18.0,12.0,11.0,0.0,8024.0,3263.0,-12230.0,-6621.0,1.0,4.0,2.0,-8.0,-12.0,4.0,3.0,2.0,0.559840202331543
170,-18.0,12.0,11.0,0.0,8024.0,3263.0,-12230.0,-6621.0,-2.0,3.0,-2.0,9.0,11.0,8.0,-4.0,3.0,0.5634355545043945
171,-18.0,12.0,11.0,0.0,8024.0,3263.0,-12230.0,-6621.0,0.0,7.0,19.0,-6.0,-19.0,11.0,1.0,0.0,0.5794742107391357
172,-32.0,14.0,8.0,0.0,8026.0,3261.0,-12227.0,-6624.0,0.0,7.0,19.0,-6.0,-19.0,11.0,1.0,0.0,0.5817468166351318
173,-32.0,14.0,8.0,0.0,8026.0,3261.0,-12227.0,-6624.0,-1.0,-6.0,-28.0,-3.0,-2.0,4.0,1.0,-2.0,0.5864543914794922
174,-32.0,14.0,8.0,0.0,8026.0,3261.0,-12227.0,-6624.0,2.0,7.0,-2.0,-5.0,5.0,-24.0,-4.0,-3.0,0.5943131446838379
175,-41.0,13.0,10.0,0.0,8030.0,3257.0,-12224.0,-6628.0,2.0,7.0,-2.0,-5.0,5.0,-24.0,-4.0,-3.0,0.6019515991210938
176,-41.0,13.0,10.0,0.0,8030.0,3257.0,-12224.0,-6628.0,-3.0,-7.0,-2.0,-1.0,4.0,-2.0,-2.0,2.0,0.6043496131896973
177,-41.0,13.0,10.0,0.0,8030.0,3257.0,-12224.0,-6628.0,1.0,0.0,9.0,9.0,2.0,-5.0,-2.0,0.0,0.6170408725738525
178,-12.0,16.0,28.0,0.0,8031.0,3257.0,-12223.0,-6628.0,1.0,0.0,9.0,9.0,2.0,-5.0,-2.0,0.0,0.6193664073944092
179,-12.0,16.0,28.0,0.0,8031.0,3257.0,-12223.0,-6628.0,-4.0,-8.0,-5.0,4.0,20.0,8.0,1.0,-6.0,0.6245143413543701
180,-12.0,16.0,28.0,0.0,8031.0,3257.0,-12223.0,-6628.0,1.0,-10.0,-10.0,-6.0,14.0,2.0,-2.0,-1.0,0.6395759582519531
181,-16.0,18.0,37.0,0.0,8033.0,3255.0,-12223.0,-6627.0,1.0,-10.0,-10.0,-6.0,14.0,2.0,-2.0,-1.0,0.6418464183807373
182,-16.0,18.0,37.0,0.0,8033.0,3255.0,-12223.0,-6627.0,0.0,1.0,-2.0,2.0,11.0,0.0,2.0,6.0,0.646120548248291
183,-16.0,18.0,37.0,0.0,8033.0,3255.0,-12223.0,-6627.0,-3.0,-3.0,2.0,-12.0,3.0,-9.0,-3.0,-1.0,0.6627576351165771
184,-24.0,33.0,25.0,0.0,8037.0,3254.0,-12221.0,-6627.0,-3.0,-3.0,2.0,-12.0,3.0,-9.0,-3.0,-1.0,0.6650304794311523
185,-24.0,33.0,25.0,0.0,8037.0,3254.0,-12221.0,-6627.0,-2.0,-2.0,9.0,3.0,-8.0,-8.0,-4.0,-6.0,0.6673693656921387
186,-24.0,33.0,25.0,0.0,8037.0,3254.0,-12221.0,-6627.0,-2.0,-8.0,-25.0,8.0,10.0,0.0,2.0,-1.0,0.6773242950439453
187,-14.0,37.0,12.0,0.0,8040.0,3256.0,-12218.0,-6626.0,-2.0,-8.0,-25.0,8.0,10.0,0.0,2.0,-1.0,0.6796667575836182
188,-14.0,37.0,12.0,0.0,8040.0,3256.0,-12218.0,-6626.0,1.0,2.0,-4.0,-6.0,1.0,-9.0,3.0,1.0,0.6844849586486816
189,-14.0,37.0,12.0,0.0,8040.0,3256.0,-12218.0,-6626.0,3.0,9.0,25.0,-8.0,-13.0,8.0,-3.0,-2.0,0.7007873058319092
190,4.0,31.0,23.0,0.0,8042.0,3258.0,-12218.0,-6623.0,3.0,9.0,25.0,-8.0,-13.0,8.0,-3.0,-2.0,0.7053160667419434
191,4.0,31.0,23.0,0.0,8042.0,3258.0,-12218.0,-6623.0,2.0,3.0,3.0,8.0,5.0,0.0,7.0,3.0,0.7101023197174072
192,4.0,31.0,23.0,0.0,8042.0,3258.0,-12218.0,-6623.0,5.0,-2.0,-10.0,-1.0,-1.0,11.0,-3.0,-2.0,0.7134528160095215
193,-9.0,27.0,6.0,0.0,8044.0,3260.0,-12216.0,-6623.0,5.0,-2.0,-10.0,-1.0,-1.0,11.0,-3.0,-2.0,0.7230141162872314
194,-9.0,27.0,6.0,0.0,8044.0,3260.0,-12216.0,-6623.0,0.0,-1.0,-6.0,-7.0,-14.0,3.0,-3.0,-2.0,0.7254302501678467
195,-9.0,27.0,6.0,0.0,8044.0,3260.0,-12216.0,-6623.0,-2.0,-6.0,7.0,5.0,-2.0,-7.0,12.0,5.0,0.7368016242980957
196,-19.0,44.0,17.0,0.0,8053.0,3260.0,-12210.0,-6624.0,-2.0,-6.0,7.0,5.0,-2.0,-7.0,12.0,5.0,0.7391412258148193
197,-19.0,44.0,17.0,0.0,8053.0,3260.0,-12210.0,-6624.0,-7.0,-5.0,8.0,-6.0,-7.0,-12.0,-9.0,-9.0,0.7438933849334717
198,-19.0,44.0,17.0,0.0,8053.0,3260.0,-12210.0,-6624.0,0.0,4.0,2.0,-1.0,23.0,6.0,0.0,1.0,0.7592518329620361
199,-9.0,45.0,16.0,0.0,8059.0,3262.0,-12206.0,-6624.0,0.0,4.0,2.0,-1.0,23.0,6.0,0.0,1.0,0.7615327835083008
200,-9.0,45.0,16.0,0.0,8059.0,3262.0,-12206.0,-6624.0,0.0,-2.0,-19.0,-5.0,-15.0,-3.0,-4.0,1.0,0.766714334487915
201,-9.0,45.0,16.0,0.0,8059.0,3262.0,-12206.0,-6624.0,-6.0,-2.0,4.0,-4.0,-4.0,-3.0,8.0,6.0,0.774132251739502
202,-17.0,43.0,21.0,0.0,8063.0,3263.0,-12203.0,-6622.0,-6.0,-2.0,4.0,-4.0,-4.0,-3.0,8.0,6.0,0.7822787761688232
203,-17.0,43.0,21.0,0.0,8063.0,3263.0,-12203.0,-6622.0,1.0,-7.0,7.0,-1.0,-56.0,-22.0,-5.0,-4.0,0.7848780155181885
204,-17.0,43.0,21.0,0.0,8063.0,3263.0,-12203.0,-6622.0,-1.0,1.0,-9.0,13.0,-6.0,8.0,0.0,-1.0,0.7969200611114502
205,-30.0,37.0,11.0,0.0,8065.0,3265.0,-12201.0,-6624.0,-1.0,1.0,-9.0,13.0,-6.0,8.0,0.0,-1.0,0.7992095947265625
206,-30.0,37.0,11.0,0.0,8065.0,3265.0,-12201.0,-6624.0,-1.0,-1.0,15.0,2.0,28.0,26.0,4.0,3.0,0.804039478302002
207,-30.0,37.0,11.0,0.0,8065.0,3265.0,-12201.0,-6624.0,1.0,-1.0,4.0,5.0,16.0,2.0,1.0,-5.0,0.820676326751709
208,-46.0,37.0,0.0,0.0,8068.0,3266.0,-12195.0,-6629.0,1.0,-1.0,4.0,5.0,16.0,2.0,1.0,-5.0,0.8246488571166992
209,-46.0,37.0,0.0,0.0,8068.0,3266.0,-12195.0,-6629.0,-5.0,-9.0,-22.0,-2.0,15.0,-1.0,1.0,-2.0,0.8280627727508545
210,-46.0,37.0,0.0,0.0,8068.0,3266.0,-12195.0,-6629.0,6.0,12.0,-10.0,-6.0,21.0,5.0,2.0,4.0,0.8336441516876221
211,-19.0,27.0,-8.0,0.0,8071.0,3268.0,-12193.0,-6630.0,6.0,12.0,-10.0,-6.0,21.0,5.0,2.0,4.0,0.8417503833770752
212,-19.0,27.0,-8.0,0.0,8071.0,3268.0,-12193.0,-6630.0,6.0,4.0,-20.0,2.0,27.0,1.0,-2.0,-3.0,0.8488328456878662
213,-19.0,27.0,-8.0,0.0,8071.0,3268.0,-12193.0,-6630.0,-6.0,-10.0,2.0,7.0,-7.0,-12.0,-6.0,-2.0,0.8568968772888184
214,23.0,27.0,11.0,0.0,8072.0,3272.0,-12195.0,-6624.0,-6.0,-10.0,2.0,7.0,-7.0,-12.0,-6.0,-2.0,0.8591775894165039
215,23.0,27.0,11.0,0.0,8072.0,3272.0,-12195.0,-6624.0,-2.0,0.0,-6.0,7.0,15.0,29.0,5.0,5.0,0.8642337322235107
216,23.0,27.0,11.0,0.0,8072.0,3272.0,-12195.0,-6624.0,0.0,-4.0,-8.0,-18.0,-18.0,-1.0,-7.0,-4.0,0.879896879196167
217,1.0,30.0,13.0,0.0,8073.0,3276.0,-12193.0,-6623.0,0.0,-4.0,-8.0,-18.0,-18.0,-1.0,-7.0,-4.0,0.8822140693664551
218,1.0,30.0,13.0,0.0,8073.0,3276.0,-12193.0,-6623.0,-10.0,3.0,2.0,-7.0,4.0,-6.0,-3.0,1.0,0.8867466449737549
219,1.0,30.0,13.0,0.0,8073.0,3276.0,-12193.0,-6623.0,-2.0,-7.0,-10.0,-6.0,-14.0,-17.0,-10.0,-4.0,0.8937339782714844
220,-28.0,16.0,9.0,0.0,8072.0,3277.0,-12191.0,-6627.0,-2.0,-7.0,-10.0,-6.0,-14.0,-17.0,-10.0,-4.0,0.9020123481750488
221,-28.0,16.0,9.0,0.0,8072.0,3277.0,-12191.0,-6627.0,-1.0,-5.0,10.0,-20.0,-24.0,5.0,0.0,-3.0,0.9043776988983154
222,-28.0,16.0,9.0,0.0,8072.0,3277.0,-12191.0,-6627.0,-2.0,-5.0,-4.0,-9.0,-12.0,-4.0,1.0,2.0,0.9169745445251465
223,0.0,7.0,10.0,0.0,8072.0,3277.0,-12192.0,-6627.0,-2.0,-5.0,-4.0,-9.0,-12.0,-4.0,1.0,2.0,0.9193150997161865
224,0.0,7.0,10.0,0.0,8072.0,3277.0,-12192.0,-6627.0,-2.0,6.0,-10.0,1.0,-5.0,-11.0,4.0,-4.0,0.9244191646575928
225,0.0,7.0,10.0,0.0,8072.0,3277.0,-12192.0,-6627.0,0.0,-4.0,-9.0,0.0,-3.0,-7.0,-6.0,-3.0,0.9419956207275391
226,25.0,8.0,24.0,0.0,8070.0,3278.0,-12197.0,-6619.0,0.0,-4.0,-9.0,0.0,-3.0,-7.0,-6.0,-3.0,0.946272611618042
227,25.0,8.0,24.0,0.0,8070.0,3278.0,-12197.0,-6619.0,2.0,8.0,13.0,4.0,-3.0,-14.0,-1.0,-1.0,0.9490523338317871
228,25.0,8.0,24.0,0.0,8070.0,3278.0,-12197.0,-6619.0,-2.0,2.0,-11.0,-18.0,1.0,0.0,1.0,2.0,0.954108476638794
229,14.0,0.0,29.0,0.0,8070.0,3276.0,-12200.0,-6613.0,-2.0,2.0,-11.0,-18.0,1.0,0.0,1.0,2.0,0.9619596004486084
230,14.0,0.0,29.0,0.0,8070.0,3276.0,-12200.0,-6613.0,1.0,-2.0,11.0,5.0,5.0,12.0,-5.0,-3.0,0.9644367694854736
231,14.0,0.0,29.0,0.0,8070.0,3276.0,-12200.0,-6613.0,-3.0,-6.0,1.0,15.0,26.0,3.0,2.0,-1.0,0.9771733283996582
232,30.0,-11.0,41.0,0.0,8070.0,3272.0,-12207.0,-6604.0,-3.0,-6.0,1.0,15.0,26.0,3.0,2.0,-1.0,0.9795019626617432
233,30.0,-11.0,41.0,0.0,8070.0,3272.0,-12207.0,-6604.0,2.0,-7.0,-11.0,-4.0,-10.0,8.0,-2.0,-5.0,0.9837849140167236
234,30.0,-11.0,41.0,0.0,8070.0,3272.0,-12207.0,-6604.0,0.0,8.0,41.0,21.0,-11.0,-12.0,-4.0,1.0,1.000624179840088
235,65.0,-17.0,58.0,0.0,8067.0,3272.0,-12215.0,-6593.0,0.0,8.0,41.0,21.0,-11.0,-12.0,-4.0,1.0,1.0049655437469482
236,65.0,-17.0,58.0,0.0,8067.0,3272.0,-12215.0,-6593.0,2.0,22.0,38.0,-24.0,8.0,-18.0,-4.0,3.0,1.010115623474121
237,65.0,-17.0,58.0,0.0,8067.0,3272.0,-12215.0,-6593.0,-3.0,-19.0,-64.0,-6.0,-19.0,16.0,7.0,0.0,1.013465404510498
238,67.0,41.0,49.0,0.0,8074.0,3274.0,-12217.0,-6579.0,-3.0,-19.0,-64.0,-6.0,-19.0,16.0,7.0,0.0,1.0220439434051514
239,67.0,41.0,49.0,0.0,8074.0,3274.0,-12217.0,-6579.0,4.0,12.0,-8.0,19.0,-17.0,-17.0,-1.0,1.0,1.0244266986846924
240,67.0,41.0,49.0,0.0,8074.0,3274.0,-12217.0,-6579.0,1.0,7.0,11.0,-13.0,-14.0,-40.0,13.0,10.0,1.037367343902588
241,19.0,107.0,49.0,0.0,8090.0,3282.0,-12206.0,-6576.0,1.0,7.0,11.0,-13.0,-14.0,-40.0,13.0,10.0,1.0400300025939941
242,19.0,107.0,49.0,0.0,8090.0,3282.0,-12206.0,-6576.0,2.0,3.0,25.0,-19.0,17.0,-3.0,-1.0,-1.0,1.0432453155517578
243,19.0,107.0,49.0,0.0,8090.0,3282.0,-12206.0,-6576.0,3.0,0.0,-42.0,-3.0,15.0,3.0,-1.0,0.0,1.0599174499511719
244,-83.0,118.0,-6.0,0.0,8119.0,3296.0,-12156.0,-6625.0,3.0,0.0,-42.0,-3.0,15.0,3.0,-1.0,0.0,1.0622320175170898
245,-83.0,118.0,-6.0,0.0,8119.0,3296.0,-12156.0,-6625.0,-9.0,-22.0,-22.0,2.0,5.0,-15.0,-10.0,-6.0,1.0664715766906738
246,-83.0,118.0,-6.0,0.0,8119.0,3296.0,-12156.0,-6625.0,-5.0,-4.0,6.0,-43.0,-4.0,6.0,-6.0,-8.0,1.0736947059631348
247,-611.0,45.0,-21.0,0.0,8148.0,3284.0,-12052.0,-6784.0,-5.0,-4.0,6.0,-43.0,-4.0,6.0,-6.0,-8.0,1.0816338062286377
248,-611.0,45.0,-21.0,0.0,8148.0,3284.0,-12052.0,-6784.0,-2.0,-9.0,-35.0,2.0,-43.0,-8.0,2.0,-1.0,1.090338945388794
249,-611.0,45.0,-21.0,0.0,8148.0,3284.0,-12052.0,-6784.0,-3.0,1.0,20.0,40.0,20.0,2.0,-13.0,-12.0,1.0983376502990723
250,-857.0,347.0,-337.0,0.0,8170.0,3337.0,-11903.0,-6991.0,-3.0,1.0,20.0,40.0,20.0,2.0,-13.0,-12.0,1.1010982990264893
251,-857.0,347.0,-337.0,0.0,8170.0,3337.0,-11903.0,-6991.0,-9.0,-28.0,-29.0,-22.0,2.0,24.0,4.0,0.0,1.1035656929016113
252,-857.0,347.0,-337.0,0.0,8170.0,3337.0,-11903.0,-6991.0,2.0,5.0,-8.0,5.0,-26.0,16.0,-1.0,-2.0,1.1276090145111084
253,-1042.0,517.0,-601.0,0.0,8186.0,3428.0,-11720.0,-7233.0,2.0,5.0,-8.0,5.0,-26.0,16.0,-1.0,-2.0,1.1316254138946533
254,-1042.0,517.0,-601.0,0.0,8186.0,3428.0,-11720.0,-7233.0,2.0,11.0,37.0,-2.0,-2.0,22.0,3.0,1.0,1.136446475982666
255,-1042.0,517.0,-601.0,0.0,8186.0,3428.0,-11720.0,-7233.0,4.0,22.0,-6.0,-2.0,11.0,-27.0,-3.0,-1.0,1.1418092250823975
256,-831.0,876.0,-978.0,0.0,8236.0,3603.0,-11472.0,-7486.0,4.0,22.0,-6.0,-2.0,11.0,-27.0,-3.0,-1.0,1.1441371440887451
257,-831.0,876.0,-978.0,0.0,8236.0,3603.0,-11472.0,-7486.0,1.0,-3.0,3.0,4.0,16.0,-6.0,11.0,9.0,1.1489498615264893
258,-831.0,876.0,-978.0,0.0,8236.0,3603.0,-11472.0,-7486.0,-10.0,-16.0,19.0,22.0,-3.0,-15.0,-3.0,-6.0,1.1571276187896729
259,-608.0,1289.0,-1530.0,0.0,8278.0,3909.0,-11153.0,-7762.0,-10.0,-16.0,19.0,22.0,-3.0,-15.0,-3.0,-6.0,1.159459114074707
260,-608.0,1289.0,-1530.0,0.0,8278.0,3909.0,-11153.0,-7762.0,31.0,18.0,-28.0,-41.0,-9.0,-17.0,0.0,2.0,1.1645448207855225
261,-608.0,1289.0,-1530.0,0.0,8278.0,3909.0,-11153.0,-7762.0,0.0,1.0,0.0,1.0,2.0,9.0,3.0,2.0,1.1804146766662598
262,-675.0,1443.0,-2248.0,0.0,8285.0,4254.0,-10847.0,-8003.0,0.0,1.0,0.0,1.0,2.0,9.0,3.0,2.0,1.1843829154968262
263,-675.0,1443.0,-2248.0,0.0,8285.0,4254.0,-10847.0,-8003.0,1.0,10.0,15.0,47.0,16.0,17.0,-1.0,-1.0,1.1884770393371582
264,-675.0,1443.0,-2248.0,0.0,8285.0,4254.0,-10847.0,-8003.0,2.0,-7.0,14.0,10.0,-6.0,4.0,-1.0,0.0,1.2022061347961426
265,-340.0,1508.0,-3192.0,0.0,8192.0,4735.0,-10514.0,-8268.0,2.0,-7.0,14.0,10.0,-6.0,4.0,-1.0,0.0,1.206695795059204
266,-340.0,1508.0,-3192.0,0.0,8192.0,4735.0,-10514.0,-8268.0,-22.0,-19.0,-13.0,22.0,22.0,9.0,-4.0,-7.0,1.2193021774291992
267,-340.0,1508.0,-3192.0,0.0,8192.0,4735.0,-10514.0,-8268.0,-4.0,2.0,8.0,4.0,-1.0,3.0,-5.0,-3.0,1.2216520309448242
268,-166.0,1572.0,-3992.0,0.0,8012.0,5314.0,-10141.0,-8553.0,-4.0,2.0,8.0,4.0,-1.0,3.0,-5.0,-3.0,1.2239668369293213
269,-166.0,1572.0,-3992.0,0.0,8012.0,5314.0,-10141.0,-8553.0,10.0,11.0,14.0,13.0,9.0,-13.0,20.0,14.0,1.2269649505615234
270,-166.0,1572.0,-3992.0,0.0,8012.0,5314.0,-10141.0,-8553.0,-7.0,-6.0,6.0,-6.0,-15.0,1.0,0.0,-7.0,1.239546537399292
271,-969.0,1396.0,-4660.0,0.0,7777.0,5867.0,-9644.0,-8974.0,-7.0,-6.0,6.0,-6.0,-15.0,1.0,0.0,-7.0,1.2418527603149414
272,-969.0,1396.0,-4660.0,0.0,7777.0,5867.0,-9644.0,-8974.0,-1.0,3.0,-8.0,-11.0,-22.0,-15.0,-8.0,-3.0,1.2464978694915771
273,-969.0,1396.0,-4660.0,0.0,7777.0,5867.0,-9644.0,-8974.0,1.0,2.0,13.0,-1.0,11.0,10.0,-11.0,-8.0,1.2623450756072998
274,-1610.0,1239.0,-5267.0,0.0,7488.0,6384.0,-9058.0,-9464.0,1.0,2.0,13.0,-1.0,11.0,10.0,-11.0,-8.0,1.2646405696868896
275,-1610.0,1239.0,-5267.0,0.0,7488.0,6384.0,-9058.0,-9464.0,-7.0,-10.0,11.0,6.0,-14.0,-18.0,3.0,-2.0,1.2691898345947266
276,-1610.0,1239.0,-5267.0,0.0,7488.0,6384.0,-9058.0,-9464.0,10.0,13.0,14.0,-20.0,14.0,7.0,0.0,5.0,1.277341604232788
277,-1837.0,1101.0,-5301.0,0.0,7179.0,6842.0,-8432.0,-9949.0,10.0,13.0,14.0,-20.0,14.0,7.0,0.0,5.0,1.2796432971954346
278,-1837.0,1101.0,-5301.0,0.0,7179.0,6842.0,-8432.0,-9949.0,-1.0,-6.0,-1.0,13.0,11.0,9.0,-4.0,2.0,1.283726453781128
279,-1837.0,1101.0,-5301.0,0.0,7179.0,6842.0,-8432.0,-9949.0,-2.0,-10.0,-14.0,10.0,-8.0,-1.0,0.0,0.0,1.2996330261230469
280,-1918.0,917.0,-5191.0,0.0,6851.0,7239.0,-7791.0,-10412.0,-2.0,-10.0,-14.0,10.0,-8.0,-1.0,0.0,0.0,1.301917314529419
281,-1918.0,917.0,-5191.0,0.0,6851.0,7239.0,-7791.0,-10412.0,-1.0,5.0,18.0,2.0,7.0,-2.0,-3.0,-4.0,1.3065686225891113
282,-1918.0,917.0,-5191.0,0.0,6851.0,7239.0,-7791.0,-10412.0,-5.0,-7.0,-1.0,-20.0,-21.0,-2.0,-2.0,-2.0,1.3302485942840576
283,-1862.0,707.0,-5120.0,0.0,6486.0,7586.0,-7146.0,-10852.0,-5.0,-7.0,-1.0,-20.0,-21.0,-2.0,-2.0,-2.0,1.3325421810150146
284,-1862.0,707.0,-5120.0,0.0,6486.0,7586.0,-7146.0,-10852.0,-2.0,0.0,-10.0,-7.0,13.0,14.0,-6.0,-3.0,1.3349030017852783
285,-1862.0,707.0,-5120.0,0.0,6486.0,7586.0,-7146.0,-10852.0,1.0,3.0,16.0,20.0,21.0,1.0,1.0,1.0,1.3455259799957275
286,-1804.0,429.0,-5108.0,0.0,6071.0,7883.0,-6500.0,-11278.0,1.0,3.0,16.0,20.0,21.0,1.0,1.0,1.0,1.347801923751831
287,-1804.0,429.0,-5108.0,0.0,6071.0,7883.0,-6500.0,-11278.0,-2.0,-8.0,19.0,-17.0,-4.0,7.0,-1.0,-2.0,1.3501152992248535
288,-1804.0,429.0,-5108.0,0.0,6071.0,7883.0,-6500.0,-11278.0,1.0,-6.0,-22.0,1.0,-11.0,-2.0,4.0,2.0,1.359893560409546
289,-1738.0,379.0,-4711.0,0.0,5675.0,8128.0,-5877.0,-11646.0,1.0,-6.0,-22.0,1.0,-11.0,-2.0,4.0,2.0,1.3621716499328613
290,-1738.0,379.0,-4711.0,0.0,5675.0,8128.0,-5877.0,-11646.0,-1.0,2.0,21.0,15.0,-18.0,-23.0,-5.0,-2.0,1.3666653633117676
291,-1738.0,379.0,-4711.0,0.0,5675.0,8128.0,-5877.0,-11646.0,3.0,7.0,9.0,-18.0,15.0,20.0,0.0,-1.0,1.3902161121368408
292,-1826.0,272.0,-3970.0,0.0,5358.0,8287.0,-5293.0,-11960.0,3.0,7.0,9.0,-18.0,15.0,20.0,0.0,-1.0,1.3925085067749023
293,-1826.0,272.0,-3970.0,0.0,5358.0,8287.0,-5293.0,-11960.0,-3.0,-2.0,-13.0,-27.0,-12.0,-7.0,-3.0,-4.0,1.3948397636413574
294,-1826.0,272.0,-3970.0,0.0,5358.0,8287.0,-5293.0,-11960.0,1.0,2.0,-4.0,-2.0,-13.0,8.0,-4.0,-6.0,1.4052386283874512
295,-2070.0,309.0,-3258.0,0.0,5146.0,8381.0,-4726.0,-12222.0,1.0,2.0,-4.0,-2.0,-13.0,8.0,-4.0,-6.0,1.4119889736175537
296,-2070.0,309.0,-3258.0,0.0,5146.0,8381.0,-4726.0,-12222.0,0.0,5.0,-11.0,16.0,-12.0,6.0,0.0,-2.0,1.4144842624664307
297,-2070.0,309.0,-3258.0,0.0,5146.0,8381.0,-4726.0,-12222.0,-2.0,-3.0,11.0,6.0,0.0,-5.0,4.0,4.0,1.419494390487671
298,-2064.0,392.0,-2827.0,0.0,4983.0,8449.0,-4177.0,-12441.0,-2.0,-3.0,11.0,6.0,0.0,-5.0,4.0,4.0,1.421743631362915
299,-2064.0,392.0,-2827.0,0.0,4983.0,8449.0,-4177.0,-12441.0,-3.0,-10.0,-1.0,18.0,-12.0,4.0,-8.0,-10.0,1.426769733428955
300,-2064.0,392.0,-2827.0,0.0,4983.0,8449.0,-4177.0,-12441.0,2.0,-2.0,9.0,6.0,-20.0,-14.0,-4.0,-1.0,1.4416882991790771
301,-1660.0,214.0,-2451.0,0.0,4812.0,8492.0,-3712.0,-12625.0,2.0,-2.0,9.0,6.0,-20.0,-14.0,-4.0,-1.0,1.44968581199646
302,-1660.0,214.0,-2451.0,0.0,4812.0,8492.0,-3712.0,-12625.0,0.0,20.0,51.0,20.0,5.0,-4.0,-1.0,3.0,1.4521262645721436
303,-1660.0,214.0,-2451.0,0.0,4812.0,8492.0,-3712.0,-12625.0,-6.0,-6.0,-17.0,13.0,24.0,-8.0,-4.0,-11.0,1.4568581581115723
304,-1485.0,21.0,-2180.0,0.0,4644.0,8503.0,-3296.0,-12795.0,-6.0,-6.0,-17.0,13.0,24.0,-8.0,-4.0,-11.0,1.459099292755127
305,-1485.0,21.0,-2180.0,0.0,4644.0,8503.0,-3296.0,-12795.0,-2.0,-18.0,-14.0,-7.0,16.0,4.0,-1.0,-3.0,1.4639561176300049
306,-1485.0,21.0,-2180.0,0.0,4644.0,8503.0,-3296.0,-12795.0,3.0,-1.0,-5.0,-15.0,12.0,-24.0,5.0,21.0,1.4821314811706543
307,-1487.0,-171.0,-1880.0,0.0,4505.0,8470.0,-2909.0,-12959.0,3.0,-1.0,-5.0,-15.0,12.0,-24.0,5.0,21.0,1.4870903491973877
308,-1487.0,-171.0,-1880.0,0.0,4505.0,8470.0,-2909.0,-12959.0,-9.0,-15.0,-10.0,-36.0,28.0,39.0,-11.0,-14.0,1.4917793273925781
309,-1487.0,-171.0,-1880.0,0.0,4505.0,8470.0,-2909.0,-12959.0,-6.0,2.0,10.0,-9.0,-106.0,-33.0,-19.0,-2.0,1.5019147396087646
310,-1176.0,-422.0,-1406.0,0.0,4346.0,8437.0,-2558.0,-13108.0,-6.0,2.0,10.0,-9.0,-106.0,-33.0,-19.0,-2.0,1.5042798519134521
311,-1176.0,-422.0,-1406.0,0.0,4346.0,8437.0,-2558.0,-13108.0,6.0,4.0,-11.0,-19.0,56.0,11.0,-6.0,9.0,1.509253740310669
312,-1176.0,-422.0,-1406.0,0.0,4346.0,8437.0,-2558.0,-13108.0,6.0,5.0,-7.0,4.0,63.0,111.0,0.0,-11.0,1.5170199871063232
313,-700.0,-700.0,-873.0,0.0,4186.0,8377.0,-2291.0,-13247.0,6.0,5.0,-7.0,4.0,63.0,111.0,0.0,-11.0,1.5193185806274414
314,-700.0,-700.0,-873.0,0.0,4186.0,8377.0,-2291.0,-13247.0,3.0,-6.0,-8.0,24.0,-71.0,-22.0,15.0,0.0,1.531700849533081
315,-700.0,-700.0,-873.0,0.0,4186.0,8377.0,-2291.0,-13247.0,-21.0,7.0,-2.0,-4.0,83.0,57.0,10.0,-1.0,1.5400021076202393
316,328.0,-596.0,-286.0,0.0,4010.0,8351.0,-2192.0,-13335.0,-21.0,7.0,-2.0,-4.0,83.0,57.0,10.0,-1.0,1.542609691619873
317,328.0,-596.0,-286.0,0.0,4010.0,8351.0,-2192.0,-13335.0,-39.0,-107.0,-39.0,-36.0,-59.0,-85.0,-56.0,-92.0,1.5456366539001465
318,328.0,-596.0,-286.0,0.0,4010.0,8351.0,-2192.0,-13335.0,31.0,68.0,45.0,10.0,-85.0,71.0,55.0,24.0,1.5619738101959229
319,1257.0,-615.0,405.0,0.0,3939.0,8305.0,-2438.0,-13342.0,31.0,68.0,45.0,10.0,-85.0,71.0,55.0,24.0,1.564260482788086
320,1257.0,-615.0,405.0,0.0,3939.0,8305.0,-2438.0,-13342.0,8.0,-92.0,-23.0,23.0,3.0,-12.0,-73.0,30.0,1.5779597759246826
321,1257.0,-615.0,405.0,0.0,3939.0,8305.0,-2438.0,-13342.0,22.0,90.0,80.0,65.0,77.0,-105.0,-101.0,-49.0,1.5802552700042725
322,3258.0,-950.0,1313.0,0.0,3807.0,8266.0,-3070.0,-13274.0,22.0,90.0,80.0,65.0,77.0,-105.0,-101.0,-49.0,1.5825510025024414
323,3258.0,-950.0,1313.0,0.0,3807.0,8266.0,-3070.0,-13274.0,-44.0,-70.0,-80.0,-75.0,-105.0,35.0,-7.0,15.0,1.5848827362060547
324,3258.0,-950.0,1313.0,0.0,3807.0,8266.0,-3070.0,-13274.0,120.0,-5.0,-39.0,-35.0,-35.0,61.0,80.0,89.0,1.5994644165039062
325,3761.0,-667.0,2879.0,0.0,3857.0,8218.0,-3897.0,-13071.0,120.0,-5.0,-39.0,-35.0,-35.0,61.0,80.0,89.0,1.6018354892730713
326,3761.0,-667.0,2879.0,0.0,3857.0,8218.0,-3897.0,-13071.0,50.0,9.0,94.0,118.0,100.0,20.0,77.0,127.0,1.60664963722229
327,3761.0,-667.0,2879.0,0.0,3857.0,8218.0,-3897.0,-13071.0,-128.0,-128.0,-44.0,-82.0,12.0,-26.0,-91.0,-54.0,1.62203049659729
328,2757.0,-883.0,4953.0,0.0,4270.0,7982.0,-4762.0,-12799.0,-128.0,-128.0,-44.0,-82.0,12.0,-26.0,-91.0,-54.0,1.6260347366333008
329,2757.0,-883.0,4953.0,0.0,4270.0,7982.0,-4762.0,-12799.0,101.0,127.0,-7.0,21.0,55.0,-23.0,75.0,55.0,1.639620065689087
330,2757.0,-883.0,4953.0,0.0,4270.0,7982.0,-4762.0,-12799.0,-84.0,-113.0,-99.0,-30.0,-96.0,-105.0,-38.0,-63.0,1.643784761428833
331,2141.0,-883.0,6800.0,0.0,4972.0,7582.0,-5676.0,-12410.0,-84.0,-113.0,-99.0,-30.0,-96.0,-105.0,-38.0,-63.0,1.647780179977417
332,2141.0,-883.0,6800.0,0.0,4972.0,7582.0,-5676.0,-12410.0,-43.0,8.0,29.0,127.0,127.0,-49.0,-113.0,17.0,1.651500940322876
333,2141.0,-883.0,6800.0,0.0,4972.0,7582.0,-5676.0,-12410.0,17.0,42.0,25.0,108.0,2.0,2.0,-39.0,6.0,1.6538615226745605
334,2259.0,-1367.0,7890.0,0.0,5745.0,7003.0,-6682.0,-11906.0,17.0,42.0,25.0,108.0,2.0,2.0,-39.0,6.0,1.6699395179748535
335,2259.0,-1367.0,7890.0,0.0,5745.0,7003.0,-6682.0,-11906.0,0.0,23.0,22.0,-128.0,40.0,20.0,-66.0,15.0,1.6742916107177734
336,2259.0,-1367.0,7890.0,0.0,5745.0,7003.0,-6682.0,-11906.0,-65.0,-127.0,-40.0,-16.0,38.0,-6.0,78.0,62.0,1.6830601692199707
337,3610.0,-1710.0,8562.0,0.0,6423.0,6349.0,-7870.0,-11178.0,-65.0,-127.0,-40.0,-16.0,38.0,-6.0,78.0,62.0,1.6854643821716309
338,3610.0,-1710.0,8562.0,0.0,6423.0,6349.0,-7870.0,-11178.0,101.0,116.0,102.0,-78.0,-36.0,60.0,102.0,41.0,1.6889872550964355
339,3610.0,-1710.0,8562.0,0.0,6423.0,6349.0,-7870.0,-11178.0,18.0,24.0,4.0,-70.0,-3.0,31.0,-7.0,-24.0,1.6913623809814453
340,4412.0,-1937.0,8123.0,0.0,6905.0,5695.0,-9059.0,-10309.0,18.0,24.0,4.0,-70.0,-3.0,31.0,-7.0,-24.0,1.6965391635894775
341,4412.0,-1937.0,8123.0,0.0,6905.0,5695.0,-9059.0,-10309.0,-50.0,-59.0,-128.0,-20.0,-128.0,-89.0,1.0,-31.0,1.712373971939087
342,4412.0,-1937.0,8123.0,0.0,6905.0,5695.0,-9059.0,-10309.0,16.0,13.0,72.0,-7.0,-85.0,-23.0,33.0,2.0,1.714735984802246
343,3397.0,-1527.0,7138.0,0.0,7317.0,5054.0,-9961.0,-9494.0,16.0,13.0,72.0,-7.0,-85.0,-23.0,33.0,2.0,1.7192318439483643
344,3397.0,-1527.0,7138.0,0.0,7317.0,5054.0,-9961.0,-9494.0,-8.0,53.0,127.0,10.0,-4.0,14.0,7.0,10.0,1.7266490459442139
345,3397.0,-1527.0,7138.0,0.0,7317.0,5054.0,-9961.0,-9494.0,-2.0,-6.0,-14.0,-66.0,29.0,15.0,18.0,-7.0,1.7346327304840088
346,2326.0,-1870.0,4037.0,0.0,7393.0,4601.0,-10558.0,-9009.0,-2.0,-6.0,-14.0,-66.0,29.0,15.0,18.0,-7.0,1.7369771003723145
347,2326.0,-1870.0,4037.0,0.0,7393.0,4601.0,-10558.0,-9009.0,-41.0,-87.0,-64.0,124.0,85.0,55.0,19.0,-38.0,1.7500269412994385
348,2326.0,-1870.0,4037.0,0.0,7393.0,4601.0,-10558.0,-9009.0,15.0,45.0,-35.0,3.0,-6.0,6.0,-27.0,-9.0,1.7523775100708008
349,2995.0,-2226.0,1391.0,0.0,7116.0,4459.0,-11091.0,-8655.0,15.0,45.0,-35.0,3.0,-6.0,6.0,-27.0,-9.0,1.7563300132751465
350,2995.0,-2226.0,1391.0,0.0,7116.0,4459.0,-11091.0,-8655.0,-47.0,-30.0,-84.0,-77.0,-97.0,-60.0,-31.0,-78.0,1.7640588283538818
351,2995.0,-2226.0,1391.0,0.0,7116.0,4459.0,-11091.0,-8655.0,-21.0,8.0,-41.0,106.0,26.0,74.0,19.0,3.0,1.7801439762115479
352,2210.0,-2166.0,1422.0,0.0,6876.0,4251.0,-11529.0,-8377.0,-21.0,8.0,-41.0,106.0,26.0,74.0,19.0,3.0,1.7842144966125488
353,2210.0,-2166.0,1422.0,0.0,6876.0,4251.0,-11529.0,-8377.0,-2.0,-20.0,-43.0,63.0,67.0,-4.0,2.0,-38.0,1.7882776260375977
354,2210.0,-2166.0,1422.0,0.0,6876.0,4251.0,-11529.0,-8377.0,21.0,26.0,127.0,79.0,25.0,-25.0,-76.0,-55.0,1.802133560180664
355,858.0,-1587.0,3189.0,0.0,6957.0,3752.0,-11824.0,-8134.0,21.0,26.0,127.0,79.0,25.0,-25.0,-76.0,-55.0,1.8061912059783936
356,858.0,-1587.0,3189.0,0.0,6957.0,3752.0,-11824.0,-8134.0,-2.0,-7.0,-20.0,-4.0,-1.0,-9.0,4.0,-37.0,1.810253381729126
357,858.0,-1587.0,3189.0,0.0,6957.0,3752.0,-11824.0,-8134.0,-29.0,-43.0,43.0,-64.0,-37.0,-31.0,23.0,10.0,1.8169198036193848
358,181.0,-1168.0,3940.0,0.0,7162.0,3138.0,-12063.0,-7860.0,-29.0,-43.0,43.0,-64.0,-37.0,-31.0,23.0,10.0,1.8192088603973389
359,181.0,-1168.0,3940.0,0.0,7162.0,3138.0,-12063.0,-7860.0,-31.0,3.0,76.0,69.0,-30.0,15.0,-22.0,2.0,1.824300765991211
360,181.0,-1168.0,3940.0,0.0,7162.0,3138.0,-12063.0,-7860.0,81.0,98.0,-19.0,-40.0,1.0,-13.0,23.0,35.0,1.8404598236083984
361,849.0,-634.0,2968.0,0.0,7305.0,2754.0,-12278.0,-7533.0,81.0,98.0,-19.0,-40.0,1.0,-13.0,23.0,35.0,1.844682216644287
362,849.0,-634.0,2968.0,0.0,7305.0,2754.0,-12278.0,-7533.0,-10.0,-29.0,-23.0,-76.0,-15.0,-2.0,9.0,26.0,1.849036693572998
363,849.0,-634.0,2968.0,0.0,7305.0,2754.0,-12278.0,-7533.0,-44.0,-109.0,-62.0,-38.0,6.0,-15.0,42.0,67.0,1.8621253967285156
364,595.0,-148.0,2258.0,0.0,7466.0,2477.0,-12395.0,-7276.0,-44.0,-109.0,-62.0,-38.0,6.0,-15.0,42.0,67.0,1.8663182258605957
365,595.0,-148.0,2258.0,0.0,7466.0,2477.0,-12395.0,-7276.0,-22.0,-83.0,-29.0,-34.0,-13.0,8.0,-20.0,60.0,1.8704533576965332
366,595.0,-148.0,2258.0,0.0,7466.0,2477.0,-12395.0,-7276.0,24.0,26.0,3.0,5.0,-5.0,-47.0,-3.0,-1.0,1.8766059875488281
367,939.0,271.0,1577.0,0.0,7639.0,2339.0,-12465.0,-7018.0,24.0,26.0,3.0,5.0,-5.0,-47.0,-3.0,-1.0,1.8844187259674072
368,939.0,271.0,1577.0,0.0,7639.0,2339.0,-12465.0,-7018.0,49.0,67.0,71.0,17.0,83.0,34.0,42.0,67.0,1.886901617050171
369,939.0,271.0,1577.0,0.0,7639.0,2339.0,-12465.0,-7018.0,-22.0,-14.0,7.0,22.0,17.0,-24.0,-52.0,-87.0,1.9013009071350098
370,1166.0,542.0,1080.0,0.0,7725.0,2393.0,-12506.0,-6830.0,-22.0,-14.0,7.0,22.0,17.0,-24.0,-52.0,-87.0,1.9059500694274902
371,1166.0,542.0,1080.0,0.0,7725.0,2393.0,-12506.0,-6830.0,-19.0,-11.0,-27.0,27.0,-10.0,13.0,56.0,-1.0,1.910573959350586
372,1166.0,542.0,1080.0,0.0,7725.0,2393.0,-12506.0,-6830.0,-59.0,-32.0,-15.0,-29.0,53.0,20.0,39.0,17.0,1.923346996307373
373,385.0,805.0,751.0,0.0,7800.0,2496.0,-12447.0,-6815.0,-59.0,-32.0,-15.0,-29.0,53.0,20.0,39.0,17.0,1.9279487133026123
374,385.0,805.0,751.0,0.0,7800.0,2496.0,-12447.0,-6815.0,91.0,100.0,12.0,-37.0,20.0,-9.0,-49.0,-42.0,1.9320793151855469
375,385.0,805.0,751.0,0.0,7800.0,2496.0,-12447.0,-6815.0,5.0,-47.0,23.0,18.0,15.0,11.0,9.0,67.0,1.9364142417907715
376,-433.0,569.0,-240.0,0.0,7842.0,2585.0,-12331.0,-6943.0,5.0,-47.0,23.0,18.0,15.0,11.0,9.0,67.0,1.9451751708984375
377,-433.0,569.0,-240.0,0.0,7842.0,2585.0,-12331.0,-6943.0,-5.0,-45.0,-68.0,16.0,-49.0,15.0,85.0,41.0,1.9478075504302979
378,-433.0,569.0,-240.0,0.0,7842.0,2585.0,-12331.0,-6943.0,7.0,15.0,50.0,9.0,18.0,-5.0,-12.0,-20.0,1.9602766036987305
379,-158.0,588.0,-852.0,0.0,7840.0,2746.0,-12252.0,-7022.0,7.0,15.0,50.0,9.0,18.0,-5.0,-12.0,-20.0,1.9643263816833496
380,-158.0,588.0,-852.0,0.0,7840.0,2746.0,-12252.0,-7022.0,-30.0,-17.0,-47.0,3.0,1.0,-18.0,-28.0,-60.0,1.968933343887329
381,-158.0,588.0,-852.0,0.0,7840.0,2746.0,-12252.0,-7022.0,-3.0,6.0,-17.0,8.0,41.0,-15.0,1.0,1.0,1.9823641777038574
382,163.0,590.0,-987.0,0.0,7811.0,2962.0,-12188.0,-7080.0,-3.0,6.0,-17.0,8.0,41.0,-15.0,1.0,1.0,1.9852087497711182
383,163.0,590.0,-987.0,0.0,7811.0,2962.0,-12188.0,-7080.0,-4.0,13.0,-8.0,-18.0,-23.0,7.0,-5.0,-7.0,1.988363265991211
384,163.0,590.0,-987.0,0.0,7811.0,2962.0,-12188.0,-7080.0,-10.0,-22.0,-20.0,-9.0,-13.0,-20.0,5.0,-1.0,1.9968328475952148
385,-165.0,497.0,-1012.0,0.0,7780.0,3140.0,-12105.0,-7177.0,-10.0,-22.0,-20.0,-9.0,-13.0,-20.0,5.0,-1.0,2.0046539306640625
386,-165.0,497.0,-1012.0,0.0,7780.0,3140.0,-12105.0,-7177.0,-1.0,13.0,10.0,-12.0,-29.0,5.0,-33.0,-28.0,2.0070273876190186
387,-165.0,497.0,-1012.0,0.0,7780.0,3140.0,-12105.0,-7177.0,24.0,24.0,-20.0,-11.0,15.0,29.0,-6.0,-16.0,2.02044939994812
388,-531.0,319.0,-909.0,0.0,7775.0,3226.0,-12017.0,-7293.0,24.0,24.0,-20.0,-11.0,15.0,29.0,-6.0,-16.0,2.0247838497161865
389,-531.0,319.0,-909.0,0.0,7775.0,3226.0,-12017.0,-7293.0,-14.0,-33.0,-29.0,5.0,-29.0,2.0,10.0,-12.0,2.029658555984497
390,-531.0,319.0,-909.0,0.0,7775.0,3226.0,-12017.0,-7293.0,24.0,11.0,-85.0,-18.0,-23.0,19.0,7.0,19.0,2.050837516784668
391,-364.0,101.0,-822.0,0.0,7739.0,3285.0,-11985.0,-7356.0,24.0,11.0,-85.0,-18.0,-23.0,19.0,7.0,19.0,2.05530047416687
392,-364.0,101.0,-822.0,0.0,7739.0,3285.0,-11985.0,-7356.0,-9.0,9.0,60.0,18.0,16.0,-6.0,2.0,-5.0,2.0598902702331543
393,-364.0,101.0,-822.0,0.0,7739.0,3285.0,-11985.0,-7356.0,8.0,4.0,1.0,11.0,6.0,1.0,33.0,23.0,2.0638554096221924
394,-338.0,158.0,-578.0,0.0,7725.0,3329.0,-11952.0,-7404.0,8.0,4.0,1.0,11.0,6.0,1.0,33.0,23.0,2.066216230392456
395,-338.0,158.0,-578.0,0.0,7725.0,3329.0,-11952.0,-7404.0,-6.0,10.0,46.0,-39.0,-31.0,-5.0,13.0,2.0,2.0690746307373047
396,-338.0,158.0,-578.0,0.0,7725.0,3329.0,-11952.0,-7404.0,-8.0,-8.0,-1.0,12.0,-28.0,1.0,-8.0,7.0,2.079357147216797
397,-359.0,129.0,-500.0,0.0,7719.0,3354.0,-11921.0,-7450.0,-8.0,-8.0,-1.0,12.0,-28.0,1.0,-8.0,7.0,2.0818212032318115
398,-359.0,129.0,-500.0,0.0,7719.0,3354.0,-11921.0,-7450.0,11.0,23.0,70.0,-13.0,5.0,-5.0,-8.0,-5.0,2.086454153060913
399,-359.0,129.0,-500.0,0.0,7719.0,3354.0,-11921.0,-7450.0,19.0,26.0,-31.0,-16.0,-38.0,-9.0,-7.0,-1.0,2.1018145084381104
400,-259.0,101.0,-414.0,0.0,7727.0,3359.0,-11902.0,-7469.0,19.0,26.0,-31.0,-16.0,-38.0,-9.0,-7.0,-1.0,2.1040852069854736
401,-259.0,101.0,-414.0,0.0,7727.0,3359.0,-11902.0,-7469.0,-23.0,-37.0,-40.0,11.0,19.0,13.0,-5.0,-2.0,2.1094493865966797
402,-259.0,101.0,-414.0,0.0,7727.0,3359.0,-11902.0,-7469.0,10.0,15.0,48.0,5.0,15.0,-8.0,6.0,1.0,2.1162848472595215
403,-58.0,99.0,-313.0,0.0,7729.0,3380.0,-11897.0,-7466.0,10.0,15.0,48.0,5.0,15.0,-8.0,6.0,1.0,2.1244688034057617
404,-58.0,99.0,-313.0,0.0,7729.0,3380.0,-11897.0,-7466.0,11.0,11.0,-54.0,-1.0,9.0,4.0,-1.0,-3.0,2.126845121383667
405,-58.0,99.0,-313.0,0.0,7729.0,3380.0,-11897.0,-7466.0,5.0,14.0,-33.0,15.0,28.0,22.0,15.0,7.0,2.1395320892333984
406,-33.0,88.0,-259.0,0.0,7721.0,3412.0,-11888.0,-7475.0,5.0,14.0,-33.0,15.0,28.0,22.0,15.0,7.0,2.1422548294067383
407,-33.0,88.0,-259.0,0.0,7721.0,3412.0,-11888.0,-7475.0,17.0,11.0,19.0,9.0,40.0,-9.0,-17.0,-7.0,2.146599769592285
408,-33.0,88.0,-259.0,0.0,7721.0,3412.0,-11888.0,-7475.0,2.0,-30.0,12.0,-13.0,-17.0,-19.0,-4.0,-10.0,2.16291880607605
409,-102.0,18.0,-255.0,0.0,7720.0,3420.0,-11876.0,-7491.0,2.0,-30.0,12.0,-13.0,-17.0,-19.0,-4.0,-10.0,2.165315628051758
410,-102.0,18.0,-255.0,0.0,7720.0,3420.0,-11876.0,-7491.0,-2.0,-8.0,5.0,12.0,-19.0,-8.0,-2.0,6.0,2.168135166168213
411,-102.0,18.0,-255.0,0.0,7720.0,3420.0,-11876.0,-7491.0,-7.0,19.0,-14.0,8.0,23.0,18.0,0.0,5.0,2.1766700744628906
412,-89.0,-30.0,-241.0,0.0,7710.0,3423.0,-11876.0,-7500.0,-7.0,19.0,-14.0,8.0,23.0,18.0,0.0,5.0,2.184459686279297
413,-89.0,-30.0,-241.0,0.0,7710.0,3423.0,-11876.0,-7500.0,-13.0,5.0,-4.0,-39.0,-11.0,-4.0,-5.0,-4.0,2.18679141998291
414,-89.0,-30.0,-241.0,0.0,7710.0,3423.0,-11876.0,-7500.0,-7.0,-22.0,46.0,9.0,-19.0,-6.0,-2.0,-18.0,2.200751543045044
415,-37.0,-63.0,-170.0,0.0,7690.0,3425.0,-11890.0,-7496.0,-7.0,-22.0,46.0,9.0,-19.0,-6.0,-2.0,-18.0,2.205892562866211
416,-37.0,-63.0,-170.0,0.0,7690.0,3425.0,-11890.0,-7496.0,-12.0,-9.0,-18.0,-13.0,-16.0,1.0,12.0,8.0,2.211378335952759
417,-37.0,-63.0,-170.0,0.0,7690.0,3425.0,-11890.0,-7496.0,0.0,4.0,-10.0,-34.0,-15.0,-12.0,-34.0,11.0,2.2234597206115723
418,-38.0,-45.0,-133.0,0.0,7676.0,3427.0,-11899.0,-7495.0,0.0,4.0,-10.0,-34.0,-15.0,-12.0,-34.0,11.0,2.22772479057312
419,-38.0,-45.0,-133.0,0.0,7676.0,3427.0,-11899.0,-7495.0,0.0,-5.0,14.0,9.0,-4.0,-1.0,3.0,2.0,2.2320826053619385
420,-38.0,-45.0,-133.0,0.0,7676.0,3427.0,-11899.0,-7495.0,9.0,4.0,-16.0,16.0,0.0,-2.0,-4.0,-2.0,2.2452938556671143
421,-17.0,-37.0,-88.0,0.0,7667.0,3428.0,-11906.0,-7495.0,9.0,4.0,-16.0,16.0,0.0,-2.0,-4.0,-2.0,2.2487051486968994
422,-17.0,-37.0,-88.0,0.0,7667.0,3428.0,-11906.0,-7495.0,4.0,-1.0,17.0,8.0,4.0,5.0,3.0,2.0,2.2527921199798584
423,-17.0,-37.0,-88.0,0.0,7667.0,3428.0,-11906.0,-7495.0,2.0,7.0,-16.0,-4.0,-13.0,6.0,3.0,-2.0,2.259544849395752
424,-60.0,-83.0,-68.0,0.0,7652.0,3419.0,-11917.0,-7496.0,2.0,7.0,-16.0,-4.0,-13.0,6.0,3.0,-2.0,2.2618939876556396
425,-60.0,-83.0,-68.0,0.0,7652.0,3419.0,-11917.0,-7496.0,-7.0,1.0,22.0,-17.0,-9.0,-2.0,2.0,-7.0,2.2663748264312744
426,-60.0,-83.0,-68.0,0.0,7652.0,3419.0,-11917.0,-7496.0,10.0,15.0,37.0,12.0,3.0,2.0,2.0,2.0,2.282911777496338
427,-65.0,-94.0,-62.0,0.0,7640.0,3404.0,-11931.0,-7493.0,10.0,15.0,37.0,12.0,3.0,2.0,2.0,2.0,2.2852120399475098
428,-65.0,-94.0,-62.0,0.0,7640.0,3404.0,-11931.0,-7493.0,-1.0,-1.0,-8.0,2.0,-5.0,-16.0,-1.0,-4.0,2.2875685691833496
429,-65.0,-94.0,-62.0,0.0,7640.0,3404.0,-11931.0,-7493.0,-15.0,-17.0,19.0,9.0,0.0,-6.0,-6.0,-5.0,2.3056559562683105
430,8.0,-85.0,-32.0,0.0,7620.0,3401.0,-11950.0,-7485.0,-15.0,-17.0,19.0,9.0,0.0,-6.0,-6.0,-5.0,2.307957649230957
431,8.0,-85.0,-32.0,0.0,7620.0,3401.0,-11950.0,-7485.0,-2.0,22.0,-2.0,-10.0,4.0,21.0,-12.0,-3.0,2.310352325439453
432,8.0,-85.0,-32.0,0.0,7620.0,3401.0,-11950.0,-7485.0,9.0,13.0,8.0,19.0,13.0,-2.0,-3.0,-14.0,2.3198959827423096
433,-5.0,-66.0,23.0,0.0,7604.0,3396.0,-11965.0,-7479.0,9.0,13.0,8.0,19.0,13.0,-2.0,-3.0,-14.0,2.3221991062164307
434,-5.0,-66.0,23.0,0.0,7604.0,3396.0,-11965.0,-7479.0,-6.0,-12.0,-27.0,-12.0,-14.0,6.0,-1.0,9.0,2.326277494430542
435,-5.0,-66.0,23.0,0.0,7604.0,3396.0,-11965.0,-7479.0,4.0,22.0,21.0,9.0,13.0,-10.0,4.0,5.0,2.3425776958465576
436,-39.0,-52.0,18.0,0.0,7599.0,3381.0,-11977.0,-7471.0,4.0,22.0,21.0,9.0,13.0,-10.0,4.0,5.0,2.3449058532714844
437,-39.0,-52.0,18.0,0.0,7599.0,3381.0,-11977.0,-7471.0,-4.0,-15.0,-23.0,-8.0,-14.0,-6.0,5.0,-8.0,2.3472795486450195
438,-39.0,-52.0,18.0,0.0,7599.0,3381.0,-11977.0,-7471.0,-3.0,-8.0,1.0,-9.0,-9.0,3.0,-1.0,-5.0,2.365546703338623
439,-27.0,-70.0,-4.0,0.0,7597.0,3360.0,-11994.0,-7456.0,-3.0,-8.0,1.0,-9.0,-9.0,3.0,-1.0,-5.0,2.3680717945098877
440,-27.0,-70.0,-4.0,0.0,7597.0,3360.0,-11994.0,-7456.0,2.0,11.0,-19.0,0.0,17.0,-6.0,0.0,-3.0,2.370508909225464
441,-27.0,-70.0,-4.0,0.0,7597.0,3360.0,-11994.0,-7456.0,-6.0,-19.0,-13.0,-20.0,3.0,4.0,2.0,4.0,2.379379987716675
442,79.0,-71.0,-15.0,0.0,7587.0,3355.0,-12013.0,-7437.0,-6.0,-19.0,-13.0,-20.0,3.0,4.0,2.0,4.0,2.3816750049591064
443,79.0,-71.0,-15.0,0.0,7587.0,3355.0,-12013.0,-7437.0,-4.0,0.0,-51.0,-8.0,-8.0,-7.0,-1.0,2.0,2.3866100311279297
444,79.0,-71.0,-15.0,0.0,7587.0,3355.0,-12013.0,-7437.0,-2.0,16.0,4.0,-9.0,-3.0,13.0,30.0,13.0,2.403510332107544
445,130.0,-64.0,-43.0,0.0,7576.0,3361.0,-12027.0,-7423.0,-2.0,16.0,4.0,-9.0,-3.0,13.0,30.0,13.0,2.405874013900757
446,130.0,-64.0,-43.0,0.0,7576.0,3361.0,-12027.0,-7423.0,-1.0,-13.0,29.0,3.0,12.0,3.0,3.0,8.0,2.4082441329956055
447,130.0,-64.0,-43.0,0.0,7576.0,3361.0,-12027.0,-7423.0,-7.0,-6.0,43.0,-1.0,-3.0,2.0,-6.0,-13.0,2.425307512283325
448,116.0,-42.0,2.0,0.0,7569.0,3366.0,-12038.0,-7410.0,-7.0,-6.0,43.0,-1.0,-3.0,2.0,-6.0,-13.0,2.428283452987671
449,116.0,-42.0,2.0,0.0,7569.0,3366.0,-12038.0,-7410.0,11.0,26.0,12.0,-4.0,-14.0,-16.0,-1.0,-3.0,2.4309163093566895
450,116.0,-42.0,2.0,0.0,7569.0,3366.0,-12038.0,-7410.0,-3.0,-21.0,-37.0,-13.0,-24.0,-9.0,1.0,-1.0,2.439483642578125
451,-18.0,-14.0,20.0,0.0,7565.0,3363.0,-12042.0,-7410.0,-3.0,-21.0,-37.0,-13.0,-24.0,-9.0,1.0,-1.0,2.441774606704712
452,-18.0,-14.0,20.0,0.0,7565.0,3363.0,-12042.0,-7410.0,-5.0,-10.0,30.0,10.0,19.0,13.0,-4.0,-7.0,2.446911334991455
453,-18.0,-14.0,20.0,0.0,7565.0,3363.0,-12042.0,-7410.0,-4.0,-6.0,-18.0,3.0,8.0,-1.0,-5.0,-3.0,2.463284730911255
454,-60.0,-13.0,-23.0,0.0,7561.0,3359.0,-12042.0,-7414.0,-4.0,-6.0,-18.0,3.0,8.0,-1.0,-5.0,-3.0,2.4655981063842773
455,-60.0,-13.0,-23.0,0.0,7561.0,3359.0,-12042.0,-7414.0,3.0,5.0,1.0,7.0,-10.0,1.0,-1.0,1.0,2.467993974685669
456,-60.0,-13.0,-23.0,0.0,7561.0,3359.0,-12042.0,-7414.0,-4.0,-7.0,-7.0,3.0,5.0,4.0,-10.0,-8.0,2.4855690002441406
457,-10.0,4.0,-51.0,0.0,7558.0,3364.0,-12043.0,-7415.0,-4.0,-7.0,-7.0,3.0,5.0,4.0,-10.0,-8.0,2.487983226776123
458,-10.0,4.0,-51.0,0.0,7558.0,3364.0,-12043.0,-7415.0,-4.0,-8.0,2.0,11.0,15.0,-9.0,-3.0,-7.0,2.4909369945526123
459,-10.0,4.0,-51.0,0.0,7558.0,3364.0,-12043.0,-7415.0,12.0,8.0,-22.0,-1.0,-11.0,-6.0,0.0,5.0,2.4994852542877197
460,-5.0,-2.0,-72.0,0.0,7553.0,3369.0,-12044.0,-7415.0,12.0,8.0,-22.0,-1.0,-11.0,-6.0,0.0,5.0,2.5017943382263184
461,-5.0,-2.0,-72.0,0.0,7553.0,3369.0,-12044.0,-7415.0,-4.0,0.0,19.0,-2.0,-4.0,0.0,-5.0,-2.0,2.5143227577209473
462,-5.0,-2.0,-72.0,0.0,7553.0,3369.0,-12044.0,-7415.0,-3.0,-7.0,-7.0,-10.0,6.0,4.0,-9.0,-6.0,2.523317575454712
463,-28.0,16.0,-78.0,0.0,7553.0,3373.0,-12042.0,-7416.0,-3.0,-7.0,-7.0,-10.0,6.0,4.0,-9.0,-6.0,2.526365280151367
464,-28.0,16.0,-78.0,0.0,7553.0,3373.0,-12042.0,-7416.0,-1.0,-5.0,5.0,-23.0,-21.0,4.0,-6.0,-14.0,2.5294594764709473
465,-28.0,16.0,-78.0,0.0,7553.0,3373.0,-12042.0,-7416.0,4.0,16.0,3.0,-5.0,-1.0,-12.0,-5.0,2.0,2.545280694961548
466,31.0,31.0,-115.0,0.0,7547.0,3390.0,-12044.0,-7413.0,4.0,16.0,3.0,-5.0,-1.0,-12.0,-5.0,2.0,2.5475921630859375
467,31.0,31.0,-115.0,0.0,7547.0,3390.0,-12044.0,-7413.0,-3.0,-10.0,5.0,18.0,-13.0,-3.0,1.0,2.0,2.5498976707458496
468,31.0,31.0,-115.0,0.0,7547.0,3390.0,-12044.0,-7413.0,-16.0,-28.0,-2.0,-6.0,4.0,5.0,-6.0,-5.0,2.5599756240844727
469,21.0,30.0,-161.0,0.0,7534.0,3415.0,-12042.0,-7417.0,-16.0,-28.0,-2.0,-6.0,4.0,5.0,-6.0,-5.0,2.5622470378875732
470,21.0,30.0,-161.0,0.0,7534.0,3415.0,-12042.0,-7417.0,-9.0,-14.0,-39.0,-9.0,-9.0,13.0,0.0,-7.0,2.5665197372436523
471,21.0,30.0,-161.0,0.0,7534.0,3415.0,-12042.0,-7417.0,2.0,-2.0,33.0,-5.0,-1.0,-14.0,-4.0,6.0,2.5828962326049805
472,-36.0,53.0,-161.0,0.0,7529.0,3435.0,-12032.0,-7428.0,2.0,-2.0,33.0,-5.0,-1.0,-14.0,-4.0,6.0,2.5869791507720947
473,-36.0,53.0,-161.0,0.0,7529.0,3435.0,-12032.0,-7428.0,11.0,23.0,31.0,-15.0,-18.0,-22.0,1.0,4.0,2.5913660526275635
474,-36.0,53.0,-161.0,0.0,7529.0,3435.0,-12032.0,-7428.0,1.0,-3.0,-14.0,0.0,-4.0,0.0,6.0,4.0,2.6068084239959717
475,-69.0,20.0,-171.0,0.0,7523.0,3447.0,-12027.0,-7438.0,1.0,-3.0,-14.0,0.0,-4.0,0.0,6.0,4.0,2.6093077659606934
476,-69.0,20.0,-171.0,0.0,7523.0,3447.0,-12027.0,-7438.0,-5.0,-11.0,-17.0,3.0,26.0,24.0,3.0,1.0,2.611626148223877
477,-69.0,20.0,-171.0,0.0,7523.0,3447.0,-12027.0,-7438.0,1.0,15.0,-11.0,-8.0,2.0,-8.0,-2.0,-1.0,2.620347499847412
478,-58.0,38.0,-151.0,0.0,7523.0,3457.0,-12020.0,-7445.0,1.0,15.0,-11.0,-8.0,2.0,-8.0,-2.0,-1.0,2.6228511333465576
479,-58.0,38.0,-151.0,0.0,7523.0,3457.0,-12020.0,-7445.0,-1.0,-12.0,-4.0,5.0,-3.0,-18.0,-2.0,3.0,2.625401735305786
480,-58.0,38.0,-151.0,0.0,7523.0,3457.0,-12020.0,-7445.0,-9.0,-7.0,-17.0,10.0,1.0,8.0,-14.0,-20.0,2.642611265182495
481,-73.0,47.0,-165.0,0.0,7520.0,3472.0,-12009.0,-7458.0,-9.0,-7.0,-17.0,10.0,1.0,8.0,-14.0,-20.0,2.6448726654052734
482,-73.0,47.0,-165.0,0.0,7520.0,3472.0,-12009.0,-7458.0,0.0,-4.0,-21.0,-4.0,-5.0,5.0,3.0,0.0,2.647386074066162
483,-73.0,47.0,-165.0,0.0,7520.0,3472.0,-12009.0,-7458.0,-1.0,-11.0,-59.0,2.0,-2.0,-13.0,10.0,10.0,2.665220022201538
484,-68.0,49.0,-172.0,0.0,7516.0,3489.0,-11999.0,-7471.0,-1.0,-11.0,-59.0,2.0,-2.0,-13.0,10.0,10.0,2.667508602142334
485,-68.0,49.0,-172.0,0.0,7516.0,3489.0,-11999.0,-7471.0,0.0,5.0,19.0,2.0,1.0,6.0,-9.0,-9.0,2.6698460578918457
486,-68.0,49.0,-172.0,0.0,7516.0,3489.0,-11999.0,-7471.0,8.0,1.0,-27.0,13.0,-3.0,-1.0,7.0,9.0,2.679960012435913
487,-52.0,64.0,-132.0,0.0,7514.0,3505.0,-11990.0,-7479.0,8.0,1.0,-27.0,13.0,-3.0,-1.0,7.0,9.0,2.682602643966675
488,-52.0,64.0,-132.0,0.0,7514.0,3505.0,-11990.0,-7479.0,-3.0,-13.0,-20.0,0.0,11.0,1.0,2.0,3.0,2.6860506534576416
489,-52.0,64.0,-132.0,0.0,7514.0,3505.0,-11990.0,-7479.0,11.0,12.0,29.0,8.0,7.0,15.0,-2.0,2.0,2.702314853668213
490,-33.0,72.0,-120.0,0.0,7515.0,3520.0,-11985.0,-7480.0,11.0,12.0,29.0,8.0,7.0,15.0,-2.0,2.0,2.7045907974243164
491,-33.0,72.0,-120.0,0.0,7515.0,3520.0,-11985.0,-7480.0,5.0,21.0,8.0,-2.0,7.0,3.0,-7.0,-3.0,2.7087512016296387
492,-33.0,72.0,-120.0,0.0,7515.0,3520.0,-11985.0,-7480.0,1.0,-2.0,1.0,-3.0,-7.0,-6.0,2.0,1.0,2.7251663208007812
493,-24.0,60.0,-93.0,0.0,7520.0,3526.0,-11983.0,-7475.0,1.0,-2.0,1.0,-3.0,-7.0,-6.0,2.0,1.0,2.727464199066162
494,-24.0,60.0,-93.0,0.0,7520.0,3526.0,-11983.0,-7475.0,-5.0,-21.0,-8.0,-2.0,5.0,8.0,3.0,3.0,2.72979474067688
495,-24.0,60.0,-93.0,0.0,7520.0,3526.0,-11983.0,-7475.0,-2.0,-6.0,18.0,8.0,1.0,-3.0,10.0,13.0,2.7397704124450684
496,15.0,48.0,-65.0,0.0,7526.0,3531.0,-11984.0,-7464.0,-2.0,-6.0,18.0,8.0,1.0,-3.0,10.0,13.0,2.742050886154175
497,15.0,48.0,-65.0,0.0,7526.0,3531.0,-11984.0,-7464.0,-11.0,-14.0,-42.0,-5.0,-6.0,5.0,1.0,-5.0,2.7463412284851074
498,15.0,48.0,-65.0,0.0,7526.0,3531.0,-11984.0,-7464.0,-2.0,17.0,49.0,12.0,18.0,3.0,-2.0,-5.0,2.7618696689605713
499,46.0,40.0,-69.0,0.0,7522.0,3545.0,-11990.0,-7452.0,-2.0,17.0,49.0,12.0,18.0,3.0,-2.0,-5.0,2.7641968727111816
