,Gyro 0,Gyro 1,Gyro 2,Label,Orientation 0,Orientation 1,Orientation 2,Orientation 3,Sensor 0,Sensor 1,Sensor 2,Sensor 3,Sensor 4,Sensor 5,Sensor 6,Sensor 7,Timestamp
0,3.0,-1.0,12.0,0.0,1670.0,-5237.0,-11449.0,-10352.0,-1.0,2.0,-6.0,-6.0,-13.0,8.0,1.0,-2.0,1.9073486328125e-06
1,3.0,-1.0,12.0,0.0,1670.0,-5237.0,-11449.0,-10352.0,-1.0,1.0,0.0,2.0,5.0,18.0,13.0,15.0,0.0028591156005859375
2,3.0,-1.0,12.0,0.0,1670.0,-5237.0,-11449.0,-10352.0,-7.0,-10.0,4.0,5.0,-15.0,-4.0,-24.0,-22.0,0.005174398422241211
3,3.0,-1.0,12.0,0.0,1670.0,-5237.0,-11449.0,-10352.0,0.0,1.0,-11.0,-11.0,-1.0,4.0,-9.0,-11.0,0.007757902145385742
4,12.0,13.0,17.0,0.0,1672.0,-5236.0,-11451.0,-10350.0,0.0,1.0,-11.0,-11.0,-1.0,4.0,-9.0,-11.0,0.010050773620605469
5,12.0,13.0,17.0,0.0,1672.0,-5236.0,-11451.0,-10350.0,3.0,12.0,25.0,0.0,-3.0,-13.0,-4.0,9.0,0.012426137924194336
6,12.0,13.0,17.0,0.0,1672.0,-5236.0,-11451.0,-10350.0,3.0,-3.0,-8.0,3.0,2.0,-13.0,-9.0,4.0,0.014677286148071289
7,-24.0,18.0,29.0,0.0,1674.0,-5236.0,-11447.0,-10354.0,3.0,-3.0,-8.0,3.0,2.0,-13.0,-9.0,4.0,0.017102479934692383
8,-24.0,18.0,29.0,0.0,1674.0,-5236.0,-11447.0,-10354.0,0.0,2.0,-22.0,-8.0,-10.0,-8.0,10.0,-10.0,0.019543170928955078
9,-24.0,18.0,29.0,0.0,1674.0,-5236.0,-11447.0,-10354.0,-6.0,-3.0,-10.0,1.0,-6.0,11.0,6.0,2.0,0.021982908248901367
10,-29.0,2.0,25.0,0.0,1677.0,-5241.0,-11443.0,-10356.0,-6.0,-3.0,-10.0,1.0,-6.0,11.0,6.0,2.0,0.0246274471282959
11,-29.0,2.0,25.0,0.0,1677.0,-5241.0,-11443.0,-10356.0,-9.0,-6.0,-3.0,2.0,12.0,3.0,-14.0,-8.0,0.02720332145690918
12,-29.0,2.0,25.0,0.0,1677.0,-5241.0,-11443.0,-10356.0,4.0,5.0,28.0,0.0,-21.0,-3.0,-2.0,0.0,0.029458284378051758
13,21.0,9.0,12.0,0.0,1682.0,-5243.0,-11445.0,-10352.0,4.0,5.0,28.0,0.0,-21.0,-3.0,-2.0,0.0,0.03172588348388672
14,21.0,9.0,12.0,0.0,1682.0,-5243.0,-11445.0,-10352.0,-1.0,3.0,-9.0,-10.0,9.0,-17.0,-14.0,23.0,0.03418922424316406
15,21.0,9.0,12.0,0.0,1682.0,-5243.0,-11445.0,-10352.0,3.0,9.0,44.0,6.0,7.0,-8.0,0.0,0.0,0.03656506538391113
16,27.0,14.0,16.0,0.0,1684.0,-5241.0,-11449.0,-10348.0,3.0,9.0,44.0,6.0,7.0,-8.0,0.0,0.0,0.038820743560791016
17,27.0,14.0,16.0,0.0,1684.0,-5241.0,-11449.0,-10348.0,3.0,1.0,-15.0,1.0,0.0,-4.0,7.0,-6.0,0.04115557670593262
18,27.0,14.0,16.0,0.0,1684.0,-5241.0,-11449.0,-10348.0,-9.0,-13.0,-12.0,0.0,-2.0,-11.0,-17.0,-16.0,0.04340076446533203
19,-1.0,25.0,25.0,0.0,1686.0,-5239.0,-11449.0,-10348.0,-9.0,-13.0,-12.0,0.0,-2.0,-11.0,-17.0,-16.0,0.04564213752746582
20,-1.0,25.0,25.0,0.0,1686.0,-5239.0,-11449.0,-10348.0,3.0,-2.0,-8.0,3.0,-2.0,5.0,-3.0,-3.0,0.04797172546386719
21,-1.0,25.0,25.0,0.0,1686.0,-5239.0,-11449.0,-10348.0,1.0,5.0,-18.0,-4.0,-3.0,9.0,1.0,4.0,0.05025196075439453
22,-30.0,21.0,25.0,0.0,1689.0,-5241.0,-11447.0,-10350.0,1.0,5.0,-18.0,-4.0,-3.0,9.0,1.0,4.0,0.05249929428100586
23,-30.0,21.0,25.0,0.0,1689.0,-5241.0,-11447.0,-10350.0,-2.0,-6.0,3.0,0.0,0.0,9.0,-11.0,6.0,0.05554795265197754
24,-30.0,21.0,25.0,0.0,1689.0,-5241.0,-11447.0,-10350.0,-6.0,-3.0,-5.0,-3.0,-7.0,7.0,3.0,-15.0,0.05825495719909668
25,-4.0,21.0,17.0,0.0,1694.0,-5242.0,-11446.0,-10349.0,-6.0,-3.0,-5.0,-3.0,-7.0,7.0,3.0,-15.0,0.06051778793334961
26,-4.0,21.0,17.0,0.0,1694.0,-5242.0,-11446.0,-10349.0,1.0,13.0,12.0,2.0,2.0,-15.0,-5.0,-7.0,0.06287384033203125
27,-4.0,21.0,17.0,0.0,1694.0,-5242.0,-11446.0,-10349.0,-2.0,-3.0,-6.0,-2.0,14.0,-5.0,-16.0,-23.0,0.06513595581054688
28,33.0,24.0,14.0,0.0,1697.0,-5238.0,-11449.0,-10347.0,-2.0,-3.0,-6.0,-2.0,14.0,-5.0,-16.0,-23.0,0.06738567352294922
29,33.0,24.0,14.0,0.0,1697.0,-5238.0,-11449.0,-10347.0,5.0,-9.0,3.0,0.0,-5.0,14.0,31.0,15.0,0.06972789764404297
30,33.0,24.0,14.0,0.0,1697.0,-5238.0,-11449.0,-10347.0,-1.0,-1.0,-5.0,-2.0,-7.0,-35.0,-14.0,-7.0,0.07199931144714355
31,17.0,27.0,12.0,0.0,1698.0,-5233.0,-11453.0,-10346.0,-1.0,-1.0,-5.0,-2.0,-7.0,-35.0,-14.0,-7.0,0.07433342933654785
32,17.0,27.0,12.0,0.0,1698.0,-5233.0,-11453.0,-10346.0,12.0,12.0,15.0,-2.0,5.0,4.0,5.0,4.0,0.07664752006530762
33,7.0,29.0,19.0,0.0,1701.0,-5231.0,-11455.0,-10343.0,12.0,12.0,15.0,-2.0,5.0,4.0,5.0,4.0,0.07894372940063477
34,7.0,29.0,19.0,0.0,1701.0,-5231.0,-11455.0,-10343.0,1.0,-4.0,-12.0,-3.0,-6.0,17.0,13.0,23.0,0.08125472068786621
35,7.0,29.0,19.0,0.0,1701.0,-5231.0,-11455.0,-10343.0,-6.0,-11.0,9.0,-5.0,-2.0,-7.0,-6.0,-2.0,0.0836031436920166
36,0.0,31.0,6.0,0.0,1706.0,-5229.0,-11455.0,-10344.0,-6.0,-11.0,9.0,-5.0,-2.0,-7.0,-6.0,-2.0,0.08629131317138672
37,0.0,31.0,6.0,0.0,1706.0,-5229.0,-11455.0,-10344.0,1.0,-5.0,-10.0,3.0,11.0,4.0,4.0,5.0,0.08896446228027344
38,0.0,31.0,6.0,0.0,1706.0,-5229.0,-11455.0,-10344.0,-9.0,-11.0,-19.0,0.0,6.0,4.0,-5.0,3.0,0.09137868881225586
39,-3.0,27.0,12.0,0.0,1712.0,-5228.0,-11453.0,-10346.0,-9.0,-11.0,-19.0,0.0,6.0,4.0,-5.0,3.0,0.09364938735961914
40,-3.0,27.0,12.0,0.0,1712.0,-5228.0,-11453.0,-10346.0,3.0,-1.0,12.0,-4.0,-11.0,-27.0,-6.0,11.0,0.09600663185119629
41,-3.0,27.0,12.0,0.0,1712.0,-5228.0,-11453.0,-10346.0,-4.0,-9.0,-5.0,6.0,9.0,-9.0,-6.0,2.0,0.09825682640075684
42,16.0,17.0,3.0,0.0,1712.0,-5225.0,-11458.0,-10342.0,-4.0,-9.0,-5.0,6.0,9.0,-9.0,-6.0,2.0,0.10051941871643066
43,16.0,17.0,3.0,0.0,1712.0,-5225.0,-11458.0,-10342.0,-6.0,1.0,0.0,-4.0,0.0,6.0,-2.0,-9.0,0.10285758972167969
44,16.0,17.0,3.0,0.0,1712.0,-5225.0,-11458.0,-10342.0,-3.0,-2.0,0.0,-5.0,-11.0,-24.0,9.0,-5.0,0.10508465766906738
45,-3.0,32.0,11.0,0.0,1713.0,-5221.0,-11458.0,-10343.0,-3.0,-2.0,0.0,-5.0,-11.0,-24.0,9.0,-5.0,0.10732769966125488
46,-3.0,32.0,11.0,0.0,1713.0,-5221.0,-11458.0,-10343.0,-2.0,-7.0,3.0,3.0,0.0,17.0,20.0,12.0,0.10965800285339355
47,-3.0,32.0,11.0,0.0,1713.0,-5221.0,-11458.0,-10343.0,0.0,-6.0,-1.0,-1.0,-10.0,4.0,29.0,-5.0,0.11190319061279297
48,-20.0,26.0,12.0,0.0,1715.0,-5219.0,-11456.0,-10346.0,0.0,-6.0,-1.0,-1.0,-10.0,4.0,29.0,-5.0,0.11414074897766113
49,-20.0,26.0,12.0,0.0,1715.0,-5219.0,-11456.0,-10346.0,5.0,2.0,-12.0,3.0,5.0,0.0,1.0,3.0,0.1165165901184082
50,-20.0,26.0,12.0,0.0,1715.0,-5219.0,-11456.0,-10346.0,2.0,0.0,-2.0,5.0,11.0,3.0,3.0,-4.0,0.11932611465454102
51,-2.0,27.0,15.0,0.0,1718.0,-5216.0,-11456.0,-10347.0,2.0,0.0,-2.0,5.0,11.0,3.0,3.0,-4.0,0.12187051773071289
52,-2.0,27.0,15.0,0.0,1718.0,-5216.0,-11456.0,-10347.0,-3.0,6.0,0.0,-4.0,-3.0,2.0,-1.0,0.0,0.12424755096435547
53,-2.0,27.0,15.0,0.0,1718.0,-5216.0,-11456.0,-10347.0,0.0,7.0,0.0,-2.0,-3.0,15.0,-6.0,-8.0,0.12650585174560547
54,8.0,27.0,15.0,0.0,1721.0,-5214.0,-11457.0,-10346.0,0.0,7.0,0.0,-2.0,-3.0,15.0,-6.0,-8.0,0.12873411178588867
55,8.0,27.0,15.0,0.0,1721.0,-5214.0,-11457.0,-10346.0,-4.0,0.0,2.0,-1.0,-7.0,-9.0,9.0,-10.0,0.13106679916381836
56,8.0,27.0,15.0,0.0,1721.0,-5214.0,-11457.0,-10346.0,-1.0,-2.0,-18.0,-5.0,-10.0,-2.0,-7.0,14.0,0.1333785057067871
57,-19.0,25.0,1.0,0.0,1722.0,-5211.0,-11456.0,-10350.0,-1.0,-2.0,-18.0,-5.0,-10.0,-2.0,-7.0,14.0,0.1356029510498047
58,-19.0,25.0,1.0,0.0,1722.0,-5211.0,-11456.0,-10350.0,9.0,19.0,17.0,1.0,11.0,10.0,3.0,6.0,0.13792800903320312
59,-19.0,25.0,1.0,0.0,1722.0,-5211.0,-11456.0,-10350.0,-4.0,3.0,15.0,0.0,-28.0,0.0,-4.0,-2.0,0.1402451992034912
60,-17.0,32.0,3.0,0.0,1724.0,-5207.0,-11454.0,-10353.0,-4.0,3.0,15.0,0.0,-28.0,0.0,-4.0,-2.0,0.14249587059020996
61,-17.0,32.0,3.0,0.0,1724.0,-5207.0,-11454.0,-10353.0,-2.0,-9.0,-27.0,1.0,3.0,0.0,-19.0,-14.0,0.14480328559875488
62,-17.0,32.0,3.0,0.0,1724.0,-5207.0,-11454.0,-10353.0,5.0,4.0,12.0,0.0,12.0,4.0,-9.0,-9.0,0.14710307121276855
63,0.0,21.0,12.0,0.0,1724.0,-5204.0,-11456.0,-10352.0,5.0,4.0,12.0,0.0,12.0,4.0,-9.0,-9.0,0.14973068237304688
64,0.0,21.0,12.0,0.0,1724.0,-5204.0,-11456.0,-10352.0,2.0,-1.0,-18.0,-3.0,8.0,3.0,5.0,-2.0,0.15236234664916992
65,0.0,21.0,12.0,0.0,1724.0,-5204.0,-11456.0,-10352.0,-2.0,0.0,6.0,-9.0,-1.0,-23.0,-3.0,-10.0,0.15476322174072266
66,-28.0,29.0,22.0,0.0,1725.0,-5202.0,-11454.0,-10356.0,-2.0,0.0,6.0,-9.0,-1.0,-23.0,-3.0,-10.0,0.15702033042907715
67,-28.0,29.0,22.0,0.0,1725.0,-5202.0,-11454.0,-10356.0,-4.0,-10.0,-6.0,-11.0,5.0,-3.0,-22.0,-16.0,0.1597907543182373
68,-28.0,29.0,22.0,0.0,1725.0,-5202.0,-11454.0,-10356.0,-1.0,-3.0,-7.0,5.0,11.0,26.0,17.0,7.0,0.162123441696167
69,-52.0,30.0,26.0,0.0,1725.0,-5201.0,-11448.0,-10362.0,-1.0,-3.0,-7.0,5.0,11.0,26.0,17.0,7.0,0.16437602043151855
70,-52.0,30.0,26.0,0.0,1725.0,-5201.0,-11448.0,-10362.0,1.0,2.0,9.0,0.0,-6.0,2.0,-4.0,4.0,0.16670608520507812
71,-52.0,30.0,26.0,0.0,1725.0,-5201.0,-11448.0,-10362.0,0.0,4.0,23.0,3.0,15.0,6.0,-10.0,-2.0,0.16898584365844727
72,-60.0,14.0,20.0,0.0,1725.0,-5203.0,-11441.0,-10369.0,0.0,4.0,23.0,3.0,15.0,6.0,-10.0,-2.0,0.17126822471618652
73,-60.0,14.0,20.0,0.0,1725.0,-5203.0,-11441.0,-10369.0,-5.0,-5.0,-34.0,-1.0,-11.0,-1.0,7.0,-1.0,0.17361140251159668
74,-60.0,14.0,20.0,0.0,1725.0,-5203.0,-11441.0,-10369.0,-1.0,2.0,-7.0,2.0,5.0,2.0,6.0,3.0,0.17587018013000488
75,-25.0,20.0,16.0,0.0,1729.0,-5204.0,-11437.0,-10373.0,-1.0,2.0,-7.0,2.0,5.0,2.0,6.0,3.0,0.17815494537353516
76,-25.0,20.0,16.0,0.0,1729.0,-5204.0,-11437.0,-10373.0,2.0,-3.0,28.0,0.0,4.0,1.0,-4.0,11.0,0.18093299865722656
77,-25.0,20.0,16.0,0.0,1729.0,-5204.0,-11437.0,-10373.0,0.0,-2.0,-21.0,-2.0,4.0,-3.0,-18.0,-18.0,0.18362832069396973
78,-3.0,20.0,14.0,0.0,1730.0,-5202.0,-11437.0,-10372.0,0.0,-2.0,-21.0,-2.0,4.0,-3.0,-18.0,-18.0,0.1859898567199707
79,-3.0,20.0,14.0,0.0,1730.0,-5202.0,-11437.0,-10372.0,2.0,2.0,-1.0,-6.0,-9.0,6.0,-7.0,-20.0,0.1883246898651123
80,-3.0,20.0,14.0,0.0,1730.0,-5202.0,-11437.0,-10372.0,-6.0,-5.0,2.0,-1.0,3.0,9.0,3.0,3.0,0.19057703018188477
81,-7.0,17.0,11.0,0.0,1728.0,-5199.0,-11440.0,-10372.0,-6.0,-5.0,2.0,-1.0,3.0,9.0,3.0,3.0,0.1928873062133789
82,-7.0,17.0,11.0,0.0,1728.0,-5199.0,-11440.0,-10372.0,-3.0,-3.0,0.0,4.0,16.0,0.0,-3.0,10.0,0.19522547721862793
83,-7.0,17.0,11.0,0.0,1728.0,-5199.0,-11440.0,-10372.0,6.0,7.0,-18.0,-3.0,1.0,3.0,4.0,-6.0,0.1974799633026123
84,-42.0,22.0,9.0,0.0,1727.0,-5198.0,-11437.0,-10376.0,6.0,7.0,-18.0,-3.0,1.0,3.0,4.0,-6.0,0.19976425170898438
85,-42.0,22.0,9.0,0.0,1727.0,-5198.0,-11437.0,-10376.0,-2.0,-6.0,7.0,1.0,-5.0,9.0,-1.0,4.0,0.20209908485412598
86,-42.0,22.0,9.0,0.0,1727.0,-5198.0,-11437.0,-10376.0,-5.0,-9.0,10.0,7.0,-3.0,-11.0,-6.0,10.0,0.20436668395996094
87,-36.0,17.0,1.0,0.0,1727.0,-5196.0,-11432.0,-10381.0,-5.0,-9.0,10.0,7.0,-3.0,-11.0,-6.0,10.0,0.20665431022644043
88,-36.0,17.0,1.0,0.0,1727.0,-5196.0,-11432.0,-10381.0,-3.0,-3.0,-15.0,0.0,-3.0,-10.0,8.0,9.0,0.20902633666992188
89,-36.0,17.0,1.0,0.0,1727.0,-5196.0,-11432.0,-10381.0,0.0,7.0,10.0,6.0,-8.0,0.0,0.0,6.0,0.21135687828063965
90,-5.0,25.0,-6.0,0.0,1727.0,-5191.0,-11432.0,-10385.0,0.0,7.0,10.0,6.0,-8.0,0.0,0.0,6.0,0.21422958374023438
91,-5.0,25.0,-6.0,0.0,1727.0,-5191.0,-11432.0,-10385.0,-3.0,1.0,-9.0,4.0,-7.0,4.0,4.0,-3.0,0.21698451042175293
92,-5.0,25.0,-6.0,0.0,1727.0,-5191.0,-11432.0,-10385.0,-3.0,-7.0,-7.0,-1.0,-1.0,-15.0,3.0,5.0,0.21927428245544434
93,-16.0,20.0,-2.0,0.0,1726.0,-5188.0,-11433.0,-10386.0,-3.0,-7.0,-7.0,-1.0,-1.0,-15.0,3.0,5.0,0.22156023979187012
94,-16.0,20.0,-2.0,0.0,1726.0,-5188.0,-11433.0,-10386.0,1.0,6.0,21.0,1.0,4.0,-2.0,4.0,-2.0,0.22392725944519043
95,-16.0,20.0,-2.0,0.0,1726.0,-5188.0,-11433.0,-10386.0,2.0,6.0,-2.0,-6.0,-7.0,-4.0,-7.0,-6.0,0.22618412971496582
96,-40.0,23.0,-1.0,0.0,1723.0,-5185.0,-11431.0,-10390.0,2.0,6.0,-2.0,-6.0,-7.0,-4.0,-7.0,-6.0,0.22877860069274902
97,-40.0,23.0,-1.0,0.0,1723.0,-5185.0,-11431.0,-10390.0,-3.0,-4.0,-6.0,2.0,2.0,-12.0,-19.0,-13.0,0.23125791549682617
98,-40.0,23.0,-1.0,0.0,1723.0,-5185.0,-11431.0,-10390.0,-3.0,-12.0,-15.0,-4.0,-4.0,-8.0,5.0,3.0,0.23353219032287598
99,-52.0,17.0,-2.0,0.0,1721.0,-5182.0,-11426.0,-10397.0,-3.0,-12.0,-15.0,-4.0,-4.0,-8.0,5.0,3.0,0.2359015941619873
100,-52.0,17.0,-2.0,0.0,1721.0,-5182.0,-11426.0,-10397.0,-2.0,-2.0,-16.0,4.0,-5.0,-6.0,-2.0,11.0,0.23825621604919434
101,-52.0,17.0,-2.0,0.0,1721.0,-5182.0,-11426.0,-10397.0,-5.0,-16.0,0.0,3.0,-6.0,5.0,-18.0,-13.0,0.24051785469055176
102,-10.0,24.0,6.0,0.0,1722.0,-5179.0,-11425.0,-10399.0,-5.0,-16.0,0.0,3.0,-6.0,5.0,-18.0,-13.0,0.2428419589996338
103,-10.0,24.0,6.0,0.0,1722.0,-5179.0,-11425.0,-10399.0,5.0,-1.0,14.0,-3.0,-4.0,1.0,12.0,-3.0,0.24575209617614746
104,-10.0,24.0,6.0,0.0,1722.0,-5179.0,-11425.0,-10399.0,-6.0,-3.0,2.0,-1.0,5.0,7.0,9.0,7.0,0.24835824966430664
105,-22.0,21.0,1.0,0.0,1720.0,-5175.0,-11424.0,-10403.0,-6.0,-3.0,2.0,-1.0,5.0,7.0,9.0,7.0,0.2506372928619385
106,-22.0,21.0,1.0,0.0,1720.0,-5175.0,-11424.0,-10403.0,10.0,6.0,5.0,-1.0,5.0,5.0,-1.0,-3.0,0.2530381679534912
107,-22.0,21.0,1.0,0.0,1720.0,-5175.0,-11424.0,-10403.0,2.0,7.0,2.0,-3.0,-8.0,4.0,9.0,-2.0,0.2553691864013672
108,-39.0,31.0,-1.0,0.0,1718.0,-5169.0,-11420.0,-10410.0,2.0,7.0,2.0,-3.0,-8.0,4.0,9.0,-2.0,0.25763893127441406
109,-39.0,31.0,-1.0,0.0,1718.0,-5169.0,-11420.0,-10410.0,-3.0,1.0,2.0,-7.0,-10.0,-1.0,23.0,3.0,0.2599966526031494
110,-39.0,31.0,-1.0,0.0,1718.0,-5169.0,-11420.0,-10410.0,-4.0,-3.0,8.0,6.0,6.0,-5.0,-4.0,0.0,0.26229000091552734
111,-35.0,23.0,-2.0,0.0,1718.0,-5167.0,-11416.0,-10415.0,-4.0,-3.0,8.0,6.0,6.0,-5.0,-4.0,0.0,0.2645707130432129
112,-35.0,23.0,-2.0,0.0,1718.0,-5167.0,-11416.0,-10415.0,-2.0,-9.0,-11.0,3.0,1.0,2.0,3.0,6.0,0.2669241428375244
113,-35.0,23.0,-2.0,0.0,1718.0,-5167.0,-11416.0,-10415.0,3.0,3.0,5.0,0.0,-10.0,-12.0,18.0,0.0,0.2692077159881592
114,-15.0,30.0,-7.0,0.0,1721.0,-5164.0,-11415.0,-10418.0,3.0,3.0,5.0,0.0,-10.0,-12.0,18.0,0.0,0.2714715003967285
115,-15.0,30.0,-7.0,0.0,1721.0,-5164.0,-11415.0,-10418.0,-4.0,-3.0,0.0,-2.0,-1.0,-11.0,-7.0,-7.0,0.2738063335418701
116,-15.0,30.0,-7.0,0.0,1721.0,-5164.0,-11415.0,-10418.0,0.0,-12.0,-16.0,2.0,10.0,13.0,6.0,-1.0,0.27671337127685547
117,-15.0,32.0,11.0,0.0,1724.0,-5161.0,-11413.0,-10421.0,0.0,-12.0,-16.0,2.0,10.0,13.0,6.0,-1.0,0.2793426513671875
118,-15.0,32.0,11.0,0.0,1724.0,-5161.0,-11413.0,-10421.0,-4.0,3.0,23.0,2.0,-3.0,-9.0,4.0,3.0,0.28173112869262695
119,-15.0,32.0,11.0,0.0,1724.0,-5161.0,-11413.0,-10421.0,-2.0,-2.0,7.0,-7.0,-3.0,-15.0,-4.0,-2.0,0.2839977741241455
120,-41.0,24.0,21.0,0.0,1725.0,-5160.0,-11408.0,-10426.0,-2.0,-2.0,7.0,-7.0,-3.0,-15.0,-4.0,-2.0,0.286257266998291
121,-41.0,24.0,21.0,0.0,1725.0,-5160.0,-11408.0,-10426.0,-1.0,-3.0,1.0,-3.0,12.0,12.0,-9.0,12.0,0.28857874870300293
122,-41.0,24.0,21.0,0.0,1725.0,-5160.0,-11408.0,-10426.0,-1.0,1.0,-17.0,-7.0,-5.0,-25.0,0.0,1.0,0.290895938873291
123,-43.0,17.0,27.0,0.0,1727.0,-5163.0,-11403.0,-10430.0,-1.0,1.0,-17.0,-7.0,-5.0,-25.0,0.0,1.0,0.29317450523376465
124,-43.0,17.0,27.0,0.0,1727.0,-5163.0,-11403.0,-10430.0,-3.0,-9.0,-5.0,-3.0,-5.0,-4.0,4.0,2.0,0.2955155372619629
125,-43.0,17.0,27.0,0.0,1727.0,-5163.0,-11403.0,-10430.0,1.0,13.0,7.0,2.0,13.0,7.0,-25.0,-5.0,0.29778385162353516
126,-22.0,18.0,31.0,0.0,1729.0,-5164.0,-11401.0,-10432.0,1.0,13.0,7.0,2.0,13.0,7.0,-25.0,-5.0,0.30007076263427734
127,-22.0,18.0,31.0,0.0,1729.0,-5164.0,-11401.0,-10432.0,0.0,11.0,-1.0,-4.0,-4.0,-6.0,-11.0,-4.0,0.3024132251739502
128,-22.0,18.0,31.0,0.0,1729.0,-5164.0,-11401.0,-10432.0,2.0,0.0,8.0,10.0,12.0,24.0,4.0,8.0,0.30469560623168945
129,-50.0,21.0,43.0,0.0,1730.0,-5166.0,-11396.0,-10436.0,2.0,0.0,8.0,10.0,12.0,24.0,4.0,8.0,0.30740857124328613
130,-50.0,21.0,43.0,0.0,1730.0,-5166.0,-11396.0,-10436.0,0.0,4.0,16.0,2.0,4.0,18.0,0.0,-17.0,0.3102571964263916
131,-50.0,21.0,43.0,0.0,1730.0,-5166.0,-11396.0,-10436.0,-11.0,3.0,6.0,0.0,-3.0,20.0,0.0,-3.0,0.31269192695617676
132,-61.0,12.0,32.0,0.0,1733.0,-5172.0,-11388.0,-10441.0,-11.0,3.0,6.0,0.0,-3.0,20.0,0.0,-3.0,0.31499171257019043
133,-61.0,12.0,32.0,0.0,1733.0,-5172.0,-11388.0,-10441.0,-1.0,-2.0,0.0,1.0,-9.0,9.0,5.0,16.0,0.3173253536224365
134,-61.0,12.0,32.0,0.0,1733.0,-5172.0,-11388.0,-10441.0,4.0,1.0,5.0,-2.0,10.0,19.0,-7.0,-3.0,0.31962037086486816
135,-19.0,-1.0,17.0,0.0,1735.0,-5176.0,-11386.0,-10441.0,4.0,1.0,5.0,-2.0,10.0,19.0,-7.0,-3.0,0.321901798248291
136,-19.0,-1.0,17.0,0.0,1735.0,-5176.0,-11386.0,-10441.0,2.0,-1.0,-12.0,-1.0,5.0,-10.0,4.0,5.0,0.3242652416229248
137,-19.0,-1.0,17.0,0.0,1735.0,-5176.0,-11386.0,-10441.0,2.0,3.0,-6.0,-1.0,-5.0,3.0,1.0,-4.0,0.32656288146972656
138,15.0,-10.0,21.0,0.0,1736.0,-5179.0,-11387.0,-10438.0,2.0,3.0,-6.0,-1.0,-5.0,3.0,1.0,-4.0,0.32881975173950195
139,15.0,-10.0,21.0,0.0,1736.0,-5179.0,-11387.0,-10438.0,4.0,-2.0,20.0,3.0,-4.0,5.0,9.0,-1.0,0.3370964527130127
140,15.0,-10.0,21.0,0.0,1736.0,-5179.0,-11387.0,-10438.0,-1.0,-5.0,-17.0,-4.0,-3.0,-4.0,12.0,2.0,0.34005093574523926
141,5.0,-9.0,36.0,0.0,1737.0,-5183.0,-11389.0,-10434.0,-1.0,-5.0,-17.0,-4.0,-3.0,-4.0,12.0,2.0,0.3445401191711426
142,5.0,-9.0,36.0,0.0,1737.0,-5183.0,-11389.0,-10434.0,-8.0,-4.0,-8.0,-1.0,5.0,-1.0,10.0,-4.0,0.35210084915161133
143,5.0,-9.0,36.0,0.0,1737.0,-5183.0,-11389.0,-10434.0,3.0,1.0,8.0,-4.0,-5.0,0.0,-9.0,-4.0,0.3591029644012451
144,-13.0,-12.0,44.0,0.0,1736.0,-5189.0,-11389.0,-10432.0,3.0,1.0,8.0,-4.0,-5.0,0.0,-9.0,-4.0,0.36660170555114746
145,-13.0,-12.0,44.0,0.0,1736.0,-5189.0,-11389.0,-10432.0,-6.0,-11.0,-8.0,-13.0,7.0,9.0,-6.0,2.0,0.37524986267089844
146,-13.0,-12.0,44.0,0.0,1736.0,-5189.0,-11389.0,-10432.0,2.0,17.0,3.0,-9.0,-12.0,-17.0,23.0,9.0,0.3775918483734131
147,6.0,-16.0,47.0,0.0,1736.0,-5195.0,-11390.0,-10428.0,2.0,17.0,3.0,-9.0,-12.0,-17.0,23.0,9.0,0.38921260833740234
148,6.0,-16.0,47.0,0.0,1736.0,-5195.0,-11390.0,-10428.0,1.0,-3.0,6.0,6.0,-2.0,-35.0,-18.0,6.0,0.3986320495605469
149,6.0,-16.0,47.0,0.0,1736.0,-5195.0,-11390.0,-10428.0,-1.0,-8.0,4.0,6.0,6.0,-1.0,-3.0,1.0,0.40279293060302734
150,33.0,-9.0,53.0,0.0,1741.0,-5200.0,-11392.0,-10421.0,-1.0,-8.0,4.0,6.0,6.0,-1.0,-3.0,1.0,0.4127326011657715
151,33.0,-9.0,53.0,0.0,1741.0,-5200.0,-11392.0,-10421.0,4.0,7.0,-11.0,0.0,-10.0,18.0,0.0,-9.0,0.4151287078857422
152,33.0,-9.0,53.0,0.0,1741.0,-5200.0,-11392.0,-10421.0,1.0,-5.0,-14.0,2.0,-2.0,-1.0,1.0,7.0,0.41926097869873047
153,15.0,-5.0,49.0,0.0,1744.0,-5205.0,-11393.0,-10417.0,1.0,-5.0,-14.0,2.0,-2.0,-1.0,1.0,7.0,0.4268488883972168
154,15.0,-5.0,49.0,0.0,1744.0,-5205.0,-11393.0,-10417.0,0.0,-5.0,-7.0,2.0,0.0,-4.0,-3.0,-4.0,0.4351842403411865
155,15.0,-5.0,49.0,0.0,1744.0,-5205.0,-11393.0,-10417.0,5.0,-9.0,8.0,-8.0,-5.0,4.0,-2.0,1.0,0.43785834312438965
156,8.0,-12.0,59.0,0.0,1751.0,-5215.0,-11391.0,-10413.0,5.0,-9.0,8.0,-8.0,-5.0,4.0,-2.0,1.0,0.44890403747558594
157,8.0,-12.0,59.0,0.0,1751.0,-5215.0,-11391.0,-10413.0,-6.0,-8.0,-23.0,-4.0,-2.0,-9.0,3.0,6.0,0.45768141746520996
158,8.0,-12.0,59.0,0.0,1751.0,-5215.0,-11391.0,-10413.0,-1.0,-1.0,0.0,4.0,0.0,-12.0,-14.0,-13.0,0.45995569229125977
159,14.0,3.0,65.0,0.0,1760.0,-5222.0,-11388.0,-10411.0,-1.0,-1.0,0.0,4.0,0.0,-12.0,-14.0,-13.0,0.47247862815856934
160,14.0,3.0,65.0,0.0,1760.0,-5222.0,-11388.0,-10411.0,2.0,9.0,4.0,-3.0,-7.0,-13.0,-13.0,3.0,0.4748568534851074
161,14.0,3.0,65.0,0.0,1760.0,-5222.0,-11388.0,-10411.0,-7.0,-8.0,-8.0,2.0,-3.0,-10.0,-26.0,-16.0,0.479327917098999
162,30.0,-3.0,62.0,0.0,1767.0,-5229.0,-11389.0,-10407.0,-7.0,-8.0,-8.0,2.0,-3.0,-10.0,-26.0,-16.0,0.486483097076416
163,30.0,-3.0,62.0,0.0,1767.0,-5229.0,-11389.0,-10407.0,2.0,1.0,7.0,2.0,-1.0,11.0,12.0,3.0,0.49478864669799805
164,30.0,-3.0,62.0,0.0,1767.0,-5229.0,-11389.0,-10407.0,1.0,4.0,6.0,-13.0,-11.0,-17.0,-3.0,-4.0,0.497056245803833
165,4.0,-2.0,45.0,0.0,1770.0,-5232.0,-11387.0,-10406.0,1.0,4.0,6.0,-13.0,-11.0,-17.0,-3.0,-4.0,0.5089988708496094
166,4.0,-2.0,45.0,0.0,1770.0,-5232.0,-11387.0,-10406.0,-2.0,1.0,17.0,1.0,1.0,9.0,8.0,0.0,0.5187466144561768
167,4.0,-2.0,45.0,0.0,1770.0,-5232.0,-11387.0,-10406.0,-5.0,-5.0,4.0,0.0,18.0,-8.0,-16.0,-16.0,0.522428035736084
168,28.0,-3.0,47.0,0.0,1776.0,-5237.0,-11387.0,-10402.0,-5.0,-5.0,4.0,0.0,18.0,-8.0,-16.0,-16.0,0.5327682495117188
169,28.0,-3.0,47.0,0.0,1776.0,-5237.0,-11387.0,-10402.0,6.0,9.0,1.0,-1.0,0.0,-8.0,17.0,11.0,0.5352857112884521
170,28.0,-3.0,47.0,0.0,1776.0,-5237.0,-11387.0,-10402.0,-4.0,-3.0,-6.0,6.0,-4.0,4.0,19.0,14.0,0.538365364074707
171,34.0,-2.0,43.0,0.0,1781.0,-5241.0,-11390.0,-10397.0,-4.0,-3.0,-6.0,6.0,-4.0,4.0,19.0,14.0,0.5558898448944092
172,34.0,-2.0,43.0,0.0,1781.0,-5241.0,-11390.0,-10397.0,0.0,-5.0,-10.0,1.0,-6.0,-1.0,-20.0,-7.0,0.5584030151367188
173,34.0,-2.0,43.0,0.0,1781.0,-5241.0,-11390.0,-10397.0,-2.0,-1.0,-6.0,5.0,2.0,4.0,-5.0,-5.0,0.5607724189758301
174,6.0,15.0,36.0,0.0,1783.0,-5241.0,-11391.0,-10395.0,-2.0,-1.0,-6.0,5.0,2.0,4.0,-5.0,-5.0,0.5692026615142822
175,6.0,15.0,36.0,0.0,1783.0,-5241.0,-11391.0,-10395.0,-3.0,0.0,0.0,0.0,-7.0,-3.0,-7.0,-9.0,0.5775690078735352
176,6.0,15.0,36.0,0.0,1783.0,-5241.0,-11391.0,-10395.0,1.0,0.0,-4.0,2.0,-17.0,10.0,20.0,16.0,0.5800235271453857
177,-19.0,5.0,17.0,0.0,1783.0,-5241.0,-11389.0,-10397.0,1.0,0.0,-4.0,2.0,-17.0,10.0,20.0,16.0,0.5924017429351807
178,-19.0,5.0,17.0,0.0,1783.0,-5241.0,-11389.0,-10397.0,-6.0,-6.0,-1.0,3.0,-1.0,8.0,-7.0,-10.0,0.5952796936035156
179,-19.0,5.0,17.0,0.0,1783.0,-5241.0,-11389.0,-10397.0,3.0,5.0,-8.0,0.0,14.0,1.0,25.0,5.0,0.5989482402801514
180,-20.0,15.0,1.0,0.0,1784.0,-5240.0,-11386.0,-10402.0,3.0,5.0,-8.0,0.0,14.0,1.0,25.0,5.0,0.6165802478790283
181,-20.0,15.0,1.0,0.0,1784.0,-5240.0,-11386.0,-10402.0,5.0,17.0,33.0,-2.0,-5.0,-2.0,-5.0,4.0,0.6206765174865723
182,-20.0,15.0,1.0,0.0,1784.0,-5240.0,-11386.0,-10402.0,1.0,7.0,-6.0,-8.0,-13.0,-4.0,-12.0,-1.0,0.625056266784668
183,26.0,16.0,-11.0,0.0,1783.0,-5234.0,-11391.0,-10398.0,1.0,7.0,-6.0,-8.0,-13.0,-4.0,-12.0,-1.0,0.6291065216064453
184,26.0,16.0,-11.0,0.0,1783.0,-5234.0,-11391.0,-10398.0,-1.0,-8.0,-19.0,-4.0,3.0,-5.0,6.0,-2.0,0.6447651386260986
185,26.0,16.0,-11.0,0.0,1783.0,-5234.0,-11391.0,-10398.0,3.0,4.0,-6.0,-5.0,0.0,4.0,-2.0,3.0,0.6470680236816406
186,18.0,23.0,-10.0,0.0,1781.0,-5228.0,-11397.0,-10396.0,3.0,4.0,-6.0,-5.0,0.0,4.0,-2.0,3.0,0.6523940563201904
187,18.0,23.0,-10.0,0.0,1781.0,-5228.0,-11397.0,-10396.0,-2.0,-3.0,-1.0,-1.0,-11.0,0.0,-9.0,-2.0,0.6547646522521973
188,18.0,23.0,-10.0,0.0,1781.0,-5228.0,-11397.0,-10396.0,6.0,5.0,-3.0,5.0,1.0,-4.0,-5.0,-8.0,0.6594936847686768
189,-14.0,23.0,-8.0,0.0,1779.0,-5222.0,-11397.0,-10399.0,6.0,5.0,-3.0,5.0,1.0,-4.0,-5.0,-8.0,0.676612377166748
190,-14.0,23.0,-8.0,0.0,1779.0,-5222.0,-11397.0,-10399.0,3.0,4.0,5.0,-10.0,6.0,-1.0,-20.0,-9.0,0.6807341575622559
191,-14.0,23.0,-8.0,0.0,1779.0,-5222.0,-11397.0,-10399.0,-18.0,-15.0,-2.0,-3.0,-2.0,11.0,-13.0,-8.0,0.6848552227020264
192,-10.0,27.0,-4.0,0.0,1782.0,-5220.0,-11395.0,-10401.0,-18.0,-15.0,-2.0,-3.0,-2.0,11.0,-13.0,-8.0,0.689011812210083
193,-10.0,27.0,-4.0,0.0,1782.0,-5220.0,-11395.0,-10401.0,-2.0,3.0,-24.0,-2.0,20.0,5.0,12.0,7.0,0.697352409362793
194,-10.0,27.0,-4.0,0.0,1782.0,-5220.0,-11395.0,-10401.0,2.0,-8.0,1.0,1.0,-3.0,2.0,9.0,4.0,0.6996474266052246
195,15.0,38.0,4.0,0.0,1789.0,-5216.0,-11396.0,-10401.0,2.0,-8.0,1.0,1.0,-3.0,2.0,9.0,4.0,0.7126531600952148
196,15.0,38.0,4.0,0.0,1789.0,-5216.0,-11396.0,-10401.0,-3.0,-5.0,10.0,3.0,-3.0,-6.0,6.0,3.0,0.714996337890625
197,15.0,38.0,4.0,0.0,1789.0,-5216.0,-11396.0,-10401.0,5.0,-5.0,-12.0,3.0,3.0,-7.0,-7.0,5.0,0.7188429832458496
198,24.0,51.0,8.0,0.0,1796.0,-5210.0,-11399.0,-10399.0,5.0,-5.0,-12.0,3.0,3.0,-7.0,-7.0,5.0,0.7365400791168213
199,24.0,51.0,8.0,0.0,1796.0,-5210.0,-11399.0,-10399.0,0.0,2.0,-6.0,3.0,-11.0,-12.0,-6.0,-11.0,0.7406353950500488
200,24.0,51.0,8.0,0.0,1796.0,-5210.0,-11399.0,-10399.0,-1.0,-1.0,21.0,-6.0,-11.0,-23.0,-20.0,-22.0,0.7445847988128662
201,-4.0,46.0,-2.0,0.0,1799.0,-5203.0,-11400.0,-10402.0,-1.0,-1.0,21.0,-6.0,-11.0,-23.0,-20.0,-22.0,0.7493588924407959
202,-4.0,46.0,-2.0,0.0,1799.0,-5203.0,-11400.0,-10402.0,2.0,0.0,4.0,8.0,17.0,3.0,0.0,-3.0,0.7580471038818359
203,-4.0,46.0,-2.0,0.0,1799.0,-5203.0,-11400.0,-10402.0,0.0,2.0,5.0,-3.0,5.0,-3.0,3.0,-10.0,0.7603187561035156
204,-13.0,38.0,-15.0,0.0,1799.0,-5196.0,-11400.0,-10405.0,0.0,2.0,5.0,-3.0,5.0,-3.0,3.0,-10.0,0.7721717357635498
205,-13.0,38.0,-15.0,0.0,1799.0,-5196.0,-11400.0,-10405.0,-7.0,-10.0,1.0,0.0,3.0,20.0,-6.0,0.0,0.7745232582092285
206,-13.0,38.0,-15.0,0.0,1799.0,-5196.0,-11400.0,-10405.0,-2.0,6.0,21.0,0.0,6.0,-2.0,1.0,1.0,0.7792668342590332
207,5.0,41.0,-5.0,0.0,1802.0,-5190.0,-11402.0,-10406.0,-2.0,6.0,21.0,0.0,6.0,-2.0,1.0,1.0,0.7953815460205078
208,5.0,41.0,-5.0,0.0,1802.0,-5190.0,-11402.0,-10406.0,-2.0,-8.0,-17.0,2.0,-5.0,-4.0,2.0,-7.0,0.7977316379547119
209,5.0,41.0,-5.0,0.0,1802.0,-5190.0,-11402.0,-10406.0,-5.0,-5.0,0.0,-11.0,1.0,5.0,-3.0,-2.0,0.7999827861785889
210,35.0,56.0,-3.0,0.0,1808.0,-5182.0,-11408.0,-10401.0,-5.0,-5.0,0.0,-11.0,1.0,5.0,-3.0,-2.0,0.8093099594116211
211,35.0,56.0,-3.0,0.0,1808.0,-5182.0,-11408.0,-10401.0,-3.0,-9.0,-5.0,-9.0,-16.0,-6.0,10.0,-2.0,0.8183016777038574
212,35.0,56.0,-3.0,0.0,1808.0,-5182.0,-11408.0,-10401.0,-2.0,1.0,-4.0,-12.0,-5.0,7.0,18.0,19.0,0.8209295272827148
213,41.0,51.0,0.0,0.0,1816.0,-5176.0,-11414.0,-10397.0,-2.0,1.0,-4.0,-12.0,-5.0,7.0,18.0,19.0,0.8325231075286865
214,41.0,51.0,0.0,0.0,1816.0,-5176.0,-11414.0,-10397.0,-5.0,-8.0,-8.0,-6.0,14.0,10.0,13.0,-1.0,0.8349742889404297
215,41.0,51.0,0.0,0.0,1816.0,-5176.0,-11414.0,-10397.0,-4.0,-6.0,-3.0,-3.0,-3.0,-14.0,1.0,0.0,0.8388845920562744
216,38.0,11.0,-26.0,0.0,1817.0,-5172.0,-11421.0,-10391.0,-4.0,-6.0,-3.0,-3.0,-3.0,-14.0,1.0,0.0,0.8566503524780273
217,38.0,11.0,-26.0,0.0,1817.0,-5172.0,-11421.0,-10391.0,4.0,5.0,6.0,-2.0,-7.0,-7.0,9.0,8.0,0.8607449531555176
218,38.0,11.0,-26.0,0.0,1817.0,-5172.0,-11421.0,-10391.0,-2.0,-1.0,-5.0,5.0,5.0,-1.0,10.0,4.0,0.8647251129150391
219,62.0,-17.0,-13.0,0.0,1817.0,-5171.0,-11429.0,-10382.0,-2.0,-1.0,-5.0,5.0,5.0,-1.0,10.0,4.0,0.8693196773529053
220,62.0,-17.0,-13.0,0.0,1817.0,-5171.0,-11429.0,-10382.0,-3.0,0.0,3.0,-2.0,3.0,3.0,-4.0,-2.0,0.8776319026947021
221,62.0,-17.0,-13.0,0.0,1817.0,-5171.0,-11429.0,-10382.0,4.0,2.0,77.0,19.0,10.0,8.0,2.0,5.0,0.8804426193237305
222,91.0,-4.0,17.0,0.0,1820.0,-5170.0,-11441.0,-10369.0,4.0,2.0,77.0,19.0,10.0,8.0,2.0,5.0,0.8923835754394531
223,91.0,-4.0,17.0,0.0,1820.0,-5170.0,-11441.0,-10369.0,-4.0,-17.0,-49.0,-16.0,-14.0,-12.0,-8.0,-8.0,0.8947257995605469
224,91.0,-4.0,17.0,0.0,1820.0,-5170.0,-11441.0,-10369.0,-3.0,-23.0,1.0,1.0,-44.0,1.0,4.0,0.0,0.8990359306335449
225,86.0,77.0,21.0,0.0,1839.0,-5162.0,-11446.0,-10365.0,-3.0,-23.0,1.0,1.0,-44.0,1.0,4.0,0.0,0.9229142665863037
226,86.0,77.0,21.0,0.0,1839.0,-5162.0,-11446.0,-10365.0,-5.0,-9.0,40.0,4.0,15.0,-2.0,-5.0,0.0,0.9252705574035645
227,86.0,77.0,21.0,0.0,1839.0,-5162.0,-11446.0,-10365.0,1.0,1.0,-12.0,3.0,21.0,4.0,-1.0,-5.0,0.927539587020874
228,124.0,138.0,5.0,0.0,1856.0,-5136.0,-11455.0,-10364.0,1.0,1.0,-12.0,3.0,21.0,4.0,-1.0,-5.0,0.9297747611999512
229,124.0,138.0,5.0,0.0,1856.0,-5136.0,-11455.0,-10364.0,0.0,3.0,-59.0,-21.0,6.0,-4.0,-9.0,-8.0,0.9372446537017822
230,124.0,138.0,5.0,0.0,1856.0,-5136.0,-11455.0,-10364.0,0.0,-1.0,-24.0,18.0,1.0,-11.0,-10.0,-2.0,0.9395356178283691
231,-188.0,183.0,-14.0,0.0,1852.0,-5093.0,-11418.0,-10427.0,0.0,-1.0,-24.0,18.0,1.0,-11.0,-10.0,-2.0,0.9522566795349121
232,-188.0,183.0,-14.0,0.0,1852.0,-5093.0,-11418.0,-10427.0,2.0,14.0,31.0,5.0,-2.0,6.0,-2.0,1.0,0.9546051025390625
233,-188.0,183.0,-14.0,0.0,1852.0,-5093.0,-11418.0,-10427.0,2.0,4.0,-23.0,-24.0,-20.0,2.0,-8.0,-2.0,0.9594845771789551
234,-678.0,158.0,28.0,0.0,1803.0,-5047.0,-11322.0,-10561.0,2.0,4.0,-23.0,-24.0,-20.0,2.0,-8.0,-2.0,0.9756197929382324
235,-678.0,158.0,28.0,0.0,1803.0,-5047.0,-11322.0,-10561.0,-4.0,-13.0,0.0,25.0,4.0,4.0,5.0,2.0,0.9784641265869141
236,-678.0,158.0,28.0,0.0,1803.0,-5047.0,-11322.0,-10561.0,9.0,14.0,-19.0,-52.0,-17.0,15.0,-3.0,3.0,0.9807298183441162
237,-782.0,373.0,-42.0,0.0,1749.0,-4955.0,-11222.0,-10720.0,9.0,14.0,-19.0,-52.0,-17.0,15.0,-3.0,3.0,0.9889781475067139
238,-782.0,373.0,-42.0,0.0,1749.0,-4955.0,-11222.0,-10720.0,4.0,14.0,54.0,48.0,-3.0,-16.0,-7.0,1.0,0.9974327087402344
239,-782.0,373.0,-42.0,0.0,1749.0,-4955.0,-11222.0,-10720.0,6.0,26.0,4.0,31.0,-16.0,-2.0,-2.0,0.0,0.9997286796569824
240,-636.0,654.0,-206.0,0.0,1712.0,-4807.0,-11152.0,-10865.0,6.0,26.0,4.0,31.0,-16.0,-2.0,-2.0,0.0,1.0114977359771729
241,-636.0,654.0,-206.0,0.0,1712.0,-4807.0,-11152.0,-10865.0,0.0,0.0,-17.0,-23.0,-3.0,-7.0,-2.0,1.0,1.0210824012756348
242,-636.0,654.0,-206.0,0.0,1712.0,-4807.0,-11152.0,-10865.0,0.0,-2.0,-19.0,-26.0,16.0,3.0,1.0,1.0,1.0250110626220703
243,-671.0,694.0,-724.0,0.0,1640.0,-4603.0,-11084.0,-11034.0,0.0,-2.0,-19.0,-26.0,16.0,3.0,1.0,1.0,1.0355451107025146
244,-671.0,694.0,-724.0,0.0,1640.0,-4603.0,-11084.0,-11034.0,-5.0,5.0,15.0,-37.0,8.0,-4.0,0.0,0.0,1.0380866527557373
245,-671.0,694.0,-724.0,0.0,1640.0,-4603.0,-11084.0,-11034.0,-5.0,-1.0,-7.0,-60.0,-1.0,-5.0,-3.0,-1.0,1.040658950805664
246,-788.0,812.0,-1230.0,0.0,1473.0,-4279.0,-11022.0,-11247.0,-5.0,-1.0,-7.0,-60.0,-1.0,-5.0,-3.0,-1.0,1.0490589141845703
247,-788.0,812.0,-1230.0,0.0,1473.0,-4279.0,-11022.0,-11247.0,8.0,6.0,-34.0,-17.0,-11.0,-6.0,-5.0,2.0,1.0573234558105469
248,-788.0,812.0,-1230.0,0.0,1473.0,-4279.0,-11022.0,-11247.0,-4.0,-8.0,-4.0,19.0,0.0,-1.0,-5.0,-4.0,1.0595781803131104
249,-687.0,1104.0,-1700.0,0.0,1345.0,-3926.0,-10994.0,-11418.0,-4.0,-8.0,-4.0,19.0,0.0,-1.0,-5.0,-4.0,1.072028398513794
250,-687.0,1104.0,-1700.0,0.0,1345.0,-3926.0,-10994.0,-11418.0,-6.0,-2.0,18.0,0.0,-5.0,4.0,-3.0,-4.0,1.0811271667480469
251,-687.0,1104.0,-1700.0,0.0,1345.0,-3926.0,-10994.0,-11418.0,-1.0,0.0,11.0,-23.0,15.0,-6.0,-3.0,-2.0,1.0850584506988525
252,-665.0,1396.0,-2296.0,0.0,1181.0,-3466.0,-10985.0,-11592.0,-1.0,0.0,11.0,-23.0,15.0,-6.0,-3.0,-2.0,1.0954945087432861
253,-665.0,1396.0,-2296.0,0.0,1181.0,-3466.0,-10985.0,-11592.0,7.0,7.0,-5.0,23.0,-2.0,7.0,-1.0,3.0,1.0978639125823975
254,-665.0,1396.0,-2296.0,0.0,1181.0,-3466.0,-10985.0,-11592.0,-6.0,-11.0,-3.0,17.0,15.0,3.0,0.0,-1.0,1.1004323959350586
255,-755.0,1472.0,-2993.0,0.0,937.0,-2914.0,-10974.0,-11776.0,-6.0,-11.0,-3.0,17.0,15.0,3.0,0.0,-1.0,1.1093502044677734
256,-755.0,1472.0,-2993.0,0.0,937.0,-2914.0,-10974.0,-11776.0,-3.0,0.0,4.0,-16.0,-24.0,-1.0,1.0,-1.0,1.1173875331878662
257,-755.0,1472.0,-2993.0,0.0,937.0,-2914.0,-10974.0,-11776.0,-1.0,-2.0,-6.0,7.0,-26.0,-4.0,1.0,2.0,1.1196331977844238
258,-722.0,1416.0,-3770.0,0.0,599.0,-2286.0,-10976.0,-11934.0,-1.0,-2.0,-6.0,7.0,-26.0,-4.0,1.0,2.0,1.1320312023162842
259,-722.0,1416.0,-3770.0,0.0,599.0,-2286.0,-10976.0,-11934.0,2.0,-5.0,-4.0,15.0,17.0,2.0,8.0,1.0,1.140876054763794
260,-722.0,1416.0,-3770.0,0.0,599.0,-2286.0,-10976.0,-11934.0,4.0,2.0,0.0,22.0,30.0,-2.0,1.0,2.0,1.1473033428192139
261,-1153.0,1390.0,-4510.0,0.0,149.0,-1571.0,-10914.0,-12119.0,4.0,2.0,0.0,22.0,30.0,-2.0,1.0,2.0,1.1555616855621338
262,-1153.0,1390.0,-4510.0,0.0,149.0,-1571.0,-10914.0,-12119.0,1.0,0.0,1.0,6.0,-5.0,-7.0,-1.0,0.0,1.1578738689422607
263,-1153.0,1390.0,-4510.0,0.0,149.0,-1571.0,-10914.0,-12119.0,-2.0,-3.0,-6.0,-7.0,-24.0,-9.0,-5.0,-3.0,1.1601262092590332
264,-1261.0,1412.0,-5244.0,0.0,-397.0,-760.0,-10814.0,-12279.0,-2.0,-3.0,-6.0,-7.0,-24.0,-9.0,-5.0,-3.0,1.1691153049468994
265,-1261.0,1412.0,-5244.0,0.0,-397.0,-760.0,-10814.0,-12279.0,-2.0,4.0,1.0,6.0,-9.0,1.0,-3.0,-4.0,1.1774110794067383
266,-1261.0,1412.0,-5244.0,0.0,-397.0,-760.0,-10814.0,-12279.0,2.0,-1.0,0.0,30.0,8.0,-2.0,-4.0,0.0,1.1797072887420654
267,-1432.0,1354.0,-5622.0,0.0,-968.0,54.0,-10676.0,-12392.0,2.0,-1.0,0.0,30.0,8.0,-2.0,-4.0,0.0,1.191709041595459
268,-1432.0,1354.0,-5622.0,0.0,-968.0,54.0,-10676.0,-12392.0,-2.0,-2.0,2.0,-11.0,-4.0,-8.0,-1.0,0.0,1.1998772621154785
269,-1432.0,1354.0,-5622.0,0.0,-968.0,54.0,-10676.0,-12392.0,-4.0,-5.0,-3.0,13.0,-9.0,-33.0,-2.0,-1.0,1.202195167541504
270,-1696.0,1145.0,-5716.0,0.0,-1563.0,848.0,-10454.0,-12490.0,-4.0,-5.0,-3.0,13.0,-9.0,-33.0,-2.0,-1.0,1.2153394222259521
271,-1696.0,1145.0,-5716.0,0.0,-1563.0,848.0,-10454.0,-12490.0,2.0,3.0,3.0,7.0,7.0,1.0,-1.0,-1.0,1.2177486419677734
272,-1696.0,1145.0,-5716.0,0.0,-1563.0,848.0,-10454.0,-12490.0,3.0,3.0,-11.0,2.0,18.0,18.0,12.0,19.0,1.2200794219970703
273,-2085.0,1135.0,-5499.0,0.0,-2123.0,1620.0,-10135.0,-12594.0,3.0,3.0,-11.0,2.0,18.0,18.0,12.0,19.0,1.2294623851776123
274,-2085.0,1135.0,-5499.0,0.0,-2123.0,1620.0,-10135.0,-12594.0,-5.0,-9.0,-8.0,-18.0,-6.0,-14.0,-5.0,-8.0,1.2449097633361816
275,-2085.0,1135.0,-5499.0,0.0,-2123.0,1620.0,-10135.0,-12594.0,-1.0,-3.0,18.0,-36.0,9.0,9.0,8.0,7.0,1.248567819595337
276,-1770.0,1033.0,-5153.0,0.0,-2647.0,2328.0,-9823.0,-12631.0,-1.0,-3.0,18.0,-36.0,9.0,9.0,8.0,7.0,1.2524912357330322
277,-1770.0,1033.0,-5153.0,0.0,-2647.0,2328.0,-9823.0,-12631.0,-1.0,-6.0,7.0,38.0,6.0,15.0,-3.0,-3.0,1.260457992553711
278,-1770.0,1033.0,-5153.0,0.0,-2647.0,2328.0,-9823.0,-12631.0,-1.0,-2.0,15.0,54.0,4.0,-5.0,-5.0,-5.0,1.2628493309020996
279,-1640.0,724.0,-4847.0,0.0,-3164.0,2961.0,-9498.0,-12628.0,-1.0,-2.0,15.0,54.0,4.0,-5.0,-5.0,-5.0,1.2748973369598389
280,-1640.0,724.0,-4847.0,0.0,-3164.0,2961.0,-9498.0,-12628.0,-2.0,0.0,-4.0,-3.0,-2.0,-5.0,-2.0,-3.0,1.2772629261016846
281,-1640.0,724.0,-4847.0,0.0,-3164.0,2961.0,-9498.0,-12628.0,-3.0,-2.0,-6.0,0.0,17.0,38.0,-1.0,-9.0,1.2795374393463135
282,-1879.0,344.0,-4203.0,0.0,-3623.0,3489.0,-9126.0,-12644.0,-3.0,-2.0,-6.0,0.0,17.0,38.0,-1.0,-9.0,1.2892475128173828
283,-1879.0,344.0,-4203.0,0.0,-3623.0,3489.0,-9126.0,-12644.0,12.0,15.0,2.0,-21.0,-7.0,3.0,23.0,37.0,1.2977898120880127
284,-1879.0,344.0,-4203.0,0.0,-3623.0,3489.0,-9126.0,-12644.0,-14.0,-2.0,-7.0,1.0,24.0,15.0,-28.0,-69.0,1.30002760887146
285,-2032.0,337.0,-3526.0,0.0,-3984.0,3956.0,-8730.0,-12678.0,-14.0,-2.0,-7.0,1.0,24.0,15.0,-28.0,-69.0,1.3128738403320312
286,-2032.0,337.0,-3526.0,0.0,-3984.0,3956.0,-8730.0,-12678.0,-10.0,-8.0,6.0,12.0,2.0,6.0,-12.0,-7.0,1.320857286453247
287,-2032.0,337.0,-3526.0,0.0,-3984.0,3956.0,-8730.0,-12678.0,10.0,-11.0,-33.0,-9.0,-29.0,-9.0,15.0,21.0,1.323533535003662
288,-1938.0,497.0,-2986.0,0.0,-4262.0,4392.0,-8351.0,-12699.0,10.0,-11.0,-33.0,-9.0,-29.0,-9.0,15.0,21.0,1.335787296295166
289,-1938.0,497.0,-2986.0,0.0,-4262.0,4392.0,-8351.0,-12699.0,-13.0,10.0,-5.0,2.0,17.0,-16.0,3.0,-3.0,1.3381171226501465
290,-1938.0,497.0,-2986.0,0.0,-4262.0,4392.0,-8351.0,-12699.0,19.0,16.0,-11.0,-6.0,-26.0,-32.0,15.0,12.0,1.3403797149658203
291,-1554.0,363.0,-2306.0,0.0,-4484.0,4739.0,-8031.0,-12704.0,19.0,16.0,-11.0,-6.0,-26.0,-32.0,15.0,12.0,1.3490521907806396
292,-1554.0,363.0,-2306.0,0.0,-4484.0,4739.0,-8031.0,-12704.0,-11.0,2.0,-23.0,-42.0,-34.0,-23.0,-46.0,-15.0,1.3577110767364502
293,-1554.0,363.0,-2306.0,0.0,-4484.0,4739.0,-8031.0,-12704.0,-11.0,-15.0,2.0,-12.0,-36.0,-32.0,-26.0,-16.0,1.3600695133209229
294,-773.0,-429.0,-1484.0,0.0,-4686.0,4847.0,-7825.0,-12719.0,-11.0,-15.0,2.0,-12.0,-36.0,-32.0,-26.0,-16.0,1.3716833591461182
295,-773.0,-429.0,-1484.0,0.0,-4686.0,4847.0,-7825.0,-12719.0,13.0,-34.0,10.0,19.0,39.0,99.0,-38.0,3.0,1.389064073562622
296,-773.0,-429.0,-1484.0,0.0,-4686.0,4847.0,-7825.0,-12719.0,-35.0,-66.0,-9.0,0.0,53.0,-2.0,3.0,-54.0,1.3934075832366943
297,-526.0,-810.0,-817.0,0.0,-4840.0,4830.0,-7667.0,-12764.0,-35.0,-66.0,-9.0,0.0,53.0,-2.0,3.0,-54.0,1.3963022232055664
298,-526.0,-810.0,-817.0,0.0,-4840.0,4830.0,-7667.0,-12764.0,34.0,11.0,-11.0,0.0,9.0,-15.0,-5.0,13.0,1.3987171649932861
299,-526.0,-810.0,-817.0,0.0,-4840.0,4830.0,-7667.0,-12764.0,38.0,32.0,32.0,25.0,21.0,-11.0,58.0,71.0,1.4009559154510498
300,117.0,-1033.0,2.0,0.0,-4932.0,4680.0,-7628.0,-12808.0,38.0,32.0,32.0,25.0,21.0,-11.0,58.0,71.0,1.409315586090088
301,117.0,-1033.0,2.0,0.0,-4932.0,4680.0,-7628.0,-12808.0,-50.0,-52.0,-21.0,-12.0,83.0,-4.0,110.0,40.0,1.4176747798919678
302,117.0,-1033.0,2.0,0.0,-4932.0,4680.0,-7628.0,-12808.0,-11.0,12.0,-17.0,-38.0,58.0,78.0,-49.0,-4.0,1.419978380203247
303,2149.0,-1191.0,1457.0,0.0,-4935.0,4275.0,-7935.0,-12762.0,-11.0,12.0,-17.0,-38.0,58.0,78.0,-49.0,-4.0,1.431509256362915
304,2149.0,-1191.0,1457.0,0.0,-4935.0,4275.0,-7935.0,-12762.0,-93.0,-65.0,-15.0,8.0,-7.0,-1.0,63.0,18.0,1.4398760795593262
305,2149.0,-1191.0,1457.0,0.0,-4935.0,4275.0,-7935.0,-12762.0,-112.0,-99.0,44.0,-15.0,-105.0,-29.0,98.0,62.0,1.4422943592071533
306,2356.0,-1313.0,3092.0,0.0,-4723.0,3694.0,-8328.0,-12773.0,-112.0,-99.0,44.0,-15.0,-105.0,-29.0,98.0,62.0,1.454977035522461
307,2356.0,-1313.0,3092.0,0.0,-4723.0,3694.0,-8328.0,-12773.0,52.0,0.0,71.0,-72.0,27.0,15.0,76.0,87.0,1.4575040340423584
308,2356.0,-1313.0,3092.0,0.0,-4723.0,3694.0,-8328.0,-12773.0,94.0,68.0,-27.0,50.0,-26.0,14.0,68.0,28.0,1.4617726802825928
309,1696.0,-1855.0,4510.0,0.0,-4324.0,2933.0,-8637.0,-12906.0,94.0,68.0,-27.0,50.0,-26.0,14.0,68.0,28.0,1.469071865081787
310,1696.0,-1855.0,4510.0,0.0,-4324.0,2933.0,-8637.0,-12906.0,-57.0,25.0,-16.0,110.0,-4.0,-120.0,-74.0,-71.0,1.4776675701141357
311,1696.0,-1855.0,4510.0,0.0,-4324.0,2933.0,-8637.0,-12906.0,58.0,-61.0,-91.0,82.0,40.0,-16.0,-128.0,-21.0,1.4804890155792236
312,1982.0,-2050.0,6012.0,0.0,-3725.0,1980.0,-8988.0,-13034.0,58.0,-61.0,-91.0,82.0,40.0,-16.0,-128.0,-21.0,1.4915504455566406
313,1982.0,-2050.0,6012.0,0.0,-3725.0,1980.0,-8988.0,-13034.0,66.0,91.0,-15.0,3.0,-59.0,-54.0,-49.0,-11.0,1.501077651977539
314,1982.0,-2050.0,6012.0,0.0,-3725.0,1980.0,-8988.0,-13034.0,-83.0,-78.0,-30.0,33.0,-11.0,-32.0,-97.0,-77.0,1.5052134990692139
315,2234.0,-2543.0,6877.0,0.0,-3034.0,850.0,-9319.0,-13103.0,-83.0,-78.0,-30.0,33.0,-11.0,-32.0,-97.0,-77.0,1.5151348114013672
316,2234.0,-2543.0,6877.0,0.0,-3034.0,850.0,-9319.0,-13103.0,-73.0,-42.0,-85.0,123.0,-38.0,42.0,-18.0,1.0,1.5175726413726807
317,2234.0,-2543.0,6877.0,0.0,-3034.0,850.0,-9319.0,-13103.0,68.0,64.0,61.0,-113.0,57.0,51.0,127.0,-6.0,1.5215651988983154
318,3495.0,-2704.0,7902.0,0.0,-2201.0,-453.0,-9755.0,-12971.0,68.0,64.0,61.0,-113.0,57.0,51.0,127.0,-6.0,1.5395429134368896
319,3495.0,-2704.0,7902.0,0.0,-2201.0,-453.0,-9755.0,-12971.0,-7.0,7.0,127.0,-128.0,62.0,52.0,110.0,-10.0,1.5442829132080078
320,3495.0,-2704.0,7902.0,0.0,-2201.0,-453.0,-9755.0,-12971.0,-36.0,15.0,71.0,-128.0,18.0,74.0,48.0,37.0,1.547482967376709
321,3980.0,-2575.0,7700.0,0.0,-1359.0,-1724.0,-10169.0,-12659.0,-36.0,15.0,71.0,-128.0,18.0,74.0,48.0,37.0,1.551513433456421
322,3980.0,-2575.0,7700.0,0.0,-1359.0,-1724.0,-10169.0,-12659.0,-1.0,5.0,21.0,-29.0,-119.0,-72.0,-71.0,-68.0,1.5602238178253174
323,3980.0,-2575.0,7700.0,0.0,-1359.0,-1724.0,-10169.0,-12659.0,6.0,58.0,80.0,10.0,58.0,-84.0,-29.0,-18.0,1.5624709129333496
324,4767.0,-2170.0,6989.0,0.0,-543.0,-2856.0,-10615.0,-12138.0,6.0,58.0,80.0,10.0,58.0,-84.0,-29.0,-18.0,1.5752606391906738
325,4767.0,-2170.0,6989.0,0.0,-543.0,-2856.0,-10615.0,-12138.0,11.0,7.0,-17.0,113.0,38.0,63.0,-48.0,-52.0,1.577653169631958
326,4767.0,-2170.0,6989.0,0.0,-543.0,-2856.0,-10615.0,-12138.0,6.0,76.0,54.0,-85.0,28.0,17.0,28.0,20.0,1.5811572074890137
327,4234.0,-1811.0,5576.0,0.0,118.0,-3755.0,-10958.0,-11588.0,6.0,76.0,54.0,-85.0,28.0,17.0,28.0,20.0,1.5988547801971436
328,4234.0,-1811.0,5576.0,0.0,118.0,-3755.0,-10958.0,-11588.0,48.0,-46.0,-86.0,-110.0,0.0,65.0,-54.0,17.0,1.604543924331665
329,4234.0,-1811.0,5576.0,0.0,118.0,-3755.0,-10958.0,-11588.0,-44.0,-97.0,-115.0,127.0,-47.0,5.0,-29.0,-57.0,1.609729290008545
330,4169.0,-1580.0,2684.0,0.0,438.0,-4263.0,-11358.0,-11004.0,-44.0,-97.0,-115.0,127.0,-47.0,5.0,-29.0,-57.0,1.6126859188079834
331,4169.0,-1580.0,2684.0,0.0,438.0,-4263.0,-11358.0,-11004.0,48.0,6.0,-87.0,-25.0,3.0,24.0,38.0,47.0,1.6202363967895508
332,4169.0,-1580.0,2684.0,0.0,438.0,-4263.0,-11358.0,-11004.0,-8.0,-10.0,-47.0,-4.0,84.0,-58.0,-37.0,1.0,1.6228480339050293
333,2954.0,-1539.0,874.0,0.0,489.0,-4539.0,-11671.0,-10555.0,-8.0,-10.0,-47.0,-4.0,84.0,-58.0,-37.0,1.0,1.6351087093353271
334,2954.0,-1539.0,874.0,0.0,489.0,-4539.0,-11671.0,-10555.0,19.0,84.0,-15.0,125.0,-44.0,-74.0,-73.0,-34.0,1.637871503829956
335,2954.0,-1539.0,874.0,0.0,489.0,-4539.0,-11671.0,-10555.0,20.0,-32.0,23.0,68.0,-7.0,-87.0,-30.0,27.0,1.6412513256072998
336,1591.0,-1329.0,2781.0,0.0,689.0,-5000.0,-11702.0,-10298.0,20.0,-32.0,23.0,68.0,-7.0,-87.0,-30.0,27.0,1.6580021381378174
337,1591.0,-1329.0,2781.0,0.0,689.0,-5000.0,-11702.0,-10298.0,-18.0,-76.0,30.0,-61.0,-37.0,4.0,41.0,29.0,1.6603589057922363
338,1591.0,-1329.0,2781.0,0.0,689.0,-5000.0,-11702.0,-10298.0,-6.0,25.0,-124.0,-82.0,-45.0,64.0,12.0,11.0,1.6626355648040771
339,-468.0,-958.0,3328.0,0.0,940.0,-5542.0,-11445.0,-10290.0,-6.0,25.0,-124.0,-82.0,-45.0,64.0,12.0,11.0,1.6716361045837402
340,-468.0,-958.0,3328.0,0.0,940.0,-5542.0,-11445.0,-10290.0,31.0,55.0,-37.0,87.0,-53.0,-21.0,22.0,-3.0,1.6800200939178467
341,-468.0,-958.0,3328.0,0.0,940.0,-5542.0,-11445.0,-10290.0,-13.0,-12.0,49.0,48.0,13.0,-6.0,-17.0,24.0,1.6822986602783203
342,-364.0,-638.0,3023.0,0.0,1214.0,-6012.0,-11197.0,-10270.0,-13.0,-12.0,49.0,48.0,13.0,-6.0,-17.0,24.0,1.6947171688079834
343,-364.0,-638.0,3023.0,0.0,1214.0,-6012.0,-11197.0,-10270.0,3.0,4.0,21.0,-126.0,19.0,2.0,-35.0,-58.0,1.6975877285003662
344,-364.0,-638.0,3023.0,0.0,1214.0,-6012.0,-11197.0,-10270.0,-22.0,-65.0,-5.0,-96.0,-29.0,32.0,11.0,1.0,1.7033088207244873
345,1630.0,37.0,2339.0,0.0,1603.0,-6271.0,-11203.0,-10052.0,-22.0,-65.0,-5.0,-96.0,-29.0,32.0,11.0,1.0,1.719054937362671
346,1630.0,37.0,2339.0,0.0,1603.0,-6271.0,-11203.0,-10052.0,-2.0,-9.0,-3.0,13.0,29.0,4.0,40.0,53.0,1.723994493484497
347,1630.0,37.0,2339.0,0.0,1603.0,-6271.0,-11203.0,-10052.0,-16.0,-15.0,2.0,-31.0,-3.0,14.0,-1.0,-20.0,1.7291736602783203
348,1394.0,311.0,2076.0,0.0,1934.0,-6442.0,-11214.0,-9872.0,-16.0,-15.0,2.0,-31.0,-3.0,14.0,-1.0,-20.0,1.7328886985778809
349,1394.0,311.0,2076.0,0.0,1934.0,-6442.0,-11214.0,-9872.0,36.0,38.0,68.0,18.0,-46.0,-7.0,-18.0,-21.0,1.7397797107696533
350,1394.0,311.0,2076.0,0.0,1934.0,-6442.0,-11214.0,-9872.0,9.0,23.0,-1.0,86.0,-44.0,25.0,80.0,85.0,1.7421691417694092
351,463.0,434.0,1726.0,0.0,2172.0,-6566.0,-11138.0,-9827.0,9.0,23.0,-1.0,86.0,-44.0,25.0,80.0,85.0,1.7561073303222656
352,463.0,434.0,1726.0,0.0,2172.0,-6566.0,-11138.0,-9827.0,-59.0,-41.0,29.0,-6.0,39.0,-26.0,-41.0,-84.0,1.7607452869415283
353,463.0,434.0,1726.0,0.0,2172.0,-6566.0,-11138.0,-9827.0,15.0,5.0,1.0,30.0,-88.0,-22.0,25.0,-2.0,1.7664406299591064
354,-4.0,571.0,985.0,0.0,2217.0,-6513.0,-11084.0,-9914.0,15.0,5.0,1.0,30.0,-88.0,-22.0,25.0,-2.0,1.7785122394561768
355,-4.0,571.0,985.0,0.0,2217.0,-6513.0,-11084.0,-9914.0,33.0,61.0,40.0,4.0,31.0,30.0,20.0,9.0,1.782808780670166
356,-4.0,571.0,985.0,0.0,2217.0,-6513.0,-11084.0,-9914.0,12.0,54.0,108.0,4.0,46.0,-18.0,-14.0,-34.0,1.786971092224121
357,-194.0,483.0,-209.0,0.0,2190.0,-6387.0,-11067.0,-10019.0,12.0,54.0,108.0,4.0,46.0,-18.0,-14.0,-34.0,1.7917735576629639
358,-194.0,483.0,-209.0,0.0,2190.0,-6387.0,-11067.0,-10019.0,-37.0,-63.0,-31.0,-2.0,-37.0,-22.0,-5.0,-1.0,1.8002121448516846
359,-194.0,483.0,-209.0,0.0,2190.0,-6387.0,-11067.0,-10019.0,0.0,76.0,90.0,24.0,-26.0,21.0,-4.0,25.0,1.8024828433990479
360,1.0,406.0,-679.0,0.0,2096.0,-6220.0,-11143.0,-10061.0,0.0,76.0,90.0,24.0,-26.0,21.0,-4.0,25.0,1.8160831928253174
361,1.0,406.0,-679.0,0.0,2096.0,-6220.0,-11143.0,-10061.0,-12.0,-30.0,-35.0,7.0,43.0,35.0,-35.0,-12.0,1.8207135200500488
362,1.0,406.0,-679.0,0.0,2096.0,-6220.0,-11143.0,-10061.0,-2.0,-12.0,-35.0,-37.0,-53.0,-12.0,-104.0,-7.0,1.8251729011535645
363,-26.0,262.0,-829.0,0.0,1966.0,-6059.0,-11237.0,-10080.0,-2.0,-12.0,-35.0,-37.0,-53.0,-12.0,-104.0,-7.0,1.8387064933776855
364,-26.0,262.0,-829.0,0.0,1966.0,-6059.0,-11237.0,-10080.0,5.0,10.0,32.0,-35.0,-8.0,3.0,47.0,60.0,1.8433265686035156
365,-26.0,262.0,-829.0,0.0,1966.0,-6059.0,-11237.0,-10080.0,-31.0,-4.0,6.0,-21.0,11.0,4.0,-18.0,-48.0,1.847785472869873
366,-433.0,174.0,-911.0,0.0,1860.0,-5941.0,-11250.0,-10156.0,-31.0,-4.0,6.0,-21.0,11.0,4.0,-18.0,-48.0,1.8512582778930664
367,-433.0,174.0,-911.0,0.0,1860.0,-5941.0,-11250.0,-10156.0,40.0,68.0,-7.0,-8.0,-9.0,19.0,30.0,50.0,1.8608803749084473
368,-433.0,174.0,-911.0,0.0,1860.0,-5941.0,-11250.0,-10156.0,-10.0,-43.0,-65.0,-58.0,-55.0,-8.0,24.0,4.0,1.8653898239135742
369,-582.0,-14.0,-951.0,0.0,1774.0,-5886.0,-11229.0,-10226.0,-10.0,-43.0,-65.0,-58.0,-55.0,-8.0,24.0,4.0,1.8752007484436035
370,-582.0,-14.0,-951.0,0.0,1774.0,-5886.0,-11229.0,-10226.0,-13.0,-8.0,-15.0,48.0,20.0,-15.0,31.0,-3.0,1.877587080001831
371,-582.0,-14.0,-951.0,0.0,1774.0,-5886.0,-11229.0,-10226.0,14.0,-4.0,-33.0,70.0,-15.0,43.0,25.0,5.0,1.8812921047210693
372,-160.0,-84.0,-708.0,0.0,1727.0,-5856.0,-11247.0,-10232.0,14.0,-4.0,-33.0,70.0,-15.0,43.0,25.0,5.0,1.8980727195739746
373,-160.0,-84.0,-708.0,0.0,1727.0,-5856.0,-11247.0,-10232.0,-15.0,-39.0,-1.0,-28.0,5.0,-21.0,-49.0,-31.0,1.9004175662994385
374,-160.0,-84.0,-708.0,0.0,1727.0,-5856.0,-11247.0,-10232.0,11.0,-11.0,0.0,-17.0,40.0,-17.0,-65.0,-13.0,1.9028496742248535
375,-21.0,-57.0,-548.0,0.0,1703.0,-5837.0,-11274.0,-10217.0,11.0,-11.0,0.0,-17.0,40.0,-17.0,-65.0,-13.0,1.9116466045379639
376,-21.0,-57.0,-548.0,0.0,1703.0,-5837.0,-11274.0,-10217.0,-6.0,-27.0,-1.0,-16.0,7.0,-4.0,14.0,-7.0,1.9201421737670898
377,-21.0,-57.0,-548.0,0.0,1703.0,-5837.0,-11274.0,-10217.0,-1.0,-7.0,-21.0,-33.0,28.0,0.0,19.0,-10.0,1.9228978157043457
378,-62.0,-11.0,-380.0,0.0,1694.0,-5822.0,-11279.0,-10222.0,-1.0,-7.0,-21.0,-33.0,28.0,0.0,19.0,-10.0,1.9358196258544922
379,-62.0,-11.0,-380.0,0.0,1694.0,-5822.0,-11279.0,-10222.0,-10.0,3.0,-49.0,-61.0,-56.0,10.0,-4.0,9.0,1.939960241317749
380,-62.0,-11.0,-380.0,0.0,1694.0,-5822.0,-11279.0,-10222.0,1.0,-18.0,-65.0,-28.0,2.0,11.0,-2.0,-16.0,1.9439404010772705
381,-121.0,-13.0,-232.0,0.0,1683.0,-5818.0,-11275.0,-10230.0,1.0,-18.0,-65.0,-28.0,2.0,11.0,-2.0,-16.0,1.9589896202087402
382,-121.0,-13.0,-232.0,0.0,1683.0,-5818.0,-11275.0,-10230.0,-18.0,-38.0,-3.0,27.0,24.0,-5.0,-16.0,5.0,1.963658332824707
383,-121.0,-13.0,-232.0,0.0,1683.0,-5818.0,-11275.0,-10230.0,-1.0,-7.0,-9.0,27.0,-33.0,2.0,-20.0,-3.0,1.9682581424713135
384,-247.0,2.0,-51.0,0.0,1673.0,-5826.0,-11249.0,-10255.0,-1.0,-7.0,-9.0,27.0,-33.0,2.0,-20.0,-3.0,1.9718217849731445
385,-247.0,2.0,-51.0,0.0,1673.0,-5826.0,-11249.0,-10255.0,-4.0,-27.0,14.0,53.0,21.0,7.0,16.0,-6.0,1.9802274703979492
386,-247.0,2.0,-51.0,0.0,1673.0,-5826.0,-11249.0,-10255.0,8.0,-9.0,12.0,41.0,26.0,15.0,9.0,13.0,1.9826257228851318
387,-306.0,51.0,-12.0,0.0,1680.0,-5843.0,-11209.0,-10288.0,8.0,-9.0,12.0,41.0,26.0,15.0,9.0,13.0,1.994962215423584
388,-306.0,51.0,-12.0,0.0,1680.0,-5843.0,-11209.0,-10288.0,9.0,-22.0,-23.0,-5.0,24.0,0.0,-5.0,18.0,1.9973583221435547
389,-306.0,51.0,-12.0,0.0,1680.0,-5843.0,-11209.0,-10288.0,12.0,-3.0,-15.0,-27.0,55.0,9.0,17.0,23.0,2.001911163330078
390,-59.0,-4.0,-155.0,0.0,1686.0,-5852.0,-11211.0,-10281.0,12.0,-3.0,-15.0,-27.0,55.0,9.0,17.0,23.0,2.019575595855713
391,-59.0,-4.0,-155.0,0.0,1686.0,-5852.0,-11211.0,-10281.0,-7.0,16.0,52.0,11.0,-8.0,-6.0,19.0,-1.0,2.0220277309417725
392,-59.0,-4.0,-155.0,0.0,1686.0,-5852.0,-11211.0,-10281.0,-8.0,10.0,2.0,2.0,-4.0,-12.0,11.0,-13.0,2.0242817401885986
393,36.0,23.0,-230.0,0.0,1688.0,-5840.0,-11223.0,-10274.0,-8.0,10.0,2.0,2.0,-4.0,-12.0,11.0,-13.0,2.032419204711914
394,36.0,23.0,-230.0,0.0,1688.0,-5840.0,-11223.0,-10274.0,6.0,11.0,44.0,13.0,8.0,-3.0,16.0,16.0,2.039965867996216
395,36.0,23.0,-230.0,0.0,1688.0,-5840.0,-11223.0,-10274.0,-2.0,2.0,22.0,54.0,-21.0,-8.0,-12.0,-7.0,2.042269706726074
396,59.0,71.0,-200.0,0.0,1674.0,-5806.0,-11247.0,-10269.0,-2.0,2.0,22.0,54.0,-21.0,-8.0,-12.0,-7.0,2.0548083782196045
397,59.0,71.0,-200.0,0.0,1674.0,-5806.0,-11247.0,-10269.0,8.0,0.0,2.0,-17.0,-6.0,5.0,15.0,7.0,2.057302713394165
398,59.0,71.0,-200.0,0.0,1674.0,-5806.0,-11247.0,-10269.0,-20.0,-35.0,-15.0,3.0,25.0,-3.0,18.0,0.0,2.0620574951171875
399,-56.0,63.0,-173.0,0.0,1652.0,-5775.0,-11256.0,-10280.0,-20.0,-35.0,-15.0,3.0,25.0,-3.0,18.0,0.0,2.078029155731201
400,-56.0,63.0,-173.0,0.0,1652.0,-5775.0,-11256.0,-10280.0,-13.0,-33.0,-91.0,2.0,-12.0,3.0,-5.0,-9.0,2.0810444355010986
401,-56.0,63.0,-173.0,0.0,1652.0,-5775.0,-11256.0,-10280.0,2.0,3.0,-8.0,14.0,-17.0,-8.0,-8.0,-52.0,2.0836102962493896
402,-110.0,57.0,-181.0,0.0,1640.0,-5756.0,-11252.0,-10297.0,2.0,3.0,-8.0,14.0,-17.0,-8.0,-8.0,-52.0,2.091592311859131
403,-110.0,57.0,-181.0,0.0,1640.0,-5756.0,-11252.0,-10297.0,0.0,1.0,55.0,18.0,16.0,7.0,-1.0,-5.0,2.0998690128326416
404,-110.0,57.0,-181.0,0.0,1640.0,-5756.0,-11252.0,-10297.0,1.0,10.0,6.0,-17.0,-10.0,21.0,-1.0,8.0,2.1021313667297363
405,38.0,58.0,-166.0,0.0,1642.0,-5739.0,-11265.0,-10292.0,1.0,10.0,6.0,-17.0,-10.0,21.0,-1.0,8.0,2.1167218685150146
406,38.0,58.0,-166.0,0.0,1642.0,-5739.0,-11265.0,-10292.0,-1.0,2.0,52.0,-17.0,5.0,8.0,-6.0,-6.0,2.121073007583618
407,38.0,58.0,-166.0,0.0,1642.0,-5739.0,-11265.0,-10292.0,5.0,39.0,23.0,-45.0,39.0,-11.0,5.0,-1.0,2.1252503395080566
408,85.0,96.0,-113.0,0.0,1653.0,-5722.0,-11284.0,-10279.0,5.0,39.0,23.0,-45.0,39.0,-11.0,5.0,-1.0,2.1386046409606934
409,85.0,96.0,-113.0,0.0,1653.0,-5722.0,-11284.0,-10279.0,-4.0,-6.0,-40.0,-21.0,0.0,4.0,12.0,4.0,2.1438815593719482
410,85.0,96.0,-113.0,0.0,1653.0,-5722.0,-11284.0,-10279.0,-7.0,-8.0,-11.0,-14.0,-10.0,-5.0,-2.0,8.0,2.149301290512085
411,120.0,126.0,-22.0,0.0,1669.0,-5703.0,-11302.0,-10267.0,-7.0,-8.0,-11.0,-14.0,-10.0,-5.0,-2.0,8.0,2.1525065898895264
412,120.0,126.0,-22.0,0.0,1669.0,-5703.0,-11302.0,-10267.0,13.0,7.0,3.0,13.0,14.0,12.0,-14.0,5.0,2.1599032878875732
413,120.0,126.0,-22.0,0.0,1669.0,-5703.0,-11302.0,-10267.0,-7.0,-19.0,12.0,4.0,-22.0,-12.0,-17.0,-14.0,2.1622233390808105
414,124.0,87.0,-4.0,0.0,1680.0,-5686.0,-11318.0,-10257.0,-7.0,-19.0,12.0,4.0,-22.0,-12.0,-17.0,-14.0,2.1771509647369385
415,124.0,87.0,-4.0,0.0,1680.0,-5686.0,-11318.0,-10257.0,-10.0,-7.0,17.0,9.0,-8.0,-14.0,-21.0,-5.0,2.1825625896453857
416,124.0,87.0,-4.0,0.0,1680.0,-5686.0,-11318.0,-10257.0,4.0,7.0,-33.0,11.0,-6.0,-16.0,4.0,11.0,2.1868364810943604
417,-5.0,97.0,12.0,0.0,1690.0,-5676.0,-11318.0,-10261.0,4.0,7.0,-33.0,11.0,-6.0,-16.0,4.0,11.0,2.1981773376464844
418,-5.0,97.0,12.0,0.0,1690.0,-5676.0,-11318.0,-10261.0,-5.0,5.0,-14.0,5.0,6.0,-17.0,-8.0,-8.0,2.2022743225097656
419,-5.0,97.0,12.0,0.0,1690.0,-5676.0,-11318.0,-10261.0,7.0,13.0,12.0,7.0,-17.0,0.0,14.0,26.0,2.2066609859466553
420,-3.0,67.0,22.0,0.0,1704.0,-5673.0,-11314.0,-10265.0,7.0,13.0,12.0,7.0,-17.0,0.0,14.0,26.0,2.212156057357788
421,-3.0,67.0,22.0,0.0,1704.0,-5673.0,-11314.0,-10265.0,-2.0,2.0,0.0,0.0,8.0,-3.0,2.0,-14.0,2.219982624053955
422,-3.0,67.0,22.0,0.0,1704.0,-5673.0,-11314.0,-10265.0,-4.0,-11.0,-26.0,20.0,4.0,19.0,1.0,1.0,2.2222700119018555
423,45.0,98.0,-12.0,0.0,1715.0,-5661.0,-11322.0,-10261.0,-4.0,-11.0,-26.0,20.0,4.0,19.0,1.0,1.0,2.236177921295166
424,45.0,98.0,-12.0,0.0,1715.0,-5661.0,-11322.0,-10261.0,-2.0,-4.0,-39.0,-19.0,13.0,15.0,10.0,7.0,2.2417774200439453
425,45.0,98.0,-12.0,0.0,1715.0,-5661.0,-11322.0,-10261.0,6.0,-6.0,-18.0,5.0,1.0,13.0,2.0,3.0,2.2463457584381104
426,40.0,56.0,-59.0,0.0,1714.0,-5646.0,-11334.0,-10256.0,6.0,-6.0,-18.0,5.0,1.0,13.0,2.0,3.0,2.257883310317993
427,40.0,56.0,-59.0,0.0,1714.0,-5646.0,-11334.0,-10256.0,-11.0,1.0,-56.0,-8.0,-4.0,-2.0,-2.0,-1.0,2.260305404663086
428,40.0,56.0,-59.0,0.0,1714.0,-5646.0,-11334.0,-10256.0,0.0,-7.0,-16.0,-4.0,-1.0,4.0,9.0,11.0,2.262593984603882
429,30.0,21.0,-82.0,0.0,1706.0,-5632.0,-11347.0,-10251.0,0.0,-7.0,-16.0,-4.0,-1.0,4.0,9.0,11.0,2.272606134414673
430,30.0,21.0,-82.0,0.0,1706.0,-5632.0,-11347.0,-10251.0,-7.0,-16.0,-4.0,-5.0,-2.0,25.0,26.0,4.0,2.2799270153045654
431,30.0,21.0,-82.0,0.0,1706.0,-5632.0,-11347.0,-10251.0,11.0,39.0,52.0,-7.0,3.0,-7.0,-4.0,-31.0,2.2822322845458984
432,4.0,31.0,-63.0,0.0,1703.0,-5621.0,-11351.0,-10252.0,11.0,39.0,52.0,-7.0,3.0,-7.0,-4.0,-31.0,2.2959024906158447
433,4.0,31.0,-63.0,0.0,1703.0,-5621.0,-11351.0,-10252.0,2.0,-2.0,-5.0,7.0,-5.0,-32.0,-18.0,3.0,2.300302505493164
434,4.0,31.0,-63.0,0.0,1703.0,-5621.0,-11351.0,-10252.0,9.0,20.0,16.0,-5.0,7.0,3.0,6.0,11.0,2.305542230606079
435,10.0,93.0,-52.0,0.0,1703.0,-5603.0,-11360.0,-10253.0,9.0,20.0,16.0,-5.0,7.0,3.0,6.0,11.0,2.3179380893707275
436,10.0,93.0,-52.0,0.0,1703.0,-5603.0,-11360.0,-10253.0,-6.0,-6.0,-20.0,-17.0,-20.0,-15.0,3.0,-6.0,2.3225715160369873
437,10.0,93.0,-52.0,0.0,1703.0,-5603.0,-11360.0,-10253.0,1.0,2.0,-6.0,-3.0,-5.0,-11.0,-1.0,-1.0,2.327037811279297
438,25.0,106.0,-11.0,0.0,1702.0,-5583.0,-11373.0,-10249.0,1.0,2.0,-6.0,-3.0,-5.0,-11.0,-1.0,-1.0,2.332294464111328
439,25.0,106.0,-11.0,0.0,1702.0,-5583.0,-11373.0,-10249.0,7.0,0.0,25.0,11.0,-6.0,11.0,3.0,5.0,2.340507984161377
440,25.0,106.0,-11.0,0.0,1702.0,-5583.0,-11373.0,-10249.0,1.0,2.0,7.0,-19.0,-5.0,-5.0,-2.0,-3.0,2.3428688049316406
441,-97.0,61.0,-36.0,0.0,1696.0,-5573.0,-11369.0,-10261.0,1.0,2.0,7.0,-19.0,-5.0,-5.0,-2.0,-3.0,2.3557050228118896
442,-97.0,61.0,-36.0,0.0,1696.0,-5573.0,-11369.0,-10261.0,-1.0,2.0,23.0,14.0,17.0,7.0,-6.0,-1.0,2.3599655628204346
443,-97.0,61.0,-36.0,0.0,1696.0,-5573.0,-11369.0,-10261.0,-3.0,-17.0,-8.0,11.0,5.0,1.0,4.0,5.0,2.363959789276123
444,-121.0,61.0,-60.0,0.0,1694.0,-5565.0,-11357.0,-10278.0,-3.0,-17.0,-8.0,11.0,5.0,1.0,4.0,5.0,2.377133846282959
445,-121.0,61.0,-60.0,0.0,1694.0,-5565.0,-11357.0,-10278.0,8.0,42.0,72.0,-18.0,-23.0,-7.0,-47.0,-4.0,2.3811519145965576
446,-121.0,61.0,-60.0,0.0,1694.0,-5565.0,-11357.0,-10278.0,-6.0,-6.0,-10.0,4.0,6.0,-3.0,-7.0,5.0,2.3851146697998047
447,-39.0,114.0,-40.0,0.0,1709.0,-5554.0,-11350.0,-10289.0,-6.0,-6.0,-10.0,4.0,6.0,-3.0,-7.0,5.0,2.3929026126861572
448,-39.0,114.0,-40.0,0.0,1709.0,-5554.0,-11350.0,-10289.0,-1.0,-1.0,-6.0,-1.0,-7.0,-9.0,14.0,7.0,2.400306224822998
449,-39.0,114.0,-40.0,0.0,1709.0,-5554.0,-11350.0,-10289.0,9.0,2.0,25.0,2.0,-10.0,-3.0,-12.0,-1.0,2.4030561447143555
450,20.0,102.0,-19.0,0.0,1724.0,-5541.0,-11350.0,-10294.0,9.0,2.0,25.0,2.0,-10.0,-3.0,-12.0,-1.0,2.4160053730010986
451,20.0,102.0,-19.0,0.0,1724.0,-5541.0,-11350.0,-10294.0,-4.0,-1.0,-19.0,-10.0,-6.0,-18.0,4.0,0.0,2.4208502769470215
452,20.0,102.0,-19.0,0.0,1724.0,-5541.0,-11350.0,-10294.0,-12.0,-17.0,-14.0,3.0,-8.0,-21.0,2.0,1.0,2.4256362915039062
453,-27.0,79.0,-22.0,0.0,1735.0,-5534.0,-11344.0,-10302.0,-12.0,-17.0,-14.0,3.0,-8.0,-21.0,2.0,1.0,2.437185287475586
454,-27.0,79.0,-22.0,0.0,1735.0,-5534.0,-11344.0,-10302.0,-5.0,-13.0,-6.0,4.0,1.0,9.0,8.0,-8.0,2.441258192062378
455,-27.0,79.0,-22.0,0.0,1735.0,-5534.0,-11344.0,-10302.0,0.0,-6.0,5.0,-14.0,-1.0,-6.0,-4.0,-1.0,2.4452362060546875
456,-42.0,80.0,-63.0,0.0,1741.0,-5523.0,-11342.0,-10309.0,0.0,-6.0,5.0,-14.0,-1.0,-6.0,-4.0,-1.0,2.45194935798645
457,-42.0,80.0,-63.0,0.0,1741.0,-5523.0,-11342.0,-10309.0,4.0,10.0,35.0,3.0,3.0,2.0,-3.0,-5.0,2.4600625038146973
458,-42.0,80.0,-63.0,0.0,1741.0,-5523.0,-11342.0,-10309.0,-3.0,-7.0,7.0,8.0,1.0,11.0,3.0,5.0,2.463136911392212
459,36.0,81.0,-67.0,0.0,1742.0,-5505.0,-11353.0,-10306.0,-3.0,-7.0,7.0,8.0,1.0,11.0,3.0,5.0,2.47483491897583
460,36.0,81.0,-67.0,0.0,1742.0,-5505.0,-11353.0,-10306.0,-1.0,-16.0,-38.0,8.0,-9.0,-20.0,11.0,0.0,2.477161407470703
461,36.0,81.0,-67.0,0.0,1742.0,-5505.0,-11353.0,-10306.0,-3.0,0.0,17.0,2.0,-1.0,-1.0,-1.0,2.0,2.4813849925994873
462,-29.0,78.0,-26.0,0.0,1745.0,-5493.0,-11353.0,-10312.0,-3.0,0.0,17.0,2.0,-1.0,-1.0,-1.0,2.0,2.4980053901672363
463,-29.0,78.0,-26.0,0.0,1745.0,-5493.0,-11353.0,-10312.0,6.0,2.0,-10.0,-5.0,-3.0,-6.0,-15.0,2.0,2.500359058380127
464,-29.0,78.0,-26.0,0.0,1745.0,-5493.0,-11353.0,-10312.0,-5.0,-6.0,-14.0,-3.0,1.0,7.0,-4.0,11.0,2.503244161605835
465,-89.0,89.0,6.0,0.0,1752.0,-5487.0,-11342.0,-10327.0,-5.0,-6.0,-14.0,-3.0,1.0,7.0,-4.0,11.0,2.5209078788757324
466,-89.0,89.0,6.0,0.0,1752.0,-5487.0,-11342.0,-10327.0,-1.0,-7.0,-4.0,1.0,6.0,15.0,3.0,1.0,2.523273229598999
467,-89.0,89.0,6.0,0.0,1752.0,-5487.0,-11342.0,-10327.0,10.0,0.0,1.0,0.0,2.0,-1.0,11.0,2.0,2.5262272357940674
468,-85.0,108.0,-14.0,0.0,1764.0,-5479.0,-11330.0,-10342.0,10.0,0.0,1.0,0.0,2.0,-1.0,11.0,2.0,2.534839391708374
469,-85.0,108.0,-14.0,0.0,1764.0,-5479.0,-11330.0,-10342.0,-3.0,-7.0,-5.0,-17.0,-8.0,0.0,1.0,-1.0,2.537243366241455
470,-85.0,108.0,-14.0,0.0,1764.0,-5479.0,-11330.0,-10342.0,-6.0,-3.0,20.0,-5.0,-21.0,-1.0,2.0,-5.0,2.5414512157440186
471,27.0,110.0,-36.0,0.0,1776.0,-5464.0,-11336.0,-10341.0,-6.0,-3.0,20.0,-5.0,-21.0,-1.0,2.0,-5.0,2.5577690601348877
472,27.0,110.0,-36.0,0.0,1776.0,-5464.0,-11336.0,-10341.0,-7.0,-12.0,-7.0,-5.0,1.0,-12.0,-12.0,-8.0,2.5605556964874268
473,27.0,110.0,-36.0,0.0,1776.0,-5464.0,-11336.0,-10341.0,1.0,-3.0,2.0,-4.0,6.0,4.0,-1.0,-3.0,2.563183069229126
474,36.0,101.0,-44.0,0.0,1777.0,-5445.0,-11350.0,-10336.0,1.0,-3.0,2.0,-4.0,6.0,4.0,-1.0,-3.0,2.5884947776794434
475,36.0,101.0,-44.0,0.0,1777.0,-5445.0,-11350.0,-10336.0,1.0,5.0,6.0,6.0,-4.0,13.0,16.0,3.0,2.593719005584717
476,36.0,101.0,-44.0,0.0,1777.0,-5445.0,-11350.0,-10336.0,-5.0,-3.0,5.0,9.0,-7.0,1.0,9.0,-9.0,2.5983381271362305
477,-3.0,72.0,-36.0,0.0,1780.0,-5433.0,-11354.0,-10337.0,-5.0,-3.0,5.0,9.0,-7.0,1.0,9.0,-9.0,2.602370262145996
478,-3.0,72.0,-36.0,0.0,1780.0,-5433.0,-11354.0,-10337.0,-2.0,-3.0,2.0,-1.0,11.0,15.0,14.0,13.0,2.604813575744629
479,-3.0,72.0,-36.0,0.0,1780.0,-5433.0,-11354.0,-10337.0,-1.0,1.0,-8.0,2.0,0.0,4.0,14.0,-2.0,2.607076644897461
480,-21.0,83.0,-11.0,0.0,1791.0,-5426.0,-11351.0,-10343.0,-1.0,1.0,-8.0,2.0,0.0,4.0,14.0,-2.0,2.6176655292510986
481,-21.0,83.0,-11.0,0.0,1791.0,-5426.0,-11351.0,-10343.0,8.0,5.0,5.0,-1.0,-7.0,3.0,-13.0,15.0,2.620590925216675
482,-21.0,83.0,-11.0,0.0,1791.0,-5426.0,-11351.0,-10343.0,0.0,0.0,-16.0,-8.0,-2.0,-6.0,-4.0,-4.0,2.623293399810791
483,-28.0,86.0,-26.0,0.0,1803.0,-5416.0,-11343.0,-10354.0,0.0,0.0,-16.0,-8.0,-2.0,-6.0,-4.0,-4.0,2.6490824222564697
484,-28.0,86.0,-26.0,0.0,1803.0,-5416.0,-11343.0,-10354.0,1.0,-1.0,5.0,6.0,6.0,-14.0,8.0,4.0,2.6543350219726562
485,-28.0,86.0,-26.0,0.0,1803.0,-5416.0,-11343.0,-10354.0,-6.0,-6.0,8.0,10.0,8.0,-5.0,-12.0,-6.0,2.6584179401397705
486,16.0,92.0,-36.0,0.0,1812.0,-5403.0,-11347.0,-10355.0,-6.0,-6.0,8.0,10.0,8.0,-5.0,-12.0,-6.0,2.662980318069458
487,16.0,92.0,-36.0,0.0,1812.0,-5403.0,-11347.0,-10355.0,-4.0,-5.0,-15.0,-5.0,-1.0,8.0,-4.0,-9.0,2.665391445159912
488,16.0,92.0,-36.0,0.0,1812.0,-5403.0,-11347.0,-10355.0,2.0,0.0,-9.0,-6.0,0.0,-8.0,-4.0,-4.0,2.667966842651367
489,46.0,50.0,-22.0,0.0,1814.0,-5394.0,-11359.0,-10346.0,2.0,0.0,-9.0,-6.0,0.0,-8.0,-4.0,-4.0,2.677412986755371
490,46.0,50.0,-22.0,0.0,1814.0,-5394.0,-11359.0,-10346.0,7.0,14.0,-1.0,-5.0,-2.0,-1.0,4.0,-14.0,2.6797327995300293
491,46.0,50.0,-22.0,0.0,1814.0,-5394.0,-11359.0,-10346.0,3.0,3.0,-2.0,-5.0,-8.0,-2.0,3.0,9.0,2.684530019760132
492,-14.0,60.0,-45.0,0.0,1817.0,-5386.0,-11363.0,-10346.0,3.0,3.0,-2.0,-5.0,-8.0,-2.0,3.0,9.0,2.7016358375549316
493,-14.0,60.0,-45.0,0.0,1817.0,-5386.0,-11363.0,-10346.0,-7.0,-5.0,-11.0,3.0,-3.0,3.0,3.0,-11.0,2.7056808471679688
494,-14.0,60.0,-45.0,0.0,1817.0,-5386.0,-11363.0,-10346.0,-11.0,-1.0,7.0,5.0,-7.0,-3.0,-15.0,-15.0,2.7096455097198486
495,-2.0,64.0,-29.0,0.0,1827.0,-5379.0,-11362.0,-10349.0,-11.0,-1.0,7.0,5.0,-7.0,-3.0,-15.0,-15.0,2.7150237560272217
496,-2.0,64.0,-29.0,0.0,1827.0,-5379.0,-11362.0,-10349.0,7.0,5.0,14.0,9.0,11.0,9.0,-6.0,4.0,2.7177677154541016
497,-2.0,64.0,-29.0,0.0,1827.0,-5379.0,-11362.0,-10349.0,1.0,3.0,11.0,5.0,10.0,12.0,4.0,7.0,2.7209627628326416
498,-9.0,49.0,-45.0,0.0,1832.0,-5372.0,-11361.0,-10353.0,1.0,3.0,11.0,5.0,10.0,12.0,4.0,7.0,2.737842321395874
499,-9.0,49.0,-45.0,0.0,1832.0,-5372.0,-11361.0,-10353.0,-2.0,5.0,-4.0,-13.0,2.0,-6.0,3.0,1.0,2.741945743560791
