,Gyro 0,Gyro 1,Gyro 2,Label,Orientation 0,Orientation 1,Orientation 2,Orientation 3,Sensor 0,Sensor 1,Sensor 2,Sensor 3,Sensor 4,Sensor 5,Sensor 6,Sensor 7,Timestamp
0,30.0,19.0,0.0,0.0,9426.0,3684.0,-11801.0,-5172.0,2.0,1.0,-19.0,0.0,2.0,-1.0,-1.0,2.0,1.430511474609375e-06
1,30.0,19.0,0.0,0.0,9426.0,3684.0,-11801.0,-5172.0,2.0,1.0,-19.0,0.0,2.0,-1.0,-1.0,2.0,0.002874135971069336
2,30.0,19.0,0.0,0.0,9426.0,3684.0,-11801.0,-5172.0,0.0,-8.0,-9.0,8.0,-4.0,-1.0,3.0,0.0,0.005413055419921875
3,30.0,19.0,0.0,0.0,9426.0,3684.0,-11801.0,-5172.0,6.0,29.0,45.0,5.0,-1.0,-1.0,-1.0,0.0,0.007934808731079102
4,30.0,19.0,0.0,0.0,9426.0,3684.0,-11801.0,-5172.0,-3.0,-12.0,6.0,-3.0,-8.0,-2.0,-2.0,-4.0,0.010329484939575195
5,-41.0,6.0,19.0,0.0,9433.0,3670.0,-11796.0,-5180.0,-3.0,-12.0,6.0,-3.0,-8.0,-2.0,-2.0,-4.0,0.012594223022460938
6,-41.0,6.0,19.0,0.0,9433.0,3670.0,-11796.0,-5180.0,0.0,9.0,31.0,0.0,1.0,1.0,-2.0,0.0,0.014950990676879883
7,-41.0,6.0,19.0,0.0,9433.0,3670.0,-11796.0,-5180.0,-4.0,-1.0,16.0,-17.0,6.0,3.0,2.0,2.0,0.01726555824279785
8,32.0,7.0,4.0,0.0,9434.0,3671.0,-11798.0,-5172.0,-4.0,-1.0,16.0,-17.0,6.0,3.0,2.0,2.0,0.01958489418029785
9,32.0,7.0,4.0,0.0,9434.0,3671.0,-11798.0,-5172.0,0.0,-3.0,-32.0,-25.0,-1.0,1.0,0.0,3.0,0.0229184627532959
10,32.0,7.0,4.0,0.0,9434.0,3671.0,-11798.0,-5172.0,-2.0,-13.0,-40.0,-21.0,-8.0,-2.0,0.0,-4.0,0.025757312774658203
11,49.0,22.0,7.0,0.0,9432.0,3680.0,-11801.0,-5165.0,-2.0,-13.0,-40.0,-21.0,-8.0,-2.0,0.0,-4.0,0.02806568145751953
12,49.0,22.0,7.0,0.0,9432.0,3680.0,-11801.0,-5165.0,4.0,13.0,5.0,-19.0,-3.0,-1.0,2.0,1.0,0.030454635620117188
13,49.0,22.0,7.0,0.0,9432.0,3680.0,-11801.0,-5165.0,-3.0,-10.0,-27.0,4.0,4.0,-2.0,-1.0,-1.0,0.032732248306274414
14,0.0,36.0,3.0,0.0,9435.0,3683.0,-11797.0,-5165.0,-3.0,-10.0,-27.0,4.0,4.0,-2.0,-1.0,-1.0,0.035004615783691406
15,0.0,36.0,3.0,0.0,9435.0,3683.0,-11797.0,-5165.0,-2.0,-7.0,-45.0,-17.0,-8.0,-2.0,-3.0,0.0,0.03736162185668945
16,0.0,36.0,3.0,0.0,9435.0,3683.0,-11797.0,-5165.0,-3.0,-7.0,-3.0,3.0,-1.0,-5.0,-2.0,-3.0,0.039676666259765625
17,-20.0,39.0,-6.0,0.0,9442.0,3684.0,-11791.0,-5166.0,-3.0,-7.0,-3.0,3.0,-1.0,-5.0,-2.0,-3.0,0.04197883605957031
18,-20.0,39.0,-6.0,0.0,9442.0,3684.0,-11791.0,-5166.0,-4.0,-9.0,33.0,8.0,7.0,1.0,2.0,-3.0,0.04430532455444336
19,-20.0,39.0,-6.0,0.0,9442.0,3684.0,-11791.0,-5166.0,4.0,7.0,-3.0,3.0,1.0,1.0,-2.0,4.0,0.04672098159790039
20,3.0,36.0,-21.0,0.0,9446.0,3686.0,-11788.0,-5163.0,4.0,7.0,-3.0,3.0,1.0,1.0,-2.0,4.0,0.0490727424621582
21,3.0,36.0,-21.0,0.0,9446.0,3686.0,-11788.0,-5163.0,-2.0,0.0,16.0,11.0,1.0,3.0,2.0,-4.0,0.05139899253845215
22,3.0,36.0,-21.0,0.0,9446.0,3686.0,-11788.0,-5163.0,-3.0,0.0,1.0,3.0,0.0,2.0,-3.0,-2.0,0.054227352142333984
23,48.0,37.0,-2.0,0.0,9447.0,3694.0,-11789.0,-5155.0,-3.0,0.0,1.0,3.0,0.0,2.0,-3.0,-2.0,0.05680537223815918
24,48.0,37.0,-2.0,0.0,9447.0,3694.0,-11789.0,-5155.0,0.0,-4.0,-14.0,6.0,-5.0,-6.0,-4.0,1.0,0.059351444244384766
25,48.0,37.0,-2.0,0.0,9447.0,3694.0,-11789.0,-5155.0,-3.0,4.0,34.0,4.0,-9.0,-7.0,-6.0,-3.0,0.06165361404418945
26,32.0,55.0,10.0,0.0,9450.0,3703.0,-11786.0,-5149.0,-3.0,4.0,34.0,4.0,-9.0,-7.0,-6.0,-3.0,0.06401562690734863
27,32.0,55.0,10.0,0.0,9450.0,3703.0,-11786.0,-5149.0,1.0,2.0,20.0,2.0,-2.0,-3.0,-2.0,-1.0,0.06643486022949219
28,32.0,55.0,10.0,0.0,9450.0,3703.0,-11786.0,-5149.0,-1.0,-5.0,-44.0,-7.0,-1.0,2.0,1.0,1.0,0.06871795654296875
29,9.0,80.0,19.0,0.0,9457.0,3709.0,-11781.0,-5144.0,-1.0,-5.0,-44.0,-7.0,-1.0,2.0,1.0,1.0,0.07108855247497559
30,9.0,80.0,19.0,0.0,9457.0,3709.0,-11781.0,-5144.0,-4.0,-6.0,-20.0,9.0,2.0,-1.0,2.0,1.0,0.07364439964294434
31,9.0,80.0,19.0,0.0,9457.0,3709.0,-11781.0,-5144.0,2.0,5.0,20.0,5.0,-5.0,3.0,0.0,1.0,0.07591509819030762
32,-16.0,64.0,18.0,0.0,9466.0,3709.0,-11775.0,-5140.0,2.0,5.0,20.0,5.0,-5.0,3.0,0.0,1.0,0.0782010555267334
33,-16.0,64.0,18.0,0.0,9466.0,3709.0,-11775.0,-5140.0,-3.0,-9.0,-16.0,-3.0,7.0,2.0,-1.0,-1.0,0.08051729202270508
34,-16.0,64.0,18.0,0.0,9466.0,3709.0,-11775.0,-5140.0,-4.0,-15.0,15.0,9.0,6.0,2.0,0.0,0.0,0.0828409194946289
35,13.0,63.0,16.0,0.0,9474.0,3711.0,-11772.0,-5133.0,-4.0,-15.0,15.0,9.0,6.0,2.0,0.0,0.0,0.0854496955871582
36,13.0,63.0,16.0,0.0,9474.0,3711.0,-11772.0,-5133.0,-2.0,3.0,22.0,30.0,11.0,13.0,-8.0,-8.0,0.08826041221618652
37,13.0,63.0,16.0,0.0,9474.0,3711.0,-11772.0,-5133.0,0.0,1.0,4.0,2.0,5.0,1.0,1.0,0.0,0.09099245071411133
38,62.0,75.0,12.0,0.0,9480.0,3720.0,-11770.0,-5118.0,0.0,1.0,4.0,2.0,5.0,1.0,1.0,0.0,0.09332680702209473
39,62.0,75.0,12.0,0.0,9480.0,3720.0,-11770.0,-5118.0,4.0,2.0,-18.0,-1.0,-7.0,-7.0,1.0,1.0,0.09567904472351074
40,62.0,75.0,12.0,0.0,9480.0,3720.0,-11770.0,-5118.0,-2.0,-6.0,5.0,7.0,3.0,-3.0,-3.0,-1.0,0.09797120094299316
41,71.0,71.0,17.0,0.0,9483.0,3733.0,-11769.0,-5106.0,-2.0,-6.0,5.0,7.0,3.0,-3.0,-3.0,-1.0,0.10024333000183105
42,71.0,71.0,17.0,0.0,9483.0,3733.0,-11769.0,-5106.0,-4.0,1.0,8.0,-17.0,-5.0,-1.0,2.0,-1.0,0.10270547866821289
43,71.0,71.0,17.0,0.0,9483.0,3733.0,-11769.0,-5106.0,-1.0,-8.0,-19.0,-2.0,-4.0,-6.0,1.0,0.0,0.10503697395324707
44,34.0,71.0,14.0,0.0,9490.0,3739.0,-11765.0,-5097.0,-1.0,-8.0,-19.0,-2.0,-4.0,-6.0,1.0,0.0,0.10738801956176758
45,34.0,71.0,14.0,0.0,9490.0,3739.0,-11765.0,-5097.0,0.0,-5.0,-15.0,-10.0,-9.0,-5.0,-3.0,3.0,0.10978174209594727
46,34.0,71.0,14.0,0.0,9490.0,3739.0,-11765.0,-5097.0,-2.0,4.0,9.0,-5.0,-3.0,-2.0,-2.0,-4.0,0.11203360557556152
47,25.0,55.0,23.0,0.0,9496.0,3743.0,-11762.0,-5090.0,-2.0,4.0,9.0,-5.0,-3.0,-2.0,-2.0,-4.0,0.11432337760925293
48,25.0,55.0,23.0,0.0,9496.0,3743.0,-11762.0,-5090.0,4.0,3.0,6.0,11.0,3.0,-1.0,-1.0,3.0,0.11682295799255371
49,25.0,55.0,23.0,0.0,9496.0,3743.0,-11762.0,-5090.0,2.0,-10.0,-16.0,14.0,-5.0,3.0,3.0,5.0,0.1198892593383789
50,41.0,36.0,15.0,0.0,9498.0,3747.0,-11764.0,-5079.0,2.0,-10.0,-16.0,14.0,-5.0,3.0,3.0,5.0,0.12260842323303223
51,41.0,36.0,15.0,0.0,9498.0,3747.0,-11764.0,-5079.0,-4.0,-13.0,8.0,0.0,2.0,-4.0,-2.0,-5.0,0.12501788139343262
52,41.0,36.0,15.0,0.0,9498.0,3747.0,-11764.0,-5079.0,2.0,3.0,-21.0,-18.0,3.0,2.0,-1.0,-2.0,0.1272737979888916
53,101.0,36.0,20.0,0.0,9493.0,3760.0,-11771.0,-5061.0,2.0,3.0,-21.0,-18.0,3.0,2.0,-1.0,-2.0,0.12987303733825684
54,101.0,36.0,20.0,0.0,9493.0,3760.0,-11771.0,-5061.0,-3.0,-4.0,-8.0,-4.0,-2.0,2.0,0.0,-1.0,0.13227629661560059
55,101.0,36.0,20.0,0.0,9493.0,3760.0,-11771.0,-5061.0,-1.0,-1.0,-16.0,1.0,-10.0,0.0,-1.0,-4.0,0.1345534324645996
56,73.0,36.0,24.0,0.0,9489.0,3774.0,-11775.0,-5051.0,-1.0,-1.0,-16.0,1.0,-10.0,0.0,-1.0,-4.0,0.1367940902709961
57,73.0,36.0,24.0,0.0,9489.0,3774.0,-11775.0,-5051.0,-1.0,4.0,19.0,-5.0,3.0,1.0,1.0,3.0,0.13910460472106934
58,73.0,36.0,24.0,0.0,9489.0,3774.0,-11775.0,-5051.0,5.0,25.0,28.0,2.0,11.0,3.0,3.0,3.0,0.14143633842468262
59,27.0,34.0,14.0,0.0,9489.0,3781.0,-11774.0,-5048.0,5.0,25.0,28.0,2.0,11.0,3.0,3.0,3.0,0.14372754096984863
60,27.0,34.0,14.0,0.0,9489.0,3781.0,-11774.0,-5048.0,3.0,1.0,-23.0,-5.0,-1.0,-2.0,-1.0,0.0,0.1461021900177002
61,27.0,34.0,14.0,0.0,9489.0,3781.0,-11774.0,-5048.0,-1.0,-1.0,-6.0,-4.0,-13.0,-7.0,-2.0,-3.0,0.14837098121643066
62,-5.0,14.0,6.0,0.0,9489.0,3781.0,-11774.0,-5047.0,-1.0,-1.0,-6.0,-4.0,-13.0,-7.0,-2.0,-3.0,0.1510021686553955
63,-5.0,14.0,6.0,0.0,9489.0,3781.0,-11774.0,-5047.0,0.0,14.0,36.0,-3.0,-6.0,-3.0,0.0,-2.0,0.1536695957183838
64,-5.0,14.0,6.0,0.0,9489.0,3781.0,-11774.0,-5047.0,-4.0,-11.0,-12.0,-3.0,4.0,0.0,1.0,-3.0,0.15596842765808105
65,30.0,-13.0,-10.0,0.0,9487.0,3781.0,-11778.0,-5042.0,-4.0,-11.0,-12.0,-3.0,4.0,0.0,1.0,-3.0,0.15823602676391602
66,30.0,-13.0,-10.0,0.0,9487.0,3781.0,-11778.0,-5042.0,-2.0,-7.0,4.0,0.0,-5.0,-2.0,0.0,-1.0,0.16058826446533203
67,30.0,-13.0,-10.0,0.0,9487.0,3781.0,-11778.0,-5042.0,-4.0,-11.0,5.0,12.0,0.0,-1.0,0.0,4.0,0.16300344467163086
68,55.0,-31.0,-11.0,0.0,9480.0,3785.0,-11785.0,-5035.0,-4.0,-11.0,5.0,12.0,0.0,-1.0,0.0,4.0,0.16528534889221191
69,55.0,-31.0,-11.0,0.0,9480.0,3785.0,-11785.0,-5035.0,2.0,6.0,-4.0,-8.0,-3.0,3.0,-3.0,-1.0,0.16768574714660645
70,55.0,-31.0,-11.0,0.0,9480.0,3785.0,-11785.0,-5035.0,4.0,10.0,-5.0,6.0,6.0,4.0,1.0,1.0,0.16994953155517578
71,66.0,-35.0,-5.0,0.0,9467.0,3795.0,-11795.0,-5029.0,4.0,10.0,-5.0,6.0,6.0,4.0,1.0,1.0,0.17219328880310059
72,66.0,-35.0,-5.0,0.0,9467.0,3795.0,-11795.0,-5029.0,-1.0,5.0,-24.0,8.0,-4.0,4.0,2.0,1.0,0.1745772361755371
73,66.0,-35.0,-5.0,0.0,9467.0,3795.0,-11795.0,-5029.0,0.0,-2.0,6.0,1.0,4.0,-2.0,1.0,4.0,0.1768960952758789
74,56.0,-14.0,0.0,0.0,9454.0,3807.0,-11804.0,-5024.0,0.0,-2.0,6.0,1.0,4.0,-2.0,1.0,4.0,0.17916131019592285
75,56.0,-14.0,0.0,0.0,9454.0,3807.0,-11804.0,-5024.0,0.0,0.0,10.0,-15.0,2.0,-2.0,0.0,-1.0,0.1816697120666504
76,56.0,-14.0,0.0,0.0,9454.0,3807.0,-11804.0,-5024.0,-2.0,2.0,11.0,-15.0,1.0,2.0,1.0,1.0,0.18421101570129395
77,13.0,-41.0,-11.0,0.0,9445.0,3809.0,-11810.0,-5025.0,-2.0,2.0,11.0,-15.0,1.0,2.0,1.0,1.0,0.18660974502563477
78,13.0,-41.0,-11.0,0.0,9445.0,3809.0,-11810.0,-5025.0,-2.0,4.0,58.0,12.0,-1.0,-1.0,-2.0,-4.0,0.1889781951904297
79,13.0,-41.0,-11.0,0.0,9445.0,3809.0,-11810.0,-5025.0,-2.0,1.0,-17.0,-26.0,-4.0,-4.0,-1.0,-3.0,0.19123363494873047
80,28.0,-45.0,-8.0,0.0,9440.0,3807.0,-11816.0,-5020.0,-2.0,1.0,-17.0,-26.0,-4.0,-4.0,-1.0,-3.0,0.193589448928833
81,28.0,-45.0,-8.0,0.0,9440.0,3807.0,-11816.0,-5020.0,3.0,2.0,-27.0,-17.0,-1.0,-3.0,2.0,5.0,0.19591021537780762
82,28.0,-45.0,-8.0,0.0,9440.0,3807.0,-11816.0,-5020.0,1.0,22.0,43.0,-9.0,-8.0,-5.0,-1.0,-4.0,0.1981656551361084
83,79.0,-38.0,3.0,0.0,9431.0,3813.0,-11826.0,-5011.0,1.0,22.0,43.0,-9.0,-8.0,-5.0,-1.0,-4.0,0.20040464401245117
84,79.0,-38.0,3.0,0.0,9431.0,3813.0,-11826.0,-5011.0,0.0,-7.0,-9.0,6.0,1.0,-3.0,0.0,-2.0,0.20275425910949707
85,79.0,-38.0,3.0,0.0,9431.0,3813.0,-11826.0,-5011.0,-1.0,0.0,6.0,-23.0,-8.0,-4.0,-2.0,-5.0,0.20500731468200684
86,44.0,-43.0,9.0,0.0,9420.0,3817.0,-11835.0,-5007.0,-1.0,0.0,6.0,-23.0,-8.0,-4.0,-2.0,-5.0,0.20724916458129883
87,44.0,-43.0,9.0,0.0,9420.0,3817.0,-11835.0,-5007.0,0.0,4.0,-22.0,12.0,5.0,-1.0,-2.0,0.0,0.20963692665100098
88,44.0,-43.0,9.0,0.0,9420.0,3817.0,-11835.0,-5007.0,-4.0,-24.0,-21.0,10.0,-1.0,-2.0,-7.0,-3.0,0.2119612693786621
89,13.0,-27.0,-5.0,0.0,9414.0,3819.0,-11838.0,-5008.0,-4.0,-24.0,-21.0,10.0,-1.0,-2.0,-7.0,-3.0,0.21453452110290527
90,13.0,-27.0,-5.0,0.0,9414.0,3819.0,-11838.0,-5008.0,-1.0,3.0,37.0,-5.0,2.0,-2.0,-1.0,-3.0,0.21721482276916504
91,13.0,-27.0,-5.0,0.0,9414.0,3819.0,-11838.0,-5008.0,4.0,6.0,5.0,-5.0,-7.0,-2.0,1.0,2.0,0.21947574615478516
92,5.0,-32.0,-11.0,0.0,9410.0,3818.0,-11842.0,-5008.0,4.0,6.0,5.0,-5.0,-7.0,-2.0,1.0,2.0,0.22173261642456055
93,5.0,-32.0,-11.0,0.0,9410.0,3818.0,-11842.0,-5008.0,-4.0,-14.0,-33.0,3.0,-4.0,-4.0,0.0,-3.0,0.22408318519592285
94,5.0,-32.0,-11.0,0.0,9410.0,3818.0,-11842.0,-5008.0,0.0,2.0,8.0,0.0,4.0,5.0,-1.0,0.0,0.22637701034545898
95,21.0,-29.0,-5.0,0.0,9407.0,3818.0,-11846.0,-5006.0,0.0,2.0,8.0,0.0,4.0,5.0,-1.0,0.0,0.2286243438720703
96,21.0,-29.0,-5.0,0.0,9407.0,3818.0,-11846.0,-5006.0,-2.0,4.0,14.0,3.0,-1.0,-3.0,0.0,-1.0,0.23107266426086426
97,21.0,-29.0,-5.0,0.0,9407.0,3818.0,-11846.0,-5006.0,1.0,5.0,-47.0,6.0,3.0,1.0,-2.0,-2.0,0.23337936401367188
98,27.0,-16.0,1.0,0.0,9402.0,3822.0,-11848.0,-5005.0,1.0,5.0,-47.0,6.0,3.0,1.0,-2.0,-2.0,0.23565912246704102
99,27.0,-16.0,1.0,0.0,9402.0,3822.0,-11848.0,-5005.0,1.0,-1.0,20.0,-6.0,-5.0,1.0,2.0,0.0,0.23810172080993652
100,27.0,-16.0,1.0,0.0,9402.0,3822.0,-11848.0,-5005.0,-1.0,-2.0,-3.0,-5.0,-8.0,-2.0,-2.0,1.0,0.24035954475402832
101,13.0,0.0,23.0,0.0,9400.0,3824.0,-11850.0,-5004.0,-1.0,-2.0,-3.0,-5.0,-8.0,-2.0,-2.0,1.0,0.2426462173461914
102,13.0,0.0,23.0,0.0,9400.0,3824.0,-11850.0,-5004.0,0.0,-8.0,-3.0,8.0,2.0,-2.0,-2.0,-2.0,0.24535536766052246
103,13.0,0.0,23.0,0.0,9400.0,3824.0,-11850.0,-5004.0,-7.0,-13.0,-6.0,13.0,6.0,-4.0,1.0,-1.0,0.24798321723937988
104,4.0,-8.0,23.0,0.0,9398.0,3823.0,-11852.0,-5002.0,-7.0,-13.0,-6.0,13.0,6.0,-4.0,1.0,-1.0,0.2503037452697754
105,4.0,-8.0,23.0,0.0,9398.0,3823.0,-11852.0,-5002.0,-2.0,-3.0,7.0,8.0,8.0,6.0,2.0,1.0,0.25263404846191406
106,4.0,-8.0,23.0,0.0,9398.0,3823.0,-11852.0,-5002.0,-1.0,-5.0,1.0,-14.0,-7.0,1.0,0.0,-2.0,0.2549128532409668
107,-1.0,2.0,15.0,0.0,9398.0,3823.0,-11852.0,-5002.0,-1.0,-5.0,1.0,-14.0,-7.0,1.0,0.0,-2.0,0.2572298049926758
108,-1.0,2.0,15.0,0.0,9398.0,3823.0,-11852.0,-5002.0,-2.0,-4.0,22.0,0.0,-5.0,0.0,4.0,0.0,0.25961852073669434
109,-1.0,2.0,15.0,0.0,9398.0,3823.0,-11852.0,-5002.0,1.0,4.0,-25.0,6.0,7.0,-8.0,1.0,-1.0,0.26189589500427246
110,21.0,5.0,12.0,0.0,9397.0,3824.0,-11855.0,-4997.0,1.0,4.0,-25.0,6.0,7.0,-8.0,1.0,-1.0,0.26416754722595215
111,21.0,5.0,12.0,0.0,9397.0,3824.0,-11855.0,-4997.0,-1.0,-10.0,-40.0,2.0,-3.0,-5.0,-2.0,1.0,0.2664966583251953
112,21.0,5.0,12.0,0.0,9397.0,3824.0,-11855.0,-4997.0,-2.0,2.0,17.0,12.0,-3.0,5.0,3.0,0.0,0.2687852382659912
113,14.0,20.0,31.0,0.0,9398.0,3826.0,-11856.0,-4993.0,-2.0,2.0,17.0,12.0,-3.0,5.0,3.0,0.0,0.27130603790283203
114,14.0,20.0,31.0,0.0,9398.0,3826.0,-11856.0,-4993.0,8.0,10.0,-31.0,-6.0,4.0,2.0,5.0,2.0,0.2737612724304199
115,14.0,20.0,31.0,0.0,9398.0,3826.0,-11856.0,-4993.0,1.0,2.0,-1.0,8.0,10.0,5.0,-1.0,-3.0,0.27638721466064453
116,-38.0,32.0,32.0,0.0,9402.0,3823.0,-11852.0,-4995.0,1.0,2.0,-1.0,8.0,10.0,5.0,-1.0,-3.0,0.2790353298187256
117,-38.0,32.0,32.0,0.0,9402.0,3823.0,-11852.0,-4995.0,-2.0,4.0,9.0,-15.0,-5.0,-5.0,-5.0,0.0,0.28144073486328125
118,-38.0,32.0,32.0,0.0,9402.0,3823.0,-11852.0,-4995.0,-2.0,-9.0,-4.0,8.0,8.0,-2.0,-3.0,-1.0,0.28366756439208984
119,-30.0,31.0,21.0,0.0,9408.0,3818.0,-11850.0,-4993.0,-2.0,-9.0,-4.0,8.0,8.0,-2.0,-3.0,-1.0,0.2860407829284668
120,-30.0,31.0,21.0,0.0,9408.0,3818.0,-11850.0,-4993.0,-2.0,-10.0,-4.0,-14.0,-6.0,-5.0,-5.0,-6.0,0.2883741855621338
121,-30.0,31.0,21.0,0.0,9408.0,3818.0,-11850.0,-4993.0,0.0,14.0,52.0,-7.0,1.0,-3.0,5.0,1.0,0.29078102111816406
122,29.0,39.0,4.0,0.0,9413.0,3820.0,-11849.0,-4985.0,0.0,14.0,52.0,-7.0,1.0,-3.0,5.0,1.0,0.2930920124053955
123,29.0,39.0,4.0,0.0,9413.0,3820.0,-11849.0,-4985.0,2.0,4.0,-34.0,4.0,6.0,4.0,0.0,0.0,0.29547762870788574
124,29.0,39.0,4.0,0.0,9413.0,3820.0,-11849.0,-4985.0,0.0,-9.0,-46.0,-3.0,-10.0,-1.0,-4.0,0.0,0.29775047302246094
125,32.0,48.0,0.0,0.0,9417.0,3826.0,-11846.0,-4978.0,0.0,-9.0,-46.0,-3.0,-10.0,-1.0,-4.0,0.0,0.2999894618988037
126,32.0,48.0,0.0,0.0,9417.0,3826.0,-11846.0,-4978.0,-5.0,-5.0,15.0,19.0,9.0,-3.0,-2.0,-1.0,0.30242395401000977
127,32.0,48.0,0.0,0.0,9417.0,3826.0,-11846.0,-4978.0,-4.0,-8.0,21.0,-6.0,1.0,-2.0,1.0,0.0,0.30475449562072754
128,59.0,45.0,3.0,0.0,9416.0,3839.0,-11846.0,-4971.0,-4.0,-8.0,21.0,-6.0,1.0,-2.0,1.0,0.0,0.3074326515197754
129,59.0,45.0,3.0,0.0,9416.0,3839.0,-11846.0,-4971.0,-2.0,6.0,-17.0,22.0,2.0,-1.0,-1.0,0.0,0.3102264404296875
130,59.0,45.0,3.0,0.0,9416.0,3839.0,-11846.0,-4971.0,-4.0,-13.0,-19.0,-3.0,-5.0,0.0,-3.0,0.0,0.3124852180480957
131,-10.0,60.0,13.0,0.0,9420.0,3845.0,-11841.0,-4971.0,-4.0,-13.0,-19.0,-3.0,-5.0,0.0,-3.0,0.0,0.31474971771240234
132,-10.0,60.0,13.0,0.0,9420.0,3845.0,-11841.0,-4971.0,1.0,6.0,31.0,-6.0,1.0,-2.0,0.0,0.0,0.3171508312225342
133,-10.0,60.0,13.0,0.0,9420.0,3845.0,-11841.0,-4971.0,0.0,3.0,14.0,-8.0,-14.0,-15.0,3.0,0.0,0.31951093673706055
134,-51.0,58.0,7.0,0.0,9429.0,3842.0,-11833.0,-4975.0,0.0,3.0,14.0,-8.0,-14.0,-15.0,3.0,0.0,0.3217918872833252
135,-51.0,58.0,7.0,0.0,9429.0,3842.0,-11833.0,-4975.0,-1.0,-6.0,33.0,-4.0,-1.0,2.0,1.0,-4.0,0.3242785930633545
136,-51.0,58.0,7.0,0.0,9429.0,3842.0,-11833.0,-4975.0,3.0,-6.0,-55.0,0.0,-8.0,4.0,-1.0,1.0,0.32654547691345215
137,-50.0,31.0,-5.0,0.0,9437.0,3837.0,-11827.0,-4979.0,3.0,-6.0,-55.0,0.0,-8.0,4.0,-1.0,1.0,0.3288111686706543
138,-50.0,31.0,-5.0,0.0,9437.0,3837.0,-11827.0,-4979.0,-6.0,-13.0,-22.0,-10.0,-9.0,-3.0,-3.0,-1.0,0.3311953544616699
139,-50.0,31.0,-5.0,0.0,9437.0,3837.0,-11827.0,-4979.0,-1.0,0.0,14.0,13.0,8.0,2.0,-3.0,3.0,0.3334693908691406
140,11.0,40.0,-9.0,0.0,9440.0,3842.0,-11824.0,-4976.0,-1.0,0.0,14.0,13.0,8.0,2.0,-3.0,3.0,0.33579325675964355
141,11.0,40.0,-9.0,0.0,9440.0,3842.0,-11824.0,-4976.0,-3.0,-7.0,-23.0,-4.0,-4.0,3.0,-3.0,-5.0,0.33920812606811523
142,11.0,40.0,-9.0,0.0,9440.0,3842.0,-11824.0,-4976.0,0.0,4.0,16.0,0.0,-5.0,2.0,-1.0,-4.0,0.3417782783508301
143,16.0,36.0,-11.0,0.0,9438.0,3853.0,-11822.0,-4977.0,0.0,4.0,16.0,0.0,-5.0,2.0,-1.0,-4.0,0.34404468536376953
144,16.0,36.0,-11.0,0.0,9438.0,3853.0,-11822.0,-4977.0,-1.0,-6.0,-11.0,-22.0,-4.0,-5.0,1.0,1.0,0.3466181755065918
145,16.0,36.0,-11.0,0.0,9438.0,3853.0,-11822.0,-4977.0,-1.0,8.0,42.0,4.0,1.0,4.0,-1.0,-1.0,0.3488759994506836
146,-27.0,27.0,0.0,0.0,9437.0,3855.0,-11820.0,-4980.0,-1.0,8.0,42.0,4.0,1.0,4.0,-1.0,-1.0,0.3511793613433838
147,-27.0,27.0,0.0,0.0,9437.0,3855.0,-11820.0,-4980.0,-2.0,-6.0,-22.0,5.0,1.0,-1.0,1.0,-4.0,0.35359787940979004
148,-27.0,27.0,0.0,0.0,9437.0,3855.0,-11820.0,-4980.0,-4.0,-6.0,-2.0,-7.0,-2.0,-1.0,-1.0,0.0,0.3559739589691162
149,-28.0,18.0,-2.0,0.0,9439.0,3854.0,-11818.0,-4983.0,-4.0,-6.0,-2.0,-7.0,-2.0,-1.0,-1.0,0.0,0.3582115173339844
150,-28.0,18.0,-2.0,0.0,9439.0,3854.0,-11818.0,-4983.0,-1.0,11.0,14.0,6.0,9.0,1.0,-2.0,-4.0,0.3605825901031494
151,-28.0,18.0,-2.0,0.0,9439.0,3854.0,-11818.0,-4983.0,5.0,-2.0,5.0,13.0,2.0,-1.0,-4.0,-2.0,0.36287426948547363
152,-10.0,14.0,-5.0,0.0,9439.0,3854.0,-11818.0,-4982.0,5.0,-2.0,5.0,13.0,2.0,-1.0,-4.0,-2.0,0.3651695251464844
153,-10.0,14.0,-5.0,0.0,9439.0,3854.0,-11818.0,-4982.0,3.0,14.0,-37.0,-22.0,-17.0,-8.0,-1.0,3.0,0.3676114082336426
154,-10.0,14.0,-5.0,0.0,9439.0,3854.0,-11818.0,-4982.0,-2.0,-1.0,-7.0,6.0,-13.0,4.0,1.0,-3.0,0.37051820755004883
155,47.0,4.0,-11.0,0.0,9435.0,3863.0,-11820.0,-4978.0,-2.0,-1.0,-7.0,6.0,-13.0,4.0,1.0,-3.0,0.373279333114624
156,47.0,4.0,-11.0,0.0,9435.0,3863.0,-11820.0,-4978.0,0.0,-10.0,24.0,-1.0,-1.0,2.0,1.0,-4.0,0.37569499015808105
157,47.0,4.0,-11.0,0.0,9435.0,3863.0,-11820.0,-4978.0,-5.0,8.0,29.0,-7.0,4.0,-5.0,-6.0,0.0,0.37800168991088867
158,23.0,-1.0,-4.0,0.0,9430.0,3869.0,-11822.0,-4978.0,-5.0,8.0,29.0,-7.0,4.0,-5.0,-6.0,0.0,0.380307674407959
159,23.0,-1.0,-4.0,0.0,9430.0,3869.0,-11822.0,-4978.0,1.0,12.0,22.0,3.0,8.0,2.0,0.0,2.0,0.38275623321533203
160,23.0,-1.0,-4.0,0.0,9430.0,3869.0,-11822.0,-4978.0,-3.0,-5.0,-1.0,-10.0,9.0,-5.0,2.0,0.0,0.3850679397583008
161,5.0,11.0,-6.0,0.0,9429.0,3870.0,-11823.0,-4978.0,-3.0,-5.0,-1.0,-10.0,9.0,-5.0,2.0,0.0,0.38736462593078613
162,5.0,11.0,-6.0,0.0,9429.0,3870.0,-11823.0,-4978.0,-6.0,-13.0,-3.0,0.0,2.0,1.0,-3.0,-4.0,0.3897743225097656
163,5.0,11.0,-6.0,0.0,9429.0,3870.0,-11823.0,-4978.0,-3.0,-9.0,-40.0,2.0,-5.0,-3.0,-3.0,-2.0,0.39249610900878906
164,11.0,-2.0,7.0,0.0,9428.0,3871.0,-11824.0,-4978.0,-3.0,-9.0,-40.0,2.0,-5.0,-3.0,-3.0,-2.0,0.39479827880859375
165,11.0,-2.0,7.0,0.0,9428.0,3871.0,-11824.0,-4978.0,4.0,10.0,12.0,-8.0,-4.0,2.0,2.0,2.0,0.39722418785095215
166,11.0,-2.0,7.0,0.0,9428.0,3871.0,-11824.0,-4978.0,-2.0,-5.0,-20.0,5.0,6.0,1.0,0.0,-3.0,0.39994072914123535
167,11.0,-12.0,6.0,0.0,9428.0,3871.0,-11824.0,-4978.0,-2.0,-5.0,-20.0,5.0,6.0,1.0,0.0,-3.0,0.4025897979736328
168,11.0,-12.0,6.0,0.0,9428.0,3871.0,-11824.0,-4978.0,-1.0,1.0,32.0,5.0,5.0,5.0,-4.0,0.0,0.4051246643066406
169,19.0,-16.0,-1.0,0.0,9422.0,3873.0,-11828.0,-4975.0,-1.0,1.0,32.0,5.0,5.0,5.0,-4.0,0.0,0.40738511085510254
170,19.0,-16.0,-1.0,0.0,9422.0,3873.0,-11828.0,-4975.0,-5.0,-5.0,20.0,1.0,1.0,1.0,-1.0,-1.0,0.40988683700561523
171,19.0,-16.0,-1.0,0.0,9422.0,3873.0,-11828.0,-4975.0,0.0,-6.0,-14.0,-16.0,-5.0,8.0,1.0,0.0,0.41213464736938477
172,35.0,-17.0,-14.0,0.0,9415.0,3879.0,-11834.0,-4972.0,0.0,-6.0,-14.0,-16.0,-5.0,8.0,1.0,0.0,0.41448187828063965
173,35.0,-17.0,-14.0,0.0,9415.0,3879.0,-11834.0,-4972.0,-2.0,-14.0,-59.0,-5.0,12.0,2.0,0.0,-3.0,0.416903018951416
174,35.0,-17.0,-14.0,0.0,9415.0,3879.0,-11834.0,-4972.0,3.0,24.0,34.0,4.0,4.0,0.0,1.0,2.0,0.41916728019714355
175,87.0,-10.0,-23.0,0.0,9406.0,3889.0,-11842.0,-4959.0,3.0,24.0,34.0,4.0,4.0,0.0,1.0,2.0,0.4214463233947754
176,87.0,-10.0,-23.0,0.0,9406.0,3889.0,-11842.0,-4959.0,5.0,3.0,-18.0,-5.0,-19.0,-6.0,2.0,3.0,0.42386746406555176
177,87.0,-10.0,-23.0,0.0,9406.0,3889.0,-11842.0,-4959.0,0.0,-2.0,20.0,3.0,-1.0,-4.0,3.0,1.0,0.42615199089050293
178,118.0,-1.0,-19.0,0.0,9395.0,3908.0,-11850.0,-4948.0,0.0,-2.0,20.0,3.0,-1.0,-4.0,3.0,1.0,0.42848825454711914
179,118.0,-1.0,-19.0,0.0,9395.0,3908.0,-11850.0,-4948.0,3.0,18.0,34.0,-1.0,-12.0,-4.0,-4.0,-2.0,0.4313204288482666
180,118.0,-1.0,-19.0,0.0,9395.0,3908.0,-11850.0,-4948.0,-4.0,-14.0,-13.0,10.0,-6.0,2.0,-4.0,-1.0,0.43396735191345215
181,81.0,-14.0,-20.0,0.0,9386.0,3922.0,-11855.0,-4942.0,-4.0,-14.0,-13.0,10.0,-6.0,2.0,-4.0,-1.0,0.43643736839294434
182,81.0,-14.0,-20.0,0.0,9386.0,3922.0,-11855.0,-4942.0,-3.0,-18.0,-24.0,3.0,8.0,4.0,-1.0,0.0,0.43885302543640137
183,81.0,-14.0,-20.0,0.0,9386.0,3922.0,-11855.0,-4942.0,2.0,5.0,-40.0,-1.0,-4.0,-6.0,-3.0,-1.0,0.44120121002197266
184,63.0,-20.0,-11.0,0.0,9379.0,3930.0,-11860.0,-4938.0,2.0,5.0,-40.0,-1.0,-4.0,-6.0,-3.0,-1.0,0.44387125968933105
185,63.0,-20.0,-11.0,0.0,9379.0,3930.0,-11860.0,-4938.0,5.0,23.0,21.0,9.0,0.0,-7.0,1.0,0.0,0.4463028907775879
186,63.0,-20.0,-11.0,0.0,9379.0,3930.0,-11860.0,-4938.0,-2.0,-1.0,25.0,6.0,8.0,-6.0,4.0,0.0,0.45311450958251953
187,62.0,-22.0,-3.0,0.0,9371.0,3939.0,-11865.0,-4933.0,-2.0,-1.0,25.0,6.0,8.0,-6.0,4.0,0.0,0.4554100036621094
188,62.0,-22.0,-3.0,0.0,9371.0,3939.0,-11865.0,-4933.0,-2.0,-5.0,7.0,-3.0,-5.0,-1.0,-3.0,0.0,0.4596703052520752
189,62.0,-22.0,-3.0,0.0,9371.0,3939.0,-11865.0,-4933.0,1.0,-6.0,-12.0,-6.0,-7.0,0.0,0.0,0.0,0.47766685485839844
190,18.0,-11.0,6.0,0.0,9365.0,3943.0,-11868.0,-4934.0,1.0,-6.0,-12.0,-6.0,-7.0,0.0,0.0,0.0,0.48258256912231445
191,18.0,-11.0,6.0,0.0,9365.0,3943.0,-11868.0,-4934.0,-7.0,-20.0,12.0,1.0,9.0,4.0,1.0,-3.0,0.4868602752685547
192,18.0,-11.0,6.0,0.0,9365.0,3943.0,-11868.0,-4934.0,3.0,8.0,40.0,-6.0,-11.0,-2.0,-1.0,3.0,0.4990060329437256
193,-33.0,2.0,9.0,0.0,9366.0,3940.0,-11866.0,-4938.0,3.0,8.0,40.0,-6.0,-11.0,-2.0,-1.0,3.0,0.5013787746429443
194,-33.0,2.0,9.0,0.0,9366.0,3940.0,-11866.0,-4938.0,-4.0,-8.0,-10.0,9.0,10.0,0.0,-4.0,-4.0,0.5037100315093994
195,-33.0,2.0,9.0,0.0,9366.0,3940.0,-11866.0,-4938.0,-2.0,-1.0,10.0,3.0,-4.0,-2.0,-4.0,-5.0,0.5131247043609619
196,-47.0,-8.0,3.0,0.0,9368.0,3933.0,-11865.0,-4943.0,-2.0,-1.0,10.0,3.0,-4.0,-2.0,-4.0,-5.0,0.5154564380645752
197,-47.0,-8.0,3.0,0.0,9368.0,3933.0,-11865.0,-4943.0,3.0,2.0,-11.0,-5.0,4.0,4.0,3.0,0.0,0.5200293064117432
198,-47.0,-8.0,3.0,0.0,9368.0,3933.0,-11865.0,-4943.0,2.0,9.0,-28.0,-3.0,6.0,2.0,-2.0,-1.0,0.5381920337677002
199,-1.0,-11.0,-9.0,0.0,9368.0,3933.0,-11865.0,-4943.0,2.0,9.0,-28.0,-3.0,6.0,2.0,-2.0,-1.0,0.5424387454986572
200,-1.0,-11.0,-9.0,0.0,9368.0,3933.0,-11865.0,-4943.0,4.0,12.0,-11.0,-5.0,-6.0,2.0,4.0,5.0,0.544851541519165
201,-1.0,-11.0,-9.0,0.0,9368.0,3933.0,-11865.0,-4943.0,-3.0,-4.0,-20.0,13.0,1.0,0.0,-1.0,-2.0,0.5503509044647217
202,23.0,13.0,7.0,0.0,9365.0,3939.0,-11866.0,-4941.0,-3.0,-4.0,-20.0,13.0,1.0,0.0,-1.0,-2.0,0.5585789680480957
203,23.0,13.0,7.0,0.0,9365.0,3939.0,-11866.0,-4941.0,1.0,3.0,18.0,2.0,-3.0,0.0,2.0,1.0,0.5614728927612305
204,23.0,13.0,7.0,0.0,9365.0,3939.0,-11866.0,-4941.0,2.0,4.0,3.0,6.0,1.0,-6.0,0.0,1.0,0.5734140872955322
205,-17.0,21.0,18.0,0.0,9365.0,3942.0,-11864.0,-4944.0,2.0,4.0,3.0,6.0,1.0,-6.0,0.0,1.0,0.5756630897521973
206,-17.0,21.0,18.0,0.0,9365.0,3942.0,-11864.0,-4944.0,3.0,14.0,33.0,2.0,1.0,-1.0,-1.0,0.0,0.5793521404266357
207,-17.0,21.0,18.0,0.0,9365.0,3942.0,-11864.0,-4944.0,-3.0,-10.0,-2.0,-2.0,-2.0,-2.0,-3.0,-1.0,0.5956876277923584
208,-68.0,20.0,20.0,0.0,9371.0,3934.0,-11859.0,-4951.0,-3.0,-10.0,-2.0,-2.0,-2.0,-2.0,-3.0,-1.0,0.5979690551757812
209,-68.0,20.0,20.0,0.0,9371.0,3934.0,-11859.0,-4951.0,1.0,-3.0,-37.0,-19.0,0.0,-2.0,-4.0,0.0,0.6029970645904541
210,-68.0,20.0,20.0,0.0,9371.0,3934.0,-11859.0,-4951.0,-4.0,-10.0,-23.0,4.0,-2.0,0.0,-1.0,-1.0,0.6100821495056152
211,-40.0,24.0,16.0,0.0,9379.0,3926.0,-11857.0,-4949.0,-4.0,-10.0,-23.0,4.0,-2.0,0.0,-1.0,-1.0,0.6181728839874268
212,-40.0,24.0,16.0,0.0,9379.0,3926.0,-11857.0,-4949.0,-3.0,-1.0,-5.0,-22.0,-4.0,-2.0,0.0,-3.0,0.6211304664611816
213,-40.0,24.0,16.0,0.0,9379.0,3926.0,-11857.0,-4949.0,2.0,2.0,-6.0,13.0,0.0,-5.0,-2.0,0.0,0.6335623264312744
214,37.0,16.0,-6.0,0.0,9380.0,3928.0,-11858.0,-4941.0,2.0,2.0,-6.0,13.0,0.0,-5.0,-2.0,0.0,0.635927677154541
215,37.0,16.0,-6.0,0.0,9380.0,3928.0,-11858.0,-4941.0,-5.0,-10.0,-16.0,13.0,-2.0,5.0,-1.0,-1.0,0.6398324966430664
216,37.0,16.0,-6.0,0.0,9380.0,3928.0,-11858.0,-4941.0,-2.0,6.0,42.0,-8.0,-4.0,3.0,-2.0,-3.0,0.6581721305847168
217,76.0,17.0,-14.0,0.0,9373.0,3943.0,-11862.0,-4933.0,-2.0,6.0,42.0,-8.0,-4.0,3.0,-2.0,-3.0,0.6628422737121582
218,76.0,17.0,-14.0,0.0,9373.0,3943.0,-11862.0,-4933.0,-2.0,-11.0,-34.0,-23.0,-15.0,-3.0,1.0,2.0,0.6667952537536621
219,76.0,17.0,-14.0,0.0,9373.0,3943.0,-11862.0,-4933.0,3.0,-1.0,-24.0,2.0,3.0,-2.0,1.0,0.0,0.6692731380462646
220,36.0,29.0,-1.0,0.0,9367.0,3956.0,-11863.0,-4932.0,3.0,-1.0,-24.0,2.0,3.0,-2.0,1.0,0.0,0.6784632205963135
221,36.0,29.0,-1.0,0.0,9367.0,3956.0,-11863.0,-4932.0,-2.0,-2.0,24.0,1.0,4.0,-4.0,-2.0,-4.0,0.6808881759643555
222,36.0,29.0,-1.0,0.0,9367.0,3956.0,-11863.0,-4932.0,-5.0,-10.0,-18.0,-20.0,-1.0,-4.0,-2.0,-5.0,0.6929762363433838
223,-58.0,32.0,8.0,0.0,9370.0,3955.0,-11857.0,-4940.0,-5.0,-10.0,-18.0,-20.0,-1.0,-4.0,-2.0,-5.0,0.695249080657959
224,-58.0,32.0,8.0,0.0,9370.0,3955.0,-11857.0,-4940.0,0.0,0.0,-6.0,7.0,3.0,0.0,-3.0,-2.0,0.7000536918640137
225,-58.0,32.0,8.0,0.0,9370.0,3955.0,-11857.0,-4940.0,1.0,10.0,-7.0,13.0,5.0,-2.0,-1.0,-2.0,0.7154090404510498
226,-69.0,31.0,31.0,0.0,9378.0,3947.0,-11852.0,-4945.0,1.0,10.0,-7.0,13.0,5.0,-2.0,-1.0,-2.0,0.7183618545532227
227,-69.0,31.0,31.0,0.0,9378.0,3947.0,-11852.0,-4945.0,4.0,19.0,6.0,-5.0,0.0,-4.0,1.0,0.0,0.7221744060516357
228,-69.0,31.0,31.0,0.0,9378.0,3947.0,-11852.0,-4945.0,-3.0,-17.0,-26.0,11.0,-3.0,-1.0,1.0,3.0,0.7297008037567139
229,-38.0,15.0,24.0,0.0,9383.0,3939.0,-11850.0,-4945.0,-3.0,-17.0,-26.0,11.0,-3.0,-1.0,1.0,3.0,0.7378737926483154
230,-38.0,15.0,24.0,0.0,9383.0,3939.0,-11850.0,-4945.0,-2.0,-4.0,25.0,12.0,0.0,3.0,-3.0,-2.0,0.7402768135070801
231,-38.0,15.0,24.0,0.0,9383.0,3939.0,-11850.0,-4945.0,2.0,8.0,11.0,-9.0,-16.0,-4.0,3.0,2.0,0.7537972927093506
232,-18.0,2.0,8.0,0.0,9384.0,3937.0,-11850.0,-4945.0,2.0,8.0,11.0,-9.0,-16.0,-4.0,3.0,2.0,0.758530855178833
233,-18.0,2.0,8.0,0.0,9384.0,3937.0,-11850.0,-4945.0,0.0,0.0,10.0,-4.0,-1.0,3.0,1.0,0.0,0.7632417678833008
234,-18.0,2.0,8.0,0.0,9384.0,3937.0,-11850.0,-4945.0,-6.0,2.0,53.0,-9.0,1.0,-1.0,-1.0,-2.0,0.7756540775299072
235,-27.0,10.0,3.0,0.0,9383.0,3937.0,-11850.0,-4948.0,-6.0,2.0,53.0,-9.0,1.0,-1.0,-1.0,-2.0,0.7780518531799316
236,-27.0,10.0,3.0,0.0,9383.0,3937.0,-11850.0,-4948.0,-1.0,-10.0,22.0,17.0,1.0,0.0,-2.0,-2.0,0.7824809551239014
237,-27.0,10.0,3.0,0.0,9383.0,3937.0,-11850.0,-4948.0,-2.0,-7.0,3.0,2.0,6.0,0.0,-2.0,-1.0,0.7901332378387451
238,-24.0,10.0,5.0,0.0,9381.0,3937.0,-11850.0,-4951.0,-2.0,-7.0,3.0,2.0,6.0,0.0,-2.0,-1.0,0.7978866100311279
239,-24.0,10.0,5.0,0.0,9381.0,3937.0,-11850.0,-4951.0,-3.0,-8.0,-4.0,5.0,-6.0,-9.0,-4.0,0.0,0.8002145290374756
240,-24.0,10.0,5.0,0.0,9381.0,3937.0,-11850.0,-4951.0,0.0,-2.0,-22.0,-11.0,-5.0,4.0,-9.0,-7.0,0.8141851425170898
241,-21.0,3.0,-5.0,0.0,9380.0,3937.0,-11849.0,-4954.0,0.0,-2.0,-22.0,-11.0,-5.0,4.0,-9.0,-7.0,0.819054365158081
242,-21.0,3.0,-5.0,0.0,9380.0,3937.0,-11849.0,-4954.0,0.0,5.0,19.0,-1.0,8.0,7.0,-1.0,-3.0,0.8238780498504639
243,-21.0,3.0,-5.0,0.0,9380.0,3937.0,-11849.0,-4954.0,4.0,10.0,23.0,-9.0,0.0,1.0,1.0,4.0,0.8354871273040771
244,-35.0,-7.0,-8.0,0.0,9380.0,3934.0,-11848.0,-4959.0,4.0,10.0,23.0,-9.0,0.0,1.0,1.0,4.0,0.837801456451416
245,-35.0,-7.0,-8.0,0.0,9380.0,3934.0,-11848.0,-4959.0,-3.0,5.0,15.0,1.0,-8.0,-18.0,1.0,0.0,0.8429884910583496
246,-35.0,-7.0,-8.0,0.0,9380.0,3934.0,-11848.0,-4959.0,-8.0,-14.0,-30.0,-17.0,1.0,-2.0,3.0,-1.0,0.8498742580413818
247,2.0,-15.0,-1.0,0.0,9380.0,3934.0,-11849.0,-4959.0,-8.0,-14.0,-30.0,-17.0,1.0,-2.0,3.0,-1.0,0.8576586246490479
248,2.0,-15.0,-1.0,0.0,9380.0,3934.0,-11849.0,-4959.0,4.0,-3.0,-24.0,27.0,14.0,3.0,1.0,0.0,0.8599846363067627
249,2.0,-15.0,-1.0,0.0,9380.0,3934.0,-11849.0,-4959.0,-1.0,-3.0,3.0,1.0,-4.0,-7.0,2.0,1.0,0.8734726905822754
250,13.0,-6.0,1.0,0.0,9379.0,3935.0,-11849.0,-4959.0,-1.0,-3.0,3.0,1.0,-4.0,-7.0,2.0,1.0,0.8760673999786377
251,13.0,-6.0,1.0,0.0,9379.0,3935.0,-11849.0,-4959.0,-3.0,-8.0,-7.0,-4.0,-13.0,-3.0,-10.0,-9.0,0.8797762393951416
252,13.0,-6.0,1.0,0.0,9379.0,3935.0,-11849.0,-4959.0,1.0,-1.0,-24.0,14.0,12.0,5.0,-2.0,0.0,0.8956120014190674
253,14.0,-11.0,-3.0,0.0,9379.0,3935.0,-11849.0,-4959.0,1.0,-1.0,-24.0,14.0,12.0,5.0,-2.0,0.0,0.8978967666625977
254,14.0,-11.0,-3.0,0.0,9379.0,3935.0,-11849.0,-4959.0,12.0,42.0,-6.0,-10.0,-1.0,-9.0,5.0,9.0,0.9027237892150879
255,14.0,-11.0,-3.0,0.0,9379.0,3935.0,-11849.0,-4959.0,-2.0,1.0,-4.0,-13.0,-7.0,3.0,-6.0,-6.0,0.910449743270874
256,17.0,-45.0,28.0,0.0,9374.0,3929.0,-11857.0,-4953.0,-2.0,1.0,-4.0,-13.0,-7.0,3.0,-6.0,-6.0,0.9181723594665527
257,17.0,-45.0,28.0,0.0,9374.0,3929.0,-11857.0,-4953.0,-3.0,-1.0,-15.0,-6.0,-22.0,4.0,1.0,3.0,0.9205231666564941
258,17.0,-45.0,28.0,0.0,9374.0,3929.0,-11857.0,-4953.0,3.0,18.0,57.0,-13.0,-16.0,3.0,-6.0,-4.0,0.9345066547393799
259,127.0,-68.0,44.0,0.0,9363.0,3931.0,-11874.0,-4933.0,3.0,18.0,57.0,-13.0,-16.0,3.0,-6.0,-4.0,0.9405548572540283
260,127.0,-68.0,44.0,0.0,9363.0,3931.0,-11874.0,-4933.0,0.0,-17.0,-58.0,1.0,-7.0,20.0,8.0,1.0,0.9459295272827148
261,127.0,-68.0,44.0,0.0,9363.0,3931.0,-11874.0,-4933.0,-3.0,-2.0,-29.0,-22.0,-3.0,-24.0,-5.0,-13.0,0.9560072422027588
262,218.0,-33.0,65.0,0.0,9353.0,3940.0,-11895.0,-4893.0,-3.0,-2.0,-29.0,-22.0,-3.0,-24.0,-5.0,-13.0,0.9584617614746094
263,218.0,-33.0,65.0,0.0,9353.0,3940.0,-11895.0,-4893.0,28.0,64.0,-35.0,-25.0,-4.0,0.0,7.0,11.0,0.9653952121734619
264,218.0,-33.0,65.0,0.0,9353.0,3940.0,-11895.0,-4893.0,6.0,18.0,49.0,-65.0,6.0,5.0,-1.0,4.0,0.970404863357544
265,287.0,28.0,148.0,0.0,9346.0,3954.0,-11919.0,-4838.0,6.0,18.0,49.0,-65.0,6.0,5.0,-1.0,4.0,0.9774510860443115
266,287.0,28.0,148.0,0.0,9346.0,3954.0,-11919.0,-4838.0,-3.0,1.0,114.0,2.0,44.0,-10.0,-2.0,-2.0,0.9854593276977539
267,287.0,28.0,148.0,0.0,9346.0,3954.0,-11919.0,-4838.0,-5.0,-25.0,-54.0,-22.0,-47.0,-2.0,0.0,-3.0,0.9929544925689697
268,-93.0,13.0,219.0,0.0,9366.0,3937.0,-11897.0,-4865.0,-5.0,-25.0,-54.0,-22.0,-47.0,-2.0,0.0,-3.0,0.995276927947998
269,-93.0,13.0,219.0,0.0,9366.0,3937.0,-11897.0,-4865.0,-30.0,-117.0,-26.0,-37.0,-22.0,-33.0,-18.0,-15.0,1.0002985000610352
270,-93.0,13.0,219.0,0.0,9366.0,3937.0,-11897.0,-4865.0,-19.0,-62.0,-93.0,-21.0,33.0,-13.0,4.0,1.0,1.0167951583862305
271,-508.0,308.0,315.0,0.0,9454.0,3890.0,-11811.0,-4944.0,-19.0,-62.0,-93.0,-21.0,33.0,-13.0,4.0,1.0,1.0207445621490479
272,-508.0,308.0,315.0,0.0,9454.0,3890.0,-11811.0,-4944.0,-18.0,-70.0,-66.0,32.0,4.0,8.0,3.0,-8.0,1.0253231525421143
273,-508.0,308.0,315.0,0.0,9454.0,3890.0,-11811.0,-4944.0,-2.0,-17.0,-22.0,80.0,11.0,1.0,8.0,0.0,1.03926682472229
274,-691.0,571.0,381.0,0.0,9550.0,3879.0,-11683.0,-5070.0,-2.0,-17.0,-22.0,80.0,11.0,1.0,8.0,0.0,1.043804407119751
275,-691.0,571.0,381.0,0.0,9550.0,3879.0,-11683.0,-5070.0,-17.0,-10.0,-20.0,1.0,-4.0,5.0,0.0,-7.0,1.0489161014556885
276,-691.0,571.0,381.0,0.0,9550.0,3879.0,-11683.0,-5070.0,9.0,22.0,22.0,0.0,3.0,1.0,-11.0,3.0,1.0530426502227783
277,-625.0,710.0,184.0,0.0,9699.0,3862.0,-11517.0,-5176.0,9.0,22.0,22.0,0.0,3.0,1.0,-11.0,3.0,1.0553245544433594
278,-625.0,710.0,184.0,0.0,9699.0,3862.0,-11517.0,-5176.0,3.0,7.0,24.0,15.0,-11.0,9.0,-21.0,0.0,1.0600676536560059
279,-625.0,710.0,184.0,0.0,9699.0,3862.0,-11517.0,-5176.0,0.0,-3.0,-29.0,43.0,25.0,7.0,-2.0,0.0,1.0754673480987549
280,111.0,1137.0,-542.0,0.0,9843.0,4043.0,-11288.0,-5272.0,0.0,-3.0,-29.0,43.0,25.0,7.0,-2.0,0.0,1.077754020690918
281,111.0,1137.0,-542.0,0.0,9843.0,4043.0,-11288.0,-5272.0,12.0,52.0,67.0,-36.0,4.0,4.0,2.0,9.0,1.082524299621582
282,111.0,1137.0,-542.0,0.0,9843.0,4043.0,-11288.0,-5272.0,-12.0,-14.0,20.0,26.0,-6.0,-2.0,0.0,0.0,1.099438190460205
283,610.0,1630.0,-1229.0,0.0,9943.0,4353.0,-11091.0,-5255.0,-12.0,-14.0,20.0,26.0,-6.0,-2.0,0.0,0.0,1.1018879413604736
284,610.0,1630.0,-1229.0,0.0,9943.0,4353.0,-11091.0,-5255.0,7.0,20.0,-3.0,22.0,-1.0,3.0,16.0,-14.0,1.1042606830596924
285,610.0,1630.0,-1229.0,0.0,9943.0,4353.0,-11091.0,-5255.0,0.0,14.0,54.0,9.0,11.0,2.0,9.0,1.0,1.113126516342163
286,472.0,1876.0,-2047.0,0.0,10026.0,4757.0,-10812.0,-5328.0,0.0,14.0,54.0,9.0,11.0,2.0,9.0,1.0,1.1154451370239258
287,472.0,1876.0,-2047.0,0.0,10026.0,4757.0,-10812.0,-5328.0,-11.0,-7.0,-10.0,-42.0,-1.0,-8.0,-4.0,-1.0,1.1201603412628174
288,472.0,1876.0,-2047.0,0.0,10026.0,4757.0,-10812.0,-5328.0,-11.0,0.0,-25.0,12.0,0.0,5.0,-3.0,2.0,1.135955572128296
289,203.0,1843.0,-3055.0,0.0,10048.0,5242.0,-10456.0,-5539.0,-11.0,0.0,-25.0,12.0,0.0,5.0,-3.0,2.0,1.1382367610931396
290,203.0,1843.0,-3055.0,0.0,10048.0,5242.0,-10456.0,-5539.0,16.0,17.0,-5.0,14.0,32.0,6.0,5.0,11.0,1.1426305770874023
291,203.0,1843.0,-3055.0,0.0,10048.0,5242.0,-10456.0,-5539.0,-5.0,-5.0,-1.0,12.0,-4.0,-1.0,-3.0,-3.0,1.1599526405334473
292,-54.0,1753.0,-4138.0,0.0,9989.0,5807.0,-10012.0,-5891.0,-5.0,-5.0,-1.0,12.0,-4.0,-1.0,-3.0,-3.0,1.1652929782867432
293,-54.0,1753.0,-4138.0,0.0,9989.0,5807.0,-10012.0,-5891.0,4.0,16.0,16.0,6.0,-30.0,-7.0,-5.0,-1.0,1.1708409786224365
294,-54.0,1753.0,-4138.0,0.0,9989.0,5807.0,-10012.0,-5891.0,5.0,-1.0,17.0,6.0,-6.0,-3.0,3.0,1.0,1.173358678817749
295,-198.0,1425.0,-5214.0,0.0,9805.0,6436.0,-9497.0,-6379.0,5.0,-1.0,17.0,6.0,-6.0,-3.0,3.0,1.0,1.1756181716918945
296,-198.0,1425.0,-5214.0,0.0,9805.0,6436.0,-9497.0,-6379.0,1.0,1.0,-21.0,1.0,18.0,5.0,1.0,-1.0,1.1794252395629883
297,-198.0,1425.0,-5214.0,0.0,9805.0,6436.0,-9497.0,-6379.0,4.0,8.0,-1.0,-17.0,0.0,9.0,2.0,1.0,1.19773530960083
298,-689.0,1013.0,-6119.0,0.0,9510.0,7050.0,-8890.0,-7017.0,4.0,8.0,-1.0,-17.0,0.0,9.0,2.0,1.0,1.2024586200714111
299,-689.0,1013.0,-6119.0,0.0,9510.0,7050.0,-8890.0,-7017.0,-5.0,-2.0,3.0,19.0,5.0,-4.0,-2.0,0.0,1.2065889835357666
300,-689.0,1013.0,-6119.0,0.0,9510.0,7050.0,-8890.0,-7017.0,9.0,14.0,36.0,-34.0,-1.0,3.0,-3.0,1.0,1.2193403244018555
301,-1539.0,738.0,-6389.0,0.0,9191.0,7537.0,-8226.0,-7712.0,9.0,14.0,36.0,-34.0,-1.0,3.0,-3.0,1.0,1.2244057655334473
302,-1539.0,738.0,-6389.0,0.0,9191.0,7537.0,-8226.0,-7712.0,-3.0,1.0,-4.0,17.0,-7.0,-3.0,-2.0,-2.0,1.229517936706543
303,-1539.0,738.0,-6389.0,0.0,9191.0,7537.0,-8226.0,-7712.0,2.0,-2.0,-18.0,-10.0,-1.0,-1.0,-1.0,-4.0,1.2330961227416992
304,-2201.0,363.0,-6334.0,0.0,8859.0,7883.0,-7508.0,-8453.0,2.0,-2.0,-18.0,-10.0,-1.0,-1.0,-1.0,-4.0,1.2361433506011963
305,-2201.0,363.0,-6334.0,0.0,8859.0,7883.0,-7508.0,-8453.0,-1.0,6.0,0.0,-26.0,-3.0,-1.0,-3.0,-3.0,1.241072416305542
306,-2201.0,363.0,-6334.0,0.0,8859.0,7883.0,-7508.0,-8453.0,0.0,0.0,-8.0,-18.0,-17.0,-6.0,-2.0,-2.0,1.2579014301300049
307,-2072.0,114.0,-6206.0,0.0,8465.0,8171.0,-6795.0,-9156.0,0.0,0.0,-8.0,-18.0,-17.0,-6.0,-2.0,-2.0,1.2623326778411865
308,-2072.0,114.0,-6206.0,0.0,8465.0,8171.0,-6795.0,-9156.0,-4.0,-2.0,-17.0,-65.0,-4.0,1.0,0.0,0.0,1.265897512435913
309,-2072.0,114.0,-6206.0,0.0,8465.0,8171.0,-6795.0,-9156.0,-3.0,-5.0,-27.0,29.0,-5.0,1.0,0.0,-1.0,1.2793004512786865
310,-1814.0,71.0,-6036.0,0.0,8027.0,8427.0,-6094.0,-9791.0,-3.0,-5.0,-27.0,29.0,-5.0,1.0,0.0,-1.0,1.28367280960083
311,-1814.0,71.0,-6036.0,0.0,8027.0,8427.0,-6094.0,-9791.0,-6.0,-29.0,-62.0,29.0,11.0,7.0,0.0,0.0,1.2884132862091064
312,-1814.0,71.0,-6036.0,0.0,8027.0,8427.0,-6094.0,-9791.0,-1.0,-3.0,-24.0,-1.0,-12.0,1.0,-5.0,1.0,1.2929024696350098
313,-1550.0,4.0,-5741.0,0.0,7557.0,8647.0,-5420.0,-10353.0,-1.0,-3.0,-24.0,-1.0,-12.0,1.0,-5.0,1.0,1.2951931953430176
314,-1550.0,4.0,-5741.0,0.0,7557.0,8647.0,-5420.0,-10353.0,-10.0,-11.0,46.0,19.0,33.0,-8.0,-6.0,-6.0,1.300142526626587
315,-1550.0,4.0,-5741.0,0.0,7557.0,8647.0,-5420.0,-10353.0,5.0,10.0,1.0,16.0,-19.0,0.0,0.0,2.0,1.318225383758545
316,-1227.0,-69.0,-5119.0,0.0,7092.0,8820.0,-4822.0,-10821.0,5.0,10.0,1.0,16.0,-19.0,0.0,0.0,2.0,1.3229429721832275
317,-1227.0,-69.0,-5119.0,0.0,7092.0,8820.0,-4822.0,-10821.0,-7.0,-5.0,15.0,13.0,-25.0,-1.0,-3.0,-9.0,1.3254778385162354
318,-1227.0,-69.0,-5119.0,0.0,7092.0,8820.0,-4822.0,-10821.0,14.0,1.0,32.0,6.0,44.0,5.0,6.0,4.0,1.3383841514587402
319,-1111.0,-221.0,-4443.0,0.0,6664.0,8928.0,-4294.0,-11219.0,14.0,1.0,32.0,6.0,44.0,5.0,6.0,4.0,1.3406124114990234
320,-1111.0,-221.0,-4443.0,0.0,6664.0,8928.0,-4294.0,-11219.0,16.0,37.0,23.0,1.0,21.0,20.0,5.0,7.0,1.3450226783752441
321,-1111.0,-221.0,-4443.0,0.0,6664.0,8928.0,-4294.0,-11219.0,-19.0,-6.0,-1.0,-7.0,12.0,8.0,-4.0,-8.0,1.3534672260284424
322,-1136.0,-82.0,-4194.0,0.0,6260.0,9019.0,-3764.0,-11565.0,-19.0,-6.0,-1.0,-7.0,12.0,8.0,-4.0,-8.0,1.3557729721069336
323,-1136.0,-82.0,-4194.0,0.0,6260.0,9019.0,-3764.0,-11565.0,1.0,1.0,-21.0,-2.0,-20.0,-6.0,-1.0,-2.0,1.3598768711090088
324,-1136.0,-82.0,-4194.0,0.0,6260.0,9019.0,-3764.0,-11565.0,2.0,-1.0,31.0,14.0,27.0,-13.0,5.0,7.0,1.3754651546478271
325,-843.0,25.0,-3859.0,0.0,5854.0,9117.0,-3280.0,-11845.0,2.0,-1.0,31.0,14.0,27.0,-13.0,5.0,7.0,1.377739429473877
326,-843.0,25.0,-3859.0,0.0,5854.0,9117.0,-3280.0,-11845.0,-3.0,-8.0,44.0,13.0,-9.0,-15.0,4.0,18.0,1.3829402923583984
327,-843.0,25.0,-3859.0,0.0,5854.0,9117.0,-3280.0,-11845.0,-4.0,0.0,-8.0,1.0,-21.0,-14.0,-1.0,-14.0,1.3999426364898682
328,-446.0,103.0,-3002.0,0.0,5501.0,9217.0,-2910.0,-12031.0,-4.0,0.0,-8.0,1.0,-21.0,-14.0,-1.0,-14.0,1.4038615226745605
329,-446.0,103.0,-3002.0,0.0,5501.0,9217.0,-2910.0,-12031.0,7.0,-22.0,-38.0,-3.0,14.0,65.0,50.0,50.0,1.4079089164733887
330,-446.0,103.0,-3002.0,0.0,5501.0,9217.0,-2910.0,-12031.0,-10.0,33.0,16.0,6.0,-96.0,-92.0,-58.0,-75.0,1.4136059284210205
331,20.0,277.0,-1821.0,0.0,5258.0,9327.0,-2709.0,-12102.0,-10.0,33.0,16.0,6.0,-96.0,-92.0,-58.0,-75.0,1.4162423610687256
332,20.0,277.0,-1821.0,0.0,5258.0,9327.0,-2709.0,-12102.0,-5.0,4.0,26.0,-4.0,-19.0,-31.0,-18.0,-11.0,1.4194929599761963
333,20.0,277.0,-1821.0,0.0,5258.0,9327.0,-2709.0,-12102.0,24.0,50.0,-11.0,7.0,101.0,44.0,59.0,81.0,1.4355552196502686
334,-77.0,-14.0,-1242.0,0.0,5042.0,9402.0,-2507.0,-12179.0,24.0,50.0,-11.0,7.0,101.0,44.0,59.0,81.0,1.4386098384857178
335,-77.0,-14.0,-1242.0,0.0,5042.0,9402.0,-2507.0,-12179.0,-4.0,-58.0,-10.0,-9.0,74.0,-40.0,-45.0,-39.0,1.4441266059875488
336,-77.0,-14.0,-1242.0,0.0,5042.0,9402.0,-2507.0,-12179.0,-46.0,-54.0,-20.0,-1.0,43.0,81.0,-109.0,-103.0,1.4594388008117676
337,730.0,-201.0,-377.0,0.0,4912.0,9425.0,-2577.0,-12200.0,-46.0,-54.0,-20.0,-1.0,43.0,81.0,-109.0,-103.0,1.4639546871185303
338,730.0,-201.0,-377.0,0.0,4912.0,9425.0,-2577.0,-12200.0,-72.0,-2.0,-56.0,-20.0,-18.0,-72.0,-70.0,-59.0,1.4682931900024414
339,730.0,-201.0,-377.0,0.0,4912.0,9425.0,-2577.0,-12200.0,4.0,-118.0,-86.0,-67.0,-85.0,0.0,-55.0,-6.0,1.4731576442718506
340,1786.0,283.0,1661.0,0.0,4955.0,9508.0,-2969.0,-12027.0,4.0,-118.0,-86.0,-67.0,-85.0,0.0,-55.0,-6.0,1.4754321575164795
341,1786.0,283.0,1661.0,0.0,4955.0,9508.0,-2969.0,-12027.0,110.0,90.0,70.0,-93.0,-85.0,-89.0,-37.0,-31.0,1.4875249862670898
342,1786.0,283.0,1661.0,0.0,4955.0,9508.0,-2969.0,-12027.0,90.0,114.0,-17.0,5.0,-98.0,-91.0,33.0,-69.0,1.4954864978790283
343,1650.0,-340.0,3172.0,0.0,5185.0,9443.0,-3530.0,-11829.0,90.0,114.0,-17.0,5.0,-98.0,-91.0,33.0,-69.0,1.4978618621826172
344,1650.0,-340.0,3172.0,0.0,5185.0,9443.0,-3530.0,-11829.0,-72.0,-72.0,-11.0,22.0,74.0,42.0,52.0,-65.0,1.5028653144836426
345,1650.0,-340.0,3172.0,0.0,5185.0,9443.0,-3530.0,-11829.0,56.0,-38.0,-7.0,-50.0,-29.0,-45.0,60.0,127.0,1.5375075340270996
346,1750.0,-377.0,4929.0,0.0,5618.0,9289.0,-4278.0,-11502.0,56.0,-38.0,-7.0,-50.0,-29.0,-45.0,60.0,127.0,1.5424458980560303
347,1750.0,-377.0,4929.0,0.0,5618.0,9289.0,-4278.0,-11502.0,104.0,64.0,2.0,71.0,0.0,51.0,1.0,-3.0,1.545285701751709
348,1750.0,-377.0,4929.0,0.0,5618.0,9289.0,-4278.0,-11502.0,-128.0,-128.0,-45.0,-18.0,2.0,44.0,-83.0,-128.0,1.5475482940673828
349,1448.0,-1029.0,6244.0,0.0,6191.0,8935.0,-5143.0,-11128.0,-128.0,-128.0,-45.0,-18.0,2.0,44.0,-83.0,-128.0,1.5498085021972656
350,1448.0,-1029.0,6244.0,0.0,6191.0,8935.0,-5143.0,-11128.0,66.0,87.0,48.0,14.0,-9.0,63.0,87.0,127.0,1.5522029399871826
351,1448.0,-1029.0,6244.0,0.0,6191.0,8935.0,-5143.0,-11128.0,47.0,-38.0,-8.0,113.0,98.0,-72.0,49.0,95.0,1.5550620555877686
352,1776.0,-1326.0,6945.0,0.0,6765.0,8477.0,-6105.0,-10655.0,47.0,-38.0,-8.0,113.0,98.0,-72.0,49.0,95.0,1.560990333557129
353,1776.0,-1326.0,6945.0,0.0,6765.0,8477.0,-6105.0,-10655.0,-52.0,43.0,24.0,22.0,-55.0,-27.0,-69.0,-35.0,1.5633180141448975
354,1776.0,-1326.0,6945.0,0.0,6765.0,8477.0,-6105.0,-10655.0,-26.0,45.0,27.0,23.0,-23.0,23.0,-19.0,62.0,1.5780882835388184
355,2754.0,-1627.0,7248.0,0.0,7217.0,7979.0,-7189.0,-10050.0,-26.0,45.0,27.0,23.0,-23.0,23.0,-19.0,62.0,1.5803570747375488
356,2754.0,-1627.0,7248.0,0.0,7217.0,7979.0,-7189.0,-10050.0,-58.0,-52.0,-16.0,-10.0,35.0,50.0,51.0,15.0,1.587200403213501
357,2754.0,-1627.0,7248.0,0.0,7217.0,7979.0,-7189.0,-10050.0,-5.0,3.0,127.0,70.0,2.0,94.0,31.0,15.0,1.5897679328918457
358,3890.0,-1484.0,6892.0,0.0,7489.0,7553.0,-8300.0,-9295.0,-5.0,3.0,127.0,70.0,2.0,94.0,31.0,15.0,1.5920414924621582
359,3890.0,-1484.0,6892.0,0.0,7489.0,7553.0,-8300.0,-9295.0,-33.0,-13.0,-87.0,70.0,-19.0,-18.0,3.0,-91.0,1.5998802185058594
360,3890.0,-1484.0,6892.0,0.0,7489.0,7553.0,-8300.0,-9295.0,29.0,1.0,19.0,-26.0,126.0,60.0,127.0,17.0,1.6081254482269287
361,4377.0,-1232.0,6461.0,0.0,7644.0,7175.0,-9343.0,-8441.0,29.0,1.0,19.0,-26.0,126.0,60.0,127.0,17.0,1.616274356842041
362,4377.0,-1232.0,6461.0,0.0,7644.0,7175.0,-9343.0,-8441.0,-46.0,-47.0,-55.0,40.0,-95.0,-109.0,-41.0,16.0,1.6228866577148438
363,4377.0,-1232.0,6461.0,0.0,7644.0,7175.0,-9343.0,-8441.0,-1.0,3.0,-34.0,24.0,77.0,28.0,40.0,29.0,1.6309232711791992
364,3863.0,-532.0,4287.0,0.0,7667.0,6997.0,-10058.0,-7716.0,-1.0,3.0,-34.0,24.0,77.0,28.0,40.0,29.0,1.6332387924194336
365,3863.0,-532.0,4287.0,0.0,7667.0,6997.0,-10058.0,-7716.0,20.0,49.0,-15.0,-65.0,68.0,25.0,16.0,26.0,1.6453192234039307
366,3863.0,-532.0,4287.0,0.0,7667.0,6997.0,-10058.0,-7716.0,10.0,54.0,89.0,49.0,34.0,47.0,-8.0,-16.0,1.6532800197601318
367,2675.0,446.0,1256.0,0.0,7613.0,7117.0,-10336.0,-7280.0,10.0,54.0,89.0,49.0,34.0,47.0,-8.0,-16.0,1.655625581741333
368,2675.0,446.0,1256.0,0.0,7613.0,7117.0,-10336.0,-7280.0,10.0,54.0,89.0,49.0,34.0,47.0,-8.0,-16.0,1.6594152450561523
369,2675.0,446.0,1256.0,0.0,7613.0,7117.0,-10336.0,-7280.0,-11.0,-128.0,-98.0,-8.0,-9.0,103.0,113.0,52.0,1.6758646965026855
370,2675.0,446.0,1256.0,0.0,7613.0,7117.0,-10336.0,-7280.0,57.0,74.0,-4.0,-22.0,32.0,74.0,77.0,13.0,1.6781787872314453
371,-904.0,-784.0,5808.0,0.0,8039.0,6311.0,-10758.0,-6945.0,57.0,74.0,-4.0,-22.0,32.0,74.0,77.0,13.0,1.6805071830749512
372,-904.0,-784.0,5808.0,0.0,8039.0,6311.0,-10758.0,-6945.0,-20.0,49.0,71.0,-72.0,-41.0,-40.0,-2.0,10.0,1.6830933094024658
373,-904.0,-784.0,5808.0,0.0,8039.0,6311.0,-10758.0,-6945.0,-61.0,25.0,-93.0,32.0,-128.0,-67.0,-59.0,-18.0,1.6987264156341553
374,-2488.0,-1936.0,3214.0,0.0,8217.0,5562.0,-10948.0,-7080.0,-61.0,25.0,-93.0,32.0,-128.0,-67.0,-59.0,-18.0,1.7014846801757812
375,-2488.0,-1936.0,3214.0,0.0,8217.0,5562.0,-10948.0,-7080.0,16.0,59.0,68.0,87.0,98.0,-2.0,-61.0,-82.0,1.7043099403381348
376,-2488.0,-1936.0,3214.0,0.0,8217.0,5562.0,-10948.0,-7080.0,33.0,54.0,-26.0,64.0,42.0,-14.0,-36.0,24.0,1.712460994720459
377,-1346.0,-389.0,3425.0,0.0,8510.0,4999.0,-11078.0,-6952.0,33.0,54.0,-26.0,64.0,42.0,-14.0,-36.0,24.0,1.7208847999572754
378,-1346.0,-389.0,3425.0,0.0,8510.0,4999.0,-11078.0,-6952.0,-1.0,-37.0,-26.0,-29.0,-26.0,-17.0,58.0,23.0,1.7232422828674316
379,-1346.0,-389.0,3425.0,0.0,8510.0,4999.0,-11078.0,-6952.0,-6.0,-23.0,-6.0,-42.0,-21.0,-39.0,4.0,-18.0,1.7361538410186768
380,1733.0,-257.0,5075.0,0.0,8752.0,4524.0,-11484.0,-6283.0,-6.0,-23.0,-6.0,-42.0,-21.0,-39.0,4.0,-18.0,1.7385010719299316
381,1733.0,-257.0,5075.0,0.0,8752.0,4524.0,-11484.0,-6283.0,-23.0,-10.0,96.0,56.0,53.0,56.0,-15.0,65.0,1.7425198554992676
382,1733.0,-257.0,5075.0,0.0,8752.0,4524.0,-11484.0,-6283.0,39.0,-38.0,7.0,-43.0,-51.0,-29.0,6.0,8.0,1.7581982612609863
383,1078.0,-344.0,2544.0,0.0,8821.0,4292.0,-11707.0,-5929.0,39.0,-38.0,7.0,-43.0,-51.0,-29.0,6.0,8.0,1.7604827880859375
384,1078.0,-344.0,2544.0,0.0,8821.0,4292.0,-11707.0,-5929.0,34.0,-50.0,49.0,-43.0,-4.0,5.0,80.0,108.0,1.7651641368865967
385,1078.0,-344.0,2544.0,0.0,8821.0,4292.0,-11707.0,-5929.0,-37.0,-45.0,-82.0,18.0,-2.0,-8.0,-22.0,1.0,1.7812256813049316
386,430.0,-25.0,2277.0,0.0,8955.0,4030.0,-11835.0,-5652.0,-37.0,-45.0,-82.0,18.0,-2.0,-8.0,-22.0,1.0,1.7834713459014893
387,430.0,-25.0,2277.0,0.0,8955.0,4030.0,-11835.0,-5652.0,-40.0,-75.0,-74.0,-19.0,8.0,-19.0,-1.0,-20.0,1.7859339714050293
388,430.0,-25.0,2277.0,0.0,8955.0,4030.0,-11835.0,-5652.0,-9.0,39.0,22.0,-100.0,-76.0,22.0,-18.0,-59.0,1.7960882186889648
389,816.0,190.0,2247.0,0.0,9074.0,3845.0,-11951.0,-5338.0,-9.0,39.0,22.0,-100.0,-76.0,22.0,-18.0,-59.0,1.7987759113311768
390,816.0,190.0,2247.0,0.0,9074.0,3845.0,-11951.0,-5338.0,68.0,44.0,-38.0,-74.0,-107.0,-56.0,-74.0,50.0,1.8103251457214355
391,816.0,190.0,2247.0,0.0,9074.0,3845.0,-11951.0,-5338.0,-18.0,31.0,-47.0,-43.0,-6.0,-43.0,-82.0,-12.0,1.8180816173553467
392,886.0,287.0,1190.0,0.0,9122.0,3879.0,-11956.0,-5220.0,-18.0,31.0,-47.0,-43.0,-6.0,-43.0,-82.0,-12.0,1.8203659057617188
393,886.0,287.0,1190.0,0.0,9122.0,3879.0,-11956.0,-5220.0,22.0,80.0,0.0,40.0,13.0,-2.0,-14.0,-31.0,1.8246314525604248
394,886.0,287.0,1190.0,0.0,9122.0,3879.0,-11956.0,-5220.0,-47.0,-53.0,-27.0,-70.0,39.0,7.0,15.0,4.0,1.8322772979736328
395,547.0,247.0,117.0,0.0,9131.0,4002.0,-11898.0,-5244.0,-47.0,-53.0,-27.0,-70.0,39.0,7.0,15.0,4.0,1.8405230045318604
396,547.0,247.0,117.0,0.0,9131.0,4002.0,-11898.0,-5244.0,9.0,-30.0,-93.0,25.0,28.0,33.0,16.0,8.0,1.8429315090179443
397,547.0,247.0,117.0,0.0,9131.0,4002.0,-11898.0,-5244.0,-28.0,-64.0,-50.0,35.0,33.0,-10.0,13.0,-21.0,1.8556957244873047
398,348.0,132.0,-465.0,0.0,9023.0,4202.0,-11876.0,-5322.0,-28.0,-64.0,-50.0,35.0,33.0,-10.0,13.0,-21.0,1.8584916591644287
399,348.0,132.0,-465.0,0.0,9023.0,4202.0,-11876.0,-5322.0,3.0,-25.0,-35.0,-10.0,4.0,8.0,-19.0,-3.0,1.862320899963379
400,348.0,132.0,-465.0,0.0,9023.0,4202.0,-11876.0,-5322.0,20.0,22.0,68.0,63.0,-11.0,-67.0,-16.0,12.0,1.8780481815338135
401,-103.0,176.0,-650.0,0.0,8923.0,4377.0,-11829.0,-5453.0,20.0,22.0,68.0,63.0,-11.0,-67.0,-16.0,12.0,1.8803064823150635
402,-103.0,176.0,-650.0,0.0,8923.0,4377.0,-11829.0,-5453.0,-12.0,-21.0,31.0,59.0,40.0,40.0,33.0,-43.0,1.8851912021636963
403,-103.0,176.0,-650.0,0.0,8923.0,4377.0,-11829.0,-5453.0,5.0,14.0,47.0,-16.0,20.0,32.0,-57.0,-10.0,1.8930275440216064
404,-638.0,45.0,-651.0,0.0,8907.0,4415.0,-11756.0,-5605.0,5.0,14.0,47.0,-16.0,20.0,32.0,-57.0,-10.0,1.9005029201507568
405,-638.0,45.0,-651.0,0.0,8907.0,4415.0,-11756.0,-5605.0,-68.0,-34.0,13.0,-13.0,-7.0,-15.0,-32.0,-13.0,1.902872085571289
406,-638.0,45.0,-651.0,0.0,8907.0,4415.0,-11756.0,-5605.0,-3.0,-83.0,-87.0,22.0,-100.0,-11.0,40.0,27.0,1.9156017303466797
407,-498.0,5.0,-936.0,0.0,8914.0,4426.0,-11704.0,-5694.0,-3.0,-83.0,-87.0,22.0,-100.0,-11.0,40.0,27.0,1.917954444885254
408,-498.0,5.0,-936.0,0.0,8914.0,4426.0,-11704.0,-5694.0,-31.0,-16.0,36.0,-73.0,-27.0,18.0,3.0,-23.0,1.9230310916900635
409,-498.0,5.0,-936.0,0.0,8914.0,4426.0,-11704.0,-5694.0,0.0,-9.0,21.0,24.0,7.0,15.0,-10.0,-23.0,1.939354658126831
410,137.0,43.0,-892.0,0.0,8868.0,4526.0,-11690.0,-5715.0,0.0,-9.0,21.0,24.0,7.0,15.0,-10.0,-23.0,1.9438691139221191
411,137.0,43.0,-892.0,0.0,8868.0,4526.0,-11690.0,-5715.0,4.0,0.0,-9.0,20.0,-59.0,-10.0,-38.0,-22.0,1.9472925662994385
412,137.0,43.0,-892.0,0.0,8868.0,4526.0,-11690.0,-5715.0,7.0,11.0,-6.0,38.0,12.0,5.0,15.0,9.0,1.9529228210449219
413,294.0,146.0,-811.0,0.0,8812.0,4666.0,-11668.0,-5733.0,7.0,11.0,-6.0,38.0,12.0,5.0,15.0,9.0,1.969362735748291
414,294.0,146.0,-811.0,0.0,8812.0,4666.0,-11668.0,-5733.0,-7.0,25.0,34.0,-25.0,-67.0,-24.0,-12.0,-59.0,1.9779927730560303
415,294.0,146.0,-811.0,0.0,8812.0,4666.0,-11668.0,-5733.0,-9.0,-26.0,-37.0,23.0,29.0,-37.0,14.0,4.0,1.9823038578033447
416,-114.0,199.0,-659.0,0.0,8817.0,4728.0,-11619.0,-5775.0,-9.0,-26.0,-37.0,23.0,29.0,-37.0,14.0,4.0,1.985088586807251
417,-114.0,199.0,-659.0,0.0,8817.0,4728.0,-11619.0,-5775.0,17.0,-13.0,-47.0,6.0,10.0,1.0,3.0,21.0,1.9876422882080078
418,-114.0,199.0,-659.0,0.0,8817.0,4728.0,-11619.0,-5775.0,10.0,-6.0,-4.0,-90.0,-10.0,22.0,24.0,22.0,1.9981663227081299
419,16.0,188.0,-624.0,0.0,8837.0,4776.0,-11580.0,-5783.0,10.0,-6.0,-4.0,-90.0,-10.0,22.0,24.0,22.0,2.000434398651123
420,16.0,188.0,-624.0,0.0,8837.0,4776.0,-11580.0,-5783.0,12.0,5.0,24.0,41.0,76.0,12.0,27.0,14.0,2.0053412914276123
421,16.0,188.0,-624.0,0.0,8837.0,4776.0,-11580.0,-5783.0,3.0,52.0,108.0,-16.0,16.0,23.0,25.0,8.0,2.0128519535064697
422,336.0,265.0,-628.0,0.0,8832.0,4885.0,-11542.0,-5774.0,3.0,52.0,108.0,-16.0,16.0,23.0,25.0,8.0,2.0207133293151855
423,336.0,265.0,-628.0,0.0,8832.0,4885.0,-11542.0,-5774.0,1.0,-10.0,-19.0,14.0,-13.0,-12.0,-2.0,6.0,2.0230491161346436
424,336.0,265.0,-628.0,0.0,8832.0,4885.0,-11542.0,-5774.0,10.0,19.0,19.0,50.0,34.0,17.0,5.0,-3.0,2.0354599952697754
425,129.0,255.0,-568.0,0.0,8819.0,4991.0,-11490.0,-5808.0,10.0,19.0,19.0,50.0,34.0,17.0,5.0,-3.0,2.037714719772339
426,129.0,255.0,-568.0,0.0,8819.0,4991.0,-11490.0,-5808.0,9.0,13.0,36.0,60.0,3.0,15.0,13.0,5.0,2.04258394241333
427,129.0,255.0,-568.0,0.0,8819.0,4991.0,-11490.0,-5808.0,-11.0,0.0,-39.0,-26.0,17.0,15.0,0.0,-6.0,2.0579886436462402
428,-275.0,193.0,-489.0,0.0,8829.0,5032.0,-11434.0,-5868.0,-11.0,0.0,-39.0,-26.0,17.0,15.0,0.0,-6.0,2.0602304935455322
429,-275.0,193.0,-489.0,0.0,8829.0,5032.0,-11434.0,-5868.0,-8.0,-16.0,-8.0,-47.0,-19.0,-12.0,-24.0,-14.0,2.0653560161590576
430,-275.0,193.0,-489.0,0.0,8829.0,5032.0,-11434.0,-5868.0,5.0,2.0,-63.0,4.0,-16.0,-1.0,12.0,19.0,2.081791400909424
431,-256.0,126.0,-478.0,0.0,8835.0,5056.0,-11398.0,-5908.0,5.0,2.0,-63.0,4.0,-16.0,-1.0,12.0,19.0,2.084088087081909
432,-256.0,126.0,-478.0,0.0,8835.0,5056.0,-11398.0,-5908.0,2.0,-12.0,15.0,3.0,39.0,21.0,-2.0,-20.0,2.086430072784424
433,-256.0,126.0,-478.0,0.0,8835.0,5056.0,-11398.0,-5908.0,-10.0,-8.0,-8.0,-9.0,-30.0,-1.0,20.0,4.0,2.0954816341400146
434,47.0,150.0,-461.0,0.0,8818.0,5120.0,-11377.0,-5918.0,-10.0,-8.0,-8.0,-9.0,-30.0,-1.0,20.0,4.0,2.0977790355682373
435,47.0,150.0,-461.0,0.0,8818.0,5120.0,-11377.0,-5918.0,0.0,2.0,-29.0,-13.0,5.0,-2.0,4.0,9.0,2.1026084423065186
436,47.0,150.0,-461.0,0.0,8818.0,5120.0,-11377.0,-5918.0,-1.0,-20.0,-33.0,8.0,6.0,2.0,-10.0,-2.0,2.118089199066162
437,1.0,177.0,-351.0,0.0,8808.0,5179.0,-11351.0,-5933.0,-1.0,-20.0,-33.0,8.0,6.0,2.0,-10.0,-2.0,2.120380163192749
438,1.0,177.0,-351.0,0.0,8808.0,5179.0,-11351.0,-5933.0,4.0,-13.0,-39.0,-32.0,-14.0,-3.0,2.0,3.0,2.1250267028808594
439,1.0,177.0,-351.0,0.0,8808.0,5179.0,-11351.0,-5933.0,-16.0,-37.0,-4.0,-12.0,-10.0,-28.0,-15.0,1.0,2.1414473056793213
440,-91.0,145.0,-208.0,0.0,8814.0,5204.0,-11328.0,-5947.0,-16.0,-37.0,-4.0,-12.0,-10.0,-28.0,-15.0,1.0,2.144085645675659
441,-91.0,145.0,-208.0,0.0,8814.0,5204.0,-11328.0,-5947.0,17.0,33.0,4.0,36.0,27.0,1.0,1.0,-1.0,2.146519184112549
442,-91.0,145.0,-208.0,0.0,8814.0,5204.0,-11328.0,-5947.0,1.0,-2.0,25.0,4.0,25.0,4.0,16.0,27.0,2.155573844909668
443,-109.0,120.0,-172.0,0.0,8822.0,5219.0,-11308.0,-5959.0,1.0,-2.0,25.0,4.0,25.0,4.0,16.0,27.0,2.1578209400177
444,-109.0,120.0,-172.0,0.0,8822.0,5219.0,-11308.0,-5959.0,-1.0,14.0,22.0,-3.0,-7.0,0.0,-7.0,-5.0,2.1626765727996826
445,-109.0,120.0,-172.0,0.0,8822.0,5219.0,-11308.0,-5959.0,2.0,11.0,-23.0,-19.0,-89.0,-35.0,-15.0,1.0,2.178377866744995
446,66.0,121.0,-177.0,0.0,8818.0,5251.0,-11302.0,-5947.0,2.0,11.0,-23.0,-19.0,-89.0,-35.0,-15.0,1.0,2.180623769760132
447,66.0,121.0,-177.0,0.0,8818.0,5251.0,-11302.0,-5947.0,-2.0,0.0,-38.0,-48.0,-18.0,-6.0,-4.0,8.0,2.1855361461639404
448,66.0,121.0,-177.0,0.0,8818.0,5251.0,-11302.0,-5947.0,5.0,36.0,9.0,0.0,9.0,13.0,5.0,-5.0,2.2013657093048096
449,162.0,105.0,-102.0,0.0,8806.0,5292.0,-11303.0,-5927.0,5.0,36.0,9.0,0.0,9.0,13.0,5.0,-5.0,2.2036373615264893
450,162.0,105.0,-102.0,0.0,8806.0,5292.0,-11303.0,-5927.0,-5.0,-18.0,18.0,57.0,16.0,-27.0,-11.0,-10.0,2.206329345703125
451,162.0,105.0,-102.0,0.0,8806.0,5292.0,-11303.0,-5927.0,-3.0,-10.0,4.0,21.0,-6.0,15.0,-10.0,-23.0,2.2157347202301025
452,87.0,126.0,-8.0,0.0,8805.0,5319.0,-11297.0,-5915.0,-3.0,-10.0,4.0,21.0,-6.0,15.0,-10.0,-23.0,2.2180325984954834
453,87.0,126.0,-8.0,0.0,8805.0,5319.0,-11297.0,-5915.0,-4.0,-11.0,-24.0,1.0,-4.0,-15.0,-5.0,6.0,2.222565174102783
454,87.0,126.0,-8.0,0.0,8805.0,5319.0,-11297.0,-5915.0,17.0,31.0,30.0,-24.0,8.0,-2.0,11.0,13.0,2.2398836612701416
455,-67.0,78.0,-69.0,0.0,8810.0,5331.0,-11282.0,-5927.0,17.0,31.0,30.0,-24.0,8.0,-2.0,11.0,13.0,2.2439563274383545
456,-67.0,78.0,-69.0,0.0,8810.0,5331.0,-11282.0,-5927.0,0.0,-4.0,17.0,-21.0,-18.0,10.0,30.0,12.0,2.24802303314209
457,-67.0,78.0,-69.0,0.0,8810.0,5331.0,-11282.0,-5927.0,-3.0,-3.0,15.0,17.0,13.0,-11.0,-11.0,-24.0,2.2623980045318604
458,15.0,39.0,-153.0,0.0,8807.0,5348.0,-11274.0,-5930.0,-3.0,-3.0,15.0,17.0,13.0,-11.0,-11.0,-24.0,2.26719331741333
459,15.0,39.0,-153.0,0.0,8807.0,5348.0,-11274.0,-5930.0,3.0,5.0,-2.0,-16.0,-20.0,0.0,4.0,7.0,2.2729880809783936
460,15.0,39.0,-153.0,0.0,8807.0,5348.0,-11274.0,-5930.0,-6.0,-15.0,-8.0,1.0,5.0,-10.0,-1.0,2.0,2.276064157485962
461,121.0,26.0,-157.0,0.0,8792.0,5380.0,-11273.0,-5926.0,-6.0,-15.0,-8.0,1.0,5.0,-10.0,-1.0,2.0,2.278329372406006
462,121.0,26.0,-157.0,0.0,8792.0,5380.0,-11273.0,-5926.0,19.0,31.0,-11.0,9.0,-4.0,9.0,4.0,19.0,2.282759189605713
463,121.0,26.0,-157.0,0.0,8792.0,5380.0,-11273.0,-5926.0,-5.0,-12.0,5.0,4.0,35.0,30.0,5.0,2.0,2.2993338108062744
464,72.0,29.0,-87.0,0.0,8779.0,5405.0,-11272.0,-5924.0,-5.0,-12.0,5.0,4.0,35.0,30.0,5.0,2.0,2.304245710372925
465,72.0,29.0,-87.0,0.0,8779.0,5405.0,-11272.0,-5924.0,-12.0,-21.0,-11.0,9.0,15.0,9.0,-8.0,-8.0,2.3085880279541016
466,72.0,29.0,-87.0,0.0,8779.0,5405.0,-11272.0,-5924.0,4.0,3.0,-3.0,6.0,12.0,4.0,5.0,6.0,2.3219830989837646
467,-49.0,50.0,-25.0,0.0,8781.0,5410.0,-11265.0,-5930.0,4.0,3.0,-3.0,6.0,12.0,4.0,5.0,6.0,2.3269565105438232
468,-49.0,50.0,-25.0,0.0,8781.0,5410.0,-11265.0,-5930.0,-5.0,-3.0,24.0,3.0,-25.0,-12.0,-27.0,-26.0,2.3312878608703613
469,-49.0,50.0,-25.0,0.0,8781.0,5410.0,-11265.0,-5930.0,-8.0,-19.0,70.0,11.0,9.0,-16.0,-12.0,-3.0,2.3353729248046875
470,-50.0,14.0,-71.0,0.0,8783.0,5413.0,-11256.0,-5941.0,-8.0,-19.0,70.0,11.0,9.0,-16.0,-12.0,-3.0,2.337815046310425
471,-50.0,14.0,-71.0,0.0,8783.0,5413.0,-11256.0,-5941.0,-6.0,5.0,-29.0,-8.0,3.0,-3.0,-1.0,1.0,2.3425538539886475
472,-50.0,14.0,-71.0,0.0,8783.0,5413.0,-11256.0,-5941.0,-6.0,-15.0,19.0,-5.0,-4.0,8.0,-4.0,-2.0,2.3598334789276123
473,58.0,-38.0,-81.0,0.0,8775.0,5421.0,-11259.0,-5940.0,-6.0,-15.0,19.0,-5.0,-4.0,8.0,-4.0,-2.0,2.3647141456604004
474,58.0,-38.0,-81.0,0.0,8775.0,5421.0,-11259.0,-5940.0,5.0,10.0,18.0,-6.0,4.0,2.0,5.0,9.0,2.369966983795166
475,58.0,-38.0,-81.0,0.0,8775.0,5421.0,-11259.0,-5940.0,14.0,56.0,-10.0,-14.0,-36.0,-5.0,29.0,22.0,2.381704568862915
476,150.0,-54.0,-98.0,0.0,8754.0,5444.0,-11266.0,-5936.0,14.0,56.0,-10.0,-14.0,-36.0,-5.0,29.0,22.0,2.385862112045288
477,150.0,-54.0,-98.0,0.0,8754.0,5444.0,-11266.0,-5936.0,1.0,3.0,26.0,-5.0,-7.0,5.0,1.0,-9.0,2.3901402950286865
478,150.0,-54.0,-98.0,0.0,8754.0,5444.0,-11266.0,-5936.0,-2.0,3.0,-39.0,-21.0,1.0,11.0,-4.0,0.0,2.395150661468506
479,21.0,-9.0,-89.0,0.0,8740.0,5461.0,-11266.0,-5942.0,-2.0,3.0,-39.0,-21.0,1.0,11.0,-4.0,0.0,2.3978803157806396
480,21.0,-9.0,-89.0,0.0,8740.0,5461.0,-11266.0,-5942.0,-4.0,13.0,47.0,-12.0,25.0,25.0,12.0,4.0,2.4022610187530518
481,21.0,-9.0,-89.0,0.0,8740.0,5461.0,-11266.0,-5942.0,4.0,1.0,8.0,-11.0,-9.0,-2.0,-5.0,-7.0,2.4188716411590576
482,1.0,18.0,-65.0,0.0,8730.0,5474.0,-11267.0,-5942.0,4.0,1.0,8.0,-11.0,-9.0,-2.0,-5.0,-7.0,2.422868013381958
483,1.0,18.0,-65.0,0.0,8730.0,5474.0,-11267.0,-5942.0,-1.0,7.0,24.0,10.0,4.0,-17.0,-4.0,1.0,2.4255945682525635
484,1.0,18.0,-65.0,0.0,8730.0,5474.0,-11267.0,-5942.0,-5.0,-6.0,-25.0,10.0,-17.0,-8.0,-7.0,-3.0,2.441279649734497
485,-44.0,31.0,-54.0,0.0,8732.0,5477.0,-11262.0,-5947.0,-5.0,-6.0,-25.0,10.0,-17.0,-8.0,-7.0,-3.0,2.443514823913574
486,-44.0,31.0,-54.0,0.0,8732.0,5477.0,-11262.0,-5947.0,-5.0,-15.0,-61.0,9.0,17.0,18.0,0.0,5.0,2.4461493492126465
487,-44.0,31.0,-54.0,0.0,8732.0,5477.0,-11262.0,-5947.0,-2.0,-30.0,-16.0,-8.0,-8.0,-7.0,4.0,-2.0,2.455554723739624
488,-19.0,36.0,0.0,0.0,8736.0,5480.0,-11256.0,-5949.0,-2.0,-30.0,-16.0,-8.0,-8.0,-7.0,4.0,-2.0,2.457792043685913
489,-19.0,36.0,0.0,0.0,8736.0,5480.0,-11256.0,-5949.0,-5.0,-19.0,-16.0,4.0,-11.0,-4.0,-9.0,-3.0,2.4626572132110596
490,-19.0,36.0,0.0,0.0,8736.0,5480.0,-11256.0,-5949.0,-7.0,-3.0,-10.0,4.0,-1.0,11.0,5.0,0.0,2.477949857711792
491,10.0,-1.0,-13.0,0.0,8736.0,5479.0,-11257.0,-5948.0,-7.0,-3.0,-10.0,4.0,-1.0,11.0,5.0,0.0,2.480181932449341
492,10.0,-1.0,-13.0,0.0,8736.0,5479.0,-11257.0,-5948.0,1.0,11.0,33.0,11.0,20.0,-7.0,8.0,3.0,2.485013008117676
493,10.0,-1.0,-13.0,0.0,8736.0,5479.0,-11257.0,-5948.0,4.0,7.0,27.0,1.0,12.0,1.0,0.0,3.0,2.501274585723877
494,18.0,18.0,-4.0,0.0,8735.0,5485.0,-11256.0,-5946.0,4.0,7.0,27.0,1.0,12.0,1.0,0.0,3.0,2.5035059452056885
495,18.0,18.0,-4.0,0.0,8735.0,5485.0,-11256.0,-5946.0,-2.0,-3.0,-11.0,-15.0,2.0,-9.0,-3.0,-10.0,2.5058469772338867
496,18.0,18.0,-4.0,0.0,8735.0,5485.0,-11256.0,-5946.0,-2.0,4.0,9.0,-5.0,0.0,-6.0,3.0,11.0,2.5239346027374268
497,-13.0,10.0,-9.0,0.0,8734.0,5485.0,-11257.0,-5946.0,-2.0,4.0,9.0,-5.0,0.0,-6.0,3.0,11.0,2.5267117023468018
498,-13.0,10.0,-9.0,0.0,8734.0,5485.0,-11257.0,-5946.0,-1.0,21.0,40.0,17.0,3.0,-5.0,-9.0,-13.0,2.5290682315826416
499,-13.0,10.0,-9.0,0.0,8734.0,5485.0,-11257.0,-5946.0,5.0,-3.0,-53.0,-5.0,18.0,11.0,1.0,-1.0,2.5381243228912354
