Gyro 0,Gyro 1,Gyro 2,Orientation 0,Orientation 1,Orientation 2,Orientation 3,Sensor 0,Sensor 1,Sensor 2,Sensor 3,Sensor 4,Sensor 5,Sensor 6,Sensor 7,Sensor Mean,Sensor Variance,Gyro Mean,Gyro Variance,Orientation Mean,Orientation Variance,Label
7.960011344299503,20.706669521464516,-41.94774688398849,122.73800412128344,-126.80489053898347,112.06940509915016,54.166106949108666,0.4980392156862763,22.270142180094794,-14.111111111111114,4.7037037037036935,-19.423529411764704,2.4901960784313744,6.047619047619044,2.4901960784313744,9.004317103355298,70.7261561564325,23.538142583250835,1096.472920194439,61.79747350891214,2898.107045368204,1
7.960011344299503,20.706669521464516,-41.94774688398849,122.73800412128344,-126.80489053898347,112.06940509915016,54.166106949108666,-1.4941176470588218,21.066350710900483,-10.079365079365083,15.156378600823034,7.4705882352941195,-4.482352941176469,-1.0079365079365115,-9.462745098039214,8.777479352574217,46.777205642667376,23.538142583250835,1096.472920194439,61.79747350891214,2898.107045368204,1
7.960011344299503,20.706669521464516,-41.94774688398849,122.73800412128344,-126.80489053898347,112.06940509915016,54.166106949108666,2.4901960784313744,21.066350710900483,-19.150793650793652,18.292181069958836,-47.31372549019608,9.462745098039218,5.039682539682536,47.31372549019608,21.266175016024782,303.63808292172354,23.538142583250835,1096.472920194439,61.79747350891214,2898.107045368204,1
7.960011344299503,20.706669521464516,-41.94774688398849,122.73800412128344,-126.80489053898347,112.06940509915016,54.166106949108666,1.4941176470588253,35.51184834123224,76.6031746031746,-38.1522633744856,-2.490196078431371,1.4941176470588253,-1.0079365079365115,3.4862745098039234,20.029991088647737,771.2806408511523,23.538142583250835,1096.472920194439,61.79747350891214,2898.107045368204,1
7.960011344299503,20.706669521464516,-41.94774688398849,122.73800412128344,-126.80489053898347,112.06940509915016,54.166106949108666,1.4941176470588253,22.270142180094794,49.388888888888886,10.975308641975298,8.466666666666669,-17.431372549019606,-3.0238095238095273,-9.462745098039214,15.3141313994441,236.5649376841295,23.538142583250835,1096.472920194439,61.79747350891214,2898.107045368204,1
8.212138400453785,20.65228562252436,-42.00862895493768,122.73800412128344,-126.7886314172321,112.06940509915016,54.166106949108666,1.4941176470588253,22.270142180094794,49.388888888888886,10.975308641975298,8.466666666666669,-17.431372549019606,-3.0238095238095273,-9.462745098039214,15.3141313994441,236.5649376841295,23.624350992638607,1100.5454920591897,61.79963956624849,2899.1365561147336,1
8.212138400453785,20.65228562252436,-42.00862895493768,122.73800412128344,-126.7886314172321,112.06940509915016,54.166106949108666,0.4980392156862763,18.658767772511858,-33.261904761904766,13.065843621399166,20.419607843137257,-4.482352941176469,-1.0079365079365115,-9.462745098039214,12.60714972022394,125.93682805484438,23.624350992638607,1100.5454920591897,61.79963956624849,2899.1365561147336,1
8.212138400453785,20.65228562252436,-42.00862895493768,122.73800412128344,-126.7886314172321,112.06940509915016,54.166106949108666,2.4901960784313744,25.881516587677734,-20.15873015873016,1.5679012345678913,-18.427450980392155,5.4784313725490215,-1.0079365079365115,-19.423529411764704,11.804461541506194,102.57111225059195,23.624350992638607,1100.5454920591897,61.79963956624849,2899.1365561147336,1
8.536301758366434,20.625093673054284,-41.97818791946309,122.73800412128344,-126.7886314172321,112.12936732766764,54.166106949108666,2.4901960784313744,25.881516587677734,-20.15873015873016,1.5679012345678913,-18.427450980392155,5.4784313725490215,-1.0079365079365115,-19.423529411764704,11.804461541506194,102.57111225059195,23.713194450294605,1102.8372372533654,61.780428571266945,2900.858171175981,1
8.536301758366434,20.625093673054284,-41.97818791946309,122.73800412128344,-126.7886314172321,112.12936732766764,54.166106949108666,0.4980392156862763,31.900473933649298,36.28571428571428,-31.880658436214,5.4784313725490215,2.4901960784313744,4.031746031746028,-0.49803921568627274,14.132912321209567,257.9601920440685,23.713194450294605,1102.8372372533654,61.780428571266945,2900.858171175981,1
8.536301758366434,20.625093673054284,-41.97818791946309,122.73800412128344,-126.7886314172321,112.12936732766764,54.166106949108666,-0.49803921568627274,34.30805687203792,48.38095238095238,9.930041152263364,0.4980392156862763,-6.474509803921567,4.031746031746028,41.33725490196079,18.182329946781824,391.28957725364023,23.713194450294605,1102.8372372533654,61.780428571266945,2900.858171175981,1
8.8244469653999,20.78824536987475,-42.06951102588687,122.81277597880478,-126.80489053898347,112.12936732766764,54.166106949108666,-0.49803921568627274,34.30805687203792,48.38095238095238,9.930041152263364,0.4980392156862763,-6.474509803921567,4.031746031746028,41.33725490196079,18.182329946781824,391.28957725364023,23.894067787053842,1114.0708285651144,61.890177458188795,2896.8953248585603,1
8.8244469653999,20.78824536987475,-42.06951102588687,122.81277597880478,-126.80489053898347,112.12936732766764,54.166106949108666,-6.474509803921567,15.047393364928919,-20.15873015873016,27.69958847736624,-12.450980392156861,17.43137254901961,-1.0079365079365115,5.4784313725490215,13.21861782832611,76.29126819336331,23.894067787053842,1114.0708285651144,61.890177458188795,2896.8953248585603,1
8.8244469653999,20.78824536987475,-42.06951102588687,122.81277597880478,-126.80489053898347,112.12936732766764,54.166106949108666,-2.490196078431371,4.213270142180104,-57.452380952380956,9.930041152263364,13.447058823529414,-1.4941176470588218,-3.0238095238095273,-27.392156862745097,14.930378897799832,368.93346630063803,23.894067787053842,1114.0708285651144,61.890177458188795,2896.8953248585603,1
8.392229154849701,20.842629268814907,-42.099952061361456,122.73800412128344,-126.7886314172321,112.12936732766764,54.166106949108666,-2.490196078431371,4.213270142180104,-57.452380952380956,9.930041152263364,13.447058823529414,-1.4941176470588218,-3.0238095238095273,-27.392156862745097,14.930378897799832,368.93346630063803,23.778270161675355,1111.0402285790665,61.89352848381993,2889.506104775047,1
8.392229154849701,20.842629268814907,-42.099952061361456,122.73800412128344,-126.7886314172321,112.12936732766764,54.166106949108666,1.4941176470588253,24.677725118483423,21.166666666666664,-25.609053497942394,-14.44313725490196,6.4745098039215705,3.02380952380952,20.419607843137257,14.663578419490202,95.93384947963294,23.778270161675355,1111.0402285790665,61.89352848381993,2889.506104775047,1
8.392229154849701,20.842629268814907,-42.099952061361456,122.73800412128344,-126.7886314172321,112.12936732766764,54.166106949108666,-0.49803921568627274,21.066350710900483,-19.150793650793652,-16.201646090534986,25.400000000000002,2.4901960784313744,3.02380952380952,-2.490196078431371,11.290128918573458,102.89355684336094,23.778270161675355,1111.0402285790665,61.89352848381993,2889.506104775047,1
8.464265456608068,20.761053420404675,-42.191275167785236,122.81277597880478,-126.7886314172321,112.12936732766764,54.100490829243085,-0.49803921568627274,21.066350710900483,-19.150793650793652,-16.201646090534986,25.400000000000002,2.4901960784313744,3.02380952380952,-2.490196078431371,11.290128918573458,102.89355684336094,23.80553134826599,1113.365077475261,61.92170152233157,2895.6058123832995,1
8.464265456608068,20.761053420404675,-42.191275167785236,122.81277597880478,-126.7886314172321,112.12936732766764,54.100490829243085,-0.49803921568627274,13.843601895734606,-38.301587301587304,-17.246913580246922,8.466666666666669,-0.49803921568627274,3.02380952380952,-5.478431372549018,10.919636096495825,159.07749662560397,23.80553134826599,1113.365077475261,61.92170152233157,2895.6058123832995,1
8.464265456608068,20.761053420404675,-42.191275167785236,122.81277597880478,-126.7886314172321,112.12936732766764,54.100490829243085,0.4980392156862763,29.492890995260673,-12.095238095238098,7.839506172839496,-4.482352941176469,5.4784313725490215,-3.552713678800501e-15,-38.34901960784313,12.279434800074146,198.90102213353438,23.80553134826599,1113.365077475261,61.92170152233157,2895.6058123832995,1
9.2566647759501,20.625093673054284,-42.25215723873442,122.88754783632612,-126.82114966073485,112.1893295561851,54.166106949108666,0.4980392156862763,29.492890995260673,-12.095238095238098,7.839506172839496,-4.482352941176469,5.4784313725490215,-3.552713678800501e-15,-38.34901960784313,12.279434800074146,198.90102213353438,24.044638562579603,1122.6581005254993,61.92159958270494,2904.567604465904,1
9.2566647759501,20.625093673054284,-42.25215723873442,122.88754783632612,-126.82114966073485,112.1893295561851,54.166106949108666,0.4980392156862763,24.677725118483423,26.206349206349202,35.01646090534978,-19.423529411764704,-6.474509803921567,6.047619047619044,2.4901960784313744,15.104303598450672,165.5730114651948,24.044638562579603,1122.6581005254993,61.92159958270494,2904.567604465904,1
9.2566647759501,20.625093673054284,-42.25215723873442,122.88754783632612,-126.82114966073485,112.1893295561851,54.166106949108666,-4.482352941176469,24.677725118483423,23.182539682539677,16.201646090534968,16.43529411764706,1.4941176470588253,1.0079365079365044,-9.462745098039214,12.118044650427018,88.16282842307785,24.044638562579603,1122.6581005254993,61.92159958270494,2904.567604465904,1
9.14861032331255,20.570709774114125,-42.13039309683605,122.88754783632612,-126.82114966073485,112.12936732766764,54.166106949108666,-4.482352941176469,24.677725118483423,23.182539682539677,16.201646090534968,16.43529411764706,1.4941176470588253,1.0079365079365044,-9.462745098039214,12.118044650427018,88.16282842307785,23.94990439808758,1115.2381414768483,61.862883569092105,2909.212222940485,1
9.14861032331255,20.570709774114125,-42.13039309683605,122.88754783632612,-126.82114966073485,112.12936732766764,54.166106949108666,-0.49803921568627274,16.25118483412323,-45.35714285714286,15.156378600823034,-10.458823529411763,-5.478431372549018,1.0079365079365044,-3.48627450980392,12.211776428434575,215.84080708689058,23.94990439808758,1115.2381414768483,61.862883569092105,2909.212222940485,1
9.14861032331255,20.570709774114125,-42.13039309683605,122.88754783632612,-126.82114966073485,112.12936732766764,54.166106949108666,-2.490196078431371,10.232227488151668,-8.063492063492067,6.794238683127562,-2.490196078431371,19.423529411764708,2.0158730158730123,-11.454901960784312,7.870581847507009,35.03796639131461,23.94990439808758,1115.2381414768483,61.862883569092105,2909.212222940485,1
8.392229154849701,20.625093673054284,-42.282598274209015,122.88754783632612,-126.82114966073485,112.1893295561851,54.100490829243085,-2.490196078431371,10.232227488151668,-8.063492063492067,6.794238683127562,-2.490196078431371,19.423529411764708,2.0158730158730123,-11.454901960784312,7.870581847507009,35.03796639131461,23.766640367371,1112.493135902901,61.93174659452981,2903.9691551592928,1
8.392229154849701,20.625093673054284,-42.282598274209015,122.88754783632612,-126.82114966073485,112.1893295561851,54.100490829243085,-1.4941176470588218,21.066350710900483,-26.20634920634921,18.292181069958836,0.4980392156862763,-0.49803921568627274,3.02380952380952,-9.462745098039214,10.067703960936079,107.9591282037536,23.766640367371,1112.493135902901,61.93174659452981,2903.9691551592928,1
8.392229154849701,20.625093673054284,-42.282598274209015,122.88754783632612,-126.82114966073485,112.1893295561851,54.100490829243085,4.482352941176472,31.900473933649298,32.25396825396825,53.8312757201646,24.403921568627453,-3.48627450980392,-2.0158730158730194,-3.48627450980392,19.482551806633367,366.17445593473207,23.766640367371,1112.493135902901,61.93174659452981,2903.9691551592928,1
8.968519568916633,20.842629268814907,-42.22171620325983,122.88754783632612,-126.82114966073485,112.1893295561851,54.100490829243085,4.482352941176472,31.900473933649298,32.25396825396825,53.8312757201646,24.403921568627453,-3.48627450980392,-2.0158730158730194,-3.48627450980392,19.482551806633367,366.17445593473207,24.01095501366379,1123.0910648995712,61.98396443613362,2896.2011927757912,1
8.968519568916633,20.842629268814907,-42.22171620325983,122.88754783632612,-126.82114966073485,112.1893295561851,54.100490829243085,-1.4941176470588218,29.492890995260673,33.26190476190476,6.794238683127562,-1.4941176470588218,4.482352941176472,-3.552713678800501e-15,-6.474509803921567,10.436766559938585,173.9161967564706,24.01095501366379,1123.0910648995712,61.98396443613362,2896.2011927757912,1
8.968519568916633,20.842629268814907,-42.22171620325983,122.88754783632612,-126.82114966073485,112.1893295561851,54.100490829243085,-1.4941176470588218,33.10426540284361,11.087301587301583,-0.5226337448559768,-16.435294117647057,3.4862745098039234,-2.0158730158730194,16.43529411764706,10.572631767878882,126.21963962455301,24.01095501366379,1123.0910648995712,61.98396443613362,2896.2011927757912,1
8.8244469653999,20.951397066695222,-42.465244487056566,122.88754783632612,-126.82114966073485,112.1893295561851,54.100490829243085,-1.4941176470588218,33.10426540284361,11.087301587301583,-0.5226337448559768,-16.435294117647057,3.4862745098039234,-2.0158730158730194,16.43529411764706,10.572631767878882,126.21963962455301,24.08036283971723,1133.2276323340886,62.1013964633593,2886.928556759574,1
8.8244469653999,20.951397066695222,-42.465244487056566,122.88754783632612,-126.82114966073485,112.1893295561851,54.100490829243085,-2.490196078431371,6.620853080568729,-67.53174603174604,24.56378600823044,-8.466666666666665,-8.466666666666665,-1.0079365079365115,-11.454901960784312,16.325344125128844,479.63111351013805,24.08036283971723,1133.2276323340886,62.1013964633593,2886.928556759574,1
8.8244469653999,20.951397066695222,-42.465244487056566,122.88754783632612,-126.82114966073485,112.1893295561851,54.100490829243085,-4.482352941176469,18.658767772511858,36.28571428571428,-18.292181069958858,2.4901960784313744,-8.466666666666665,1.0079365079365044,-3.48627450980392,11.64626122902499,146.4957734565921,24.08036283971723,1133.2276323340886,62.1013964633593,2886.928556759574,1
9.076574021554183,20.842629268814907,-42.49568552253116,122.88754783632612,-126.82114966073485,112.1893295561851,54.100490829243085,-4.482352941176469,18.658767772511858,36.28571428571428,-18.292181069958858,2.4901960784313744,-8.466666666666665,1.0079365079365044,-3.48627450980392,11.64626122902499,146.4957734565921,24.138296270966748,1134.980021861957,62.0752875425574,2890.8119628094605,1
9.076574021554183,20.842629268814907,-42.49568552253116,122.88754783632612,-126.82114966073485,112.1893295561851,54.100490829243085,-1.4941176470588218,22.270142180094794,6.047619047619044,-21.427983539094658,-11.454901960784312,3.4862745098039234,-3.0238095238095273,4.482352941176472,9.210900168680194,69.68602006243242,24.138296270966748,1134.980021861957,62.0752875425574,2890.8119628094605,1
9.076574021554183,20.842629268814907,-42.49568552253116,122.88754783632612,-126.82114966073485,112.1893295561851,54.100490829243085,-3.48627450980392,5.417061611374418,-63.5,-1.5679012345679109,19.423529411764708,0.4980392156862763,-3.552713678800501e-15,-10.458823529411763,13.043953689076126,457.4225264982601,24.138296270966748,1134.980021861957,62.0752875425574,2890.8119628094605,1
8.93250141803745,20.897013167755063,-42.43480345158198,122.88754783632612,-126.82114966073485,112.1893295561851,54.100490829243085,-3.48627450980392,5.417061611374418,-63.5,-1.5679012345679109,19.423529411764708,0.4980392156862763,-3.552713678800501e-15,-10.458823529411763,13.043953689076126,457.4225264982601,24.088106012458166,1132.111424547149,62.07312148522106,2889.764941888014,1
8.93250141803745,20.897013167755063,-42.43480345158198,122.88754783632612,-126.82114966073485,112.1893295561851,54.100490829243085,0.4980392156862763,22.270142180094794,-5.039682539682543,21.42798353909464,-5.478431372549018,-8.466666666666665,2.0158730158730123,0.4980392156862763,8.211857218166653,78.18525778381495,24.088106012458166,1132.111424547149,62.07312148522106,2889.764941888014,1
8.93250141803745,20.897013167755063,-42.43480345158198,122.88754783632612,-126.82114966073485,112.1893295561851,54.100490829243085,-0.49803921568627274,18.658767772511858,-3.0238095238095273,0.5226337448559573,-17.431372549019606,-9.462745098039214,3.02380952380952,13.447058823529414,8.258529531407671,56.50726521718455,24.088106012458166,1132.111424547149,62.07312148522106,2889.764941888014,1
8.608338060124801,20.842629268814907,-42.282598274209015,122.88754783632612,-126.82114966073485,112.1893295561851,54.100490829243085,-0.49803921568627274,18.658767772511858,-3.0238095238095273,0.5226337448559573,-17.431372549019606,-9.462745098039214,3.02380952380952,13.447058823529414,8.258529531407671,56.50726521718455,23.911188534382905,1120.7266057871325,62.00425845978335,2894.999261718949,1
8.608338060124801,20.842629268814907,-42.282598274209015,122.88754783632612,-126.82114966073485,112.1893295561851,54.100490829243085,-1.4941176470588218,28.28909952606636,53.42063492063492,25.609053497942377,-0.49803921568627274,0.4980392156862763,-3.552713678800501e-15,4.482352941176472,14.286417120531437,385.6953223998085,23.911188534382905,1120.7266057871325,62.00425845978335,2894.999261718949,1
8.608338060124801,20.842629268814907,-42.282598274209015,122.88754783632612,-126.82114966073485,112.1893295561851,54.100490829243085,2.4901960784313744,30.696682464454987,-14.111111111111114,3.6584362139917594,19.423529411764708,11.454901960784316,-3.552713678800501e-15,-8.466666666666665,11.287690488400617,103.12458126349411,23.911188534382905,1120.7266057871325,62.00425845978335,2894.999261718949,1
8.320192853091335,20.897013167755063,-42.373921380632794,122.88754783632612,-126.80489053898347,112.1893295561851,54.100490829243085,2.4901960784313744,30.696682464454987,-14.111111111111114,3.6584362139917594,19.423529411764708,11.454901960784316,-3.552713678800501e-15,-8.466666666666665,11.287690488400617,103.12458126349411,23.863709133826394,1121.8801309659316,62.052827461571326,2890.961798902048,1
8.320192853091335,20.897013167755063,-42.373921380632794,122.88754783632612,-126.80489053898347,112.1893295561851,54.100490829243085,1.4941176470588253,28.28909952606636,11.087301587301583,4.7037037037036935,5.4784313725490215,-1.4941176470588218,1.0079365079365044,5.4784313725490215,7.3791424205279785,82.174203687745,23.863709133826394,1121.8801309659316,62.052827461571326,2890.961798902048,1
8.320192853091335,20.897013167755063,-42.373921380632794,122.88754783632612,-126.80489053898347,112.1893295561851,54.100490829243085,-3.48627450980392,16.25118483412323,-9.071428571428575,-32.92592592592593,-25.4,-0.49803921568627274,2.0158730158730123,9.462745098039218,12.388933896360019,136.2560571480804,23.863709133826394,1121.8801309659316,62.052827461571326,2890.961798902048,1
8.428247305728885,20.78824536987475,-42.3130393096836,122.88754783632612,-126.82114966073485,112.24929178470258,54.100490829243085,-3.48627450980392,16.25118483412323,-9.071428571428575,-32.92592592592593,-25.4,-0.49803921568627274,2.0158730158730123,9.462745098039218,12.388933896360019,136.2560571480804,23.84317732842908,1118.2033079572989,61.99627750529482,2896.6392904328573,1
8.428247305728885,20.78824536987475,-42.3130393096836,122.88754783632612,-126.82114966073485,112.24929178470258,54.100490829243085,-1.4941176470588218,17.454976303317544,-19.150793650793652,14.1111111111111,20.419607843137257,12.450980392156865,6.047619047619044,-10.458823529411763,12.698503690575755,42.95956495134165,23.84317732842908,1118.2033079572989,61.99627750529482,2896.6392904328573,1
8.428247305728885,20.78824536987475,-42.3130393096836,122.88754783632612,-126.82114966073485,112.24929178470258,54.100490829243085,0.4980392156862763,23.47393364928911,-2.0158730158730194,-26.65432098765433,-4.482352941176469,-6.474509803921567,1.0079365079365044,26.39607843137255,11.375380569113728,141.48222403897356,23.84317732842908,1118.2033079572989,61.99627750529482,2896.6392904328573,1
8.680374361883167,20.897013167755063,-42.099952061361456,122.88754783632612,-126.82114966073485,112.24929178470258,54.100490829243085,0.4980392156862763,23.47393364928911,-2.0158730158730194,-26.65432098765433,-4.482352941176469,-6.474509803921567,1.0079365079365044,26.39607843137255,11.375380569113728,141.48222403897356,23.892446530333228,1116.084240573821,61.96150435514755,2896.3782351343484,1
8.680374361883167,20.897013167755063,-42.099952061361456,122.88754783632612,-126.82114966073485,112.24929178470258,54.100490829243085,0.4980392156862763,24.677725118483423,-3.0238095238095273,4.7037037037036935,20.419607843137257,1.4941176470588253,3.02380952380952,-0.49803921568627274,7.292356473921849,91.9518497453878,23.892446530333228,1116.084240573821,61.96150435514755,2896.3782351343484,1
8.680374361883167,20.897013167755063,-42.099952061361456,122.88754783632612,-126.82114966073485,112.24929178470258,54.100490829243085,0.4980392156862763,30.696682464454987,19.150793650793645,10.975308641975298,-1.4941176470588218,-9.462745098039214,-1.0079365079365115,-12.450980392156861,10.717075452262701,108.38825509907498,23.892446530333228,1116.084240573821,61.96150435514755,2896.3782351343484,1
8.284174702212152,20.869821218284986,-42.25215723873442,122.88754783632612,-126.82114966073485,112.24929178470258,54.100490829243085,0.4980392156862763,30.696682464454987,19.150793650793645,10.975308641975298,-1.4941176470588218,-9.462745098039214,-1.0079365079365115,-12.450980392156861,10.717075452262701,108.38825509907498,23.80205105307719,1116.1172514335826,62.003175431115174,2894.481175805161,1
8.284174702212152,20.869821218284986,-42.25215723873442,122.88754783632612,-126.82114966073485,112.24929178470258,54.100490829243085,1.4941176470588253,28.28909952606636,-22.174603174603178,10.975308641975298,-6.474509803921567,-2.490196078431371,2.0158730158730123,11.454901960784316,10.671076231089241,98.15712835662202,23.80205105307719,1116.1172514335826,62.003175431115174,2894.481175805161,1
8.284174702212152,20.869821218284986,-42.25215723873442,122.88754783632612,-126.82114966073485,112.24929178470258,54.100490829243085,0.4980392156862763,22.270142180094794,18.14285714285714,-3.658436213991779,-9.462745098039214,-22.41176470588235,-3.552713678800501e-15,-8.466666666666665,10.613831402902278,85.86322095611924,23.80205105307719,1116.1172514335826,62.003175431115174,2894.481175805161,1
8.968519568916633,20.81543731934483,-42.3130393096836,122.88754783632612,-126.80489053898347,112.24929178470258,54.100490829243085,0.4980392156862763,22.270142180094794,18.14285714285714,-3.658436213991779,-9.462745098039214,-22.41176470588235,-3.552713678800501e-15,-8.466666666666665,10.613831402902278,85.86322095611924,24.032332065981688,1125.8920504510907,62.00534148845151,2895.519010172641,1
8.968519568916633,20.81543731934483,-42.3130393096836,122.88754783632612,-126.80489053898347,112.24929178470258,54.100490829243085,-2.490196078431371,11.436018957345981,-20.15873015873016,-23.518518518518526,-1.4941176470588218,9.462745098039218,2.0158730158730123,-1.4941176470588218,9.008789640131988,77.89777981030103,24.032332065981688,1125.8920504510907,62.00534148845151,2895.519010172641,1
8.968519568916633,20.81543731934483,-42.3130393096836,122.88754783632612,-126.80489053898347,112.24929178470258,54.100490829243085,-0.49803921568627274,18.658767772511858,2.0158730158730123,24.56378600823044,21.415686274509806,12.450980392156865,9.071428571428568,-37.35294117647059,15.753437803358427,151.66658944605675,24.032332065981688,1125.8920504510907,62.00534148845151,2895.519010172641,1
8.896483267158267,20.65228562252436,-42.49568552253116,122.88754783632612,-126.80489053898347,112.1893295561851,54.100490829243085,-0.49803921568627274,18.658767772511858,2.0158730158730123,24.56378600823044,21.415686274509806,12.450980392156865,9.071428571428568,-37.35294117647059,15.753437803358427,151.66658944605675,24.014818137404593,1127.8366936105206,62.011839660460545,2898.6724142327644,1
8.896483267158267,20.65228562252436,-42.49568552253116,122.88754783632612,-126.80489053898347,112.1893295561851,54.100490829243085,1.4941176470588253,21.066350710900483,-4.031746031746035,-22.473251028806594,-8.466666666666665,-16.435294117647057,-3.0238095238095273,-26.396078431372548,12.923414269750968,96.98687633640053,24.014818137404593,1127.8366936105206,62.011839660460545,2898.6724142327644,1
8.896483267158267,20.65228562252436,-42.49568552253116,122.88754783632612,-126.80489053898347,112.1893295561851,54.100490829243085,0.4980392156862763,30.696682464454987,19.150793650793645,-0.5226337448559768,0.4980392156862763,-4.482352941176469,-3.0238095238095273,-6.474509803921567,8.16835757004809,121.02658713145385,24.014818137404593,1127.8366936105206,62.011839660460545,2898.6724142327644,1
8.608338060124801,20.78824536987475,-42.40436241610738,122.88754783632612,-126.80489053898347,112.24929178470258,54.100490829243085,0.4980392156862763,30.696682464454987,19.150793650793645,-0.5226337448559768,0.4980392156862763,-4.482352941176469,-3.0238095238095273,-6.474509803921567,8.16835757004809,121.02658713145385,23.93364861536898,1123.9919051241413,62.026718540769416,2894.844535946277,1
8.608338060124801,20.78824536987475,-42.40436241610738,122.88754783632612,-126.80489053898347,112.24929178470258,54.100490829243085,-3.48627450980392,21.066350710900483,-10.079365079365083,-3.658436213991779,-0.49803921568627274,7.4705882352941195,-3.552713678800501e-15,-0.49803921568627274,5.844636647590992,50.564364647209295,23.93364861536898,1123.9919051241413,62.026718540769416,2894.844535946277,1
8.608338060124801,20.78824536987475,-42.40436241610738,122.88754783632612,-126.80489053898347,112.24929178470258,54.100490829243085,2.4901960784313744,24.677725118483423,-11.08730158730159,-12.02057613168725,3.4862745098039234,9.462745098039218,8.06349206349206,14.443137254901963,10.7164309802676,48.45718995561841,23.93364861536898,1123.9919051241413,62.026718540769416,2894.844535946277,1
8.71639251276235,20.733861470934595,-42.43480345158198,122.88754783632612,-126.80489053898347,112.1893295561851,54.100490829243085,2.4901960784313744,24.677725118483423,-11.08730158730159,-12.02057613168725,3.4862745098039234,9.462745098039218,8.06349206349206,14.443137254901963,10.7164309802676,48.45718995561841,23.96168581175964,1125.1907728060942,62.0187375862809,2896.491766653864,1
8.71639251276235,20.733861470934595,-42.43480345158198,122.88754783632612,-126.80489053898347,112.1893295561851,54.100490829243085,-0.49803921568627274,17.454976303317544,-21.16666666666667,17.246913580246904,4.482352941176472,-14.44313725490196,-5.039682539682543,6.4745098039215705,10.850784788199991,57.78645448977579,23.96168581175964,1125.1907728060942,62.0187375862809,2896.491766653864,1
8.71639251276235,20.733861470934595,-42.43480345158198,122.88754783632612,-126.80489053898347,112.1893295561851,54.100490829243085,-1.4941176470588218,12.639810426540294,7.055555555555552,7.839506172839496,-4.482352941176469,0.4980392156862763,-3.552713678800501e-15,7.4705882352941195,5.1849962742688795,19.18737785873444,23.96168581175964,1125.1907728060942,62.0187375862809,2896.491766653864,1
8.536301758366434,20.81543731934483,-42.191275167785236,122.88754783632612,-126.80489053898347,112.1893295561851,54.100490829243085,-1.4941176470588218,12.639810426540294,7.055555555555552,7.839506172839496,-4.482352941176469,0.4980392156862763,-3.552713678800501e-15,7.4705882352941195,5.1849962742688795,19.18737785873444,23.847671415165497,1115.6516748932318,61.96475344115206,2897.9217686181933,1
8.536301758366434,20.81543731934483,-42.191275167785236,122.88754783632612,-126.80489053898347,112.1893295561851,54.100490829243085,2.4901960784313744,27.085308056872048,23.182539682539677,29.790123456790113,-1.4941176470588218,2.4901960784313744,8.06349206349206,30.380392156862747,15.622045652559777,172.67595767111087,23.847671415165497,1115.6516748932318,61.96475344115206,2897.9217686181933,1
8.536301758366434,20.81543731934483,-42.191275167785236,122.88754783632612,-126.80489053898347,112.1893295561851,54.100490829243085,-3.48627450980392,25.881516587677734,7.055555555555552,14.1111111111111,5.4784313725490215,1.4941176470588253,3.02380952380952,-7.470588235294116,8.500175567857472,64.29802354470989,23.847671415165497,1115.6516748932318,61.96475344115206,2897.9217686181933,1
8.644356211003984,20.597901723584204,-42.22171620325983,122.88754783632612,-126.80489053898347,112.1893295561851,54.100490829243085,-3.48627450980392,25.881516587677734,7.055555555555552,14.1111111111111,5.4784313725490215,1.4941176470588253,3.02380952380952,-7.470588235294116,8.500175567857472,64.29802354470989,23.821324712616008,1112.758161608187,61.90238858772339,2906.2895745959336,1
8.644356211003984,20.597901723584204,-42.22171620325983,122.88754783632612,-126.80489053898347,112.1893295561851,54.100490829243085,3.4862745098039234,25.881516587677734,13.1031746031746,20.382716049382704,-4.482352941176469,6.4745098039215705,2.0158730158730123,-4.482352941176469,10.03859630652331,78.44771137428428,23.821324712616008,1112.758161608187,61.90238858772339,2906.2895745959336,1
8.644356211003984,20.597901723584204,-42.22171620325983,122.88754783632612,-126.80489053898347,112.1893295561851,54.100490829243085,-1.4941176470588218,12.639810426540294,-27.214285714285715,-5.748971193415647,-1.4941176470588218,-0.49803921568627274,1.0079365079365044,-1.4941176470588218,6.448924499880112,86.95499262761341,23.821324712616008,1112.758161608187,61.90238858772339,2906.2895745959336,1
8.176120249574602,20.51632587517397,-42.373921380632794,122.88754783632612,-126.80489053898347,112.1893295561851,54.100490829243085,-1.4941176470588218,12.639810426540294,-27.214285714285715,-5.748971193415647,-1.4941176470588218,-0.49803921568627274,1.0079365079365044,-1.4941176470588218,6.448924499880112,86.95499262761341,23.688789168460456,1110.461763932381,61.92593169737763,2906.6776020244424,1
8.176120249574602,20.51632587517397,-42.373921380632794,122.88754783632612,-126.80489053898347,112.1893295561851,54.100490829243085,-4.482352941176469,13.843601895734606,-3.552713678800501e-15,12.020576131687232,-8.466666666666665,-4.482352941176469,-1.0079365079365115,0.4980392156862763,5.600190787508029,28.339124060105842,23.688789168460456,1110.461763932381,61.92593169737763,2906.6776020244424,1
8.176120249574602,20.51632587517397,-42.373921380632794,122.88754783632612,-126.80489053898347,112.1893295561851,54.100490829243085,2.4901960784313744,30.696682464454987,23.182539682539677,21.42798353909464,10.458823529411767,-1.4941176470588218,-3.552713678800501e-15,-3.48627450980392,11.6545771813494,140.31659263270694,23.688789168460456,1110.461763932381,61.92593169737763,2906.6776020244424,1
8.392229154849701,20.461941976233813,-42.282598274209015,122.73800412128344,-126.82114966073485,112.30925401322004,54.23172306897436,2.4901960784313744,30.696682464454987,23.182539682539677,21.42798353909464,10.458823529411767,-1.4941176470588218,-3.552713678800501e-15,-3.48627450980392,11.6545771813494,140.31659263270694,23.71225646843084,1108.4155722991677,61.82751479057543,2901.6010431983127,1
8.392229154849701,20.461941976233813,-42.282598274209015,122.73800412128344,-126.82114966073485,112.30925401322004,54.23172306897436,-0.49803921568627274,18.658767772511858,11.087301587301583,-13.065843621399186,-35.36078431372549,-9.462745098039214,-1.0079365079365115,7.4705882352941195,12.07650079398678,124.58020701654941,23.71225646843084,1108.4155722991677,61.82751479057543,2901.6010431983127,1
8.392229154849701,20.461941976233813,-42.282598274209015,122.73800412128344,-126.82114966073485,112.30925401322004,54.23172306897436,3.4862745098039234,24.677725118483423,6.047619047619044,12.020576131687232,-4.482352941176469,-7.470588235294116,4.031746031746028,47.31372549019608,13.691325938250788,233.33395691161675,23.71225646843084,1108.4155722991677,61.82751479057543,2901.6010431983127,1
8.068065796937052,20.54351782464405,-42.49568552253116,122.51368854871941,-126.80489053898347,112.42917847025498,54.36295530870575,3.4862745098039234,24.677725118483423,6.047619047619044,12.020576131687232,-4.482352941176469,-7.470588235294116,4.031746031746028,47.31372549019608,13.691325938250788,233.33395691161675,23.70242304803742,1114.3785015731914,61.850963965298206,2880.449032072051,1
8.068065796937052,20.54351782464405,-42.49568552253116,122.51368854871941,-126.80489053898347,112.42917847025498,54.36295530870575,4.482352941176472,30.696682464454987,56.44444444444444,61.14814814814813,24.403921568627453,4.482352941176472,-3.552713678800501e-15,-6.474509803921567,23.516551538993692,588.6836736473708,23.70242304803742,1114.3785015731914,61.850963965298206,2880.449032072051,1
8.068065796937052,20.54351782464405,-42.49568552253116,122.51368854871941,-126.80489053898347,112.42917847025498,54.36295530870575,-5.478431372549018,22.270142180094794,6.047619047619044,29.790123456790113,-3.48627450980392,0.4980392156862763,2.0158730158730123,28.38823529411765,12.246842261566728,153.21060455029928,23.70242304803742,1114.3785015731914,61.850963965298206,2880.449032072051,1
8.032047646057869,20.570709774114125,-42.465244487056566,122.28937297615539,-126.7886314172321,112.54910292728992,54.42857142857133,-5.478431372549018,22.270142180094794,6.047619047619044,29.790123456790113,-3.48627450980392,0.4980392156862763,2.0158730158730123,28.38823529411765,12.246842261566728,153.21060455029928,23.689333969076188,1113.4543483925095,61.775109079108695,2866.3247638251173,1
8.032047646057869,20.570709774114125,-42.465244487056566,122.28937297615539,-126.7886314172321,112.54910292728992,54.42857142857133,-2.490196078431371,11.436018957345981,-15.11904761904762,-26.65432098765433,35.36078431372549,-0.49803921568627274,-2.0158730158730194,-16.435294117647057,13.751196788176394,155.43921093662775,23.689333969076188,1113.4543483925095,61.775109079108695,2866.3247638251173,1
8.032047646057869,20.570709774114125,-42.465244487056566,122.28937297615539,-126.7886314172321,112.54910292728992,54.42857142857133,4.482352941176472,42.73459715639811,46.36507936507936,31.880658436213977,-13.44705882352941,-19.423529411764704,1.0079365079365044,-4.482352941176469,20.477945697909377,319.55263978854344,23.689333969076188,1113.4543483925095,61.775109079108695,2866.3247638251173,1
8.500283607487251,20.706669521464516,-42.373921380632794,122.28937297615539,-126.7886314172321,112.54910292728992,54.42857142857133,4.482352941176472,42.73459715639811,46.36507936507936,31.880658436213977,-13.44705882352941,-19.423529411764704,1.0079365079365044,-4.482352941176469,20.477945697909377,319.55263978854344,23.860291503194855,1119.3902564686605,61.789987959417566,2862.4991413347684,1
8.500283607487251,20.706669521464516,-42.373921380632794,122.28937297615539,-126.7886314172321,112.54910292728992,54.42857142857133,-3.48627450980392,24.677725118483423,-42.333333333333336,-10.975308641975317,11.454901960784316,9.462745098039218,2.0158730158730123,-1.4941176470588218,13.23753491566892,194.12979257306552,23.860291503194855,1119.3902564686605,61.789987959417566,2862.4991413347684,1
8.500283607487251,20.706669521464516,-42.373921380632794,122.28937297615539,-126.7886314172321,112.54910292728992,54.42857142857133,-2.490196078431371,1.8056872037914786,-60.47619047619048,-10.975308641975317,-16.435294117647057,0.4980392156862763,-5.039682539682543,-23.4078431372549,15.141030176332428,399.56781355917514,23.860291503194855,1119.3902564686605,61.789987959417566,2862.4991413347684,1
8.536301758366434,20.570709774114125,-42.465244487056566,122.28937297615539,-126.7886314172321,112.54910292728992,54.494187548437026,-2.490196078431371,1.8056872037914786,-60.47619047619048,-10.975308641975317,-16.435294117647057,0.4980392156862763,-5.039682539682543,-23.4078431372549,15.141030176332428,399.56781355917514,23.85741867317904,1119.9193708883195,61.775109079108695,2866.3247638251173,1
8.536301758366434,20.570709774114125,-42.465244487056566,122.28937297615539,-126.7886314172321,112.54910292728992,54.494187548437026,3.4862745098039234,34.30805687203792,23.182539682539677,-9.930041152263383,-0.49803921568627274,-8.466666666666665,7.055555555555552,13.447058823529414,12.546779059760352,124.05659488873405,23.85741867317904,1119.9193708883195,61.775109079108695,2866.3247638251173,1
8.536301758366434,20.570709774114125,-42.465244487056566,122.28937297615539,-126.7886314172321,112.54910292728992,54.494187548437026,2.4901960784313744,16.25118483412323,-34.26984126984127,23.518518518518505,9.462745098039218,18.42745098039216,5.039682539682536,-11.454901960784312,15.114315159976575,108.00461577204089,23.85741867317904,1119.9193708883195,61.775109079108695,2866.3247638251173,1
8.608338060124801,20.407558077293658,-42.373921380632794,122.21460111863405,-126.80489053898347,112.66902738432486,54.55980366830272,2.4901960784313744,16.25118483412323,-34.26984126984127,23.518518518518505,9.462745098039218,18.42745098039216,5.039682539682536,-11.454901960784312,15.114315159976575,108.00461577204089,23.796605839350416,1113.3210889373859,61.66536019218683,2870.2882117702843,1
8.608338060124801,20.407558077293658,-42.373921380632794,122.21460111863405,-126.80489053898347,112.66902738432486,54.55980366830272,-2.490196078431371,31.900473933649298,58.460317460317455,44.423868312757186,-20.419607843137253,4.482352941176472,4.031746031746028,23.407843137254904,23.702050717308747,417.4094871776245,23.796605839350416,1113.3210889373859,61.66536019218683,2870.2882117702843,1
8.608338060124801,20.407558077293658,-42.373921380632794,122.21460111863405,-126.80489053898347,112.66902738432486,54.55980366830272,-2.490196078431371,6.620853080568729,-4.031746031746035,-22.473251028806594,-27.392156862745097,-4.482352941176469,-1.0079365079365115,-16.435294117647057,10.616723331132233,101.59668854191568,23.796605839350416,1113.3210889373859,61.66536019218683,2870.2882117702843,1
8.464265456608068,20.67947757199444,-42.3130393096836,122.21460111863405,-126.80489053898347,112.72898961284233,54.55980366830272,-2.490196078431371,6.620853080568729,-4.031746031746035,-22.473251028806594,-27.392156862745097,-4.482352941176469,-1.0079365079365115,-16.435294117647057,10.616723331132233,101.59668854191568,23.81892744609537,1115.9338782402072,61.735706000104024,2860.2753144332178,1
8.464265456608068,20.67947757199444,-42.3130393096836,122.21460111863405,-126.80489053898347,112.72898961284233,54.55980366830272,-1.4941176470588218,12.639810426540294,-47.37301587301587,-22.473251028806594,19.423529411764708,-4.482352941176469,2.0158730158730123,5.4784313725490215,14.422547714598101,239.80138803583503,23.81892744609537,1115.9338782402072,61.735706000104024,2860.2753144332178,1
8.464265456608068,20.67947757199444,-42.3130393096836,122.21460111863405,-126.80489053898347,112.72898961284233,54.55980366830272,-0.49803921568627274,28.28909952606636,-2.0158730158730194,19.33744855967077,23.407843137254904,6.4745098039215705,2.0158730158730123,-0.49803921568627274,10.317090686254023,131.59159409412368,23.81892744609537,1115.9338782402072,61.735706000104024,2860.2753144332178,1
8.464265456608068,20.761053420404675,-42.43480345158198,122.21460111863405,-126.80489053898347,112.72898961284233,54.55980366830272,-0.49803921568627274,28.28909952606636,-2.0158730158730194,19.33744855967077,23.407843137254904,6.4745098039215705,2.0158730158730123,-0.49803921568627274,10.317090686254023,131.59159409412368,23.886707442864907,1122.607089288646,61.80348599687357,2854.564982794438,1
8.464265456608068,20.761053420404675,-42.43480345158198,122.21460111863405,-126.80489053898347,112.72898961284233,54.55980366830272,5.4784313725490215,29.492890995260673,34.269841269841265,6.794238683127562,13.447058823529414,-3.48627450980392,4.031746031746028,25.400000000000002,15.300060210732235,157.44075241641355,23.886707442864907,1122.607089288646,61.80348599687357,2854.564982794438,1
8.464265456608068,20.761053420404675,-42.43480345158198,122.21460111863405,-126.80489053898347,112.72898961284233,54.55980366830272,-2.490196078431371,29.492890995260673,-13.103174603174606,-0.5226337448559768,9.462745098039218,0.4980392156862763,-3.552713678800501e-15,6.4745098039215705,7.755523692421212,99.78910136887919,23.886707442864907,1122.607089288646,61.80348599687357,2854.564982794438,1
8.896483267158267,20.434750026763737,-42.40436241610738,122.21460111863405,-126.85366790423762,112.66902738432486,54.75665202789969,-2.490196078431371,29.492890995260673,-13.103174603174606,-0.5226337448559768,9.462745098039218,0.4980392156862763,-3.552713678800501e-15,6.4745098039215705,7.755523692421212,99.78910136887919,23.911865236676462,1118.9437367069756,61.68457118716839,2868.579359762597,1
8.896483267158267,20.434750026763737,-42.40436241610738,122.21460111863405,-126.85366790423762,112.66902738432486,54.75665202789969,2.4901960784313744,42.73459715639811,78.61904761904762,24.56378600823044,-18.427450980392155,-6.474509803921567,-3.0238095238095273,-16.435294117647057,24.096086410984732,661.794657601916,23.911865236676462,1118.9437367069756,61.68457118716839,2868.579359762597,1
8.896483267158267,20.434750026763737,-42.40436241610738,122.21460111863405,-126.85366790423762,112.66902738432486,54.75665202789969,0.4980392156862763,16.25118483412323,29.230158730158728,9.930041152263364,3.4862745098039234,-5.478431372549018,3.02380952380952,-8.466666666666665,9.54557575063259,87.34400081468009,23.911865236676462,1118.9437367069756,61.68457118716839,2868.579359762597,1
8.536301758366434,20.597901723584204,-42.3130393096836,122.21460111863405,-126.85366790423762,112.66902738432486,54.822268147765385,0.4980392156862763,16.25118483412323,29.230158730158728,9.930041152263364,3.4862745098039234,-5.478431372549018,3.02380952380952,-8.466666666666665,9.54557575063259,87.34400081468009,23.815747597211413,1114.8206970778533,61.70851405063396,2863.626729306113,1
8.536301758366434,20.597901723584204,-42.3130393096836,122.21460111863405,-126.85366790423762,112.66902738432486,54.822268147765385,-0.49803921568627274,25.881516587677734,-7.055555555555559,3.6584362139917594,1.4941176470588253,-22.41176470588235,-3.552713678800501e-15,4.482352941176472,8.185222858378623,103.12772148596356,23.815747597211413,1114.8206970778533,61.70851405063396,2863.626729306113,1
8.536301758366434,20.597901723584204,-42.3130393096836,122.21460111863405,-126.85366790423762,112.66902738432486,54.822268147765385,-5.478431372549018,10.232227488151668,-50.3968253968254,-23.518518518518526,-8.466666666666665,0.4980392156862763,-2.0158730158730194,-2.490196078431371,12.887097219087742,283.0359318876048,23.815747597211413,1114.8206970778533,61.70851405063396,2863.626729306113,1
8.320192853091335,20.625093673054284,-42.16083413231064,122.21460111863405,-126.85366790423762,112.66902738432486,54.822268147765385,-5.478431372549018,10.232227488151668,-50.3968253968254,-23.518518518518526,-8.466666666666665,0.4980392156862763,-2.0158730158730194,-2.490196078431371,12.887097219087742,283.0359318876048,23.702040219485422,1106.9695666784173,61.66684297466633,2865.47029147742,1
8.320192853091335,20.625093673054284,-42.16083413231064,122.21460111863405,-126.85366790423762,112.66902738432486,54.822268147765385,-3.48627450980392,27.085308056872048,-46.36507936507937,27.69958847736624,3.4862745098039234,17.43137254901961,4.031746031746028,24.403921568627453,19.248695633539825,232.352966141474,23.702040219485422,1106.9695666784173,61.66684297466633,2865.47029147742,1
8.320192853091335,20.625093673054284,-42.16083413231064,122.21460111863405,-126.85366790423762,112.66902738432486,54.822268147765385,2.4901960784313744,23.47393364928911,-14.111111111111114,-0.5226337448559768,18.42745098039216,-2.490196078431371,-3.552713678800501e-15,6.4745098039215705,8.498753930804085,80.92628523366466,23.702040219485422,1106.9695666784173,61.66684297466633,2865.47029147742,1
8.176120249574602,20.407558077293658,-42.373921380632794,122.06505740359137,-126.85366790423762,112.84891406987727,54.953500387496774,2.4901960784313744,23.47393364928911,-14.111111111111114,-0.5226337448559768,18.42745098039216,-2.490196078431371,-3.552713678800501e-15,6.4745098039215705,8.498753930804085,80.92628523366466,23.652533235833687,1107.738157179183,61.615512287172606,2861.240907780031,1
8.176120249574602,20.407558077293658,-42.373921380632794,122.06505740359137,-126.85366790423762,112.84891406987727,54.953500387496774,-2.490196078431371,16.25118483412323,-8.063492063492067,-4.703703703703713,3.4862745098039234,-3.48627450980392,-3.552713678800501e-15,-22.41176470588235,7.611611300655072,60.078460317325494,23.652533235833687,1107.738157179183,61.615512287172606,2861.240907780031,1
8.176120249574602,20.407558077293658,-42.373921380632794,122.06505740359137,-126.85366790423762,112.84891406987727,54.953500387496774,-2.490196078431371,21.066350710900483,10.079365079365076,-0.5226337448559768,4.482352941176472,-1.4941176470588218,-3.552713678800501e-15,1.4941176470588253,5.203641731105878,51.39887429545778,23.652533235833687,1107.738157179183,61.615512287172606,2861.240907780031,1
8.536301758366434,20.570709774114125,-42.22171620325983,122.06505740359137,-126.869927025989,112.84891406987727,54.953500387496774,-2.490196078431371,21.066350710900483,10.079365079365076,-0.5226337448559768,4.482352941176472,-1.4941176470588218,-3.552713678800501e-15,1.4941176470588253,5.203641731105878,51.39887429545778,23.776242578580128,1110.682020634376,61.619161126988445,2857.471302360107,1
8.536301758366434,20.570709774114125,-42.22171620325983,122.06505740359137,-126.869927025989,112.84891406987727,54.953500387496774,3.4862745098039234,-7.8246445497630255,-55.43650793650794,-2.613168724279845,-2.490196078431371,36.35686274509804,4.031746031746028,22.411764705882355,16.831395660189067,390.51598782521756,23.776242578580128,1110.682020634376,61.619161126988445,2857.471302360107,1
8.536301758366434,20.570709774114125,-42.22171620325983,122.06505740359137,-126.869927025989,112.84891406987727,54.953500387496774,5.4784313725490215,34.30805687203792,53.42063492063492,21.42798353909464,2.4901960784313744,21.415686274509806,3.02380952380952,5.4784313725490215,18.380403744202027,331.6077265103505,23.776242578580128,1110.682020634376,61.619161126988445,2857.471302360107,1
8.320192853091335,20.570709774114125,-42.3130393096836,122.06505740359137,-126.85366790423762,112.84891406987727,54.953500387496774,5.4784313725490215,34.30805687203792,53.42063492063492,21.42798353909464,2.4901960784313744,21.415686274509806,3.02380952380952,5.4784313725490215,18.380403744202027,331.6077265103505,23.734647312296357,1111.3608771526274,61.64960216246303,2855.70264740291,1
8.320192853091335,20.570709774114125,-42.3130393096836,122.06505740359137,-126.85366790423762,112.84891406987727,54.953500387496774,-3.48627450980392,16.25118483412323,-3.0238095238095273,-12.02057613168725,-7.470588235294116,-7.470588235294116,-3.0238095238095273,-17.431372549019606,8.772275442855161,34.12654451765475,23.734647312296357,1111.3608771526274,61.64960216246303,2855.70264740291,1
8.320192853091335,20.570709774114125,-42.3130393096836,122.06505740359137,-126.85366790423762,112.84891406987727,54.953500387496774,-0.49803921568627274,28.28909952606636,-3.0238095238095273,5.748971193415628,-4.482352941176469,0.4980392156862763,1.0079365079365044,-2.490196078431371,5.754805525276051,86.47564846682458,23.734647312296357,1111.3608771526274,61.64960216246303,2855.70264740291,1
8.644356211003984,20.65228562252436,-42.13039309683605,122.06505740359137,-126.869927025989,112.84891406987727,54.953500387496774,-0.49803921568627274,28.28909952606636,-3.0238095238095273,5.748971193415628,-4.482352941176469,0.4980392156862763,1.0079365079365044,-2.490196078431371,5.754805525276051,86.47564846682458,23.8090116434548,1110.6550472007484,61.61591204098392,2855.9016564717544,1
8.644356211003984,20.65228562252436,-42.13039309683605,122.06505740359137,-126.869927025989,112.84891406987727,54.953500387496774,0.4980392156862763,23.47393364928911,16.126984126984123,-1.5679012345679109,-22.41176470588235,-8.466666666666665,-2.0158730158730194,18.42745098039216,11.6235766994177,92.93679833916238,23.8090116434548,1110.6550472007484,61.61591204098392,2855.9016564717544,1
8.644356211003984,20.65228562252436,-42.13039309683605,122.06505740359137,-126.869927025989,112.84891406987727,54.953500387496774,7.4705882352941195,27.085308056872048,-17.13492063492064,-61.14814814814815,8.466666666666669,-4.482352941176469,5.039682539682536,13.447058823529414,18.034340755786253,359.7461828144757,23.8090116434548,1110.6550472007484,61.61591204098392,2855.9016564717544,1
8.968519568916633,20.951397066695222,-42.282598274209015,122.06505740359137,-126.869927025989,112.84891406987727,54.953500387496774,7.4705882352941195,27.085308056872048,-17.13492063492064,-61.14814814814815,8.466666666666669,-4.482352941176469,5.039682539682536,13.447058823529414,18.034340755786253,359.7461828144757,24.06750496994029,1128.1341000117031,61.76635091483187,2840.7055394020344,1
8.968519568916633,20.951397066695222,-42.282598274209015,122.06505740359137,-126.869927025989,112.84891406987727,54.953500387496774,-1.4941176470588218,22.270142180094794,-17.13492063492064,13.065843621399166,50.30196078431373,-6.474509803921567,-2.0158730158730194,-17.431372549019606,16.27359252957517,246.28541618945295,24.06750496994029,1128.1341000117031,61.76635091483187,2840.7055394020344,1
8.968519568916633,20.951397066695222,-42.282598274209015,122.06505740359137,-126.869927025989,112.84891406987727,54.953500387496774,-4.482352941176469,10.232227488151668,-32.25396825396825,20.382716049382704,-20.419607843137253,-6.474509803921567,-3.552713678800501e-15,-3.48627450980392,12.21645711119273,122.52324653796018,24.06750496994029,1128.1341000117031,61.76635091483187,2840.7055394020344,1
9.292682926829283,20.869821218284986,-42.25215723873442,122.36414483367673,-126.9349635129945,112.72898961284233,55.08473262722805,-4.482352941176469,10.232227488151668,-32.25396825396825,20.382716049382704,-20.419607843137253,-6.474509803921567,-3.552713678800501e-15,-3.48627450980392,12.21645711119273,122.52324653796018,24.138220461282895,1129.2141405069033,61.828707763565376,2862.7054293749115,1
9.292682926829283,20.869821218284986,-42.25215723873442,122.36414483367673,-126.9349635129945,112.72898961284233,55.08473262722805,0.4980392156862763,21.066350710900483,9.071428571428568,0.5226337448559573,-13.44705882352941,-10.458823529411763,1.0079365079365044,-12.450980392156861,8.565406436988228,55.13240965702281,24.138220461282895,1129.2141405069033,61.828707763565376,2862.7054293749115,1
9.292682926829283,20.869821218284986,-42.25215723873442,122.36414483367673,-126.9349635129945,112.72898961284233,55.08473262722805,-2.490196078431371,19.86255924170617,-3.552713678800501e-15,29.790123456790113,28.38823529411765,19.423529411764708,-3.552713678800501e-15,-4.482352941176469,13.05462455299831,161.1492713950424,24.138220461282895,1129.2141405069033,61.828707763565376,2862.7054293749115,1
9.292682926829283,21.11454876351569,-42.06951102588687,122.51368854871941,-126.95122263474587,112.54910292728992,55.019116507362355,-2.490196078431371,19.86255924170617,-3.552713678800501e-15,29.790123456790113,28.38823529411765,19.423529411764708,-3.552713678800501e-15,-4.482352941176469,13.05462455299831,161.1492713950424,24.158914238743947,1128.342815161307,61.89924944604066,2865.3602816536136,1
9.292682926829283,21.11454876351569,-42.06951102588687,122.51368854871941,-126.95122263474587,112.54910292728992,55.019116507362355,2.4901960784313744,23.47393364928911,-22.174603174603178,-9.930041152263383,-28.388235294117646,1.4941176470588253,9.071428571428568,25.400000000000002,15.302819445899011,115.67288910724558,24.158914238743947,1128.342815161307,61.89924944604066,2865.3602816536136,1
9.292682926829283,21.11454876351569,-42.06951102588687,122.51368854871941,-126.95122263474587,112.54910292728992,55.019116507362355,1.4941176470588253,40.32701421800949,63.49999999999999,3.6584362139917594,7.4705882352941195,5.4784313725490215,-1.0079365079365115,-3.48627450980392,15.802849838080455,539.3267228031523,24.158914238743947,1128.342815161307,61.89924944604066,2865.3602816536136,1
9.076574021554183,21.060164864575533,-42.13039309683605,122.51368854871941,-126.95122263474587,112.60906515580739,55.019116507362355,1.4941176470588253,40.32701421800949,63.49999999999999,3.6584362139917594,7.4705882352941195,5.4784313725490215,-1.0079365079365115,-3.48627450980392,15.802849838080455,539.3267228031523,24.089043994321923,1126.46775773856,61.901415503377,2866.374362232244,1
9.076574021554183,21.060164864575533,-42.13039309683605,122.51368854871941,-126.95122263474587,112.60906515580739,55.019116507362355,-2.490196078431371,17.454976303317544,-3.552713678800501e-15,-13.065843621399186,-10.458823529411763,0.4980392156862763,-2.0158730158730194,-16.435294117647057,7.802380735220777,54.05629316113467,24.089043994321923,1126.46775773856,61.901415503377,2866.374362232244,1
9.076574021554183,21.060164864575533,-42.13039309683605,122.51368854871941,-126.95122263474587,112.60906515580739,55.019116507362355,-0.49803921568627274,39.123222748815174,39.3095238095238,24.56378600823044,3.4862745098039234,-5.478431372549018,2.0158730158730123,6.4745098039215705,15.118707560550401,277.00580593864504,24.089043994321923,1126.46775773856,61.901415503377,2866.374362232244,1
9.400737379466833,21.11454876351569,-41.917305848513905,122.73800412128344,-126.96748175649725,112.48914069877245,54.88788426763108,-0.49803921568627274,39.123222748815174,39.3095238095238,24.56378600823044,3.4862745098039234,-5.478431372549018,2.0158730158730123,6.4745098039215705,15.118707560550401,277.00580593864504,24.14419733049881,1123.961605620335,61.92328624443768,2882.0111084146183,1
9.400737379466833,21.11454876351569,-41.917305848513905,122.73800412128344,-126.96748175649725,112.48914069877245,54.88788426763108,2.4901960784313744,43.938388625592424,32.25396825396825,-20.382716049382722,0.4980392156862763,13.447058823529414,9.071428571428568,-22.41176470588235,18.061695040487674,221.20106841970724,24.14419733049881,1123.961605620335,61.92328624443768,2882.0111084146183,1
9.400737379466833,21.11454876351569,-41.917305848513905,122.73800412128344,-126.96748175649725,112.48914069877245,54.88788426763108,-0.49803921568627274,21.066350710900483,-2.0158730158730194,4.7037037037036935,3.4862745098039234,-16.435294117647057,-1.0079365079365115,-8.466666666666665,7.210017306027203,58.47519065677621,24.14419733049881,1123.961605620335,61.92328624443768,2882.0111084146183,1
9.040555870675,20.978589016165298,-42.099952061361456,122.73800412128344,-126.98374087824862,112.48914069877245,54.953500387496774,-0.49803921568627274,21.066350710900483,-2.0158730158730194,4.7037037037036935,3.4862745098039234,-16.435294117647057,-1.0079365079365115,-8.466666666666665,7.210017306027203,58.47519065677621,24.03969898273392,1122.7950885664563,61.938848399603394,2883.930996573569,1
9.040555870675,20.978589016165298,-42.099952061361456,122.73800412128344,-126.98374087824862,112.48914069877245,54.953500387496774,1.4941176470588253,30.696682464454987,52.412698412698404,1.5679012345678913,-15.439215686274508,4.482352941176472,2.0158730158730123,-2.490196078431371,13.824879685066932,347.6821820025422,24.03969898273392,1122.7950885664563,61.938848399603394,2883.930996573569,1
9.040555870675,20.978589016165298,-42.099952061361456,122.73800412128344,-126.98374087824862,112.48914069877245,54.953500387496774,1.4941176470588253,9.028436018957354,-26.20634920634921,-8.88477366255145,-18.427450980392155,-6.474509803921567,2.0158730158730123,5.4784313725490215,9.751242713456573,72.0471845361877,24.03969898273392,1122.7950885664563,61.938848399603394,2883.930996573569,1
8.536301758366434,21.25050851086608,-42.06951102588687,122.73800412128344,-126.98374087824862,112.48914069877245,54.953500387496774,1.4941176470588253,9.028436018957354,-26.20634920634921,-8.88477366255145,-18.427450980392155,-6.474509803921567,2.0158730158730123,5.4784313725490215,9.751242713456573,72.0471845361877,23.95210709837313,1122.004035839163,62.019341219345456,2873.424734879495,1
8.536301758366434,21.25050851086608,-42.06951102588687,122.73800412128344,-126.98374087824862,112.48914069877245,54.953500387496774,-5.478431372549018,11.436018957345981,8.06349206349206,12.020576131687232,6.4745098039215705,6.4745098039215705,-3.0238095238095273,-41.33725490196078,11.788575319835967,151.4709216269634,23.95210709837313,1122.004035839163,62.019341219345456,2873.424734879495,1
8.536301758366434,21.25050851086608,-42.06951102588687,122.73800412128344,-126.98374087824862,112.48914069877245,54.953500387496774,-2.490196078431371,24.677725118483423,4.031746031746028,7.839506172839496,4.482352941176472,-4.482352941176469,3.02380952380952,-1.4941176470588218,6.565225806840201,57.092184975803875,23.95210709837313,1122.004035839163,62.019341219345456,2873.424734879495,1
9.2566647759501,21.168932662455845,-42.03906999041227,122.96231969384746,-127.0,112.36921624173752,54.88788426763108,-2.490196078431371,24.677725118483423,4.031746031746028,7.839506172839496,4.482352941176472,-4.482352941176469,3.02380952380952,-1.4941176470588218,6.565225806840201,57.092184975803875,24.154889142939407,1128.0676884643094,62.05677411557186,2891.004769662495,1
9.2566647759501,21.168932662455845,-42.03906999041227,122.96231969384746,-127.0,112.36921624173752,54.88788426763108,-3.48627450980392,12.639810426540294,15.119047619047615,56.967078189300395,21.415686274509806,-10.458823529411763,-3.552713678800501e-15,-5.478431372549018,15.695643990145353,324.708344616818,24.154889142939407,1128.0676884643094,62.05677411557186,2891.004769662495,1
9.2566647759501,21.168932662455845,-42.03906999041227,122.96231969384746,-127.0,112.36921624173752,54.88788426763108,4.482352941176472,36.71563981042655,60.47619047619047,-1.5679012345679109,4.482352941176472,-5.478431372549018,8.06349206349206,11.454901960784316,16.590157850045408,438.91861497698267,24.154889142939407,1128.0676884643094,62.05677411557186,2891.004769662495,1
8.968519568916633,21.168932662455845,-42.13039309683605,122.96231969384746,-127.0,112.36921624173752,54.88788426763108,4.482352941176472,36.71563981042655,60.47619047619047,-1.5679012345679109,4.482352941176472,-5.478431372549018,8.06349206349206,11.454901960784316,16.590157850045408,438.91861497698267,24.08928177606951,1127.7922661426965,62.08721515104646,2889.179470708236,1
8.968519568916633,21.168932662455845,-42.13039309683605,122.96231969384746,-127.0,112.36921624173752,54.88788426763108,1.4941176470588253,18.658767772511858,-17.13492063492064,-27.699588477366262,6.4745098039215705,5.4784313725490215,9.071428571428568,12.450980392156865,12.307843083989201,72.66298783266504,24.08928177606951,1127.7922661426965,62.08721515104646,2889.179470708236,1
8.968519568916633,21.168932662455845,-42.13039309683605,122.96231969384746,-127.0,112.36921624173752,54.88788426763108,-1.4941176470588218,11.436018957345981,-32.25396825396825,1.5679012345678913,-16.435294117647057,21.415686274509806,2.0158730158730123,20.419607843137257,13.37980841801351,127.63030756412118,24.08928177606951,1127.7922661426965,62.08721515104646,2889.179470708236,1
9.112592172433366,21.27770046033616,-42.00862895493768,122.96231969384746,-127.0,112.36921624173752,54.88788426763108,-1.4941176470588218,11.436018957345981,-32.25396825396825,1.5679012345678913,-16.435294117647057,21.415686274509806,2.0158730158730123,20.419607843137257,13.37980841801351,127.63030756412118,24.13297386256907,1127.7547666780872,62.082883036373765,2887.1722048605843,1
9.112592172433366,21.27770046033616,-42.00862895493768,122.96231969384746,-127.0,112.36921624173752,54.88788426763108,-1.4941176470588218,28.28909952606636,-39.30952380952381,18.292181069958836,-17.431372549019606,-6.474509803921567,-10.079365079365083,-22.41176470588235,17.972741773849556,149.69219125565064,24.13297386256907,1127.7547666780872,62.082883036373765,2887.1722048605843,1
9.112592172433366,21.27770046033616,-42.00862895493768,122.96231969384746,-127.0,112.36921624173752,54.88788426763108,1.4941176470588253,28.28909952606636,14.111111111111107,10.975308641975298,-15.439215686274508,-8.466666666666665,5.039682539682536,3.4862745098039234,10.912684541079901,73.85703721156086,24.13297386256907,1127.7547666780872,62.082883036373765,2887.1722048605843,1
8.93250141803745,21.332084359276315,-42.06951102588687,122.96231969384746,-127.0,112.36921624173752,54.88788426763108,1.4941176470588253,28.28909952606636,14.111111111111107,10.975308641975298,-15.439215686274508,-8.466666666666665,5.039682539682536,3.4862745098039234,10.912684541079901,73.85703721156086,24.11136560106688,1129.1195379718029,62.12130502633688,2883.7320155174407,1
8.93250141803745,21.332084359276315,-42.06951102588687,122.96231969384746,-127.0,112.36921624173752,54.88788426763108,-1.4941176470588218,17.454976303317544,-62.492063492063494,-3.658436213991779,-10.458823529411763,5.4784313725490215,2.0158730158730123,10.458823529411767,14.188943137959651,409.68468784302314,24.11136560106688,1129.1195379718029,62.12130502633688,2883.7320155174407,1
8.93250141803745,21.332084359276315,-42.06951102588687,122.96231969384746,-127.0,112.36921624173752,54.88788426763108,-2.490196078431371,22.270142180094794,18.14285714285714,-7.839506172839515,-1.4941176470588218,0.4980392156862763,-4.031746031746035,-15.439215686274508,9.025727519373557,71.16802303062643,24.11136560106688,1129.1195379718029,62.12130502633688,2883.7320155174407,1
9.14861032331255,21.27770046033616,-41.94774688398849,122.96231969384746,-127.0,112.42917847025498,54.822268147765385,-2.490196078431371,22.270142180094794,18.14285714285714,-7.839506172839515,-1.4941176470588218,0.4980392156862763,-4.031746031746035,-15.439215686274508,9.025727519373557,71.16802303062643,24.1246858892124,1125.901623216353,62.06258901272403,2888.39560256401,1
9.14861032331255,21.27770046033616,-41.94774688398849,122.96231969384746,-127.0,112.42917847025498,54.822268147765385,3.4862745098039234,29.492890995260673,-8.063492063492067,-8.88477366255145,41.33725490196079,0.4980392156862763,1.0079365079365044,-23.4078431372549,14.522313124243324,228.10327870180723,24.1246858892124,1125.901623216353,62.06258901272403,2888.39560256401,1
9.14861032331255,21.27770046033616,-41.94774688398849,122.96231969384746,-127.0,112.42917847025498,54.822268147765385,-3.48627450980392,12.639810426540294,-17.13492063492064,0.5226337448559573,10.458823529411767,9.462745098039218,-3.552713678800501e-15,-10.458823529411763,8.020503934122946,37.069603706263294,24.1246858892124,1125.901623216353,62.06258901272403,2888.39560256401,1
8.71639251276235,21.27770046033616,-42.099952061361456,122.96231969384746,-127.0,112.42917847025498,54.822268147765385,-3.48627450980392,12.639810426540294,-17.13492063492064,0.5226337448559573,10.458823529411767,9.462745098039218,-3.552713678800501e-15,-10.458823529411763,8.020503934122946,37.069603706263294,24.03134834481999,1126.1356953984846,62.11332407184835,2885.3417415886493,1
8.71639251276235,21.27770046033616,-42.099952061361456,122.96231969384746,-127.0,112.42917847025498,54.822268147765385,1.4941176470588253,10.232227488151668,64.5079365079365,8.88477366255143,30.380392156862747,-5.478431372549018,4.031746031746028,12.450980392156865,17.182575657376635,444.2114313409098,24.03134834481999,1126.1356953984846,62.11332407184835,2885.3417415886493,1
8.71639251276235,21.27770046033616,-42.099952061361456,122.96231969384746,-127.0,112.42917847025498,54.822268147765385,0.4980392156862763,23.47393364928911,3.02380952380952,23.518518518518505,-4.482352941176469,20.419607843137257,-3.0238095238095273,-16.435294117647057,11.859420666634215,100.669294587839,24.03134834481999,1126.1356953984846,62.11332407184835,2885.3417415886493,1
8.8244469653999,21.27770046033616,-42.00862895493768,122.96231969384746,-127.0,112.42917847025498,54.822268147765385,0.4980392156862763,23.47393364928911,3.02380952380952,23.518518518518505,-4.482352941176469,20.419607843137257,-3.0238095238095273,-16.435294117647057,11.859420666634215,100.669294587839,24.03692546022458,1124.0407701650836,62.082883036373765,2887.1722048605843,1
8.8244469653999,21.27770046033616,-42.00862895493768,122.96231969384746,-127.0,112.42917847025498,54.822268147765385,1.4941176470588253,35.51184834123224,14.111111111111107,22.473251028806573,-25.4,-11.454901960784312,3.02380952380952,40.34117647058824,19.22627701042385,203.31787561342747,24.03692546022458,1124.0407701650836,62.082883036373765,2887.1722048605843,1
8.8244469653999,21.27770046033616,-42.00862895493768,122.96231969384746,-127.0,112.42917847025498,54.822268147765385,4.482352941176472,29.492890995260673,-19.150793650793652,23.518518518518505,-5.478431372549018,-0.49803921568627274,6.047619047619044,7.4705882352941195,12.01740424711222,111.01375961303165,24.03692546022458,1124.0407701650836,62.082883036373765,2887.1722048605843,1
8.644356211003984,21.27770046033616,-41.856423777564714,122.96231969384746,-127.0,112.36921624173752,54.822268147765385,4.482352941176472,29.492890995260673,-19.150793650793652,23.518518518518505,-5.478431372549018,-0.49803921568627274,6.047619047619044,7.4705882352941195,12.01740424711222,111.01375961303165,23.926160149634953,1115.9746349437764,62.032147977249444,2890.2353324023525,1
8.644356211003984,21.27770046033616,-41.856423777564714,122.96231969384746,-127.0,112.36921624173752,54.822268147765385,0.4980392156862763,18.658767772511858,-7.055555555555559,-14.111111111111121,7.4705882352941195,0.4980392156862763,1.0079365079365044,6.4745098039215705,6.97181842721291,43.920700889589035,23.926160149634953,1115.9746349437764,62.032147977249444,2890.2353324023525,1
8.644356211003984,21.27770046033616,-41.856423777564714,122.96231969384746,-127.0,112.36921624173752,54.822268147765385,0.4980392156862763,22.270142180094794,1.0079365079365044,-26.65432098765433,-30.380392156862744,-21.415686274509802,-7.055555555555559,-11.454901960784312,15.09212185488554,135.44205596841942,23.926160149634953,1115.9746349437764,62.032147977249444,2890.2353324023525,1
8.788428814520717,21.304892409806236,-41.79554170661553,122.96231969384746,-126.98374087824862,112.42917847025498,54.822268147765385,0.4980392156862763,22.270142180094794,1.0079365079365044,-26.65432098765433,-30.380392156862744,-21.415686274509802,-7.055555555555559,-11.454901960784312,15.09212185488554,135.44205596841942,23.96295431031416,1116.1774533826954,62.020917936756405,2890.357513240593,1
8.788428814520717,21.304892409806236,-41.79554170661553,122.96231969384746,-126.98374087824862,112.42917847025498,54.822268147765385,-2.490196078431371,21.066350710900483,-44.349206349206355,9.930041152263364,7.4705882352941195,16.43529411764706,5.039682539682536,-1.4941176470588218,13.534434603810514,200.50886263916374,23.96295431031416,1116.1774533826954,62.020917936756405,2890.357513240593,1
8.788428814520717,21.304892409806236,-41.79554170661553,122.96231969384746,-126.98374087824862,112.42917847025498,54.822268147765385,0.4980392156862763,23.47393364928911,100.79365079365078,33.97119341563785,-0.49803921568627274,-5.478431372549018,-3.552713678800501e-15,-16.435294117647057,22.643572722518297,1151.8863839149344,23.96295431031416,1116.1774533826954,62.020917936756405,2890.357513240593,1
9.14861032331255,21.25050851086608,-41.917305848513905,122.88754783632612,-126.98374087824862,112.42917847025498,54.822268147765385,0.4980392156862763,23.47393364928911,100.79365079365078,33.97119341563785,-0.49803921568627274,-5.478431372549018,-3.552713678800501e-15,-16.435294117647057,22.643572722518297,1151.8863839149344,24.10547489423085,1124.0594175251686,62.01845406523537,2885.564060434231,1
9.14861032331255,21.25050851086608,-41.917305848513905,122.88754783632612,-126.98374087824862,112.42917847025498,54.822268147765385,-1.4941176470588218,23.47393364928911,23.182539682539677,17.246913580246904,-28.388235294117646,-5.478431372549018,-3.0238095238095273,-8.466666666666665,13.844330927034672,110.22187343602347,24.10547489423085,1124.0594175251686,62.01845406523537,2885.564060434231,1
9.14861032331255,21.25050851086608,-41.917305848513905,122.88754783632612,-126.98374087824862,112.42917847025498,54.822268147765385,0.4980392156862763,22.270142180094794,-18.142857142857146,-0.5226337448559768,-3.48627450980392,3.4862745098039234,5.039682539682536,52.294117647058826,13.217502686230425,316.05800421942047,24.10547489423085,1124.0594175251686,62.01845406523537,2885.564060434231,1
9.2566647759501,21.08735681404561,-42.00862895493768,123.0370915513688,-127.0,112.24929178470258,54.75665202789969,0.4980392156862763,22.270142180094794,-18.142857142857146,-0.5226337448559768,-3.48627450980392,3.4862745098039234,5.039682539682536,52.294117647058826,13.217502686230425,316.05800421942047,24.11755018164446,1124.8665059290333,62.044359106784036,2899.509965290845,1
9.2566647759501,21.08735681404561,-42.00862895493768,123.0370915513688,-127.0,112.24929178470258,54.75665202789969,-1.4941176470588218,28.28909952606636,35.27777777777777,-26.65432098765433,-22.41176470588235,-30.380392156862744,-5.039682539682543,-3.48627450980392,19.129178731348606,184.69772502831054,24.11755018164446,1124.8665059290333,62.044359106784036,2899.509965290845,1
9.2566647759501,21.08735681404561,-42.00862895493768,123.0370915513688,-127.0,112.24929178470258,54.75665202789969,-3.48627450980392,23.47393364928911,-11.08730158730159,-7.839506172839515,49.30588235294118,4.482352941176472,5.039682539682536,-5.478431372549018,13.774170640697918,248.04524323343568,24.11755018164446,1124.8665059290333,62.044359106784036,2899.509965290845,1
9.004537719795817,21.08735681404561,-42.03906999041227,123.0370915513688,-127.0,112.24929178470258,54.75665202789969,-3.48627450980392,23.47393364928911,-11.08730158730159,-7.839506172839515,49.30588235294118,4.482352941176472,5.039682539682536,-5.478431372549018,13.774170640697918,248.04524323343568,24.0436548414179,1122.7316944060935,62.05450611860889,2898.9003658040797,1
9.004537719795817,21.08735681404561,-42.03906999041227,123.0370915513688,-127.0,112.24929178470258,54.75665202789969,-0.49803921568627274,25.881516587677734,-40.317460317460316,-15.156378600823054,6.4745098039215705,4.482352941176472,-3.552713678800501e-15,-4.482352941176469,12.161576300990237,203.45501580874824,24.0436548414179,1122.7316944060935,62.05450611860889,2898.9003658040797,1
9.004537719795817,21.08735681404561,-42.03906999041227,123.0370915513688,-127.0,112.24929178470258,54.75665202789969,1.4941176470588253,23.47393364928911,7.055555555555552,5.748971193415628,9.462745098039218,-0.49803921568627274,2.0158730158730123,-3.48627450980392,6.654438735590192,55.40664074765833,24.0436548414179,1122.7316944060935,62.05450611860889,2898.9003658040797,1
9.004537719795817,21.08735681404561,-42.03906999041227,123.0370915513688,-127.0,112.24929178470258,54.75665202789969,3.4862745098039234,22.270142180094794,7.055555555555552,3.6584362139917594,-4.482352941176469,2.4901960784313744,-8.063492063492067,-30.380392156862744,10.235855212426085,106.76817189025658,24.0436548414179,1122.7316944060935,62.05450611860889,2898.9003658040797,1
8.752410663641534,21.35927630874639,-42.099952061361456,125.13070356196647,-126.75611317372935,112.42917847025498,51.73831051407899,3.4862745098039234,22.270142180094794,7.055555555555552,3.6584362139917594,-4.482352941176469,2.4901960784313744,-8.063492063492067,-30.380392156862744,10.235855212426085,106.76817189025658,24.070546344583125,1128.6615869064165,62.86331064402477,3015.46507326678,1
8.752410663641534,21.35927630874639,-42.099952061361456,125.13070356196647,-126.75611317372935,112.42917847025498,51.73831051407899,-0.49803921568627274,23.47393364928911,24.190476190476186,0.5226337448559573,11.454901960784316,7.4705882352941195,2.0158730158730123,-14.44313725490196,10.508697908395117,93.27949426259146,24.070546344583125,1128.6615869064165,62.86331064402477,3015.46507326678,1
8.752410663641534,21.35927630874639,-42.099952061361456,125.13070356196647,-126.75611317372935,112.42917847025498,51.73831051407899,0.4980392156862763,18.658767772511858,9.071428571428568,8.88477366255143,0.4980392156862763,9.462745098039218,5.039682539682536,10.458823529411767,7.821537450624741,34.97043857842407,24.070546344583125,1128.6615869064165,62.86331064402477,3015.46507326678,1
8.608338060124801,21.27770046033616,-42.16083413231064,125.13070356196647,-126.75611317372935,112.42917847025498,51.73831051407899,0.4980392156862763,18.658767772511858,9.071428571428568,8.88477366255143,0.4980392156862763,9.462745098039218,5.039682539682536,10.458823529411767,7.821537450624741,34.97043857842407,24.01562421759053,1127.078209999249,62.85641271820442,3017.5917930604874,1
8.608338060124801,21.27770046033616,-42.16083413231064,125.13070356196647,-126.75611317372935,112.42917847025498,51.73831051407899,-0.49803921568627274,18.658767772511858,-34.26984126984127,4.7037037037036935,-0.49803921568627274,-22.41176470588235,-2.0158730158730194,9.462745098039218,11.564846749652995,153.0173704851929,24.01562421759053,1127.078209999249,62.85641271820442,3017.5917930604874,1
8.608338060124801,21.27770046033616,-42.16083413231064,125.13070356196647,-126.75611317372935,112.42917847025498,51.73831051407899,2.4901960784313744,24.677725118483423,-19.150793650793652,-25.609053497942394,6.4745098039215705,-2.490196078431371,1.0079365079365044,3.4862745098039234,10.673335655718025,112.52819422329914,24.01562421759053,1127.078209999249,62.85641271820442,3017.5917930604874,1
8.788428814520717,21.27770046033616,-42.16083413231064,125.20547541948781,-126.75611317372935,112.42917847025498,51.73831051407899,2.4901960784313744,24.677725118483423,-19.150793650793652,-25.609053497942394,6.4745098039215705,-2.490196078431371,1.0079365079365044,3.4862745098039234,10.673335655718025,112.52819422329914,24.075654469055838,1129.3761620551295,62.88133667071153,3022.2500210729254,1
8.788428814520717,21.27770046033616,-42.16083413231064,125.20547541948781,-126.75611317372935,112.42917847025498,51.73831051407899,-2.490196078431371,12.639810426540294,-58.46031746031746,-20.382716049382722,5.4784313725490215,-3.48627450980392,2.0158730158730123,-7.470588235294116,14.053025893523989,360.16716771217233,24.075654469055838,1129.3761620551295,62.88133667071153,3022.2500210729254,1
8.788428814520717,21.27770046033616,-42.16083413231064,125.20547541948781,-126.75611317372935,112.42917847025498,51.73831051407899,-7.470588235294116,17.454976303317544,-18.142857142857146,-26.65432098765433,1.4941176470588253,-2.490196078431371,-3.0238095238095273,-29.384313725490195,13.264397455489132,124.79469161411889,24.075654469055838,1129.3761620551295,62.88133667071153,3022.2500210729254,1
8.896483267158267,21.413660207686547,-42.099952061361456,125.28024727700915,-126.73985405197797,112.30925401322004,51.607078274347714,-7.470588235294116,17.454976303317544,-18.142857142857146,-26.65432098765433,1.4941176470588253,-2.490196078431371,-3.0238095238095273,-29.384313725490195,13.264397455489132,124.79469161411889,24.136698512068758,1131.882513039892,62.93128651535238,3022.5253487078157,1
8.896483267158267,21.413660207686547,-42.099952061361456,125.28024727700915,-126.73985405197797,112.30925401322004,51.607078274347714,3.4862745098039234,36.71563981042655,44.34920634920634,-12.02057613168725,-11.454901960784312,-18.427450980392155,-2.0158730158730194,-8.466666666666665,17.117073678105026,239.15984251456553,24.136698512068758,1131.882513039892,62.93128651535238,3022.5253487078157,1
8.896483267158267,21.413660207686547,-42.099952061361456,125.28024727700915,-126.73985405197797,112.30925401322004,51.607078274347714,-0.49803921568627274,18.658767772511858,-6.047619047619051,5.748971193415628,-13.44705882352941,14.443137254901963,5.039682539682536,0.4980392156862763,8.047664382879125,44.996693649940816,24.136698512068758,1131.882513039892,62.93128651535238,3022.5253487078157,1
9.040555870675,21.413660207686547,-42.13039309683605,125.42979099205184,-126.7235949302266,112.1893295561851,51.475846034616325,-0.49803921568627274,18.658767772511858,-6.047619047619051,5.748971193415628,-13.44705882352941,14.443137254901963,5.039682539682536,0.4980392156862763,8.047664382879125,44.996693649940816,24.194869725065868,1134.9010732563672,62.99128143219148,3031.221362442672,1
9.040555870675,21.413660207686547,-42.13039309683605,125.42979099205184,-126.7235949302266,112.1893295561851,51.475846034616325,-3.48627450980392,35.51184834123224,21.166666666666664,12.020576131687232,-32.372549019607845,-0.49803921568627274,-1.0079365079365115,-6.474509803921567,14.067300024567782,196.26017961808546,24.194869725065868,1134.9010732563672,62.99128143219148,3031.221362442672,1
9.040555870675,21.413660207686547,-42.13039309683605,125.42979099205184,-126.7235949302266,112.1893295561851,51.475846034616325,1.4941176470588253,22.270142180094794,22.17460317460317,28.744855967078177,19.423529411764708,-18.427450980392155,-1.0079365079365115,8.466666666666669,15.251162816949376,106.41892536060102,24.194869725065868,1134.9010732563672,62.99128143219148,3031.221362442672,1
9.72490073737948,21.27770046033616,-42.282598274209015,125.65410656461586,-126.7235949302266,111.94948064211523,51.34461379488505,1.4941176470588253,22.270142180094794,22.17460317460317,28.744855967078177,19.423529411764708,-18.427450980392155,-1.0079365079365115,8.466666666666669,15.251162816949376,106.41892536060102,24.428399823974885,1146.3597850172919,63.071468433053674,3047.741379672356,1
9.72490073737948,21.27770046033616,-42.282598274209015,125.65410656461586,-126.7235949302266,111.94948064211523,51.34461379488505,-2.490196078431371,-0.6018957345971465,-22.174603174603178,8.88477366255143,-11.454901960784312,-7.470588235294116,-6.047619047619051,-11.454901960784312,8.822434981833116,44.192236355666985,24.428399823974885,1146.3597850172919,63.071468433053674,3047.741379672356,1
9.72490073737948,21.27770046033616,-42.282598274209015,125.65410656461586,-126.7235949302266,111.94948064211523,51.34461379488505,-2.490196078431371,36.71563981042655,29.230158730158728,-3.658436213991779,-40.34117647058824,-0.49803921568627274,4.031746031746028,37.352941176470594,19.289791715937447,326.34469360785994,24.428399823974885,1146.3597850172919,63.071468433053674,3047.741379672356,1
9.904991491775396,21.11454876351569,-42.282598274209015,125.87842213717988,-126.77237229548072,111.70963172804535,51.34461379488505,-2.490196078431371,36.71563981042655,29.230158730158728,-3.658436213991779,-40.34117647058824,-0.49803921568627274,4.031746031746028,37.352941176470594,19.289791715937447,326.34469360785994,24.434046176500033,1144.7328253889987,63.09185639163487,3068.636208611526,1
9.904991491775396,21.11454876351569,-42.282598274209015,125.87842213717988,-126.77237229548072,111.70963172804535,51.34461379488505,0.4980392156862763,22.270142180094794,37.29365079365079,25.609053497942377,9.462745098039218,-4.482352941176469,3.02380952380952,14.443137254901963,14.635366313162676,165.23976855393508,24.434046176500033,1144.7328253889987,63.09185639163487,3068.636208611526,1
9.904991491775396,21.11454876351569,-42.282598274209015,125.87842213717988,-126.77237229548072,111.70963172804535,51.34461379488505,-1.4941176470588218,13.843601895734606,-25.198412698412703,18.292181069958836,10.458823529411767,3.4862745098039234,4.031746031746028,-10.458823529411763,10.907997613942307,65.53562307161725,24.434046176500033,1144.7328253889987,63.09185639163487,3068.636208611526,1
9.076574021554183,21.196124611925924,-42.191275167785236,125.87842213717988,-126.77237229548072,111.64966949952787,51.34461379488505,-1.4941176470588218,13.843601895734606,-25.198412698412703,18.292181069958836,10.458823529411767,3.4862745098039234,4.031746031746028,-10.458823529411763,10.907997613942307,65.53562307161725,24.154657933755114,1132.2063863077262,63.088607305630354,3067.1197216510086,1
9.076574021554183,21.196124611925924,-42.191275167785236,125.87842213717988,-126.77237229548072,111.64966949952787,51.34461379488505,-3.48627450980392,23.47393364928911,7.055555555555552,12.020576131687232,2.4901960784313744,-3.48627450980392,1.0079365079365044,-17.431372549019606,8.806514936440902,65.74871635308443,24.154657933755114,1132.2063863077262,63.088607305630354,3067.1197216510086,1
9.076574021554183,21.196124611925924,-42.191275167785236,125.87842213717988,-126.77237229548072,111.64966949952787,51.34461379488505,-3.48627450980392,13.843601895734606,-38.301587301587304,7.839506172839496,-10.458823529411763,-7.470588235294116,2.0158730158730123,9.462745098039218,11.609874969822929,130.39418039261605,24.154657933755114,1132.2063863077262,63.088607305630354,3067.1197216510086,1
8.680374361883167,21.08735681404561,-42.22171620325983,125.87842213717988,-126.77237229548072,111.64966949952787,51.34461379488505,-3.48627450980392,13.843601895734606,-38.301587301587304,7.839506172839496,-10.458823529411763,-7.470588235294116,2.0158730158730123,9.462745098039218,11.609874969822929,130.39418039261605,23.996482459729535,1125.4991272967998,63.062498384828444,3071.0454943440395,1
8.680374361883167,21.08735681404561,-42.22171620325983,125.87842213717988,-126.77237229548072,111.64966949952787,51.34461379488505,0.4980392156862763,36.71563981042655,-28.222222222222225,-2.613168724279845,35.36078431372549,17.43137254901961,4.031746031746028,7.4705882352941195,16.542945137800018,226.9369911290918,23.996482459729535,1125.4991272967998,63.062498384828444,3071.0454943440395,1
8.680374361883167,21.08735681404561,-42.22171620325983,125.87842213717988,-126.77237229548072,111.64966949952787,51.34461379488505,0.4980392156862763,27.085308056872048,44.34920634920634,9.930041152263364,14.443137254901963,3.4862745098039234,3.02380952380952,4.482352941176472,13.412271125464988,230.0286969127846,23.996482459729535,1125.4991272967998,63.062498384828444,3071.0454943440395,1
9.004537719795817,20.869821218284986,-42.25215723873442,125.87842213717988,-126.77237229548072,111.70963172804535,51.34461379488505,0.4980392156862763,27.085308056872048,44.34920634920634,9.930041152263364,14.443137254901963,3.4862745098039234,3.02380952380952,4.482352941176472,13.412271125464988,230.0286969127846,24.042172058938405,1125.4029824832933,63.00013353139976,3079.560456916686,1
9.004537719795817,20.869821218284986,-42.25215723873442,125.87842213717988,-126.77237229548072,111.70963172804535,51.34461379488505,-1.4941176470588218,18.658767772511858,8.06349206349206,-6.794238683127581,-39.345098039215685,0.4980392156862763,-3.0238095238095273,15.439215686274512,11.66459732889704,166.97978956143317,24.042172058938405,1125.4029824832933,63.00013353139976,3079.560456916686,1
9.004537719795817,20.869821218284986,-42.25215723873442,125.87842213717988,-126.77237229548072,111.70963172804535,51.34461379488505,5.4784313725490215,27.085308056872048,2.0158730158730123,-8.88477366255145,12.450980392156865,28.38823529411765,2.0158730158730123,3.4862745098039234,11.225718664974622,116.51895190612832,24.042172058938405,1125.4029824832933,63.00013353139976,3079.560456916686,1
9.004537719795817,20.951397066695222,-42.3434803451582,125.87842213717988,-126.77237229548072,111.70963172804535,51.34461379488505,5.4784313725490215,27.085308056872048,2.0158730158730123,-8.88477366255145,12.450980392156865,28.38823529411765,2.0158730158730123,3.4862745098039234,11.225718664974622,116.51895190612832,24.09980504388308,1130.9313190058324,63.05776651634443,3074.231386221877,1
9.004537719795817,20.951397066695222,-42.3434803451582,125.87842213717988,-126.77237229548072,111.70963172804535,51.34461379488505,2.4901960784313744,11.436018957345981,-8.063492063492067,12.020576131687232,23.407843137254904,8.466666666666669,7.055555555555552,23.407843137254904,12.043523965961086,57.63507915238658,24.09980504388308,1130.9313190058324,63.05776651634443,3074.231386221877,1
9.004537719795817,20.951397066695222,-42.3434803451582,125.87842213717988,-126.77237229548072,111.70963172804535,51.34461379488505,0.4980392156862763,36.71563981042655,33.26190476190476,-56.967078189300416,-4.482352941176469,9.462745098039218,4.031746031746028,5.4784313725490215,18.862242177603594,429.93119069723633,24.09980504388308,1130.9313190058324,63.05776651634443,3074.231386221877,1
9.112592172433366,21.11454876351569,-42.43480345158198,125.87842213717988,-126.77237229548072,111.70963172804535,51.34461379488505,0.4980392156862763,36.71563981042655,33.26190476190476,-56.967078189300416,-4.482352941176469,9.462745098039218,4.031746031746028,5.4784313725490215,18.862242177603594,429.93119069723633,24.22064812917701,1139.95018743192,63.14259145075919,3065.476653927437,1
9.112592172433366,21.11454876351569,-42.43480345158198,125.87842213717988,-126.77237229548072,111.70963172804535,51.34461379488505,0.4980392156862763,21.066350710900483,-10.079365079365083,2.6131687242798254,3.4862745098039234,-0.49803921568627274,4.031746031746028,-4.482352941176469,5.844417053580545,46.8503368460108,24.22064812917701,1139.95018743192,63.14259145075919,3065.476653927437,1
9.112592172433366,21.11454876351569,-42.43480345158198,125.87842213717988,-126.77237229548072,111.70963172804535,51.34461379488505,0.4980392156862763,17.454976303317544,-13.103174603174606,13.065843621399166,11.454901960784316,-4.482352941176469,1.0079365079365044,-2.490196078431371,7.944677653988281,42.98767859387852,24.22064812917701,1139.95018743192,63.14259145075919,3065.476653927437,1
9.2566647759501,21.11454876351569,-42.40436241610738,126.02796585222256,-126.7886314172321,111.58970727101041,51.278997675019355,0.4980392156862763,17.454976303317544,-13.103174603174606,13.065843621399166,11.454901960784316,-4.482352941176469,1.0079365079365044,-2.490196078431371,7.944677653988281,42.98767859387852,24.25852531852439,1140.6872034409855,63.182292343948546,3075.498050371951,1
9.2566647759501,21.11454876351569,-42.40436241610738,126.02796585222256,-126.7886314172321,111.58970727101041,51.278997675019355,-5.478431372549018,4.213270142180104,-20.15873015873016,1.5679012345678913,8.466666666666669,-2.490196078431371,3.02380952380952,-1.4941176470588218,5.861640352999195,38.712611856902456,24.25852531852439,1140.6872034409855,63.182292343948546,3075.498050371951,1
9.2566647759501,21.11454876351569,-42.40436241610738,126.02796585222256,-126.7886314172321,111.58970727101041,51.278997675019355,-0.49803921568627274,24.677725118483423,12.095238095238091,-28.744855967078195,-2.490196078431371,-6.474509803921567,-2.0158730158730194,-3.48627450980392,10.060338975564482,119.49350492717274,24.25852531852439,1140.6872034409855,63.182292343948546,3075.498050371951,1
9.076574021554183,21.08735681404561,-42.40436241610738,126.02796585222256,-126.7886314172321,111.58970727101041,51.278997675019355,-0.49803921568627274,24.677725118483423,12.095238095238091,-28.744855967078195,-2.490196078431371,-6.474509803921567,-2.0158730158730194,-3.48627450980392,10.060338975564482,119.49350492717274,24.18943108390239,1137.6240217645898,63.17322836079185,3076.6422007970828,1
9.076574021554183,21.08735681404561,-42.40436241610738,126.02796585222256,-126.7886314172321,111.58970727101041,51.278997675019355,4.482352941176472,35.51184834123224,7.055555555555552,5.748971193415628,13.447058823529414,20.419607843137257,2.0158730158730123,-20.419607843137253,13.637609444632105,127.84959536003801,24.18943108390239,1137.6240217645898,63.17322836079185,3076.6422007970828,1
9.076574021554183,21.08735681404561,-42.40436241610738,126.02796585222256,-126.7886314172321,111.58970727101041,51.278997675019355,3.4862745098039234,27.085308056872048,37.29365079365079,36.061728395061714,-3.48627450980392,-1.4941176470588218,10.079365079365076,-7.470588235294116,15.807163403363802,229.98444777879806,24.18943108390239,1137.6240217645898,63.17322836079185,3076.6422007970828,1
9.436755530346016,21.08735681404561,-42.465244487056566,126.1027377097439,-126.80489053898347,111.28989612842307,51.41022991475063,3.4862745098039234,27.085308056872048,37.29365079365079,36.061728395061714,-3.48627450980392,-1.4941176470588218,10.079365079365076,-7.470588235294116,15.807163403363802,229.98444777879806,24.32978561048273,1144.7478747025089,63.218446336948695,3080.079096433923,1
9.436755530346016,21.08735681404561,-42.465244487056566,126.1027377097439,-126.80489053898347,111.28989612842307,51.41022991475063,-2.490196078431371,27.085308056872048,29.230158730158728,-8.88477366255145,-9.462745098039214,2.4901960784313744,-3.0238095238095273,-19.423529411764704,12.761339580007302,121.78622980073109,24.32978561048273,1144.7478747025089,63.218446336948695,3080.079096433923,1
9.436755530346016,21.08735681404561,-42.465244487056566,126.1027377097439,-126.80489053898347,111.28989612842307,51.41022991475063,-3.48627450980392,3.0094786729857894,-44.349206349206355,9.930041152263364,-9.462745098039214,-12.450980392156861,-3.0238095238095273,-2.490196078431371,11.02534147208705,196.302659197667,24.32978561048273,1144.7478747025089,63.218446336948695,3080.079096433923,1
9.076574021554183,21.060164864575533,-42.3434803451582,126.1027377097439,-126.80489053898347,111.28989612842307,51.41022991475063,-3.48627450980392,3.0094786729857894,-44.349206349206355,9.930041152263364,-9.462745098039214,-12.450980392156861,-3.0238095238095273,-2.490196078431371,11.02534147208705,196.302659197667,24.160073077095973,1134.608444408399,63.16879430649254,3083.7558036742366,1
9.076574021554183,21.060164864575533,-42.3434803451582,126.1027377097439,-126.80489053898347,111.28989612842307,51.41022991475063,2.4901960784313744,29.492890995260673,37.29365079365079,23.518518518518505,-9.462745098039214,-4.482352941176469,-2.0158730158730194,3.4862745098039234,14.030312743844245,195.86061138928247,24.160073077095973,1134.608444408399,63.16879430649254,3083.7558036742366,1
9.076574021554183,21.060164864575533,-42.3434803451582,126.1027377097439,-126.80489053898347,111.28989612842307,51.41022991475063,-0.49803921568627274,7.8246445497630415,10.079365079365076,31.880658436213977,-2.490196078431371,2.4901960784313744,-2.0158730158730194,2.4901960784313744,7.4711460665244385,107.93798189780638,24.160073077095973,1134.608444408399,63.16879430649254,3083.7558036742366,1
7.779920589903587,20.65228562252436,-42.3434803451582,125.87842213717988,-126.75611317372935,111.52974504249295,51.34461379488505,-0.49803921568627274,7.8246445497630415,10.079365079365076,31.880658436213977,-2.490196078431371,2.4901960784313744,-2.0158730158730194,2.4901960784313744,7.4711460665244385,107.93798189780638,23.59189551919538,1107.7532721141704,62.958062701620804,3086.8557057487646,1
7.779920589903587,20.65228562252436,-42.3434803451582,125.87842213717988,-126.75611317372935,111.52974504249295,51.34461379488505,-4.482352941176469,3.0094786729857894,-104.82539682539682,-3.658436213991779,19.423529411764708,-3.48627450980392,3.02380952380952,48.30980392156863,23.777385252562205,1320.056030437168,23.59189551919538,1107.7532721141704,62.958062701620804,3086.8557057487646,1
7.779920589903587,20.65228562252436,-42.3434803451582,125.87842213717988,-126.75611317372935,111.52974504249295,51.34461379488505,-8.466666666666665,5.417061611374418,-18.142857142857146,4.7037037037036935,12.450980392156865,-2.490196078431371,1.0079365079365044,-2.490196078431371,6.896199772694755,34.32878944184053,23.59189551919538,1107.7532721141704,62.958062701620804,3086.8557057487646,1
8.752410663641534,20.733861470934595,-42.00862895493768,125.87842213717988,-126.75611317372935,111.58970727101041,51.34461379488505,-8.466666666666665,5.417061611374418,-18.142857142857146,4.7037037037036935,12.450980392156865,-2.490196078431371,1.0079365079365044,-2.490196078431371,6.896199772694755,34.32878944184053,23.8316336965046,1109.476401907871,62.87363752101738,3090.3560962713686,1
8.752410663641534,20.733861470934595,-42.00862895493768,125.87842213717988,-126.75611317372935,111.58970727101041,51.34461379488505,6.4745098039215705,28.28909952606636,-11.08730158730159,-33.97119341563787,-42.33333333333333,7.4705882352941195,9.071428571428568,7.4705882352941195,18.27100533853469,204.9352691030555,23.8316336965046,1109.476401907871,62.87363752101738,3090.3560962713686,1
8.752410663641534,20.733861470934595,-42.00862895493768,125.87842213717988,-126.75611317372935,111.58970727101041,51.34461379488505,2.4901960784313744,27.085308056872048,23.182539682539677,17.246913580246904,1.4941176470588253,-0.49803921568627274,1.0079365079365044,4.482352941176472,9.685925463743509,121.10740014358342,23.8316336965046,1109.476401907871,62.87363752101738,3090.3560962713686,1
8.71639251276235,20.978589016165298,-42.13039309683605,125.87842213717988,-126.75611317372935,111.58970727101041,51.278997675019355,2.4901960784313744,27.085308056872048,23.182539682539677,17.246913580246904,1.4941176470588253,-0.49803921568627274,1.0079365079365044,4.482352941176472,9.685925463743509,121.10740014358342,23.941791541921233,1119.7501155426091,62.99580141672708,3077.5176954710105,1
8.71639251276235,20.978589016165298,-42.13039309683605,125.87842213717988,-126.75611317372935,111.58970727101041,51.278997675019355,-1.4941176470588218,27.085308056872048,31.24603174603174,7.839506172839496,-4.482352941176469,15.439215686274512,-2.0158730158730194,-4.482352941176469,11.760594775912821,135.6774345604393,23.941791541921233,1119.7501155426091,62.99580141672708,3077.5176954710105,1
8.71639251276235,20.978589016165298,-42.13039309683605,125.87842213717988,-126.75611317372935,111.58970727101041,51.278997675019355,-0.49803921568627274,25.881516587677734,21.166666666666664,9.930041152263364,-6.474509803921567,4.482352941176472,3.02380952380952,-15.439215686274508,10.862018947184513,83.19862346628481,23.941791541921233,1119.7501155426091,62.99580141672708,3077.5176954710105,1
9.472773681225199,21.005780965635378,-42.13039309683605,126.02796585222256,-126.75611317372935,111.52974504249295,51.21338155515366,-0.49803921568627274,25.881516587677734,21.166666666666664,9.930041152263364,-6.474509803921567,4.482352941176472,3.02380952380952,-15.439215686274508,10.862018947184513,83.19862346628481,24.20298258123221,1130.3455922988924,63.054713304898,3085.7852117152574,1
9.472773681225199,21.005780965635378,-42.13039309683605,126.02796585222256,-126.75611317372935,111.52974504249295,51.21338155515366,1.4941176470588253,18.658767772511858,15.119047619047615,-13.065843621399186,3.4862745098039234,-20.419607843137253,-3.0238095238095273,26.39607843137255,12.707943371017592,84.68002143234578,24.20298258123221,1130.3455922988924,63.054713304898,3085.7852117152574,1
9.472773681225199,21.005780965635378,-42.13039309683605,126.02796585222256,-126.75611317372935,111.52974504249295,51.21338155515366,-5.478431372549018,31.900473933649298,12.095238095238091,21.42798353909464,12.450980392156865,3.4862745098039234,-3.0238095238095273,2.4901960784313744,11.544173430591592,109.92695889880886,24.20298258123221,1130.3455922988924,63.054713304898,3085.7852117152574,1
9.760918888258663,20.842629268814907,-42.03906999041227,126.25228142478659,-126.7886314172321,111.40982058545801,51.147765435287965,-5.478431372549018,31.900473933649298,12.095238095238091,21.42798353909464,12.450980392156865,3.4862745098039234,-3.0238095238095273,2.4901960784313744,11.544173430591592,109.92695889880886,24.214206049161948,1126.6918757528088,63.04466022800458,3108.7248078329612,1
9.760918888258663,20.842629268814907,-42.03906999041227,126.25228142478659,-126.7886314172321,111.40982058545801,51.147765435287965,-5.478431372549018,29.492890995260673,53.42063492063492,23.518518518518505,3.4862745098039234,-8.466666666666665,-3.552713678800501e-15,-19.423529411764704,17.9108682993998,314.49245735657104,24.214206049161948,1126.6918757528088,63.04466022800458,3108.7248078329612,1
9.760918888258663,20.842629268814907,-42.03906999041227,126.25228142478659,-126.7886314172321,111.40982058545801,51.147765435287965,1.4941176470588253,34.30805687203792,-15.11904761904762,14.1111111111111,-8.466666666666665,-10.458823529411763,3.02380952380952,20.419607843137257,13.425155101535085,110.32587687726017,24.214206049161948,1126.6918757528088,63.04466022800458,3108.7248078329612,1
9.328701077708466,21.032972915105454,-41.73465963566635,126.47659699735061,-126.80489053898347,111.34985835694053,51.08214931542227,1.4941176470588253,34.30805687203792,-15.11904761904762,14.1111111111111,-8.466666666666665,-10.458823529411763,3.02380952380952,20.419607843137257,13.425155101535085,110.32587687726017,24.032111209493422,1114.0387471027702,63.08140984937413,3121.352273414283,1
9.328701077708466,21.032972915105454,-41.73465963566635,126.47659699735061,-126.80489053898347,111.34985835694053,51.08214931542227,0.4980392156862763,37.919431279620866,18.14285714285714,4.7037037037036935,-11.454901960784312,-34.364705882352936,3.02380952380952,35.36078431372549,18.18352912781753,245.13854768014275,24.032111209493422,1114.0387471027702,63.08140984937413,3121.352273414283,1
9.328701077708466,21.032972915105454,-41.73465963566635,126.47659699735061,-126.80489053898347,111.34985835694053,51.08214931542227,22.411764705882355,21.066350710900483,-26.20634920634921,-26.65432098765433,11.454901960784316,11.454901960784316,9.071428571428568,-17.431372549019606,18.2189238316004,48.06336200326734,24.032111209493422,1114.0387471027702,63.08140984937413,3121.352273414283,1
8.536301758366434,21.08735681404561,-41.64333652924257,126.70091256991464,-126.80489053898347,111.52974504249295,50.819684835959606,22.411764705882355,21.066350710900483,-26.20634920634921,-26.65432098765433,11.454901960784316,11.454901960784316,9.071428571428568,-17.431372549019606,18.2189238316004,48.06336200326734,23.75566503388487,1101.7774948359374,63.14386863773427,3135.260450560726,1
8.536301758366434,21.08735681404561,-41.64333652924257,126.70091256991464,-126.80489053898347,111.52974504249295,50.819684835959606,-18.427450980392155,-0.6018957345971465,-18.142857142857146,-6.794238683127581,2.4901960784313744,25.400000000000002,-23.182539682539684,-35.36078431372549,16.299995326958822,146.98795447883617,23.75566503388487,1101.7774948359374,63.14386863773427,3135.260450560726,1
8.536301758366434,21.08735681404561,-41.64333652924257,126.70091256991464,-126.80489053898347,111.52974504249295,50.819684835959606,-6.474509803921567,16.25118483412323,-23.182539682539684,-7.839506172839515,-16.435294117647057,66.23921568627452,32.25396825396825,76.2,30.609527318914225,701.9820061394186,23.75566503388487,1101.7774948359374,63.14386863773427,3135.260450560726,1
7.779920589903587,21.223316561396,-41.552013422818796,127.0,-126.80489053898347,112.06940509915016,50.49160423663136,-6.474509803921567,16.25118483412323,-23.182539682539684,-7.839506172839515,-16.435294117647057,66.23921568627452,32.25396825396825,76.2,30.609527318914225,701.9820061394186,23.518416858039462,1092.5177772181653,63.25844332807159,3150.5535142414,1
7.779920589903587,21.223316561396,-41.552013422818796,127.0,-126.80489053898347,112.06940509915016,50.49160423663136,20.419607843137257,60.7914691943128,60.47619047619047,31.880658436213977,-10.458823529411763,95.12549019607843,30.238095238095234,-49.305882352941175,44.83702715829764,743.870769407433,23.518416858039462,1092.5177772181653,63.25844332807159,3150.5535142414,1
7.779920589903587,21.223316561396,-41.552013422818796,127.0,-126.80489053898347,112.06940509915016,50.49160423663136,-22.41176470588235,25.881516587677734,27.214285714285708,51.740740740740726,30.380392156862747,-6.474509803921567,-25.198412698412703,-68.23137254901961,32.19162436960039,364.97485261003885,23.518416858039462,1092.5177772181653,63.25844332807159,3150.5535142414,1
5.402722631877495,22.501338186489676,-41.64333652924257,126.92522814247866,-126.6585584432211,112.72898961284233,49.70421079824325,-22.41176470588235,25.881516587677734,27.214285714285708,51.740740740740726,30.380392156862747,-6.474509803921567,-25.198412698412703,-68.23137254901961,32.19162436960039,364.97485261003885,23.182465782536582,1103.3722718105223,63.68996761940363,3090.6276552043664,1
5.402722631877495,22.501338186489676,-41.64333652924257,126.92522814247866,-126.6585584432211,112.72898961284233,49.70421079824325,16.43529411764706,-6.620853080568711,-101.8015873015873,24.56378600823044,21.415686274509806,2.4901960784313744,19.150793650793645,13.447058823529414,25.740656916912222,998.9507119844908,23.182465782536582,1103.3722718105223,63.68996761940363,3090.6276552043664,1
5.402722631877495,22.501338186489676,-41.64333652924257,126.92522814247866,-126.6585584432211,112.72898961284233,49.70421079824325,-19.423529411764704,-24.6777251184834,-21.16666666666667,19.33744855967077,-3.48627450980392,-36.35686274509804,64.5079365079365,95.12549019607843,35.510241714437804,894.9312156637433,23.182465782536582,1103.3722718105223,63.68996761940363,3090.6276552043664,1
0.6123085649461277,22.90921742854085,-43.287152444870564,124.90638798940245,-126.10574830367432,113.7483474976393,48.78558512012398,-19.423529411764704,-24.6777251184834,-21.16666666666667,19.33744855967077,-3.48627450980392,-36.35686274509804,64.5079365079365,95.12549019607843,35.510241714437804,894.9312156637433,22.26955947945251,1134.3790343735593,63.70091928760462,2913.3971081375043,1
0.6123085649461277,22.90921742854085,-43.287152444870564,124.90638798940245,-126.10574830367432,113.7483474976393,48.78558512012398,-16.435294117647057,5.417061611374418,-88.6984126984127,17.246913580246904,12.450980392156865,-111.06274509803922,-21.16666666666667,-55.28235294117647,40.970053388215035,1575.7274687657716,22.26955947945251,1134.3790343735593,63.70091928760462,2913.3971081375043,1
0.6123085649461277,22.90921742854085,-43.287152444870564,124.90638798940245,-126.10574830367432,113.7483474976393,48.78558512012398,-31.376470588235293,-27.08530805687203,-96.76190476190476,-31.880658436214,17.43137254901961,37.352941176470594,-52.41269841269842,-113.05490196078432,50.91953199277488,1226.078040488764,22.26955947945251,1134.3790343735593,63.70091928760462,2913.3971081375043,1
-10.049064095292103,21.196124611925924,-47.27492809204219,119.07418310273772,-125.06516451158623,115.66713881019832,48.98243347972095,-31.376470588235293,-27.08530805687203,-96.76190476190476,-31.880658436214,17.43137254901961,37.352941176470594,-52.41269841269842,-113.05490196078432,50.91953199277488,1226.078040488764,26.173372266420074,1175.0519710072963,62.515078602235285,2569.2252241626975,1
-10.049064095292103,21.196124611925924,-47.27492809204219,119.07418310273772,-125.06516451158623,115.66713881019832,48.98243347972095,4.482352941176472,36.71563981042655,84.66666666666666,5.748971193415628,-34.364705882352936,-92.13725490196079,-19.150793650793652,-68.23137254901961,43.18721969947654,1191.57387063807,26.173372266420074,1175.0519710072963,62.515078602235285,2569.2252241626975,1
-10.049064095292103,21.196124611925924,-47.27492809204219,119.07418310273772,-125.06516451158623,115.66713881019832,48.98243347972095,-19.423529411764704,-1.8056872037914609,-65.51587301587301,-46.51440329218107,-11.454901960784312,16.43529411764706,-43.34126984126984,-127.0,41.436369855413936,1644.210100072649,26.173372266420074,1175.0519710072963,62.515078602235285,2569.2252241626975,1
-35.1537152580828,21.11454876351569,-51.01917545541707,106.43773918163083,-122.62629624887978,121.48347497639284,48.52312064066132,-19.423529411764704,-1.8056872037914609,-65.51587301587301,-46.51440329218107,-11.454901960784312,16.43529411764706,-43.34126984126984,-127.0,41.436369855413936,1644.210100072649,35.76247982567185,1436.8507554950932,59.52382113352119,1874.258454364055,1
-35.1537152580828,21.11454876351569,-51.01917545541707,106.43773918163083,-122.62629624887978,121.48347497639284,48.52312064066132,-9.462745098039214,12.639810426540294,74.58730158730158,-29.790123456790127,-27.392156862745097,-36.35686274509804,5.039682539682536,15.439215686274512,26.338487300308923,498.03108103916594,35.76247982567185,1436.8507554950932,59.52382113352119,1874.258454364055,1
-35.1537152580828,21.11454876351569,-51.01917545541707,106.43773918163083,-122.62629624887978,121.48347497639284,48.52312064066132,12.450980392156865,98.1090047393365,-8.063492063492067,47.55967078189299,-12.450980392156861,-70.2235294117647,9.071428571428568,59.266666666666666,39.6494691273619,1173.1288980044628,35.76247982567185,1436.8507554950932,59.52382113352119,1874.258454364055,1
-36.34231423709585,27.042393747992726,-53.119606903163955,92.60494554018248,-119.21188068109078,127.00000000000003,45.30793076724353,12.450980392156865,98.1090047393365,-8.063492063492067,47.55967078189299,-12.450980392156861,-70.2235294117647,9.071428571428568,59.266666666666666,39.6494691273619,1173.1288980044628,38.83477162941751,1787.5075173256496,57.588982063779724,1089.593535120638,1
-36.34231423709585,27.042393747992726,-53.119606903163955,92.60494554018248,-119.21188068109078,127.00000000000003,45.30793076724353,7.4705882352941195,27.085308056872048,59.46825396825396,69.51028806584361,-57.27450980392157,38.34901960784314,13.1031746031746,75.20392156862745,43.433132988728815,663.488632936751,38.83477162941751,1787.5075173256496,57.588982063779724,1089.593535120638,1
-36.34231423709585,27.042393747992726,-53.119606903163955,92.60494554018248,-119.21188068109078,127.00000000000003,45.30793076724353,19.423529411764708,43.938388625592424,35.27777777777777,37.10699588477365,-38.34901960784313,12.450980392156865,16.126984126984123,30.380392156862747,29.13175849796943,135.53621073248908,38.83477162941751,1787.5075173256496,57.588982063779724,1089.593535120638,1
-10.517300056721485,35.988545123648436,-48.30992329817833,82.73506034736533,-115.78120599155037,124.18177525967897,40.583570136915455,19.423529411764708,43.938388625592424,35.27777777777777,37.10699588477365,-38.34901960784313,12.450980392156865,16.126984126984123,30.380392156862747,29.13175849796943,135.53621073248908,31.605256159516085,1782.884630946161,55.67784292306404,587.0238510893807,1
-10.517300056721485,35.988545123648436,-48.30992329817833,82.73506034736533,-115.78120599155037,124.18177525967897,40.583570136915455,3.4862745098039234,5.417061611374418,-80.63492063492063,32.92592592592591,54.286274509803924,42.333333333333336,18.14285714285714,70.2235294117647,38.431272134973,830.2174752365472,31.605256159516085,1782.884630946161,55.67784292306404,587.0238510893807,1
-10.517300056721485,35.988545123648436,-48.30992329817833,82.73506034736533,-115.78120599155037,124.18177525967897,40.583570136915455,20.419607843137257,18.658767772511858,-35.27777777777778,48.60493827160492,34.36470588235294,20.419607843137257,8.06349206349206,5.4784313725490215,23.91091610332039,213.0204095414987,31.605256159516085,1782.884630946161,55.67784292306404,587.0238510893807,1
2.08905275099264,49.666095707097746,-26.666347075743047,79.594642331469,-112.04160798873383,117.58593012275735,29.494445879617615,20.419607843137257,18.658767772511858,-35.27777777777778,48.60493827160492,34.36470588235294,20.419607843137257,8.06349206349206,5.4784313725490215,23.91091610332039,213.0204095414987,26.140498511277812,1486.1816428063607,51.975695038103275,704.3517964716616,1
2.08905275099264,49.666095707097746,-26.666347075743047,79.594642331469,-112.04160798873383,117.58593012275735,29.494445879617615,5.4784313725490215,7.8246445497630415,-39.30952380952381,-17.246913580246922,49.30588235294118,37.352941176470594,3.02380952380952,-21.415686274509802,22.619729079976736,304.9718721967124,26.140498511277812,1486.1816428063607,51.975695038103275,704.3517964716616,1
-6.087067498581948,57.82368054812119,-51.90196548418025,70.62201942890783,-107.21264882857508,107.81208687440984,20.898734177215147,5.4784313725490215,7.8246445497630415,-39.30952380952381,-17.246913580246922,49.30588235294118,37.352941176470594,3.02380952380952,-21.415686274509802,22.619729079976736,304.9718721967124,38.60423784362779,3037.2176650876427,60.11588848706975,91.55076784991181,1
-6.087067498581948,57.82368054812119,-51.90196548418025,70.62201942890783,-107.21264882857508,107.81208687440984,20.898734177215147,14.443137254901963,39.123222748815174,73.57936507936508,25.609053497942377,22.411764705882355,-35.36078431372549,-7.055555555555559,-24.40392156862745,30.24835059060193,412.4685953690663,38.60423784362779,3037.2176650876427,60.11588848706975,91.55076784991181,1
-6.087067498581948,57.82368054812119,-51.90196548418025,70.62201942890783,-107.21264882857508,107.81208687440984,20.898734177215147,1.4941176470588253,52.36492890995262,53.42063492063492,13.065843621399166,15.439215686274512,2.4901960784313744,6.047619047619044,-5.478431372549018,18.725123410489932,467.8448660301183,38.60423784362779,3037.2176650876427,60.11588848706975,91.55076784991181,1
-22.331253545093578,64.13221282517932,-60.2428092042186,57.83603179275838,-101.375624119831,97.55854579792259,13.287264272797643,1.4941176470588253,52.36492890995262,53.42063492063492,13.065843621399166,15.439215686274512,2.4901960784313744,6.047619047619044,-5.478431372549018,18.725123410489932,467.8448660301183,48.90209185816383,4063.727195678577,60.73701794071877,10.09365560467914,1
-22.331253545093578,64.13221282517932,-60.2428092042186,57.83603179275838,-101.375624119831,97.55854579792259,13.287264272797643,1.4941176470588253,22.270142180094794,10.079365079365076,18.292181069958836,-15.439215686274508,-8.466666666666665,1.0079365079365044,5.4784313725490215,10.31600702623803,60.58743900007789,48.90209185816383,4063.727195678577,60.73701794071877,10.09365560467914,1
-22.331253545093578,64.13221282517932,-60.2428092042186,57.83603179275838,-101.375624119831,97.55854579792259,13.287264272797643,-6.474509803921567,15.047393364928919,-29.230158730158735,36.061728395061714,11.454901960784316,18.42745098039216,26.206349206349202,-7.470588235294116,18.796635084611342,115.72199862135618,48.90209185816383,4063.727195678577,60.73701794071877,10.09365560467914,1
-47.79608621667611,77.02119687399636,-65.84395973154363,43.47983514866064,-94.33542440148508,89.70349386213411,3.9041591320071802,-6.474509803921567,15.047393364928919,-29.230158730158735,36.061728395061714,11.454901960784316,18.42745098039216,26.206349206349202,-7.470588235294116,18.796635084611342,115.72199862135618,63.55374760740537,6052.588811411866,62.11499725140021,291.684607481192,1
-47.79608621667611,77.02119687399636,-65.84395973154363,43.47983514866064,-94.33542440148508,89.70349386213411,3.9041591320071802,4.482352941176472,33.10426540284361,27.214285714285708,-10.975308641975317,-11.454901960784312,11.454901960784316,2.0158730158730123,7.4705882352941195,13.52155973412711,119.52871311254785,63.55374760740537,6052.588811411866,62.11499725140021,291.684607481192,1
-47.79608621667611,77.02119687399636,-65.84395973154363,43.47983514866064,-94.33542440148508,89.70349386213411,3.9041591320071802,-2.490196078431371,18.658767772511858,-25.198412698412703,-43.378600823045275,-26.396078431372548,-5.478431372549018,23.182539682539677,-17.431372549019606,20.27679992598526,164.26769188697835,63.55374760740537,6052.588811411866,62.11499725140021,291.684607481192,1
-46.71554169030061,94.07054919173537,-61.70397890699904,32.41360023550192,-86.22212264754833,78.55051935788481,-9.415913200723367,-2.490196078431371,18.658767772511858,-25.198412698412703,-43.378600823045275,-26.396078431372548,-5.478431372549018,23.182539682539677,-17.431372549019606,20.27679992598526,164.26769188697835,67.49668992967834,7385.180040071201,62.72937611141211,951.1834182180079,1
-46.71554169030061,94.07054919173537,-61.70397890699904,32.41360023550192,-86.22212264754833,78.55051935788481,-9.415913200723367,4.482352941176472,31.900473933649298,11.087301587301583,-7.839506172839515,-18.427450980392155,-7.470588235294116,7.055555555555552,10.458823529411767,12.340256616952557,79.77298052250407,67.49668992967834,7385.180040071201,62.72937611141211,951.1834182180079,1
-46.71554169030061,94.07054919173537,-61.70397890699904,32.41360023550192,-86.22212264754833,78.55051935788481,-9.415913200723367,-2.490196078431371,23.47393364928911,3.02380952380952,14.1111111111111,-9.462745098039214,-4.482352941176469,-63.5,-3.48627450980392,15.503802863957587,428.0842049983483,67.49668992967834,7385.180040071201,62.72937611141211,951.1834182180079,1
-49.813102665910364,110.41291082325233,-62.25191754554171,23.740064763026226,-77.08449622327487,63.73984891406991,-24.44200464996129,-2.490196078431371,23.47393364928911,3.02380952380952,14.1111111111111,-9.462745098039214,-4.482352941176469,-63.5,-3.48627450980392,15.503802863957587,428.0842049983483,74.15931034490147,9273.373744977365,65.46829771060676,1885.8043870695808,1
-49.813102665910364,110.41291082325233,-62.25191754554171,23.740064763026226,-77.08449622327487,63.73984891406991,-24.44200464996129,-0.49803921568627274,17.454976303317544,3.02380952380952,-4.703703703703713,-4.482352941176469,-1.4941176470588218,-41.32539682539683,-18.427450980392155,11.426230892567666,194.48653170570202,74.15931034490147,9273.373744977365,65.46829771060676,1885.8043870695808,1
-49.813102665910364,110.41291082325233,-62.25191754554171,23.740064763026226,-77.08449622327487,63.73984891406991,-24.44200464996129,2.4901960784313744,24.677725118483423,-8.063492063492067,-2.613168724279845,12.450980392156865,12.450980392156865,12.095238095238091,-38.34901960784313,14.148850059010208,144.64514279259666,74.15931034490147,9273.373744977365,65.46829771060676,1885.8043870695808,1
-64.58054452637549,120.31078043036078,-74.15436241610739,11.627023844568726,-66.12584816284726,47.66997167138814,-37.76207698269184,2.4901960784313744,24.677725118483423,-8.063492063492067,-2.613168724279845,12.450980392156865,12.450980392156865,12.095238095238091,-38.34901960784313,14.148850059010208,144.64514279259666,86.34856245761455,12015.525302590077,68.69738889701229,2975.3736563910034,1
-64.58054452637549,120.31078043036078,-74.15436241610739,11.627023844568726,-66.12584816284726,47.66997167138814,-37.76207698269184,48.30980392156863,43.938388625592424,14.111111111111107,-50.695473251028815,12.450980392156865,6.4745098039215705,18.14285714285714,-5.478431372549018,24.950194452598197,372.79980780671536,86.34856245761455,12015.525302590077,68.69738889701229,2975.3736563910034,1
-64.58054452637549,120.31078043036078,-74.15436241610739,11.627023844568726,-66.12584816284726,47.66997167138814,-37.76207698269184,-0.49803921568627274,18.658767772511858,-7.055555555555559,-3.658436213991779,3.4862745098039234,-12.450980392156861,-29.230158730158735,-84.1686274509804,19.900854980105674,764.1644993029257,86.34856245761455,12015.525302590077,68.69738889701229,2975.3736563910034,1
-77.29495178672715,122.51332833743712,-92.72339405560882,-5.346187812775952,-53.81769299705543,31.36024551463649,-45.89847584603467,-0.49803921568627274,18.658767772511858,-7.055555555555559,-3.658436213991779,3.4862745098039234,-12.450980392156861,-29.230158730158735,-84.1686274509804,19.900854980105674,764.1644993029257,97.51055805992435,14414.705383920307,73.52763673527396,3708.392529007316,1
-77.29495178672715,122.51332833743712,-92.72339405560882,-5.346187812775952,-53.81769299705543,31.36024551463649,-45.89847584603467,-50.30196078431372,23.47393364928911,8.06349206349206,-13.065843621399186,1.4941176470588253,0.4980392156862763,23.182539682539677,25.400000000000002,18.184990832972357,265.22406249836456,97.51055805992435,14414.705383920307,73.52763673527396,3708.392529007316,1
-77.29495178672715,122.51332833743712,-92.72339405560882,-5.346187812775952,-53.81769299705543,31.36024551463649,-45.89847584603467,10.458823529411767,12.639810426540294,-16.12698412698413,10.975308641975298,11.454901960784316,9.462745098039218,-70.55555555555556,-31.376470588235293,21.631324990940733,441.3860995994884,97.51055805992435,14414.705383920307,73.52763673527396,3708.392529007316,1
-80.17640385706181,124.09046140670165,-104.32142857142858,-22.69325875772745,-41.21687363973882,14.45089707271012,-49.57297855851209,10.458823529411767,12.639810426540294,-16.12698412698413,10.975308641975298,11.454901960784316,9.462745098039218,-70.55555555555556,-31.376470588235293,21.631324990940733,441.3860995994884,102.8627646117307,15746.65432442056,83.7017162452859,2889.227578568946,1
-80.17640385706181,124.09046140670165,-104.32142857142858,-22.69325875772745,-41.21687363973882,14.45089707271012,-49.57297855851209,43.32941176470588,27.085308056872048,20.158730158730155,2.6131687242798254,12.450980392156865,-8.466666666666665,57.45238095238095,11.454901960784316,22.876443584572087,356.61481905418157,102.8627646117307,15746.65432442056,83.7017162452859,2889.227578568946,1
-80.17640385706181,124.09046140670165,-104.32142857142858,-22.69325875772745,-41.21687363973882,14.45089707271012,-49.57297855851209,-1.4941176470588218,19.86255924170617,-10.079365079365083,0.5226337448559573,-12.450980392156861,-82.17647058823529,-15.11904761904762,-94.12941176470588,29.47932325964146,1363.3296265682823,102.8627646117307,15746.65432442056,83.7017162452859,2889.227578568946,1
-105.20901871809414,127.0,-112.05345158197508,-41.460994995584315,-27.120215081295612,1.2592067988668703,-51.0165331955568,-1.4941176470588218,19.86255924170617,-10.079365079365083,0.5226337448559573,-12.450980392156861,-82.17647058823529,-15.11904761904762,-94.12941176470588,29.47932325964146,1363.3296265682823,114.75415676668975,18519.071224750678,93.50481552585313,2087.2692689432133,1
-105.20901871809414,127.0,-112.05345158197508,-41.460994995584315,-27.120215081295612,1.2592067988668703,-51.0165331955568,-16.435294117647057,29.492890995260673,-3.0238095238095273,-10.975308641975317,18.42745098039216,112.05882352941177,39.3095238095238,110.06666666666666,42.47372103308587,1913.4393089024027,114.75415676668975,18519.071224750678,93.50481552585313,2087.2692689432133,1
-105.20901871809414,127.0,-112.05345158197508,-41.460994995584315,-27.120215081295612,1.2592067988668703,-51.0165331955568,2.4901960784313744,39.123222748815174,59.46825396825396,-14.111111111111121,5.4784313725490215,29.3843137254902,14.111111111111107,-34.364705882352936,24.81641824976436,374.1564248857038,114.75415676668975,18519.071224750678,93.50481552585313,2087.2692689432133,1
-124.47872943845715,126.72808050529922,-118.68959731543625,-60.67736237856934,-11.755345026245038,-7.974976392823379,-49.704210798243366,2.4901960784313744,39.123222748815174,59.46825396825396,-14.111111111111121,5.4784313725490215,29.3843137254902,14.111111111111107,-34.364705882352936,24.81641824976436,374.1564248857038,123.29880241973086,20561.368666629773,102.03168006643493,1298.7889965701124,1
-124.47872943845715,126.72808050529922,-118.68959731543625,-60.67736237856934,-11.755345026245038,-7.974976392823379,-49.704210798243366,-7.470588235294116,6.620853080568729,-8.063492063492067,17.246913580246904,7.4705882352941195,-21.415686274509802,-4.031746031746035,-83.17254901960784,19.43655206509495,698.3220086626046,123.29880241973086,20561.368666629773,102.03168006643493,1298.7889965701124,1
-124.47872943845715,126.72808050529922,-118.68959731543625,-60.67736237856934,-11.755345026245038,-7.974976392823379,-49.704210798243366,-18.427450980392155,16.25118483412323,-5.039682539682543,-5.748971193415647,1.4941176470588253,39.345098039215685,25.198412698412696,57.274509803921575,21.097428467027797,366.70110395972,123.29880241973086,20561.368666629773,102.03168006643493,1298.7889965701124,1
-127.0,125.8851300717268,-122.22075743048897,-77.87488960847804,3.999743950838564,-15.83002832861186,-45.04546628778098,-18.427450980392155,16.25118483412323,-5.039682539682543,-5.748971193415647,1.4941176470588253,39.345098039215685,25.198412698412696,57.274509803921575,21.097428467027797,366.70110395972,125.03529583407192,20921.71026403243,108.66025903689793,714.161134846681,1
