Gyro 0,Gyro 1,Gyro 2,Orientation 0,Orientation 1,Orientation 2,Orientation 3,Sensor 0,Sensor 1,Sensor 2,Sensor 3,Sensor 4,Sensor 5,Sensor 6,Sensor 7,Sensor Mean,Sensor Variance,Gyro Mean,Gyro Variance,Orientation Mean,Orientation Variance,Label
1.4570358229922824,35.40691677621601,-52.103619665045926,124.269469660774,-126.6783039647577,106.12821723730815,-8.310238645111554,-0.49803921568627274,-11.357723577235781,2.4901960784313744,1.555102040816326,-17.431372549019606,-6.474509803921567,0.4980392156862763,-7.470588235294116,5.971946339511415,36.34027998758311,29.655857421418073,1946.5720368806356,70.59333536734532,2230.540516354109,1
1.4570358229922824,35.40691677621601,-52.103619665045926,124.269469660774,-126.6783039647577,106.12821723730815,-8.310238645111554,2.4901960784313744,-1.0325203252032615,14.443137254901963,-8.812244897959184,7.4705882352941195,2.4901960784313744,1.4941176470588253,1.4941176470588253,4.965889770542366,23.24601415828202,29.655857421418073,1946.5720368806356,70.59333536734532,2230.540516354109,1
1.4570358229922824,35.40691677621601,-52.103619665045926,124.269469660774,-126.6783039647577,106.12821723730815,-8.310238645111554,-1.4941176470588218,-16.520325203252042,-27.392156862745097,12.959183673469386,18.42745098039216,5.4784313725490215,-1.4941176470588218,0.4980392156862763,10.532977825276452,96.84854957719735,29.655857421418073,1946.5720368806356,70.59333536734532,2230.540516354109,1
1.4570358229922824,35.40691677621601,-52.103619665045926,124.269469660774,-126.6783039647577,106.12821723730815,-8.310238645111554,0.4980392156862763,4.130081300812998,27.3921568627451,10.885714285714286,-1.4941176470588218,-1.4941176470588218,0.4980392156862763,1.4941176470588253,5.985797977727675,86.63451913769906,29.655857421418073,1946.5720368806356,70.59333536734532,2230.540516354109,1
1.6354483727464384,35.25280614824554,-52.432955159373314,124.45150501672242,-126.70627753303964,105.40850059031877,-8.212471131639688,0.4980392156862763,4.130081300812998,27.3921568627451,10.885714285714286,-1.4941176470588218,-1.4941176470588218,0.4980392156862763,1.4941176470588253,5.985797977727675,86.63451913769906,29.773736560121762,1957.0519567357928,70.71242210811376,2239.706153904875,1
1.6354483727464384,35.25280614824554,-52.432955159373314,124.45150501672242,-126.70627753303964,105.40850059031877,-8.212471131639688,-1.4941176470588218,-11.357723577235781,-21.415686274509802,2.591836734693877,1.4941176470588253,1.4941176470588253,1.4941176470588253,-0.49803921568627274,5.229969548795129,54.957723215315845,29.773736560121762,1957.0519567357928,70.71242210811376,2239.706153904875,1
1.6354483727464384,35.25280614824554,-52.432955159373314,124.45150501672242,-126.70627753303964,105.40850059031877,-8.212471131639688,0.4980392156862763,-12.390243902439034,-49.305882352941175,-33.69387755102041,-11.454901960784312,11.454901960784316,3.4862745098039234,16.43529411764706,17.339926946388314,265.6330906503553,29.773736560121762,1957.0519567357928,70.71242210811376,2239.706153904875,1
0.5947084991805287,35.22712104358379,-52.48784440842788,124.3908265647396,-126.70627753303964,104.80873671782763,-8.114703618167766,0.4980392156862763,-12.390243902439034,-49.305882352941175,-33.69387755102041,-11.454901960784312,11.454901960784316,3.4862745098039234,16.43529411764706,17.339926946388314,265.6330906503553,29.436557983730733,1951.846097680398,70.70193067225043,2236.356299385324,1
0.5947084991805287,35.22712104358379,-52.48784440842788,124.3908265647396,-126.70627753303964,104.80873671782763,-8.114703618167766,-3.48627450980392,-4.130081300813018,0.4980392156862763,12.959183673469386,12.450980392156865,-2.490196078431371,-4.482352941176469,-9.462745098039214,6.244981651197065,22.323545910922125,29.436557983730733,1951.846097680398,70.70193067225043,2236.356299385324,1
0.5947084991805287,35.22712104358379,-52.48784440842788,124.3908265647396,-126.70627753303964,104.80873671782763,-8.114703618167766,1.4941176470588253,-4.130081300813018,72.2156862745098,51.31836734693877,-2.490196078431371,-5.478431372549018,-2.490196078431371,-14.44313725490196,19.257526669204267,736.0244343018829,29.436557983730733,1951.846097680398,70.70193067225043,2236.356299385324,1
0.5947084991805287,34.97026999696634,-52.625067531064296,124.20879120879118,-126.6783039647577,104.3289256198347,-8.016936104695901,1.4941176470588253,-4.130081300813018,72.2156862745098,51.31836734693877,-2.490196078431371,-5.478431372549018,-2.490196078431371,-14.44313725490196,19.257526669204267,736.0244343018829,29.39668200907039,1947.8278242745148,70.60137624560728,2233.2391732687433,1
0.5947084991805287,34.97026999696634,-52.625067531064296,124.20879120879118,-126.6783039647577,104.3289256198347,-8.016936104695901,2.4901960784313744,-11.357723577235781,-13.44705882352941,3.628571428571428,-9.462745098039214,9.462745098039218,1.4941176470588253,16.43529411764706,8.472306483569039,29.48391937531099,29.39668200907039,1947.8278242745148,70.60137624560728,2233.2391732687433,1
0.5947084991805287,34.97026999696634,-52.625067531064296,124.20879120879118,-126.6783039647577,104.3289256198347,-8.016936104695901,1.4941176470588253,-10.32520325203253,23.407843137254904,3.628571428571428,-14.44313725490196,-5.478431372549018,-2.490196078431371,6.4745098039215705,8.467751246840201,54.72159272006853,29.39668200907039,1947.8278242745148,70.60137624560728,2233.2391732687433,1
-0.08920627487706911,34.79047426433412,-52.70740140464614,123.96607740086,-126.66431718061673,104.02904368358914,-7.870284834488018,1.4941176470588253,-10.32520325203253,23.407843137254904,3.628571428571428,-14.44313725490196,-5.478431372549018,-2.490196078431371,6.4745098039215705,8.467751246840201,54.72159272006853,29.195693981285775,1940.1908033027016,70.48798435661342,2225.183896274633,1
-0.08920627487706911,34.79047426433412,-52.70740140464614,123.96607740086,-126.66431718061673,104.02904368358914,-7.870284834488018,1.4941176470588253,-8.260162601626025,-5.478431372549018,8.812244897959182,-8.466666666666665,-4.482352941176469,-1.4941176470588218,2.4901960784313744,5.1222862315657975,9.776915810741116,29.195693981285775,1940.1908033027016,70.48798435661342,2225.183896274633,1
-0.08920627487706911,34.79047426433412,-52.70740140464614,123.96607740086,-126.66431718061673,104.02904368358914,-7.870284834488018,-2.490196078431371,-1.0325203252032615,17.43137254901961,-22.289795918367346,6.4745098039215705,-2.490196078431371,-4.482352941176469,-16.435294117647057,9.140779726524757,68.26497543119338,29.195693981285775,1940.1908033027016,70.48798435661342,2225.183896274633,1
-0.267618824631225,34.81615936899586,-52.954403025391684,123.662685140946,-126.65033039647577,103.78913813459268,-7.723633564280192,-2.490196078431371,-1.0325203252032615,17.43137254901961,-22.289795918367346,6.4745098039215705,-2.490196078431371,-4.482352941176469,-16.435294117647057,9.140779726524757,68.26497543119338,29.346060406339593,1951.7400574640337,70.47774917844451,2203.7270307362337,1
-0.267618824631225,34.81615936899586,-52.954403025391684,123.662685140946,-126.65033039647577,103.78913813459268,-7.723633564280192,-0.49803921568627274,-1.0325203252032615,-12.450980392156861,-2.591836734693878,10.458823529411767,-7.470588235294116,1.4941176470588253,12.450980392156865,6.055985808957731,27.4449910272775,29.346060406339593,1951.7400574640337,70.47774917844451,2203.7270307362337,1
-0.267618824631225,34.81615936899586,-52.954403025391684,123.662685140946,-126.65033039647577,103.78913813459268,-7.723633564280192,-1.4941176470588218,-4.130081300813018,-5.478431372549018,23.3265306122449,-3.48627450980392,-7.470588235294116,-0.49803921568627274,0.4980392156862763,5.797762763642043,56.13966570775114,29.346060406339593,1951.7400574640337,70.47774917844451,2203.7270307362337,1
0.9812690236478666,34.35382748508445,-52.954403025391684,123.662685140946,-126.70627753303964,103.429279811098,-7.430331023864483,-1.4941176470588218,-4.130081300813018,-5.478431372549018,23.3265306122449,-3.48627450980392,-7.470588235294116,-0.49803921568627274,0.4980392156862763,5.797762763642043,56.13966570775114,29.429833178041335,1940.9185820856642,70.32363855047404,2220.2857709930718,1
0.9812690236478666,34.35382748508445,-52.954403025391684,123.662685140946,-126.70627753303964,103.429279811098,-7.430331023864483,4.482352941176472,20.65040650406503,43.32941176470588,25.4,12.450980392156865,8.466666666666669,-2.490196078431371,-3.48627450980392,15.094536107125775,198.7764402671871,29.429833178041335,1940.9185820856642,70.32363855047404,2220.2857709930718,1
0.7136501990166326,34.533623217716666,-52.87206915180984,123.662685140946,-126.74823788546254,103.12939787485242,-7.234795996920639,4.482352941176472,20.65040650406503,43.32941176470588,25.4,12.450980392156865,8.466666666666669,-2.490196078431371,-3.48627450980392,15.094536107125775,198.7764402671871,29.373114189514382,1942.4958253212399,70.35612583682416,2215.266598452308,1
0.7136501990166326,34.533623217716666,-52.87206915180984,123.662685140946,-126.74823788546254,103.12939787485242,-7.234795996920639,0.4980392156862763,2.0650406504064946,-51.29803921568627,7.775510204081632,-4.482352941176469,-2.490196078431371,-1.4941176470588218,-6.474509803921567,9.572225719556114,290.554858512806,29.373114189514382,1942.4958253212399,70.35612583682416,2215.266598452308,1
0.7136501990166326,34.533623217716666,-52.87206915180984,123.662685140946,-126.74823788546254,103.12939787485242,-7.234795996920639,-2.490196078431371,-17.552845528455293,-12.450980392156861,6.738775510204081,-24.40392156862745,-14.44313725490196,-1.4941176470588218,9.462745098039218,11.129589884734381,59.961548109138384,29.373114189514382,1942.4958253212399,70.35612583682416,2215.266598452308,1
0.2973542495902688,34.55930832237841,-52.65251215559157,123.5413282369804,-126.74823788546254,103.0094451003542,-7.137028483448773,-2.490196078431371,-17.552845528455293,-12.450980392156861,6.738775510204081,-24.40392156862745,-14.44313725490196,-1.4941176470588218,9.462745098039218,11.129589884734381,59.961548109138384,29.169724909186755,1930.5785800490191,70.25104957165013,2211.731356408966,1
0.2973542495902688,34.55930832237841,-52.65251215559157,123.5413282369804,-126.74823788546254,103.0094451003542,-7.137028483448773,-6.474509803921567,-30.97560975609757,-102.09803921568627,-36.80408163265306,11.454901960784316,4.482352941176472,-2.490196078431371,-9.462745098039214,25.530304560848727,1116.0909991194762,29.169724909186755,1930.5785800490191,70.25104957165013,2211.731356408966,1
0.2973542495902688,34.55930832237841,-52.65251215559157,123.5413282369804,-126.74823788546254,103.0094451003542,-7.137028483448773,-4.482352941176469,-5.1626016260162695,-44.325490196078434,-2.591836734693878,0.4980392156862763,-4.482352941176469,1.4941176470588253,19.423529411764708,10.307540089206416,224.01328485685286,29.169724909186755,1930.5785800490191,70.25104957165013,2211.731356408966,1
-0.05947084991804308,34.58499342704015,-52.432955159373314,123.35929288103199,-126.74823788546254,102.82951593860685,-6.99037721324089,-4.482352941176469,-5.1626016260162695,-44.325490196078434,-2.591836734693878,0.4980392156862763,-4.482352941176469,1.4941176470588253,19.423529411764708,10.307540089206416,224.01328485685286,29.02580647877717,1919.2240233229813,70.12574715581515,2204.995227358771,1
-0.05947084991804308,34.58499342704015,-52.432955159373314,123.35929288103199,-126.74823788546254,102.82951593860685,-6.99037721324089,-1.4941176470588218,-13.422764227642286,-4.482352941176469,5.70204081632653,7.4705882352941195,8.466666666666669,-3.48627450980392,2.4901960784313744,5.876875140300024,14.93653894136352,29.02580647877717,1919.2240233229813,70.12574715581515,2204.995227358771,1
-0.05947084991804308,34.58499342704015,-52.432955159373314,123.35929288103199,-126.74823788546254,102.82951593860685,-6.99037721324089,4.482352941176472,7.227642276422754,45.321568627450986,-19.179591836734694,1.4941176470588253,4.482352941176472,1.4941176470588253,-8.466666666666665,11.518551322968213,218.43659106044248,29.02580647877717,1919.2240233229813,70.12574715581515,2204.995227358771,1
0.029735424959034862,34.8932146829811,-52.07617504051864,123.29861442904922,-126.72026431718061,102.76953955135774,-7.039260969976851,4.482352941176472,7.227642276422754,45.321568627450986,-19.179591836734694,1.4941176470588253,4.482352941176472,1.4941176470588253,-8.466666666666665,11.518551322968213,218.43659106044248,28.99970838281959,1915.6938067148158,70.08933471751632,2197.234117227287,1
0.029735424959034862,34.8932146829811,-52.07617504051864,123.29861442904922,-126.72026431718061,102.76953955135774,-7.039260969976851,1.4941176470588253,-1.0325203252032615,-13.44705882352941,26.43673469387755,10.458823529411767,-1.4941176470588218,-1.4941176470588218,-29.384313725490195,10.655225504836082,136.00597591368268,28.99970838281959,1915.6938067148158,70.08933471751632,2197.234117227287,1
0.029735424959034862,34.8932146829811,-52.07617504051864,123.29861442904922,-126.72026431718061,102.76953955135774,-7.039260969976851,-1.4941176470588218,-3.097560975609766,-15.439215686274508,-4.66530612244898,-16.435294117647057,6.4745098039215705,5.4784313725490215,-20.419607843137253,9.188005446080872,50.802563693218005,28.99970838281959,1915.6938067148158,70.08933471751632,2197.234117227287,1
0.3865605244673468,34.81615936899586,-52.103619665045926,123.29861442904922,-126.70627753303964,102.58961038961039,-7.039260969976851,-1.4941176470588218,-3.097560975609766,-15.439215686274508,-4.66530612244898,-16.435294117647057,6.4745098039215705,5.4784313725490215,-20.419607843137253,9.188005446080872,50.802563693218005,29.102113186169714,1915.9440467082302,70.07279782103033,2199.454736064721,1
0.3865605244673468,34.81615936899586,-52.103619665045926,123.29861442904922,-126.70627753303964,102.58961038961039,-7.039260969976851,1.4941176470588253,-9.769962616701378e-15,37.352941176470594,25.4,-7.470588235294116,-0.49803921568627274,2.4901960784313744,0.4980392156862763,9.400490196078433,199.74110369638052,29.102113186169714,1915.9440467082302,70.07279782103033,2199.454736064721,1
0.3865605244673468,34.81615936899586,-52.103619665045926,123.29861442904922,-126.70627753303964,102.58961038961039,-7.039260969976851,2.4901960784313744,-4.130081300813018,1.4941176470588253,-4.66530612244898,-2.490196078431371,11.454901960784316,-1.4941176470588218,1.4941176470588253,3.7141293102606916,11.254099297113276,29.102113186169714,1915.9440467082302,70.07279782103033,2199.454736064721,1
1.9625380472957243,34.81615936899586,-51.691950297136685,123.60200668896323,-126.74823788546254,102.04982290436836,-7.039260969976851,2.4901960784313744,-4.130081300813018,1.4941176470588253,-4.66530612244898,-2.490196078431371,11.454901960784316,-1.4941176470588218,1.4941176470588253,3.7141293102606916,11.254099297113276,29.490215904476088,1906.9695985766866,70.0367054516986,2223.129202341758,1
1.9625380472957243,34.81615936899586,-51.691950297136685,123.60200668896323,-126.74823788546254,102.04982290436836,-7.039260969976851,1.4941176470588253,10.32520325203251,83.17254901960784,15.03265306122449,-4.482352941176469,-2.490196078431371,4.482352941176472,19.423529411764708,17.612869294059088,742.0640010225204,29.490215904476088,1906.9695985766866,70.0367054516986,2223.129202341758,1
1.9625380472957243,34.81615936899586,-51.691950297136685,123.60200668896323,-126.74823788546254,102.04982290436836,-7.039260969976851,-3.48627450980392,-9.292682926829277,-6.474509803921567,22.289795918367346,11.454901960784316,-5.478431372549018,0.4980392156862763,-4.482352941176469,7.9321235811397734,45.06874133608431,29.490215904476088,1906.9695985766866,70.0367054516986,2223.129202341758,1
1.4273003980332564,34.94458489230459,-51.55472717450027,123.84472049689441,-126.76222466960351,101.68996458087368,-7.137028483448773,-3.48627450980392,-9.292682926829277,-6.474509803921567,22.289795918367346,11.454901960784316,-5.478431372549018,0.4980392156862763,-4.482352941176469,7.9321235811397734,45.06874133608431,29.308870821612704,1902.1057655995196,70.11467752123309,2234.162345283505,1
1.4273003980332564,34.94458489230459,-51.55472717450027,123.84472049689441,-126.76222466960351,101.68996458087368,-7.137028483448773,0.4980392156862763,7.227642276422754,14.443137254901963,21.253061224489795,21.415686274509806,1.4941176470588253,1.4941176470588253,11.454901960784316,9.910087937614069,74.48801575544368,29.308870821612704,1902.1057655995196,70.11467752123309,2234.162345283505,1
1.4273003980332564,34.94458489230459,-51.55472717450027,123.84472049689441,-126.76222466960351,101.68996458087368,-7.137028483448773,-4.482352941176469,-20.65040650406505,3.4862745098039234,2.591836734693877,-2.490196078431371,-8.466666666666665,-5.478431372549018,-41.33725490196078,11.122927463668395,184.616250782869,29.308870821612704,1902.1057655995196,70.11467752123309,2234.162345283505,1
1.0407398735659186,35.1757508342603,-51.14305780659104,124.08743430482559,-126.73425110132158,101.3900826446281,-7.332563510392561,-4.482352941176469,-20.65040650406505,3.4862745098039234,2.591836734693877,-2.490196078431371,-8.466666666666665,-5.478431372549018,-41.33725490196078,11.122927463668395,184.616250782869,29.119849504805753,1889.8807397976984,70.13541431522565,2246.854068705805,1
1.0407398735659186,35.1757508342603,-51.14305780659104,124.08743430482559,-126.73425110132158,101.3900826446281,-7.332563510392561,0.4980392156862763,-12.390243902439034,-38.34901960784313,-10.885714285714286,1.4941176470588253,3.4862745098039234,0.4980392156862763,5.4784313725490215,9.134984969597596,159.99663073172715,29.119849504805753,1889.8807397976984,70.13541431522565,2246.854068705805,1
1.0407398735659186,35.1757508342603,-51.14305780659104,124.08743430482559,-126.73425110132158,101.3900826446281,-7.332563510392561,1.4941176470588253,-13.422764227642286,-22.41176470588235,-0.518367346938776,2.4901960784313744,2.4901960784313744,-0.49803921568627274,2.4901960784313744,5.726955172312829,63.06086245919331,29.119849504805753,1889.8807397976984,70.13541431522565,2246.854068705805,1
0.5055022243034507,35.30417635756903,-51.527282549972995,124.08743430482559,-126.6783039647577,101.15017709563165,-7.576982294072309,1.4941176470588253,-13.422764227642286,-22.41176470588235,-0.518367346938776,2.4901960784313744,2.4901960784313744,-0.49803921568627274,2.4901960784313744,5.726955172312829,63.06086245919331,29.112320377281822,1909.6767781352569,70.30629773745586,2235.1052814910586,1
0.5055022243034507,35.30417635756903,-51.527282549972995,124.08743430482559,-126.6783039647577,101.15017709563165,-7.576982294072309,-0.49803921568627274,-7.227642276422774,-11.454901960784312,9.848979591836734,-12.450980392156861,-6.474509803921567,-0.49803921568627274,3.4862745098039234,6.49242087078734,21.83430667220468,29.112320377281822,1909.6767781352569,70.30629773745586,2235.1052814910586,1
0.5055022243034507,35.30417635756903,-51.527282549972995,124.08743430482559,-126.6783039647577,101.15017709563165,-7.576982294072309,6.4745098039215705,5.162601626016251,72.2156862745098,30.583673469387755,-11.454901960784312,-2.490196078431371,-0.49803921568627274,8.466666666666669,17.1682843869255,581.4837989075429,29.112320377281822,1909.6767781352569,70.30629773745586,2235.1052814910586,1
1.6057129477874124,35.329861462230774,-51.41750405186386,124.45150501672242,-126.6783039647577,100.67036599763873,-7.723633564280192,6.4745098039215705,5.162601626016251,72.2156862745098,30.583673469387755,-11.454901960784312,-2.490196078431371,-0.49803921568627274,8.466666666666669,17.1682843869255,581.4837989075429,29.45102615396068,1912.3141929420458,70.39962351027235,2255.9074818134336,1
1.6057129477874124,35.329861462230774,-51.41750405186386,124.45150501672242,-126.6783039647577,100.67036599763873,-7.723633564280192,-0.49803921568627274,-6.195121951219521,-19.423529411764704,-26.436734693877554,-5.478431372549018,-1.4941176470588218,-1.4941176470588218,0.4980392156862763,7.689766394362624,96.63828371237811,29.45102615396068,1912.3141929420458,70.39962351027235,2255.9074818134336,1
1.6057129477874124,35.329861462230774,-51.41750405186386,124.45150501672242,-126.6783039647577,100.67036599763873,-7.723633564280192,4.482352941176472,-3.097560975609766,7.4705882352941195,2.591836734693877,19.423529411764708,-4.482352941176469,0.4980392156862763,12.450980392156865,6.81215510594482,39.08713701615928,29.45102615396068,1912.3141929420458,70.39962351027235,2255.9074818134336,1
1.8733317724186462,35.61239761350997,-51.55472717450027,124.8155757286192,-126.6783039647577,100.01062573789847,-7.919168591223979,4.482352941176472,-3.097560975609766,7.4705882352941195,2.591836734693877,19.423529411764708,-4.482352941176469,0.4980392156862763,12.450980392156865,6.81215510594482,39.08713701615928,29.680152186809625,1931.8316150789146,70.66090017220982,2263.086131422779,1
1.8733317724186462,35.61239761350997,-51.55472717450027,124.8155757286192,-126.6783039647577,100.01062573789847,-7.919168591223979,-0.49803921568627274,-1.0325203252032615,-6.474509803921567,-5.70204081632653,-29.384313725490195,4.482352941176472,-0.49803921568627274,-0.49803921568627274,6.071231907397106,94.98475715647194,29.680152186809625,1931.8316150789146,70.66090017220982,2263.086131422779,1
1.8733317724186462,35.61239761350997,-51.55472717450027,124.8155757286192,-126.6783039647577,100.01062573789847,-7.919168591223979,-3.48627450980392,-5.1626016260162695,-54.28627450980392,-10.885714285714286,4.482352941176472,3.4862745098039234,-1.4941176470588218,0.4980392156862763,10.472706155632986,323.08719654905383,29.680152186809625,1931.8316150789146,70.66090017220982,2263.086131422779,1
1.9030671973776723,35.1757508342603,-51.60961642355484,125.1189679885332,-126.70627753303964,99.41086186540733,-7.96805234795994,-3.48627450980392,-5.1626016260162695,-54.28627450980392,-10.885714285714286,4.482352941176472,3.4862745098039234,-1.4941176470588218,0.4980392156862763,10.472706155632986,323.08719654905383,29.56281148506427,1917.0631257979912,70.63477841544945,2293.9131696285463,1
1.9030671973776723,35.1757508342603,-51.60961642355484,125.1189679885332,-126.70627753303964,99.41086186540733,-7.96805234795994,6.4745098039215705,12.390243902439014,42.333333333333336,35.76734693877551,7.4705882352941195,-1.4941176470588218,0.4980392156862763,-12.450980392156861,14.859894933583188,244.8052645323717,29.56281148506427,1917.0631257979912,70.63477841544945,2293.9131696285463,1
1.9030671973776723,35.1757508342603,-51.60961642355484,125.1189679885332,-126.70627753303964,99.41086186540733,-7.96805234795994,3.4862745098039234,7.227642276422754,-3.48627450980392,-17.10612244897959,12.450980392156865,0.4980392156862763,4.482352941176472,4.482352941176472,6.652504904400784,30.082545367286446,29.56281148506427,1917.0631257979912,70.63477841544945,2293.9131696285463,1
2.914071645984556,34.48225300839317,-51.55472717450027,125.60439560439562,-126.77621145374448,98.75112160566707,-7.919168591223979,3.4862745098039234,7.227642276422754,-3.48627450980392,-17.10612244897959,12.450980392156865,0.4980392156862763,4.482352941176472,4.482352941176472,6.652504904400784,30.082545367286446,29.650350609626003,1894.2936797446619,70.54712526242969,2346.3446066693396,1
2.914071645984556,34.48225300839317,-51.55472717450027,125.60439560439562,-126.77621145374448,98.75112160566707,-7.919168591223979,-1.4941176470588218,-16.520325203252042,-9.462745098039214,-3.62857142857143,-11.454901960784312,-0.49803921568627274,1.4941176470588253,4.482352941176472,6.129396392703423,33.013472011449856,29.650350609626003,1894.2936797446619,70.54712526242969,2346.3446066693396,1
2.914071645984556,34.48225300839317,-51.55472717450027,125.60439560439562,-126.77621145374448,98.75112160566707,-7.919168591223979,-1.4941176470588218,-5.1626016260162695,8.466666666666669,15.03265306122449,25.400000000000002,-1.4941176470588218,0.4980392156862763,-3.48627450980392,7.629308796689409,74.38480920502407,29.650350609626003,1894.2936797446619,70.54712526242969,2346.3446066693396,1
3.5087801451650757,34.533623217716666,-51.30772555375473,126.2718585762064,-126.88810572687225,97.91145218417945,-7.870284834488018,-1.4941176470588218,-5.1626016260162695,8.466666666666669,15.03265306122449,25.400000000000002,-1.4941176470588218,0.4980392156862763,-3.48627450980392,7.629308796689409,74.38480920502407,29.783376305545488,1889.354557270259,70.70440244922592,2386.149262612894,1
3.5087801451650757,34.533623217716666,-51.30772555375473,126.2718585762064,-126.88810572687225,97.91145218417945,-7.870284834488018,-0.49803921568627274,-16.520325203252042,25.400000000000002,27.473469387755102,9.462745098039218,-8.466666666666665,-3.48627450980392,-1.4941176470588218,11.600204716032756,110.31674274091499,29.783376305545488,1889.354557270259,70.70440244922592,2386.149262612894,1
3.5087801451650757,34.533623217716666,-51.30772555375473,126.2718585762064,-126.88810572687225,97.91145218417945,-7.870284834488018,-6.474509803921567,-12.390243902439034,-20.419607843137253,-11.922448979591838,-1.4941176470588218,0.4980392156862763,-3.48627450980392,0.4980392156862763,7.1479101396656235,51.526317715042,29.783376305545488,1889.354557270259,70.70440244922592,2386.149262612894,1
2.795129946148452,34.328142380422705,-51.060723933009186,126.81796464405159,-126.97202643171806,97.43164108618654,-7.821401077752057,-6.474509803921567,-12.390243902439034,-20.419607843137253,-11.922448979591838,-1.4941176470588218,0.4980392156862763,-3.48627450980392,0.4980392156862763,7.1479101396656235,51.526317715042,29.394665419860114,1864.3403934210696,70.73561031916115,2428.917671320406,1
2.795129946148452,34.328142380422705,-51.060723933009186,126.81796464405159,-126.97202643171806,97.43164108618654,-7.821401077752057,-3.48627450980392,-9.292682926829277,-14.44313725490196,7.775510204081632,13.447058823529414,6.4745098039215705,0.4980392156862763,-4.482352941176469,7.487445709991315,23.165470243948594,29.394665419860114,1864.3403934210696,70.73561031916115,2428.917671320406,1
2.795129946148452,34.328142380422705,-51.060723933009186,126.81796464405159,-126.97202643171806,97.43164108618654,-7.821401077752057,-0.49803921568627274,-10.32520325203253,-9.462745098039214,-20.216326530612246,-11.454901960784312,-2.490196078431371,-2.490196078431371,4.482352941176472,7.677495144399224,42.465462105611515,29.394665419860114,1864.3403934210696,70.73561031916115,2428.917671320406,1
0.9217981737298147,34.40519769440794,-50.81372231226364,127.0,-127.0,97.37166469893742,-7.870284834488018,-0.49803921568627274,-10.32520325203253,-9.462745098039214,-20.216326530612246,-11.454901960784312,-2.490196078431371,-2.490196078431371,4.482352941176472,7.677495144399224,42.465462105611515,28.713572726800464,1843.3277417535812,70.73964000222387,2441.2310003432212,1
0.9217981737298147,34.40519769440794,-50.81372231226364,127.0,-127.0,97.37166469893742,-7.870284834488018,-0.49803921568627274,-9.769962616701378e-15,-2.490196078431371,-29.546938775510206,0.4980392156862763,-2.490196078431371,-4.482352941176469,1.4941176470588253,5.1874849939976,98.99481443878072,28.713572726800464,1843.3277417535812,70.73964000222387,2441.2310003432212,1
0.9217981737298147,34.40519769440794,-50.81372231226364,127.0,-127.0,97.37166469893742,-7.870284834488018,1.4941176470588253,-3.097560975609766,18.42745098039216,29.546938775510203,-12.450980392156861,2.4901960784313744,-1.4941176470588218,-8.466666666666665,9.683503645360584,101.34324151489861,28.713572726800464,1843.3277417535812,70.73964000222387,2441.2310003432212,1
0.2378833996722168,34.6106785317019,-51.30772555375473,127.0,-127.0,97.37166469893742,-7.870284834488018,1.4941176470588253,-3.097560975609766,18.42745098039216,29.546938775510203,-12.450980392156861,2.4901960784313744,-1.4941176470588218,-8.466666666666665,9.683503645360584,101.34324151489861,28.71876249504295,1870.0685013599837,70.97280136181887,2423.9830852458144,1
0.2378833996722168,34.6106785317019,-51.30772555375473,127.0,-127.0,97.37166469893742,-7.870284834488018,-2.490196078431371,-5.1626016260162695,24.403921568627453,30.583673469387755,-1.4941176470588218,-6.474509803921567,0.4980392156862763,12.450980392156865,10.444754975160798,127.20705306703267,28.71876249504295,1870.0685013599837,70.97280136181887,2423.9830852458144,1
0.2378833996722168,34.6106785317019,-51.30772555375473,127.0,-127.0,97.37166469893742,-7.870284834488018,0.4980392156862763,2.0650406504064946,9.462745098039218,28.51020408163265,-7.470588235294116,3.4862745098039234,-1.4941176470588218,3.4862745098039234,7.059160493465678,84.36914836784753,28.71876249504295,1870.0685013599837,70.97280136181887,2423.9830852458144,1
0.2676188246312428,34.63636363636365,-51.33517017828201,127.0,-127.0,97.37166469893742,-7.919168591223979,0.4980392156862763,2.0650406504064946,9.462745098039218,28.51020408163265,-7.470588235294116,3.4862745098039234,-1.4941176470588218,3.4862745098039234,7.059160493465678,84.36914836784753,28.746384213092302,1872.5271798759882,70.99051127154856,2422.5096556980016,1
0.2676188246312428,34.63636363636365,-51.33517017828201,127.0,-127.0,97.37166469893742,-7.919168591223979,-1.4941176470588218,-3.097560975609766,-50.30196078431372,-15.03265306122449,-3.48627450980392,-1.4941176470588218,0.4980392156862763,0.4980392156862763,9.487845382055262,294.6891560025765,28.746384213092302,1872.5271798759882,70.99051127154856,2422.5096556980016,1
0.2676188246312428,34.63636363636365,-51.33517017828201,127.0,-127.0,97.37166469893742,-7.919168591223979,1.4941176470588253,1.032520325203242,42.333333333333336,8.812244897959182,-11.454901960784312,3.4862745098039234,4.482352941176472,-7.470588235294116,10.070791731326675,182.99550765876353,28.746384213092302,1872.5271798759882,70.99051127154856,2422.5096556980016,1
-0.178412549754147,34.94458489230459,-51.41750405186386,126.93932154801718,-126.93006607929516,97.37166469893742,-8.114703618167766,1.4941176470588253,1.032520325203242,42.333333333333336,8.812244897959182,-11.454901960784312,3.4862745098039234,4.482352941176472,-7.470588235294116,10.070791731326675,182.99550765876353,28.84683383130753,1886.2466423461497,71.10047016406187,2406.322259318929,1
-0.178412549754147,34.94458489230459,-51.41750405186386,126.93932154801718,-126.93006607929516,97.37166469893742,-8.114703618167766,-3.48627450980392,-22.715447154471555,-46.317647058823525,-8.812244897959184,2.4901960784313744,0.4980392156862763,-7.470588235294116,-35.36078431372549,15.893902683024429,291.8343534350809,28.84683383130753,1886.2466423461497,71.10047016406187,2406.322259318929,1
-0.178412549754147,34.94458489230459,-51.41750405186386,126.93932154801718,-126.93006607929516,97.37166469893742,-8.114703618167766,2.4901960784313744,5.162601626016251,18.42745098039216,17.10612244897959,11.454901960784316,2.4901960784313744,8.466666666666669,13.447058823529414,9.880649332903893,39.135678271689564,28.84683383130753,1886.2466423461497,71.10047016406187,2406.322259318929,1
-0.23788339967219907,34.867529578319356,-51.39005942733658,126.696607740086,-126.86013215859029,97.31168831168831,-8.212471131639688,2.4901960784313744,5.162601626016251,18.42745098039216,17.10612244897959,11.454901960784316,2.4901960784313744,8.466666666666669,13.447058823529414,9.880649332903893,39.135678271689564,28.831824135109382,1881.551132298193,70.98473224858064,2396.108301238662,1
-0.23788339967219907,34.867529578319356,-51.39005942733658,126.696607740086,-126.86013215859029,97.31168831168831,-8.212471131639688,0.4980392156862763,-6.195121951219521,-6.474509803921567,4.665306122448979,4.482352941176472,5.4784313725490215,1.4941176470588253,7.4705882352941195,4.594808411169348,5.937228157547048,28.831824135109382,1881.551132298193,70.98473224858064,2396.108301238662,1
-0.23788339967219907,34.867529578319356,-51.39005942733658,126.696607740086,-126.86013215859029,97.31168831168831,-8.212471131639688,-4.482352941176469,-4.130081300813018,50.30196078431373,13.995918367346938,10.458823529411767,-8.466666666666665,-8.466666666666665,-6.474509803921567,13.347122507539602,233.26168157026498,28.831824135109382,1881.551132298193,70.98473224858064,2396.108301238662,1
-0.9217981737297969,34.764789159672375,-51.41750405186386,126.39321548017199,-126.77621145374448,97.43164108618654,-8.310238645111554,-4.482352941176469,-4.130081300813018,50.30196078431373,13.995918367346938,10.458823529411767,-8.466666666666665,-8.466666666666665,-6.474509803921567,13.347122507539602,233.26168157026498,29.03469712842201,1875.1227484724614,70.85850289723608,2382.4064545721294,1
-0.9217981737297969,34.764789159672375,-51.41750405186386,126.39321548017199,-126.77621145374448,97.43164108618654,-8.310238645111554,1.4941176470588253,-9.769962616701378e-15,12.450980392156865,3.628571428571428,-9.462745098039214,4.482352941176472,7.4705882352941195,16.43529411764706,6.928081232493,31.714709766259432,29.03469712842201,1875.1227484724614,70.85850289723608,2382.4064545721294,1
-0.9217981737297969,34.764789159672375,-51.41750405186386,126.39321548017199,-126.77621145374448,97.43164108618654,-8.310238645111554,-3.48627450980392,-23.747967479674806,-25.4,-15.03265306122449,-7.470588235294116,-1.4941176470588218,0.4980392156862763,5.4784313725490215,10.32600894016143,97.50748169469293,29.03469712842201,1875.1227484724614,70.85850289723608,2382.4064545721294,1
-0.535237649262459,34.430882799069686,-51.170502431118315,126.21118012422357,-126.73425110132158,97.55159386068478,-8.359122401847515,-3.48627450980392,-23.747967479674806,-25.4,-15.03265306122449,-7.470588235294116,-1.4941176470588218,0.4980392156862763,5.4784313725490215,10.32600894016143,97.50748169469293,28.712207626483487,1852.3594620104952,70.60418845147052,2389.1568585266373,1
-0.535237649262459,34.430882799069686,-51.170502431118315,126.21118012422357,-126.73425110132158,97.55159386068478,-8.359122401847515,7.4705882352941195,6.195121951219502,34.36470588235294,12.959183673469386,14.443137254901963,2.4901960784313744,0.4980392156862763,-21.415686274509802,12.479582320733172,124.40397559672124,28.712207626483487,1852.3594620104952,70.60418845147052,2389.1568585266373,1
-0.535237649262459,34.430882799069686,-51.170502431118315,126.21118012422357,-126.73425110132158,97.55159386068478,-8.359122401847515,5.4784313725490215,-2.0650406504065137,1.4941176470588253,-2.591836734693878,-2.490196078431371,1.4941176470588253,-1.4941176470588218,-11.454901960784312,3.5703449672551963,11.87561906274376,28.712207626483487,1852.3594620104952,70.60418845147052,2389.1568585266373,1
-1.2191524233200568,33.84012539184954,-51.44494867639114,125.72575250836121,-126.66431718061673,97.91145218417945,-8.26135488837565,5.4784313725490215,-2.0650406504065137,1.4941176470588253,-2.591836734693878,-2.490196078431371,1.4941176470588253,-1.4941176470588218,-11.454901960784312,3.5703449672551963,11.87561906274376,28.834742163853576,1837.5545715002586,70.33694219220062,2378.4226818996967,1
-1.2191524233200568,33.84012539184954,-51.44494867639114,125.72575250836121,-126.66431718061673,97.91145218417945,-8.26135488837565,0.4980392156862763,-7.227642276422774,-9.462745098039214,18.142857142857142,20.419607843137257,10.458823529411767,5.4784313725490215,-12.450980392156861,10.517390858782539,42.52243990545092,28.834742163853576,1837.5545715002586,70.33694219220062,2378.4226818996967,1
-1.2191524233200568,33.84012539184954,-51.44494867639114,125.72575250836121,-126.66431718061673,97.91145218417945,-8.26135488837565,4.482352941176472,-7.227642276422774,-49.305882352941175,-0.518367346938776,-18.427450980392155,-10.458823529411763,-1.4941176470588218,-19.423529411764704,13.91727081076333,254.65849244567562,28.834742163853576,1837.5545715002586,70.33694219220062,2378.4226818996967,1
-2.765394521189408,34.0456062291435,-51.55472717450027,124.93693263258479,-126.53843612334802,98.57119244391971,-8.310238645111554,4.482352941176472,-7.227642276422774,-49.305882352941175,-0.518367346938776,-18.427450980392155,-10.458823529411763,-1.4941176470588218,-19.423529411764704,13.91727081076333,254.65849244567562,29.45524264161106,1843.8109726352345,70.17908867874286,2325.4584349247602,1
-2.765394521189408,34.0456062291435,-51.55472717450027,124.93693263258479,-126.53843612334802,98.57119244391971,-8.310238645111554,-8.466666666666665,-22.715447154471555,-11.454901960784312,3.628571428571428,-17.431372549019606,4.482352941176472,1.4941176470588253,11.454901960784316,10.141041538566647,52.38898697520092,29.45524264161106,1843.8109726352345,70.17908867874286,2325.4584349247602,1
-2.765394521189408,34.0456062291435,-51.55472717450027,124.93693263258479,-126.53843612334802,98.57119244391971,-8.310238645111554,-8.466666666666665,-13.422764227642286,-69.22745098039215,-17.10612244897959,-0.49803921568627274,2.4901960784313744,-3.48627450980392,-7.470588235294116,15.271012795362047,506.5281003109898,29.45524264161106,1843.8109726352345,70.17908867874286,2325.4584349247602,1
-2.557246546476226,33.4805339265851,-51.527282549972995,124.20879120879118,-126.45451541850218,99.41086186540733,-8.26135488837565,-8.466666666666665,-13.422764227642286,-69.22745098039215,-17.10612244897959,-0.49803921568627274,2.4901960784313744,-3.48627450980392,-7.470588235294116,15.271012795362047,506.5281003109898,29.188354341011443,1820.5191516200855,69.73886922844976,2306.6505843772998,1
-2.557246546476226,33.4805339265851,-51.527282549972995,124.20879120879118,-126.45451541850218,99.41086186540733,-8.26135488837565,2.4901960784313744,-4.130081300813018,-5.478431372549018,2.591836734693877,8.466666666666669,-9.462745098039214,6.4745098039215705,47.31372549019608,10.801024068163851,224.06119926465365,29.188354341011443,1820.5191516200855,69.73886922844976,2306.6505843772998,1
-2.557246546476226,33.4805339265851,-51.527282549972995,124.20879120879118,-126.45451541850218,99.41086186540733,-8.26135488837565,-3.48627450980392,1.032520325203242,3.4862745098039234,-5.70204081632653,-7.470588235294116,-6.474509803921567,-5.478431372549018,-6.474509803921567,4.950643672102985,4.496865535794167,29.188354341011443,1820.5191516200855,69.73886922844976,2306.6505843772998,1
-2.497775696558174,33.50621903124685,-51.6645056726094,123.60200668896323,-126.37059471365637,100.43046044864226,-8.26135488837565,-3.48627450980392,1.032520325203242,3.4862745098039234,-5.70204081632653,-7.470588235294116,-6.474509803921567,-5.478431372549018,-6.474509803921567,4.950643672102985,4.496865535794167,29.222833466804804,1827.9512199129695,69.59091046427316,2270.3297299820188,1
-2.497775696558174,33.50621903124685,-51.6645056726094,123.60200668896323,-126.37059471365637,100.43046044864226,-8.26135488837565,-2.490196078431371,-9.292682926829277,27.3921568627451,9.848979591836734,-3.48627450980392,11.454901960784316,-3.48627450980392,-6.474509803921567,9.240747030519525,64.88553138178568,29.222833466804804,1827.9512199129695,69.59091046427316,2270.3297299820188,1
-2.497775696558174,33.50621903124685,-51.6645056726094,123.60200668896323,-126.37059471365637,100.43046044864226,-8.26135488837565,5.4784313725490215,9.292682926829258,-14.44313725490196,9.848979591836734,-26.396078431372548,-15.439215686274508,5.4784313725490215,17.43137254901961,12.976041148166583,49.13441783204111,29.222833466804804,1827.9512199129695,69.59091046427316,2270.3297299820188,1
-2.0220088972137584,33.63464455455558,-52.268287412209624,122.87386526516963,-126.28667400881056,101.03022432113342,-8.114703618167766,5.4784313725490215,9.292682926829258,-14.44313725490196,9.848979591836734,-26.396078431372548,-15.439215686274508,5.4784313725490215,17.43137254901961,12.976041148166583,49.13441783204111,29.30831362132632,1862.5665267454667,69.59226574397827,2215.9997971891144,1
-2.0220088972137584,33.63464455455558,-52.268287412209624,122.87386526516963,-126.28667400881056,101.03022432113342,-8.114703618167766,-1.4941176470588218,6.195121951219502,10.458823529411767,9.848979591836734,-6.474509803921567,-11.454901960784312,-9.462745098039214,-15.439215686274508,8.853551908568303,17.280748985978175,29.30831362132632,1862.5665267454667,69.59226574397827,2215.9997971891144,1
-2.0220088972137584,33.63464455455558,-52.268287412209624,122.87386526516963,-126.28667400881056,101.03022432113342,-8.114703618167766,-2.490196078431371,-3.097560975609766,55.28235294117647,35.76734693877551,33.3686274509804,0.4980392156862763,-9.462745098039214,-11.454901960784312,18.927721332435414,402.80574289941086,29.30831362132632,1862.5665267454667,69.59226574397827,2215.9997971891144,1
-1.1596815734020047,33.81444028718779,-51.85661804430038,122.57047300525562,-126.2726872246696,101.45005903187722,-8.016936104695901,-2.490196078431371,-3.097560975609766,55.28235294117647,35.76734693877551,33.3686274509804,0.4980392156862763,-9.462745098039214,-11.454901960784312,18.927721332435414,402.80574289941086,28.943579968296728,1855.48313384849,69.4138437789146,2200.6004675848317,1
-1.1596815734020047,33.81444028718779,-51.85661804430038,122.57047300525562,-126.2726872246696,101.45005903187722,-8.016936104695901,0.4980392156862763,2.0650406504064946,-40.34117647058824,-16.069387755102042,-11.454901960784312,1.4941176470588253,-3.48627450980392,-11.454901960784312,10.857980021276802,174.82834171813008,28.943579968296728,1855.48313384849,69.4138437789146,2200.6004675848317,1
-1.1596815734020047,33.81444028718779,-51.85661804430038,122.57047300525562,-126.2726872246696,101.45005903187722,-8.016936104695901,-1.4941176470588218,-4.130081300813018,12.450980392156865,19.179591836734694,42.333333333333336,-3.48627450980392,6.4745098039215705,-0.49803921568627274,11.255866004938563,196.43571428648542,28.943579968296728,1855.48313384849,69.4138437789146,2200.6004675848317,1
-1.3380941231561607,33.352108403276375,-51.9938411669368,122.02436693741043,-126.24471365638766,101.98984651711925,-7.821401077752057,-1.4941176470588218,-4.130081300813018,12.450980392156865,19.179591836734694,42.333333333333336,-3.48627450980392,6.4745098039215705,-0.49803921568627274,11.255866004938563,196.43571428648542,28.894681231123112,1842.2243279882946,69.12343883587452,2185.7596956108355,1
-1.3380941231561607,33.352108403276375,-51.9938411669368,122.02436693741043,-126.24471365638766,101.98984651711925,-7.821401077752057,-4.482352941176469,-17.552845528455293,-8.466666666666665,5.70204081632653,15.439215686274512,0.4980392156862763,3.4862745098039234,39.345098039215685,11.87156667545067,157.6752998648695,28.894681231123112,1842.2243279882946,69.12343883587452,2185.7596956108355,1
-1.3380941231561607,33.352108403276375,-51.9938411669368,122.02436693741043,-126.24471365638766,101.98984651711925,-7.821401077752057,5.4784313725490215,4.130081300812998,-16.435294117647057,-10.885714285714286,3.4862745098039234,-5.478431372549018,-15.439215686274508,-31.376470588235293,11.588739154198263,89.47386520993952,28.894681231123112,1842.2243279882946,69.12343883587452,2185.7596956108355,1
8.881784197001252e-15,33.4805339265851,-51.691950297136685,121.90301003344479,-126.25870044052863,102.34970484061394,-7.723633564280192,5.4784313725490215,4.130081300812998,-16.435294117647057,-10.885714285714286,3.4862745098039234,-5.478431372549018,-15.439215686274508,-31.376470588235293,11.588739154198263,89.47386520993952,28.390828074573932,1841.2259910618338,69.02516475238886,2179.9638127308654,1
8.881784197001252e-15,33.4805339265851,-51.691950297136685,121.90301003344479,-126.25870044052863,102.34970484061394,-7.723633564280192,-3.48627450980392,8.260162601626007,28.38823529411765,7.775510204081632,1.4941176470588253,-21.415686274509802,3.4862745098039234,22.411764705882355,12.089753218360514,107.53472978644707,28.390828074573932,1841.2259910618338,69.02516475238886,2179.9638127308654,1
8.881784197001252e-15,33.4805339265851,-51.691950297136685,121.90301003344479,-126.25870044052863,102.34970484061394,-7.723633564280192,-13.44705882352941,-13.422764227642286,22.411764705882355,4.665306122448979,-2.490196078431371,10.458823529411767,0.4980392156862763,-19.423529411764704,10.852185264349643,62.28521040952132,28.390828074573932,1841.2259910618338,69.02516475238886,2179.9638127308654,1
0.3865605244673468,33.891495601173034,-51.47239330091843,121.90301003344479,-126.24471365638766,102.34970484061394,-7.723633564280192,-13.44705882352941,-13.422764227642286,22.411764705882355,4.665306122448979,-2.490196078431371,10.458823529411767,0.4980392156862763,-19.423529411764704,10.852185264349643,62.28521040952132,28.58348314218627,1849.8208824743951,69.08896631184541,2169.2644016524855,1
0.3865605244673468,33.891495601173034,-51.47239330091843,121.90301003344479,-126.24471365638766,102.34970484061394,-7.723633564280192,8.466666666666669,1.032520325203242,25.400000000000002,26.43673469387755,-4.482352941176469,12.450980392156865,10.458823529411767,32.372549019607845,15.13757844601255,130.87550778983422,28.58348314218627,1849.8208824743951,69.08896631184541,2169.2644016524855,1
0.3865605244673468,33.891495601173034,-51.47239330091843,121.90301003344479,-126.24471365638766,102.34970484061394,-7.723633564280192,-4.482352941176469,-4.130081300813018,-4.482352941176469,17.10612244897959,-8.466666666666665,-7.470588235294116,-14.44313725490196,-8.466666666666665,8.630996056959368,23.09857433164439,28.58348314218627,1849.8208824743951,69.08896631184541,2169.2644016524855,1
0.08920627487708688,33.5319041359086,-51.691950297136685,121.72097467749643,-126.30066079295153,102.40968122786305,-7.430331023864483,-4.482352941176469,-4.130081300813018,-4.482352941176469,17.10612244897959,-8.466666666666665,-7.470588235294116,-14.44313725490196,-8.466666666666665,8.630996056959368,23.09857433164439,28.43768690264079,1843.8012634307565,68.98160970351391,2168.5272825386846,1
0.08920627487708688,33.5319041359086,-51.691950297136685,121.72097467749643,-126.30066079295153,102.40968122786305,-7.430331023864483,-0.49803921568627274,7.227642276422754,71.21960784313725,8.812244897959182,-3.48627450980392,-4.482352941176469,-0.49803921568627274,1.4941176470588253,12.214789818366368,577.641766200546,28.43768690264079,1843.8012634307565,68.98160970351391,2168.5272825386846,1
0.08920627487708688,33.5319041359086,-51.691950297136685,121.72097467749643,-126.30066079295153,102.40968122786305,-7.430331023864483,9.462745098039218,33.04065040650406,5.4784313725490215,23.3265306122449,-25.4,12.450980392156865,6.4745098039215705,19.423529411764708,16.882172137147542,99.24088013905758,28.43768690264079,1843.8012634307565,68.98160970351391,2168.5272825386846,1
1.1299461484429965,33.429163717261616,-51.41750405186386,121.96368848542761,-126.41255506607928,102.40968122786305,-7.185912240184734,9.462745098039218,33.04065040650406,5.4784313725490215,23.3265306122449,-25.4,12.450980392156865,6.4745098039215705,19.423529411764708,16.882172137147542,99.24088013905758,28.658871305856156,1833.905168272661,68.93678541818436,2189.784433675478,1
1.1299461484429965,33.429163717261616,-51.41750405186386,121.96368848542761,-126.41255506607928,102.40968122786305,-7.185912240184734,2.4901960784313744,-10.32520325203253,-26.396078431372548,-1.555102040816327,-17.431372549019606,13.447058823529414,-1.4941176470588218,-5.478431372549018,9.827195024351205,79.47340557677602,28.658871305856156,1833.905168272661,68.93678541818436,2189.784433675478,1
1.1299461484429965,33.429163717261616,-51.41750405186386,121.96368848542761,-126.41255506607928,102.40968122786305,-7.185912240184734,-4.482352941176469,-28.910569105691067,-25.4,-29.546938775510206,-24.40392156862745,-1.4941176470588218,0.4980392156862763,12.450980392156865,15.898364955738394,157.869821434052,28.658871305856156,1833.905168272661,68.93678541818436,2189.784433675478,1
0.7136501990166326,33.71169986854081,-51.25283630470017,122.14572384137603,-126.49647577092512,102.46965761511215,-6.99037721324089,-4.482352941176469,-28.910569105691067,-25.4,-29.546938775510206,-24.40392156862745,-1.4941176470588218,0.4980392156862763,12.450980392156865,15.898364955738394,157.869821434052,28.559395457419203,1834.7265681112235,69.03675333820567,2192.3449277979535,1
0.7136501990166326,33.71169986854081,-51.25283630470017,122.14572384137603,-126.49647577092512,102.46965761511215,-6.99037721324089,-3.48627450980392,-8.260162601626025,-23.4078431372549,6.738775510204081,-0.49803921568627274,-19.423529411764704,-9.462745098039214,-37.35294117647059,13.578788832606214,151.5659799696521,28.559395457419203,1834.7265681112235,69.03675333820567,2192.3449277979535,1
0.7136501990166326,33.71169986854081,-51.25283630470017,122.14572384137603,-126.49647577092512,102.46965761511215,-6.99037721324089,-0.49803921568627274,-14.455284552845537,-24.40392156862745,-7.775510204081634,-15.439215686274508,23.407843137254904,25.400000000000002,85.16470588235295,24.56806503089041,674.4254737003475,28.559395457419203,1834.7265681112235,69.03675333820567,2192.3449277979535,1
-0.20814797471317303,34.096976438466996,-51.41750405186386,122.0850453893932,-126.51046255506608,102.70956316410862,-6.941493456504986,-0.49803921568627274,-14.455284552845537,-24.40392156862745,-7.775510204081634,-15.439215686274508,23.407843137254904,25.400000000000002,85.16470588235295,24.56806503089041,674.4254737003475,28.574209488348007,1851.994347395226,69.19984195990801,2172.6337255351345,1
-0.20814797471317303,34.096976438466996,-51.41750405186386,122.0850453893932,-126.51046255506608,102.70956316410862,-6.941493456504986,7.4705882352941195,-12.390243902439034,-16.435294117647057,-7.775510204081634,-15.439215686274508,0.4980392156862763,-5.478431372549018,-13.44705882352941,9.866797694687632,30.075676514613495,28.574209488348007,1851.994347395226,69.19984195990801,2172.6337255351345,1
-0.20814797471317303,34.096976438466996,-51.41750405186386,122.0850453893932,-126.51046255506608,102.70956316410862,-6.941493456504986,5.4784313725490215,9.292682926829258,-7.470588235294116,-6.738775510204082,-2.490196078431371,-3.48627450980392,-0.49803921568627274,-7.470588235294116,5.36569701051152,8.810747582868029,28.574209488348007,1851.994347395226,69.19984195990801,2172.6337255351345,1
0.20814797471319083,34.17403175245223,-51.637061048082124,122.0850453893932,-126.52444933920705,102.70956316410862,-6.892609699769025,5.4784313725490215,9.292682926829258,-7.470588235294116,-6.738775510204082,-2.490196078431371,-3.48627450980392,-0.49803921568627274,-7.470588235294116,5.36569701051152,8.810747582868029,28.673080258415848,1867.5251011736887,69.29871272997586,2166.03703476801,1
0.20814797471319083,34.17403175245223,-51.637061048082124,122.0850453893932,-126.52444933920705,102.70956316410862,-6.892609699769025,-3.48627450980392,-7.227642276422774,-7.470588235294116,18.142857142857142,26.39607843137255,14.443137254901963,1.4941176470588253,-6.474509803921567,10.641900662704106,70.41061629508856,28.673080258415848,1867.5251011736887,69.29871272997586,2166.03703476801,1
0.20814797471319083,34.17403175245223,-51.637061048082124,122.0850453893932,-126.52444933920705,102.70956316410862,-6.892609699769025,-4.482352941176469,-11.357723577235781,-9.462745098039214,-0.518367346938776,12.450980392156865,-5.478431372549018,1.4941176470588253,-3.48627450980392,6.091374110619858,20.212790618476372,28.673080258415848,1867.5251011736887,69.29871272997586,2166.03703476801,1
0.7433856239756587,33.94286581049652,-52.02128579146408,122.02436693741043,-126.56640969162996,102.46965761511215,-6.648190916089277,-4.482352941176469,-11.357723577235781,-9.462745098039214,-0.518367346938776,12.450980392156865,-5.478431372549018,1.4941176470588253,-3.48627450980392,6.091374110619858,20.212790618476372,28.90251240864542,1879.3585658132301,69.32950617979036,2164.268579950789,1
0.7433856239756587,33.94286581049652,-52.02128579146408,122.02436693741043,-126.56640969162996,102.46965761511215,-6.648190916089277,1.4941176470588253,-10.32520325203253,-38.34901960784313,-1.555102040816327,-1.4941176470588218,-3.48627450980392,-2.490196078431371,-11.454901960784312,8.831116592978656,158.54303538429096,28.90251240864542,1879.3585658132301,69.32950617979036,2164.268579950789,1
0.7433856239756587,33.94286581049652,-52.02128579146408,122.02436693741043,-126.56640969162996,102.46965761511215,-6.648190916089277,2.4901960784313744,-4.130081300813018,34.36470588235294,37.840816326530614,19.423529411764708,8.466666666666669,1.4941176470588253,2.4901960784313744,13.83753867400619,223.0986613669563,28.90251240864542,1879.3585658132301,69.32950617979036,2164.268579950789,1
-0.08920627487706911,34.0456062291435,-52.35062128579147,121.72097467749643,-126.58039647577093,102.28972845336482,-6.354888375673568,2.4901960784313744,-4.130081300813018,34.36470588235294,37.840816326530614,19.423529411764708,8.466666666666669,1.4941176470588253,2.4901960784313744,13.83753867400619,223.0986613669563,28.82847792993735,1893.458175406679,69.37240073081047,2139.048289744763,1
-0.08920627487706911,34.0456062291435,-52.35062128579147,121.72097467749643,-126.58039647577093,102.28972845336482,-6.354888375673568,-2.490196078431371,-23.747967479674806,-38.34901960784313,-0.518367346938776,-0.49803921568627274,-7.470588235294116,5.4784313725490215,19.423529411764708,12.247017343522776,186.35885882407848,28.82847792993735,1893.458175406679,69.37240073081047,2139.048289744763,1
-0.08920627487706911,34.0456062291435,-52.35062128579147,121.72097467749643,-126.58039647577093,102.28972845336482,-6.354888375673568,5.4784313725490215,-1.0325203252032615,13.447058823529414,3.628571428571428,2.4901960784313744,-3.48627450980392,2.4901960784313744,23.407843137254904,6.932636469221837,59.00871802006077,28.82847792993735,1893.458175406679,69.37240073081047,2139.048289744763,1
-0.5649730742214849,34.27677217109921,-52.57017828200973,121.23554706163401,-126.53843612334802,102.22975206611571,-6.159353348729724,5.4784313725490215,-1.0325203252032615,13.447058823529414,3.628571428571428,2.4901960784313744,-3.48627450980392,2.4901960784313744,23.407843137254904,6.932636469221837,59.00871802006077,29.137307842443477,1910.1468972414586,69.36083250491431,2101.901684540534,1
-0.5649730742214849,34.27677217109921,-52.57017828200973,121.23554706163401,-126.53843612334802,102.22975206611571,-6.159353348729724,4.482352941176472,1.032520325203242,16.43529411764706,18.142857142857142,42.333333333333336,7.4705882352941195,6.4745098039215705,5.4784313725490215,12.731235908997746,177.6597270262458,29.137307842443477,1910.1468972414586,69.36083250491431,2101.901684540534,1
-0.5649730742214849,34.27677217109921,-52.57017828200973,121.23554706163401,-126.53843612334802,102.22975206611571,-6.159353348729724,2.4901960784313744,-13.422764227642286,-7.470588235294116,30.583673469387755,20.419607843137257,24.403921568627453,5.4784313725490215,-10.458823529411763,14.341000790560129,97.73428434327502,29.137307842443477,1910.1468972414586,69.36083250491431,2101.901684540534,1
0.2676188246312428,34.30245727576096,-52.57017828200973,121.0535117056856,-126.55242290748899,101.98984651711925,-5.963818321785936,2.4901960784313744,-13.422764227642286,-7.470588235294116,30.583673469387755,20.419607843137257,24.403921568627453,5.4784313725490215,-10.458823529411763,14.341000790560129,97.73428434327502,29.046751460800646,1916.1763067050497,69.30871575448542,2091.5703387140416,1
0.2676188246312428,34.30245727576096,-52.57017828200973,121.0535117056856,-126.55242290748899,101.98984651711925,-5.963818321785936,-13.44705882352941,-12.390243902439034,-19.423529411764704,3.628571428571428,-13.44705882352941,-4.482352941176469,-2.490196078431371,-12.450980392156861,10.219998975199836,35.90534229861125,29.046751460800646,1916.1763067050497,69.30871575448542,2091.5703387140416,1
0.2676188246312428,34.30245727576096,-52.57017828200973,121.0535117056856,-126.55242290748899,101.98984651711925,-5.963818321785936,-2.490196078431371,-12.390243902439034,28.38823529411765,18.142857142857142,9.462745098039218,-1.4941176470588218,-5.478431372549018,-23.4078431372549,12.656833709093394,97.56101936427252,29.046751460800646,1916.1763067050497,69.30871575448542,2091.5703387140416,1
-0.11894169983609504,34.251087066437464,-52.70740140464614,120.75011944577159,-126.53843612334802,101.92987012987012,-5.768283294842149,-2.490196078431371,-12.390243902439034,28.38823529411765,18.142857142857142,9.462745098039218,-1.4941176470588218,-5.478431372549018,-23.4078431372549,12.656833709093394,97.56101936427252,29.02581005697323,1918.103948115747,69.23620263895172,2075.42160332266,1
-0.11894169983609504,34.251087066437464,-52.70740140464614,120.75011944577159,-126.53843612334802,101.92987012987012,-5.768283294842149,-6.474509803921567,-9.292682926829277,5.4784313725490215,-0.518367346938776,-15.439215686274508,-1.4941176470588218,-0.49803921568627274,15.439215686274512,6.8293224606915945,37.80816837587611,29.02581005697323,1918.103948115747,69.23620263895172,2075.42160332266,1
-0.11894169983609504,34.251087066437464,-52.70740140464614,120.75011944577159,-126.53843612334802,101.92987012987012,-5.768283294842149,-3.48627450980392,-17.552845528455293,15.439215686274512,20.216326530612243,-16.435294117647057,-16.435294117647057,-3.48627450980392,-7.470588235294116,12.565264154442264,44.634344763145826,29.02581005697323,1918.103948115747,69.23620263895172,2075.42160332266,1
0.47576679934442473,34.251087066437464,-52.103619665045926,120.68944099378882,-126.55242290748899,101.86989374262102,-5.719399538106188,-3.48627450980392,-17.552845528455293,15.439215686274512,20.216326530612243,-16.435294117647057,-16.435294117647057,-3.48627450980392,-7.470588235294116,12.565264154442264,44.634344763145826,28.943491176942604,1893.7499191328207,69.01471590842407,2082.3861395321132,1
0.47576679934442473,34.251087066437464,-52.103619665045926,120.68944099378882,-126.55242290748899,101.86989374262102,-5.719399538106188,-2.490196078431371,8.260162601626007,33.3686274509804,31.620408163265306,46.31764705882353,-3.48627450980392,-0.49803921568627274,-7.470588235294116,16.688992914238867,310.44332397445174,28.943491176942604,1893.7499191328207,69.01471590842407,2082.3861395321132,1
0.47576679934442473,34.251087066437464,-52.103619665045926,120.68944099378882,-126.55242290748899,101.86989374262102,-5.719399538106188,-1.4941176470588218,1.032520325203242,-15.439215686274508,1.555102040816326,1.4941176470588253,1.4941176470588253,-0.49803921568627274,8.466666666666669,3.934237109477936,28.093956950347284,28.943491176942604,1893.7499191328207,69.01471590842407,2082.3861395321132,1
-0.267618824631225,34.35382748508445,-51.691950297136685,120.56808408982323,-126.52444933920705,101.98984651711925,-5.719399538106188,-1.4941176470588218,1.032520325203242,-15.439215686274508,1.555102040816326,1.4941176470588253,1.4941176470588253,-0.49803921568627274,8.466666666666669,3.934237109477936,28.093956950347284,28.77113220228412,1874.4970476863368,68.87128729068145,2079.571725130268,1
-0.267618824631225,34.35382748508445,-51.691950297136685,120.56808408982323,-126.52444933920705,101.98984651711925,-5.719399538106188,5.4784313725490215,10.32520325203251,-4.482352941176469,-9.848979591836734,-8.466666666666665,-0.49803921568627274,-5.478431372549018,-8.466666666666665,6.630596384895419,10.804084898153688,28.77113220228412,1874.4970476863368,68.87128729068145,2079.571725130268,1
-0.267618824631225,34.35382748508445,-51.691950297136685,120.56808408982323,-126.52444933920705,101.98984651711925,-5.719399538106188,7.4705882352941195,4.130081300812998,-5.478431372549018,-3.62857142857143,-4.482352941176469,-0.49803921568627274,-1.4941176470588218,-2.490196078431371,3.7090472774475622,4.966248914258174,28.77113220228412,1874.4970476863368,68.87128729068145,2079.571725130268,1
-0.8325918988527188,34.01992112448176,-51.39005942733658,120.38604873387482,-126.49647577092512,102.46965761511215,-5.719399538106188,7.4705882352941195,4.130081300812998,-5.478431372549018,-3.62857142857143,-4.482352941176469,-0.49803921568627274,-1.4941176470588218,-2.490196078431371,3.7090472774475622,4.966248914258174,28.747524150223686,1844.2699941328979,68.59867642856439,2086.879373881701,1
-0.8325918988527188,34.01992112448176,-51.39005942733658,120.38604873387482,-126.49647577092512,102.46965761511215,-5.719399538106188,0.4980392156862763,-7.227642276422774,-9.462745098039214,-13.995918367346938,-26.396078431372548,9.462745098039218,-5.478431372549018,-13.44705882352941,10.746082335373174,58.74613569372434,28.747524150223686,1844.2699941328979,68.59867642856439,2086.879373881701,1
-0.8325918988527188,34.01992112448176,-51.39005942733658,120.38604873387482,-126.49647577092512,102.46965761511215,-5.719399538106188,3.4862745098039234,14.45528455284552,38.34901960784314,-4.66530612244898,-5.478431372549018,-0.49803921568627274,3.4862745098039234,-9.462745098039214,9.985171873627499,149.69305670079302,28.747524150223686,1844.2699941328979,68.59867642856439,2086.879373881701,1
-0.386560524467329,34.01992112448176,-51.30772555375473,120.32537028189199,-126.51046255506608,102.82951593860685,-5.719399538106188,3.4862745098039234,14.45528455284552,38.34901960784314,-4.66530612244898,-5.478431372549018,-0.49803921568627274,3.4862745098039234,-9.462745098039214,9.985171873627499,149.69305670079302,28.571402400901274,1842.929719174226,68.55100565337615,2085.155670011081,1
-0.386560524467329,34.01992112448176,-51.30772555375473,120.32537028189199,-126.51046255506608,102.82951593860685,-5.719399538106188,5.4784313725490215,-15.48780487804879,-5.478431372549018,3.628571428571428,8.466666666666669,-7.470588235294116,8.466666666666669,11.454901960784316,8.241507822641253,14.296971148049124,28.571402400901274,1842.929719174226,68.55100565337615,2085.155670011081,1
-0.386560524467329,34.01992112448176,-51.30772555375473,120.32537028189199,-126.51046255506608,102.82951593860685,-5.719399538106188,-3.48627450980392,-12.390243902439034,-24.40392156862745,-16.069387755102042,6.4745098039215705,-9.462745098039214,-7.470588235294116,-5.478431372549018,10.654512780722046,46.940777827315756,28.571402400901274,1842.929719174226,68.55100565337615,2085.155670011081,1
-0.7136501990166149,34.35382748508445,-51.47239330091843,120.2040133779264,-126.49647577092512,103.06942148760331,-5.719399538106188,-3.48627450980392,-12.390243902439034,-24.40392156862745,-16.069387755102042,6.4745098039215705,-9.462745098039214,-7.470588235294116,-5.478431372549018,10.654512780722046,46.940777827315756,28.846623661673163,1862.0530278029173,68.67674472130976,2064.5558853061207,1
-0.7136501990166149,34.35382748508445,-51.47239330091843,120.2040133779264,-126.49647577092512,103.06942148760331,-5.719399538106188,-1.4941176470588218,-9.292682926829277,-10.458823529411763,-13.995918367346938,-26.396078431372548,0.4980392156862763,-3.48627450980392,-5.478431372549018,8.88754575000732,71.5885183279769,28.846623661673163,1862.0530278029173,68.67674472130976,2064.5558853061207,1
-0.7136501990166149,34.35382748508445,-51.47239330091843,120.2040133779264,-126.49647577092512,103.06942148760331,-5.719399538106188,7.4705882352941195,9.292682926829258,75.20392156862745,15.03265306122449,-9.462745098039214,7.4705882352941195,5.4784313725490215,-5.478431372549018,16.861255233800836,564.9626216319344,28.846623661673163,1862.0530278029173,68.67674472130976,2064.5558853061207,1
-0.5649730742214849,34.764789159672375,-51.49983792544571,120.02197802197799,-126.45451541850218,103.06942148760331,-5.768283294842149,7.4705882352941195,9.292682926829258,75.20392156862745,15.03265306122449,-9.462745098039214,7.4705882352941195,5.4784313725490215,-5.478431372549018,16.861255233800836,564.9626216319344,28.94320005311319,1880.6897405084064,68.76220170236536,2040.6889655507428,1
-0.5649730742214849,34.764789159672375,-51.49983792544571,120.02197802197799,-126.45451541850218,103.06942148760331,-5.768283294842149,-0.49803921568627274,-6.195121951219521,-3.48627450980392,2.591836734693877,-7.470588235294116,0.4980392156862763,3.4862745098039234,3.4862745098039234,3.4640561102489786,5.981111477903958,28.94320005311319,1880.6897405084064,68.76220170236536,2040.6889655507428,1
-0.5649730742214849,34.764789159672375,-51.49983792544571,120.02197802197799,-126.45451541850218,103.06942148760331,-5.768283294842149,-7.470588235294116,-17.552845528455293,-36.35686274509804,6.738775510204081,-4.482352941176469,-1.4941176470588218,-0.49803921568627274,8.466666666666669,10.38253106120497,137.5750559731708,28.94320005311319,1880.6897405084064,68.76220170236536,2040.6889655507428,1
0.44603137438539875,34.45656790373143,-51.41750405186386,120.02197802197799,-126.45451541850218,103.06942148760331,-5.719399538106188,-7.470588235294116,-17.552845528455293,-36.35686274509804,6.738775510204081,-4.482352941176469,-1.4941176470588218,-0.49803921568627274,8.466666666666669,10.38253106120497,137.5750559731708,28.773367776660233,1870.149856026425,68.6320166591911,2052.6144354068038,1
0.44603137438539875,34.45656790373143,-51.41750405186386,120.02197802197799,-126.45451541850218,103.06942148760331,-5.719399538106188,2.4901960784313744,-2.0650406504065137,2.4901960784313744,15.03265306122449,-31.376470588235293,-9.462745098039214,-1.4941176470588218,0.4980392156862763,8.113682302189169,113.21419456095069,28.773367776660233,1870.149856026425,68.6320166591911,2052.6144354068038,1
0.44603137438539875,34.45656790373143,-51.41750405186386,120.02197802197799,-126.45451541850218,103.06942148760331,-5.719399538106188,-3.48627450980392,-13.422764227642286,-1.4941176470588218,5.70204081632653,22.411764705882355,-8.466666666666665,-4.482352941176469,-32.372549019607845,11.479816316770611,116.40370924871583,28.773367776660233,1870.149856026425,68.6320166591911,2052.6144354068038,1
0.47576679934442473,34.27677217109921,-51.41750405186386,120.02197802197799,-126.45451541850218,103.06942148760331,-5.719399538106188,-3.48627450980392,-13.422764227642286,-1.4941176470588218,5.70204081632653,22.411764705882355,-8.466666666666665,-4.482352941176469,-32.372549019607845,11.479816316770611,116.40370924871583,28.7233476741025,1863.1547501926252,68.57208474831369,2058.7698107556507,1
0.47576679934442473,34.27677217109921,-51.41750405186386,120.02197802197799,-126.45451541850218,103.06942148760331,-5.719399538106188,-4.482352941176469,-1.0325203252032615,3.4862745098039234,6.738775510204081,16.43529411764706,4.482352941176472,1.4941176470588253,-13.44705882352941,6.449843351974938,31.31215949932769,28.7233476741025,1863.1547501926252,68.57208474831369,2058.7698107556507,1
0.47576679934442473,34.27677217109921,-51.41750405186386,120.02197802197799,-126.45451541850218,103.06942148760331,-5.719399538106188,-0.49803921568627274,-16.520325203252042,-10.458823529411763,-4.66530612244898,-26.396078431372548,4.482352941176472,-4.482352941176469,-4.482352941176469,8.998203915712628,73.37246989573227,28.7233476741025,1863.1547501926252,68.57208474831369,2058.7698107556507,1
0.2973542495902688,34.45656790373143,-51.39005942733658,120.02197802197799,-126.46850220264315,103.06942148760331,-5.719399538106188,-0.49803921568627274,-16.520325203252042,-10.458823529411763,-4.66530612244898,-26.396078431372548,4.482352941176472,-4.482352941176469,-4.482352941176469,8.998203915712628,73.37246989573227,28.714660526886092,1868.014005699717,68.62286845101534,2053.0871323108704,1
0.2973542495902688,34.45656790373143,-51.39005942733658,120.02197802197799,-126.46850220264315,103.06942148760331,-5.719399538106188,2.4901960784313744,5.162601626016251,21.415686274509806,6.738775510204081,-4.482352941176469,5.4784313725490215,1.4941176470588253,3.4862745098039234,6.343554494968719,39.9231389559994,28.714660526886092,1868.014005699717,68.62286845101534,2053.0871323108704,1
0.2973542495902688,34.45656790373143,-51.39005942733658,120.02197802197799,-126.46850220264315,103.06942148760331,-5.719399538106188,-1.4941176470588218,-15.48780487804879,-17.431372549019606,13.995918367346938,22.411764705882355,0.4980392156862763,0.4980392156862763,6.4745098039215705,9.78644579783133,74.3356224420611,28.714660526886092,1868.014005699717,68.62286845101534,2053.0871323108704,1
0.0594708499180609,34.45656790373143,-51.746839546191254,120.02197802197799,-126.46850220264315,103.06942148760331,-5.719399538106188,-1.4941176470588218,-15.48780487804879,-17.431372549019606,13.995918367346938,22.411764705882355,0.4980392156862763,0.4980392156862763,6.4745098039215705,9.78644579783133,74.3356224420611,28.754292766613585,1883.013589760811,68.74179515730022,2046.9812393436055,1
0.0594708499180609,34.45656790373143,-51.746839546191254,120.02197802197799,-126.46850220264315,103.06942148760331,-5.719399538106188,1.4941176470588253,-4.130081300813018,-7.470588235294116,-7.775510204081634,-5.478431372549018,8.466666666666669,6.4745098039215705,18.42745098039216,7.4646695263471265,24.710822727581895,28.754292766613585,1883.013589760811,68.74179515730022,2046.9812393436055,1
0.0594708499180609,34.45656790373143,-51.746839546191254,120.02197802197799,-126.46850220264315,103.06942148760331,-5.719399538106188,-2.490196078431371,12.390243902439014,21.415686274509806,25.4,-14.44313725490196,-3.48627450980392,-6.474509803921567,-14.44313725490196,12.5678981348637,67.310877934195,28.754292766613585,1883.013589760811,68.74179515730022,2046.9812393436055,1
-0.029735424959017098,34.50793811305492,-51.8291734197731,120.02197802197799,-126.46850220264315,103.06942148760331,-5.670515781370227,-2.490196078431371,12.390243902439014,21.415686274509806,25.4,-14.44313725490196,-3.48627450980392,-6.474509803921567,-14.44313725490196,12.5678981348637,67.310877934195,28.78894898592901,1888.3549163048335,68.78636318493534,2043.822468935014,1
-0.029735424959017098,34.50793811305492,-51.8291734197731,120.02197802197799,-126.46850220264315,103.06942148760331,-5.670515781370227,3.4862745098039234,2.0650406504064946,-16.435294117647057,13.995918367346938,-1.4941176470588218,-3.48627450980392,-4.482352941176469,-7.470588235294116,6.614482622317217,31.81425108694299,28.78894898592901,1888.3549163048335,68.78636318493534,2043.822468935014,1
-0.029735424959017098,34.50793811305492,-51.8291734197731,120.02197802197799,-126.46850220264315,103.06942148760331,-5.670515781370227,-1.4941176470588218,-10.32520325203253,-38.34901960784313,-3.62857142857143,-7.470588235294116,-1.4941176470588218,8.466666666666669,44.325490196078434,14.444221835075496,288.2924702226716,28.78894898592901,1888.3549163048335,68.78636318493534,2043.822468935014,1
0.2378833996722168,34.6106785317019,-51.85661804430038,120.08265647396081,-126.46850220264315,103.06942148760331,-5.670515781370227,-1.4941176470588218,-10.32520325203253,-38.34901960784313,-3.62857142857143,-7.470588235294116,-1.4941176470588218,8.466666666666669,44.325490196078434,14.444221835075496,288.2924702226716,28.901726658558164,1895.3199171744805,68.8499843499877,2042.9456271399501,1
0.2378833996722168,34.6106785317019,-51.85661804430038,120.08265647396081,-126.46850220264315,103.06942148760331,-5.670515781370227,0.4980392156862763,-4.130081300813018,5.4784313725490215,5.70204081632653,18.42745098039216,-4.482352941176469,-2.490196078431371,-2.490196078431371,5.462348597975777,30.456952468872228,28.901726658558164,1895.3199171744805,68.8499843499877,2042.9456271399501,1
0.2378833996722168,34.6106785317019,-51.85661804430038,120.08265647396081,-126.46850220264315,103.06942148760331,-5.670515781370227,-2.490196078431371,5.162601626016251,-1.4941176470588218,12.959183673469386,-9.462745098039214,0.4980392156862763,0.4980392156862763,-1.4941176470588218,4.257380025180803,21.47087172970305,28.901726658558164,1895.3199171744805,68.8499843499877,2042.9456271399501,1
0.2676188246312428,34.68773384568714,-51.6645056726094,120.08265647396081,-126.48248898678415,103.06942148760331,-5.670515781370227,-2.490196078431371,5.162601626016251,-1.4941176470588218,12.959183673469386,-9.462745098039214,0.4980392156862763,0.4980392156862763,-1.4941176470588218,4.257380025180803,21.47087172970305,28.873286114309263,1889.733190447479,68.81163199741913,2043.5911585714484,1
0.2676188246312428,34.68773384568714,-51.6645056726094,120.08265647396081,-126.48248898678415,103.06942148760331,-5.670515781370227,-2.490196078431371,-6.195121951219521,22.411764705882355,12.959183673469386,-23.4078431372549,-12.450980392156861,-10.458823529411763,-9.462745098039214,12.479582320733172,52.96757421263818,28.873286114309263,1889.733190447479,68.81163199741913,2043.5911585714484,1
0.2676188246312428,34.68773384568714,-51.6645056726094,120.08265647396081,-126.48248898678415,103.06942148760331,-5.670515781370227,-0.49803921568627274,-9.292682926829277,11.454901960784316,1.555102040816326,13.447058823529414,9.462745098039218,4.482352941176472,11.454901960784316,7.705973120955702,23.83602128781749,28.873286114309263,1889.733190447479,68.81163199741913,2043.5911585714484,1
-0.05947084991804308,34.55930832237841,-51.39005942733658,120.02197802197799,-126.45451541850218,103.12939787485242,-5.719399538106188,-0.49803921568627274,-9.292682926829277,11.454901960784316,1.555102040816326,13.447058823529414,9.462745098039218,4.482352941176472,11.454901960784316,7.705973120955702,23.83602128781749,28.669612866544345,1870.097168610031,68.65711525723098,2049.580390820232,1
-0.05947084991804308,34.55930832237841,-51.39005942733658,120.02197802197799,-126.45451541850218,103.12939787485242,-5.719399538106188,3.4862745098039234,-2.0650406504065137,5.4784313725490215,10.885714285714286,-6.474509803921567,1.4941176470588253,-4.482352941176469,-10.458823529411763,5.603158092505296,12.485369433656032,28.669612866544345,1870.097168610031,68.65711525723098,2049.580390820232,1
-0.05947084991804308,34.55930832237841,-51.39005942733658,120.02197802197799,-126.45451541850218,103.12939787485242,-5.719399538106188,-0.49803921568627274,-6.195121951219521,-10.458823529411763,-3.62857142857143,-10.458823529411763,-7.470588235294116,-3.48627450980392,-15.439215686274508,7.2044322607091615,23.095787836427913,28.669612866544345,1870.097168610031,68.65711525723098,2049.580390820232,1
-0.505502224303433,34.45656790373143,-51.44494867639114,119.9006211180124,-126.42654185022025,103.30932703659977,-5.768283294842149,-0.49803921568627274,-6.195121951219521,-10.458823529411763,-3.62857142857143,-10.458823529411763,-7.470588235294116,-3.48627450980392,-15.439215686274508,7.2044322607091615,23.095787836427913,28.802339601475335,1866.0406838746353,68.60071256604499,2045.9117333993827,1
-0.505502224303433,34.45656790373143,-51.44494867639114,119.9006211180124,-126.42654185022025,103.30932703659977,-5.768283294842149,-4.482352941176469,-8.260162601626025,-8.466666666666665,8.812244897959182,12.450980392156865,5.4784313725490215,0.4980392156862763,-1.4941176470588218,6.242874466859916,16.199225634581836,28.802339601475335,1866.0406838746353,68.60071256604499,2045.9117333993827,1
-0.505502224303433,34.45656790373143,-51.44494867639114,119.9006211180124,-126.42654185022025,103.30932703659977,-5.768283294842149,0.4980392156862763,-5.1626016260162695,-25.4,-13.995918367346938,-0.49803921568627274,5.4784313725490215,1.4941176470588253,-9.462745098039214,7.748736567797852,72.80572401079056,28.802339601475335,1866.0406838746353,68.60071256604499,2045.9117333993827,1
-0.9515335986888227,34.662048741025394,-51.3626148028093,119.71858576206404,-126.38458149779734,103.60920897284534,-5.866050808314071,0.4980392156862763,-5.1626016260162695,-25.4,-13.995918367346938,-0.49803921568627274,5.4784313725490215,1.4941176470588253,-9.462745098039214,7.748736567797852,72.80572401079056,28.992065714174505,1868.3078488443325,68.58108310196624,2031.0103604296337,1
-0.9515335986888227,34.662048741025394,-51.3626148028093,119.71858576206404,-126.38458149779734,103.60920897284534,-5.866050808314071,-4.482352941176469,2.0650406504064946,14.443137254901963,27.473469387755102,-9.462745098039214,-2.490196078431371,2.4901960784313744,20.419607843137257,10.415843166534906,91.24848372259872,28.992065714174505,1868.3078488443325,68.58108310196624,2031.0103604296337,1
-0.9515335986888227,34.662048741025394,-51.3626148028093,119.71858576206404,-126.38458149779734,103.60920897284534,-5.866050808314071,3.4862745098039234,5.162601626016251,14.443137254901963,0.5183673469387751,-6.474509803921567,-0.49803921568627274,4.482352941176472,6.4745098039215705,5.192474062795849,19.451896312327186,28.992065714174505,1868.3078488443325,68.58108310196624,2031.0103604296337,1
-1.1299461484429787,34.40519769440794,-51.08816855753647,119.53655040611557,-126.3146475770925,104.08902007083826,-6.012702078521897,3.4862745098039234,5.162601626016251,14.443137254901963,0.5183673469387751,-6.474509803921567,-0.49803921568627274,4.482352941176472,6.4745098039215705,5.192474062795849,19.451896312327186,28.874437466795797,1844.614351216277,68.34330555268666,2035.141618172343,1
-1.1299461484429787,34.40519769440794,-51.08816855753647,119.53655040611557,-126.3146475770925,104.08902007083826,-6.012702078521897,-2.490196078431371,-15.48780487804879,-41.33725490196078,-3.62857142857143,-3.48627450980392,3.4862745098039234,-5.478431372549018,-5.478431372549018,10.10915488146478,176.3975558678289,28.874437466795797,1844.614351216277,68.34330555268666,2035.141618172343,1
-1.1299461484429787,34.40519769440794,-51.08816855753647,119.53655040611557,-126.3146475770925,104.08902007083826,-6.012702078521897,4.482352941176472,-8.260162601626025,-15.439215686274508,4.665306122448979,13.447058823529414,10.458823529411767,0.4980392156862763,14.443137254901963,8.961762021881926,29.28763506720193,28.874437466795797,1844.614351216277,68.34330555268666,2035.141618172343,1
-4.0142823694685,34.30245727576096,-51.49983792544571,118.6263736263736,-126.14680616740088,105.04864226682409,-6.1104695919938194,4.482352941176472,-8.260162601626025,-15.439215686274508,4.665306122448979,13.447058823529414,10.458823529411767,0.4980392156862763,14.443137254901963,8.961762021881926,29.28763506720193,29.93885919022506,1847.5140642158517,68.14288960919343,1985.374094187203,1
-4.0142823694685,34.30245727576096,-51.49983792544571,118.6263736263736,-126.14680616740088,105.04864226682409,-6.1104695919938194,6.4745098039215705,-11.357723577235781,11.454901960784316,-9.848979591836734,-17.431372549019606,-3.48627450980392,-1.4941176470588218,2.4901960784313744,8.004759464761516,30.137895747538405,29.93885919022506,1847.5140642158517,68.14288960919343,1985.374094187203,1
-4.0142823694685,34.30245727576096,-51.49983792544571,118.6263736263736,-126.14680616740088,105.04864226682409,-6.1104695919938194,-1.4941176470588218,-5.1626016260162695,46.31764705882353,20.216326530612243,-7.470588235294116,-3.48627450980392,3.4862745098039234,15.439215686274512,12.884130725460917,224.76997480688397,29.93885919022506,1847.5140642158517,68.14288960919343,1985.374094187203,1
-8.801685787871683,34.096976438466996,-51.93895191788223,116.38127090300998,-125.76916299559471,106.84793388429752,-6.208237105465685,-1.4941176470588218,-5.1626016260162695,46.31764705882353,20.216326530612243,-7.470588235294116,-3.48627450980392,3.4862745098039234,15.439215686274512,12.884130725460917,224.76997480688397,31.612538048073635,1850.5499863532848,67.47239975311973,1873.6422801194385,1
-8.801685787871683,34.096976438466996,-51.93895191788223,116.38127090300998,-125.76916299559471,106.84793388429752,-6.208237105465685,1.4941176470588253,-9.769962616701378e-15,-12.450980392156861,-0.518367346938776,5.4784313725490215,-0.49803921568627274,3.4862745098039234,22.411764705882355,5.7922468987595055,61.97565320566001,31.612538048073635,1850.5499863532848,67.47239975311973,1873.6422801194385,1
-8.801685787871683,34.096976438466996,-51.93895191788223,116.38127090300998,-125.76916299559471,106.84793388429752,-6.208237105465685,6.4745098039215705,-3.097560975609766,17.43137254901961,-9.848979591836734,-6.474509803921567,-5.478431372549018,-6.474509803921567,0.4980392156862763,6.972239139558264,25.367452564938056,31.612538048073635,1850.5499863532848,67.47239975311973,1873.6422801194385,1
-13.35120580660266,34.251087066437464,-51.93895191788223,113.16531294792162,-125.15374449339205,109.72680047225502,-6.501539645881394,6.4745098039215705,-3.097560975609766,17.43137254901961,-9.848979591836734,-6.474509803921567,-5.478431372549018,-6.474509803921567,0.4980392156862763,6.972239139558264,25.367452564938056,33.18041493030745,1863.9525428063014,66.45178397741377,1714.830482409601,1
-13.35120580660266,34.251087066437464,-51.93895191788223,113.16531294792162,-125.15374449339205,109.72680047225502,-6.501539645881394,-2.490196078431371,-5.1626016260162695,18.42745098039216,28.51020408163265,16.43529411764706,-2.490196078431371,-4.482352941176469,-22.41176470588235,12.551257576201213,103.38319126851418,33.18041493030745,1863.9525428063014,66.45178397741377,1714.830482409601,1
-13.35120580660266,34.251087066437464,-51.93895191788223,113.16531294792162,-125.15374449339205,109.72680047225502,-6.501539645881394,-0.49803921568627274,-24.780487804878057,-24.40392156862745,-32.65714285714286,-0.49803921568627274,-13.44705882352941,0.4980392156862763,4.482352941176472,12.658135205301633,170.8492652050731,33.18041493030745,1863.9525428063014,66.45178397741377,1714.830482409601,1
-16.354483727464284,34.12266154312874,-51.88406266882767,109.40324892498802,-124.37048458149778,113.68524203069657,-7.137028483448773,-0.49803921568627274,-24.780487804878057,-24.40392156862745,-32.65714285714286,-0.49803921568627274,-13.44705882352941,0.4980392156862763,4.482352941176472,12.658135205301633,170.8492652050731,34.120402646473565,1867.9082973484421,65.1366577123148,1548.5151656794324,1
-16.354483727464284,34.12266154312874,-51.88406266882767,109.40324892498802,-124.37048458149778,113.68524203069657,-7.137028483448773,0.4980392156862763,-7.227642276422774,-11.454901960784312,-9.848979591836734,17.43137254901961,2.4901960784313744,6.4745098039215705,5.4784313725490215,7.613009106081459,28.43244080431621,34.120402646473565,1867.9082973484421,65.1366577123148,1548.5151656794324,1
-16.354483727464284,34.12266154312874,-51.88406266882767,109.40324892498802,-124.37048458149778,113.68524203069657,-7.137028483448773,4.482352941176472,7.227642276422754,45.321568627450986,-10.885714285714286,11.454901960784316,0.4980392156862763,-8.466666666666665,-51.29803921568627,17.454365648698506,377.46724447864324,34.120402646473565,1867.9082973484421,65.1366577123148,1548.5151656794324,1
-16.562631702177466,33.352108403276375,-52.24084278768234,105.58050645007165,-123.61519823788547,117.8835891381346,-7.576982294072309,4.482352941176472,7.227642276422754,45.321568627450986,-10.885714285714286,11.454901960784316,0.4980392156862763,-8.466666666666665,-51.29803921568627,17.454365648698506,377.46724447864324,34.051860964378726,1848.4282199391143,63.72448588034345,1403.1409151112925,1
-16.562631702177466,33.352108403276375,-52.24084278768234,105.58050645007165,-123.61519823788547,117.8835891381346,-7.576982294072309,6.4745098039215705,16.52032520325202,0.4980392156862763,6.738775510204081,-14.44313725490196,6.4745098039215705,7.4705882352941195,-15.439215686274508,9.257387589182013,31.372617314638852,34.051860964378726,1848.4282199391143,63.72448588034345,1403.1409151112925,1
-16.562631702177466,33.352108403276375,-52.24084278768234,105.58050645007165,-123.61519823788547,117.8835891381346,-7.576982294072309,-0.49803921568627274,-11.357723577235781,-21.415686274509802,40.95102040816327,18.42745098039216,-1.4941176470588218,-2.490196078431371,-6.474509803921567,12.888592998174879,189.4086677289415,34.051860964378726,1848.4282199391143,63.72448588034345,1403.1409151112925,1
-16.8302505268087,32.94114672868845,-53.31118314424636,101.63640707118964,-122.88788546255506,122.14191263282173,-7.772517321016096,-0.49803921568627274,-11.357723577235781,-21.415686274509802,40.95102040816327,18.42745098039216,-1.4941176470588218,-2.490196078431371,-6.474509803921567,12.888592998174879,189.4086677289415,34.36086013324783,1874.5858063186834,62.62957898137481,1244.8840741140637,1
-16.8302505268087,32.94114672868845,-53.31118314424636,101.63640707118964,-122.88788546255506,122.14191263282173,-7.772517321016096,-11.454901960784312,-10.32520325203253,-16.435294117647057,13.995918367346938,23.407843137254904,-3.48627450980392,3.4862745098039234,2.4901960784313744,10.63523824163812,53.91418598821933,34.36086013324783,1874.5858063186834,62.62957898137481,1244.8840741140637,1
-16.8302505268087,32.94114672868845,-53.31118314424636,101.63640707118964,-122.88788546255506,122.14191263282173,-7.772517321016096,6.4745098039215705,-8.260162601626025,-26.396078431372548,21.253061224489795,22.411764705882355,23.407843137254904,-3.48627450980392,-1.4941176470588218,14.147976507676244,103.12486176435948,34.36086013324783,1874.5858063186834,62.62957898137481,1244.8840741140637,1
-12.667291032545062,33.763070077864306,-53.20140464613723,98.54180602006693,-122.17455947136563,125.7404958677686,-8.456889915319437,6.4745098039215705,-8.260162601626025,-26.396078431372548,21.253061224489795,22.411764705882355,23.407843137254904,-3.48627450980392,-1.4941176470588218,14.147976507676244,103.12486176435948,33.21058858551553,1893.6021105506857,61.83542691468949,1104.9809129677958,1
-12.667291032545062,33.763070077864306,-53.20140464613723,98.54180602006693,-122.17455947136563,125.7404958677686,-8.456889915319437,3.4862745098039234,3.0975609756097464,98.11372549019609,35.76734693877551,-9.462745098039214,3.4862745098039234,-0.49803921568627274,-3.48627450980392,19.674780155964825,1134.9541778344974,33.21058858551553,1893.6021105506857,61.83542691468949,1104.9809129677958,1
-12.667291032545062,33.763070077864306,-53.20140464613723,98.54180602006693,-122.17455947136563,125.7404958677686,-8.456889915319437,-8.466666666666665,-8.260162601626025,2.4901960784313744,30.583673469387755,-9.462745098039214,7.4705882352941195,5.4784313725490215,17.43137254901961,11.205479508876723,79.45627349546972,33.21058858551553,1893.6021105506857,61.83542691468949,1104.9809129677958,1
-2.5275111215172004,34.58499342704015,-51.03327930848191,97.81366459627327,-121.83887665198236,127.0,-9.287913779830603,-8.466666666666665,-8.260162601626025,2.4901960784313744,30.583673469387755,-9.462745098039214,7.4705882352941195,5.4784313725490215,17.43137254901961,11.205479508876723,79.45627349546972,29.38192795234642,1843.4393612480812,61.143979110598444,1076.1359023231423,1
-2.5275111215172004,34.58499342704015,-51.03327930848191,97.81366459627327,-121.83887665198236,127.0,-9.287913779830603,-8.466666666666665,-13.422764227642286,-20.419607843137253,25.4,-23.4078431372549,14.443137254901963,0.4980392156862763,9.462745098039218,14.44010043041607,70.30947812170088,29.38192795234642,1843.4393612480812,61.143979110598444,1076.1359023231423,1
-2.5275111215172004,34.58499342704015,-51.03327930848191,97.81366459627327,-121.83887665198236,127.0,-9.287913779830603,-5.478431372549018,-14.455284552845537,-64.24705882352941,38.87755102040816,-16.435294117647057,-21.415686274509802,11.454901960784316,35.36078431372549,25.96562405449985,370.67975712339563,29.38192795234642,1843.4393612480812,61.143979110598444,1076.1359023231423,1
2.854600796066504,35.89493376478917,-50.1001620745543,98.35977066411851,-121.67103524229074,126.64014167650531,-10.265588914549596,-5.478431372549018,-14.455284552845537,-64.24705882352941,38.87755102040816,-16.435294117647057,-21.415686274509802,11.454901960784316,35.36078431372549,25.96562405449985,370.67975712339563,29.616565545136655,1881.8378369642683,61.451622167820666,1072.1056969017181,1
2.854600796066504,35.89493376478917,-50.1001620745543,98.35977066411851,-121.67103524229074,126.64014167650531,-10.265588914549596,6.4745098039215705,3.0975609756097464,-24.40392156862745,-27.473469387755102,-37.35294117647059,-4.482352941176469,-3.48627450980392,-8.466666666666665,14.404712128753939,177.29478200749506,29.616565545136655,1881.8378369642683,61.451622167820666,1072.1056969017181,1
2.854600796066504,35.89493376478917,-50.1001620745543,98.35977066411851,-121.67103524229074,126.64014167650531,-10.265588914549596,7.4705882352941195,26.84552845528454,35.36078431372549,-41.987755102040815,-6.474509803921567,-4.482352941176469,-0.49803921568627274,-7.470588235294116,16.323768287802924,253.74199146236558,29.616565545136655,1881.8378369642683,61.451622167820666,1072.1056969017181,1
8.801685787871701,39.54221862675701,-51.08816855753647,99.57333970377442,-121.48920704845816,123.52136953955136,-11.536566589684355,7.4705882352941195,26.84552845528454,35.36078431372549,-41.987755102040815,-6.474509803921567,-4.482352941176469,-0.49803921568627274,-7.470588235294116,16.323768287802924,253.74199146236558,33.14402432405506,2124.2736823179566,63.40124229602264,1014.6427131079292,1
8.801685787871701,39.54221862675701,-51.08816855753647,99.57333970377442,-121.48920704845816,123.52136953955136,-11.536566589684355,-2.490196078431371,-12.390243902439034,-15.439215686274508,-10.885714285714286,10.458823529411767,-4.482352941176469,-2.490196078431371,-5.478431372549018,8.014396734303478,24.062243027338916,33.14402432405506,2124.2736823179566,63.40124229602264,1014.6427131079292,1
8.801685787871701,39.54221862675701,-51.08816855753647,99.57333970377442,-121.48920704845816,123.52136953955136,-11.536566589684355,-0.49803921568627274,16.52032520325202,94.12941176470588,-25.4,1.4941176470588253,1.4941176470588253,-1.4941176470588218,-1.4941176470588218,17.815530846484933,1035.4942546410966,33.14402432405506,2124.2736823179566,63.40124229602264,1014.6427131079292,1
10.020838211191768,42.44463545353424,-51.49983792544571,100.30148112756808,-121.05561674008811,118.3634002361275,-13.100846805234767,-0.49803921568627274,16.52032520325202,94.12941176470588,-25.4,1.4941176470588253,1.4941176470588253,-1.4941176470588218,-1.4941176470588218,17.815530846484933,1035.4942546410966,34.65510386339057,2276.943383062574,64.74865150218268,968.5019437305896,1
10.020838211191768,42.44463545353424,-51.49983792544571,100.30148112756808,-121.05561674008811,118.3634002361275,-13.100846805234767,2.4901960784313744,34.07317073170731,118.03529411764706,12.959183673469386,-25.4,-33.36862745098039,-5.478431372549018,-10.458823529411763,30.28296586927454,1404.1449231873612,34.65510386339057,2276.943383062574,64.74865150218268,968.5019437305896,1
10.020838211191768,42.44463545353424,-51.49983792544571,100.30148112756808,-121.05561674008811,118.3634002361275,-13.100846805234767,-11.454901960784312,-20.65040650406505,-60.26274509803922,-5.70204081632653,33.3686274509804,7.4705882352941195,-3.48627450980392,-1.4941176470588218,17.986212777794044,402.4852096109371,34.65510386339057,2276.943383062574,64.74865150218268,968.5019437305896,1
-10.050573636150776,44.242592779856416,-53.750297136682875,95.08313425704728,-119.40517621145375,115.42455726092089,-14.860662047728965,-11.454901960784312,-20.65040650406505,-60.26274509803922,-5.70204081632653,33.3686274509804,7.4705882352941195,-3.48627450980392,-1.4941176470588218,17.986212777794044,402.4852096109371,36.01448785089669,2410.003371282366,64.35867472452885,730.5934207082257,1
-10.050573636150776,44.242592779856416,-53.750297136682875,95.08313425704728,-119.40517621145375,115.42455726092089,-14.860662047728965,-5.478431372549018,-25.81300813008131,-105.08627450980393,-35.76734693877551,8.466666666666669,-21.415686274509802,0.4980392156862763,8.466666666666669,26.3740149718424,1150.898860156245,36.01448785089669,2410.003371282366,64.35867472452885,730.5934207082257,1
-10.050573636150776,44.242592779856416,-53.750297136682875,95.08313425704728,-119.40517621145375,115.42455726092089,-14.860662047728965,-5.478431372549018,-12.390243902439034,0.4980392156862763,11.922448979591836,58.27058823529412,3.4862745098039234,-1.4941176470588218,5.4784313725490215,12.377321904371506,362.88579541334275,36.01448785089669,2410.003371282366,64.35867472452885,730.5934207082257,1
-42.72980566612034,47.684396804530294,-59.76066990815775,81.85523172479691,-115.68469162995595,119.143093270366,-18.33140877598146,-5.478431372549018,-12.390243902439034,0.4980392156862763,11.922448979591836,58.27058823529412,3.4862745098039234,-1.4941176470588218,5.4784313725490215,12.377321904371506,362.88579541334275,50.058290792936134,3334.870117688083,63.100099479161656,300.2753321817995,1
-42.72980566612034,47.684396804530294,-59.76066990815775,81.85523172479691,-115.68469162995595,119.143093270366,-18.33140877598146,10.458823529411767,-6.195121951219521,25.400000000000002,34.730612244897955,11.454901960784316,-11.454901960784312,2.4901960784313744,4.482352941176472,13.333363833338217,123.66219226837309,50.058290792936134,3334.870117688083,63.100099479161656,300.2753321817995,1
-42.72980566612034,47.684396804530294,-59.76066990815775,81.85523172479691,-115.68469162995595,119.143093270366,-18.33140877598146,4.482352941176472,-15.48780487804879,-24.40392156862745,-29.546938775510206,-33.36862745098039,9.462745098039218,-3.48627450980392,-19.423529411764704,17.457774329243893,126.11170543356882,50.058290792936134,3334.870117688083,63.100099479161656,300.2753321817995,1
-18.70358229922734,61.45161290322582,-60.72123176661265,73.48160535117051,-111.06905286343613,118.96316410861866,-27.42378752886833,4.482352941176472,-15.48780487804879,-24.40392156862745,-29.546938775510206,-33.36862745098039,9.462745098039218,-3.48627450980392,-19.423529411764704,17.457774329243893,126.11170543356882,46.9588089896886,3852.7570265713184,65.21815000700299,51.34688481996815,1
-18.70358229922734,61.45161290322582,-60.72123176661265,73.48160535117051,-111.06905286343613,118.96316410861866,-27.42378752886833,10.458823529411767,-9.292682926829277,29.3843137254902,-50.28163265306122,5.4784313725490215,11.454901960784316,10.458823529411767,-10.458823529411763,17.15855415336867,230.29936348205268,46.9588089896886,3852.7570265713184,65.21815000700299,51.34688481996815,1
-18.70358229922734,61.45161290322582,-60.72123176661265,73.48160535117051,-111.06905286343613,118.96316410861866,-27.42378752886833,6.4745098039215705,-7.227642276422774,13.447058823529414,66.86938775510204,-5.478431372549018,-0.49803921568627274,-7.470588235294116,-18.427450980392155,15.736638557862172,455.85772094235256,46.9588089896886,3852.7570265713184,65.21815000700299,51.34688481996815,1
40.975415593537825,72.21367175649712,-61.681793625067534,76.75824175824175,-109.25077092511013,97.49161747343565,-33.19207082371048,6.4745098039215705,-7.227642276422774,13.447058823529414,66.86938775510204,-5.478431372549018,-0.49803921568627274,-7.470588235294116,-18.427450980392155,15.736638557862172,455.85772094235256,58.290293658367496,4907.054483733493,70.21790237993547,59.81214363138905,1
40.975415593537825,72.21367175649712,-61.681793625067534,76.75824175824175,-109.25077092511013,97.49161747343565,-33.19207082371048,3.4862745098039234,3.0975609756097464,9.462745098039218,7.775510204081632,34.36470588235294,18.42745098039216,10.458823529411767,6.4745098039215705,11.69344762295162,107.09536943281448,58.290293658367496,4907.054483733493,70.21790237993547,59.81214363138905,1
40.975415593537825,72.21367175649712,-61.681793625067534,76.75824175824175,-109.25077092511013,97.49161747343565,-33.19207082371048,-9.462745098039214,-5.1626016260162695,-29.384313725490195,-31.62040816326531,6.4745098039215705,-20.419607843137253,-19.423529411764704,-1.4941176470588218,15.430229164836668,130.44769617935134,58.290293658367496,4907.054483733493,70.21790237993547,59.81214363138905,1
8.563802388199495,80.58701587622612,-75.45899513776337,73.5422838031534,-106.39746696035242,78.53907910271546,-37.053887605850605,-9.462745098039214,-5.1626016260162695,-29.384313725490195,-31.62040816326531,6.4745098039215705,-20.419607843137253,-19.423529411764704,-1.4941176470588218,15.430229164836668,130.44769617935134,54.869937800729666,6099.588556434823,76.5294316057143,13.266438169284317,1
8.563802388199495,80.58701587622612,-75.45899513776337,73.5422838031534,-106.39746696035242,78.53907910271546,-37.053887605850605,-2.490196078431371,-9.292682926829277,-13.44705882352941,-29.546938775510206,35.36078431372549,22.411764705882355,14.443137254901963,4.482352941176472,16.434364477498317,138.1516134896598,54.869937800729666,6099.588556434823,76.5294316057143,13.266438169284317,1
8.563802388199495,80.58701587622612,-75.45899513776337,73.5422838031534,-106.39746696035242,78.53907910271546,-37.053887605850605,-1.4941176470588218,-5.1626016260162695,-12.450980392156861,65.83265306122449,14.443137254901963,8.466666666666669,52.294117647058826,6.4745098039215705,20.827348012375687,586.3578912803766,54.869937800729666,6099.588556434823,76.5294316057143,13.266438169284317,1
-51.70990400374619,90.83537263626252,-78.12112371690978,58.97945532728136,-99.94955947136563,70.62219598583235,-44.239799846035396,-1.4941176470588218,-5.1626016260162695,-12.450980392156861,65.83265306122449,14.443137254901963,8.466666666666669,52.294117647058826,6.4745098039215705,20.827348012375687,586.3578912803766,73.5554667856395,8260.501013175523,75.97865056015122,257.14251031973464,1
-51.70990400374619,90.83537263626252,-78.12112371690978,58.97945532728136,-99.94955947136563,70.62219598583235,-44.239799846035396,-6.474509803921567,-12.390243902439034,-21.415686274509802,-75.16326530612245,-32.372549019607845,6.4745098039215705,10.458823529411767,3.4862745098039234,21.029482768717244,568.1592334138077,73.5554667856395,8260.501013175523,75.97865056015122,257.14251031973464,1
-51.70990400374619,90.83537263626252,-78.12112371690978,58.97945532728136,-99.94955947136563,70.62219598583235,-44.239799846035396,-4.482352941176469,-9.292682926829277,-5.478431372549018,-25.4,-30.380392156862744,-8.466666666666665,-18.427450980392155,-3.48627450980392,13.17678144428503,105.56797599566123,73.5554667856395,8260.501013175523,75.97865056015122,257.14251031973464,1
-70.29454460313744,102.13681868743049,-80.4539168017288,42.110845676063036,-91.71134361233479,64.6245572609209,-53.136643571978425,-4.482352941176469,-9.292682926829277,-5.478431372549018,-25.4,-30.380392156862744,-8.466666666666665,-18.427450980392155,-3.48627450980392,13.17678144428503,105.56797599566123,84.29509336409892,10529.194096030911,74.90052705507411,923.9094622490405,1
-70.29454460313744,102.13681868743049,-80.4539168017288,42.110845676063036,-91.71134361233479,64.6245572609209,-53.136643571978425,7.4705882352941195,-5.1626016260162695,-9.462745098039214,49.244897959183675,-0.49803921568627274,-2.490196078431371,0.4980392156862763,6.4745098039215705,10.162702154032345,259.9197118841976,84.29509336409892,10529.194096030911,74.90052705507411,923.9094622490405,1
-70.29454460313744,102.13681868743049,-80.4539168017288,42.110845676063036,-91.71134361233479,64.6245572609209,-53.136643571978425,-0.49803921568627274,-4.130081300813018,5.4784313725490215,-4.66530612244898,-17.431372549019606,11.454901960784316,18.42745098039216,4.482352941176472,8.32099205535873,44.271800178107874,84.29509336409892,10529.194096030911,74.90052705507411,923.9094622490405,1
-66.78576445797236,111.10092021437963,-86.35451107509454,26.395126612517856,-83.10947136563875,54.728453364817,-61.055812163202404,-0.49803921568627274,-4.130081300813018,5.4784313725490215,-4.66530612244898,-17.431372549019606,11.454901960784316,18.42745098039216,4.482352941176472,8.32099205535873,44.271800178107874,88.08039858248218,11835.87596226636,74.61685263399734,1897.0973366901967,1
-66.78576445797236,111.10092021437963,-86.35451107509454,26.395126612517856,-83.10947136563875,54.728453364817,-61.055812163202404,-5.478431372549018,-12.390243902439034,-31.376470588235293,55.46530612244898,29.3843137254902,-8.466666666666665,-12.450980392156861,-4.482352941176469,19.936845713895316,310.6903780167605,88.08039858248218,11835.87596226636,74.61685263399734,1897.0973366901967,1
-66.78576445797236,111.10092021437963,-86.35451107509454,26.395126612517856,-83.10947136563875,54.728453364817,-61.055812163202404,-2.490196078431371,-5.1626016260162695,0.4980392156862763,61.68571428571428,9.462745098039218,-0.49803921568627274,1.4941176470588253,-3.48627450980392,10.597215959554553,434.85701695162896,88.08039858248218,11835.87596226636,74.61685263399734,1897.0973366901967,1
-72.40575977522828,116.54616240266965,-96.81091301998919,8.677018633540342,-73.52852422907488,43.212987012987014,-66.87297921478057,-2.490196078431371,-5.1626016260162695,0.4980392156862763,61.68571428571428,9.462745098039218,-0.49803921568627274,1.4941176470588253,-3.48627450980392,10.597215959554553,434.85701695162896,95.2542783992957,13636.613672088799,74.01136468539973,3298.8025975672326,1
-72.40575977522828,116.54616240266965,-96.81091301998919,8.677018633540342,-73.52852422907488,43.212987012987014,-66.87297921478057,-5.478431372549018,-7.227642276422774,-24.40392156862745,4.665306122448979,6.4745098039215705,1.4941176470588253,-18.427450980392155,-4.482352941176469,9.081716589074654,63.36599785110157,95.2542783992957,13636.613672088799,74.01136468539973,3298.8025975672326,1
-72.40575977522828,116.54616240266965,-96.81091301998919,8.677018633540342,-73.52852422907488,43.212987012987014,-66.87297921478057,0.4980392156862763,-5.1626016260162695,-9.462745098039214,29.546938775510203,-19.423529411764704,-8.466666666666665,-11.454901960784312,3.4862745098039234,10.937712158033946,89.2462977900734,95.2542783992957,13636.613672088799,74.01136468539973,3298.8025975672326,1
-83.7646921095762,120.09070684599051,-107.0203133441383,-11.104156712852387,-63.02444933920704,31.997402597402612,-70.14819091608922,0.4980392156862763,-5.1626016260162695,-9.462745098039214,29.546938775510203,-19.423529411764704,-8.466666666666665,-11.454901960784312,3.4862745098039234,10.937712158033946,89.2462977900734,103.625237433235,15612.877182356631,79.4050589676604,3541.4687331889436,1
-83.7646921095762,120.09070684599051,-107.0203133441383,-11.104156712852387,-63.02444933920704,31.997402597402612,-70.14819091608922,-5.478431372549018,-21.6829268292683,-39.345098039215685,18.142857142857142,-29.384313725490195,1.4941176470588253,2.4901960784313744,2.4901960784313744,15.063517114162739,205.73694029981613,103.625237433235,15612.877182356631,79.4050589676604,3541.4687331889436,1
-83.7646921095762,120.09070684599051,-107.0203133441383,-11.104156712852387,-63.02444933920704,31.997402597402612,-70.14819091608922,0.4980392156862763,-5.1626016260162695,3.4862745098039234,-24.36326530612245,-72.2156862745098,-20.419607843137253,-17.431372549019606,-3.48627450980392,18.38289022926244,553.8929524229978,103.625237433235,15612.877182356631,79.4050589676604,3541.4687331889436,1
-97.7106064153594,123.42977045201741,-117.092490545651,-32.70568561872915,-51.457378854625546,22.221251475796947,-70.78367975365666,0.4980392156862763,-5.1626016260162695,3.4862745098039234,-24.36326530612245,-72.2156862745098,-20.419607843137253,-17.431372549019606,-3.48627450980392,18.38289022926244,553.8929524229978,112.74428913767593,17854.94695815267,91.07598220546585,2565.358921870614,1
-97.7106064153594,123.42977045201741,-117.092490545651,-32.70568561872915,-51.457378854625546,22.221251475796947,-70.78367975365666,3.4862745098039234,-9.769962616701378e-15,13.447058823529414,2.591836734693877,-12.450980392156861,-15.439215686274508,-23.4078431372549,1.4941176470588253,9.03966586634654,69.93234977624499,112.74428913767593,17854.94695815267,91.07598220546585,2565.358921870614,1
-97.7106064153594,123.42977045201741,-117.092490545651,-32.70568561872915,-51.457378854625546,22.221251475796947,-70.78367975365666,1.4941176470588253,-9.292682926829277,1.4941176470588253,-16.069387755102042,13.447058823529414,2.4901960784313744,-9.462745098039214,-0.49803921568627274,6.781043148966906,36.857091392432395,112.74428913767593,17854.94695815267,91.07598220546585,2565.358921870614,1
-114.21376726761882,124.58560016179595,-125.68265802269043,-55.64214046822747,-38.65947136563876,15.623848878394341,-68.73056197074663,1.4941176470588253,-9.292682926829277,1.4941176470588253,-16.069387755102042,13.447058823529414,2.4901960784313744,-9.462745098039214,-0.49803921568627274,6.781043148966906,36.857091392432395,121.49400848403506,19965.145732422854,101.97013288423796,1610.0130449609815,1
-114.21376726761882,124.58560016179595,-125.68265802269043,-55.64214046822747,-38.65947136563876,15.623848878394341,-68.73056197074663,-5.478431372549018,-7.227642276422774,10.458823529411767,29.546938775510203,1.4941176470588253,2.4901960784313744,7.4705882352941195,-2.490196078431371,8.332116749138683,82.81592525360107,121.49400848403506,19965.145732422854,101.97013288423796,1610.0130449609815,1
-114.21376726761882,124.58560016179595,-125.68265802269043,-55.64214046822747,-38.65947136563876,15.623848878394341,-68.73056197074663,3.4862745098039234,-9.769962616701378e-15,2.4901960784313744,-2.591836734693878,4.482352941176472,-9.462745098039214,3.4862745098039234,8.466666666666669,4.3082933173269335,10.007894391850366,121.49400848403506,19965.145732422854,101.97013288423796,1610.0130449609815,1
-127.0,125.38183840631005,-127.0,-77.36502627806976,-24.784581497797348,12.565053128689499,-65.16204772902233,3.4862745098039234,-9.769962616701378e-15,2.4901960784313744,-2.591836734693878,4.482352941176472,-9.462745098039214,3.4862745098039234,8.466666666666669,4.3082933173269335,10.007894391850366,126.46061280210336,21232.1974524496,109.91562156145994,795.3105517131203,1
-127.0,125.38183840631005,-127.0,-77.36502627806976,-24.784581497797348,12.565053128689499,-65.16204772902233,-0.49803921568627274,-4.130081300813018,4.482352941176472,13.995918367346938,14.443137254901963,3.4862745098039234,4.482352941176472,-13.44705882352941,7.370651919304308,31.4777083337749,126.46061280210336,21232.1974524496,109.91562156145994,795.3105517131203,1
-127.0,125.38183840631005,-127.0,-77.36502627806976,-24.784581497797348,12.565053128689499,-65.16204772902233,0.4980392156862763,-9.292682926829277,-7.470588235294116,4.665306122448979,39.345098039215685,7.4705882352941195,4.482352941176472,-18.427450980392155,11.456513337042134,153.95315027466629,126.46061280210336,21232.1974524496,109.91562156145994,795.3105517131203,1
-122.33153828143291,126.15239154616242,-120.44073473797947,-94.11227902532255,-11.035572687224658,9.38630460448644,-60.76250962278675,0.4980392156862763,-9.292682926829277,-7.470588235294116,4.665306122448979,39.345098039215685,7.4705882352941195,4.482352941176472,-18.427450980392155,11.456513337042134,153.95315027466629,122.97488818852493,20426.001408532,113.56846843648815,292.06323567597985,1
-122.33153828143291,126.15239154616242,-120.44073473797947,-94.11227902532255,-11.035572687224658,9.38630460448644,-60.76250962278675,-4.482352941176469,-7.227642276422774,6.4745098039215705,0.5183673469387751,-5.478431372549018,10.458823529411767,-15.439215686274508,15.439215686274512,8.189819830371174,27.72457911126355,122.97488818852493,20426.001408532,113.56846843648815,292.06323567597985,1
-122.33153828143291,126.15239154616242,-120.44073473797947,-94.11227902532255,-11.035572687224658,9.38630460448644,-60.76250962278675,-4.482352941176469,-8.260162601626025,-7.470588235294116,-2.591836734693878,-20.419607843137253,1.4941176470588253,24.403921568627453,-7.470588235294116,9.574146975863517,69.7269437616437,122.97488818852493,20426.001408532,113.56846843648815,292.06323567597985,1
-104.19292905642706,126.51198301142685,-114.04613722312263,-105.82322025800283,1.650440528634375,2.9088547815820505,-55.09199384141641,-4.482352941176469,-8.260162601626025,-7.470588235294116,-2.591836734693878,-20.419607843137253,1.4941176470588253,24.403921568627453,-7.470588235294116,9.574146975863517,69.7269437616437,114.91701643032552,18531.675229032066,115.46044683085078,108.50642981675031,1
-104.19292905642706,126.51198301142685,-114.04613722312263,-105.82322025800283,1.650440528634375,2.9088547815820505,-55.09199384141641,1.4941176470588253,-1.0325203252032615,6.4745098039215705,8.812244897959182,6.4745098039215705,32.372549019607845,47.31372549019608,81.18039215686275,23.144321143091386,822.3346444918801,114.91701643032552,18531.675229032066,115.46044683085078,108.50642981675031,1
-104.19292905642706,126.51198301142685,-114.04613722312263,-105.82322025800283,1.650440528634375,2.9088547815820505,-55.09199384141641,9.462745098039218,1.032520325203242,3.4862745098039234,0.5183673469387751,-15.439215686274508,15.439215686274512,-12.450980392156861,3.4862745098039234,7.66444919431187,39.57171296531342,114.91701643032552,18531.675229032066,115.46044683085078,108.50642981675031,1
-90.57410442519316,126.5376681160886,-110.20388978930308,-113.95413282369805,13.497246696035257,-5.90767414403777,-47.95496535796764,9.462745098039218,1.032520325203242,3.4862745098039234,0.5183673469387751,-15.439215686274508,15.439215686274512,-12.450980392156861,3.4862745098039234,7.66444919431187,39.57171296531342,109.1052207768616,17261.569248155032,116.89856357636324,73.2003329500725,1
-90.57410442519316,126.5376681160886,-110.20388978930308,-113.95413282369805,13.497246696035257,-5.90767414403777,-47.95496535796764,-8.466666666666665,-9.292682926829277,-4.482352941176469,-3.62857142857143,-39.345098039215685,-8.466666666666665,-48.30980392156863,-30.380392156862744,19.046529343444696,309.3801064834374,109.1052207768616,17261.569248155032,116.89856357636324,73.2003329500725,1
-90.57410442519316,126.5376681160886,-110.20388978930308,-113.95413282369805,13.497246696035257,-5.90767414403777,-47.95496535796764,-1.4941176470588218,-4.130081300813018,0.4980392156862763,6.738775510204081,36.35686274509804,0.4980392156862763,19.423529411764708,-4.482352941176469,9.202724748435962,158.12320708475445,109.1052207768616,17261.569248155032,116.89856357636324,73.2003329500725,1
-87.24373682978225,127.00000000000001,-111.24678552133982,-120.08265647396081,25.30209251101323,-15.024085005903174,-38.911470361816725,-1.4941176470588218,-4.130081300813018,0.4980392156862763,6.738775510204081,36.35686274509804,0.4980392156862763,19.423529411764708,-4.482352941176469,9.202724748435962,158.12320708475445,108.49684078370736,17206.34265475493,119.44314733176687,62.34767055987953,1
-87.24373682978225,127.00000000000001,-111.24678552133982,-120.08265647396081,25.30209251101323,-15.024085005903174,-38.911470361816725,9.462745098039218,-3.097560975609766,1.4941176470588253,8.812244897959182,13.447058823529414,-1.4941176470588218,2.4901960784313744,1.4941176470588253,5.224019851843178,21.74180739604764,108.49684078370736,17206.34265475493,119.44314733176687,62.34767055987953,1
-87.24373682978225,127.00000000000001,-111.24678552133982,-120.08265647396081,25.30209251101323,-15.024085005903174,-38.911470361816725,1.4941176470588253,-5.1626016260162695,-3.48627450980392,6.738775510204081,22.411764705882355,4.482352941176472,-11.454901960784312,-9.462745098039214,8.086691749870681,43.77576994431053,108.49684078370736,17206.34265475493,119.44314733176687,62.34767055987953,1
-79.92882228986186,125.09930225503085,-111.46634251755808,-124.51218346870519,36.64537444933922,-24.500354191263284,-27.96150885296379,1.4941176470588253,-5.1626016260162695,-3.48627450980392,6.738775510204081,22.411764705882355,4.482352941176472,-11.454901960784312,-9.462745098039214,8.086691749870681,43.77576994431053,105.49815568748359,16499.075220529852,120.35927608043137,59.39937763257288,1
-79.92882228986186,125.09930225503085,-111.46634251755808,-124.51218346870519,36.64537444933922,-24.500354191263284,-27.96150885296379,4.482352941176472,-2.0650406504065137,-1.4941176470588218,-9.848979591836734,-93.13333333333333,1.4941176470588253,1.4941176470588253,-2.490196078431371,14.562781942045111,1015.9253362230928,105.49815568748359,16499.075220529852,120.35927608043137,59.39937763257288,1
-79.92882228986186,125.09930225503085,-111.46634251755808,-124.51218346870519,36.64537444933922,-24.500354191263284,-27.96150885296379,7.4705882352941195,-4.130081300813018,-3.48627450980392,7.775510204081632,-76.2,-11.454901960784312,11.454901960784316,0.4980392156862763,15.30878717340595,619.9608303116773,105.49815568748359,16499.075220529852,120.35927608043137,59.39937763257288,1
-75.43877312104892,124.38011932450199,-110.8076715289033,-127.0,47.63898678414098,-34.03659976387249,-15.496150885296345,7.4705882352941195,-4.130081300813018,-3.48627450980392,7.775510204081632,-76.2,-11.454901960784312,11.454901960784316,0.4980392156862763,15.30878717340595,619.9608303116773,103.54218799148474,16081.97428654281,120.72926361780178,75.54443587233142,1
-75.43877312104892,124.38011932450199,-110.8076715289033,-127.0,47.63898678414098,-34.03659976387249,-15.496150885296345,-7.470588235294116,-14.455284552845537,-20.419607843137253,-1.555102040816327,30.380392156862747,-46.317647058823525,-27.392156862745097,-25.4,21.673847343815574,198.55447310135511,103.54218799148474,16081.97428654281,120.72926361780178,75.54443587233142,1
-75.43877312104892,124.38011932450199,-110.8076715289033,-127.0,47.63898678414098,-34.03659976387249,-15.496150885296345,-2.490196078431371,2.0650406504064946,7.4705882352941195,18.142857142857142,8.466666666666669,6.4745098039215705,14.443137254901963,18.42745098039216,9.747555851608936,42.44264966951896,103.54218799148474,16081.97428654281,120.72926361780178,75.54443587233142,1
-75.94427534535237,125.17635756901609,-108.41998919502971,-126.87864309603435,58.7444933920705,-43.09303423848877,-2.248652809853695,-2.490196078431371,2.0650406504064946,7.4705882352941195,18.142857142857142,8.466666666666669,6.4745098039215705,14.443137254901963,18.42745098039216,9.747555851608936,42.44264966951896,103.18020736979939,16011.905699238434,120.15832995336005,104.0659268228834,1
-75.94427534535237,125.17635756901609,-108.41998919502971,-126.87864309603435,58.7444933920705,-43.09303423848877,-2.248652809853695,-11.454901960784312,-13.422764227642286,1.4941176470588253,1.555102040816326,23.407843137254904,9.462745098039218,-2.490196078431371,-4.482352941176469,8.471252891400464,57.957476209896676,103.18020736979939,16011.905699238434,120.15832995336005,104.0659268228834,1
-75.94427534535237,125.17635756901609,-108.41998919502971,-126.87864309603435,58.7444933920705,-43.09303423848877,-2.248652809853695,2.4901960784313744,-4.130081300813018,-4.482352941176469,-1.555102040816327,0.4980392156862763,9.462745098039218,36.35686274509804,91.14117647058823,18.76456948633112,992.4604341725462,103.18020736979939,16011.905699238434,120.15832995336005,104.0659268228834,1
-68.18332943104659,121.14379613712207,-105.75786061588332,-125.1189679885332,69.03876651982381,-52.08949232585596,11.976520400307948,2.4901960784313744,-4.130081300813018,-4.482352941176469,-1.555102040816327,0.4980392156862763,9.462745098039218,36.35686274509804,91.14117647058823,18.76456948633112,992.4604341725462,98.36166206135066,14790.161284487342,117.34020824717953,104.56358030120757,1
-68.18332943104659,121.14379613712207,-105.75786061588332,-125.1189679885332,69.03876651982381,-52.08949232585596,11.976520400307948,-20.419607843137253,-4.130081300813018,4.482352941176472,20.216326530612243,50.30196078431373,6.4745098039215705,61.25882352941177,-10.458823529411763,22.217810782849725,478.2853371735774,98.36166206135066,14790.161284487342,117.34020824717953,104.56358030120757,1
-68.18332943104659,121.14379613712207,-105.75786061588332,-125.1189679885332,69.03876651982381,-52.08949232585596,11.976520400307948,14.443137254901963,-9.769962616701378e-15,2.4901960784313744,12.959183673469386,-21.415686274509802,-7.470588235294116,-43.32941176470588,-31.376470588235293,16.68558423369348,218.8340142339448,98.36166206135066,14790.161284487342,117.34020824717953,104.56358030120757,1
-54.14820885038632,115.62149863484682,-104.5228525121556,-123.05590062111798,78.1161894273128,-62.04557260920896,27.619322555812232,14.443137254901963,-9.769962616701378e-15,2.4901960784313744,12.959183673469386,-21.415686274509802,-7.470588235294116,-43.32941176470588,-31.376470588235293,16.68558423369348,218.8340142339448,91.4308533324629,13303.815607601091,114.40008392270681,86.98735847655266,1
-54.14820885038632,115.62149863484682,-104.5228525121556,-123.05590062111798,78.1161894273128,-62.04557260920896,27.619322555812232,-4.482352941176469,-1.0325203252032615,3.4862745098039234,3.628571428571428,-75.20392156862745,14.443137254901963,54.286274509803924,42.333333333333336,24.86204823392772,814.9787759887287,91.4308533324629,13303.815607601091,114.40008392270681,86.98735847655266,1
-54.14820885038632,115.62149863484682,-104.5228525121556,-123.05590062111798,78.1161894273128,-62.04557260920896,27.619322555812232,-19.423529411764704,-9.292682926829277,-3.48627450980392,1.555102040816326,-32.372549019607845,-11.454901960784312,-6.474509803921567,-37.35294117647059,15.176561356249819,178.8477124278931,91.4308533324629,13303.815607601091,114.40008392270681,86.98735847655266,1
-48.91477405759775,110.356052179189,-102.71150729335494,-120.14333492594358,86.56420704845817,-70.9220779220779,43.79984603541192,-19.423529411764704,-9.292682926829277,-3.48627450980392,1.555102040816326,-32.372549019607845,-11.454901960784312,-6.474509803921567,-37.35294117647059,15.176561356249819,178.8477124278931,87.32744451004721,12276.51158276233,111.07029813282918,76.34976411478868,1
-48.91477405759775,110.356052179189,-102.71150729335494,-120.14333492594358,86.56420704845817,-70.9220779220779,43.79984603541192,12.450980392156865,4.130081300812998,12.450980392156865,20.216326530612243,-15.439215686274508,-46.317647058823525,-95.12549019607843,-49.305882352941175,31.929575488732077,920.4930939985181,87.32744451004721,12276.51158276233,111.07029813282918,76.34976411478868,1
-48.91477405759775,110.356052179189,-102.71150729335494,-120.14333492594358,86.56420704845817,-70.9220779220779,43.79984603541192,40.34117647058824,-12.390243902439034,3.4862745098039234,-15.03265306122449,7.4705882352941195,18.42745098039216,22.411764705882355,-33.36862745098039,19.116097414575588,158.1135887873999,87.32744451004721,12276.51158276233,111.07029813282918,76.34976411478868,1
-45.76281901194099,102.44503994337144,-104.02884927066451,-117.41280458671758,94.42477973568283,-77.21959858323493,60.615858352578925,40.34117647058824,-12.390243902439034,3.4862745098039234,-15.03265306122449,7.4705882352941195,18.42745098039216,22.411764705882355,-33.36862745098039,19.116097414575588,158.1135887873999,84.07890274199231,11331.994444233043,107.96223126691785,67.61211505098814,1
-45.76281901194099,102.44503994337144,-104.02884927066451,-117.41280458671758,94.42477973568283,-77.21959858323493,60.615858352578925,36.35686274509804,-4.130081300813018,-2.490196078431371,4.665306122448979,11.454901960784316,24.403921568627453,-3.48627450980392,-1.4941176470588218,11.060207741633238,161.33889999965842,84.07890274199231,11331.994444233043,107.96223126691785,67.61211505098814,1
-45.76281901194099,102.44503994337144,-104.02884927066451,-117.41280458671758,94.42477973568283,-77.21959858323493,60.615858352578925,-32.372549019607845,-17.552845528455293,-8.466666666666665,-10.885714285714286,71.21960784313725,14.443137254901963,92.13725490196079,118.03529411764706,45.6391337022614,1797.8949269695393,84.07890274199231,11331.994444233043,107.96223126691785,67.61211505098814,1
-48.67689065792554,94.97067448680353,-105.7853052404106,-114.31820353559488,102.1035242290749,-79.97851239669421,77.57852193995387,-32.372549019607845,-17.552845528455293,-8.466666666666665,-10.885714285714286,71.21960784313725,14.443137254901963,92.13725490196079,118.03529411764706,45.6391337022614,1797.8949269695393,83.1442901283799,10699.826230727964,105.02472775426968,94.01557865777455,1
-48.67689065792554,94.97067448680353,-105.7853052404106,-114.31820353559488,102.1035242290749,-79.97851239669421,77.57852193995387,11.454901960784316,3.0975609756097464,2.4901960784313744,-17.10612244897959,43.32941176470588,16.43529411764706,35.36078431372549,29.3843137254902,19.83232317317171,222.06308601788206,83.1442901283799,10699.826230727964,105.02472775426968,94.01557865777455,1
