Gyro 0,Gyro 1,Gyro 2,Orientation 0,Orientation 1,Orientation 2,Orientation 3,Sensor 0,Sensor 1,Sensor 2,Sensor 3,Sensor 4,Sensor 5,Sensor 6,Sensor 7,Sensor Mean,Sensor Variance,Gyro Mean,Gyro Variance,Orientation Mean,Orientation Variance,Label
3.3372709739633555,19.697374778547292,-36.08057451359886,121.89080459770116,-123.66365527488855,94.19362292051758,-1.9874045801526563,13.991525423728817,9.543352601156077,23.407843137254904,14.443137254901963,0.4980392156862763,6.0,-7.286885245901646,-11.454901960784312,10.828210604926749,46.561436570915234,19.705073422036502,822.0998611025532,59.22291796328244,3012.5503198079164,1
3.3372709739633555,19.697374778547292,-36.08057451359886,121.89080459770116,-123.66365527488855,94.19362292051758,-1.9874045801526563,11.83898305084746,0.7341040462427819,1.4941176470588253,2.4901960784313744,-1.4941176470588218,-4.0,-9.3688524590164,-6.474509803921567,4.7368600915721535,16.79402934390945,19.705073422036502,822.0998611025532,59.22291796328244,3012.5503198079164,1
3.3372709739633555,19.697374778547292,-36.08057451359886,121.89080459770116,-123.66365527488855,94.19362292051758,-1.9874045801526563,16.144067796610173,13.947976878612725,27.3921568627451,4.482352941176472,-3.48627450980392,2.0,-3.1229508196721385,2.4901960784313744,9.133246985881488,84.33959053689941,19.705073422036502,822.0998611025532,59.22291796328244,3012.5503198079164,1
3.367888138862102,19.676920599130316,-35.82183966588571,121.95162835249039,-123.75423476968797,94.663123844732,-1.7935114503816294,16.144067796610173,13.947976878612725,27.3921568627451,4.482352941176472,-3.48627450980392,2.0,-3.1229508196721385,2.4901960784313744,9.133246985881488,84.33959053689941,19.622216134626044,813.655282692338,59.1501295391688,3023.1857928177446,1
3.367888138862102,19.676920599130316,-35.82183966588571,121.95162835249039,-123.75423476968797,94.663123844732,-1.7935114503816294,12.915254237288138,12.479768786127176,40.34117647058824,0.4980392156862763,4.482352941176472,0.0,-6.24590163934427,3.4862745098039234,10.056095975001812,173.2090483040359,19.622216134626044,813.655282692338,59.1501295391688,3023.1857928177446,1
3.367888138862102,19.676920599130316,-35.82183966588571,121.95162835249039,-123.75423476968797,94.663123844732,-1.7935114503816294,10.762711864406782,8.075144508670528,2.4901960784313744,0.4980392156862763,3.4862745098039234,-4.0,-6.24590163934427,12.450980392156865,6.001156026062501,17.367766551475306,19.622216134626044,813.655282692338,59.1501295391688,3023.1857928177446,1
4.255785920925748,19.73828313738124,-35.795966181114395,122.25574712643675,-123.89010401188708,95.07393715341962,-1.6480916030533876,10.762711864406782,8.075144508670528,2.4901960784313744,0.4980392156862763,3.4862745098039234,-4.0,-6.24590163934427,12.450980392156865,6.001156026062501,17.367766551475306,19.930011746473795,821.3172356449437,59.2633321483108,3040.495554765569,1
4.255785920925748,19.73828313738124,-35.795966181114395,122.25574712643675,-123.89010401188708,95.07393715341962,-1.6480916030533876,7.533898305084748,-9.543352601156062,-4.482352941176469,-6.474509803921567,5.4784313725490215,-2.0,-4.163934426229515,0.4980392156862763,5.0218148332254575,8.5280824497293,19.930011746473795,821.3172356449437,59.2633321483108,3040.495554765569,1
4.255785920925748,19.73828313738124,-35.795966181114395,122.25574712643675,-123.89010401188708,95.07393715341962,-1.6480916030533876,16.144067796610173,-2.202312138728317,-13.44705882352941,-5.478431372549018,0.4980392156862763,11.0,10.409836065573762,45.321568627450986,13.062664255015994,199.27277691373942,19.930011746473795,821.3172356449437,59.2633321483108,3040.495554765569,1
3.735294117647059,20.14736672572075,-35.56310481817256,122.62068965517233,-123.9655869242199,95.60212569316084,-1.696564885496116,16.144067796610173,-2.202312138728317,-13.44705882352941,-5.478431372549018,0.4980392156862763,11.0,10.409836065573762,45.321568627450986,13.062664255015994,199.27277691373942,19.815255220513457,819.5628209757431,59.44372039968855,3052.9083284650246,1
3.735294117647059,20.14736672572075,-35.56310481817256,122.62068965517233,-123.9655869242199,95.60212569316084,-1.696564885496116,11.83898305084746,27.16184971098267,50.30196078431373,14.443137254901963,3.4862745098039234,-2.0,-2.0819672131147615,13.447058823529414,15.59515391843674,267.494364918661,19.815255220513457,819.5628209757431,59.44372039968855,3052.9083284650246,1
3.735294117647059,20.14736672572075,-35.56310481817256,122.62068965517233,-123.9655869242199,95.60212569316084,-1.696564885496116,-6.457627118644066,-25.693641618497104,-61.258823529411764,-8.466666666666665,-7.470588235294116,-7.0,-17.696721311475414,-44.325490196078434,22.296194834508444,418.85176490976716,19.815255220513457,819.5628209757431,59.44372039968855,3052.9083284650246,1
3.367888138862102,20.556450314060257,-35.74421921157177,122.98563218390802,-124.0108766716196,96.13031423290207,-1.8419847328243577,-6.457627118644066,-25.693641618497104,-61.258823529411764,-8.466666666666665,-7.470588235294116,-7.0,-17.696721311475414,-44.325490196078434,22.296194834508444,418.85176490976716,19.889519221498045,832.4948333461577,59.76210056984669,3055.578293336715,1
3.367888138862102,20.556450314060257,-35.74421921157177,122.98563218390802,-124.0108766716196,96.13031423290207,-1.8419847328243577,6.45762711864407,-15.41618497109826,-21.415686274509802,-8.466666666666665,-1.4941176470588218,-2.0,-3.1229508196721385,6.4745098039215705,8.105967912696416,48.84664718176343,19.889519221498045,832.4948333461577,59.76210056984669,3055.578293336715,1
3.367888138862102,20.556450314060257,-35.74421921157177,122.98563218390802,-124.0108766716196,96.13031423290207,-1.8419847328243577,7.533898305084748,-12.47976878612716,-20.419607843137253,-35.36078431372549,-3.48627450980392,-3.0,-8.327868852459023,-9.462745098039214,12.508868463547103,115.4466338344607,19.889519221498045,832.4948333461577,59.76210056984669,3055.578293336715,1
4.133317261330761,20.41327105814143,-35.87358663542834,123.41139846743295,-124.13164933135215,96.42375231053607,-1.7935114503816294,7.533898305084748,-12.47976878612716,-20.419607843137253,-35.36078431372549,-3.48627450980392,-3.0,-8.327868852459023,-9.462745098039214,12.508868463547103,115.4466338344607,20.140058318300177,838.9666006744973,59.89941872033423,3085.0840179842326,1
4.133317261330761,20.41327105814143,-35.87358663542834,123.41139846743295,-124.13164933135215,96.42375231053607,-1.7935114503816294,11.83898305084746,3.6705202312138803,7.4705882352941195,15.439215686274512,-1.4941176470588218,0.0,-4.163934426229515,1.4941176470588253,5.696434615497141,30.00307062828509,20.140058318300177,838.9666006744973,59.89941872033423,3085.0840179842326,1
4.133317261330761,20.41327105814143,-35.87358663542834,123.41139846743295,-124.13164933135215,96.42375231053607,-1.7935114503816294,9.686440677966104,-12.47976878612716,-4.482352941176469,-5.478431372549018,1.4941176470588253,-2.0,-2.0819672131147615,18.42745098039216,7.0163162022980625,36.569262915057685,20.140058318300177,838.9666006744973,59.89941872033423,3085.0840179842326,1
4.163934426229508,19.983733290384947,-36.416929815625956,123.7155172413793,-124.31280832095095,96.48243992606287,-1.4057251908396324,9.686440677966104,-12.47976878612716,-4.482352941176469,-5.478431372549018,1.4941176470588253,-2.0,-2.0819672131147615,18.42745098039216,7.0163162022980625,36.569262915057685,20.18819917741347,846.351229585996,60.03872678246341,3108.5627193708106,1
4.163934426229508,19.983733290384947,-36.416929815625956,123.7155172413793,-124.31280832095095,96.48243992606287,-1.4057251908396324,7.533898305084748,0.7341040462427819,-27.392156862745097,0.4980392156862763,-5.478431372549018,5.0,-7.105427357601002e-15,18.42745098039216,8.133010097837511,96.18488100027619,20.18819917741347,846.351229585996,60.03872678246341,3108.5627193708106,1
4.163934426229508,19.983733290384947,-36.416929815625956,123.7155172413793,-124.31280832095095,96.48243992606287,-1.4057251908396324,4.305084745762715,0.7341040462427819,6.4745098039215705,7.4705882352941195,2.4901960784313744,-5.0,-12.491803278688531,-26.396078431372548,8.170295577464206,66.68156754770152,20.18819917741347,846.351229585996,60.03872678246341,3108.5627193708106,1
2.2656702025072324,20.270091802222602,-36.52042375471122,123.41139846743295,-124.34300148588409,96.71719038817008,-1.163358778625934,4.305084745762715,0.7341040462427819,6.4745098039215705,7.4705882352941195,2.4901960784313744,-5.0,-12.491803278688531,-26.396078431372548,8.170295577464206,66.68156754770152,19.685395253147018,842.2804898034694,60.06730467478892,3075.3739859499806,1
2.2656702025072324,20.270091802222602,-36.52042375471122,123.41139846743295,-124.34300148588409,96.71719038817008,-1.163358778625934,9.686440677966104,-8.075144508670514,-48.30980392156863,-19.423529411764704,0.4980392156862763,-3.0,-10.409836065573778,-9.462745098039214,13.608192362408653,227.9769744825963,19.685395253147018,842.2804898034694,60.06730467478892,3075.3739859499806,1
2.2656702025072324,20.270091802222602,-36.52042375471122,123.41139846743295,-124.34300148588409,96.71719038817008,-1.163358778625934,8.610169491525426,12.479768786127176,20.419607843137257,-11.454901960784312,-2.490196078431371,4.0,-4.163934426229515,-12.450980392156861,9.508694872298989,35.61413211023576,19.685395253147018,842.2804898034694,60.06730467478892,3075.3739859499806,1
1.5614754098360653,20.167820905137724,-36.85677905673831,122.98563218390802,-124.32790490341753,97.2453789279113,-0.9209923664121789,8.610169491525426,12.479768786127176,20.419607843137257,-11.454901960784312,-2.490196078431371,4.0,-4.163934426229515,-12.450980392156861,9.508694872298989,35.61413211023576,19.5286917905707,845.6605616268312,60.003410715261346,3044.700496890712,1
1.5614754098360653,20.167820905137724,-36.85677905673831,122.98563218390802,-124.32790490341753,97.2453789279113,-0.9209923664121789,13.991525423728817,5.1387283236994294,-6.474509803921567,-0.49803921568627274,-1.4941176470588218,-3.0,-6.24590163934427,11.454901960784316,6.037215501777936,22.03018833894461,19.5286917905707,845.6605616268312,60.003410715261346,3044.700496890712,1
1.5614754098360653,20.167820905137724,-36.85677905673831,122.98563218390802,-124.32790490341753,97.2453789279113,-0.9209923664121789,13.991525423728817,-0.7341040462427673,-20.419607843137253,10.458823529411767,1.4941176470588253,-5.0,-1.0409836065573845,19.423529411764708,9.07033643848769,67.1529386976645,19.5286917905707,845.6605616268312,60.003410715261346,3044.700496890712,1
3.6434426229508197,19.758737316798218,-36.75328511765305,122.98563218390802,-124.4335809806835,97.59750462107212,-0.6786259541984236,13.991525423728817,-0.7341040462427673,-20.419607843137253,10.458823529411767,1.4941176470588253,-5.0,-1.0409836065573845,19.423529411764708,9.07033643848769,67.1529386976645,20.051821685800693,847.5345024749906,59.832551539453085,3063.4373599026553,1
3.6434426229508197,19.758737316798218,-36.75328511765305,122.98563218390802,-124.4335809806835,97.59750462107212,-0.6786259541984236,7.533898305084748,8.075144508670528,25.400000000000002,12.450980392156865,-2.490196078431371,0.0,-10.409836065573778,-18.427450980392155,10.598438291288682,68.23943636786053,20.051821685800693,847.5345024749906,59.832551539453085,3063.4373599026553,1
3.6434426229508197,19.758737316798218,-36.75328511765305,122.98563218390802,-124.4335809806835,97.59750462107212,-0.6786259541984236,18.29661016949153,-2.202312138728317,-1.4941176470588218,35.36078431372549,3.4862745098039234,-9.0,-4.163934426229515,-3.48627450980392,9.68628846435519,137.75523905422162,20.051821685800693,847.5345024749906,59.832551539453085,3063.4373599026553,1
4.041465766634523,19.676920599130316,-36.59804420902516,123.10727969348659,-124.56945022288261,97.83225508317932,-0.3393129770992118,18.29661016949153,-2.202312138728317,-1.4941176470588218,35.36078431372549,3.4862745098039234,-9.0,-4.163934426229515,-3.48627450980392,9.68628846435519,137.75523905422162,20.105476858263334,843.818147173316,59.79408150054735,3078.001905119138,1
4.041465766634523,19.676920599130316,-36.59804420902516,123.10727969348659,-124.56945022288261,97.83225508317932,-0.3393129770992118,9.686440677966104,8.075144508670528,-1.4941176470588218,6.4745098039215705,0.4980392156862763,6.0,4.163934426229501,32.372549019607845,8.595591912392582,101.95449671230013,20.105476858263334,843.818147173316,59.79408150054735,3078.001905119138,1
4.041465766634523,19.676920599130316,-36.59804420902516,123.10727969348659,-124.56945022288261,97.83225508317932,-0.3393129770992118,6.45762711864407,2.202312138728331,-35.36078431372549,-22.41176470588235,1.4941176470588253,3.0,-12.491803278688531,-27.392156862745097,13.851320758184086,168.85121308494487,20.105476858263334,843.818147173316,59.79408150054735,3078.001905119138,1
4.041465766634523,19.39056208729266,-36.572170724253844,123.16810344827582,-124.7204160475483,98.06700554528653,0.1454198473282986,6.45762711864407,2.202312138728331,-35.36078431372549,-22.41176470588235,1.4941176470588253,3.0,-12.491803278688531,-27.392156862745097,13.851320758184086,168.85121308494487,20.001399526060343,836.1482817685675,59.71027875327411,3093.9735551046015,1
4.041465766634523,19.39056208729266,-36.572170724253844,123.16810344827582,-124.7204160475483,98.06700554528653,0.1454198473282986,15.067796610169495,3.6705202312138803,19.423529411764708,11.454901960784316,0.4980392156862763,-6.0,-9.3688524590164,-8.466666666666665,9.243788319412717,37.303770163541465,20.001399526060343,836.1482817685675,59.71027875327411,3093.9735551046015,1
4.041465766634523,19.39056208729266,-36.572170724253844,123.16810344827582,-124.7204160475483,98.06700554528653,0.1454198473282986,5.381355932203392,-8.075144508670514,-18.427450980392155,8.466666666666669,2.4901960784313744,1.0,-6.24590163934427,4.482352941176472,6.821133593360606,28.500469754723387,20.001399526060343,836.1482817685675,59.71027875327411,3093.9735551046015,1
3.4597396335583412,19.411016266709638,-36.70153814811042,123.22892720306504,-124.88647845468054,98.41913123844735,0.6301526717557522,5.381355932203392,-8.075144508670514,-18.427450980392155,8.466666666666669,2.4901960784313744,1.0,-6.24590163934427,4.482352941176472,6.821133593360606,28.500469754723387,19.857431349459468,835.9983703733037,59.78049387262836,3094.0183057979507,1
3.4597396335583412,19.411016266709638,-36.70153814811042,123.22892720306504,-124.88647845468054,98.41913123844735,0.6301526717557522,1.7763568394002505e-15,-24.225433526011553,-32.372549019607845,-15.439215686274508,1.4941176470588253,2.0,-12.491803278688531,-16.435294117647057,13.05730165941104,134.52490814126082,19.857431349459468,835.9983703733037,59.78049387262836,3094.0183057979507,1
3.4597396335583412,19.411016266709638,-36.70153814811042,123.22892720306504,-124.88647845468054,98.41913123844735,0.6301526717557522,15.067796610169495,22.75722543352602,44.325490196078434,26.39607843137255,-5.478431372549018,3.0,-8.327868852459023,0.4980392156862763,15.731366263980101,219.31991693307046,19.857431349459468,835.9983703733037,59.78049387262836,3094.0183057979507,1
2.6636933461909353,19.370107907875685,-36.85677905673831,123.10727969348659,-125.00725111441307,99.12338262476898,1.0179389312977491,15.067796610169495,22.75722543352602,44.325490196078434,26.39607843137255,-5.478431372549018,3.0,-8.327868852459023,0.4980392156862763,15.731366263980101,219.31991693307046,19.630193436934977,833.739140698174,59.77805555270019,3084.388889672588,1
2.6636933461909353,19.370107907875685,-36.85677905673831,123.10727969348659,-125.00725111441307,99.12338262476898,1.0179389312977491,1.7763568394002505e-15,-5.138728323699414,1.4941176470588253,-13.44705882352941,-3.48627450980392,2.0,-10.409836065573778,-27.392156862745097,7.9210215290513055,83.19581504071593,19.630193436934977,833.739140698174,59.77805555270019,3084.388889672588,1
2.6636933461909353,19.370107907875685,-36.85677905673831,123.10727969348659,-125.00725111441307,99.12338262476898,1.0179389312977491,17.22033898305085,-6.606936416184965,-62.25490196078431,-7.470588235294116,0.4980392156862763,3.0,-6.24590163934427,-13.44705882352941,14.592970659234275,399.5883671841254,19.630193436934977,833.739140698174,59.77805555270019,3084.388889672588,1
3.1841851494696236,19.370107907875685,-37.29662829785067,123.04645593869725,-125.14312035661217,99.65157116451019,1.4541984732824744,17.22033898305085,-6.606936416184965,-62.25490196078431,-7.470588235294116,0.4980392156862763,3.0,-6.24590163934427,-13.44705882352941,14.592970659234275,399.5883671841254,19.95030711839866,851.9665575178688,59.90439738147453,3070.529702455854,1
3.1841851494696236,19.370107907875685,-37.29662829785067,123.04645593869725,-125.14312035661217,99.65157116451019,1.4541984732824744,23.677966101694917,15.416184971098273,38.34901960784314,5.4784313725490215,0.4980392156862763,-8.0,4.163934426229501,9.462745098039218,13.130790099142544,155.82201452820627,19.95030711839866,851.9665575178688,59.90439738147453,3070.529702455854,1
3.1841851494696236,19.370107907875685,-37.29662829785067,123.04645593869725,-125.14312035661217,99.65157116451019,1.4541984732824744,2.152542372881358,0.7341040462427819,4.482352941176472,0.4980392156862763,3.4862745098039234,-4.0,-6.24590163934427,4.482352941176472,3.2601959582889446,3.9625345730273374,19.95030711839866,851.9665575178688,59.90439738147453,3070.529702455854,1
2.6636933461909353,19.492832984377536,-37.03789345013752,122.98563218390802,-125.24879643387814,100.41451016635862,1.793511450381743,2.152542372881358,0.7341040462427819,4.482352941176472,0.4980392156862763,3.4862745098039234,-4.0,-6.24590163934427,4.482352941176472,3.2601959582889446,3.9625345730273374,19.73147326023533,842.526494386994,59.83878620614103,3067.6004043916646,1
2.6636933461909353,19.492832984377536,-37.03789345013752,122.98563218390802,-125.24879643387814,100.41451016635862,1.793511450381743,7.533898305084748,2.202312138728331,-15.439215686274508,13.447058823529414,-1.4941176470588218,-6.0,-7.286885245901646,-5.478431372549018,7.360239902390811,24.108831072352565,19.73147326023533,842.526494386994,59.83878620614103,3067.6004043916646,1
2.6636933461909353,19.492832984377536,-37.03789345013752,122.98563218390802,-125.24879643387814,100.41451016635862,1.793511450381743,21.525423728813564,19.820809248554923,9.462745098039218,-12.450980392156861,-4.482352941176469,-9.0,-10.409836065573778,16.43529411764706,12.948430198995233,34.15130201112202,19.73147326023533,842.526494386994,59.83878620614103,3067.6004043916646,1
2.8473963355834133,19.799645675632167,-36.77915860242437,123.04645593869725,-125.33937592867755,101.17744916820705,1.9389312977099848,21.525423728813564,19.820809248554923,9.462745098039218,-12.450980392156861,-4.482352941176469,-9.0,-10.409836065573778,16.43529411764706,12.948430198995233,34.15130201112202,19.808733537879984,843.1339512461268,59.87508673891793,3065.0423797388967,1
2.8473963355834133,19.799645675632167,-36.77915860242437,123.04645593869725,-125.33937592867755,101.17744916820705,1.9389312977099848,17.22033898305085,12.479768786127176,14.443137254901963,-24.40392156862745,-6.474509803921567,11.0,-1.0409836065573845,10.458823529411767,12.19018544157477,48.71789288967932,19.808733537879984,843.1339512461268,59.87508673891793,3065.0423797388967,1
2.8473963355834133,19.799645675632167,-36.77915860242437,123.04645593869725,-125.33937592867755,101.17744916820705,1.9389312977099848,-2.152542372881353,-13.94797687861271,26.39607843137255,-8.466666666666665,-2.490196078431371,10.0,-3.1229508196721385,-4.482352941176469,8.882345523601657,67.49911269831544,19.808733537879984,843.1339512461268,59.87508673891793,3065.0423797388967,1
4.286403085824494,20.086004187469822,-37.11551390445146,123.22892720306504,-125.44505200594352,101.35351201478746,2.181297709923683,-2.152542372881353,-13.94797687861271,26.39607843137255,-8.466666666666665,-2.490196078431371,10.0,-3.1229508196721385,-4.482352941176469,8.882345523601657,67.49911269831544,20.49597372591526,872.6266329102017,60.14348176499544,3057.3311198899355,1
4.286403085824494,20.086004187469822,-37.11551390445146,123.22892720306504,-125.44505200594352,101.35351201478746,2.181297709923683,8.610169491525426,-3.6705202312138656,-66.2392156862745,-16.435294117647057,0.4980392156862763,-5.0,-10.409836065573778,-1.4941176470588218,14.044649056872467,471.88401505385275,20.49597372591526,872.6266329102017,60.14348176499544,3057.3311198899355,1
4.286403085824494,20.086004187469822,-37.11551390445146,123.22892720306504,-125.44505200594352,101.35351201478746,2.181297709923683,2.152542372881358,-16.884393063583808,-35.36078431372549,-26.396078431372548,-1.4941176470588218,9.0,-8.327868852459023,-16.435294117647057,14.506384849841012,139.439608605233,20.49597372591526,872.6266329102017,60.14348176499544,3057.3311198899355,1
4.439488910318225,20.31100016105655,-37.01201996536621,123.59386973180074,-125.59601783060921,101.41219963031426,2.4236641221374384,2.152542372881358,-16.884393063583808,-35.36078431372549,-26.396078431372548,-1.4941176470588218,9.0,-8.327868852459023,-16.435294117647057,14.506384849841012,139.439608605233,20.587503012246994,876.0101823112545,60.305629952741164,3073.7819863747895,1
4.439488910318225,20.31100016105655,-37.01201996536621,123.59386973180074,-125.59601783060921,101.41219963031426,2.4236641221374384,23.677966101694917,24.225433526011567,73.21176470588236,9.462745098039218,-1.4941176470588218,2.0,12.491803278688515,46.31764705882353,24.110184677024865,607.7453812652371,20.587503012246994,876.0101823112545,60.305629952741164,3073.7819863747895,1
4.439488910318225,20.31100016105655,-37.01201996536621,123.59386973180074,-125.59601783060921,101.41219963031426,2.4236641221374384,-5.3813559322033875,0.7341040462427819,30.380392156862747,47.31372549019608,8.466666666666669,-18.0,-9.3688524590164,-10.458823529411763,16.262990035074978,238.2889741716033,20.587503012246994,876.0101823112545,60.305629952741164,3073.7819863747895,1
3.21480231436837,19.942824931550994,-35.899460120199656,123.95881226053632,-125.73188707280832,102.11645101663589,2.520610687022952,-5.3813559322033875,0.7341040462427819,30.380392156862747,47.31372549019608,8.466666666666669,-18.0,-9.3688524590164,-10.458823529411763,16.262990035074978,238.2889741716033,19.68569578870634,821.3521777137012,59.93369910409566,3138.064887657178,1
3.21480231436837,19.942824931550994,-35.899460120199656,123.95881226053632,-125.73188707280832,102.11645101663589,2.520610687022952,-2.152542372881353,-21.289017341040456,-44.325490196078434,-26.396078431372548,-5.478431372549018,0.0,-20.81967213114755,-25.4,18.232653980633668,224.07890346058062,19.68569578870634,821.3521777137012,59.93369910409566,3138.064887657178,1
3.21480231436837,19.942824931550994,-35.899460120199656,123.95881226053632,-125.73188707280832,102.11645101663589,2.520610687022952,-3.228813559322031,-12.47976878612716,22.411764705882355,18.42745098039216,-0.49803921568627274,16.0,-9.3688524590164,-15.439215686274508,12.23173817408761,56.21392617338178,19.68569578870634,821.3521777137012,59.93369910409566,3138.064887657178,1
4.470106075216972,19.554195522628465,-36.39105633085464,124.26293103448268,-125.9281426448737,102.2925138632163,2.956870229007677,-3.228813559322031,-12.47976878612716,22.411764705882355,18.42745098039216,-0.49803921568627274,16.0,-9.3688524590164,-15.439215686274508,12.23173817408761,56.21392617338178,20.138452642900024,837.8392587637542,60.069394295988594,3161.477589716188,1
4.470106075216972,19.554195522628465,-36.39105633085464,124.26293103448268,-125.9281426448737,102.2925138632163,2.956870229007677,23.677966101694917,-3.6705202312138656,-11.454901960784312,0.4980392156862763,0.4980392156862763,-7.0,-10.409836065573778,1.4941176470588253,7.337927554712282,62.09504151462771,20.138452642900024,837.8392587637542,60.069394295988594,3161.477589716188,1
4.470106075216972,19.554195522628465,-36.39105633085464,124.26293103448268,-125.9281426448737,102.2925138632163,2.956870229007677,20.449152542372886,-9.543352601156062,-12.450980392156861,1.4941176470588253,-2.490196078431371,5.0,-2.0819672131147615,13.447058823529414,8.369603162227524,46.06567386914048,20.138452642900024,837.8392587637542,60.069394295988594,3161.477589716188,1
4.561957569913211,19.30874536962476,-37.01201996536621,124.32375478927202,-126.12439821693908,102.2925138632163,3.538549618320644,20.449152542372886,-9.543352601156062,-12.450980392156861,1.4941176470588253,-2.490196078431371,5.0,-2.0819672131147615,13.447058823529414,8.369603162227524,46.06567386914048,20.29424096830139,852.9819944054598,60.214840041421006,3160.8161954634784,1
4.561957569913211,19.30874536962476,-37.01201996536621,124.32375478927202,-126.12439821693908,102.2925138632163,3.538549618320644,8.610169491525426,24.225433526011567,-15.439215686274508,-44.325490196078434,-8.466666666666665,-7.0,-12.491803278688531,-19.423529411764704,17.49778853212623,152.67819580192455,20.29424096830139,852.9819944054598,60.214840041421006,3160.8161954634784,1
4.561957569913211,19.30874536962476,-37.01201996536621,124.32375478927202,-126.12439821693908,102.2925138632163,3.538549618320644,10.762711864406782,11.011560693641627,-10.458823529411763,-46.317647058823525,-6.474509803921567,-10.0,-15.614754098360663,-17.431372549019606,16.00892244969819,161.58709170908176,20.29424096830139,852.9819944054598,60.214840041421006,3160.8161954634784,1
3.276036644165863,20.024641649218896,-37.27075481307936,124.01963601532566,-126.15459138187222,102.2925138632163,3.926335877862641,10.762711864406782,11.011560693641627,-10.458823529411763,-46.317647058823525,-6.474509803921567,-10.0,-15.614754098360663,-17.431372549019606,16.00892244969819,161.58709170908176,20.190477702154705,867.8867538107602,60.438344159207965,3106.2926103847835,1
3.276036644165863,20.024641649218896,-37.27075481307936,124.01963601532566,-126.15459138187222,102.2925138632163,3.926335877862641,1.7763568394002505e-15,-24.225433526011553,27.3921568627451,20.419607843137257,-0.49803921568627274,0.0,-10.409836065573778,-8.466666666666665,11.426467522477578,127.13516652328542,20.190477702154705,867.8867538107602,60.438344159207965,3106.2926103847835,1
3.276036644165863,20.024641649218896,-37.27075481307936,124.01963601532566,-126.15459138187222,102.2925138632163,3.926335877862641,19.372881355932208,18.352601156069372,4.482352941176472,2.4901960784313744,6.4745098039215705,5.0,3.1229508196721234,25.400000000000002,10.586936519400389,80.5121951028216,20.190477702154705,867.8867538107602,60.438344159207965,3106.2926103847835,1
1.7451783992285437,20.822354646480935,-37.425995721707245,123.47222222222217,-126.1093016344725,102.2925138632163,4.168702290076396,19.372881355932208,18.352601156069372,4.482352941176472,2.4901960784313744,6.4745098039215705,5.0,3.1229508196721234,25.400000000000002,10.586936519400389,80.5121951028216,19.99784292247224,881.864976032768,60.57352419680345,3036.1048842083455,1
1.7451783992285437,20.822354646480935,-37.425995721707245,123.47222222222217,-126.1093016344725,102.2925138632163,4.168702290076396,-2.152542372881353,-11.011560693641611,16.43529411764706,43.32941176470588,4.482352941176472,9.0,-5.2049180327868925,-9.462745098039214,12.634853127609812,173.4364028776281,19.99784292247224,881.864976032768,60.57352419680345,3036.1048842083455,1
1.7451783992285437,20.822354646480935,-37.425995721707245,123.47222222222217,-126.1093016344725,102.2925138632163,4.168702290076396,11.83898305084746,0.7341040462427819,19.423529411764708,-1.4941176470588218,-6.474509803921567,0.0,-9.3688524590164,-11.454901960784312,7.598624797454507,45.60042468757926,19.99784292247224,881.864976032768,60.57352419680345,3036.1048842083455,1
3.4291224686595947,21.06780479948464,-36.52042375471122,123.47222222222217,-126.1093016344725,102.35120147874309,4.168702290076396,11.83898305084746,0.7341040462427819,19.423529411764708,-1.4941176470588218,-6.474509803921567,0.0,-9.3688524590164,-11.454901960784312,7.598624797454507,45.60042468757926,20.339117007618484,870.58223763855,60.353483592139334,3047.6772328333896,1
3.4291224686595947,21.06780479948464,-36.52042375471122,123.47222222222217,-126.1093016344725,102.35120147874309,4.168702290076396,13.991525423728817,0.7341040462427819,-21.415686274509802,8.466666666666669,8.466666666666669,21.0,9.368852459016384,28.38823529411765,13.978967103868596,81.38247558790825,20.339117007618484,870.58223763855,60.353483592139334,3047.6772328333896,1
3.4291224686595947,21.06780479948464,-36.52042375471122,123.47222222222217,-126.1093016344725,102.35120147874309,4.168702290076396,9.686440677966104,6.606936416184979,-40.34117647058824,-7.470588235294116,-4.482352941176469,-6.0,-8.327868852459023,1.4941176470588253,10.55118515509097,151.10802272398732,20.339117007618484,870.58223763855,60.353483592139334,3047.6772328333896,1
5.021215043394407,20.63826703172816,-35.899460120199656,124.32375478927202,-126.32065378900447,102.35120147874309,4.265648854961853,9.686440677966104,6.606936416184979,-40.34117647058824,-7.470588235294116,-4.482352941176469,-6.0,-8.327868852459023,1.4941176470588253,10.55118515509097,151.10802272398732,20.51964739844074,852.4847600260898,60.28716064706661,3133.740045621055,1
5.021215043394407,20.63826703172816,-35.899460120199656,124.32375478927202,-126.32065378900447,102.35120147874309,4.265648854961853,8.610169491525426,-16.884393063583808,-32.372549019607845,-4.482352941176469,5.4784313725490215,-4.0,-2.0819672131147615,15.439215686274512,11.16863484847898,102.58587278183211,20.51964739844074,852.4847600260898,60.28716064706661,3133.740045621055,1
5.021215043394407,20.63826703172816,-35.899460120199656,124.32375478927202,-126.32065378900447,102.35120147874309,4.265648854961853,18.29661016949153,-3.6705202312138656,4.482352941176472,13.447058823529414,9.462745098039218,2.0,-6.24590163934427,5.4784313725490215,7.885452534417973,30.611241479558867,20.51964739844074,852.4847600260898,60.28716064706661,3133.740045621055,1
5.358003857280617,20.41327105814143,-36.054701028827544,125.29693486590031,-126.54710252600296,102.6446395563771,4.314122137404638,18.29661016949153,-3.6705202312138656,4.482352941176472,13.447058823529414,9.462745098039218,2.0,-6.24590163934427,5.4784313725490215,7.885452534417973,30.611241479558867,20.608658648083196,855.0508446813184,60.58830231762309,3201.5689275829404,1
5.358003857280617,20.41327105814143,-36.054701028827544,125.29693486590031,-126.54710252600296,102.6446395563771,4.314122137404638,5.381355932203392,18.352601156069372,-38.34901960784313,-23.4078431372549,-5.478431372549018,-3.0,-9.3688524590164,-9.462745098039214,14.100106095371927,144.31137176727762,20.608658648083196,855.0508446813184,60.58830231762309,3201.5689275829404,1
5.358003857280617,20.41327105814143,-36.054701028827544,125.29693486590031,-126.54710252600296,102.6446395563771,4.314122137404638,16.144067796610173,5.1387283236994294,17.43137254901961,7.4705882352941195,-10.458823529411763,-6.0,-3.1229508196721385,8.466666666666669,9.279149740046737,26.386169718657523,20.608658648083196,855.0508446813184,60.58830231762309,3201.5689275829404,1
6.674541947926712,20.863263005314888,-36.18406845268412,126.45258620689651,-126.78864784546806,102.4098890942699,4.314122137404638,16.144067796610173,5.1387283236994294,17.43137254901961,7.4705882352941195,-10.458823529411763,-6.0,-3.1229508196721385,8.466666666666669,9.279149740046737,26.386169718657523,21.240624468641908,882.0963861990869,61.16663922163184,3255.3729252111266,1
6.674541947926712,20.863263005314888,-36.18406845268412,126.45258620689651,-126.78864784546806,102.4098890942699,4.314122137404638,13.991525423728817,-0.7341040462427673,-30.380392156862744,-3.48627450980392,-7.470588235294116,-5.0,-12.491803278688531,-22.41176470588235,11.995806544562905,102.76729538943027,21.240624468641908,882.0963861990869,61.16663922163184,3255.3729252111266,1
6.674541947926712,20.863263005314888,-36.18406845268412,126.45258620689651,-126.78864784546806,102.4098890942699,4.314122137404638,4.305084745762715,9.543352601156077,14.443137254901963,-23.4078431372549,2.4901960784313744,65.0,-5.2049180327868925,2.4901960784313744,15.860590991090662,445.45245995617563,21.240624468641908,882.0963861990869,61.16663922163184,3255.3729252111266,1
6.950096432015429,21.33370913190532,-37.29662829785067,127.0,-126.95471025260031,101.17744916820705,4.604961832061122,4.305084745762715,9.543352601156077,14.443137254901963,-23.4078431372549,2.4901960784313744,65.0,-5.2049180327868925,2.4901960784313744,15.860590991090662,445.45245995617563,21.86014462059047,933.696238458004,61.876779143252,3244.4791181422097,1
6.950096432015429,21.33370913190532,-37.29662829785067,127.0,-126.95471025260031,101.17744916820705,4.604961832061122,9.686440677966104,3.6705202312138803,33.3686274509804,22.411764705882355,-10.458823529411763,78.0,-13.532786885245908,-5.478431372549018,22.075924356656177,604.4024825954014,21.86014462059047,933.696238458004,61.876779143252,3244.4791181422097,1
6.950096432015429,21.33370913190532,-37.29662829785067,127.0,-126.95471025260031,101.17744916820705,4.604961832061122,9.686440677966104,-5.138728323699414,-1.4941176470588218,-19.423529411764704,0.4980392156862763,-42.0,3.1229508196721234,12.450980392156865,11.72684831100054,189.80222161144079,21.86014462059047,933.696238458004,61.876779143252,3244.4791181422097,1
2.3881388621022177,20.45417941697538,-36.88265254150963,126.45258620689651,-126.96980683506686,100.82532347504623,5.089694656488575,9.686440677966104,-5.138728323699414,-1.4941176470588218,-19.423529411764704,0.4980392156862763,-42.0,3.1229508196721234,12.450980392156865,11.72684831100054,189.80222161144079,19.908323606862407,859.3481963053107,61.2631393884605,3254.7216646711586,1
2.3881388621022177,20.45417941697538,-36.88265254150963,126.45258620689651,-126.96980683506686,100.82532347504623,5.089694656488575,12.915254237288138,5.1387283236994294,11.454901960784316,-27.392156862745097,-9.462745098039214,-114.0,-5.2049180327868925,10.458823529411767,24.503441005594354,1356.204013506246,19.908323606862407,859.3481963053107,61.2631393884605,3254.7216646711586,1
2.3881388621022177,20.45417941697538,-36.88265254150963,126.45258620689651,-126.96980683506686,100.82532347504623,5.089694656488575,7.533898305084748,5.1387283236994294,22.411764705882355,33.3686274509804,3.4862745098039234,-58.0,-9.3688524590164,-14.44313725490196,19.218910376171152,345.2171770560538,19.908323606862407,859.3481963053107,61.2631393884605,3254.7216646711586,1
1.3471552555448407,19.799645675632167,-37.01201996536621,125.78352490421457,-127.0,101.06007393715345,5.671374045801542,7.533898305084748,5.1387283236994294,22.411764705882355,33.3686274509804,3.4862745098039234,-58.0,-9.3688524590164,-14.44313725490196,19.218910376171152,345.2171770560538,19.386273632181073,839.9143465394276,60.86506351507099,3234.871429022769,1
1.3471552555448407,19.799645675632167,-37.01201996536621,125.78352490421457,-127.0,101.06007393715345,5.671374045801542,11.83898305084746,6.606936416184979,32.372549019607845,8.466666666666669,6.4745098039215705,-16.0,-5.2049180327868925,-5.478431372549018,11.555374295320554,84.32710876433114,19.386273632181073,839.9143465394276,60.86506351507099,3234.871429022769,1
1.3471552555448407,19.799645675632167,-37.01201996536621,125.78352490421457,-127.0,101.06007393715345,5.671374045801542,9.686440677966104,9.543352601156077,27.3921568627451,-0.49803921568627274,1.4941176470588253,7.0,-5.2049180327868925,-6.474509803921567,8.411691855165104,69.95305286767076,19.386273632181073,839.9143465394276,60.86506351507099,3234.871429022769,1
-0.8878977820636456,19.53374134321149,-37.3483752673933,124.5062260536398,-126.90942050520059,101.99907578558228,6.156106870229053,9.686440677966104,9.543352601156077,27.3921568627451,-0.49803921568627274,1.4941176470588253,7.0,-5.2049180327868925,-6.474509803921567,8.411691855165104,69.95305286767076,19.256671464222812,830.3308255206067,60.46278088808153,3155.512446968554,1
-0.8878977820636456,19.53374134321149,-37.3483752673933,124.5062260536398,-126.90942050520059,101.99907578558228,6.156106870229053,12.915254237288138,-2.202312138728317,12.450980392156865,3.4862745098039234,7.4705882352941195,24.0,-4.163934426229515,4.482352941176472,8.896462110084668,53.55688788870185,19.256671464222812,830.3308255206067,60.46278088808153,3155.512446968554,1
-0.8878977820636456,19.53374134321149,-37.3483752673933,124.5062260536398,-126.90942050520059,101.99907578558228,6.156106870229053,13.991525423728817,-0.7341040462427673,-2.490196078431371,13.447058823529414,15.439215686274512,22.0,-8.327868852459023,3.4862745098039234,9.989530427558728,55.553900747121766,19.256671464222812,830.3308255206067,60.46278088808153,3155.512446968554,1
-1.0409836065573774,19.861008213883093,-36.98614648059489,123.5330459770114,-126.75845468053492,103.34889094269873,6.204580152671781,13.991525423728817,-0.7341040462427673,-2.490196078431371,13.447058823529414,15.439215686274512,22.0,-8.327868852459023,3.4862745098039234,9.989530427558728,55.553900747121766,19.29604610034512,826.7578321601259,60.12673355716313,3088.587931176053,1
-1.0409836065573774,19.861008213883093,-36.98614648059489,123.5330459770114,-126.75845468053492,103.34889094269873,6.204580152671781,12.915254237288138,3.6705202312138803,11.454901960784316,0.4980392156862763,-7.470588235294116,17.0,-3.1229508196721385,5.4784313725490215,7.701335759060986,31.690067669983552,19.29604610034512,826.7578321601259,60.12673355716313,3088.587931176053,1
-1.0409836065573774,19.861008213883093,-36.98614648059489,123.5330459770114,-126.75845468053492,103.34889094269873,6.204580152671781,15.067796610169495,15.416184971098273,7.4705882352941195,-0.49803921568627274,1.4941176470588253,28.0,-4.163934426229515,-1.4941176470588218,9.200597344074415,92.76431121147984,19.29604610034512,826.7578321601259,60.12673355716313,3088.587931176053,1
0.6123432979749275,20.126912546303775,-36.59804420902516,123.04645593869725,-126.72826151560179,104.22920517560077,6.398473282442808,15.067796610169495,15.416184971098273,7.4705882352941195,-0.49803921568627274,1.4941176470588253,28.0,-4.163934426229515,-1.4941176470588218,9.200597344074415,92.76431121147984,19.112433351101288,830.5253450438113,59.92380423134207,3056.176413488729,1
0.6123432979749275,20.126912546303775,-36.59804420902516,123.04645593869725,-126.72826151560179,104.22920517560077,6.398473282442808,15.067796610169495,2.202312138728331,0.4980392156862763,6.4745098039215705,10.458823529411767,2.0,-5.2049180327868925,1.4941176470588253,5.425064622220395,25.90227619311213,19.112433351101288,830.5253450438113,59.92380423134207,3056.176413488729,1
0.6123432979749275,20.126912546303775,-36.59804420902516,123.04645593869725,-126.72826151560179,104.22920517560077,6.398473282442808,15.067796610169495,21.28901734104047,26.39607843137255,-30.380392156862744,4.482352941176472,10.0,2.081967213114746,19.423529411764708,16.14014176318765,102.52115704022711,19.112433351101288,830.5253450438113,59.92380423134207,3056.176413488729,1
-1.0409836065573774,20.106458366886798,-36.33930936131201,122.37739463601531,-126.62258543833582,105.75508317929763,6.350000000000023,15.067796610169495,21.28901734104047,26.39607843137255,-30.380392156862744,4.482352941176472,10.0,2.081967213114746,19.423529411764708,16.14014176318765,102.52115704022711,19.16225044491873,813.2184662557888,59.60772078807137,3020.900329084746,1
-1.0409836065573774,20.106458366886798,-36.33930936131201,122.37739463601531,-126.62258543833582,105.75508317929763,6.350000000000023,11.83898305084746,12.479768786127176,-0.49803921568627274,-1.4941176470588218,3.4862745098039234,8.0,-2.0819672131147615,6.4745098039215705,5.794207528319998,21.744546688915772,19.16225044491873,813.2184662557888,59.60772078807137,3020.900329084746,1
-1.0409836065573774,20.106458366886798,-36.33930936131201,122.37739463601531,-126.62258543833582,105.75508317929763,6.350000000000023,8.610169491525426,9.543352601156077,21.415686274509806,6.4745098039215705,-10.458823529411763,-2.0,-7.286885245901646,-1.4941176470588218,8.41044307418564,38.37073506696048,19.16225044491873,813.2184662557888,59.60772078807137,3020.900329084746,1
-0.27555448408871763,19.983733290384947,-36.20994193745544,121.95162835249039,-126.5320059435364,107.39833641404809,6.204580152671781,8.610169491525426,9.543352601156077,21.415686274509806,6.4745098039215705,-10.458823529411763,-2.0,-7.286885245901646,-1.4941176470588218,8.41044307418564,38.37073506696048,18.823076570643035,809.9080130649368,59.381767860110266,3002.0630432915004,1
-0.27555448408871763,19.983733290384947,-36.20994193745544,121.95162835249039,-126.5320059435364,107.39833641404809,6.204580152671781,1.07627118644068,-19.820809248554905,-20.419607843137253,0.4980392156862763,-1.4941176470588218,-9.0,-10.409836065573778,-12.450980392156861,9.396207699826073,64.50650007675965,18.823076570643035,809.9080130649368,59.381767860110266,3002.0630432915004,1
-0.27555448408871763,19.983733290384947,-36.20994193745544,121.95162835249039,-126.5320059435364,107.39833641404809,6.204580152671781,12.915254237288138,-11.011560693641611,-23.4078431372549,-5.478431372549018,1.4941176470588253,-11.0,-5.2049180327868925,9.462745098039218,9.996858777327326,43.766887473819956,18.823076570643035,809.9080130649368,59.381767860110266,3002.0630432915004,1
1.2859209257473478,20.31100016105655,-35.92533360497097,121.82998084291182,-126.5320059435364,108.33733826247692,6.204580152671781,12.915254237288138,-11.011560693641611,-23.4078431372549,-5.478431372549018,1.4941176470588253,-11.0,-5.2049180327868925,9.462745098039218,9.996858777327326,43.766887473819956,19.174084897258293,818.1927231839577,59.35543820297978,2988.253210775951,1
1.2859209257473478,20.31100016105655,-35.92533360497097,121.82998084291182,-126.5320059435364,108.33733826247692,6.204580152671781,8.610169491525426,6.606936416184979,23.407843137254904,24.403921568627453,3.4862745098039234,-5.0,-8.327868852459023,-11.454901960784312,11.412239492080001,65.29624892318296,19.174084897258293,818.1927231839577,59.35543820297978,2988.253210775951,1
1.2859209257473478,20.31100016105655,-35.92533360497097,121.82998084291182,-126.5320059435364,108.33733826247692,6.204580152671781,5.381355932203392,-19.820809248554905,-38.34901960784313,-6.474509803921567,-3.48627450980392,-14.0,-12.491803278688531,-11.454901960784312,13.93233429272497,125.27494004412782,19.174084897258293,818.1927231839577,59.35543820297978,2988.253210775951,1
-0.3980231436837034,20.351908519890504,-36.054701028827544,121.46503831417624,-126.47161961367013,109.74584103512018,6.107633587786324,5.381355932203392,-19.820809248554905,-38.34901960784313,-6.474509803921567,-3.48627450980392,-14.0,-12.491803278688531,-11.454901960784312,13.93233429272497,125.27494004412782,18.934877564133917,813.9439904382393,59.29054928763143,2960.894737428638,1
-0.3980231436837034,20.351908519890504,-36.054701028827544,121.46503831417624,-126.47161961367013,109.74584103512018,6.107633587786324,13.991525423728817,3.6705202312138803,0.4980392156862763,4.482352941176472,3.4862745098039234,5.0,-6.24590163934427,-23.4078431372549,7.597807137276067,55.97916637467045,18.934877564133917,813.9439904382393,59.29054928763143,2960.894737428638,1
-0.3980231436837034,20.351908519890504,-36.054701028827544,121.46503831417624,-126.47161961367013,109.74584103512018,6.107633587786324,5.381355932203392,13.947976878612725,42.333333333333336,14.443137254901963,-13.44705882352941,22.0,-2.0819672131147615,5.4784313725490215,14.889157601030576,164.2707788267837,18.934877564133917,813.9439904382393,59.29054928763143,2960.894737428638,1
0.7960462873674059,20.372362699307477,-36.10644799837018,121.16091954022988,-126.3961367013373,110.80221811460262,6.010687022900811,5.381355932203392,13.947976878612725,42.333333333333336,14.443137254901963,-13.44705882352941,22.0,-2.0819672131147615,5.4784313725490215,14.889157601030576,164.2707788267837,19.091618995015022,822.4803844322329,59.21324341263585,2940.0262932565083,1
0.7960462873674059,20.372362699307477,-36.10644799837018,121.16091954022988,-126.3961367013373,110.80221811460262,6.010687022900811,7.533898305084748,-6.606936416184965,-9.462745098039214,-0.49803921568627274,-1.4941176470588218,11.0,-6.24590163934427,4.482352941176472,5.915498907821846,13.22756634615061,19.091618995015022,822.4803844322329,59.21324341263585,2940.0262932565083,1
0.7960462873674059,20.372362699307477,-36.10644799837018,121.16091954022988,-126.3961367013373,110.80221811460262,6.010687022900811,12.915254237288138,15.416184971098273,21.415686274509806,26.39607843137255,4.482352941176472,5.0,-7.286885245901646,3.4862745098039234,12.04983957639385,72.65747859137214,19.091618995015022,822.4803844322329,59.21324341263585,2940.0262932565083,1
1.071600771456123,20.699629569979084,-36.13232148314149,120.85680076628353,-126.33575037147102,111.50646950092424,5.962213740458083,12.915254237288138,15.416184971098273,21.415686274509806,26.39607843137255,4.482352941176472,5.0,-7.286885245901646,3.4862745098039234,12.04983957639385,72.65747859137214,19.301183941525565,833.2103343576805,59.229583939801365,2907.9773852553312,1
1.071600771456123,20.699629569979084,-36.13232148314149,120.85680076628353,-126.33575037147102,111.50646950092424,5.962213740458083,17.22033898305085,22.75722543352602,3.4862745098039234,-3.48627450980392,0.4980392156862763,16.0,12.491803278688515,59.266666666666666,16.90082782465327,354.0666749659885,19.301183941525565,833.2103343576805,59.229583939801365,2907.9773852553312,1
1.071600771456123,20.699629569979084,-36.13232148314149,120.85680076628353,-126.33575037147102,111.50646950092424,5.962213740458083,12.915254237288138,12.479768786127176,70.2235294117647,28.38823529411765,-10.458823529411763,-2.0,-5.2049180327868925,9.462745098039218,18.89165929869194,490.66396925759926,19.301183941525565,833.2103343576805,59.229583939801365,2907.9773852553312,1
0.8878977820636447,20.80190046706396,-35.9770805745136,120.55268199233717,-126.24517087667161,112.26940850277268,5.768320610687056,12.915254237288138,12.479768786127176,70.2235294117647,28.38823529411765,-10.458823529411763,-2.0,-5.2049180327868925,9.462745098039218,18.89165929869194,490.66396925759926,19.222292941213734,829.9078033814887,59.11055434463824,2888.9228102304805,1
0.8878977820636447,20.80190046706396,-35.9770805745136,120.55268199233717,-126.24517087667161,112.26940850277268,5.768320610687056,8.610169491525426,5.1387283236994294,38.34901960784314,21.415686274509806,3.4862745098039234,-6.0,-13.532786885245908,-7.470588235294116,13.000406665990218,137.833714645725,19.222292941213734,829.9078033814887,59.11055434463824,2888.9228102304805,1
0.8878977820636447,20.80190046706396,-35.9770805745136,120.55268199233717,-126.24517087667161,112.26940850277268,5.768320610687056,7.533898305084748,-13.94797687861271,-36.35686274509804,-21.415686274509802,4.482352941176472,9.0,-9.3688524590164,-1.4941176470588218,12.949968406319625,125.89208399796156,19.222292941213734,829.9078033814887,59.11055434463824,2888.9228102304805,1
0.6735776277724201,20.72008374939606,-36.08057451359886,120.24856321839081,-126.19988112927192,113.0910351201479,5.768320610687056,7.533898305084748,-13.94797687861271,-36.35686274509804,-21.415686274509802,4.482352941176472,9.0,-9.3688524590164,-1.4941176470588218,12.949968406319625,125.89208399796156,19.158078630255783,829.8408144041491,59.01640716046191,2871.0188707562093,1
0.6735776277724201,20.72008374939606,-36.08057451359886,120.24856321839081,-126.19988112927192,113.0910351201479,5.768320610687056,7.533898305084748,-3.6705202312138656,-2.490196078431371,-29.384313725490195,-7.470588235294116,4.0,-12.491803278688531,-12.450980392156861,9.936537530794961,76.124976817092,19.158078630255783,829.8408144041491,59.01640716046191,2871.0188707562093,1
0.6735776277724201,20.72008374939606,-36.08057451359886,120.24856321839081,-126.19988112927192,113.0910351201479,5.768320610687056,10.762711864406782,-5.138728323699414,-17.431372549019606,-26.396078431372548,-4.482352941176469,-3.0,-4.163934426229515,-4.482352941176469,9.482191434635102,70.0105559169809,19.158078630255783,829.8408144041491,59.01640716046191,2871.0188707562093,1
0.24493731918997064,20.65872121114513,-36.4945502699399,119.70114942528733,-126.09420505200595,114.03003696857674,5.671374045801542,10.762711864406782,-5.138728323699414,-17.431372549019606,-26.396078431372548,-4.482352941176469,-3.0,-4.163934426229515,-4.482352941176469,9.482191434635102,70.0105559169809,19.132736266758332,838.8348270149806,58.951473635457454,2830.585701921924,1
0.24493731918997064,20.65872121114513,-36.4945502699399,119.70114942528733,-126.09420505200595,114.03003696857674,5.671374045801542,6.45762711864407,-24.225433526011553,-42.33333333333333,-15.439215686274508,5.4784313725490215,3.0,-7.286885245901646,-5.478431372549018,13.712419706907895,182.4192218703282,19.132736266758332,838.8348270149806,58.951473635457454,2830.585701921924,1
0.24493731918997064,20.65872121114513,-36.4945502699399,119.70114942528733,-126.09420505200595,114.03003696857674,5.671374045801542,9.686440677966104,2.202312138728331,-18.427450980392155,-2.490196078431371,-1.4941176470588218,1.0,-8.327868852459023,-11.454901960784312,6.885411041977514,38.42554603860576,19.132736266758332,838.8348270149806,58.951473635457454,2830.585701921924,1
2.020732883317261,20.72008374939606,-36.416929815625956,119.64032567049799,-126.01872213967312,114.79297597042518,5.477480916030572,9.686440677966104,2.202312138728331,-18.427450980392155,-2.490196078431371,-1.4941176470588218,1.0,-8.327868852459023,-11.454901960784312,6.885411041977514,38.42554603860576,19.719248816113094,848.6263259499938,58.92577974517334,2826.2898092954965,1
2.020732883317261,20.72008374939606,-36.416929815625956,119.64032567049799,-126.01872213967312,114.79297597042518,5.477480916030572,5.381355932203392,6.606936416184979,29.3843137254902,-2.490196078431371,-10.458823529411763,-41.0,-13.532786885245908,-15.439215686274508,15.536703531655265,174.7184297953444,19.719248816113094,848.6263259499938,58.92577974517334,2826.2898092954965,1
2.020732883317261,20.72008374939606,-36.416929815625956,119.64032567049799,-126.01872213967312,114.79297597042518,5.477480916030572,11.83898305084746,2.202312138728331,-1.4941176470588218,-37.35294117647059,2.4901960784313744,1.0,6.245901639344254,29.3843137254902,11.50109568204638,199.13356318935874,19.719248816113094,848.6263259499938,58.92577974517334,2826.2898092954965,1
2.479990356798457,20.88371718473186,-36.70153814811042,119.57950191570876,-125.98852897473998,115.20378927911278,5.380534351145059,11.83898305084746,2.202312138728331,-1.4941176470588218,-37.35294117647059,2.4901960784313744,1.0,6.245901639344254,29.3843137254902,11.50109568204638,199.13356318935874,20.02174856321358,864.991828147804,59.05491908285035,2809.969710326029,1
2.479990356798457,20.88371718473186,-36.70153814811042,119.57950191570876,-125.98852897473998,115.20378927911278,5.380534351145059,18.29661016949153,-2.202312138728317,-20.419607843137253,-15.439215686274508,12.450980392156865,0.0,-10.409836065573778,-3.48627450980392,10.33810460064577,59.354334807158,20.02174856321358,864.991828147804,59.05491908285035,2809.969710326029,1
2.479990356798457,20.88371718473186,-36.70153814811042,119.57950191570876,-125.98852897473998,115.20378927911278,5.380534351145059,3.2288135593220364,-0.7341040462427673,-29.384313725490195,-9.462745098039214,3.4862745098039234,-22.0,-16.65573770491804,-20.419607843137253,13.171449560869178,109.51100118630727,20.02174856321358,864.991828147804,59.05491908285035,2809.969710326029,1
2.9086306653809064,20.94507972298279,-36.70153814811042,119.51867816091954,-125.98852897473998,115.20378927911278,5.33206106870233,3.2288135593220364,-0.7341040462427673,-29.384313725490195,-9.462745098039214,3.4862745098039234,-22.0,-16.65573770491804,-20.419607843137253,13.171449560869178,109.51100118630727,20.185082845491372,869.5685866694321,59.05509867733758,2803.949828501268,1
2.9086306653809064,20.94507972298279,-36.70153814811042,119.51867816091954,-125.98852897473998,115.20378927911278,5.33206106870233,11.83898305084746,11.011560693641627,3.4862745098039234,-6.474509803921567,-9.462745098039214,-6.0,-4.163934426229515,-0.49803921568627274,6.617005849771197,15.47731173947253,20.185082845491372,869.5685866694321,59.05509867733758,2803.949828501268,1
2.9086306653809064,20.94507972298279,-36.70153814811042,119.51867816091954,-125.98852897473998,115.20378927911278,5.33206106870233,13.991525423728817,-2.202312138728317,-18.427450980392155,-12.450980392156861,5.4784313725490215,-5.0,-4.163934426229515,6.4745098039215705,8.523643067213282,32.60881901608445,20.185082845491372,869.5685866694321,59.05509867733758,2803.949828501268,1
3.4291224686595947,20.65872121114513,-36.649791178567796,119.64032567049799,-126.04891530460623,115.32116451016638,5.477480916030572,13.991525423728817,-2.202312138728317,-18.427450980392155,-12.450980392156861,5.4784313725490215,-5.0,-4.163934426229515,6.4745098039215705,8.523643067213282,32.60881901608445,20.245878286124174,864.5739973818081,58.9829460200703,2823.4168592178403,1
3.4291224686595947,20.65872121114513,-36.649791178567796,119.64032567049799,-126.04891530460623,115.32116451016638,5.477480916030572,12.915254237288138,-11.011560693641611,-55.28235294117647,12.450980392156865,7.4705882352941195,12.0,1.0409836065573694,22.411764705882355,16.822935601499616,276.9021364324091,20.245878286124174,864.5739973818081,58.9829460200703,2823.4168592178403,1
3.4291224686595947,20.65872121114513,-36.649791178567796,119.64032567049799,-126.04891530460623,115.32116451016638,5.477480916030572,6.45762711864407,-5.138728323699414,-17.431372549019606,9.462745098039218,-0.49803921568627274,-20.0,-5.2049180327868925,-2.490196078431371,8.335453302038356,48.45797254502099,20.245878286124174,864.5739973818081,58.9829460200703,2823.4168592178403,1
2.173818707810993,20.433725237558406,-36.59804420902516,119.39703065134097,-126.04891530460623,115.731977818854,5.622900763358814,6.45762711864407,-5.138728323699414,-17.431372549019606,9.462745098039218,-0.49803921568627274,-20.0,-5.2049180327868925,-2.490196078431371,8.335453302038356,48.45797254502099,19.735196051464854,848.2173777875516,58.809600032641505,2818.4488636846204,1
2.173818707810993,20.433725237558406,-36.59804420902516,119.39703065134097,-126.04891530460623,115.731977818854,5.622900763358814,5.381355932203392,2.202312138728331,9.462745098039218,-8.466666666666665,-10.458823529411763,-14.0,-3.1229508196721385,-9.462745098039214,7.81969991034509,15.791266055640794,19.735196051464854,848.2173777875516,58.809600032641505,2818.4488636846204,1
2.173818707810993,20.433725237558406,-36.59804420902516,119.39703065134097,-126.04891530460623,115.731977818854,5.622900763358814,13.991525423728817,0.7341040462427819,29.3843137254902,12.450980392156865,5.4784313725490215,23.0,-7.105427357601002e-15,1.4941176470588253,10.816684075903314,120.00098013446363,19.735196051464854,848.2173777875516,58.809600032641505,2818.4488636846204,1
1.683944069431051,20.63826703172816,-36.830905571967,119.09291187739461,-126.00362555720653,116.14279112754161,5.671374045801542,13.991525423728817,0.7341040462427819,29.3843137254902,12.450980392156865,5.4784313725490215,23.0,-7.105427357601002e-15,1.4941176470588253,10.816684075903314,120.00098013446363,19.717705557708737,857.5609669353116,58.854028160363264,2787.0927193292264,1
1.683944069431051,20.63826703172816,-36.830905571967,119.09291187739461,-126.00362555720653,116.14279112754161,5.671374045801542,2.152542372881358,9.543352601156077,29.3843137254902,2.4901960784313744,12.450980392156865,9.0,-10.409836065573778,-8.466666666666665,10.487235987794538,71.65244027671504,19.717705557708737,857.5609669353116,58.854028160363264,2787.0927193292264,1
1.683944069431051,20.63826703172816,-36.830905571967,119.09291187739461,-126.00362555720653,116.14279112754161,5.671374045801542,8.610169491525426,0.7341040462427819,-7.470588235294116,13.447058823529414,0.4980392156862763,0.0,7.286885245901631,29.3843137254902,8.42889484795873,94.24592755857864,19.717705557708737,857.5609669353116,58.854028160363264,2787.0927193292264,1
2.9086306653809064,20.863263005314888,-37.167260873994096,119.09291187739461,-126.00362555720653,116.20147874306842,5.671374045801542,8.610169491525426,0.7341040462427819,-7.470588235294116,13.447058823529414,0.4980392156862763,0.0,7.286885245901631,29.3843137254902,8.42889484795873,94.24592755857864,20.31305151489663,882.6646011408336,59.041145252234536,2771.116092727492,1
2.9086306653809064,20.863263005314888,-37.167260873994096,119.09291187739461,-126.00362555720653,116.20147874306842,5.671374045801542,10.762711864406782,0.7341040462427819,-7.470588235294116,-11.454901960784312,2.4901960784313744,17.0,3.1229508196721234,15.439215686274512,8.55933358638825,37.232155819040976,20.31305151489663,882.6646011408336,59.041145252234536,2771.116092727492,1
2.9086306653809064,20.863263005314888,-37.167260873994096,119.09291187739461,-126.00362555720653,116.20147874306842,5.671374045801542,8.610169491525426,-2.202312138728317,-13.44705882352941,7.4705882352941195,2.4901960784313744,-1.0,-11.450819672131153,-13.44705882352941,7.514775407896151,26.14131717730789,20.31305151489663,882.6646011408336,59.041145252234536,2771.116092727492,1
2.633076181292189,21.129167337735566,-37.29662829785067,118.97126436781605,-125.95833580980684,116.43622920517564,5.574427480916086,8.610169491525426,-2.202312138728317,-13.44705882352941,7.4705882352941195,2.4901960784313744,-1.0,-11.450819672131153,-13.44705882352941,7.514775407896151,26.14131717730789,20.35295727229281,891.6767139184053,59.13235333446743,2750.8681537169696,1
2.633076181292189,21.129167337735566,-37.29662829785067,118.97126436781605,-125.95833580980684,116.43622920517564,5.574427480916086,9.686440677966104,13.947976878612725,61.25882352941177,28.38823529411765,14.443137254901963,0.0,-12.491803278688531,-5.478431372549018,18.21185603578097,369.7425037732711,20.35295727229281,891.6767139184053,59.13235333446743,2750.8681537169696,1
2.633076181292189,21.129167337735566,-37.29662829785067,118.97126436781605,-125.95833580980684,116.43622920517564,5.574427480916086,9.686440677966104,-3.6705202312138656,-17.431372549019606,0.4980392156862763,7.4705882352941195,5.0,-8.327868852459023,6.4745098039215705,7.31991744569507,24.976211127200376,20.35295727229281,891.6767139184053,59.13235333446743,2750.8681537169696,1
3.6740597878495658,21.190529875986492,-37.40012223693593,118.97126436781605,-125.95833580980684,116.26016635859523,5.574427480916086,9.686440677966104,-3.6705202312138656,-17.431372549019606,0.4980392156862763,7.4705882352941195,5.0,-8.327868852459023,6.4745098039215705,7.31991744569507,24.976211127200376,20.754903966923994,904.4632780618848,59.187305493579494,2746.2790251343436,1
3.6740597878495658,21.190529875986492,-37.40012223693593,118.97126436781605,-125.95833580980684,116.26016635859523,5.574427480916086,15.067796610169495,-9.543352601156062,-14.44313725490196,-22.41176470588235,-12.450980392156861,10.0,-8.327868852459023,-5.478431372549018,12.215416473659346,27.095401457853466,20.754903966923994,904.4632780618848,59.187305493579494,2746.2790251343436,1
3.6740597878495658,21.190529875986492,-37.40012223693593,118.97126436781605,-125.95833580980684,116.26016635859523,5.574427480916086,10.762711864406782,-6.606936416184965,23.407843137254904,11.454901960784316,0.4980392156862763,19.0,-8.327868852459023,10.458823529411767,11.314640622023504,50.63559540177226,20.754903966923994,904.4632780618848,59.187305493579494,2746.2790251343436,1
2.816779170684667,21.354163311322296,-37.425995721707245,118.72796934865892,-125.91304606240712,116.08410351201482,5.622900763358814,10.762711864406782,-6.606936416184965,23.407843137254904,11.454901960784316,0.4980392156862763,19.0,-8.327868852459023,10.458823529411767,11.314640622023504,50.63559540177226,20.532312734571402,903.0371062942562,59.16937612722948,2724.9954691436496,1
2.816779170684667,21.354163311322296,-37.425995721707245,118.72796934865892,-125.91304606240712,116.08410351201482,5.622900763358814,11.83898305084746,3.6705202312138803,-36.35686274509804,-37.35294117647059,-7.470588235294116,10.0,-6.24590163934427,-5.478431372549018,14.801778556352172,191.82727433826935,20.532312734571402,903.0371062942562,59.16937612722948,2724.9954691436496,1
2.816779170684667,21.354163311322296,-37.425995721707245,118.72796934865892,-125.91304606240712,116.08410351201482,5.622900763358814,7.533898305084748,-9.543352601156062,-11.454901960784312,15.439215686274512,5.4784313725490215,-12.0,-3.1229508196721385,-3.48627450980392,8.507378156915589,19.19080567503559,20.532312734571402,903.0371062942562,59.16937612722948,2724.9954691436496,1
2.633076181292189,21.272346593654394,-37.063766934908834,118.54549808429113,-125.86775631500743,116.20147874306842,5.574427480916086,7.533898305084748,-9.543352601156062,-11.454901960784312,15.439215686274512,5.4784313725490215,-12.0,-3.1229508196721385,-3.48627450980392,8.507378156915589,19.19080567503559,20.32306323661847,887.7273160858092,58.96053720428478,2725.117911402461,1
2.633076181292189,21.272346593654394,-37.063766934908834,118.54549808429113,-125.86775631500743,116.20147874306842,5.574427480916086,11.83898305084746,8.075144508670528,10.458823529411767,25.400000000000002,-0.49803921568627274,0.0,-10.409836065573778,-0.49803921568627274,8.39735819823451,72.09317764153359,20.32306323661847,887.7273160858092,58.96053720428478,2725.117911402461,1
2.633076181292189,21.272346593654394,-37.063766934908834,118.54549808429113,-125.86775631500743,116.20147874306842,5.574427480916086,7.533898305084748,8.075144508670528,-16.435294117647057,-14.44313725490196,1.4941176470588253,3.0,-11.450819672131153,-11.454901960784312,9.235914183284823,27.406034319265157,20.32306323661847,887.7273160858092,58.96053720428478,2725.117911402461,1
2.6024590163934427,21.026896440650688,-36.85677905673831,118.42385057471256,-125.83756315007429,116.37754158964883,5.5259541984733005,7.533898305084748,8.075144508670528,-16.435294117647057,-14.44313725490196,1.4941176470588253,3.0,-11.450819672131153,-11.454901960784312,9.235914183284823,27.406034319265157,20.162044837927482,874.5018754665823,58.76917535736718,2731.6565023749986,1
2.6024590163934427,21.026896440650688,-36.85677905673831,118.42385057471256,-125.83756315007429,116.37754158964883,5.5259541984733005,9.686440677966104,-6.606936416184965,-31.376470588235293,-1.4941176470588218,12.450980392156865,2.0,-9.3688524590164,1.4941176470588253,9.309739478459658,97.12267704950526,20.162044837927482,874.5018754665823,58.76917535736718,2731.6565023749986,1
2.6024590163934427,21.026896440650688,-36.85677905673831,118.42385057471256,-125.83756315007429,116.37754158964883,5.5259541984733005,12.915254237288138,0.7341040462427819,-8.466666666666665,7.4705882352941195,-7.470588235294116,-2.0,-9.3688524590164,-1.4941176470588218,6.240021440857631,19.02162366496288,20.162044837927482,874.5018754665823,58.76917535736718,2731.6565023749986,1
2.87801350048216,21.170075696569516,-36.70153814811042,118.42385057471256,-125.82246656760773,116.37754158964883,5.5259541984733005,12.915254237288138,0.7341040462427819,-8.466666666666665,7.4705882352941195,-7.470588235294116,-2.0,-9.3688524590164,-1.4941176470588218,6.240021440857631,19.02162366496288,20.2498757817207,875.0440228461478,58.76515480646416,2729.67656704722,1
2.87801350048216,21.170075696569516,-36.70153814811042,118.42385057471256,-125.82246656760773,116.37754158964883,5.5259541984733005,6.45762711864407,-5.138728323699414,-12.450980392156861,9.462745098039218,-1.4941176470588218,-13.0,-13.532786885245908,-18.427450980392155,9.995554555654557,29.61838648050534,20.2498757817207,875.0440228461478,58.76515480646416,2729.67656704722,1
2.87801350048216,21.170075696569516,-36.70153814811042,118.42385057471256,-125.82246656760773,116.37754158964883,5.5259541984733005,9.686440677966104,-16.884393063583808,-5.478431372549018,-22.41176470588235,-5.478431372549018,2.0,-7.286885245901646,-5.478431372549018,9.33809722637262,47.24784405568715,20.2498757817207,875.0440228461478,58.76515480646416,2729.67656704722,1
2.020732883317261,21.313254952488343,-36.908526026280946,118.1197318007662,-125.71679049034174,116.61229205175604,5.380534351145059,9.686440677966104,-16.884393063583808,-5.478431372549018,-22.41176470588235,-5.478431372549018,2.0,-7.286885245901646,-5.478431372549018,9.33809722637262,47.24784405568715,20.08083795402885,879.5773978966276,58.780504259845166,2701.6610638311695,1
2.020732883317261,21.313254952488343,-36.908526026280946,118.1197318007662,-125.71679049034174,116.61229205175604,5.380534351145059,16.144067796610173,6.606936416184979,13.447058823529414,6.4745098039215705,-6.474509803921567,-9.0,-7.286885245901646,1.4941176470588253,8.366010692141021,20.764926308102666,20.08083795402885,879.5773978966276,58.780504259845166,2701.6610638311695,1
2.020732883317261,21.313254952488343,-36.908526026280946,118.1197318007662,-125.71679049034174,116.61229205175604,5.380534351145059,8.610169491525426,5.1387283236994294,16.43529411764706,6.4745098039215705,3.4862745098039234,-2.0,-5.2049180327868925,-2.490196078431371,6.2300112947269595,21.64596424679949,20.08083795402885,879.5773978966276,58.780504259845166,2701.6610638311695,1
2.2656702025072324,21.435980028990198,-37.063766934908834,117.87643678160919,-125.62621099554235,116.84704251386324,5.186641221374089,8.610169491525426,5.1387283236994294,16.43529411764706,6.4745098039215705,3.4862745098039234,-2.0,-5.2049180327868925,-2.490196078431371,6.2300112947269595,21.64596424679949,20.255139055468756,889.4209665382543,58.79206124850274,2679.2795049970614,1
2.2656702025072324,21.435980028990198,-37.063766934908834,117.87643678160919,-125.62621099554235,116.84704251386324,5.186641221374089,7.533898305084748,0.7341040462427819,3.4862745098039234,-1.4941176470588218,4.482352941176472,2.0,-4.163934426229515,-1.4941176470588218,3.1735999403318855,4.9676232301855645,20.255139055468756,889.4209665382543,58.79206124850274,2679.2795049970614,1
2.2656702025072324,21.435980028990198,-37.063766934908834,117.87643678160919,-125.62621099554235,116.84704251386324,5.186641221374089,8.610169491525426,2.202312138728331,-13.44705882352941,0.4980392156862763,-6.474509803921567,-7.0,-8.327868852459023,-1.4941176470588218,6.006759496613607,19.130345522833018,20.255139055468756,889.4209665382543,58.79206124850274,2679.2795049970614,1
2.357521697203471,21.497342567241123,-37.27075481307936,117.63314176245206,-125.56582466567608,116.78835489833645,5.186641221374089,8.610169491525426,2.202312138728331,-13.44705882352941,0.4980392156862763,-6.474509803921567,-7.0,-8.327868852459023,-1.4941176470588218,6.006759496613607,19.130345522833018,20.37520635917465,898.4037186358989,58.800413047590844,2658.167609496631,1
2.357521697203471,21.497342567241123,-37.27075481307936,117.63314176245206,-125.56582466567608,116.78835489833645,5.186641221374089,10.762711864406782,-3.6705202312138656,-20.419607843137253,-0.49803921568627274,-2.490196078431371,-2.0,2.081967213114746,9.462745098039218,6.423223443003688,45.79056093683347,20.37520635917465,898.4037186358989,58.800413047590844,2658.167609496631,1
2.357521697203471,21.497342567241123,-37.27075481307936,117.63314176245206,-125.56582466567608,116.78835489833645,5.186641221374089,12.915254237288138,24.225433526011567,44.325490196078434,22.411764705882355,-2.490196078431371,0.0,-6.24590163934427,-15.439215686274508,16.006657008663833,207.79841370744595,20.37520635917465,898.4037186358989,58.800413047590844,2658.167609496631,1
1.5614754098360653,21.64052182315995,-37.167260873994096,117.26819923371647,-125.44505200594352,116.96441774491686,4.992748091603119,12.915254237288138,24.225433526011567,44.325490196078434,22.411764705882355,-2.490196078431371,0.0,-6.24590163934427,-15.439215686274508,16.006657008663833,207.79841370744595,20.12308603566337,893.5730707944281,58.69199397695684,2633.6487730997005,1
1.5614754098360653,21.64052182315995,-37.167260873994096,117.26819923371647,-125.44505200594352,116.96441774491686,4.992748091603119,9.686440677966104,2.202312138728331,-4.482352941176469,-0.49803921568627274,-2.490196078431371,2.0,-1.0409836065573845,10.458823529411767,4.1073935234947125,14.960443322363465,20.12308603566337,893.5730707944281,58.69199397695684,2633.6487730997005,1
1.5614754098360653,21.64052182315995,-37.167260873994096,117.26819923371647,-125.44505200594352,116.96441774491686,4.992748091603119,13.991525423728817,-2.202312138728317,-4.482352941176469,4.482352941176472,0.4980392156862763,-7.0,-5.2049180327868925,3.4862745098039234,5.168471900385896,16.512064097608295,20.12308603566337,893.5730707944281,58.69199397695684,2633.6487730997005,1
2.7555448408871746,21.251892414237417,-36.649791178567796,117.26819923371647,-125.44505200594352,117.02310536044365,4.992748091603119,13.991525423728817,-2.202312138728317,-4.482352941176469,4.482352941176472,0.4980392156862763,-7.0,-5.2049180327868925,3.4862745098039234,5.168471900385896,16.512064097608295,20.21907614456413,874.5833905402772,58.3899609421739,2659.2590298258947,1
2.7555448408871746,21.251892414237417,-36.649791178567796,117.26819923371647,-125.44505200594352,117.02310536044365,4.992748091603119,8.610169491525426,-5.138728323699414,-17.431372549019606,-10.458823529411763,-4.482352941176469,6.0,-2.0819672131147615,14.443137254901963,8.580818912856175,27.68113563250436,20.21907614456413,874.5833905402772,58.3899609421739,2659.2590298258947,1
2.7555448408871746,21.251892414237417,-36.649791178567796,117.26819923371647,-125.44505200594352,117.02310536044365,4.992748091603119,8.610169491525426,-2.202312138728317,-1.4941176470588218,-11.454901960784312,-1.4941176470588218,2.0,-11.450819672131153,0.4980392156862763,4.900559721621641,22.558597284207853,20.21907614456413,874.5833905402772,58.3899609421739,2659.2590298258947,1
2.969864995178399,21.026896440650688,-36.416929815625956,117.3290229885057,-125.42995542347697,117.31654343807766,4.847328244274877,8.610169491525426,-2.202312138728317,-1.4941176470588218,-11.454901960784312,-1.4941176470588218,2.0,-11.450819672131153,0.4980392156862763,4.900559721621641,22.558597284207853,20.13789708381835,862.8615275087463,58.25761641492745,2676.286587756451,1
2.969864995178399,21.026896440650688,-36.416929815625956,117.3290229885057,-125.42995542347697,117.31654343807766,4.847328244274877,10.762711864406782,12.479768786127176,20.419607843137257,4.482352941176472,-3.48627450980392,1.0,-12.491803278688531,-2.490196078431371,8.45158941272144,44.6568421140884,20.13789708381835,862.8615275087463,58.25761641492745,2676.286587756451,1
2.969864995178399,21.026896440650688,-36.416929815625956,117.3290229885057,-125.42995542347697,117.31654343807766,4.847328244274877,10.762711864406782,-12.47976878612716,-36.35686274509804,-6.474509803921567,-12.450980392156861,-10.0,-10.409836065573778,-7.470588235294116,13.300657236572288,91.32325233135121,20.13789708381835,862.8615275087463,58.25761641492745,2676.286587756451,1
4.072082931533269,20.863263005314888,-36.054701028827544,117.81561302681985,-125.47524517087666,117.60998151571167,4.65343511450385,10.762711864406782,-12.47976878612716,-36.35686274509804,-6.474509803921567,-12.450980392156861,-10.0,-10.409836065573778,-7.470588235294116,13.300657236572288,91.32325233135121,20.330015655225235,855.2928581772602,58.24452568698742,2719.230782443013,1
4.072082931533269,20.863263005314888,-36.054701028827544,117.81561302681985,-125.47524517087666,117.60998151571167,4.65343511450385,6.45762711864407,-3.6705202312138656,-18.427450980392155,3.4862745098039234,7.4705882352941195,-13.0,-10.409836065573778,-20.419607843137253,10.417738123007396,41.257049361159524,20.330015655225235,855.2928581772602,58.24452568698742,2719.230782443013,1
4.072082931533269,20.863263005314888,-36.054701028827544,117.81561302681985,-125.47524517087666,117.60998151571167,4.65343511450385,10.762711864406782,9.543352601156077,41.33725490196079,15.439215686274512,0.4980392156862763,6.0,-8.327868852459023,-5.478431372549018,12.17335931181156,157.73411527075936,20.330015655225235,855.2928581772602,58.24452568698742,2719.230782443013,1
5.511089681774349,20.699629569979084,-36.08057451359886,118.60632183908046,-125.61111441307577,117.66866913123847,4.5564885496183365,10.762711864406782,9.543352601156077,41.33725490196079,15.439215686274512,0.4980392156862763,6.0,-8.327868852459023,-5.478431372549018,12.17335931181156,157.73411527075936,20.763764588450766,864.0916417081729,58.462175307552805,2772.1321383440686,1
5.511089681774349,20.699629569979084,-36.08057451359886,118.60632183908046,-125.61111441307577,117.66866913123847,4.5564885496183365,10.762711864406782,-9.543352601156062,-0.49803921568627274,7.4705882352941195,-2.490196078431371,5.0,-3.1229508196721385,9.462745098039218,6.043822989085745,14.463478531755895,20.763764588450766,864.0916417081729,58.462175307552805,2772.1321383440686,1
5.511089681774349,20.699629569979084,-36.08057451359886,118.60632183908046,-125.61111441307577,117.66866913123847,4.5564885496183365,9.686440677966104,-2.202312138728317,1.4941176470588253,-6.474509803921567,3.4862745098039234,-12.0,3.1229508196721234,11.454901960784316,6.2401884447418965,18.34729608747614,20.763764588450766,864.0916417081729,58.462175307552805,2772.1321383440686,1
5.75602700096432,20.699629569979084,-36.20994193745544,119.39703065134097,-125.77717682020801,117.55129390018487,4.5564885496183365,9.686440677966104,-2.202312138728317,1.4941176470588253,-6.474509803921567,3.4862745098039234,-12.0,3.1229508196721234,11.454901960784316,6.2401884447418965,18.34729608747614,20.88853283613295,870.5255226401467,58.7688673862585,2816.9730831072943,1
5.75602700096432,20.699629569979084,-36.20994193745544,119.39703065134097,-125.77717682020801,117.55129390018487,4.5564885496183365,4.305084745762715,0.7341040462427819,7.4705882352941195,4.482352941176472,0.4980392156862763,-1.0,-7.286885245901646,-3.48627450980392,3.6579161174834915,7.775983844877454,20.88853283613295,870.5255226401467,58.7688673862585,2816.9730831072943,1
5.75602700096432,20.699629569979084,-36.20994193745544,119.39703065134097,-125.77717682020801,117.55129390018487,4.5564885496183365,3.2288135593220364,-0.7341040462427673,-14.44313725490196,-5.478431372549018,-2.490196078431371,15.0,-13.532786885245908,-15.439215686274508,8.793335610370946,40.52947699487419,20.88853283613295,870.5255226401467,58.7688673862585,2816.9730831072943,1
6.307135969141755,20.617812852311182,-36.33930936131201,120.18773946360147,-125.94323922734026,117.19916820702406,4.604961832061122,3.2288135593220364,-0.7341040462427673,-14.44313725490196,-5.478431372549018,-2.490196078431371,15.0,-13.532786885245908,-15.439215686274508,8.793335610370946,40.52947699487419,21.08808606092165,877.9380905059116,59.048287225741554,2865.315828079797,1
6.307135969141755,20.617812852311182,-36.33930936131201,120.18773946360147,-125.94323922734026,117.19916820702406,4.604961832061122,11.83898305084746,-6.606936416184965,-14.44313725490196,-5.478431372549018,-2.490196078431371,-7.0,-12.491803278688531,-11.454901960784312,8.975548676548453,17.201109255196304,21.08808606092165,877.9380905059116,59.048287225741554,2865.315828079797,1
6.307135969141755,20.617812852311182,-36.33930936131201,120.18773946360147,-125.94323922734026,117.19916820702406,4.604961832061122,15.067796610169495,9.543352601156077,7.4705882352941195,34.36470588235294,6.4745098039215705,5.0,-6.24590163934427,22.411764705882355,13.322327434765104,106.17132400084002,21.08808606092165,877.9380905059116,59.048287225741554,2865.315828079797,1
5.970347155255545,20.80190046706396,-36.75328511765305,120.73515325670496,-126.07910846953936,116.72966728280963,4.701908396946635,15.067796610169495,9.543352601156077,7.4705882352941195,34.36470588235294,6.4745098039215705,5.0,-6.24590163934427,22.411764705882355,13.322327434765104,106.17132400084002,21.17517757999085,892.9805193204913,59.43011294714065,2882.3426435857405,1
5.970347155255545,20.80190046706396,-36.75328511765305,120.73515325670496,-126.07910846953936,116.72966728280963,4.701908396946635,9.686440677966104,-2.202312138728317,-11.454901960784312,-17.431372549019606,-15.439215686274508,-2.0,-11.450819672131153,6.4745098039215705,9.517446561103196,32.07149380892111,21.17517757999085,892.9805193204913,59.43011294714065,2882.3426435857405,1
5.970347155255545,20.80190046706396,-36.75328511765305,120.73515325670496,-126.07910846953936,116.72966728280963,4.701908396946635,7.533898305084748,3.6705202312138803,12.450980392156865,-15.439215686274508,-7.470588235294116,-5.0,-17.696721311475414,-3.48627450980392,9.093524833912932,29.746975521058665,21.17517757999085,892.9805193204913,59.43011294714065,2882.3426435857405,1
6.766393442622951,21.088258978901617,-37.01201996536621,121.46503831417624,-126.21497771173847,116.08410351201482,4.701908396946635,7.533898305084748,3.6705202312138803,12.450980392156865,-15.439215686274508,-7.470588235294116,-5.0,-17.696721311475414,-3.48627450980392,9.093524833912932,29.746975521058665,21.62222412896359,916.2179543936302,59.85510575281469,2910.2293836501517,1
6.766393442622951,21.088258978901617,-37.01201996536621,121.46503831417624,-126.21497771173847,116.08410351201482,4.701908396946635,13.991525423728817,12.479768786127176,27.3921568627451,29.3843137254902,4.482352941176472,14.0,12.491803278688515,-0.49803921568627274,14.339995029205317,98.93951199304729,21.62222412896359,916.2179543936302,59.85510575281469,2910.2293836501517,1
6.766393442622951,21.088258978901617,-37.01201996536621,121.46503831417624,-126.21497771173847,116.08410351201482,4.701908396946635,15.067796610169495,3.6705202312138803,-7.470588235294116,-10.458823529411763,0.4980392156862763,5.0,15.614754098360649,26.39607843137255,10.522075043938592,69.40241871135407,21.62222412896359,916.2179543936302,59.85510575281469,2910.2293836501517,1
7.041947926711668,21.06780479948464,-37.21900784353672,122.07327586206895,-126.35084695393758,115.20378927911278,4.750381679389363,15.067796610169495,3.6705202312138803,-7.470588235294116,-10.458823529411763,0.4980392156862763,5.0,15.614754098360649,26.39607843137255,10.522075043938592,69.40241871135407,21.776253523244346,925.5182324656787,60.12002950169677,2943.868890884276,1
7.041947926711668,21.06780479948464,-37.21900784353672,122.07327586206895,-126.35084695393758,115.20378927911278,4.750381679389363,12.915254237288138,-8.075144508670514,-15.439215686274508,6.4745098039215705,-0.49803921568627274,1.0,-6.24590163934427,-1.4941176470588218,6.517772842280512,30.705889194500646,21.776253523244346,925.5182324656787,60.12002950169677,2943.868890884276,1
7.041947926711668,21.06780479948464,-37.21900784353672,122.07327586206895,-126.35084695393758,115.20378927911278,4.750381679389363,8.610169491525426,2.202312138728331,-2.490196078431371,-10.458823529411763,-2.490196078431371,0.0,-13.532786885245908,-11.454901960784312,6.40492327031981,26.705871869974665,21.776253523244346,925.5182324656787,60.12002950169677,2943.868890884276,1
6.674541947926712,20.863263005314888,-36.77915860242437,122.68151340996167,-126.48671619613671,114.49953789279115,4.847328244274877,8.610169491525426,2.202312138728331,-2.490196078431371,-10.458823529411763,-2.490196078431371,0.0,-13.532786885245908,-11.454901960784312,6.40492327031981,26.705871869974665,21.438987851888655,902.0321109280528,60.10797833923363,2999.914401600245,1
6.674541947926712,20.863263005314888,-36.77915860242437,122.68151340996167,-126.48671619613671,114.49953789279115,4.847328244274877,12.915254237288138,12.479768786127176,27.3921568627451,2.4901960784313744,2.4901960784313744,1.0,-3.1229508196721385,-0.49803921568627274,7.798570259797696,87.10573024096145,21.438987851888655,902.0321109280528,60.10797833923363,2999.914401600245,1
6.674541947926712,20.863263005314888,-36.77915860242437,122.68151340996167,-126.48671619613671,114.49953789279115,4.847328244274877,6.45762711864407,8.075144508670528,8.466666666666669,-19.423529411764704,-5.478431372549018,-3.0,-3.1229508196721385,-28.388235294117646,10.301573149010597,80.22078665402432,21.438987851888655,902.0321109280528,60.10797833923363,2999.914401600245,1
4.286403085824494,20.94507972298279,-36.85677905673831,122.98563218390802,-126.54710252600296,114.44085027726436,4.847328244274877,6.45762711864407,8.075144508670528,8.466666666666669,-19.423529411764704,-5.478431372549018,-3.0,-3.1229508196721385,-28.388235294117646,10.301573149010597,80.22078665402432,20.696087288515198,885.2213037513875,60.262496987876375,3013.939310536707,1
4.286403085824494,20.94507972298279,-36.85677905673831,122.98563218390802,-126.54710252600296,114.44085027726436,4.847328244274877,21.525423728813564,11.011560693641627,5.4784313725490215,15.439215686274512,21.415686274509806,0.0,-7.105427357601002e-15,-8.466666666666665,10.4171230528069,73.59505262855171,20.696087288515198,885.2213037513875,60.262496987876375,3013.939310536707,1
4.286403085824494,20.94507972298279,-36.85677905673831,122.98563218390802,-126.54710252600296,114.44085027726436,4.847328244274877,7.533898305084748,2.202312138728331,-3.48627450980392,0.4980392156862763,9.462745098039218,-11.0,-16.65573770491804,-13.44705882352941,8.035758224473742,32.31502968531338,20.696087288515198,885.2213037513875,60.262496987876375,3013.939310536707,1
1.8064127290260363,21.10871315831859,-37.08964041968015,122.68151340996167,-126.45652303120357,114.85166358595197,4.750381679389363,7.533898305084748,2.202312138728331,-3.48627450980392,0.4980392156862763,9.462745098039218,-11.0,-16.65573770491804,-13.44705882352941,8.035758224473742,32.31502968531338,20.00158876900826,878.7550185999004,60.29328899598679,2983.0654181796,1
1.8064127290260363,21.10871315831859,-37.08964041968015,122.68151340996167,-126.45652303120357,114.85166358595197,4.750381679389363,-4.305084745762709,-18.35260115606936,-68.23137254901961,-24.40392156862745,6.4745098039215705,17.0,-7.105427357601002e-15,-7.470588235294116,18.279759757336855,474.2793347439372,20.00158876900826,878.7550185999004,60.29328899598679,2983.0654181796,1
1.8064127290260363,21.10871315831859,-37.08964041968015,122.68151340996167,-126.45652303120357,114.85166358595197,4.750381679389363,13.991525423728817,-13.94797687861271,-46.317647058823525,-26.396078431372548,-5.478431372549018,26.0,4.163934426229501,12.450980392156865,18.593321747934123,192.153113181146,20.00158876900826,878.7550185999004,60.29328899598679,2983.0654181796,1
0.24493731918997064,21.29280077307137,-37.63298359987777,121.89080459770116,-126.30555720653788,115.32116451016638,4.701908396946635,13.991525423728817,-13.94797687861271,-46.317647058823525,-26.396078431372548,-5.478431372549018,26.0,4.163934426229501,12.450980392156865,18.593321747934123,192.153113181146,19.723573897379705,891.6662521819472,60.272196323550105,2914.390057935823,1
0.24493731918997064,21.29280077307137,-37.63298359987777,121.89080459770116,-126.30555720653788,115.32116451016638,4.701908396946635,4.305084745762715,-9.543352601156062,-4.482352941176469,-4.482352941176469,-8.466666666666665,25.0,-11.450819672131153,-22.41176470588235,11.267799284243987,66.31125949665822,19.723573897379705,891.6662521819472,60.272196323550105,2914.390057935823,1
0.24493731918997064,21.29280077307137,-37.63298359987777,121.89080459770116,-126.30555720653788,115.32116451016638,4.701908396946635,8.610169491525426,-12.47976878612716,-61.258823529411764,-29.384313725490195,-2.490196078431371,9.0,-4.163934426229515,-17.431372549019606,18.10232232327938,376.11436976344703,19.723573897379705,891.6662521819472,60.272196323550105,2914.390057935823,1
-4.072082931533269,22.31550974392014,-39.15951920138535,119.94444444444446,-125.86775631500743,116.02541589648801,4.604961832061122,8.610169491525426,-12.47976878612716,-61.258823529411764,-29.384313725490195,-2.490196078431371,9.0,-4.163934426229515,-17.431372549019606,18.10232232327938,376.11436976344703,21.849037292279586,951.1020691704534,60.473157796583315,2723.555615314845,1
-4.072082931533269,22.31550974392014,-39.15951920138535,119.94444444444446,-125.86775631500743,116.02541589648801,4.604961832061122,27.98305084745763,27.16184971098267,98.11372549019609,60.26274509803922,-7.470588235294116,64.0,17.6967213114754,41.33725490196079,43.00324194942574,879.7486460100627,21.849037292279586,951.1020691704534,60.473157796583315,2723.555615314845,1
-4.072082931533269,22.31550974392014,-39.15951920138535,119.94444444444446,-125.86775631500743,116.02541589648801,4.604961832061122,-5.3813559322033875,-34.5028901734104,-48.30980392156863,18.42745098039216,3.4862745098039234,-47.0,-11.450819672131153,13.447058823529414,22.750706751629885,326.45114815688834,21.849037292279586,951.1020691704534,60.473157796583315,2723.555615314845,1
-13.471552555448408,22.43823482042199,-41.17765101354793,114.89607279693485,-124.84118870728082,117.78604436229207,4.604961832061122,-5.3813559322033875,-34.5028901734104,-48.30980392156863,18.42745098039216,3.4862745098039234,-47.0,-11.450819672131153,13.447058823529414,22.750706751629885,326.45114815688834,25.695812796472776,1017.35360859847,59.50398621030158,2389.003872130605,1
-13.471552555448408,22.43823482042199,-41.17765101354793,114.89607279693485,-124.84118870728082,117.78604436229207,4.604961832061122,9.686440677966104,-0.7341040462427673,42.333333333333336,38.34901960784314,13.447058823529414,44.0,-5.2049180327868925,11.454901960784316,20.651222060310744,317.21000267726635,25.695812796472776,1017.35360859847,59.50398621030158,2389.003872130605,1
-13.471552555448408,22.43823482042199,-41.17765101354793,114.89607279693485,-124.84118870728082,117.78604436229207,4.604961832061122,9.686440677966104,-5.138728323699414,-2.490196078431371,42.333333333333336,12.450980392156865,29.0,-2.0819672131147615,6.4745098039215705,13.707019477827927,208.2525090130994,25.695812796472776,1017.35360859847,59.50398621030158,2389.003872130605,1
-28.412729026036647,24.606377838621377,-42.54894570642763,105.95498084291182,-122.68237741456167,121.65942698706102,3.683969465648886,9.686440677966104,-5.138728323699414,-2.490196078431371,42.333333333333336,12.450980392156865,29.0,-2.0819672131147615,6.4745098039215705,13.707019477827927,208.2525090130994,31.85601752369522,1253.4492992002008,57.70343479598694,1826.6427073615923,1
-28.412729026036647,24.606377838621377,-42.54894570642763,105.95498084291182,-122.68237741456167,121.65942698706102,3.683969465648886,8.610169491525426,-2.202312138728317,-20.419607843137253,31.376470588235296,19.423529411764708,-20.0,-11.450819672131153,2.4901960784313744,14.49663815299419,101.97202700610102,31.85601752369522,1253.4492992002008,57.70343479598694,1826.6427073615923,1
-28.412729026036647,24.606377838621377,-42.54894570642763,105.95498084291182,-122.68237741456167,121.65942698706102,3.683969465648886,22.601694915254242,25.693641618497118,43.32941176470588,26.39607843137255,-10.458823529411763,-38.0,-18.737704918032794,1.4941176470588253,23.338934103041645,184.89498790307672,31.85601752369522,1253.4492992002008,57.70343479598694,1826.6427073615923,1
-35.607762777242044,27.756321468835583,-43.58388509728023,94.58093869731795,-119.24035661218426,127.00000000000003,0.5816793893130239,22.601694915254242,25.693641618497118,43.32941176470588,26.39607843137255,-10.458823529411763,-38.0,-18.737704918032794,1.4941176470588253,23.338934103041645,184.89498790307672,35.64932311445262,1528.0084620840514,55.30704842114458,1219.456785671794,1
-35.607762777242044,27.756321468835583,-43.58388509728023,94.58093869731795,-119.24035661218426,127.00000000000003,0.5816793893130239,18.29661016949153,33.03468208092487,36.35686274509804,-28.388235294117646,2.4901960784313744,-10.0,-12.491803278688531,11.454901960784316,19.064161450942038,148.52750366217106,35.64932311445262,1528.0084620840514,55.30704842114458,1219.456785671794,1
-35.607762777242044,27.756321468835583,-43.58388509728023,94.58093869731795,-119.24035661218426,127.00000000000003,0.5816793893130239,11.83898305084746,25.693641618497118,58.27058823529412,17.43137254901961,-7.470588235294116,15.0,1.0409836065573694,-7.470588235294116,18.027093191350488,319.64760773180035,35.64932311445262,1528.0084620840514,55.30704842114458,1219.456785671794,1
-1.1634522661523627,33.07440811724918,-50.44035856167872,87.58620689655163,-115.97949479940564,124.12430683918672,-4.314122137404524,11.83898305084746,25.693641618497118,58.27058823529412,17.43137254901961,-7.470588235294116,15.0,1.0409836065573694,-7.470588235294116,18.027093191350488,319.64760773180035,28.22607298169342,1762.526805187858,57.03365785849318,775.4877482518207,1
-1.1634522661523627,33.07440811724918,-50.44035856167872,87.58620689655163,-115.97949479940564,124.12430683918672,-4.314122137404524,-1.0762711864406764,-16.884393063583808,-85.16470588235293,-74.2078431372549,-16.435294117647057,-18.0,-8.327868852459023,-3.48627450980392,27.94783134369279,1067.5783410992174,28.22607298169342,1762.526805187858,57.03365785849318,775.4877482518207,1
-1.1634522661523627,33.07440811724918,-50.44035856167872,87.58620689655163,-115.97949479940564,124.12430683918672,-4.314122137404524,11.83898305084746,49.184971098265905,114.05098039215687,67.23529411764706,-10.458823529411763,2.0,-5.2049180327868925,5.4784313725490215,33.181550199208125,1635.700426826393,28.22607298169342,1762.526805187858,57.03365785849318,775.4877482518207,1
37.93466730954677,39.865195683684995,-47.206172965264344,87.95114942528733,-113.86597325408619,109.68715341959337,-9.937022900763338,11.83898305084746,49.184971098265905,114.05098039215687,67.23529411764706,-10.458823529411763,2.0,-5.2049180327868925,5.4784313725490215,33.181550199208125,1635.700426826393,41.668678652832035,2472.3521434842482,58.34083935807888,671.0503335693351,1
37.93466730954677,39.865195683684995,-47.206172965264344,87.95114942528733,-113.86597325408619,109.68715341959337,-9.937022900763338,9.686440677966104,-0.7341040462427673,-7.470588235294116,-66.2392156862745,-21.415686274509802,-40.0,-23.94262295081968,-10.458823529411763,22.49343517506484,461.63431703807754,41.668678652832035,2472.3521434842482,58.34083935807888,671.0503335693351,1
37.93466730954677,39.865195683684995,-47.206172965264344,87.95114942528733,-113.86597325408619,109.68715341959337,-9.937022900763338,16.144067796610173,6.606936416184979,9.462745098039218,-6.474509803921567,7.4705882352941195,29.0,8.327868852459009,8.466666666666669,11.494172858646966,59.523544404923186,41.668678652832035,2472.3521434842482,58.34083935807888,671.0503335693351,1
25.289778206364513,47.39233370913193,-49.14668432311297,90.32327586206895,-112.7790193164933,94.78049907578561,-13.427099236641197,16.144067796610173,6.606936416184979,9.462745098039218,-6.474509803921567,7.4705882352941195,29.0,8.327868852459009,8.466666666666669,11.494172858646966,59.523544404923186,40.60959874620314,2558.1819860475543,62.28743129810462,590.2758718302704,1
25.289778206364513,47.39233370913193,-49.14668432311297,90.32327586206895,-112.7790193164933,94.78049907578561,-13.427099236641197,13.991525423728817,2.202312138728331,13.447058823529414,39.345098039215685,-20.419607843137253,-11.0,-1.0409836065573845,-2.490196078431371,12.992097744166031,160.62305295030714,40.60959874620314,2558.1819860475543,62.28743129810462,590.2758718302704,1
25.289778206364513,47.39233370913193,-49.14668432311297,90.32327586206895,-112.7790193164933,94.78049907578561,-13.427099236641197,5.381355932203392,-18.35260115606936,-38.34901960784313,40.34117647058824,16.43529411764706,-7.0,-24.983606557377055,-10.458823529411763,20.1627346713925,180.60490118738107,40.60959874620314,2558.1819860475543,62.28743129810462,590.2758718302704,1
-58.35631629701061,56.86261877919152,-53.77803809717837,75.48227969348659,-106.69509658246656,93.48937153419595,-20.01946564885492,5.381355932203392,-18.35260115606936,-38.34901960784313,40.34117647058824,16.43529411764706,-7.0,-24.983606557377055,-10.458823529411763,20.1627346713925,180.60490118738107,56.33232439112683,4256.286430900625,62.040978856618814,137.88008563634872,1
-58.35631629701061,56.86261877919152,-53.77803809717837,75.48227969348659,-106.69509658246656,93.48937153419595,-20.01946564885492,18.29661016949153,12.479768786127176,15.439215686274512,1.4941176470588253,15.439215686274512,-20.0,-51.00819672131148,4.482352941176472,17.32993470471431,226.97089255705563,56.33232439112683,4256.286430900625,62.040978856618814,137.88008563634872,1
-58.35631629701061,56.86261877919152,-53.77803809717837,75.48227969348659,-106.69509658246656,93.48937153419595,-20.01946564885492,11.83898305084746,0.7341040462427819,-14.44313725490196,5.4784313725490215,-2.490196078431371,-11.0,-16.65573770491804,-15.439215686274508,9.759975649270643,37.17784444473582,56.33232439112683,4256.286430900625,62.040978856618814,137.88008563634872,1
-101.46528447444553,67.4987920760187,-62.10930019354181,51.63936781609186,-97.30502228826151,96.36506469500927,-27.62977099236639,11.83898305084746,0.7341040462427819,-14.44313725490196,5.4784313725490215,-2.490196078431371,-11.0,-16.65573770491804,-15.439215686274508,9.759975649270643,37.17784444473582,77.02445891466868,7816.001707504131,60.4158200285508,65.03124076600251,1
-101.46528447444553,67.4987920760187,-62.10930019354181,51.63936781609186,-97.30502228826151,96.36506469500927,-27.62977099236639,1.07627118644068,-5.138728323699414,1.4941176470588253,-23.4078431372549,14.443137254901963,-5.0,-12.491803278688531,-29.384313725490195,11.554526819191814,108.9649903207394,77.02445891466868,7816.001707504131,60.4158200285508,65.03124076600251,1
-101.46528447444553,67.4987920760187,-62.10930019354181,51.63936781609186,-97.30502228826151,96.36506469500927,-27.62977099236639,5.381355932203392,-13.94797687861271,-36.35686274509804,-39.345098039215685,-9.462745098039214,-12.0,28.10655737704917,13.447058823529414,19.755956861718452,167.9037300376295,77.02445891466868,7816.001707504131,60.4158200285508,65.03124076600251,1
-81.47227579556413,83.00306007408602,-69.6384842619945,31.324233716475078,-87.37147102526002,88.91173752310539,-35.530916030534286,5.381355932203392,-13.94797687861271,-36.35686274509804,-39.345098039215685,-9.462745098039214,-12.0,28.10655737704917,13.447058823529414,19.755956861718452,167.9037300376295,78.03794004388156,8415.269298132975,61.321926017518535,719.5491292003469,1
-81.47227579556413,83.00306007408602,-69.6384842619945,31.324233716475078,-87.37147102526002,88.91173752310539,-35.530916030534286,10.762711864406782,3.6705202312138803,-6.474509803921567,77.19607843137256,-1.4941176470588218,-5.0,-5.2049180327868925,-5.478431372549018,14.41016092291369,650.5110506869365,78.03794004388156,8415.269298132975,61.321926017518535,719.5491292003469,1
-81.47227579556413,83.00306007408602,-69.6384842619945,31.324233716475078,-87.37147102526002,88.91173752310539,-35.530916030534286,4.305084745762715,-8.075144508670514,-10.458823529411763,16.43529411764706,4.482352941176472,-12.0,-35.39344262295083,26.39607843137255,14.693277612123987,121.3783664442938,78.03794004388156,8415.269298132975,61.321926017518535,719.5491292003469,1
-83.8910318225651,97.8118859719762,-75.20128348782724,11.374042145593876,-75.74710252600296,76.52865064695011,-43.96526717557248,4.305084745762715,-8.075144508670514,-10.458823529411763,16.43529411764706,4.482352941176472,-12.0,-35.39344262295083,26.39607843137255,14.693277612123987,121.3783664442938,85.63473376078952,10504.169811282929,61.46240386846577,2009.4428212349944,1
-83.8910318225651,97.8118859719762,-75.20128348782724,11.374042145593876,-75.74710252600296,76.52865064695011,-43.96526717557248,16.144067796610173,-2.202312138728317,-9.462745098039214,-63.25098039215686,2.4901960784313744,24.0,27.065573770491795,16.43529411764706,20.1313961740131,385.484503797913,85.63473376078952,10504.169811282929,61.46240386846577,2009.4428212349944,1
-83.8910318225651,97.8118859719762,-75.20128348782724,11.374042145593876,-75.74710252600296,76.52865064695011,-43.96526717557248,13.991525423728817,3.6705202312138803,9.462745098039218,-35.36078431372549,-10.458823529411763,19.0,16.655737704918025,0.4980392156862763,13.637271939590434,115.63017972327451,85.63473376078952,10504.169811282929,61.46240386846577,2009.4428212349944,1
-119.4681774349084,113.1525205347077,-83.37730467556281,-12.712164750957868,-60.36368499257057,65.90619223659891,-52.35114503816794,13.991525423728817,3.6705202312138803,9.462745098039218,-35.36078431372549,-10.458823529411763,19.0,16.655737704918025,0.4980392156862763,13.637271939590434,115.63017972327451,105.33266754839298,15673.152069597021,69.74732998707613,2661.398424998153,1
-119.4681774349084,113.1525205347077,-83.37730467556281,-12.712164750957868,-60.36368499257057,65.90619223659891,-52.35114503816794,4.305084745762715,0.7341040462427819,17.43137254901961,14.443137254901963,-4.482352941176469,-19.0,-20.81967213114755,-5.478431372549018,10.836769380100014,62.37264388389415,105.33266754839298,15673.152069597021,69.74732998707613,2661.398424998153,1
-119.4681774349084,113.1525205347077,-83.37730467556281,-12.712164750957868,-60.36368499257057,65.90619223659891,-52.35114503816794,15.067796610169495,-0.7341040462427673,6.4745098039215705,-15.439215686274508,11.454901960784316,6.0,-10.409836065573778,-0.49803921568627274,8.259800423581588,33.98559232128576,105.33266754839298,15673.152069597021,69.74732998707613,2661.398424998153,1
-127.0,123.42051860202935,-95.27910767036772,-36.9808429118774,-43.07809806835067,52.40804066543441,-57.198473282442706,15.067796610169495,-0.7341040462427673,6.4745098039215705,-15.439215686274508,11.454901960784316,6.0,-10.409836065573778,-0.49803921568627274,8.259800423581588,33.98559232128576,115.23320875746568,18591.029613130602,85.22682306142482,1943.740702749054,1
-127.0,123.42051860202935,-95.27910767036772,-36.9808429118774,-43.07809806835067,52.40804066543441,-57.198473282442706,7.533898305084748,0.7341040462427819,5.4784313725490215,-25.4,-10.458823529411763,8.0,16.655737704918025,5.4784313725490215,9.967428291344419,59.78407531416963,115.23320875746568,18591.029613130602,85.22682306142482,1943.740702749054,1
-127.0,123.42051860202935,-95.27910767036772,-36.9808429118774,-43.07809806835067,52.40804066543441,-57.198473282442706,16.144067796610173,-0.7341040462427673,-1.4941176470588218,-24.40392156862745,-2.490196078431371,-7.0,-43.72131147540984,-6.474509803921567,12.80777855203775,222.1876440826912,115.23320875746568,18591.029613130602,85.22682306142482,1943.740702749054,1
-121.1215043394407,122.50008052826546,-105.21452582255272,-59.54645593869736,-25.71702823179791,37.44269870609983,-56.42290076335871,16.144067796610173,-0.7341040462427673,-1.4941176470588218,-24.40392156862745,-2.490196078431371,-7.0,-43.72131147540984,-6.474509803921567,12.80777855203775,222.1876440826912,116.27870356341963,18576.40842074963,95.75368742983852,1057.9203095608596,1
-121.1215043394407,122.50008052826546,-105.21452582255272,-59.54645593869736,-25.71702823179791,37.44269870609983,-56.42290076335871,2.152542372881358,-8.075144508670514,-25.4,4.482352941176472,4.482352941176472,-13.0,-10.409836065573778,-3.48627450980392,8.936062917410315,57.98248663428732,116.27870356341963,18576.40842074963,95.75368742983852,1057.9203095608596,1
-121.1215043394407,122.50008052826546,-105.21452582255272,-59.54645593869736,-25.71702823179791,37.44269870609983,-56.42290076335871,25.830508474576273,-3.6705202312138656,-8.466666666666665,-13.44705882352941,-25.4,-16.0,-3.1229508196721385,-6.474509803921567,12.801526852447491,82.14215760892941,116.27870356341963,18576.40842074963,95.75368742983852,1057.9203095608596,1
-106.30279652844744,123.66596875503305,-115.17581745950902,-78.76676245210729,-9.805230312035654,19.42560073937156,-50.12137404580153,25.830508474576273,-3.6705202312138656,-8.466666666666665,-13.44705882352941,-25.4,-16.0,-3.1229508196721385,-6.474509803921567,12.801526852447491,82.14215760892941,115.04819424766316,18334.9603914341,105.86951622221646,568.9401136975971,1
-106.30279652844744,123.66596875503305,-115.17581745950902,-78.76676245210729,-9.805230312035654,19.42560073937156,-50.12137404580153,1.7763568394002505e-15,0.7341040462427819,-0.49803921568627274,18.42745098039216,-5.478431372549018,17.0,37.475409836065566,-9.462745098039214,11.134522568621877,165.92860803884318,115.04819424766316,18334.9603914341,105.86951622221646,568.9401136975971,1
-106.30279652844744,123.66596875503305,-115.17581745950902,-78.76676245210729,-9.805230312035654,19.42560073937156,-50.12137404580153,29.059322033898308,18.352601156069372,2.4901960784313744,-1.4941176470588218,49.30588235294118,15.0,33.311475409836056,10.458823529411767,19.93405227595586,269.4107896275846,115.04819424766316,18334.9603914341,105.86951622221646,568.9401136975971,1
-85.4831243972999,126.10001610565311,-123.3777121320159,-95.37164750957857,5.291352154531953,-4.16682070240293,-38.53625954198469,29.059322033898308,18.352601156069372,2.4901960784313744,-1.4941176470588218,49.30588235294118,15.0,33.311475409836056,10.458823529411767,19.93405227595586,269.4107896275846,111.65361754498964,18073.76033521745,114.94979191574919,289.3305385228729,1
-85.4831243972999,126.10001610565311,-123.3777121320159,-95.37164750957857,5.291352154531953,-4.16682070240293,-38.53625954198469,-8.610169491525422,-5.138728323699414,5.4784313725490215,1.4941176470588253,-1.4941176470588218,14.0,-67.6639344262295,-10.458823529411763,14.292290304691594,483.5225781822332,111.65361754498964,18073.76033521745,114.94979191574919,289.3305385228729,1
-85.4831243972999,126.10001610565311,-123.3777121320159,-95.37164750957857,5.291352154531953,-4.16682070240293,-38.53625954198469,-5.3813559322033875,6.606936416184979,14.443137254901963,30.380392156862747,18.42745098039216,-19.0,-89.52459016393443,-32.372549019607845,27.017051490510937,732.5742279428595,111.65361754498964,18073.76033521745,114.94979191574919,289.3305385228729,1
-86.18731918997108,127.00000000000003,-127.0,-109.05699233716484,20.72005943536405,-27.583179297597013,-23.703435114503748,-5.3813559322033875,6.606936416184979,14.443137254901963,30.380392156862747,18.42745098039216,-19.0,-89.52459016393443,-32.372549019607845,27.017051490510937,732.5742279428595,113.3957730633237,18605.084663051326,121.01899744572161,107.3171746628539,1
-86.18731918997108,127.00000000000003,-127.0,-109.05699233716484,20.72005943536405,-27.583179297597013,-23.703435114503748,6.45762711864407,3.6705202312138803,-6.474509803921567,-11.454901960784312,-8.466666666666665,-22.0,-17.696721311475414,4.482352941176472,10.087912504235298,43.3042529811922,113.3957730633237,18605.084663051326,121.01899744572161,107.3171746628539,1
-86.18731918997108,127.00000000000003,-127.0,-109.05699233716484,20.72005943536405,-27.583179297597013,-23.703435114503748,4.305084745762715,-8.075144508670514,-16.435294117647057,-31.376470588235293,-27.392156862745097,-3.0,-7.105427357601002e-15,43.32941176470588,16.73919532347082,247.64377338032506,113.3957730633237,18605.084663051326,121.01899744572161,107.3171746628539,1
-87.35077145612344,125.71138669673059,-126.89650606091475,-118.97126436781616,36.14876671619614,-49.356284658040636,-6.592366412213721,4.305084745762715,-8.075144508670514,-16.435294117647057,-31.376470588235293,-27.392156862745097,-3.0,-7.105427357601002e-15,43.32941176470588,16.73919532347082,247.64377338032506,113.31955473792293,18461.682640940402,123.8597190418205,18.273868801687197,1
-87.35077145612344,125.71138669673059,-126.89650606091475,-118.97126436781616,36.14876671619614,-49.356284658040636,-6.592366412213721,2.152542372881358,-3.6705202312138656,4.482352941176472,5.4784313725490215,-10.458823529411763,3.0,-57.25409836065574,-46.317647058823525,16.60180198333897,486.4279172360835,113.31955473792293,18461.682640940402,123.8597190418205,18.273868801687197,1
-87.35077145612344,125.71138669673059,-126.89650606091475,-118.97126436781616,36.14876671619614,-49.356284658040636,-6.592366412213721,9.686440677966104,-2.202312138728317,-1.4941176470588218,5.4784313725490215,12.450980392156865,42.0,69.74590163934425,11.454901960784316,19.31413572857346,580.1955264598862,113.31955473792293,18461.682640940402,123.8597190418205,18.273868801687197,1
-99.41393442622952,122.13190529875989,-125.7839462157482,-125.0536398467433,52.28701337295692,-65.90619223659886,11.827480916030595,9.686440677966104,-2.202312138728317,-1.4941176470588218,5.4784313725490215,12.450980392156865,42.0,69.74590163934425,11.454901960784316,19.31413572857346,580.1955264598862,115.77659531357921,18540.03434223228,124.32316378708379,3.7345471701409596,1
-99.41393442622952,122.13190529875989,-125.7839462157482,-125.0536398467433,52.28701337295692,-65.90619223659886,11.827480916030595,24.754237288135595,-2.202312138728317,-3.48627450980392,0.4980392156862763,8.466666666666669,16.0,-5.2049180327868925,-7.470588235294116,8.510379510887724,65.88534641298169,115.77659531357921,18540.03434223228,124.32316378708379,3.7345471701409596,1
-99.41393442622952,122.13190529875989,-125.7839462157482,-125.0536398467433,52.28701337295692,-65.90619223659886,11.827480916030595,12.915254237288138,-0.7341040462427673,-7.470588235294116,-12.450980392156861,16.43529411764706,17.0,-27.06557377049181,-2.490196078431371,12.070248859694015,72.93104208009493,115.77659531357921,18540.03434223228,124.32316378708379,3.7345471701409596,1
-91.57594021215044,117.95925269769693,-120.24702047468678,-127.0,67.54965824665678,-81.10628465804064,31.604580152671815,12.915254237288138,-0.7341040462427673,-7.470588235294116,-12.450980392156861,16.43529411764706,17.0,-27.06557377049181,-2.490196078431371,12.070248859694015,72.93104208009493,109.92740446151139,16911.542748310676,121.73542439079456,22.095287609138836,1
-91.57594021215044,117.95925269769693,-120.24702047468678,-127.0,67.54965824665678,-81.10628465804064,31.604580152671815,22.601694915254242,6.606936416184979,0.4980392156862763,-2.490196078431371,0.4980392156862763,-42.0,60.37704918032786,69.22745098039216,25.537425750245397,792.2475014073506,109.92740446151139,16911.542748310676,121.73542439079456,22.095287609138836,1
-91.57594021215044,117.95925269769693,-120.24702047468678,-127.0,67.54965824665678,-81.10628465804064,31.604580152671815,1.07627118644068,8.075144508670528,5.4784313725490215,9.462745098039218,3.4862745098039234,-12.0,32.27049180327868,65.24313725490197,17.136561966710502,470.1192479043942,109.92740446151139,16911.542748310676,121.73542439079456,22.095287609138836,1
-75.93056894889104,112.4161700756966,-116.41774472853214,-126.45258620689663,81.27245170876672,-96.13031423290198,53.27213740458018,1.07627118644068,8.075144508670528,5.4784313725490215,9.462745098039218,3.4862745098039234,-12.0,32.27049180327868,65.24313725490197,17.136561966710502,470.1192479043942,101.58816125103992,14913.111011406114,118.42883367037511,52.288603501055434,1
-75.93056894889104,112.4161700756966,-116.41774472853214,-126.45258620689663,81.27245170876672,-96.13031423290198,53.27213740458018,41.97457627118644,-3.6705202312138656,-15.439215686274508,-32.372549019607845,-29.384313725490195,-22.0,-82.23770491803279,-106.08235294117647,41.64515409912276,1221.583116038566,101.58816125103992,14913.111011406114,118.42883367037511,52.288603501055434,1
-75.93056894889104,112.4161700756966,-116.41774472853214,-126.45258620689663,81.27245170876672,-96.13031423290198,53.27213740458018,-24.75423728813559,-19.820809248554905,-0.49803921568627274,6.4745098039215705,36.35686274509804,24.0,21.86065573770491,89.14901960784314,27.864266705868054,737.1032322554763,101.58816125103992,14913.111011406114,118.42883367037511,52.288603501055434,1
-56.060028929604634,105.5231116121759,-110.46684323112967,-124.080459770115,93.22894502228827,-111.79990757855819,76.4423664122138,-24.75423728813559,-19.820809248554905,-0.49803921568627274,6.4745098039215705,36.35686274509804,24.0,21.86065573770491,89.14901960784314,27.864266705868054,737.1032322554763,90.6833279243034,12620.145557166436,113.35680487114018,92.35770137429066,1
-56.060028929604634,105.5231116121759,-110.46684323112967,-124.080459770115,93.22894502228827,-111.79990757855819,76.4423664122138,22.601694915254242,25.693641618497118,-10.458823529411763,1.4941176470588253,43.32941176470588,2.0,27.065573770491795,21.415686274509806,19.25736868999118,198.35200641945704,90.6833279243034,12620.145557166436,113.35680487114018,92.35770137429066,1
-56.060028929604634,105.5231116121759,-110.46684323112967,-124.080459770115,93.22894502228827,-111.79990757855819,76.4423664122138,7.533898305084748,-12.47976878612716,-7.470588235294116,-47.31372549019608,-73.21176470588236,19.0,-23.94262295081968,31.376470588235296,27.791104882704932,515.2618668352064,90.6833279243034,12620.145557166436,113.35680487114018,92.35770137429066,1
-43.69069431051109,88.83250120792401,-97.16787205867374,-120.18773946360159,103.07191679049035,-124.12430683918666,96.99503816793896,7.533898305084748,-12.47976878612716,-7.470588235294116,-47.31372549019608,-73.21176470588236,19.0,-23.94262295081968,31.376470588235296,27.791104882704932,515.2618668352064,76.56368919236961,9169.724124273274,102.06270424339978,263.7572781050491,1
-43.69069431051109,88.83250120792401,-97.16787205867374,-120.18773946360159,103.07191679049035,-124.12430683918666,96.99503816793896,59.194915254237294,40.37572254335261,17.43137254901961,-7.470588235294116,-39.345098039215685,17.0,-56.21311475409836,36.35686274509804,34.17345926503947,352.86704771464093,76.56368919236961,9169.724124273274,102.06270424339978,263.7572781050491,1
-57.43780135004822,69.64648091480112,-87.46531526943059,-114.83524904214562,111.70716196136702,-127.0,111.39160305343518,59.194915254237294,40.37572254335261,17.43137254901961,-7.470588235294116,-39.345098039215685,17.0,-56.21311475409836,36.35686274509804,34.17345926503947,352.86704771464093,71.51653251142665,6956.030481864361,90.6490150754591,518.1081495579061,1
-57.43780135004822,69.64648091480112,-87.46531526943059,-114.83524904214562,111.70716196136702,-127.0,111.39160305343518,33.364406779661024,30.098265895953766,5.4784313725490215,-6.474509803921567,-27.392156862745097,-67.0,-95.77049180327869,-107.07843137254902,46.58208673633227,1515.571874651194,71.51653251142665,6956.030481864361,90.6490150754591,518.1081495579061,1
-57.43780135004822,69.64648091480112,-87.46531526943059,-114.83524904214562,111.70716196136702,-127.0,111.39160305343518,54.88983050847458,-19.820809248554905,-5.478431372549018,6.4745098039215705,72.2156862745098,70.0,-27.06557377049181,18.42745098039216,34.296536494861726,750.6989589905037,71.51653251142665,6956.030481864361,90.6490150754591,518.1081495579061,1
-72.62391513982642,58.294411338379795,-78.43546908424162,-106.62404214559388,120.29711738484399,-123.94824399260625,121.03778625954203,54.88983050847458,-19.820809248554905,-5.478431372549018,6.4745098039215705,72.2156862745098,70.0,-27.06557377049181,18.42745098039216,34.296536494861726,750.6989589905037,69.78459852081595,5978.073761247898,81.1179741894051,589.3351787198251,1
-72.62391513982642,58.294411338379795,-78.43546908424162,-106.62404214559388,120.29711738484399,-123.94824399260625,121.03778625954203,-32.28813559322034,-19.820809248554905,-6.474509803921567,-11.454901960784312,-33.36862745098039,18.0,-12.491803278688531,-23.4078431372549,19.663328809175617,93.82682915401412,69.78459852081595,5978.073761247898,81.1179741894051,589.3351787198251,1
-72.62391513982642,58.294411338379795,-78.43546908424162,-106.62404214559388,120.29711738484399,-123.94824399260625,121.03778625954203,-29.059322033898304,5.1387283236994294,20.419607843137257,25.400000000000002,-70.2235294117647,-11.0,-21.860655737704924,65.24313725490197,31.04312257563832,572.9238210775251,69.78459852081595,5978.073761247898,81.1179741894051,589.3351787198251,1
-48.98746383799422,40.74472539861493,-62.85963125190996,-100.90660919540232,125.7016939078752,-119.72273567467647,126.27290076335885,-29.059322033898304,5.1387283236994294,20.419607843137257,25.400000000000002,-70.2235294117647,-11.0,-21.860655737704924,65.24313725490197,31.04312257563832,572.9238210775251,50.8639401628397,3163.0275884872503,68.17032194864241,926.0156422518078,1
-48.98746383799422,40.74472539861493,-62.85963125190996,-100.90660919540232,125.7016939078752,-119.72273567467647,126.27290076335885,-2.152542372881353,-18.35260115606936,-6.474509803921567,3.4862745098039234,45.321568627450986,104.0,-28.106557377049185,-32.372549019607845,30.033325358348023,1126.7892598350697,50.8639401628397,3163.0275884872503,68.17032194864241,926.0156422518078,1
-48.98746383799422,40.74472539861493,-62.85963125190996,-100.90660919540232,125.7016939078752,-119.72273567467647,126.27290076335885,-127.0,-77.08092485549132,-17.431372549019606,-4.482352941176469,-41.33725490196078,120.0,109.30327868852457,73.21176470588236,71.2308685802569,2174.2368528668135,50.8639401628397,3163.0275884872503,68.17032194864241,926.0156422518078,1
-12.920443587270974,20.41327105814143,-45.73138433329938,-100.29837164750961,127.00000000000001,-115.61460258780033,127.00000000000006,-127.0,-77.08092485549132,-17.431372549019606,-4.482352941176469,-41.33725490196078,120.0,109.30327868852457,73.21176470588236,71.2308685802569,2174.2368528668135,26.355032992903926,1093.8016335922716,55.48100901298347,1666.698710089397,1
-12.920443587270974,20.41327105814143,-45.73138433329938,-100.29837164750961,127.00000000000001,-115.61460258780033,127.00000000000006,124.84745762711864,93.23121387283238,12.450980392156865,18.42745098039216,-15.439215686274508,-109.0,126.99999999999999,76.2,72.07453981984682,2467.2056910833503,26.355032992903926,1093.8016335922716,55.48100901298347,1666.698710089397,1
-12.920443587270974,20.41327105814143,-45.73138433329938,-100.29837164750961,127.00000000000001,-115.61460258780033,127.00000000000006,-85.02542372881356,-33.03468208092485,0.4980392156862763,20.419607843137257,15.439215686274512,-28.0,126.99999999999999,-56.27843137254902,45.71192499092318,1762.8302651050938,26.355032992903926,1093.8016335922716,55.48100901298347,1666.698710089397,1
15.2473481195757,2.6181349653728674,-17.89151471936437,-101.51484674329504,124.56945022288262,-113.38447319778186,120.1167938931298,-85.02542372881356,-33.03468208092485,0.4980392156862763,20.419607843137257,15.439215686274512,-28.0,126.99999999999999,-56.27843137254902,45.71192499092318,1762.8302651050938,11.91899926810431,279.7211642238359,40.674832142677424,2834.4495647299327,1
15.2473481195757,2.6181349653728674,-17.89151471936437,-101.51484674329504,124.56945022288262,-113.38447319778186,120.1167938931298,39.82203389830509,-0.7341040462427673,-11.454901960784312,-9.462745098039214,28.38823529411765,41.0,-77.0327868852459,-127.0,41.86185089784187,1762.5310414209805,11.91899926810431,279.7211642238359,40.674832142677424,2834.4495647299327,1
15.2473481195757,2.6181349653728674,-17.89151471936437,-101.51484674329504,124.56945022288262,-113.38447319778186,120.1167938931298,-23.677966101694913,31.566473988439313,21.415686274509806,21.415686274509806,115.04705882352941,53.0,4.163934426229501,29.3843137254902,37.45888995180037,1167.8008702274524,11.91899926810431,279.7211642238359,40.674832142677424,2834.4495647299327,1
53.059546769527486,-19.063295216621015,12.975552612814504,-105.28591954022988,117.3532838038633,-113.20841035120145,105.23549618320618,-23.677966101694913,31.566473988439313,21.415686274509806,21.415686274509806,115.04705882352941,53.0,4.163934426229501,29.3843137254902,37.45888995180037,1167.8008702274524,28.36613153298767,1305.8197823253452,45.77492245655514,2665.4342329224087,1
53.059546769527486,-19.063295216621015,12.975552612814504,-105.28591954022988,117.3532838038633,-113.20841035120145,105.23549618320618,-52.73728813559322,5.1387283236994294,19.423529411764708,11.454901960784316,-81.18039215686275,27.0,-110.34426229508196,-127.0,54.284887785473295,2195.0623313655265,28.36613153298767,1305.8197823253452,45.77492245655514,2665.4342329224087,1
53.059546769527486,-19.063295216621015,12.975552612814504,-105.28591954022988,117.3532838038633,-113.20841035120145,105.23549618320618,127.0,38.90751445086706,-7.470588235294116,6.4745098039215705,83.17254901960784,-36.0,21.86065573770491,-39.345098039215685,45.0288644108264,1679.9046464164473,28.36613153298767,1305.8197823253452,45.77492245655514,2665.4342329224087,1
82.81943105110898,-35.36527621195038,36.805032087195684,-109.48275862068965,106.27239227340269,-114.38216266173748,85.02213740458018,127.0,38.90751445086706,-7.470588235294116,6.4745098039215705,83.17254901960784,-36.0,21.86065573770491,-39.345098039215685,45.0288644108264,1679.9046464164473,51.66324645008501,3548.917223809836,60.551022306611905,1796.2543382779018,1
82.81943105110898,-35.36527621195038,36.805032087195684,-109.48275862068965,106.27239227340269,-114.38216266173748,85.02213740458018,-119.46610169491527,-47.716763005780344,4.482352941176472,5.4784313725490215,-18.427450980392155,-93.0,-47.88524590163935,55.28235294117647,48.96733735470363,1679.2069820936915,51.66324645008501,3548.917223809836,60.551022306611905,1796.2543382779018,1
82.81943105110898,-35.36527621195038,36.805032087195684,-109.48275862068965,106.27239227340269,-114.38216266173748,85.02213740458018,66.72881355932203,60.930635838150295,7.4705882352941195,-17.431372549019606,-53.29019607843137,1.0,-77.0327868852459,-101.10196078431372,48.123294241222126,1284.947074142916,51.66324645008501,3548.917223809836,60.551022306611905,1796.2543382779018,1
96.26036644165863,-52.874053792881284,56.468880513395135,-111.4899425287357,92.32315007429422,-112.50415896487982,59.864503816793956,66.72881355932203,60.930635838150295,7.4705882352941195,-17.431372549019606,-53.29019607843137,1.0,-77.0327868852459,-101.10196078431372,48.123294241222126,1284.947074142916,68.53443358264501,5963.385822296371,73.61095894500404,1079.3437427900894,1
96.26036644165863,-52.874053792881284,56.468880513395135,-111.4899425287357,92.32315007429422,-112.50415896487982,59.864503816793956,12.915254237288138,-34.5028901734104,-8.466666666666665,-42.33333333333333,-20.419607843137253,22.0,34.35245901639343,59.266666666666666,29.282109742111984,279.30039614476107,68.53443358264501,5963.385822296371,73.61095894500404,1079.3437427900894,1
96.26036644165863,-52.874053792881284,56.468880513395135,-111.4899425287357,92.32315007429422,-112.50415896487982,59.864503816793956,7.533898305084748,-19.820809248554905,-1.4941176470588218,-19.423529411764704,-58.27058823529411,-1.0,30.188524590163922,127.0,33.09143342974015,1786.5135320043767,68.53443358264501,5963.385822296371,73.61095894500404,1079.3437427900894,1
95.43370298939249,-76.58044773715572,75.8222471223388,-109.05699233716484,75.91316493313522,-101.94038817005543,29.180916030534377,7.533898305084748,-19.820809248554905,-1.4941176470588218,-19.423529411764704,-58.27058823529411,-1.0,30.188524590163922,127.0,33.09143342974015,1786.5135320043767,82.61213261629568,8866.676441972873,87.15322906555313,359.9748511371822,1
95.43370298939249,-76.58044773715572,75.8222471223388,-109.05699233716484,75.91316493313522,-101.94038817005543,29.180916030534377,-22.601694915254235,0.7341040462427819,5.4784313725490215,72.2156862745098,118.03529411764706,12.0,-9.3688524590164,77.19607843137256,39.70376770207398,1895.5316138991363,82.61213261629568,8866.676441972873,87.15322906555313,359.9748511371822,1
95.43370298939249,-76.58044773715572,75.8222471223388,-109.05699233716484,75.91316493313522,-101.94038817005543,29.180916030534377,46.279661016949156,-0.7341040462427673,-38.34901960784313,-28.388235294117646,61.25882352941177,127.0,-24.983606557377055,-66.2392156862745,49.154083217277,1426.193102385377,82.61213261629568,8866.676441972873,87.15322906555313,359.9748511371822,1
