Gyro 0,Gyro 1,Gyro 2,Orientation 0,Orientation 1,Orientation 2,Orientation 3,Sensor 0,Sensor 1,Sensor 2,Sensor 3,Sensor 4,Sensor 5,Sensor 6,Sensor 7,Sensor Mean,Sensor Variance,Gyro Mean,Gyro Variance,Orientation Mean,Orientation Variance,Label
-4.499308054248546,29.91531834418996,-68.48767343194588,122.85869565217388,-127.0,115.16925431882788,3.6314535345512127,-5.894514767932492,5.4784313725490215,13.72972972972974,-19.617886178861795,-27.392156862745097,0.4980392156862763,2.032000000000002,-3.48627450980392,9.766129079663543,91.70980974820131,34.30076661012813,2493.6710340580084,73.75389580943657,2180.417669950453,1
-4.499308054248546,29.91531834418996,-68.48767343194588,122.85869565217388,-127.0,115.16925431882788,3.6314535345512127,-4.822784810126585,-2.490196078431371,-61.783783783783775,-17.552845528455293,8.466666666666669,3.4862745098039234,5.080000000000002,12.450980392156865,14.51669147117806,390.5136959420023,34.30076661012813,2493.6710340580084,73.75389580943657,2180.417669950453,1
-4.499308054248546,29.91531834418996,-68.48767343194588,122.85869565217388,-127.0,115.16925431882788,3.6314535345512127,-2.67932489451477,16.43529411764706,10.297297297297309,12.390243902439014,13.447058823529414,-1.4941176470588218,3.048000000000002,9.462745098039218,8.656760222565701,31.317685306285178,34.30076661012813,2493.6710340580084,73.75389580943657,2180.417669950453,1
-3.655687794076944,29.861945786930033,-68.66242403394105,122.66149068322977,-126.94246234001585,115.39142794664332,3.5810166799046783,-2.67932489451477,16.43529411764706,10.297297297297309,12.390243902439014,13.447058823529414,-1.4941176470588218,3.048000000000002,9.462745098039218,8.656760222565701,31.317685306285178,34.06001920498267,2509.3931610049467,73.72862016803361,2172.188640691909,1
-3.655687794076944,29.861945786930033,-68.66242403394105,122.66149068322977,-126.94246234001585,115.39142794664332,3.5810166799046783,-8.037974683544306,0.4980392156862763,-18.306306306306297,-10.32520325203253,1.4941176470588253,1.4941176470588253,-1.0159999999999982,-2.490196078431371,5.457744353764804,39.998581856697264,34.06001920498267,2509.3931610049467,73.72862016803361,2172.188640691909,1
-3.655687794076944,29.861945786930033,-68.66242403394105,122.66149068322977,-126.94246234001585,115.39142794664332,3.5810166799046783,-3.7510548523206775,-2.490196078431371,-48.05405405405405,-11.357723577235781,2.4901960784313744,-2.490196078431371,1.0160000000000018,-10.458823529411763,10.26353053103955,248.36605883511416,34.06001920498267,2509.3931610049467,73.72862016803361,2172.188640691909,1
-3.6205369499031272,29.701828115150246,-68.74979933493864,122.39855072463763,-126.89930909502775,115.61360157445876,3.5810166799046783,-3.7510548523206775,-2.490196078431371,-48.05405405405405,-11.357723577235781,2.4901960784313744,-2.490196078431371,1.0160000000000018,-10.458823529411763,10.26353053103955,248.36605883511416,34.02405479999734,2507.4872966530975,73.61672605824218,2165.935827432567,1
-3.6205369499031272,29.701828115150246,-68.74979933493864,122.39855072463763,-126.89930909502775,115.61360157445876,3.5810166799046783,-5.894514767932492,3.4862745098039234,6.864864864864877,6.195121951219502,2.4901960784313744,-0.49803921568627274,3.048000000000002,-5.478431372549018,4.244430345060932,4.8623488787077145,34.02405479999734,2507.4872966530975,73.61672605824218,2165.935827432567,1
-3.6205369499031272,29.701828115150246,-68.74979933493864,122.39855072463763,-126.89930909502775,115.61360157445876,3.5810166799046783,-6.966244725738399,-5.478431372549018,-2.2882882882882782,-9.292682926829277,3.4862745098039234,-1.4941176470588218,1.7763568394002505e-15,-3.48627450980392,4.061539247508955,9.243399162533413,34.02405479999734,2507.4872966530975,73.61672605824218,2165.935827432567,1
-3.972045391641295,29.701828115150246,-68.63329893360853,122.13561076604549,-126.8417714350436,115.94686201618192,3.530579825258144,-6.966244725738399,-5.478431372549018,-2.2882882882882782,-9.292682926829277,3.4862745098039234,-1.4941176470588218,1.7763568394002505e-15,-3.48627450980392,4.061539247508955,9.243399162533413,34.10239081346669,2497.4674463775827,73.49024593826809,2153.693494442789,1
-3.972045391641295,29.701828115150246,-68.63329893360853,122.13561076604549,-126.8417714350436,115.94686201618192,3.530579825258144,-4.822784810126585,-3.48627450980392,-25.17117117117116,-11.357723577235781,23.407843137254904,-1.4941176470588218,3.048000000000002,-12.450980392156861,10.654861905601004,86.3238818651187,34.10239081346669,2497.4674463775827,73.49024593826809,2153.693494442789,1
-3.972045391641295,29.701828115150246,-68.63329893360853,122.13561076604549,-126.8417714350436,115.94686201618192,3.530579825258144,-6.966244725738399,14.443137254901963,-35.46846846846846,-60.91869918699188,-9.462745098039214,-1.4941176470588218,4.064000000000002,-2.490196078431371,16.913451057453763,436.0296338480634,34.10239081346669,2497.4674463775827,73.49024593826809,2153.693494442789,1
-4.147799612510379,29.488337886110532,-68.48767343194588,121.80693581780542,-126.78423377505945,116.50229608572052,3.4297061159650752,-6.966244725738399,14.443137254901963,-35.46846846846846,-60.91869918699188,-9.462745098039214,-1.4941176470588218,4.064000000000002,-2.490196078431371,16.913451057453763,436.0296338480634,34.04127031018893,2478.384650453822,73.26098237862061,2147.769239743789,1
-4.147799612510379,29.488337886110532,-68.48767343194588,121.80693581780542,-126.78423377505945,116.50229608572052,3.4297061159650752,-9.109704641350213,2.4901960784313744,-50.342342342342334,-1.0325203252032615,9.462745098039218,-3.48627450980392,3.048000000000002,12.450980392156865,11.4278454234159,263.6935698856244,34.04127031018893,2478.384650453822,73.26098237862061,2147.769239743789,1
-4.147799612510379,29.488337886110532,-68.48767343194588,121.80693581780542,-126.78423377505945,116.50229608572052,3.4297061159650752,-8.037974683544306,-11.454901960784312,-42.33333333333333,-5.1626016260162695,1.4941176470588253,-1.4941176470588218,-1.0159999999999982,-3.48627450980392,9.309915175949973,191.2631941402401,34.04127031018893,2478.384650453822,73.26098237862061,2147.769239743789,1
-3.37448104068641,29.59508300063039,-68.42942323128081,121.80693581780542,-126.76984936006343,116.83555652744369,3.379269261318484,-8.037974683544306,-11.454901960784312,-42.33333333333333,-5.1626016260162695,1.4941176470588253,-1.4941176470588218,-1.0159999999999982,-3.48627450980392,9.309915175949973,191.2631941402401,33.799662424199205,2487.9902464176776,73.27714734990553,2143.38177184181,1
-3.37448104068641,29.59508300063039,-68.42942323128081,121.80693581780542,-126.76984936006343,116.83555652744369,3.379269261318484,-4.822784810126585,-5.478431372549018,-4.576576576576567,-9.292682926829277,-9.462745098039214,-6.474509803921567,-2.0319999999999983,-18.427450980392155,7.570897696054297,25.312333285957994,33.799662424199205,2487.9902464176776,73.27714734990553,2143.38177184181,1
-3.37448104068641,29.59508300063039,-68.42942323128081,121.80693581780542,-126.76984936006343,116.83555652744369,3.379269261318484,-6.966244725738399,6.4745098039215705,-10.297297297297288,5.162601626016251,-1.4941176470588218,8.466666666666669,6.096000000000002,9.462745098039218,6.802522858092277,7.6516692652921705,33.799662424199205,2487.9902464176776,73.27714734990553,2143.38177184181,1
-4.147799612510379,29.621769279260352,-68.3129228299507,121.67546583850935,-126.72669611507533,117.39099059698228,3.227958697378881,-6.966244725738399,6.4745098039215705,-10.297297297297288,5.162601626016251,-1.4941176470588218,8.466666666666669,6.096000000000002,9.462745098039218,6.802522858092277,7.6516692652921705,34.02749724057381,2474.7917898618853,73.20338598257347,2136.4082349409437,1
-4.147799612510379,29.621769279260352,-68.3129228299507,121.67546583850935,-126.72669611507533,117.39099059698228,3.227958697378881,-8.037974683544306,-3.48627450980392,-8.009009009008999,23.747967479674784,2.4901960784313744,4.482352941176472,-1.0159999999999982,-6.474509803921567,7.218035563195178,51.0453043085812,34.02749724057381,2474.7917898618853,73.20338598257347,2136.4082349409437,1
-4.147799612510379,29.621769279260352,-68.3129228299507,121.67546583850935,-126.72669611507533,117.39099059698228,3.227958697378881,-5.894514767932492,-2.490196078431371,-19.45045045045044,-13.422764227642286,-13.44705882352941,2.4901960784313744,2.032000000000002,-1.4941176470588218,7.590162259184524,47.4197681692093,34.02749724057381,2474.7917898618853,73.20338598257347,2136.4082349409437,1
-3.1635759756435093,29.434965328850605,-68.34204793028321,121.67546583850935,-126.72669611507533,117.77979444565929,3.227958697378881,-5.894514767932492,-2.490196078431371,-19.45045045045044,-13.422764227642286,-13.44705882352941,2.4901960784313744,2.032000000000002,-1.4941176470588218,7.590162259184524,47.4197681692093,33.64686307825911,2478.5404038998995,73.15082636588106,2144.420746100092,1
-3.1635759756435093,29.434965328850605,-68.34204793028321,121.67546583850935,-126.72669611507533,117.77979444565929,3.227958697378881,-5.894514767932492,-5.478431372549018,-24.027027027027017,3.0975609756097464,9.462745098039218,4.482352941176472,4.064000000000002,-15.439215686274508,8.993230983576058,52.73518684337642,33.64686307825911,2478.5404038998995,73.15082636588106,2144.420746100092,1
-3.1635759756435093,29.434965328850605,-68.34204793028321,121.67546583850935,-126.72669611507533,117.77979444565929,3.227958697378881,-8.037974683544306,5.4784313725490215,-6.864864864864854,7.227642276422754,-7.470588235294116,-5.478431372549018,3.048000000000002,-8.466666666666665,6.5090749339863425,3.120089309330308,33.64686307825911,2478.5404038998995,73.15082636588106,2144.420746100092,1
-2.741765845557708,29.381592771590675,-68.2255475289531,121.74120082815739,-126.74108053007134,118.05751148042859,3.1775218427323466,-8.037974683544306,5.4784313725490215,-6.864864864864854,7.227642276422754,-7.470588235294116,-5.478431372549018,3.048000000000002,-8.466666666666665,6.5090749339863425,3.120089309330308,33.449635382033826,2474.5316116757576,73.11611370956706,2150.512528265879,1
-2.741765845557708,29.381592771590675,-68.2255475289531,121.74120082815739,-126.74108053007134,118.05751148042859,3.1775218427323466,0.5358649789029517,12.450980392156865,-28.603603603603595,-14.455284552845537,-17.431372549019606,-0.49803921568627274,7.112000000000002,23.407843137254904,13.061873553683716,102.87765501419133,33.449635382033826,2474.5316116757576,73.11611370956706,2150.512528265879,1
-2.741765845557708,29.381592771590675,-68.2255475289531,121.74120082815739,-126.74108053007134,118.05751148042859,3.1775218427323466,-9.109704641350213,-9.462745098039214,-34.324324324324316,12.390243902439014,13.447058823529414,-1.4941176470588218,-3.0479999999999983,2.4901960784313744,10.720798814396545,111.89579843314979,33.449635382033826,2474.5316116757576,73.11611370956706,2150.512528265879,1
-2.425408247993357,29.381592771590675,-68.34204793028321,121.93840579710138,-126.76984936006343,118.33522851519788,3.1775218427323466,-9.109704641350213,-9.462745098039214,-34.324324324324316,12.390243902439014,13.447058823529414,-1.4941176470588218,-3.0479999999999983,2.4901960784313744,10.720798814396545,111.89579843314979,33.38301631662242,2484.4331088155986,73.22068216632509,2159.541713366647,1
-2.425408247993357,29.381592771590675,-68.34204793028321,121.93840579710138,-126.76984936006343,118.33522851519788,3.1775218427323466,-10.18143459915612,-4.482352941176469,-33.18018018018017,-33.04065040650407,14.443137254901963,0.4980392156862763,2.032000000000002,-12.450980392156861,13.788596873720241,166.1952854346625,33.38301631662242,2484.4331088155986,73.22068216632509,2159.541713366647,1
-2.425408247993357,29.381592771590675,-68.34204793028321,121.93840579710138,-126.76984936006343,118.33522851519788,3.1775218427323466,-6.966244725738399,-0.49803921568627274,-13.72972972972972,16.52032520325202,13.447058823529414,5.4784313725490215,7.112000000000002,3.4862745098039234,8.404762947536096,31.236309363222926,33.38301631662242,2484.4331088155986,73.22068216632509,2159.541713366647,1
-2.460559092167174,29.40827905022064,-68.3129228299507,122.06987577639745,-126.81300260505154,118.55740214301332,3.1270849880857554,-6.966244725738399,-0.49803921568627274,-13.72972972972972,16.52032520325202,13.447058823529414,5.4784313725490215,7.112000000000002,3.4862745098039234,8.404762947536096,31.236309363222926,33.393920324112834,2483.598325217377,73.2636925521896,2164.9254675931334,1
-2.460559092167174,29.40827905022064,-68.3129228299507,122.06987577639745,-126.81300260505154,118.55740214301332,3.1270849880857554,-9.109704641350213,-7.470588235294116,-24.027027027027017,-9.292682926829277,-4.482352941176469,-13.44705882352941,2.032000000000002,1.4941176470588253,8.919441530283166,53.324740529841264,33.393920324112834,2483.598325217377,73.2636925521896,2164.9254675931334,1
-2.460559092167174,29.40827905022064,-68.3129228299507,122.06987577639745,-126.81300260505154,118.55740214301332,3.1270849880857554,-9.109704641350213,-7.470588235294116,-21.73873873873873,-9.292682926829277,10.458823529411767,-0.49803921568627274,1.0160000000000018,0.4980392156862763,7.510327062874581,51.05690802471515,33.393920324112834,2483.598325217377,73.2636925521896,2164.9254675931334,1
-2.144201494602823,29.568396722000426,-68.5167985322784,122.06987577639745,-126.79861819005549,118.55740214301332,3.1270849880857554,-9.109704641350213,-7.470588235294116,-21.73873873873873,-9.292682926829277,10.458823529411767,-0.49803921568627274,1.0160000000000018,0.4980392156862763,7.510327062874581,51.05690802471515,33.40979891629388,2505.2860085405614,73.38502367689209,2156.9056188567497,1
-2.144201494602823,29.568396722000426,-68.5167985322784,122.06987577639745,-126.79861819005549,118.55740214301332,3.1270849880857554,-5.894514767932492,-5.478431372549018,-88.09909909909909,1.032520325203242,-27.392156862745097,-3.48627450980392,-2.0319999999999983,0.4980392156862763,16.73912951912739,907.5070932991815,33.40979891629388,2505.2860085405614,73.38502367689209,2156.9056188567497,1
-2.144201494602823,29.568396722000426,-68.5167985322784,122.06987577639745,-126.79861819005549,118.55740214301332,3.1270849880857554,-4.822784810126585,-9.462745098039214,20.594594594594604,9.292682926829258,-9.462745098039214,-0.49803921568627274,3.048000000000002,3.4862745098039234,7.583483281639884,39.20804756496919,33.40979891629388,2505.2860085405614,73.38502367689209,2156.9056188567497,1
-2.249654027124273,29.78188695104014,-68.83717463593624,122.06987577639745,-126.79861819005549,118.55740214301332,3.1270849880857554,-4.822784810126585,-9.462745098039214,20.594594594594604,9.292682926829258,-9.462745098039214,-0.49803921568627274,3.048000000000002,3.4862745098039234,7.583483281639884,39.20804756496919,33.62290520470022,2530.939471093437,73.56297912112461,2146.018141381489,1
-2.249654027124273,29.78188695104014,-68.83717463593624,122.06987577639745,-126.79861819005549,118.55740214301332,3.1270849880857554,-3.7510548523206775,-3.48627450980392,-59.49549549549549,-1.0325203252032615,6.4745098039215705,0.4980392156862763,3.048000000000002,-11.454901960784312,11.15509952040194,393.4552922359079,33.62290520470022,2530.939471093437,73.56297912112461,2146.018141381489,1
-2.249654027124273,29.78188695104014,-68.83717463593624,122.06987577639745,-126.79861819005549,118.55740214301332,3.1270849880857554,-9.109704641350213,-5.478431372549018,-43.47747747747747,-12.390243902439034,-11.454901960784312,0.4980392156862763,1.7763568394002505e-15,-8.466666666666665,11.359433154619124,189.66608777210857,33.62290520470022,2530.939471093437,73.56297912112461,2146.018141381489,1
-2.460559092167174,29.83525950830007,-68.92454993693383,122.06987577639745,-126.79861819005549,118.55740214301332,3.1775218427323466,-9.109704641350213,-5.478431372549018,-43.47747747747747,-12.390243902439034,-11.454901960784312,0.4980392156862763,1.7763568394002505e-15,-8.466666666666665,11.359433154619124,189.66608777210857,33.74012284580036,2535.6636566244038,73.60989507387711,2143.2704538200023,1
-2.460559092167174,29.83525950830007,-68.92454993693383,122.06987577639745,-126.79861819005549,118.55740214301332,3.1775218427323466,-12.324894514767935,-10.458823529411763,-18.306306306306297,-10.32520325203253,-4.482352941176469,2.4901960784313744,-1.0159999999999982,5.4784313725490215,8.110275999334423,33.44944337351779,33.74012284580036,2535.6636566244038,73.60989507387711,2143.2704538200023,1
-2.460559092167174,29.83525950830007,-68.92454993693383,122.06987577639745,-126.79861819005549,118.55740214301332,3.1775218427323466,-3.7510548523206775,13.447058823529414,33.180180180180194,8.260162601626007,-2.490196078431371,-2.490196078431371,4.064000000000002,4.482352941176472,9.020650194461938,108.86873485195372,33.74012284580036,2535.6636566244038,73.60989507387711,2143.2704538200023,1
-3.515084417381677,29.995377180079853,-68.95367503726636,121.80693581780542,-126.75546494506739,118.66848895692104,3.1270849880857554,-3.7510548523206775,13.447058823529414,33.180180180180194,8.260162601626007,-2.490196078431371,-2.490196078431371,4.064000000000002,4.482352941176472,9.020650194461938,108.86873485195372,34.15471221157596,2532.6791855838183,73.58532934505054,2123.429741092242,1
-3.515084417381677,29.995377180079853,-68.95367503726636,121.80693581780542,-126.75546494506739,118.66848895692104,3.1270849880857554,0.5358649789029517,10.458823529411767,14.873873873873883,4.130081300812998,29.3843137254902,10.458823529411767,7.112000000000002,-1.4941176470588218,9.805987323120299,86.33465024190265,34.15471221157596,2532.6791855838183,73.58532934505054,2123.429741092242,1
-3.515084417381677,29.995377180079853,-68.95367503726636,121.80693581780542,-126.75546494506739,118.66848895692104,3.1270849880857554,-5.894514767932492,-3.48627450980392,-43.47747747747747,-22.715447154471555,-0.49803921568627274,-1.4941176470588218,2.032000000000002,1.4941176470588253,10.13649855243617,234.29071720825362,34.15471221157596,2532.6791855838183,73.58532934505054,2123.429741092242,1
-2.8120675339053416,29.995377180079853,-68.80804953560371,121.80693581780542,-126.75546494506739,118.66848895692104,3.1270849880857554,-5.894514767932492,-3.48627450980392,-43.47747747747747,-22.715447154471555,-0.49803921568627274,-1.4941176470588218,2.032000000000002,1.4941176470588253,10.13649855243617,234.29071720825362,33.87183141652964,2532.319199965191,73.536787511163,2124.1112970032523,1
-2.8120675339053416,29.995377180079853,-68.80804953560371,121.80693581780542,-126.75546494506739,118.66848895692104,3.1270849880857554,-10.18143459915612,-1.4941176470588218,10.297297297297309,18.585365853658526,7.4705882352941195,0.4980392156862763,1.7763568394002505e-15,-1.4941176470588218,6.25262006190125,43.267458808631105,33.87183141652964,2532.319199965191,73.536787511163,2124.1112970032523,1
-2.8120675339053416,29.995377180079853,-68.80804953560371,121.80693581780542,-126.75546494506739,118.66848895692104,3.1270849880857554,-4.822784810126585,17.43137254901961,9.153153153153163,-14.455284552845537,7.4705882352941195,-1.4941176470588218,3.048000000000002,-8.466666666666665,8.292745951770563,29.815315374352867,33.87183141652964,2532.319199965191,73.536787511163,2124.1112970032523,1
-3.3041793523387764,29.96869090144989,-68.80804953560371,121.60973084886132,-126.72669611507533,118.77957577082876,3.1270849880857554,-4.822784810126585,17.43137254901961,9.153153153153163,-14.455284552845537,7.4705882352941195,-1.4941176470588218,3.048000000000002,-8.466666666666665,8.292745951770563,29.815315374352867,34.02697326313079,2525.780892546757,73.46215709530497,2115.7655885437157,1
-3.3041793523387764,29.96869090144989,-68.80804953560371,121.60973084886132,-126.72669611507533,118.77957577082876,3.1270849880857554,-3.7510548523206775,15.439215686274512,-1.144144144144132,-1.0325203252032615,18.42745098039216,5.4784313725490215,4.064000000000002,13.447058823529414,7.8479845230516485,47.001673700920094,34.02697326313079,2525.780892546757,73.46215709530497,2115.7655885437157,1
-3.3041793523387764,29.96869090144989,-68.80804953560371,121.60973084886132,-126.72669611507533,118.77957577082876,3.1270849880857554,-11.253164556962027,-7.470588235294116,-33.18018018018017,15.48780487804877,-8.466666666666665,-4.482352941176469,2.032000000000002,19.423529411764708,12.724535858761616,100.15825806189117,34.02697326313079,2525.780892546757,73.46215709530497,2115.7655885437157,1
-3.972045391641295,29.91531834418996,-68.80804953560371,121.41252587991721,-126.66915845509118,119.05729280559805,3.076648133439221,-11.253164556962027,-7.470588235294116,-33.18018018018017,15.48780487804877,-8.466666666666665,-4.482352941176469,2.032000000000002,19.423529411764708,12.724535858761616,100.15825806189117,34.23180442381166,2516.394036641587,73.37863125323696,2108.6024096371584,1
-3.972045391641295,29.91531834418996,-68.80804953560371,121.41252587991721,-126.66915845509118,119.05729280559805,3.076648133439221,-11.253164556962027,-12.450980392156861,-38.90090090090089,-26.845528455284562,-6.474509803921567,-0.49803921568627274,1.0160000000000018,-0.49803921568627274,12.242145317574806,194.30139396085647,34.23180442381166,2516.394036641587,73.37863125323696,2108.6024096371584,1
-3.972045391641295,29.91531834418996,-68.80804953560371,121.41252587991721,-126.66915845509118,119.05729280559805,3.076648133439221,-0.5358649789029561,-8.466666666666665,-42.33333333333333,1.032520325203242,11.454901960784316,-2.490196078431371,3.048000000000002,-9.462745098039214,9.853028555170138,189.24873365883187,34.23180442381166,2516.394036641587,73.37863125323696,2108.6024096371584,1
-3.3041793523387764,29.728514393780213,-68.95367503726636,121.28105590062114,-126.64038962509909,119.27946643341349,3.0262112787926867,-0.5358649789029561,-8.466666666666665,-42.33333333333333,1.032520325203242,11.454901960784316,-2.490196078431371,3.048000000000002,-9.462745098039214,9.853028555170138,189.24873365883187,33.99545626112845,2523.1982751191963,73.32108177722257,2109.7726453146183,1
-3.3041793523387764,29.728514393780213,-68.95367503726636,121.28105590062114,-126.64038962509909,119.27946643341349,3.0262112787926867,-8.037974683544306,-5.478431372549018,-32.03603603603602,-10.32520325203253,9.462745098039218,2.4901960784313744,5.080000000000002,0.4980392156862763,9.176078217039844,96.53363531614387,33.99545626112845,2523.1982751191963,73.32108177722257,2109.7726453146183,1
-3.3041793523387764,29.728514393780213,-68.95367503726636,121.28105590062114,-126.64038962509909,119.27946643341349,3.0262112787926867,-6.966244725738399,-0.49803921568627274,-36.61261261261261,-6.195121951219521,-14.44313725490196,-3.48627450980392,1.0160000000000018,-2.490196078431371,8.963453293549255,144.69760623093276,33.99545626112845,2523.1982751191963,73.32108177722257,2109.7726453146183,1
-1.968447273733739,29.83525950830007,-68.89542483660131,121.41252587991721,-126.68354287008722,119.22392302645963,3.076648133439221,-6.966244725738399,-0.49803921568627274,-36.61261261261261,-6.195121951219521,-14.44313725490196,-3.48627450980392,1.0160000000000018,-2.490196078431371,8.963453293549255,144.69760623093276,33.566377206211705,2539.7406869984525,73.38107007493953,2111.6896889276995,1
-1.968447273733739,29.83525950830007,-68.89542483660131,121.41252587991721,-126.68354287008722,119.22392302645963,3.076648133439221,-9.109704641350213,6.4745098039215705,43.47747747747749,14.45528455284552,-4.482352941176469,-7.470588235294116,1.7763568394002505e-15,-4.482352941176469,11.244033824155231,186.95979805884244,33.566377206211705,2539.7406869984525,73.38107007493953,2111.6896889276995,1
-1.968447273733739,29.83525950830007,-68.89542483660131,121.41252587991721,-126.68354287008722,119.22392302645963,3.076648133439221,-5.894514767932492,-1.4941176470588218,-25.17117117117116,29.943089430894297,0.4980392156862763,3.4862745098039234,4.064000000000002,3.4862745098039234,9.254685156543863,131.8618478413301,33.566377206211705,2539.7406869984525,73.38107007493953,2111.6896889276995,1
-3.1635759756435093,30.048749737339783,-69.07017543859648,121.41252587991721,-126.68354287008722,119.22392302645963,3.076648133439221,-5.894514767932492,-1.4941176470588218,-25.17117117117116,29.943089430894297,0.4980392156862763,3.4862745098039234,4.064000000000002,3.4862745098039234,9.254685156543863,131.8618478413301,34.094167050526586,2545.2166266780423,73.5104836852845,2101.6221507519545,1
-3.1635759756435093,30.048749737339783,-69.07017543859648,121.41252587991721,-126.68354287008722,119.22392302645963,3.076648133439221,-5.894514767932492,2.4901960784313744,-20.594594594594586,-5.1626016260162695,-1.4941176470588218,3.4862745098039234,-2.0319999999999983,-29.384313725490195,8.817326618665957,107.38965542002431,34.094167050526586,2545.2166266780423,73.5104836852845,2101.6221507519545,1
-3.1635759756435093,30.048749737339783,-69.07017543859648,121.41252587991721,-126.68354287008722,119.22392302645963,3.076648133439221,-5.894514767932492,6.4745098039215705,8.00900900900902,19.617886178861777,-11.454901960784312,1.4941176470588253,2.032000000000002,-6.474509803921567,7.6814311464361955,33.30437957137186,34.094167050526586,2545.2166266780423,73.5104836852845,2101.6221507519545,1
-2.706615001383891,29.78188695104014,-68.74979933493864,121.41252587991721,-126.68354287008722,119.22392302645963,3.076648133439221,-5.894514767932492,6.4745098039215705,8.00900900900902,19.617886178861777,-11.454901960784312,1.4941176470588253,2.032000000000002,-6.474509803921567,7.6814311464361955,33.30437957137186,33.746100429120894,2520.9496930645155,73.314737388632,2114.672492204104,1
-2.706615001383891,29.78188695104014,-68.74979933493864,121.41252587991721,-126.68354287008722,119.22392302645963,3.076648133439221,-5.894514767932492,-7.470588235294116,-44.621621621621614,-9.769962616701378e-15,-37.35294117647059,-6.474509803921567,5.080000000000002,0.4980392156862763,13.424026852615832,300.4605811928801,33.746100429120894,2520.9496930645155,73.314737388632,2114.672492204104,1
-2.706615001383891,29.78188695104014,-68.74979933493864,121.41252587991721,-126.68354287008722,119.22392302645963,3.076648133439221,-6.966244725738399,9.462745098039218,11.441441441441452,-35.10569105691057,-7.470588235294116,-2.490196078431371,3.048000000000002,1.4941176470588253,9.684878035364244,117.7923990521549,33.746100429120894,2520.9496930645155,73.314737388632,2114.672492204104,1
-2.566011624688624,29.64845555789032,-68.66242403394105,121.41252587991721,-126.68354287008722,119.22392302645963,3.076648133439221,-6.966244725738399,9.462745098039218,11.441441441441452,-35.10569105691057,-7.470588235294116,-2.490196078431371,3.048000000000002,1.4941176470588253,9.684878035364244,117.7923990521549,33.62563040550666,2511.922779225167,73.24113515724953,2120.884597179506,1
-2.566011624688624,29.64845555789032,-68.66242403394105,121.41252587991721,-126.68354287008722,119.22392302645963,3.076648133439221,-6.966244725738399,-2.490196078431371,-19.45045045045044,11.357723577235761,-19.423529411764704,-9.462745098039214,-3.0479999999999983,0.4980392156862763,9.08711606966827,53.97107266025234,33.62563040550666,2511.922779225167,73.24113515724953,2120.884597179506,1
-2.566011624688624,29.64845555789032,-68.66242403394105,121.41252587991721,-126.68354287008722,119.22392302645963,3.076648133439221,-6.966244725738399,-4.482352941176469,-48.05405405405405,-20.65040650406505,16.43529411764706,-0.49803921568627274,1.7763568394002505e-15,-3.48627450980392,12.571583258521402,260.344979146483,33.62563040550666,2511.922779225167,73.24113515724953,2120.884597179506,1
-2.9878217547744255,29.728514393780213,-68.69154913427359,121.41252587991721,-126.68354287008722,119.22392302645963,3.076648133439221,-6.966244725738399,-4.482352941176469,-48.05405405405405,-20.65040650406505,16.43529411764706,-0.49803921568627274,1.7763568394002505e-15,-3.48627450980392,12.571583258521402,260.344979146483,33.80262842760941,2512.307891235153,73.277529802657,2117.262904565615,1
-2.9878217547744255,29.728514393780213,-68.69154913427359,121.41252587991721,-126.68354287008722,119.22392302645963,3.076648133439221,-3.7510548523206775,8.466666666666669,3.4324324324324422,-6.195121951219521,28.38823529411765,1.4941176470588253,3.048000000000002,8.466666666666669,7.905286938810307,75.0095045379635,33.80262842760941,2512.307891235153,73.277529802657,2117.262904565615,1
-2.9878217547744255,29.728514393780213,-68.69154913427359,121.41252587991721,-126.68354287008722,119.22392302645963,3.076648133439221,-4.822784810126585,4.482352941176472,-59.49549549549549,-53.69105691056912,-63.25098039215686,-11.454901960784312,1.7763568394002505e-15,-3.48627450980392,25.085480877514094,796.5141314644936,33.80262842760941,2512.307891235153,73.277529802657,2117.262904565615,1
-2.882369222252975,29.621769279260352,-68.9828001375989,121.41252587991721,-126.68354287008722,119.22392302645963,3.076648133439221,-4.822784810126585,4.482352941176472,-59.49549549549549,-53.69105691056912,-63.25098039215686,-11.454901960784312,1.7763568394002505e-15,-3.48627450980392,25.085480877514094,796.5141314644936,33.82897954637074,2524.7745161340326,73.33903176559215,2120.618314827804,1
-2.882369222252975,29.621769279260352,-68.9828001375989,121.41252587991721,-126.68354287008722,119.22392302645963,3.076648133439221,-6.966244725738399,-13.44705882352941,9.153153153153163,-8.260162601626025,16.43529411764706,11.454901960784316,3.048000000000002,-0.49803921568627274,8.657856824770581,27.509513681715823,33.82897954637074,2524.7745161340326,73.33903176559215,2120.618314827804,1
-2.882369222252975,29.621769279260352,-68.9828001375989,121.41252587991721,-126.68354287008722,119.22392302645963,3.076648133439221,-8.037974683544306,-9.462745098039214,-61.783783783783775,12.390243902439014,18.42745098039216,4.482352941176472,3.048000000000002,8.466666666666669,15.7624022570052,368.27389301176675,33.82897954637074,2524.7745161340326,73.33903176559215,2120.618314827804,1
-3.1284251314696925,29.701828115150246,-69.01192523793142,121.41252587991721,-126.68354287008722,119.22392302645963,3.076648133439221,-8.037974683544306,-9.462745098039214,-61.783783783783775,12.390243902439014,18.42745098039216,4.482352941176472,3.048000000000002,8.466666666666669,15.7624022570052,368.27389301176675,33.94739282818379,2527.144369261397,73.37542641099962,2116.993127990633,1
-3.1284251314696925,29.701828115150246,-69.01192523793142,121.41252587991721,-126.68354287008722,119.22392302645963,3.076648133439221,-8.037974683544306,-14.44313725490196,-66.36036036036035,2.0650406504064946,-21.415686274509802,0.4980392156862763,2.032000000000002,1.4941176470588253,14.5432945108085,493.47954602984174,33.94739282818379,2527.144369261397,73.37542641099962,2116.993127990633,1
-3.1284251314696925,29.701828115150246,-69.01192523793142,121.41252587991721,-126.68354287008722,119.22392302645963,3.076648133439221,-8.037974683544306,-11.454901960784312,-44.621621621621614,-7.227642276422774,14.443137254901963,6.4745098039215705,1.0160000000000018,-3.48627450980392,12.095257763875058,190.35707412709516,33.94739282818379,2527.144369261397,73.37542641099962,2116.993127990633,1
-3.1987268198173258,29.91531834418996,-68.9828001375989,121.28105590062114,-126.65477404009513,119.39055324732122,3.0262112787926867,-8.037974683544306,-11.454901960784312,-44.621621621621614,-7.227642276422774,14.443137254901963,6.4745098039215705,1.0160000000000018,-3.48627450980392,12.095257763875058,190.35707412709516,34.03228176720206,2534.153688106854,73.39305812747,2101.512281460581,1
-3.1987268198173258,29.91531834418996,-68.9828001375989,121.28105590062114,-126.65477404009513,119.39055324732122,3.0262112787926867,-5.894514767932492,3.4862745098039234,-59.49549549549549,-43.365853658536594,7.4705882352941195,-2.490196078431371,2.032000000000002,-0.49803921568627274,15.591620245147533,512.6870741849679,34.03228176720206,2534.153688106854,73.39305812747,2101.512281460581,1
-3.1987268198173258,29.91531834418996,-68.9828001375989,121.28105590062114,-126.65477404009513,119.39055324732122,3.0262112787926867,-10.18143459915612,-5.478431372549018,-66.36036036036035,-4.130081300813018,20.419607843137257,5.4784313725490215,3.048000000000002,1.4941176470588253,14.573808061952953,473.39415063002417,34.03228176720206,2534.153688106854,73.39305812747,2101.512281460581,1
-2.425408247993357,29.83525950830007,-69.07017543859648,121.28105590062114,-126.65477404009513,119.44609665427508,3.0262112787926867,-10.18143459915612,-5.478431372549018,-66.36036036036035,-4.130081300813018,20.419607843137257,5.4784313725490215,3.048000000000002,1.4941176470588253,14.573808061952953,473.39415063002417,33.77694773162997,2544.0934566677374,73.39549694917257,2104.6147240838495,1
-2.425408247993357,29.83525950830007,-69.07017543859648,121.28105590062114,-126.65477404009513,119.44609665427508,3.0262112787926867,-8.037974683544306,8.466666666666669,24.02702702702704,9.292682926829258,-19.423529411764704,-4.482352941176469,2.032000000000002,0.4980392156862763,9.53253410908684,67.81912323227233,33.77694773162997,2544.0934566677374,73.39549694917257,2104.6147240838495,1
-2.425408247993357,29.83525950830007,-69.07017543859648,121.28105590062114,-126.65477404009513,119.44609665427508,3.0262112787926867,-6.966244725738399,2.4901960784313744,17.162162162162176,-8.260162601626025,-3.48627450980392,3.4862745098039234,4.064000000000002,4.482352941176472,6.299708441092786,22.989275805150037,33.77694773162997,2544.0934566677374,73.39549694917257,2104.6147240838495,1
-2.741765845557708,29.83525950830007,-69.04105033826396,121.28105590062114,-126.65477404009513,119.44609665427508,3.0262112787926867,-6.966244725738399,2.4901960784313744,17.162162162162176,-8.260162601626025,-3.48627450980392,3.4862745098039234,4.064000000000002,4.482352941176472,6.299708441092786,22.989275805150037,33.87269189737391,2538.897059004071,73.38578858239505,2104.7409822639715,1
-2.741765845557708,29.83525950830007,-69.04105033826396,121.28105590062114,-126.65477404009513,119.44609665427508,3.0262112787926867,-8.037974683544306,9.462745098039218,-41.18918918918918,6.195121951219502,29.3843137254902,-1.4941176470588218,4.064000000000002,3.4862745098039234,12.914217100543144,207.02941198805289,33.87269189737391,2538.897059004071,73.38578858239505,2104.7409822639715,1
-2.741765845557708,29.83525950830007,-69.04105033826396,121.28105590062114,-126.65477404009513,119.44609665427508,3.0262112787926867,-8.037974683544306,-10.458823529411763,-44.621621621621614,14.45528455284552,20.419607843137257,1.4941176470588253,3.048000000000002,0.4980392156862763,12.879183636663196,210.8263634536518,33.87269189737391,2538.897059004071,73.38578858239505,2104.7409822639715,1
-2.8472183780791585,29.755200672410176,-68.86629973626877,121.28105590062114,-126.65477404009513,119.44609665427508,3.0262112787926867,-8.037974683544306,-10.458823529411763,-44.621621621621614,14.45528455284552,20.419607843137257,1.4941176470588253,3.048000000000002,0.4980392156862763,12.879183636663196,210.8263634536518,33.8229062622527,2524.606195697005,73.30085210310004,2108.9944848344844,1
-2.8472183780791585,29.755200672410176,-68.86629973626877,121.28105590062114,-126.65477404009513,119.44609665427508,3.0262112787926867,-9.109704641350213,-15.439215686274508,-43.47747747747747,4.130081300812998,1.4941176470588253,-4.482352941176469,1.0160000000000018,-1.4941176470588218,10.080383417651165,205.91145703096495,33.8229062622527,2524.606195697005,73.30085210310004,2108.9944848344844,1
-2.8472183780791585,29.755200672410176,-68.86629973626877,121.28105590062114,-126.65477404009513,119.44609665427508,3.0262112787926867,-6.966244725738399,6.4745098039215705,17.162162162162176,-20.65040650406505,1.4941176470588253,1.4941176470588253,-1.0159999999999982,-11.454901960784312,8.339057556348644,55.97424346233713,33.8229062622527,2524.606195697005,73.30085210310004,2108.9944848344844,1
-2.9175200664267917,29.621769279260352,-68.54592363261094,121.28105590062114,-126.65477404009513,119.44609665427508,3.0262112787926867,-6.966244725738399,6.4745098039215705,17.162162162162176,-20.65040650406505,1.4941176470588253,1.4941176470588253,-1.0159999999999982,-11.454901960784312,8.339057556348644,55.97424346233713,33.69507099276603,2500.4647729012904,73.14958293749747,2116.251465230793,1
-2.9175200664267917,29.621769279260352,-68.54592363261094,121.28105590062114,-126.65477404009513,119.44609665427508,3.0262112787926867,-1.607594936708863,11.454901960784316,10.297297297297309,-42.33333333333334,-38.34901960784313,-0.49803921568627274,6.096000000000002,27.3921568627451,17.25354290179979,272.6933519105878,33.69507099276603,2500.4647729012904,73.14958293749747,2116.251465230793,1
-2.9175200664267917,29.621769279260352,-68.54592363261094,121.28105590062114,-126.65477404009513,119.44609665427508,3.0262112787926867,-6.966244725738399,-2.490196078431371,-19.45045045045044,-2.0650406504065137,0.4980392156862763,-8.466666666666665,3.048000000000002,-1.4941176470588218,5.55984442930481,39.067753732093806,33.69507099276603,2500.4647729012904,73.14958293749747,2116.251465230793,1
-2.9175200664267917,29.728514393780213,-68.5167985322784,121.28105590062114,-126.65477404009513,119.44609665427508,3.0262112787926867,-6.966244725738399,-2.490196078431371,-19.45045045045044,-2.0650406504065137,0.4980392156862763,-8.466666666666665,3.048000000000002,-1.4941176470588218,5.55984442930481,39.067753732093806,33.720944330828466,2503.5284021927573,73.17545627555991,2111.7442830672353,1
-2.9175200664267917,29.728514393780213,-68.5167985322784,121.28105590062114,-126.65477404009513,119.44609665427508,3.0262112787926867,-8.037974683544306,-1.4941176470588218,-10.297297297297288,-8.260162601626025,4.482352941176472,2.4901960784313744,3.048000000000002,-5.478431372549018,5.448566577710413,9.886728439838999,33.720944330828466,2503.5284021927573,73.17545627555991,2111.7442830672353,1
-2.9175200664267917,29.728514393780213,-68.5167985322784,121.28105590062114,-126.65477404009513,119.44609665427508,3.0262112787926867,-3.7510548523206775,15.439215686274512,38.900900900900915,8.260162601626007,-12.450980392156861,-1.4941176470588218,3.048000000000002,4.482352941176472,10.978348127689284,150.91403455370406,33.720944330828466,2503.5284021927573,73.17545627555991,2111.7442830672353,1
-2.7769166897315247,29.755200672410176,-68.57504873294346,121.28105590062114,-126.65477404009513,119.44609665427508,3.0262112787926867,-3.7510548523206775,15.439215686274512,38.900900900900915,8.260162601626007,-12.450980392156861,-1.4941176470588218,3.048000000000002,4.482352941176472,10.978348127689284,150.91403455370406,33.702388698361716,2509.4284647598606,73.20376843532493,2110.314328376269,1
-2.7769166897315247,29.755200672410176,-68.57504873294346,121.28105590062114,-126.65477404009513,119.44609665427508,3.0262112787926867,-8.037974683544306,2.4901960784313744,-10.297297297297288,4.130081300812998,21.415686274509806,2.4901960784313744,2.032000000000002,-5.478431372549018,7.046482885697021,42.23622537945847,33.702388698361716,2509.4284647598606,73.20376843532493,2110.314328376269,1
-2.7769166897315247,29.755200672410176,-68.57504873294346,121.28105590062114,-126.65477404009513,119.44609665427508,3.0262112787926867,-8.037974683544306,-2.490196078431371,-17.162162162162154,6.195121951219502,8.466666666666669,-0.49803921568627274,2.032000000000002,2.4901960784313744,5.921544604517706,29.353503368666434,33.702388698361716,2509.4284647598606,73.20376843532493,2110.314328376269,1
-2.6714641572100746,29.861945786930033,-68.48767343194588,121.34679089026918,-126.65477404009513,119.44609665427508,3.0262112787926867,-8.037974683544306,-2.490196078431371,-17.162162162162154,6.195121951219502,8.466666666666669,-0.49803921568627274,2.032000000000002,2.4901960784313744,5.921544604517706,29.353503368666434,33.67369445869533,2510.47396106453,73.23213670304835,2109.251669693619,1
-2.6714641572100746,29.861945786930033,-68.48767343194588,121.34679089026918,-126.65477404009513,119.44609665427508,3.0262112787926867,-5.894514767932492,14.443137254901963,8.00900900900902,1.032520325203242,-4.482352941176469,-12.450980392156861,1.0160000000000018,-1.4941176470588218,6.102829042179859,26.998101036495115,33.67369445869533,2510.47396106453,73.23213670304835,2109.251669693619,1
-2.6714641572100746,29.861945786930033,-68.48767343194588,121.34679089026918,-126.65477404009513,119.44609665427508,3.0262112787926867,-6.966244725738399,15.439215686274512,3.4324324324324422,-27.878048780487813,-18.427450980392155,0.4980392156862763,-1.0159999999999982,-6.474509803921567,10.016492703116645,93.71352287430526,33.67369445869533,2510.47396106453,73.23213670304835,2109.251669693619,1
-2.28480487129809,29.701828115150246,-68.69154913427359,121.34679089026918,-126.66915845509118,119.44609665427508,3.0262112787926867,-6.966244725738399,15.439215686274512,3.4324324324324422,-27.878048780487813,-18.427450980392155,0.4980392156862763,-1.0159999999999982,-6.474509803921567,10.016492703116645,93.71352287430526,33.55939404024064,2519.042843327568,73.24672271323101,2115.262005264057,1
-2.28480487129809,29.701828115150246,-68.69154913427359,121.34679089026918,-126.66915845509118,119.44609665427508,3.0262112787926867,-0.5358649789029561,6.4745098039215705,-28.603603603603595,-15.48780487804879,-15.439215686274508,1.4941176470588253,6.096000000000002,9.462745098039218,10.449232711981184,84.86564038817278,33.55939404024064,2519.042843327568,73.24672271323101,2115.262005264057,1
-2.28480487129809,29.701828115150246,-68.69154913427359,121.34679089026918,-126.66915845509118,119.44609665427508,3.0262112787926867,-3.7510548523206775,8.466666666666669,8.00900900900902,-17.552845528455293,26.39607843137255,2.4901960784313744,4.064000000000002,6.4745098039215705,9.650545046272144,67.7609595922891,33.55939404024064,2519.042843327568,73.24672271323101,2115.262005264057,1
-2.6363133130362577,29.888632065559996,-68.83717463593624,121.34679089026918,-126.66915845509118,119.44609665427508,3.0262112787926867,-3.7510548523206775,8.466666666666669,8.00900900900902,-17.552845528455293,26.39607843137255,2.4901960784313744,4.064000000000002,6.4745098039215705,9.650545046272144,67.7609595922891,33.787373338177495,2531.201836772617,73.35753253058847,2106.473930523241,1
-2.6363133130362577,29.888632065559996,-68.83717463593624,121.34679089026918,-126.66915845509118,119.44609665427508,3.0262112787926867,-9.109704641350213,0.4980392156862763,-11.441441441441432,-6.195121951219521,-0.49803921568627274,1.4941176470588253,1.7763568394002505e-15,-6.474509803921567,4.463871739545514,19.644482929885733,33.787373338177495,2531.201836772617,73.35753253058847,2106.473930523241,1
-2.6363133130362577,29.888632065559996,-68.83717463593624,121.34679089026918,-126.66915845509118,119.44609665427508,3.0262112787926867,-11.253164556962027,-7.470588235294116,-2.2882882882882782,12.390243902439014,4.482352941176472,0.4980392156862763,2.032000000000002,-6.474509803921567,5.861148367970968,18.965879857055274,33.787373338177495,2531.201836772617,73.35753253058847,2106.473930523241,1
-2.6714641572100746,30.048749737339783,-68.9828001375989,121.34679089026918,-126.66915845509118,119.44609665427508,3.0262112787926867,-11.253164556962027,-7.470588235294116,-2.2882882882882782,12.390243902439014,4.482352941176472,0.4980392156862763,2.032000000000002,-6.474509803921567,5.861148367970968,18.965879857055274,33.90100467738292,2545.8422579069284,73.45944692173596,2098.8633544129407,1
-2.6714641572100746,30.048749737339783,-68.9828001375989,121.34679089026918,-126.66915845509118,119.44609665427508,3.0262112787926867,-6.966244725738399,1.4941176470588253,-4.576576576576567,-21.6829268292683,-2.490196078431371,3.4862745098039234,1.0160000000000018,-3.48627450980392,5.6498263595851625,45.43322449193549,33.90100467738292,2545.8422579069284,73.45944692173596,2098.8633544129407,1
-2.6714641572100746,30.048749737339783,-68.9828001375989,121.34679089026918,-126.66915845509118,119.44609665427508,3.0262112787926867,-8.037974683544306,-10.458823529411763,-44.621621621621614,12.390243902439014,-9.462745098039214,1.4941176470588253,1.0160000000000018,-1.4941176470588218,11.121955516146695,203.43724379851088,33.90100467738292,2545.8422579069284,73.45944692173596,2098.8633544129407,1
-2.249654027124273,29.942004622819926,-68.74979933493864,121.34679089026918,-126.65477404009513,119.50164006122894,3.0262112787926867,-8.037974683544306,-10.458823529411763,-44.621621621621614,12.390243902439014,-9.462745098039214,1.4941176470588253,1.0160000000000018,-1.4941176470588218,11.121955516146695,203.43724379851088,33.647152661627615,2533.107396838601,73.34619828267591,2104.55390061459,1
-2.249654027124273,29.942004622819926,-68.74979933493864,121.34679089026918,-126.65477404009513,119.50164006122894,3.0262112787926867,-5.894514767932492,-6.474509803921567,-27.459459459459453,-16.520325203252042,-31.376470588235293,-8.466666666666665,3.048000000000002,-1.4941176470588218,12.591758017065793,128.9826747223884,33.647152661627615,2533.107396838601,73.34619828267591,2104.55390061459,1
-2.249654027124273,29.942004622819926,-68.74979933493864,121.34679089026918,-126.65477404009513,119.50164006122894,3.0262112787926867,-3.7510548523206775,11.454901960784316,-27.459459459459453,9.292682926829258,7.4705882352941195,-1.4941176470588218,7.112000000000002,36.35686274509804,13.048958478355585,150.5575158646086,33.647152661627615,2533.107396838601,73.34619828267591,2104.55390061459,1
-1.8981455853861053,29.808573229670102,-68.48767343194588,121.54399585921328,-126.69792728508324,119.44609665427508,3.0262112787926867,-3.7510548523206775,11.454901960784316,-27.459459459459453,9.292682926829258,7.4705882352941195,-1.4941176470588218,7.112000000000002,36.35686274509804,13.048958478355585,150.5575158646086,33.39813074900069,2516.938890767675,73.28008084027643,2121.0723178307917,1
-1.8981455853861053,29.808573229670102,-68.48767343194588,121.54399585921328,-126.69792728508324,119.44609665427508,3.0262112787926867,-10.18143459915612,7.4705882352941195,-29.747747747747738,-2.0650406504065137,34.36470588235294,-1.4941176470588218,2.032000000000002,-1.4941176470588218,11.106219051134385,178.77231208607935,33.39813074900069,2516.938890767675,73.28008084027643,2121.0723178307917,1
-1.8981455853861053,29.808573229670102,-68.48767343194588,121.54399585921328,-126.69792728508324,119.44609665427508,3.0262112787926867,-3.7510548523206775,-10.458823529411763,-41.18918918918918,-15.48780487804879,18.42745098039216,-3.48627450980392,1.0160000000000018,-12.450980392156861,13.283447291415419,165.15189441366746,33.39813074900069,2516.938890767675,73.28008084027643,2121.0723178307917,1
-2.4957099363409907,29.808573229670102,-68.604173833276,121.54399585921328,-126.69792728508324,119.44609665427508,3.0262112787926867,-3.7510548523206775,-10.458823529411763,-41.18918918918918,-15.48780487804879,18.42745098039216,-3.48627450980392,1.0160000000000018,-12.450980392156861,13.283447291415419,165.15189441366746,33.6361523330957,2516.494082359599,73.31891430738646,2120.5185245588873,1
-2.4957099363409907,29.808573229670102,-68.604173833276,121.54399585921328,-126.69792728508324,119.44609665427508,3.0262112787926867,-10.18143459915612,-6.474509803921567,-25.17117117117116,18.585365853658526,7.4705882352941195,6.4745098039215705,3.048000000000002,-1.4941176470588218,9.862462139272735,65.09870735394902,33.6361523330957,2516.494082359599,73.31891430738646,2120.5185245588873,1
-2.4957099363409907,29.808573229670102,-68.604173833276,121.54399585921328,-126.69792728508324,119.44609665427508,3.0262112787926867,-9.109704641350213,-8.466666666666665,-53.77477477477477,16.52032520325202,39.345098039215685,3.4862745098039234,1.0160000000000018,-1.4941176470588218,16.651620185265262,380.65179497968944,33.6361523330957,2516.494082359599,73.31891430738646,2120.5185245588873,1
-2.319955715471907,29.83525950830007,-68.5167985322784,121.54399585921328,-126.69792728508324,119.44609665427508,3.0262112787926867,-9.109704641350213,-8.466666666666665,-53.77477477477477,16.52032520325202,39.345098039215685,3.4862745098039234,1.0160000000000018,-1.4941176470588218,16.651620185265262,380.65179497968944,33.55733791868346,2514.851197636233,73.29868463326392,2119.772906782426,1
-2.319955715471907,29.83525950830007,-68.5167985322784,121.54399585921328,-126.69792728508324,119.44609665427508,3.0262112787926867,-3.7510548523206775,0.4980392156862763,-33.18018018018017,-12.390243902439034,26.39607843137255,8.466666666666669,3.048000000000002,-6.474509803921567,11.775596631573368,139.8700757544492,33.55733791868346,2514.851197636233,73.29868463326392,2119.772906782426,1
-2.319955715471907,29.83525950830007,-68.5167985322784,121.54399585921328,-126.69792728508324,119.44609665427508,3.0262112787926867,-3.7510548523206775,-6.474509803921567,-44.621621621621614,-22.715447154471555,-22.41176470588235,1.4941176470588253,5.080000000000002,-3.48627450980392,13.754348786885062,227.44193651420807,33.55733791868346,2514.851197636233,73.29868463326392,2119.772906782426,1
-1.4060337669526706,29.755200672410176,-68.69154913427359,121.93840579710138,-126.75546494506739,119.44609665427508,2.9757744241461523,-3.7510548523206775,-6.474509803921567,-44.621621621621614,-22.715447154471555,-22.41176470588235,1.4941176470588253,5.080000000000002,-3.48627450980392,13.754348786885062,227.44193651420807,33.284261191212146,2531.68760958845,73.46171853459505,2141.501713846046,1
-1.4060337669526706,29.755200672410176,-68.69154913427359,121.93840579710138,-126.75546494506739,119.44609665427508,2.9757744241461523,-6.966244725738399,4.482352941176472,-9.153153153153143,-9.292682926829277,-24.40392156862745,7.4705882352941195,1.7763568394002505e-15,-5.478431372549018,8.405921865420986,50.69318994915377,33.284261191212146,2531.68760958845,73.46171853459505,2141.501713846046,1
-1.4060337669526706,29.755200672410176,-68.69154913427359,121.93840579710138,-126.75546494506739,119.44609665427508,2.9757744241461523,-10.18143459915612,-6.474509803921567,-24.027027027027017,-17.552845528455293,-2.490196078431371,4.482352941176472,2.032000000000002,-1.4941176470588218,8.591810453153332,67.58308894850164,33.284261191212146,2531.68760958845,73.46171853459505,2141.501713846046,1
-1.5817879878217544,29.91531834418996,-68.69154913427359,122.13561076604549,-126.79861819005549,119.27946643341349,3.0262112787926867,-10.18143459915612,-6.474509803921567,-24.027027027027017,-17.552845528455293,-2.490196078431371,4.482352941176472,2.032000000000002,-1.4941176470588218,8.591810453153332,67.58308894850164,33.39621848876177,2536.5170103898563,73.580826081503,2144.074355393168,1
-1.5817879878217544,29.91531834418996,-68.69154913427359,122.13561076604549,-126.79861819005549,119.27946643341349,3.0262112787926867,-3.7510548523206775,-2.490196078431371,-16.018018018018008,-80.53658536585367,-0.49803921568627274,-0.49803921568627274,1.0160000000000018,6.4745098039215705,13.91030531873973,751.2092627812095,33.39621848876177,2536.5170103898563,73.580826081503,2144.074355393168,1
-1.5817879878217544,29.91531834418996,-68.69154913427359,122.13561076604549,-126.79861819005549,119.27946643341349,3.0262112787926867,-6.966244725738399,0.4980392156862763,-9.153153153153143,-3.097560975609766,8.466666666666669,-3.48627450980392,4.064000000000002,22.411764705882355,7.267962994067566,46.02960917869138,33.39621848876177,2536.5170103898563,73.580826081503,2144.074355393168,1
-2.460559092167174,30.182181130489603,-68.69154913427359,122.06987577639745,-126.79861819005549,119.22392302645963,3.0262112787926867,-6.966244725738399,0.4980392156862763,-9.153153153153143,-3.097560975609766,8.466666666666669,-3.48627450980392,4.064000000000002,22.411764705882355,7.267962994067566,46.02960917869138,33.778096452310116,2538.017844611767,73.64786868038688,2129.2609344172893,1
-2.460559092167174,30.182181130489603,-68.69154913427359,122.06987577639745,-126.79861819005549,119.22392302645963,3.0262112787926867,-2.67932489451477,-1.4941176470588218,-3.4324324324324227,5.162601626016251,-9.462745098039214,-3.48627450980392,4.064000000000002,-1.4941176470588218,3.9094517318655275,6.574407560987731,33.778096452310116,2538.017844611767,73.64786868038688,2129.2609344172893,1
-2.460559092167174,30.182181130489603,-68.69154913427359,122.06987577639745,-126.79861819005549,119.22392302645963,3.0262112787926867,-2.67932489451477,4.482352941176472,26.31531531531533,2.0650406504064946,12.450980392156865,3.4862745098039234,4.064000000000002,-18.427450980392155,9.246342460470752,80.47710856569222,33.778096452310116,2538.017844611767,73.64786868038688,2129.2609344172893,1
-2.109050650429006,30.28892624500946,-68.69154913427359,122.06987577639745,-126.79861819005549,119.27946643341349,3.0262112787926867,-2.67932489451477,4.482352941176472,26.31531531531533,2.0650406504064946,12.450980392156865,3.4862745098039234,4.064000000000002,-18.427450980392155,9.246342460470752,80.47710856569222,33.69650867657069,2546.665419596231,73.68345038522683,2124.624982795249,1
-2.109050650429006,30.28892624500946,-68.69154913427359,122.06987577639745,-126.79861819005549,119.27946643341349,3.0262112787926867,-8.037974683544306,2.4901960784313744,-13.72972972972972,12.390243902439014,17.43137254901961,-0.49803921568627274,1.7763568394002505e-15,0.4980392156862763,6.884449421817071,48.28820289523763,33.69650867657069,2546.665419596231,73.68345038522683,2124.624982795249,1
-2.109050650429006,30.28892624500946,-68.69154913427359,122.06987577639745,-126.79861819005549,119.27946643341349,3.0262112787926867,-9.109704641350213,-7.470588235294116,-46.9099099099099,-43.365853658536594,-24.40392156862745,-8.466666666666665,1.7763568394002505e-15,-10.458823529411763,18.773183526224585,311.01382612006955,33.69650867657069,2546.665419596231,73.68345038522683,2124.624982795249,1
-2.073899806255189,30.128808573229676,-68.74979933493864,122.13561076604549,-126.79861819005549,119.27946643341349,2.9757744241461523,-9.109704641350213,-7.470588235294116,-46.9099099099099,-43.365853658536594,-24.40392156862745,-8.466666666666665,1.7763568394002505e-15,-10.458823529411763,18.773183526224585,311.01382612006955,33.65083590480784,2543.278184465087,73.67140622473794,2134.4795732202742,1
-2.073899806255189,30.128808573229676,-68.74979933493864,122.13561076604549,-126.79861819005549,119.27946643341349,2.9757744241461523,-3.7510548523206775,9.462745098039218,36.61261261261262,6.195121951219502,14.443137254901963,3.4862745098039234,3.048000000000002,1.4941176470588253,9.811632990744592,134.94468218738047,33.65083590480784,2543.278184465087,73.67140622473794,2134.4795732202742,1
-2.073899806255189,30.128808573229676,-68.74979933493864,122.13561076604549,-126.79861819005549,119.27946643341349,2.9757744241461523,-11.253164556962027,-1.4941176470588218,-35.46846846846846,-1.0325203252032615,9.462745098039218,5.4784313725490215,5.080000000000002,27.3921568627451,12.08270054137824,159.38637821663863,33.65083590480784,2543.278184465087,73.67140622473794,2134.4795732202742,1
-1.968447273733739,30.128808573229676,-68.604173833276,122.26708074534156,-126.79861819005549,119.22392302645963,2.8749007148530836,-11.253164556962027,-1.4941176470588218,-35.46846846846846,-1.0325203252032615,9.462745098039218,5.4784313725490215,5.080000000000002,27.3921568627451,12.08270054137824,159.38637821663863,33.567143226746474,2536.459283651145,73.6666877172824,2141.58708483486,1
-1.968447273733739,30.128808573229676,-68.604173833276,122.26708074534156,-126.79861819005549,119.22392302645963,2.8749007148530836,-2.67932489451477,20.419607843137257,-17.162162162162154,-20.65040650406505,-44.325490196078434,-0.49803921568627274,2.032000000000002,-1.4941176470588218,13.657643557837847,232.03242578914632,33.567143226746474,2536.459283651145,73.6666877172824,2141.58708483486,1
-1.968447273733739,30.128808573229676,-68.604173833276,122.26708074534156,-126.79861819005549,119.22392302645963,2.8749007148530836,-2.67932489451477,12.450980392156865,13.72972972972974,-16.520325203252042,-4.482352941176469,-2.490196078431371,-1.0159999999999982,-7.470588235294116,7.604937184319422,34.86946717842002,33.567143226746474,2536.459283651145,73.6666877172824,2141.58708483486,1
-2.425408247993357,30.315612523639427,-68.48767343194588,122.26708074534156,-126.79861819005549,119.22392302645963,2.8749007148530836,-2.67932489451477,12.450980392156865,13.72972972972974,-16.520325203252042,-4.482352941176469,-2.490196078431371,-1.0159999999999982,-7.470588235294116,7.604937184319422,34.86946717842002,33.74289806785956,2533.0477730040857,73.69012223364228,2134.0672321823786,1
-2.425408247993357,30.315612523639427,-68.48767343194588,122.26708074534156,-126.79861819005549,119.22392302645963,2.8749007148530836,-10.18143459915612,-9.462745098039214,-77.80180180180179,25.81300813008129,24.403921568627453,-1.4941176470588218,2.032000000000002,1.4941176470588253,19.085393311477937,657.5377416859457,33.74289806785956,2533.0477730040857,73.69012223364228,2134.0672321823786,1
-2.425408247993357,30.315612523639427,-68.48767343194588,122.26708074534156,-126.79861819005549,119.22392302645963,2.8749007148530836,-4.822784810126585,3.4862745098039234,29.74774774774776,20.65040650406503,6.4745098039215705,0.4980392156862763,3.048000000000002,-0.49803921568627274,8.653225225879677,114.20862299609368,33.74289806785956,2533.0477730040857,73.69012223364228,2134.0672321823786,1
-2.073899806255189,30.315612523639427,-68.54592363261094,122.26708074534156,-126.78423377505945,119.27946643341349,2.8749007148530836,-4.822784810126585,3.4862745098039234,29.74774774774776,20.65040650406503,6.4745098039215705,0.4980392156862763,3.048000000000002,-0.49803921568627274,8.653225225879677,114.20862299609368,33.645145320835184,2540.202298618933,73.7095389671973,2133.7653195243556,1
-2.073899806255189,30.315612523639427,-68.54592363261094,122.26708074534156,-126.78423377505945,119.27946643341349,2.8749007148530836,-12.324894514767935,-9.462745098039214,-22.882882882882875,-3.097560975609766,12.450980392156865,-6.474509803921567,2.032000000000002,-5.478431372549018,9.275500629990905,45.35384447928051,33.645145320835184,2540.202298618933,73.7095389671973,2133.7653195243556,1
-2.073899806255189,30.315612523639427,-68.54592363261094,122.26708074534156,-126.78423377505945,119.27946643341349,2.8749007148530836,-10.18143459915612,-10.458823529411763,-50.342342342342334,-9.769962616701378e-15,18.42745098039216,-2.490196078431371,3.048000000000002,11.454901960784316,13.30039368631476,259.7819091453062,33.645145320835184,2540.202298618933,73.7095389671973,2133.7653195243556,1
-1.7223913645170215,30.235553687749533,-68.72067423460612,122.46428571428567,-126.79861819005549,119.16837961950577,2.7235901509134237,-10.18143459915612,-10.458823529411763,-50.342342342342334,-9.769962616701378e-15,18.42745098039216,-2.490196078431371,3.048000000000002,11.454901960784316,13.30039368631476,259.7819091453062,33.55953976229089,2550.4025340208937,73.80683787888044,2145.936548267907,1
-1.7223913645170215,30.235553687749533,-68.72067423460612,122.46428571428567,-126.79861819005549,119.16837961950577,2.7235901509134237,-6.966244725738399,-5.478431372549018,-45.76576576576576,8.260162601626007,21.415686274509806,1.4941176470588253,2.032000000000002,-4.482352941176469,11.986845166053033,225.26946285373808,33.55953976229089,2550.4025340208937,73.80683787888044,2145.936548267907,1
-1.7223913645170215,30.235553687749533,-68.72067423460612,122.46428571428567,-126.79861819005549,119.16837961950577,2.7235901509134237,-2.67932489451477,26.39607843137255,46.90990990990993,18.585365853658526,-36.35686274509804,0.4980392156862763,2.032000000000002,-9.462745098039214,17.865040768534914,301.76454819159255,33.55953976229089,2550.4025340208937,73.80683787888044,2145.936548267907,1
-2.0387489620813724,30.28892624500946,-68.95367503726636,122.59575569358174,-126.81300260505154,118.89066258473648,2.774027005559958,-2.67932489451477,26.39607843137255,46.90990990990993,18.585365853658526,-36.35686274509804,0.4980392156862763,2.032000000000002,-9.462745098039214,17.865040768534914,301.76454819159255,33.7604500814524,2561.963304202567,73.94611899195252,2148.831063192464,1
-2.0387489620813724,30.28892624500946,-68.95367503726636,122.59575569358174,-126.81300260505154,118.89066258473648,2.774027005559958,-9.109704641350213,-6.474509803921567,-2.2882882882882782,19.617886178861777,17.43137254901961,4.482352941176472,5.080000000000002,37.352941176470594,12.729631947386064,137.66404750119602,33.7604500814524,2561.963304202567,73.94611899195252,2148.831063192464,1
-2.0387489620813724,30.28892624500946,-68.95367503726636,122.59575569358174,-126.81300260505154,118.89066258473648,2.774027005559958,-10.18143459915612,-20.419607843137253,-60.63963963963963,-29.943089430894318,-4.482352941176469,-6.474509803921567,1.0160000000000018,-7.470588235294116,17.578402811652435,391.6038916654683,33.7604500814524,2561.963304202567,73.94611899195252,2148.831063192464,1
-2.706615001383891,30.15549485185964,-68.92454993693383,122.59575569358174,-126.81300260505154,118.89066258473648,2.774027005559958,-10.18143459915612,-20.419607843137253,-60.63963963963963,-29.943089430894318,-4.482352941176469,-6.474509803921567,1.0160000000000018,-7.470588235294116,17.578402811652435,391.6038916654683,33.92888659672579,2546.9314077474487,73.89193349412507,2154.806630674595,1
-2.706615001383891,30.15549485185964,-68.92454993693383,122.59575569358174,-126.81300260505154,118.89066258473648,2.774027005559958,-5.894514767932492,6.4745098039215705,-33.18018018018017,16.52032520325202,-16.435294117647057,-7.470588235294116,-2.0319999999999983,-17.431372549019606,13.179848107155879,99.25046691383795,33.92888659672579,2546.9314077474487,73.89193349412507,2154.806630674595,1
-2.706615001383891,30.15549485185964,-68.92454993693383,122.59575569358174,-126.81300260505154,118.89066258473648,2.774027005559958,-5.894514767932492,-8.466666666666665,-33.18018018018017,-3.097560975609766,-26.396078431372548,4.482352941176472,-1.0159999999999982,-4.482352941176469,10.876963363014323,144.0643602730759,33.92888659672579,2546.9314077474487,73.89193349412507,2154.806630674595,1
-2.8120675339053416,30.10212229459971,-69.12842563926155,122.5300207039337,-126.81300260505154,118.83511917778262,2.774027005559958,-5.894514767932492,-8.466666666666665,-33.18018018018017,-3.097560975609766,-26.396078431372548,4.482352941176472,-1.0159999999999982,-4.482352941176469,10.876963363014323,144.0643602730759,34.014205155922205,2554.6508146131746,73.92018954593165,2152.9498520944912,1
-2.8120675339053416,30.10212229459971,-69.12842563926155,122.5300207039337,-126.81300260505154,118.83511917778262,2.774027005559958,-6.966244725738399,-13.44705882352941,-46.9099099099099,-24.780487804878057,-20.419607843137253,-1.4941176470588218,1.0160000000000018,-3.48627450980392,14.814962658006971,245.78262424132248,34.014205155922205,2554.6508146131746,73.92018954593165,2152.9498520944912,1
-2.8120675339053416,30.10212229459971,-69.12842563926155,122.5300207039337,-126.81300260505154,118.83511917778262,2.774027005559958,-3.7510548523206775,19.423529411764708,17.162162162162176,11.357723577235761,-2.490196078431371,-11.454901960784312,-1.0159999999999982,-12.450980392156861,9.888318554356982,46.58941082266009,34.014205155922205,2554.6508146131746,73.92018954593165,2152.9498520944912,1
-3.0581234431220587,29.96869090144989,-69.21580094025914,122.5300207039337,-126.79861819005549,118.89066258473648,2.774027005559958,-3.7510548523206775,19.423529411764708,17.162162162162176,11.357723577235761,-2.490196078431371,-11.454901960784312,-1.0159999999999982,-12.450980392156861,9.888318554356982,46.58941082266009,34.08087176161036,2550.862029910678,73.90483751521424,2158.3902417019945,1
-3.0581234431220587,29.96869090144989,-69.21580094025914,122.5300207039337,-126.79861819005549,118.89066258473648,2.774027005559958,-5.894514767932492,-7.470588235294116,-38.90090090090089,-18.585365853658544,-34.364705882352936,1.4941176470588253,4.064000000000002,3.4862745098039234,14.282558474625217,218.45067128280184,34.08087176161036,2550.862029910678,73.90483751521424,2158.3902417019945,1
-3.0581234431220587,29.96869090144989,-69.21580094025914,122.5300207039337,-126.79861819005549,118.89066258473648,2.774027005559958,-4.822784810126585,0.4980392156862763,-16.018018018018008,22.715447154471534,10.458823529411767,3.4862745098039234,4.064000000000002,0.4980392156862763,7.820178306650547,63.59135224189605,34.08087176161036,2550.862029910678,73.90483751521424,2158.3902417019945,1
-2.6714641572100746,29.78188695104014,-69.24492604059166,122.5300207039337,-126.79861819005549,118.89066258473648,2.7235901509134237,-4.822784810126585,0.4980392156862763,-16.018018018018008,22.715447154471534,10.458823529411767,3.4862745098039234,4.064000000000002,0.4980392156862763,7.820178306650547,63.59135224189605,33.899425716280625,2548.5925860955076,73.85227789852183,2166.474847018238,1
-2.6714641572100746,29.78188695104014,-69.24492604059166,122.5300207039337,-126.79861819005549,118.89066258473648,2.7235901509134237,-4.822784810126585,2.4901960784313744,-24.027027027027017,-14.455284552845537,-4.482352941176469,-3.48627450980392,2.032000000000002,-2.490196078431371,7.285764499730285,61.947198955260085,33.899425716280625,2548.5925860955076,73.85227789852183,2166.474847018238,1
-2.6714641572100746,29.78188695104014,-69.24492604059166,122.5300207039337,-126.79861819005549,118.89066258473648,2.7235901509134237,-10.18143459915612,-33.36862745098039,-77.80180180180179,-26.845528455284562,-10.458823529411763,-3.48627450980392,4.064000000000002,-8.466666666666665,21.83414462663815,626.6903339307819,33.899425716280625,2548.5925860955076,73.85227789852183,2166.474847018238,1
-2.319955715471907,29.755200672410176,-69.2740511409242,122.59575569358174,-126.81300260505154,118.94620599169033,2.774027005559958,-10.18143459915612,-33.36862745098039,-77.80180180180179,-26.845528455284562,-10.458823529411763,-3.48627450980392,4.064000000000002,-8.466666666666665,21.83414462663815,626.6903339307819,33.78306917626876,2553.0765443760756,73.87500250230538,2170.7187292321423,1
-2.319955715471907,29.755200672410176,-69.2740511409242,122.59575569358174,-126.81300260505154,118.94620599169033,2.774027005559958,-6.966244725738399,8.466666666666669,-1.144144144144132,-20.65040650406505,-26.396078431372548,-2.490196078431371,-1.0159999999999982,-14.44313725490196,10.196609225665014,89.8264499785488,33.78306917626876,2553.0765443760756,73.87500250230538,2170.7187292321423,1
-2.319955715471907,29.755200672410176,-69.2740511409242,122.59575569358174,-126.81300260505154,118.94620599169033,2.774027005559958,-2.67932489451477,-2.490196078431371,-43.47747747747747,13.422764227642265,13.447058823529414,-2.490196078431371,-1.0159999999999982,-1.4941176470588218,10.064641903385684,209.10778337478382,33.78306917626876,2553.0765443760756,73.87500250230538,2170.7187292321423,1
-2.601162468862441,29.78188695104014,-69.18667583992661,122.59575569358174,-126.81300260505154,119.0017493986442,2.7235901509134237,-2.67932489451477,-2.490196078431371,-43.47747747747747,13.422764227642265,13.447058823529414,-2.490196078431371,-1.0159999999999982,-1.4941176470588218,10.064641903385684,209.10778337478382,33.85657508660973,2546.1781502549243,73.85477282818283,2169.9469048582605,1
-2.601162468862441,29.78188695104014,-69.18667583992661,122.59575569358174,-126.81300260505154,119.0017493986442,2.7235901509134237,-9.109704641350213,-5.478431372549018,-35.46846846846846,-26.845528455284562,-22.41176470588235,-3.48627450980392,2.032000000000002,0.4980392156862763,13.1662764211281,174.8151826240107,33.85657508660973,2546.1781502549243,73.85477282818283,2169.9469048582605,1
-2.601162468862441,29.78188695104014,-69.18667583992661,122.59575569358174,-126.81300260505154,119.0017493986442,2.7235901509134237,-5.894514767932492,7.4705882352941195,5.720720720720731,-11.357723577235781,-11.454901960784312,3.4862745098039234,5.080000000000002,6.4745098039215705,7.117404196961616,8.302078488374423,33.85657508660973,2546.1781502549243,73.85477282818283,2169.9469048582605,1
-2.530860780514807,29.942004622819926,-69.18667583992661,122.59575569358174,-126.81300260505154,119.0017493986442,2.7235901509134237,-5.894514767932492,7.4705882352941195,5.720720720720731,-11.357723577235781,-11.454901960784312,3.4862745098039234,5.080000000000002,6.4745098039215705,7.117404196961616,8.302078488374423,33.88651374775378,2553.996659837152,73.90814538544275,2162.8986028726013,1
-2.530860780514807,29.942004622819926,-69.18667583992661,122.59575569358174,-126.81300260505154,119.0017493986442,2.7235901509134237,-9.109704641350213,-1.4941176470588218,10.297297297297309,13.422764227642265,9.462745098039218,-0.49803921568627274,4.064000000000002,-4.482352941176469,6.603877633531321,21.276230098078223,33.88651374775378,2553.996659837152,73.90814538544275,2162.8986028726013,1
-2.530860780514807,29.942004622819926,-69.18667583992661,122.59575569358174,-126.81300260505154,119.0017493986442,2.7235901509134237,-10.18143459915612,-8.466666666666665,-64.07207207207207,-27.878048780487813,2.4901960784313744,-4.482352941176469,1.7763568394002505e-15,2.4901960784313744,15.007620902052738,469.77517687812804,33.88651374775378,2553.996659837152,73.90814538544275,2162.8986028726013,1
-2.6363133130362577,29.995377180079853,-69.04105033826396,122.66149068322977,-126.81300260505154,119.05729280559805,2.7235901509134237,-10.18143459915612,-8.466666666666665,-64.07207207207207,-27.878048780487813,2.4901960784313744,-4.482352941176469,1.7763568394002505e-15,2.4901960784313744,15.007620902052738,469.77517687812804,33.890913610460025,2547.105049904056,73.8993060671912,2164.4541344904064,1
-2.6363133130362577,29.995377180079853,-69.04105033826396,122.66149068322977,-126.81300260505154,119.05729280559805,2.7235901509134237,-8.037974683544306,3.4862745098039234,-2.2882882882882782,-12.390243902439034,22.411764705882355,-2.490196078431371,2.032000000000002,4.482352941176472,7.202386888695718,50.46161781396389,33.890913610460025,2547.105049904056,73.8993060671912,2164.4541344904064,1
-2.6363133130362577,29.995377180079853,-69.04105033826396,122.66149068322977,-126.81300260505154,119.05729280559805,2.7235901509134237,-9.109704641350213,-1.4941176470588218,-46.9099099099099,-11.357723577235781,14.443137254901963,2.4901960784313744,-2.0319999999999983,-23.4078431372549,13.90557903076787,233.52814971035795,33.890913610460025,2547.105049904056,73.8993060671912,2164.4541344904064,1
-2.4957099363409907,29.995377180079853,-68.9828001375989,122.66149068322977,-126.81300260505154,119.05729280559805,2.7235901509134237,-9.109704641350213,-1.4941176470588218,-46.9099099099099,-11.357723577235781,14.443137254901963,2.4901960784313744,-2.0319999999999983,-23.4078431372549,13.90557903076787,233.52814971035795,33.82462908467325,2545.480581761152,73.87988933363617,2164.7382598901245,1
-2.4957099363409907,29.995377180079853,-68.9828001375989,122.66149068322977,-126.81300260505154,119.05729280559805,2.7235901509134237,-9.109704641350213,-10.458823529411763,8.00900900900902,24.78048780487804,14.443137254901963,1.4941176470588253,1.7763568394002505e-15,-0.49803921568627274,8.599164887787012,70.01572280783863,33.82462908467325,2545.480581761152,73.87988933363617,2164.7382598901245,1
-2.4957099363409907,29.995377180079853,-68.9828001375989,122.66149068322977,-126.81300260505154,119.05729280559805,2.7235901509134237,-6.966244725738399,11.454901960784316,-11.441441441441432,-11.357723577235781,-33.36862745098039,0.4980392156862763,4.064000000000002,4.482352941176472,10.454166414130384,102.23599617459891,33.82462908467325,2545.480581761152,73.87988933363617,2164.7382598901245,1
-3.1284251314696925,29.808573229670102,-68.72067423460612,122.66149068322977,-126.81300260505154,119.05729280559805,2.7235901509134237,-6.966244725738399,11.454901960784316,-11.441441441441432,-11.357723577235781,-33.36862745098039,0.4980392156862763,4.064000000000002,4.482352941176472,10.454166414130384,102.23599617459891,33.88589086524863,2515.8669348877015,73.73024604916867,2174.237927233336,1
-3.1284251314696925,29.808573229670102,-68.72067423460612,122.66149068322977,-126.81300260505154,119.05729280559805,2.7235901509134237,-5.894514767932492,-3.48627450980392,-53.77477477477477,-9.769962616701378e-15,16.43529411764706,7.4705882352941195,3.048000000000002,-5.478431372549018,11.948484722250175,308.8182306772397,33.88589086524863,2515.8669348877015,73.73024604916867,2174.237927233336,1
-3.1284251314696925,29.808573229670102,-68.72067423460612,122.66149068322977,-126.81300260505154,119.05729280559805,2.7235901509134237,-10.18143459915612,-3.48627450980392,-25.17117117117116,-11.357723577235781,6.4745098039215705,3.4862745098039234,6.096000000000002,4.482352941176472,8.84196763903362,52.040631521459154,33.88589086524863,2515.8669348877015,73.73024604916867,2174.237927233336,1
-4.604760586769997,29.808573229670102,-68.80804953560371,122.20134575569352,-126.71231170007928,119.50164006122894,2.572279586973764,-10.18143459915612,-3.48627450980392,-25.17117117117116,-11.357723577235781,6.4745098039215705,3.4862745098039234,6.096000000000002,4.482352941176472,8.84196763903362,52.040631521459154,34.407127784014605,2505.2630236395826,73.60598950698912,2151.37127473814,1
-4.604760586769997,29.808573229670102,-68.80804953560371,122.20134575569352,-126.71231170007928,119.50164006122894,2.572279586973764,-4.822784810126585,-2.490196078431371,-32.03603603603602,-3.097560975609766,5.4784313725490215,-10.458823529411763,1.0160000000000018,7.4705882352941195,8.358802629682332,100.37833028888417,34.407127784014605,2505.2630236395826,73.60598950698912,2151.37127473814,1
-4.604760586769997,29.808573229670102,-68.80804953560371,122.20134575569352,-126.71231170007928,119.50164006122894,2.572279586973764,-4.822784810126585,3.4862745098039234,-10.297297297297288,-22.715447154471555,37.352941176470594,-0.49803921568627274,-1.0159999999999982,4.482352941176472,10.583892138129087,168.27186478415913,34.407127784014605,2505.2630236395826,73.60598950698912,2151.37127473814,1
-5.8350401328535835,29.888632065559996,-68.83717463593624,121.60973084886132,-126.58285196511497,120.16816094467525,2.471405877680695,-4.822784810126585,3.4862745098039234,-10.297297297297288,-22.715447154471555,37.352941176470594,-0.49803921568627274,-1.0159999999999982,4.482352941176472,10.583892138129087,168.27186478415913,34.85361561144994,2498.7057693575707,73.44517918345251,2119.115269936478,1
-5.8350401328535835,29.888632065559996,-68.83717463593624,121.60973084886132,-126.58285196511497,120.16816094467525,2.471405877680695,-9.109704641350213,-0.49803921568627274,-5.72072072072071,-5.1626016260162695,-13.44705882352941,-1.4941176470588218,5.080000000000002,20.419607843137257,7.616481314687369,43.47858927211411,34.85361561144994,2498.7057693575707,73.44517918345251,2119.115269936478,1
-5.8350401328535835,29.888632065559996,-68.83717463593624,121.60973084886132,-126.58285196511497,120.16816094467525,2.471405877680695,-6.966244725738399,-2.490196078431371,-19.45045045045044,-9.292682926829277,-21.415686274509802,0.4980392156862763,3.048000000000002,2.4901960784313744,8.206436968759618,65.00140017025039,34.85361561144994,2498.7057693575707,73.44517918345251,2119.115269936478,1
-7.381677276501522,29.995377180079853,-68.77892443527118,120.62370600414079,-126.36708574017442,121.05685545593701,2.269658459094501,-6.966244725738399,-2.490196078431371,-19.45045045045044,-9.292682926829277,-21.415686274509802,0.4980392156862763,3.048000000000002,2.4901960784313744,8.206436968759618,65.00140017025039,35.38532629728419,2487.171469687606,73.13266920649727,2067.5898165102626,1
-7.381677276501522,29.995377180079853,-68.77892443527118,120.62370600414079,-126.36708574017442,121.05685545593701,2.269658459094501,-4.822784810126585,0.4980392156862763,-12.585585585585576,-37.17073170731708,-16.435294117647057,4.482352941176472,5.080000000000002,28.38823529411765,13.682877958957087,169.67243519913015,35.38532629728419,2487.171469687606,73.13266920649727,2067.5898165102626,1
-7.381677276501522,29.995377180079853,-68.77892443527118,120.62370600414079,-126.36708574017442,121.05685545593701,2.269658459094501,-6.966244725738399,-14.44313725490196,3.4324324324324422,5.162601626016251,17.43137254901961,0.4980392156862763,2.032000000000002,9.462745098039218,7.42857161272927,35.98153977784837,35.38532629728419,2487.171469687606,73.13266920649727,2067.5898165102626,1
-9.771934680321063,30.02206345870982,-68.63329893360853,119.11180124223597,-126.05062861026164,122.22326700196805,2.0679110405083634,-6.966244725738399,-14.44313725490196,3.4324324324324422,5.162601626016251,17.43137254901961,0.4980392156862763,2.032000000000002,9.462745098039218,7.42857161272927,35.98153977784837,36.142432357546475,2463.5171697345077,72.58905454485144,1995.9813464262713,1
-9.771934680321063,30.02206345870982,-68.63329893360853,119.11180124223597,-126.05062861026164,122.22326700196805,2.0679110405083634,-3.7510548523206775,3.4862745098039234,-65.21621621621621,10.32520325203251,-49.305882352941175,-1.4941176470588218,2.032000000000002,-11.454901960784312,18.383206348894703,607.2996031381487,36.142432357546475,2463.5171697345077,72.58905454485144,1995.9813464262713,1
-9.771934680321063,30.02206345870982,-68.63329893360853,119.11180124223597,-126.05062861026164,122.22326700196805,2.0679110405083634,-6.966244725738399,-2.490196078431371,-67.5045045045045,-20.65040650406505,-8.466666666666665,-0.49803921568627274,1.0160000000000018,-1.4941176470588218,13.635771917768885,517.9642834243507,36.142432357546475,2463.5171697345077,72.58905454485144,1995.9813464262713,1
-11.459175200664268,29.995377180079853,-69.24492604059166,117.13975155279502,-125.64786499037263,123.77848239667613,1.8157267672756348,-6.966244725738399,-2.490196078431371,-67.5045045045045,-20.65040650406505,-8.466666666666665,-0.49803921568627274,1.0160000000000018,-1.4941176470588218,13.635771917768885,517.9642834243507,36.89982614044526,2484.385116092142,72.12668492448886,1904.763896901674,1
-11.459175200664268,29.995377180079853,-69.24492604059166,117.13975155279502,-125.64786499037263,123.77848239667613,1.8157267672756348,-12.324894514767935,-0.49803921568627274,-25.17117117117116,-3.097560975609766,19.423529411764708,-1.4941176470588218,1.7763568394002505e-15,-9.462745098039214,8.934007254262236,89.40733602518019,36.89982614044526,2484.385116092142,72.12668492448886,1904.763896901674,1
-11.459175200664268,29.995377180079853,-69.24492604059166,117.13975155279502,-125.64786499037263,123.77848239667613,1.8157267672756348,-6.966244725738399,2.4901960784313744,-11.441441441441432,11.357723577235761,3.4862745098039234,-1.4941176470588218,3.048000000000002,-7.470588235294116,5.969323276875478,15.579719459177195,36.89982614044526,2484.385116092142,72.12668492448886,1904.763896901674,1
-11.142817603099918,29.64845555789032,-68.9828001375989,115.49637681159425,-125.2738702004757,125.55587141919963,1.4626687847497806,-6.966244725738399,2.4901960784313744,-11.441441441441432,11.357723577235761,3.4862745098039234,-1.4941176470588218,3.048000000000002,-7.470588235294116,5.969323276875478,15.579719459177195,36.59135776619638,2456.252690959108,71.37587750236115,1846.7615103508408,1
-11.142817603099918,29.64845555789032,-68.9828001375989,115.49637681159425,-125.2738702004757,125.55587141919963,1.4626687847497806,-4.822784810126585,1.4941176470588253,-9.153153153153143,19.617886178861777,22.411764705882355,7.4705882352941195,2.032000000000002,18.42745098039216,10.678718213846121,69.09285565170963,36.59135776619638,2456.252690959108,71.37587750236115,1846.7615103508408,1
-11.142817603099918,29.64845555789032,-68.9828001375989,115.49637681159425,-125.2738702004757,125.55587141919963,1.4626687847497806,-8.037974683544306,2.4901960784313744,-2.2882882882882782,-35.10569105691057,-9.462745098039214,4.482352941176472,10.160000000000002,36.35686274509804,13.548013861436033,196.3926551463194,36.59135776619638,2456.252690959108,71.37587750236115,1846.7615103508408,1
-6.74896208137282,29.942004622819926,-68.86629973626877,114.70755693581782,-125.02933514554309,126.72228296523069,1.0087370929309145,-8.037974683544306,2.4901960784313744,-2.2882882882882782,-35.10569105691057,-9.462745098039214,4.482352941176472,10.160000000000002,36.35686274509804,13.548013861436033,196.3926551463194,35.18575548015384,2494.645280889807,71.17195376496885,1800.2867451069415,1
-6.74896208137282,29.942004622819926,-68.86629973626877,114.70755693581782,-125.02933514554309,126.72228296523069,1.0087370929309145,-8.037974683544306,-2.490196078431371,18.30630630630632,14.45528455284552,17.43137254901961,2.4901960784313744,2.032000000000002,-13.44705882352941,9.836298634013488,47.9814699316605,35.18575548015384,2494.645280889807,71.17195376496885,1800.2867451069415,1
-6.74896208137282,29.942004622819926,-68.86629973626877,114.70755693581782,-125.02933514554309,126.72228296523069,1.0087370929309145,-11.253164556962027,-5.478431372549018,-66.36036036036035,-24.780487804878057,15.439215686274512,-12.450980392156861,-7.111999999999998,-18.427450980392155,20.16276139419662,386.5241624154114,35.18575548015384,2494.645280889807,71.17195376496885,1800.2867451069415,1
-2.7769166897315247,29.861945786930033,-68.40029813094829,114.70755693581782,-125.01495073054707,126.77782637218455,0.9583002382843802,-11.253164556962027,-5.478431372549018,-66.36036036036035,-24.780487804878057,15.439215686274512,-12.450980392156861,-7.111999999999998,-18.427450980392155,20.16276139419662,386.5241624154114,33.679720202536615,2504.532019221079,70.98993361789871,1804.7240917735226,1
-2.7769166897315247,29.861945786930033,-68.40029813094829,114.70755693581782,-125.01495073054707,126.77782637218455,0.9583002382843802,-5.894514767932492,1.4941176470588253,-4.576576576576567,-30.97560975609757,-34.364705882352936,-5.478431372549018,5.080000000000002,-6.474509803921567,11.792308225811123,169.08782519444432,33.679720202536615,2504.532019221079,70.98993361789871,1804.7240917735226,1
-2.7769166897315247,29.861945786930033,-68.40029813094829,114.70755693581782,-125.01495073054707,126.77782637218455,0.9583002382843802,-9.109704641350213,-1.4941176470588218,-17.162162162162154,-1.0325203252032615,-10.458823529411763,2.4901960784313744,-1.0159999999999982,-22.41176470588235,8.146911136187493,66.96503505299403,33.679720202536615,2504.532019221079,70.98993361789871,1804.7240917735226,1
-2.1793523387766394,30.15549485185964,-68.2255475289531,114.70755693581782,-124.94302865556688,126.83336977913841,0.7061159650516515,-9.109704641350213,-1.4941176470588218,-17.162162162162154,-1.0325203252032615,-10.458823529411763,2.4901960784313744,-1.0159999999999982,-22.41176470588235,8.146911136187493,66.96503505299403,33.52013157319646,2514.4119569793265,71.02953310554352,1793.1595519976747,1
-2.1793523387766394,30.15549485185964,-68.2255475289531,114.70755693581782,-124.94302865556688,126.83336977913841,0.7061159650516515,-8.037974683544306,-0.49803921568627274,-10.297297297297288,-11.357723577235781,3.4862745098039234,0.4980392156862763,2.032000000000002,-16.435294117647057,6.580330327112613,34.30476979996774,33.52013157319646,2514.4119569793265,71.02953310554352,1793.1595519976747,1
-2.1793523387766394,30.15549485185964,-68.2255475289531,114.70755693581782,-124.94302865556688,126.83336977913841,0.7061159650516515,-2.67932489451477,8.466666666666669,9.153153153153163,8.260162601626007,-1.4941176470588218,-19.423529411764704,4.064000000000002,2.4901960784313744,7.003893806651939,34.38007891547239,33.52013157319646,2514.4119569793265,71.02953310554352,1793.1595519976747,1
-3.2690285081649595,30.609161588569034,-68.77892443527118,114.51035196687371,-124.77041567561446,126.99999999999999,0.20174741858619427,-2.67932489451477,8.466666666666669,9.153153153153163,8.260162601626007,-1.4941176470588218,-19.423529411764704,4.064000000000002,2.4901960784313744,7.003893806651939,34.38007891547239,34.21903817733506,2552.8783120154994,71.29947933023799,1764.6173344580372,1
-3.2690285081649595,30.609161588569034,-68.77892443527118,114.51035196687371,-124.77041567561446,126.99999999999999,0.20174741858619427,-6.966244725738399,-4.482352941176469,-21.73873873873873,26.84552845528454,23.407843137254904,11.454901960784316,8.128000000000002,22.411764705882355,15.679421833107464,77.51636311427328,34.21903817733506,2552.8783120154994,71.29947933023799,1764.6173344580372,1
-3.2690285081649595,30.609161588569034,-68.77892443527118,114.51035196687371,-124.77041567561446,126.99999999999999,0.20174741858619427,-3.7510548523206775,4.482352941176472,-6.864864864864854,19.617886178861777,-9.462745098039214,9.462745098039218,11.176000000000002,13.447058823529414,9.783088482103953,26.470374675573456,34.21903817733506,2552.8783120154994,71.29947933023799,1764.6173344580372,1
-2.073899806255189,32.23702458499685,-70.20605435156519,114.1159420289855,-124.5546494506739,126.2779357095998,-0.25218427323272863,-3.7510548523206775,4.482352941176472,-6.864864864864854,19.617886178861777,-9.462745098039214,9.462745098039218,11.176000000000002,13.447058823529414,9.783088482103953,26.470374675573456,34.83899291427241,2718.9690729284835,72.18634032184917,1678.9804298429547,1
-2.073899806255189,32.23702458499685,-70.20605435156519,114.1159420289855,-124.5546494506739,126.2779357095998,-0.25218427323272863,-1.607594936708863,-0.49803921568627274,-53.77477477477477,-2.0650406504065137,-14.44313725490196,-11.454901960784312,-1.0159999999999982,-5.478431372549018,11.292240020726464,321.3671687171075,34.83899291427241,2718.9690729284835,72.18634032184917,1678.9804298429547,1
-2.073899806255189,32.23702458499685,-70.20605435156519,114.1159420289855,-124.5546494506739,126.2779357095998,-0.25218427323272863,-4.822784810126585,6.4745098039215705,18.30630630630632,34.07317073170731,21.415686274509806,7.4705882352941195,3.048000000000002,-1.4941176470588218,12.138145476115566,129.79539125089815,34.83899291427241,2718.9690729284835,72.18634032184917,1678.9804298429547,1
-0.5975643509548849,33.70476990964489,-70.58468065588808,113.72153209109729,-124.32449881073734,124.55609009403017,-0.7061159650516515,-4.822784810126585,6.4745098039215705,18.30630630630632,34.07317073170731,21.415686274509806,7.4705882352941195,3.048000000000002,-1.4941176470588218,12.138145476115566,129.79539125089815,34.962338305495955,2825.189347277818,72.67032755221008,1603.9329997328812,1
-0.5975643509548849,33.70476990964489,-70.58468065588808,113.72153209109729,-124.32449881073734,124.55609009403017,-0.7061159650516515,-9.109704641350213,-4.482352941176469,-11.441441441441432,16.52032520325202,39.345098039215685,11.454901960784316,2.032000000000002,-3.48627450980392,12.234012342128008,143.58173176095826,34.962338305495955,2825.189347277818,72.67032755221008,1603.9329997328812,1
-0.5975643509548849,33.70476990964489,-70.58468065588808,113.72153209109729,-124.32449881073734,124.55609009403017,-0.7061159650516515,-2.67932489451477,-0.49803921568627274,-26.315315315315306,7.227642276422754,3.4862745098039234,2.4901960784313744,-1.0159999999999982,-3.48627450980392,5.899883349997289,72.17628886385428,34.962338305495955,2825.189347277818,72.67032755221008,1603.9329997328812,1
2.1442014946028234,35.75961336415214,-72.09918587317968,113.26138716356104,-123.93611960584437,121.6122895254756,-1.5635424940429061,-2.67932489451477,-0.49803921568627274,-26.315315315315306,7.227642276422754,3.4862745098039234,2.4901960784313744,-1.0159999999999982,-3.48627450980392,5.899883349997289,72.17628886385428,36.667666910644876,3045.9328426535158,73.70672880029763,1503.5693812105812,1
2.1442014946028234,35.75961336415214,-72.09918587317968,113.26138716356104,-123.93611960584437,121.6122895254756,-1.5635424940429061,-6.966244725738399,-9.462745098039214,-46.9099099099099,1.032520325203242,8.466666666666669,-8.466666666666665,4.064000000000002,-6.474509803921567,11.480407899518205,212.44057058893847,36.667666910644876,3045.9328426535158,73.70672880029763,1503.5693812105812,1
2.1442014946028234,35.75961336415214,-72.09918587317968,113.26138716356104,-123.93611960584437,121.6122895254756,-1.5635424940429061,-2.67932489451477,-0.49803921568627274,-9.153153153153143,14.45528455284552,4.482352941176472,14.443137254901963,1.7763568394002505e-15,-2.490196078431371,6.02518601133869,34.94801935599051,36.667666910644876,3045.9328426535158,73.70672880029763,1503.5693812105812,1
-5.940492665375034,36.560201723051065,-73.93406719412911,109.90890269151134,-122.98674821610601,118.83511917778262,-2.3705321683876264,-2.67932489451477,-0.49803921568627274,-9.153153153153143,14.45528455284552,4.482352941176472,14.443137254901963,1.7763568394002505e-15,-2.490196078431371,6.02518601133869,34.94801935599051,38.81158719418507,3106.403110706293,73.46772386956384,1345.1710905124264,1
-5.940492665375034,36.560201723051065,-73.93406719412911,109.90890269151134,-122.98674821610601,118.83511917778262,-2.3705321683876264,-9.109704641350213,-3.48627450980392,-50.342342342342334,-22.715447154471555,-25.4,-1.4941176470588218,1.7763568394002505e-15,1.4941176470588253,14.255250492760707,309.91589182102854,38.81158719418507,3106.403110706293,73.46772386956384,1345.1710905124264,1
-5.940492665375034,36.560201723051065,-73.93406719412911,109.90890269151134,-122.98674821610601,118.83511917778262,-2.3705321683876264,-10.18143459915612,-3.48627450980392,-11.441441441441432,-68.14634146341464,-3.48627450980392,3.4862745098039234,1.7763568394002505e-15,6.4745098039215705,13.33781885466819,504.81348003968515,38.81158719418507,3106.403110706293,73.46772386956384,1345.1710905124264,1
-19.754774425685028,38.855221685227995,-74.54569430111225,103.6640786749482,-121.30377166156981,117.83533785261315,-3.8836378077839413,-10.18143459915612,-3.48627450980392,-11.441441441441432,-68.14634146341464,-3.48627450980392,3.4862745098039234,1.7763568394002505e-15,6.4745098039215705,13.33781885466819,504.81348003968515,44.38523013734176,3216.15738190962,72.35499822042948,1053.6463480669404,1
-19.754774425685028,38.855221685227995,-74.54569430111225,103.6640786749482,-121.30377166156981,117.83533785261315,-3.8836378077839413,-10.18143459915612,2.4901960784313744,-35.46846846846846,13.422764227642265,40.34117647058824,8.466666666666669,1.0160000000000018,-1.4941176470588218,14.110103019751492,236.80644160148287,44.38523013734176,3216.15738190962,72.35499822042948,1053.6463480669404,1
-19.754774425685028,38.855221685227995,-74.54569430111225,103.6640786749482,-121.30377166156981,117.83533785261315,-3.8836378077839413,-5.894514767932492,47.31372549019608,106.40540540540542,10.32520325203251,-2.490196078431371,9.462745098039218,8.128000000000002,8.466666666666669,24.81080709483797,1287.2769008516166,44.38523013734176,3216.15738190962,72.35499822042948,1053.6463480669404,1
-38.03321339606975,43.65875183862157,-75.73982341474601,93.67236024844715,-118.65703930229924,118.1685982943363,-6.001985702938839,-5.894514767932492,47.31372549019608,106.40540540540542,10.32520325203251,-2.490196078431371,9.462745098039218,8.128000000000002,8.466666666666669,24.81080709483797,1287.2769008516166,52.47726288314578,3725.2308992567723,71.02364516727158,642.0220094893073,1
-38.03321339606975,43.65875183862157,-75.73982341474601,93.67236024844715,-118.65703930229924,118.1685982943363,-6.001985702938839,-4.822784810126585,1.4941176470588253,-51.48648648648648,7.227642276422754,-22.41176470588235,-3.48627450980392,2.032000000000002,-1.4941176470588218,11.806898510354968,304.88123481847776,52.47726288314578,3725.2308992567723,71.02364516727158,642.0220094893073,1
-38.03321339606975,43.65875183862157,-75.73982341474601,93.67236024844715,-118.65703930229924,118.1685982943363,-6.001985702938839,-20.898734177215193,-20.419607843137253,-84.66666666666666,-35.10569105691057,-17.431372549019606,-5.478431372549018,2.032000000000002,2.4901960784313744,23.565337467991213,736.5952119454435,52.47726288314578,3725.2308992567723,71.02364516727158,642.0220094893073,1
-59.82673678383615,49.31624290817399,-73.20593968581584,81.64285714285711,-115.06093555329028,122.33435381587577,-9.88562351072278,-20.898734177215193,-20.419607843137253,-84.66666666666666,-35.10569105691057,-17.431372549019606,-5.478431372549018,2.032000000000002,2.4901960784313744,23.565337467991213,736.5952119454435,60.782973125941986,4517.1463856563105,68.05501324561565,281.1515293637694,1
-59.82673678383615,49.31624290817399,-73.20593968581584,81.64285714285711,-115.06093555329028,122.33435381587577,-9.88562351072278,-4.822784810126585,1.4941176470588253,24.02702702702704,-36.13821138211383,-18.427450980392155,-1.4941176470588218,1.0160000000000018,-16.435294117647057,12.981875451428039,167.6402506491889,60.782973125941986,4517.1463856563105,68.05501324561565,281.1515293637694,1
-59.82673678383615,49.31624290817399,-73.20593968581584,81.64285714285711,-115.06093555329028,122.33435381587577,-9.88562351072278,10.181434599156116,-14.44313725490196,-37.756756756756744,-33.04065040650407,-23.4078431372549,-3.48627450980392,4.064000000000002,-25.4,18.972512083047214,167.37581324280046,60.782973125941986,4517.1463856563105,68.05501324561565,281.1515293637694,1
-46.61001937448104,58.81655810044128,-64.20628368306386,72.70289855072463,-110.38600067957864,125.11152416356876,-19.01469420174743,10.181434599156116,-14.44313725490196,-37.756756756756744,-33.04065040650407,-23.4078431372549,-3.48627450980392,4.064000000000002,-25.4,18.972512083047214,167.37581324280046,56.54428705266205,4426.501892697107,65.24191344474326,49.01200952775098,1
-46.61001937448104,58.81655810044128,-64.20628368306386,72.70289855072463,-110.38600067957864,125.11152416356876,-19.01469420174743,2.6793248945147656,-8.466666666666665,-21.73873873873873,-10.32520325203253,1.4941176470588253,-6.474509803921567,1.0160000000000018,-22.41176470588235,9.32579071360193,72.82199271238073,56.54428705266205,4426.501892697107,65.24191344474326,49.01200952775098,1
-46.61001937448104,58.81655810044128,-64.20628368306386,72.70289855072463,-110.38600067957864,125.11152416356876,-19.01469420174743,-6.966244725738399,-13.44705882352941,-53.77477477477477,15.48780487804877,5.4784313725490215,-0.49803921568627274,9.144000000000002,-6.474509803921567,13.908857949281028,281.2990127913637,56.54428705266205,4426.501892697107,65.24191344474326,49.01200952775098,1
-16.626349294215334,62.87287245219584,-74.72044490310743,68.29865424430636,-107.1063540604825,120.27924775858298,-25.773232724384457,-6.966244725738399,-13.44705882352941,-53.77477477477477,15.48780487804877,5.4784313725490215,-0.49803921568627274,9.144000000000002,-6.474509803921567,13.908857949281028,281.2990127913637,51.40655554983954,4771.161863956226,68.63065719986987,35.17391271677701,1
-16.626349294215334,62.87287245219584,-74.72044490310743,68.29865424430636,-107.1063540604825,120.27924775858298,-25.773232724384457,-12.324894514767935,4.482352941176472,-5.72072072072071,-14.455284552845537,10.458823529411767,-7.470588235294116,-7.111999999999998,-2.490196078431371,8.064357571580988,16.483400589835757,51.40655554983954,4771.161863956226,68.63065719986987,35.17391271677701,1
-16.626349294215334,62.87287245219584,-74.72044490310743,68.29865424430636,-107.1063540604825,120.27924775858298,-25.773232724384457,-16.61181434599156,-4.482352941176469,-42.33333333333333,20.65040650406503,-2.490196078431371,-1.4941176470588218,2.032000000000002,-1.4941176470588218,11.448542312139427,211.5480243802818,51.40655554983954,4771.161863956226,68.63065719986987,35.17391271677701,1
-17.926930528646555,65.94179449464174,-83.69097580552689,60.80486542443066,-103.33763733152112,112.16991034331947,-30.968228752978575,-16.61181434599156,-4.482352941176469,-42.33333333333333,20.65040650406503,-2.490196078431371,-1.4941176470588218,2.032000000000002,-1.4941176470588218,11.448542312139427,211.5480243802818,55.85323360960506,5624.80643931909,70.14587857486643,144.19925430912917,1
-17.926930528646555,65.94179449464174,-83.69097580552689,60.80486542443066,-103.33763733152112,112.16991034331947,-30.968228752978575,-3.7510548523206775,18.42745098039216,41.1891891891892,-41.30081300813009,-21.415686274509802,-4.482352941176469,3.048000000000002,10.458823529411767,18.00917134689127,251.2437432340835,55.85323360960506,5624.80643931909,70.14587857486643,144.19925430912917,1
-17.926930528646555,65.94179449464174,-83.69097580552689,60.80486542443066,-103.33763733152112,112.16991034331947,-30.968228752978575,-3.7510548523206775,1.4941176470588253,-16.018018018018008,-19.617886178861795,-6.474509803921567,-2.490196078431371,-2.0319999999999983,6.4745098039215705,7.294036547816727,46.61229443211373,55.85323360960506,5624.80643931909,70.14587857486643,144.19925430912917,1
-35.85386105729311,72.58667787350285,-84.9433551198257,49.827122153209075,-98.15924793294823,105.1158976601793,-37.17196187450355,-3.7510548523206775,1.4941176470588253,-16.018018018018008,-19.617886178861795,-6.474509803921567,-2.490196078431371,-2.0319999999999983,6.4745098039215705,7.294036547816727,46.61229443211373,64.46129801687388,6497.47336763268,69.11905171551254,317.305777820107,1
-35.85386105729311,72.58667787350285,-84.9433551198257,49.827122153209075,-98.15924793294823,105.1158976601793,-37.17196187450355,-2.67932489451477,4.482352941176472,-26.315315315315306,5.162601626016251,17.43137254901961,-5.478431372549018,6.096000000000002,5.4784313725490215,9.140478758892556,68.43887364129985,64.46129801687388,6497.47336763268,69.11905171551254,317.305777820107,1
-35.85386105729311,72.58667787350285,-84.9433551198257,49.827122153209075,-98.15924793294823,105.1158976601793,-37.17196187450355,-5.894514767932492,-4.482352941176469,-18.306306306306297,-77.43902439024392,-22.41176470588235,-8.466666666666665,-2.0319999999999983,-2.490196078431371,17.690353232079946,638.2104433872818,64.46129801687388,6497.47336763268,69.11905171551254,317.305777820107,1
-56.45225574314974,80.56587518386216,-85.43848182547873,37.92908902691511,-92.33355985955373,100.22807784823965,-43.67831612390785,-5.894514767932492,-4.482352941176469,-18.306306306306297,-77.43902439024392,-22.41176470588235,-8.466666666666665,-2.0319999999999983,-2.490196078431371,17.690353232079946,638.2104433872818,74.15220425083021,7861.936008552062,67.97781534541866,683.1300388942278,1
-56.45225574314974,80.56587518386216,-85.43848182547873,37.92908902691511,-92.33355985955373,100.22807784823965,-43.67831612390785,-2.67932489451477,-2.490196078431371,-19.45045045045044,-15.48780487804879,9.462745098039218,6.4745098039215705,21.336000000000002,3.4862745098039234,10.10841321415126,58.996238192909864,74.15220425083021,7861.936008552062,67.97781534541866,683.1300388942278,1
-56.45225574314974,80.56587518386216,-85.43848182547873,37.92908902691511,-92.33355985955373,100.22807784823965,-43.67831612390785,-3.7510548523206775,-0.49803921568627274,-51.48648648648648,-70.21138211382114,-21.415686274509802,-2.490196078431371,-3.0479999999999983,5.4784313725490215,19.7974095492256,709.0645335949257,74.15220425083021,7861.936008552062,67.97781534541866,683.1300388942278,1
-62.74425685026294,87.53099390628284,-90.97225088865954,24.519151138716325,-85.71672896137727,93.72949923463808,-49.78117553613981,-3.7510548523206775,-0.49803921568627274,-51.48648648648648,-70.21138211382114,-21.415686274509802,-2.490196078431371,-3.0479999999999983,5.4784313725490215,19.7974095492256,709.0645335949257,80.41583388173511,9207.146506616265,67.67413197788623,1399.724840826531,1
-62.74425685026294,87.53099390628284,-90.97225088865954,24.519151138716325,-85.71672896137727,93.72949923463808,-49.78117553613981,-11.253164556962027,-15.439215686274508,-127.0,-72.27642276422765,18.42745098039216,-1.4941176470588218,-7.111999999999998,-1.4941176470588218,31.812061160246746,2002.3489668231086,80.41583388173511,9207.146506616265,67.67413197788623,1399.724840826531,1
-62.74425685026294,87.53099390628284,-90.97225088865954,24.519151138716325,-85.71672896137727,93.72949923463808,-49.78117553613981,-4.822784810126585,-5.478431372549018,-25.17117117117116,97.05691056910568,49.30588235294118,10.458823529411767,8.128000000000002,4.482352941176472,25.613044593310235,1069.3275257679759,80.41583388173511,9207.146506616265,67.67413197788623,1399.724840826531,1
-69.07140880154996,93.26854381172515,-95.60314184153194,10.057453416149087,-78.36629289840299,86.28668270282088,-55.27879269261314,-4.822784810126585,-5.478431372549018,-25.17117117117116,97.05691056910568,49.30588235294118,10.458823529411767,8.128000000000002,4.482352941176472,25.613044593310235,1069.3275257679759,85.98103148493567,10455.117785681341,66.30971302313539,2374.6001201590316,1
-69.07140880154996,93.26854381172515,-95.60314184153194,10.057453416149087,-78.36629289840299,86.28668270282088,-55.27879269261314,-8.037974683544306,-1.4941176470588218,-6.864864864864854,23.747967479674784,14.443137254901963,6.4745098039215705,-7.111999999999998,16.43529411764706,10.57623323145167,50.614715193596496,85.98103148493567,10455.117785681341,66.30971302313539,2374.6001201590316,1
-69.07140880154996,93.26854381172515,-95.60314184153194,10.057453416149087,-78.36629289840299,86.28668270282088,-55.27879269261314,-6.966244725738399,2.4901960784313744,-42.33333333333333,-16.520325203252042,14.443137254901963,2.4901960784313744,5.080000000000002,-4.482352941176469,11.850723201908119,179.5639932737895,85.98103148493567,10455.117785681341,66.30971302313539,2374.6001201590316,1
-77.15610296152782,98.41899558730826,-100.17578259373924,-5.258799171842611,-70.2534828406388,78.62169254318826,-59.96942017474191,-6.966244725738399,2.4901960784313744,-42.33333333333333,-16.520325203252042,14.443137254901963,2.4901960784313744,5.080000000000002,-4.482352941176469,11.850723201908119,179.5639932737895,91.91696038085844,11799.4011335971,67.95119245096338,2948.523706444451,1
-77.15610296152782,98.41899558730826,-100.17578259373924,-5.258799171842611,-70.2534828406388,78.62169254318826,-59.96942017474191,-11.253164556962027,3.4862745098039234,14.873873873873883,-14.455284552845537,-19.423529411764704,0.4980392156862763,2.032000000000002,-11.454901960784312,9.684633510215082,47.35764700102867,91.91696038085844,11799.4011335971,67.95119245096338,2948.523706444451,1
-77.15610296152782,98.41899558730826,-100.17578259373924,-5.258799171842611,-70.2534828406388,78.62169254318826,-59.96942017474191,-8.037974683544306,2.4901960784313744,-2.2882882882882782,65.04878048780486,1.4941176470588253,3.4862745098039234,5.080000000000002,3.4862745098039234,11.426488275591936,473.6028789605748,91.91696038085844,11799.4011335971,67.95119245096338,2948.523706444451,1
-80.74148906725713,104.55683967220006,-108.56381148950808,-21.42960662525877,-61.53652735304111,69.29040017493985,-62.99563145353454,-8.037974683544306,2.4901960784313744,-2.2882882882882782,65.04878048780486,1.4941176470588253,3.4862745098039234,5.080000000000002,3.4862745098039234,11.426488275591936,473.6028789605748,97.95404674298841,13421.660701699018,78.1834192623223,2419.7603924183595,1
-87.94741212288957,110.05421306997269,-118.32072010090585,-39.04658385093171,-52.10035111564163,58.959326481521956,-63.70174741858614,-8.037974683544306,2.4901960784313744,-2.2882882882882782,65.04878048780486,1.4941176470588253,3.4862745098039234,5.080000000000002,3.4862745098039234,11.426488275591936,473.6028789605748,105.44078176458936,15380.381919557563,89.14050567393674,1899.1345373301224,1
-87.94741212288957,110.05421306997269,-118.32072010090585,-39.04658385093171,-52.10035111564163,58.959326481521956,-63.70174741858614,-11.253164556962027,5.4784313725490215,5.720720720720731,9.292682926829258,-8.466666666666665,-5.478431372549018,2.032000000000002,-1.4941176470588218,6.152026907916943,11.572444296916677,105.44078176458936,15380.381919557563,89.14050567393674,1899.1345373301224,1
-87.94741212288957,110.05421306997269,-118.32072010090585,-39.04658385093171,-52.10035111564163,58.959326481521956,-63.70174741858614,-4.822784810126585,-1.4941176470588218,-14.873873873873865,-13.422764227642286,-13.44705882352941,-2.490196078431371,5.080000000000002,-2.490196078431371,7.2651239423867136,31.952871604346576,105.44078176458936,15380.381919557563,89.14050567393674,1899.1345373301224,1
-109.84638804317741,115.5782727463753,-125.95149638802889,-58.569875776397566,-41.11065805867028,50.68335884539688,-62.84432088959488,-4.822784810126585,-1.4941176470588218,-14.873873873873865,-13.422764227642286,-13.44705882352941,-2.490196078431371,5.080000000000002,-2.490196078431371,7.2651239423867136,31.952871604346576,117.12538572586054,18235.38026416715,100.03321497026725,1316.3073150093578,1
-109.84638804317741,115.5782727463753,-125.95149638802889,-58.569875776397566,-41.11065805867028,50.68335884539688,-62.84432088959488,-6.966244725738399,-6.474509803921567,-27.459459459459453,4.130081300812998,-12.450980392156861,8.466666666666669,6.096000000000002,2.4901960784313744,9.316767303398414,62.454821990134405,117.12538572586054,18235.38026416715,100.03321497026725,1316.3073150093578,1
-109.84638804317741,115.5782727463753,-125.95149638802889,-58.569875776397566,-41.11065805867028,50.68335884539688,-62.84432088959488,-9.109704641350213,5.4784313725490215,10.297297297297309,76.40650406504064,10.458823529411767,1.4941176470588253,7.112000000000002,0.4980392156862763,15.106864721049256,627.6710278069564,117.12538572586054,18235.38026416715,100.03321497026725,1316.3073150093578,1
-125.1018544146139,119.47446942635008,-127.0,-77.23861283643896,-28.92705855702797,44.40695385961074,-61.129467831612374,-9.109704641350213,5.4784313725490215,10.297297297297309,76.40650406504064,10.458823529411767,1.4941176470588253,7.112000000000002,0.4980392156862763,15.106864721049256,627.6710278069564,123.85877461365466,20095.1408698707,107.90436075426301,719.4494741233826,1
-125.1018544146139,119.47446942635008,-127.0,-77.23861283643896,-28.92705855702797,44.40695385961074,-61.129467831612374,-2.67932489451477,1.4941176470588253,-4.576576576576567,-8.260162601626025,-1.4941176470588218,-2.490196078431371,10.160000000000002,3.4862745098039234,4.330096244383789,10.343116417881886,123.85877461365466,20095.1408698707,107.90436075426301,719.4494741233826,1
-125.1018544146139,119.47446942635008,-127.0,-77.23861283643896,-28.92705855702797,44.40695385961074,-61.129467831612374,-9.109704641350213,0.4980392156862763,-10.297297297297288,-3.097560975609766,3.4862745098039234,-8.466666666666665,-33.528,-2.490196078431371,8.871717423105688,111.9102045667482,123.85877461365466,20095.1408698707,107.90436075426301,719.4494741233826,1
-127.0,121.4759403235974,-125.98062148836142,-93.21221532091101,-16.441386340468902,38.57489612945548,-58.30500397140588,-9.109704641350213,0.4980392156862763,-10.297297297297288,-3.097560975609766,3.4862745098039234,-8.466666666666665,-33.528,-2.490196078431371,8.871717423105688,111.9102045667482,124.8188539373196,20496.01367267362,113.55625904428994,315.48312436311016,1
-127.0,121.4759403235974,-125.98062148836142,-93.21221532091101,-16.441386340468902,38.57489612945548,-58.30500397140588,-9.109704641350213,-2.490196078431371,-21.73873873873873,8.260162601626007,22.411764705882355,2.4901960784313744,1.7763568394002505e-15,-5.478431372549018,8.997399277126133,74.40953962092468,124.8188539373196,20496.01367267362,113.55625904428994,315.48312436311016,1
-127.0,121.4759403235974,-125.98062148836142,-93.21221532091101,-16.441386340468902,38.57489612945548,-58.30500397140588,-1.607594936708863,2.4901960784313744,-20.594594594594586,-21.6829268292683,26.39607843137255,-3.48627450980392,6.096000000000002,-2.490196078431371,10.605482682326372,107.9330480013704,124.8188539373196,20496.01367267362,113.55625904428994,315.48312436311016,1
-114.8378079158594,120.30174406387897,-123.88361426441921,-105.7018633540373,-4.588628383735408,31.40979663240759,-53.916997617156426,-1.607594936708863,2.4901960784313744,-20.594594594594586,-21.6829268292683,26.39607843137255,-3.48627450980392,6.096000000000002,-2.490196078431371,10.605482682326372,107.9330480013704,119.67438874805252,19166.48745660785,116.62907389411184,92.7603961737164,1
-114.8378079158594,120.30174406387897,-123.88361426441921,-105.7018633540373,-4.588628383735408,31.40979663240759,-53.916997617156426,-9.109704641350213,1.4941176470588253,-8.009009009008999,9.292682926829258,17.43137254901961,0.4980392156862763,10.160000000000002,33.3686274509804,11.170444179991698,108.32548457425382,119.67438874805252,19166.48745660785,116.62907389411184,92.7603961737164,1
-114.8378079158594,120.30174406387897,-123.88361426441921,-105.7018633540373,-4.588628383735408,31.40979663240759,-53.916997617156426,-10.18143459915612,8.466666666666669,-9.153153153153143,-10.32520325203253,-0.49803921568627274,-4.482352941176469,7.112000000000002,-23.4078431372549,9.203336620640762,43.85314934964938,119.67438874805252,19166.48745660785,116.62907389411184,92.7603961737164,1
-114.8378079158594,120.30174406387897,-123.88361426441921,-105.7018633540373,-4.588628383735408,31.40979663240759,-53.916997617156426,-10.18143459915612,-8.466666666666665,-20.594594594594586,13.422764227642265,-7.470588235294116,14.443137254901963,17.272000000000002,34.36470588235294,15.77698643257608,76.00235293489597,119.67438874805252,19166.48745660785,116.62907389411184,92.7603961737164,1
-114.8378079158594,120.30174406387897,-123.88361426441921,-105.7018633540373,-4.588628383735408,31.40979663240759,-53.916997617156426,-3.7510548523206775,-5.478431372549018,-19.45045045045044,-9.292682926829277,-1.4941176470588218,15.439215686274512,-7.111999999999998,20.419607843137257,10.3046950973275,52.486624305692374,119.67438874805252,19166.48745660785,116.62907389411184,92.7603961737164,1
-98.91447550512041,122.16978356797648,-120.09735122119022,-114.44461697722568,6.401064673235938,22.022960857205305,-48.62112787926924,-3.7510548523206775,-5.478431372549018,-19.45045045045044,-9.292682926829277,-1.4941176470588218,15.439215686274512,-7.111999999999998,20.419607843137257,10.3046950973275,52.486624305692374,113.72720343142903,18003.388072075824,118.90391725546412,15.98776318662463,1
-98.91447550512041,122.16978356797648,-120.09735122119022,-114.44461697722568,6.401064673235938,22.022960857205305,-48.62112787926924,-13.396624472573842,-4.482352941176469,-22.882882882882875,-9.292682926829277,-28.388235294117646,-13.44705882352941,-10.159999999999998,-60.26274509803922,20.289072804893593,319.70126553849593,113.72720343142903,18003.388072075824,118.90391725546412,15.98776318662463,1
-98.91447550512041,122.16978356797648,-120.09735122119022,-114.44461697722568,6.401064673235938,22.022960857205305,-48.62112787926924,-14.46835443037975,-2.490196078431371,-19.45045045045044,-16.520325203252042,30.380392156862747,-15.439215686274508,20.32,33.3686274509804,19.05469518207891,92.83279467108896,113.72720343142903,18003.388072075824,118.90391725546412,15.98776318662463,1
-89.56435095488514,127.00000000000001,-121.23323013415893,-121.018115942029,17.405142145203317,9.303520664771469,-41.40865766481329,-14.46835443037975,-2.490196078431371,-19.45045045045044,-16.520325203252042,30.380392156862747,-15.439215686274508,20.32,33.3686274509804,19.05469518207891,92.83279467108896,112.59919369634804,18253.795425970067,123.08378202539598,11.514140947372715,1
-89.56435095488514,127.00000000000001,-121.23323013415893,-121.018115942029,17.405142145203317,9.303520664771469,-41.40865766481329,-12.324894514767935,3.4862745098039234,-16.018018018018008,-3.097560975609766,0.4980392156862763,-6.474509803921567,-7.111999999999998,-28.388235294117646,9.67494154149064,82.86181952950997,112.59919369634804,18253.795425970067,123.08378202539598,11.514140947372715,1
-89.56435095488514,127.00000000000001,-121.23323013415893,-121.018115942029,17.405142145203317,9.303520664771469,-41.40865766481329,-32.68776371308017,-6.474509803921567,-16.018018018018008,-2.0650406504065137,-19.423529411764704,20.419607843137257,23.368000000000002,2.4901960784313744,15.36833318984495,118.32336105573367,112.59919369634804,18253.795425970067,123.08378202539598,11.514140947372715,1
-89.14254082479934,124.8384114309729,-120.0682261208577,-125.42236024844715,28.078378072261877,-1.91624753990817,-33.338760921366145,-32.68776371308017,-6.474509803921567,-16.018018018018008,-2.0650406504065137,-19.423529411764704,20.419607843137257,23.368000000000002,2.4901960784313744,15.36833318984495,118.32336105573367,111.34972612554331,17787.25117604361,123.44299926675926,8.627069395081065,1
-89.14254082479934,124.8384114309729,-120.0682261208577,-125.42236024844715,28.078378072261877,-1.91624753990817,-33.338760921366145,-20.898734177215193,11.454901960784316,-8.009009009008999,-1.0325203252032615,-23.4078431372549,0.4980392156862763,59.944,28.38823529411765,19.204160389908825,375.73345499022344,111.34972612554331,17787.25117604361,123.44299926675926,8.627069395081065,1
-89.14254082479934,124.8384114309729,-120.0682261208577,-125.42236024844715,28.078378072261877,-1.91624753990817,-33.338760921366145,63.76793248945148,22.411764705882355,-3.4324324324324227,14.45528455284552,-49.305882352941175,-27.392156862745097,-43.688,-39.345098039215685,32.974818929439216,389.82030908491487,111.34972612554331,17787.25117604361,123.44299926675926,8.627069395081065,1
-94.87212842513148,126.65307837781047,-117.59259259259258,-127.0,39.355759429153935,-12.41395145418764,-24.764495631453542,63.76793248945148,22.411764705882355,-3.4324324324324227,14.45528455284552,-49.305882352941175,-27.392156862745097,-43.688,-39.345098039215685,32.974818929439216,389.82030908491487,113.03926646517819,18207.597421475577,123.74855699013433,28.45201190083701,1
-94.87212842513148,126.65307837781047,-117.59259259259258,-127.0,39.355759429153935,-12.41395145418764,-24.764495631453542,-2.67932489451477,-4.482352941176469,-25.17117117117116,-1.0325203252032615,63.25098039215686,14.443137254901963,-46.736,24.403921568627453,22.77492606846899,500.205997856691,113.03926646517819,18207.597421475577,123.74855699013433,28.45201190083701,1
-94.87212842513148,126.65307837781047,-117.59259259259258,-127.0,39.355759429153935,-12.41395145418764,-24.764495631453542,-30.544303797468356,-15.439215686274508,-22.882882882882875,-18.585365853658544,-39.345098039215685,44.325490196078434,23.368000000000002,26.39607843137255,27.61080436086887,99.58801288361761,113.03926646517819,18207.597421475577,123.74855699013433,28.45201190083701,1
-96.5945197896485,124.86509770960286,-116.86446508427932,-126.53985507246375,50.66190961603807,-21.689700415482207,-15.181493248610025,-30.544303797468356,-15.439215686274508,-22.882882882882875,-18.585365853658544,-39.345098039215685,44.325490196078434,23.368000000000002,26.39607843137255,27.61080436086887,99.58801288361761,112.77469419451022,17981.402398947244,122.75647262211533,26.73801767555132,1
-96.5945197896485,124.86509770960286,-116.86446508427932,-126.53985507246375,50.66190961603807,-21.689700415482207,-15.181493248610025,29.472573839662445,3.4862745098039234,-19.45045045045044,1.032520325203242,-52.294117647058826,-4.482352941176469,-17.272,21.415686274509806,18.61324699848314,285.7527085727208,112.77469419451022,17981.402398947244,122.75647262211533,26.73801767555132,1
-96.5945197896485,124.86509770960286,-116.86446508427932,-126.53985507246375,50.66190961603807,-21.689700415482207,-15.181493248610025,-45.54852320675106,-18.427450980392155,-22.882882882882875,-21.6829268292683,27.3921568627451,-40.34117647058824,101.60000000000001,-11.454901960784312,36.16625239917651,825.0782308019809,112.77469419451022,17981.402398947244,122.75647262211533,26.73801767555132,1
-99.9690008303349,122.70350914057576,-114.41795665634675,-123.38457556935816,61.982444217918236,-29.41023398206869,-5.09412231930105,-45.54852320675106,-18.427450980392155,-22.882882882882875,-21.6829268292683,27.3921568627451,-40.34117647058824,101.60000000000001,-11.454901960784312,36.16625239917651,825.0782308019809,112.36348887575247,17669.734760481406,120.1686804554269,24.919081030083674,1
-99.9690008303349,122.70350914057576,-114.41795665634675,-123.38457556935816,61.982444217918236,-29.41023398206869,-5.09412231930105,-39.118143459915615,3.4862745098039234,-25.17117117117116,39.23577235772357,2.4901960784313744,-40.34117647058824,-34.544,-43.32941176470588,28.46451822654247,276.84628868657313,112.36348887575247,17669.734760481406,120.1686804554269,24.919081030083674,1
-99.9690008303349,122.70350914057576,-114.41795665634675,-123.38457556935816,61.982444217918236,-29.41023398206869,-5.09412231930105,20.89873417721519,-1.4941176470588218,-25.17117117117116,-2.0650406504065137,18.42745098039216,-6.474509803921567,60.96,-2.490196078431371,17.247652563574597,400.1146400691429,112.36348887575247,17669.734760481406,120.1686804554269,24.919081030083674,1
-95.9969554386936,117.76654759403237,-113.4277032450407,-118.71739130434787,72.87144636991732,-35.96435600262413,6.001985702938839,20.89873417721519,-1.4941176470588218,-25.17117117117116,-2.0650406504065137,18.42745098039216,-6.474509803921567,60.96,-2.490196078431371,17.247652563574597,400.1146400691429,109.06373542592223,16574.90796982516,116.63721404780699,7.95174563516672,1
-95.9969554386936,117.76654759403237,-113.4277032450407,-118.71739130434787,72.87144636991732,-35.96435600262413,6.001985702938839,48.76371308016878,12.450980392156865,2.2882882882882996,10.32520325203251,50.30196078431373,17.43137254901961,45.72,-6.474509803921567,24.219503518737667,416.9250844163221,109.06373542592223,16574.90796982516,116.63721404780699,7.95174563516672,1
-95.9969554386936,117.76654759403237,-113.4277032450407,-118.71739130434787,72.87144636991732,-35.96435600262413,6.001985702938839,-12.324894514767935,-1.4941176470588218,-21.73873873873873,49.560975609756085,20.419607843137257,5.4784313725490215,-26.415999999999997,24.403921568627453,20.229585911829414,221.34847815309323,109.06373542592223,16574.90796982516,116.63721404780699,7.95174563516672,1
-81.58510932742873,113.7102332422778,-116.36933837862631,-114.37888198757764,82.81107713217807,-42.90728187185658,19.619936457505958,-12.324894514767935,-1.4941176470588218,-21.73873873873873,49.560975609756085,20.419607843137257,5.4784313725490215,-26.415999999999997,24.403921568627453,20.229585911829414,221.34847815309323,103.88822698277761,15381.137116227324,114.81948453616059,1.9133079859021,1
-81.58510932742873,113.7102332422778,-116.36933837862631,-114.37888198757764,82.81107713217807,-42.90728187185658,19.619936457505958,35.90295358649789,16.43529411764706,-20.594594594594586,-3.097560975609766,-51.29803921568627,-14.44313725490196,-86.36,-29.384313725490195,32.189486683803466,695.0213271432973,103.88822698277761,15381.137116227324,114.81948453616059,1.9133079859021,1
-81.58510932742873,113.7102332422778,-116.36933837862631,-114.37888198757764,82.81107713217807,-42.90728187185658,19.619936457505958,-28.40084388185654,-7.470588235294116,-20.594594594594586,-33.04065040650407,9.462745098039218,23.407843137254904,-26.415999999999997,-37.35294117647059,23.26827581625175,111.06516965082348,103.88822698277761,15381.137116227324,114.81948453616059,1.9133079859021,1
-61.44367561583172,105.17062408068922,-120.21385162252035,-111.88095238095241,91.24034431985504,-50.12792477585833,35.50754567116758,-28.40084388185654,-7.470588235294116,-20.594594594594586,-33.04065040650407,9.462745098039218,23.407843137254904,-26.415999999999997,-37.35294117647059,23.26827581625175,111.06516965082348,95.60938377301376,13668.736723204987,112.42180936138732,56.79406842379055,1
-61.44367561583172,105.17062408068922,-120.21385162252035,-111.88095238095241,91.24034431985504,-50.12792477585833,35.50754567116758,26.257383966244724,3.4862745098039234,-14.873873873873865,-5.1626016260162695,-3.48627450980392,41.33725490196079,120.904,39.345098039215685,31.8565951783649,1531.0691942729252,95.60938377301376,13668.736723204987,112.42180936138732,56.79406842379055,1
