Gyro 0,Gyro 1,Gyro 2,Orientation 0,Orientation 1,Orientation 2,Orientation 3,Sensor 0,Sensor 1,Sensor 2,Sensor 3,Sensor 4,Sensor 5,Sensor 6,Sensor 7,Sensor Mean,Sensor Variance,Gyro Mean,Gyro Variance,Orientation Mean,Orientation Variance,Label
4.3436181050793,36.9865113427345,-48.32877119904789,89.4100148735746,-125.03691313877033,85.48341643182307,6.144728502007183,13.744588744588754,1.4941176470588253,-18.0,-2.3090909090909024,-23.4078431372549,0.4980392156862763,-17.367521367521377,-0.49803921568627274,9.664905029610914,89.03555702667911,29.886300215620565,1853.1060848524412,58.241765805118995,760.7565271569971,1
4.3436181050793,36.9865113427345,-48.32877119904789,89.4100148735746,-125.03691313877033,85.48341643182307,6.144728502007183,10.445887445887454,-2.490196078431371,6.0,1.1545454545454614,5.4784313725490215,2.4901960784313744,-13.025641025641036,-0.49803921568627274,5.197867083896499,20.376813210706676,29.886300215620565,1853.1060848524412,58.241765805118995,760.7565271569971,1
4.3436181050793,36.9865113427345,-48.32877119904789,89.4100148735746,-125.03691313877033,85.48341643182307,6.144728502007183,12.645021645021654,3.4862745098039234,34.0,-8.081818181818175,54.286274509803924,-11.454901960784312,-29.307692307692317,-5.478431372549018,19.842551810934168,315.8171409027074,29.886300215620565,1853.1060848524412,58.241765805118995,760.7565271569971,1
3.234609227186708,37.09774897083295,-48.06426658732519,89.09519087754086,-124.97831353097246,85.92391068718834,6.0910627508978905,12.645021645021654,3.4862745098039234,34.0,-8.081818181818175,54.286274509803924,-11.454901960784312,-29.307692307692317,-5.478431372549018,19.842551810934168,315.8171409027074,29.465541595114953,1838.4759645097329,58.085735478566335,751.2558702639512,1
3.234609227186708,37.09774897083295,-48.06426658732519,89.09519087754086,-124.97831353097246,85.92391068718834,6.0910627508978905,11.545454545454554,-1.4941176470588218,-21.0,-21.93636363636363,25.400000000000002,-10.458823529411763,8.68376068376067,-1.4941176470588218,12.751579711138533,84.15696479006927,29.465541595114953,1838.4759645097329,58.085735478566335,751.2558702639512,1
4.565419880657818,36.96426381711481,-48.29098482594465,88.96926127912741,-124.97831353097246,86.144157814871,6.198394253116362,11.545454545454554,-1.4941176470588218,-21.0,-21.93636363636363,25.400000000000002,-10.458823529411763,8.68376068376067,-1.4941176470588218,12.751579711138533,84.15696479006927,29.94022284123909,1851.9903380194894,58.07483664072896,747.9227575062278,1
4.565419880657818,36.96426381711481,-48.29098482594465,88.96926127912741,-124.97831353097246,86.144157814871,6.198394253116362,11.545454545454554,0.4980392156862763,5.0,-15.009090909090903,-10.458823529411763,-7.470588235294116,-8.683760683760696,-3.48627450980392,7.769003953562779,21.95964028090139,29.94022284123909,1851.9903380194894,58.07483664072896,747.9227575062278,1
4.565419880657818,36.96426381711481,-48.29098482594465,88.96926127912741,-124.97831353097246,86.144157814871,6.198394253116362,14.844155844155853,10.458823529411767,12.0,1.1545454545454614,-10.458823529411763,-8.466666666666665,-10.854700854700866,-2.490196078431371,8.840988994665468,22.123039648444,29.94022284123909,1851.9903380194894,58.07483664072896,747.9227575062278,1
4.158783292097201,37.05325391959357,-48.70663493008033,88.78036688150712,-124.94901372707349,86.47452850639493,6.252060004225655,14.844155844155853,10.458823529411767,12.0,1.1545454545454614,-10.458823529411763,-8.466666666666665,-10.854700854700866,-2.490196078431371,8.840988994665468,22.123039648444,29.9728907139237,1871.9261961962306,58.18008524372701,736.2332494774905,1
4.158783292097201,37.05325391959357,-48.70663493008033,88.78036688150712,-124.94901372707349,86.47452850639493,6.252060004225655,14.844155844155853,-2.490196078431371,11.0,-3.463636363636357,-35.36078431372549,-7.470588235294116,-7.5982905982906095,4.482352941176472,10.838750546838783,114.81985321854509,29.9728907139237,1871.9261961962306,58.18008524372701,736.2332494774905,1
4.158783292097201,37.05325391959357,-48.70663493008033,88.78036688150712,-124.94901372707349,86.47452850639493,6.252060004225655,13.744588744588754,7.4705882352941195,16.0,10.390909090909098,-38.34901960784313,1.4941176470588253,-17.367521367521377,-1.4941176470588218,13.288857792534266,138.95533529338462,29.9728907139237,1871.9261961962306,58.18008524372701,736.2332494774905,1
5.156891282200534,37.275729175790474,-48.70663493008033,88.78036688150712,-124.94901372707349,86.47452850639493,6.198394253116362,13.744588744588754,7.4705882352941195,16.0,10.390909090909098,-38.34901960784313,1.4941176470588253,-17.367521367521377,-1.4941176470588218,13.288857792534266,138.95533529338462,30.37975179602378,1887.6443568150526,58.25424366245931,731.5495506792317,1
5.156891282200534,37.275729175790474,-48.70663493008033,88.78036688150712,-124.94901372707349,86.47452850639493,6.198394253116362,10.445887445887454,-1.4941176470588218,-19.0,-11.54545454545454,-21.415686274509802,-6.474509803921567,-22.794871794871803,-3.48627450980392,12.082100252688488,67.16292664572734,30.37975179602378,1887.6443568150526,58.25424366245931,731.5495506792317,1
5.156891282200534,37.275729175790474,-48.70663493008033,88.78036688150712,-124.94901372707349,86.47452850639493,6.198394253116362,11.545454545454554,-0.49803921568627274,-25.0,5.772727272727279,18.42745098039216,7.4705882352941195,-18.452991452991462,8.466666666666669,11.954239796151564,65.17387532576412,30.37975179602378,1887.6443568150526,58.25424366245931,731.5495506792317,1
5.009023431814855,37.231234124551094,-48.36655757215114,88.78036688150712,-124.94901372707349,86.47452850639493,6.198394253116362,11.545454545454554,-0.49803921568627274,-25.0,5.772727272727279,18.42745098039216,7.4705882352941195,-18.452991452991462,8.466666666666669,11.954239796151564,65.17387532576412,30.202271709505695,1869.0342421316745,58.126052859403124,735.7640831949894,1
5.009023431814855,37.231234124551094,-48.36655757215114,88.78036688150712,-124.94901372707349,86.47452850639493,6.198394253116362,11.545454545454554,-1.4941176470588218,-1.0,1.1545454545454614,52.294117647058826,12.450980392156865,-4.341880341880353,-5.478431372549018,11.219940925087986,295.6190109897925,30.202271709505695,1869.0342421316745,58.126052859403124,735.7640831949894,1
5.009023431814855,37.231234124551094,-48.36655757215114,88.78036688150712,-124.94901372707349,86.47452850639493,6.198394253116362,8.246753246753254,0.4980392156862763,-12.0,-20.781818181818174,50.30196078431373,3.4862745098039234,-6.512820512820524,3.4862745098039234,13.164242620124975,264.96785553107077,30.202271709505695,1869.0342421316745,58.126052859403124,735.7640831949894,1
4.26968417988646,37.03100639397388,-48.17762570663492,88.65443728309367,-124.94901372707349,86.74983741599823,6.252060004225655,8.246753246753254,0.4980392156862763,-12.0,-20.781818181818174,50.30196078431373,3.4862745098039234,-6.512820512820524,3.4862745098039234,13.164242620124975,264.96785553107077,29.826105426831756,1847.422588667494,57.95435646123416,737.9330023768767,1
4.26968417988646,37.03100639397388,-48.17762570663492,88.65443728309367,-124.94901372707349,86.74983741599823,6.252060004225655,15.943722943722953,6.4745098039215705,24.0,6.927272727272733,6.4745098039215705,1.4941176470588253,-14.111111111111121,1.4941176470588253,9.614920210508451,60.863238541063645,29.826105426831756,1847.422588667494,57.95435646123416,737.9330023768767,1
4.26968417988646,37.03100639397388,-48.17762570663492,88.65443728309367,-124.94901372707349,86.74983741599823,6.252060004225655,13.744588744588754,2.4901960784313744,-13.0,-53.1090909090909,19.423529411764708,11.454901960784316,1.0854700854700727,-5.478431372549018,14.973276070334894,275.8254417971904,29.826105426831756,1847.422588667494,57.95435646123416,737.9330023768767,1
4.232717217290041,36.87527371463606,-48.29098482594465,88.52850768468011,-124.94901372707349,87.0802081075222,6.305725755334834,13.744588744588754,2.4901960784313744,-13.0,-53.1090909090909,19.423529411764708,11.454901960784316,1.0854700854700727,-5.478431372549018,14.973276070334894,275.8254417971904,29.799658585956916,1846.2612274683265,57.898255408420276,736.2388809247043,1
4.232717217290041,36.87527371463606,-48.29098482594465,88.52850768468011,-124.94901372707349,87.0802081075222,6.305725755334834,10.445887445887454,-1.4941176470588218,6.0,-6.927272727272721,11.454901960784316,-3.48627450980392,-3.256410256410268,-0.49803921568627274,5.445362970362972,16.04876802696007,29.799658585956916,1846.2612274683265,57.898255408420276,736.2388809247043,1
4.232717217290041,36.87527371463606,-48.29098482594465,88.52850768468011,-124.94901372707349,87.0802081075222,6.305725755334834,15.943722943722953,-0.49803921568627274,9.0,10.390909090909098,-47.31372549019608,15.439215686274512,-4.341880341880353,2.4901960784313744,13.17721110588758,222.33159972146538,29.799658585956916,1846.2612274683265,57.898255408420276,736.2388809247043,1
3.8260806287294233,36.5638083559604,-48.10205296042844,88.40257808626666,-124.99296343292193,87.57576414480812,6.574054510881069,15.943722943722953,-0.49803921568627274,9.0,10.390909090909098,-47.31372549019608,15.439215686274512,-4.341880341880353,2.4901960784313744,13.17721110588758,222.33159972146538,29.497313981706085,1822.7663245402866,57.68947980088516,740.7535768537618,1
3.8260806287294233,36.5638083559604,-48.10205296042844,88.40257808626666,-124.99296343292193,87.57576414480812,6.574054510881069,13.744588744588754,-7.470588235294116,-33.0,-9.236363636363631,25.400000000000002,7.4705882352941195,-19.538461538461547,6.4745098039215705,15.291887524240469,96.13423917178481,29.497313981706085,1822.7663245402866,57.68947980088516,740.7535768537618,1
3.8260806287294233,36.5638083559604,-48.10205296042844,88.40257808626666,-124.99296343292193,87.57576414480812,6.574054510881069,11.545454545454554,-11.454901960784312,-34.0,1.1545454545454614,-14.44313725490196,18.42745098039216,-7.5982905982906095,0.4980392156862763,12.390227501256916,114.26580014440701,29.497313981706085,1822.7663245402866,57.68947980088516,740.7535768537618,1
3.7151797409401643,36.408075676622566,-48.06426658732519,88.15071888943976,-125.0076133348714,88.0162584001734,6.73505176420872,11.545454545454554,-11.454901960784312,-34.0,1.1545454545454614,-14.44313725490196,18.42745098039216,-7.5982905982906095,0.4980392156862763,12.390227501256916,114.26580014440701,29.395840668295975,1814.2521857134343,57.541020384462506,736.6819285608916,1
3.7151797409401643,36.408075676622566,-48.06426658732519,88.15071888943976,-125.0076133348714,88.0162584001734,6.73505176420872,10.445887445887454,2.4901960784313744,-1.0,-3.463636363636357,-25.4,-8.466666666666665,-7.5982905982906095,-7.470588235294116,8.291908173525822,58.379520239577744,29.395840668295975,1814.2521857134343,57.541020384462506,736.6819285608916,1
3.7151797409401643,36.408075676622566,-48.06426658732519,88.15071888943976,-125.0076133348714,88.0162584001734,6.73505176420872,10.445887445887454,-2.490196078431371,1.0,18.47272727272728,-8.466666666666665,9.462745098039218,-6.512820512820524,5.4784313725490215,7.791184305890191,29.370985913972017,29.395840668295975,1814.2521857134343,57.541020384462506,736.6819285608916,1
3.530344927958066,36.096610317946904,-48.32877119904789,87.83589489340602,-125.05156304071983,88.56687621937998,7.110712021973313,10.445887445887454,-2.490196078431371,1.0,18.47272727272728,-8.466666666666665,9.462745098039218,-6.512820512820524,5.4784313725490215,7.791184305890191,29.370985913972017,29.318575481650953,1812.9291018692668,57.4204254701336,731.2320251337987,1
3.530344927958066,36.096610317946904,-48.32877119904789,87.83589489340602,-125.05156304071983,88.56687621937998,7.110712021973313,9.346320346320354,-0.49803921568627274,22.0,-1.154545454545448,-6.474509803921567,13.447058823529414,-30.393162393162402,-5.478431372549018,11.09900842621431,109.1330023838589,29.318575481650953,1812.9291018692668,57.4204254701336,731.2320251337987,1
3.530344927958066,36.096610317946904,-48.32877119904789,87.83589489340602,-125.05156304071983,88.56687621937998,7.110712021973313,10.445887445887454,-5.478431372549018,-5.0,-25.399999999999995,-11.454901960784312,-19.423529411764704,-6.512820512820524,25.400000000000002,13.639446337975752,73.86841547954312,29.318575481650953,1812.9291018692668,57.4204254701336,731.2320251337987,1
1.9777324989084368,35.78514495927125,-48.32877119904789,87.14328210213182,-125.03691313877033,89.33774116626921,7.5400380308471995,10.445887445887454,-5.478431372549018,-5.0,-25.399999999999995,-11.454901960784312,-19.423529411764704,-6.512820512820524,25.400000000000002,13.639446337975752,73.86841547954312,28.69721621907586,1791.4727238443884,57.085732753483654,716.9278444456181,1
1.9777324989084368,35.78514495927125,-48.32877119904789,87.14328210213182,-125.03691313877033,89.33774116626921,7.5400380308471995,10.445887445887454,-11.454901960784312,-5.0,-4.618181818181812,-10.458823529411763,5.4784313725490215,-28.222222222222232,-13.44705882352941,11.140688396570752,58.63669446575517,28.69721621907586,1791.4727238443884,57.085732753483654,716.9278444456181,1
1.9777324989084368,35.78514495927125,-48.32877119904789,87.14328210213182,-125.03691313877033,89.33774116626921,7.5400380308471995,17.043290043290053,0.4980392156862763,20.0,2.3090909090909157,11.454901960784316,-1.4941176470588218,-10.854700854700866,13.447058823529414,9.637649931767584,55.010628264436704,28.69721621907586,1791.4727238443884,57.085732753483654,716.9278444456181,1
1.7189637607334989,35.71840238241218,-48.78220767628681,86.45066931085762,-125.02226323682086,90.32885324084107,7.915698288611907,17.043290043290053,0.4980392156862763,20.0,2.3090909090909157,11.454901960784316,-1.4941176470588218,-10.854700854700866,13.447058823529414,9.637649931767584,55.010628264436704,28.739857939810832,1807.7805405654854,56.9837597898522,693.8898197284066,1
1.7189637607334989,35.71840238241218,-48.78220767628681,86.45066931085762,-125.02226323682086,90.32885324084107,7.915698288611907,18.142857142857153,5.4784313725490215,26.0,6.217248937900877e-15,20.419607843137257,5.4784313725490215,-4.341880341880353,-6.474509803921567,10.791964734611797,87.31274997436289,28.739857939810832,1807.7805405654854,56.9837597898522,693.8898197284066,1
1.7189637607334989,35.71840238241218,-48.78220767628681,86.45066931085762,-125.02226323682086,90.32885324084107,7.915698288611907,12.645021645021654,3.4862745098039234,8.0,-15.009090909090903,-17.431372549019606,-7.470588235294116,-16.28205128205129,-10.458823529411763,11.347902832461656,23.611274830421983,28.739857939810832,1807.7805405654854,56.9837597898522,693.8898197284066,1
1.312327172172882,35.51817465183497,-48.74442130318357,85.82102131879026,-125.03691313877033,91.54021244309556,8.2913585463765,12.645021645021654,3.4862745098039234,8.0,-15.009090909090903,-17.431372549019606,-7.470588235294116,-16.28205128205129,-10.458823529411763,11.347902832461656,23.611274830421983,28.524974375730476,1795.9838578009521,56.6945390912696,679.9973753331352,1
1.312327172172882,35.51817465183497,-48.74442130318357,85.82102131879026,-125.03691313877033,91.54021244309556,8.2913585463765,22.541125541125552,2.4901960784313744,23.0,13.854545454545462,-14.44313725490196,2.4901960784313744,-6.512820512820524,4.482352941176472,11.22679673267909,72.03396244302772,28.524974375730476,1795.9838578009521,56.6945390912696,679.9973753331352,1
1.312327172172882,35.51817465183497,-48.74442130318357,85.82102131879026,-125.03691313877033,91.54021244309556,8.2913585463765,13.744588744588754,3.4862745098039234,40.0,-10.390909090909084,-19.423529411764704,-14.44313725490196,-20.623931623931632,-3.48627450980392,15.699830643212998,137.2199625437863,28.524974375730476,1795.9838578009521,56.6945390912696,679.9973753331352,1
3.086741376801029,35.16221424191993,-48.93335316869978,85.4432325235498,-125.1248125504672,92.64144808150874,8.774350306359565,13.744588744588754,3.4862745098039234,40.0,-10.390909090909084,-19.423529411764704,-14.44313725490196,-20.623931623931632,-3.48627450980392,15.699830643212998,137.2199625437863,29.060769595806914,1801.1651090263179,56.51293331138984,675.132726213995,1
3.086741376801029,35.16221424191993,-48.93335316869978,85.4432325235498,-125.1248125504672,92.64144808150874,8.774350306359565,15.943722943722953,-7.470588235294116,-51.0,-34.636363636363626,-0.49803921568627274,9.462745098039218,-13.025641025641036,-16.435294117647057,18.559049284049284,269.25157113271666,29.060769595806914,1801.1651090263179,56.51293331138984,675.132726213995,1
3.086741376801029,35.16221424191993,-48.93335316869978,85.4432325235498,-125.1248125504672,92.64144808150874,8.774350306359565,10.445887445887454,-2.490196078431371,-27.0,5.772727272727279,9.462745098039218,-4.482352941176469,-9.76923076923078,-0.49803921568627274,8.740147352647355,67.40593725730717,29.060769595806914,1801.1651090263179,56.51293331138984,675.132726213995,1
3.9369815165186828,35.65165980555311,-49.16007140731924,85.25433812592951,-125.21271196216404,93.30218946455665,9.257342066342744,10.445887445887454,-2.490196078431371,-27.0,5.772727272727279,9.462745098039218,-4.482352941176469,-9.76923076923078,-0.49803921568627274,8.740147352647355,67.40593725730717,29.582904243130344,1836.3579332497172,56.68868977960062,657.6164950852742,1
3.9369815165186828,35.65165980555311,-49.16007140731924,85.25433812592951,-125.21271196216404,93.30218946455665,9.257342066342744,18.142857142857153,3.4862745098039234,1.0,-33.48181818181818,-17.431372549019606,-12.450980392156861,-14.111111111111121,5.4784313725490215,13.197855657414483,108.27124302214627,29.582904243130344,1836.3579332497172,56.68868977960062,657.6164950852742,1
3.9369815165186828,35.65165980555311,-49.16007140731924,85.25433812592951,-125.21271196216404,93.30218946455665,9.257342066342744,13.744588744588754,0.4980392156862763,-3.0,-11.54545454545454,-12.450980392156861,-3.48627450980392,-9.76923076923078,-11.454901960784312,8.24368376721318,25.946625498018616,29.582904243130344,1836.3579332497172,56.68868977960062,657.6164950852742,1
5.156891282200534,35.87413506175001,-49.311216899732216,85.12840852751606,-125.32991117775984,93.63256015608061,9.74033382632581,13.744588744588754,0.4980392156862763,-3.0,-11.54545454545454,-12.450980392156861,-3.48627450980392,-9.76923076923078,-11.454901960784312,8.24368376721318,25.946625498018616,30.114081081227585,1861.1446771887672,56.77125349633277,648.234973177081,1
5.156891282200534,35.87413506175001,-49.311216899732216,85.12840852751606,-125.32991117775984,93.63256015608061,9.74033382632581,14.844155844155853,-7.470588235294116,-8.0,-12.699999999999994,10.458823529411767,13.447058823529414,-1.2434497875801753e-14,8.466666666666669,9.423411637382229,21.848283039110942,30.114081081227585,1861.1446771887672,56.77125349633277,648.234973177081,1
5.156891282200534,35.87413506175001,-49.311216899732216,85.12840852751606,-125.32991117775984,93.63256015608061,9.74033382632581,41.23376623376625,115.04705882352941,38.0,43.87272727272728,-18.427450980392155,-18.427450980392155,-13.025641025641036,-13.44705882352941,37.68514426749721,1139.0196066882625,30.114081081227585,1861.1446771887672,56.77125349633277,648.234973177081,1
4.787221656236337,36.07436279232722,-49.235644153525726,84.87654933068904,-125.4178105894567,93.79774550184258,10.276991337418167,41.23376623376625,115.04705882352941,38.0,43.87272727272728,-18.427450980392155,-18.427450980392155,-13.025641025641036,-13.44705882352941,37.68514426749721,1139.0196066882625,30.032409534029764,1862.5254193117844,56.72885209218066,637.5244766402071,1
4.787221656236337,36.07436279232722,-49.235644153525726,84.87654933068904,-125.4178105894567,93.79774550184258,10.276991337418167,30.238095238095248,11.454901960784316,-7.0,-20.781818181818174,4.482352941176472,3.4862745098039234,-23.88034188034189,2.4901960784313744,12.976747598806426,112.57010374777838,30.032409534029764,1862.5254193117844,56.72885209218066,637.5244766402071,1
4.787221656236337,36.07436279232722,-49.235644153525726,84.87654933068904,-125.4178105894567,93.79774550184258,10.276991337418167,-17.043290043290035,-127.0,-58.0,-26.554545454545448,-26.396078431372548,24.403921568627453,-30.393162393162402,-14.44313725490196,40.52926689323748,1396.0426712964274,30.032409534029764,1862.5254193117844,56.72885209218066,637.5244766402071,1
3.8630475913258433,36.60830340719978,-49.42457601904194,84.43579573624186,-125.44711039335564,94.01799262952522,10.65265159518276,-17.043290043290035,-127.0,-58.0,-26.554545454545448,-26.396078431372548,24.403921568627453,-30.393162393162402,-14.44313725490196,40.52926689323748,1396.0426712964274,29.965309005855858,1885.5798251429162,56.82289172082786,612.9185620386138,1
3.8630475913258433,36.60830340719978,-49.42457601904194,84.43579573624186,-125.44711039335564,94.01799262952522,10.65265159518276,-12.645021645021636,-118.03529411764706,-4.0,20.78181818181819,-34.364705882352936,-4.482352941176469,-1.0854700854700976,0.4980392156862763,24.486587758646582,1563.6883061323092,29.965309005855858,1885.5798251429162,56.82289172082786,612.9185620386138,1
3.8630475913258433,36.60830340719978,-49.42457601904194,84.43579573624186,-125.44711039335564,94.01799262952522,10.65265159518276,3.8484848484848566,-123.0156862745098,-14.0,-43.87272727272727,50.30196078431373,-6.474509803921567,-8.683760683760696,-10.458823529411763,32.58199414964121,1647.5423695152328,29.965309005855858,1885.5798251429162,56.82289172082786,612.9185620386138,1
4.935089506622016,37.07550144521326,-49.87801249628086,84.30986613782841,-125.47641019725461,94.01799262952522,10.920980350728883,3.8484848484848566,-123.0156862745098,-14.0,-43.87272727272727,50.30196078431373,-6.474509803921567,-8.683760683760696,-10.458823529411763,32.58199414964121,1647.5423695152328,30.629534482705377,1933.0659695894312,57.087793359774174,596.7570070534379,1
4.935089506622016,37.07550144521326,-49.87801249628086,84.30986613782841,-125.47641019725461,94.01799262952522,10.920980350728883,12.645021645021654,-79.18823529411765,-18.0,2.3090909090909157,24.403921568627453,-3.48627450980392,-2.1709401709401828,26.39607843137255,21.07494531612179,645.135708181752,30.629534482705377,1933.0659695894312,57.087793359774174,596.7570070534379,1
4.935089506622016,37.07550144521326,-49.87801249628086,84.30986613782841,-125.47641019725461,94.01799262952522,10.920980350728883,17.043290043290053,14.443137254901963,3.0,16.16363636363637,28.38823529411765,8.466666666666669,-36.90598290598292,6.4745098039215705,16.36068229156465,129.93041263025563,30.629534482705377,1933.0659695894312,57.087793359774174,596.7570070534379,1
7.0052394120215205,36.67504598405885,-49.840226123177615,84.37283093703513,-125.57895951090092,93.68762193800126,11.29664060849359,17.043290043290053,14.443137254901963,3.0,16.16363636363637,28.38823529411765,8.466666666666669,-36.90598290598292,6.4745098039215705,16.36068229156465,129.93041263025563,31.17350383975266,1932.7661136207983,56.962701014757194,606.8169087909788,1
7.0052394120215205,36.67504598405885,-49.840226123177615,84.37283093703513,-125.57895951090092,93.68762193800126,11.29664060849359,15.943722943722953,31.376470588235296,57.0,-1.154545454545448,16.43529411764706,1.4941176470588253,-15.196581196581207,-4.482352941176469,17.885385611120906,350.47155480709324,31.17350383975266,1932.7661136207983,56.962701014757194,606.8169087909788,1
7.0052394120215205,36.67504598405885,-49.840226123177615,84.37283093703513,-125.57895951090092,93.68762193800126,11.29664060849359,17.043290043290053,14.443137254901963,16.0,-34.636363636363626,-0.49803921568627274,-20.419607843137253,-2.1709401709401828,-3.48627450980392,13.58720658426541,130.2762416882002,31.17350383975266,1932.7661136207983,56.962701014757194,606.8169087909788,1
8.040314364721272,35.98537268984846,-48.819994049390054,84.62469013386215,-125.78405813819359,93.247127682636,11.940629621804362,17.043290043290053,14.443137254901963,16.0,-34.636363636363626,-0.49803921568627274,-20.419607843137253,-2.1709401709401828,-3.48627450980392,13.58720658426541,130.2762416882002,30.94856036798659,1867.6618642532271,56.47668562436689,635.4144947606244,1
8.040314364721272,35.98537268984846,-48.819994049390054,84.62469013386215,-125.78405813819359,93.247127682636,11.940629621804362,11.545454545454554,33.3686274509804,-13.0,-40.4090909090909,-0.49803921568627274,8.466666666666669,-1.0854700854700976,-14.44313725490196,15.352060766031357,206.41231931235595,30.94856036798659,1867.6618642532271,56.47668562436689,635.4144947606244,1
8.040314364721272,35.98537268984846,-48.819994049390054,84.62469013386215,-125.78405813819359,93.247127682636,11.940629621804362,28.038961038961048,27.3921568627451,24.0,8.08181818181819,8.466666666666669,9.462745098039218,-1.2434497875801753e-14,5.4784313725490215,13.865097402597407,118.73473864744405,30.94856036798659,1867.6618642532271,56.47668562436689,635.4144947606244,1
5.304759132586213,35.65165980555311,-47.79976197560249,84.62469013386215,-125.95985696158729,93.41231302839797,12.584618635115135,28.038961038961048,27.3921568627451,24.0,8.08181818181819,8.466666666666669,9.462745098039218,-1.2434497875801753e-14,5.4784313725490215,13.865097402597407,118.73473864744405,29.58539363791394,1784.1940566468852,56.02537063833925,650.3349032887368,1
5.304759132586213,35.65165980555311,-47.79976197560249,84.62469013386215,-125.95985696158729,93.41231302839797,12.584618635115135,11.545454545454554,31.376470588235296,-10.0,-6.927272727272721,-22.41176470588235,-23.4078431372549,-19.538461538461547,-14.44313725490196,17.456300562182918,66.93687296563868,29.58539363791394,1784.1940566468852,56.02537063833925,650.3349032887368,1
5.304759132586213,35.65165980555311,-47.79976197560249,84.62469013386215,-125.95985696158729,93.41231302839797,12.584618635115135,3.8484848484848566,16.43529411764706,-7.0,-16.163636363636357,-6.474509803921567,3.4862745098039234,-2.1709401709401828,7.4705882352941195,7.881216006216008,30.41148570446681,29.58539363791394,1784.1940566468852,56.02537063833925,650.3349032887368,1
3.049774414204609,35.85188753613032,-47.42189824457006,84.37283093703513,-126.01845656938517,94.18317797528721,12.960278892879785,3.8484848484848566,16.43529411764706,-7.0,-16.163636363636357,-6.474509803921567,3.4862745098039234,-2.1709401709401828,7.4705882352941195,7.881216006216008,30.41148570446681,28.77452006496833,1759.6486274146816,55.882205572578506,642.2530871917171,1
3.049774414204609,35.85188753613032,-47.42189824457006,84.37283093703513,-126.01845656938517,94.18317797528721,12.960278892879785,11.545454545454554,9.462745098039218,-21.0,8.08181818181819,-0.49803921568627274,5.4784313725490215,-4.341880341880353,-9.462745098039214,8.733889231683353,36.795286391833876,28.77452006496833,1759.6486274146816,55.882205572578506,642.2530871917171,1
3.049774414204609,35.85188753613032,-47.42189824457006,84.37283093703513,-126.01845656938517,94.18317797528721,12.960278892879785,24.740259740259752,16.43529411764706,10.0,18.47272727272728,-8.466666666666665,-8.466666666666665,-7.5982905982906095,1.4941176470588253,11.959252838664607,54.65520948814243,28.77452006496833,1759.6486274146816,55.882205572578506,642.2530871917171,1
3.1606753019938685,36.341333099763496,-48.40434394525438,83.93207734258795,-126.03310647133466,94.62367223065246,13.228607648425907,24.740259740259752,16.43529411764706,10.0,18.47272727272728,-8.466666666666665,-8.466666666666665,-7.5982905982906095,1.4941176470588253,11.959252838664607,54.65520948814243,29.302117449003916,1823.6228399467072,56.22591812920194,612.1025014327283,1
3.1606753019938685,36.341333099763496,-48.40434394525438,83.93207734258795,-126.03310647133466,94.62367223065246,13.228607648425907,15.943722943722953,34.36470588235294,52.0,23.090909090909097,3.4862745098039234,-1.4941176470588218,-15.196581196581207,2.4901960784313744,18.50831341860754,311.9125319420667,29.302117449003916,1823.6228399467072,56.22591812920194,612.1025014327283,1
3.1606753019938685,36.341333099763496,-48.40434394525438,83.93207734258795,-126.03310647133466,94.62367223065246,13.228607648425907,7.147186147186156,6.4745098039215705,-39.0,-8.081818181818175,-10.458823529411763,-4.482352941176469,-15.196581196581207,-4.482352941176469,11.915453092658977,131.9998854832759,29.302117449003916,1823.6228399467072,56.22591812920194,612.1025014327283,1
4.676320768447077,36.63055093281947,-49.46236239214519,83.74318294496777,-126.09170607913256,94.78885757641444,13.604267906190557,7.147186147186156,6.4745098039215705,-39.0,-8.081818181818175,-10.458823529411763,-4.482352941176469,-15.196581196581207,-4.482352941176469,11.915453092658977,131.9998854832759,30.25641136447058,1894.0099274234267,56.612032089977475,593.2383563691012,1
4.676320768447077,36.63055093281947,-49.46236239214519,83.74318294496777,-126.09170607913256,94.78885757641444,13.604267906190557,11.545454545454554,-11.454901960784312,-40.0,5.772727272727279,7.4705882352941195,-17.431372549019606,-18.452991452991462,1.4941176470588253,14.202769207916269,140.92788185748688,30.25641136447058,1894.0099274234267,56.612032089977475,593.2383563691012,1
4.676320768447077,36.63055093281947,-49.46236239214519,83.74318294496777,-126.09170607913256,94.78885757641444,13.604267906190557,15.943722943722953,9.462745098039218,19.0,12.700000000000006,-5.478431372549018,-0.49803921568627274,-13.025641025641036,3.4862745098039234,9.949356770680303,40.885847477867046,30.25641136447058,1894.0099274234267,56.612032089977475,593.2383563691012,1
4.639353805850658,36.58605588158009,-49.80243975007438,83.42835894893403,-126.15030568693047,94.84391935833511,14.08725966617368,15.943722943722953,9.462745098039218,19.0,12.700000000000006,-5.478431372549018,-0.49803921568627274,-13.025641025641036,3.4862745098039234,9.949356770680303,40.885847477867046,30.342616479168374,1907.9121394336262,56.605618193529494,583.2627668635786,1
4.639353805850658,36.58605588158009,-49.80243975007438,83.42835894893403,-126.15030568693047,94.84391935833511,14.08725966617368,10.445887445887454,5.4784313725490215,21.0,-6.927272727272721,-0.49803921568627274,-0.49803921568627274,-20.623931623931632,-0.49803921568627274,8.246205102087456,72.88691119972012,30.342616479168374,1907.9121394336262,56.605618193529494,583.2627668635786,1
4.639353805850658,36.58605588158009,-49.80243975007438,83.42835894893403,-126.15030568693047,94.84391935833511,14.08725966617368,14.844155844155853,-4.482352941176469,-12.0,-21.93636363636363,-5.478431372549018,1.4941176470588253,-16.28205128205129,-5.478431372549018,10.249488011988014,50.37035232008681,30.342616479168374,1907.9121394336262,56.605618193529494,583.2627668635786,1
4.602386843254238,36.65279845843916,-49.575721511454915,83.1135349529003,-126.16495558887993,94.95404292217643,14.355588421719801,14.844155844155853,-4.482352941176469,-12.0,-21.93636363636363,-5.478431372549018,1.4941176470588253,-16.28205128205129,-5.478431372549018,10.249488011988014,50.37035232008681,30.276968937716106,1899.6423276326345,56.44735164093146,575.0644843791855,1
4.602386843254238,36.65279845843916,-49.575721511454915,83.1135349529003,-126.16495558887993,94.95404292217643,14.355588421719801,12.645021645021654,3.4862745098039234,-7.0,-15.009090909090903,3.4862745098039234,9.462745098039218,-21.709401709401718,4.482352941176472,9.660145165292226,41.83764579708588,30.276968937716106,1899.6423276326345,56.44735164093146,575.0644843791855,1
4.602386843254238,36.65279845843916,-49.575721511454915,83.1135349529003,-126.16495558887993,94.95404292217643,14.355588421719801,13.744588744588754,3.4862745098039234,7.0,-16.163636363636357,-10.458823529411763,15.439215686274512,-47.76068376068377,-19.423529411764704,16.684594000770474,184.3483333102138,30.276968937716106,1899.6423276326345,56.44735164093146,575.0644843791855,1
4.232717217290041,36.9865113427345,-48.819994049390054,82.92464055528,-126.13565578498097,95.28441361370038,14.462919923938273,13.744588744588754,3.4862745098039234,7.0,-16.163636363636357,-10.458823529411763,15.439215686274512,-47.76068376068377,-19.423529411764704,16.684594000770474,184.3483333102138,30.0130742031382,1875.0262616610712,56.24371531580152,568.9116569681591,1
4.232717217290041,36.9865113427345,-48.819994049390054,82.92464055528,-126.13565578498097,95.28441361370038,14.462919923938273,11.545454545454554,0.4980392156862763,7.0,-9.236363636363631,-1.4941176470588218,-9.462745098039214,-1.2434497875801753e-14,4.482352941176472,5.4648841354723725,20.114818322078456,30.0130742031382,1875.0262616610712,56.24371531580152,568.9116569681591,1
4.232717217290041,36.9865113427345,-48.819994049390054,82.92464055528,-126.13565578498097,95.28441361370038,14.462919923938273,4.9480519480519565,-3.48627450980392,14.0,4.618181818181824,24.403921568627453,22.411764705882355,9.769230769230756,4.482352941176472,11.014972282619341,70.95656558863546,30.0130742031382,1875.0262616610712,56.24371531580152,568.9116569681591,1
4.30665114248288,37.587194534466136,-48.479916691460865,82.67278135845311,-126.0624062752336,95.33947539562104,14.355588421719801,4.9480519480519565,-3.48627450980392,14.0,4.618181818181824,24.403921568627453,22.411764705882355,9.769230769230756,4.482352941176472,11.014972282619341,70.95656558863546,30.124587456136624,1883.5939911548858,56.246630861460034,553.4189215646663,1
4.30665114248288,37.587194534466136,-48.479916691460865,82.67278135845311,-126.0624062752336,95.33947539562104,14.355588421719801,17.043290043290053,-4.482352941176469,-26.0,-2.3090909090909024,-5.478431372549018,1.4941176470588253,8.68376068376067,23.407843137254904,11.112360841772606,94.22871917021159,30.124587456136624,1883.5939911548858,56.246630861460034,553.4189215646663,1
4.30665114248288,37.587194534466136,-48.479916691460865,82.67278135845311,-126.0624062752336,95.33947539562104,14.355588421719801,12.645021645021654,0.4980392156862763,13.0,10.390909090909098,11.454901960784316,1.4941176470588253,2.1709401709401597,-6.474509803921567,7.2660549417902365,27.83294239476592,30.124587456136624,1883.5939911548858,56.246630861460034,553.4189215646663,1
4.010915441711522,37.253481650170784,-47.384111871466814,82.54685176003966,-126.0038066674357,95.66984608714499,14.19459116839215,12.645021645021654,0.4980392156862763,13.0,10.390909090909098,11.454901960784316,1.4941176470588253,2.1709401709401597,-6.474509803921567,7.2660549417902365,27.83294239476592,29.54950298778304,1818.3398796300157,55.728148427225754,565.0895535102719,1
4.010915441711522,37.253481650170784,-47.384111871466814,82.54685176003966,-126.0038066674357,95.66984608714499,14.19459116839215,13.744588744588754,-3.48627450980392,-19.0,-18.472727272727266,35.36078431372549,8.466666666666669,1.0854700854700727,-9.462745098039214,13.634907086377673,118.40217919972918,29.54950298778304,1818.3398796300157,55.728148427225754,565.0895535102719,1
4.010915441711522,37.253481650170784,-47.384111871466814,82.54685176003966,-126.0038066674357,95.66984608714499,14.19459116839215,10.445887445887454,-5.478431372549018,-3.0,2.3090909090909157,-0.49803921568627274,-4.482352941176469,-8.683760683760696,-6.474509803921567,5.171509046509049,11.024590982980646,29.54950298778304,1818.3398796300157,55.728148427225754,565.0895535102719,1
4.380585067675719,36.9865113427345,-47.27075275215709,82.48388696083282,-126.0038066674357,96.00021677866894,14.19459116839215,10.445887445887454,-5.478431372549018,-3.0,2.3090909090909157,-0.49803921568627274,-4.482352941176469,-8.683760683760696,-6.474509803921567,5.171509046509049,11.024590982980646,29.54594972085577,1805.0489465982278,55.580383685241465,569.2902717166364,1
4.380585067675719,36.9865113427345,-47.27075275215709,82.48388696083282,-126.0038066674357,96.00021677866894,14.19459116839215,12.645021645021654,6.4745098039215705,19.0,-9.236363636363631,-4.482352941176469,8.466666666666669,-26.05128205128206,-22.41176470588235,13.5959951812893,63.150001307307214,29.54594972085577,1805.0489465982278,55.580383685241465,569.2902717166364,1
4.380585067675719,36.9865113427345,-47.27075275215709,82.48388696083282,-126.0038066674357,96.00021677866894,14.19459116839215,17.043290043290053,-2.490196078431371,33.0,-4.618181818181812,-88.15294117647059,8.466666666666669,-5.427350427350439,28.38823529411765,23.448357688063574,812.3388724939639,29.54594972085577,1805.0489465982278,55.580383685241465,569.2902717166364,1
3.1606753019938685,37.05325391959357,-46.06158881285331,82.54685176003966,-125.8866074518399,97.10145241708213,13.604267906190557,17.043290043290053,-2.490196078431371,33.0,-4.618181818181812,-88.15294117647059,8.466666666666669,-5.427350427350439,28.38823529411765,23.448357688063574,812.3388724939639,28.75850601148025,1746.6025420635544,55.22056483082884,580.3319923904485,1
3.1606753019938685,37.05325391959357,-46.06158881285331,82.54685176003966,-125.8866074518399,97.10145241708213,13.604267906190557,8.246753246753254,-7.470588235294116,-7.0,-27.709090909090904,11.454901960784316,-21.415686274509802,-27.136752136752147,-6.474509803921567,14.613535320888264,85.7625744822329,28.75850601148025,1746.6025420635544,55.22056483082884,580.3319923904485,1
3.1606753019938685,37.05325391959357,-46.06158881285331,82.54685176003966,-125.8866074518399,97.10145241708213,13.604267906190557,8.246753246753254,-0.49803921568627274,-37.0,-20.781818181818174,45.321568627450986,-9.462745098039214,-34.73504273504274,-4.482352941176469,20.06604000574589,288.31086662221753,28.75850601148025,1746.6025420635544,55.22056483082884,580.3319923904485,1
6.672536748653743,37.542699483226755,-44.77685212734305,83.68021814576093,-125.9452070596378,97.70713201820936,12.90661314177055,8.246753246753254,-0.49803921568627274,-37.0,-20.781818181818174,45.321568627450986,-9.462745098039214,-34.73504273504274,-4.482352941176469,20.06604000574589,288.31086662221753,29.664029453074516,1729.4191900563046,55.333256585443586,615.745913396176,1
6.672536748653743,37.542699483226755,-44.77685212734305,83.68021814576093,-125.9452070596378,97.70713201820936,12.90661314177055,20.341991341991353,2.4901960784313744,-17.0,-16.163636363636357,58.27058823529412,21.415686274509806,-6.512820512820524,0.4980392156862763,17.836619752796224,331.694105871976,29.664029453074516,1729.4191900563046,55.333256585443586,615.745913396176,1
6.672536748653743,37.542699483226755,-44.77685212734305,83.68021814576093,-125.9452070596378,97.70713201820936,12.90661314177055,15.943722943722953,-3.48627450980392,-29.0,-26.554545454545448,2.4901960784313744,-20.419607843137253,5.427350427350415,14.443137254901963,14.720604313986666,105.73608171592414,29.664029453074516,1729.4191900563046,55.333256585443586,615.745913396176,1
7.337942075389298,37.498204431987375,-44.285629277000886,85.00247892910261,-126.1210058830315,98.09256449165399,12.423621381787427,15.943722943722953,-3.48627450980392,-29.0,-26.554545454545448,2.4901960784313744,-20.419607843137253,5.427350427350415,14.443137254901963,14.720604313986666,105.73608171592414,29.70725859479252,1710.5383334555986,55.59543754603029,660.0978461859726,1
7.337942075389298,37.498204431987375,-44.285629277000886,85.00247892910261,-126.1210058830315,98.09256449165399,12.423621381787427,11.545454545454554,5.4784313725490215,3.0,1.1545454545454614,-44.325490196078434,-18.427450980392155,2.1709401709401597,8.466666666666669,11.821122423328305,205.20709711723185,29.70725859479252,1710.5383334555986,55.59543754603029,660.0978461859726,1
7.337942075389298,37.498204431987375,-44.285629277000886,85.00247892910261,-126.1210058830315,98.09256449165399,12.423621381787427,12.645021645021654,-5.478431372549018,3.0,-15.009090909090903,14.443137254901963,-29.384313725490195,-17.367521367521377,-8.466666666666665,13.224272867655221,67.2126856251798,29.70725859479252,1710.5383334555986,55.59543754603029,660.0978461859726,1
10.369233008295716,36.67504598405885,-46.023802439750064,86.57659890927118,-126.58980274541472,97.37676132668543,13.01394464398902,12.645021645021654,-5.478431372549018,3.0,-15.009090909090903,14.443137254901963,-29.384313725490195,-17.367521367521377,-8.466666666666665,13.224272867655221,67.2126856251798,31.022693810701544,1785.2116289974165,56.42514911102669,703.6822555190001,1
10.369233008295716,36.67504598405885,-46.023802439750064,86.57659890927118,-126.58980274541472,97.37676132668543,13.01394464398902,10.445887445887454,-1.4941176470588218,10.0,11.54545454545455,1.4941176470588253,4.482352941176472,-14.111111111111121,1.4941176470588253,6.883394873100759,27.03959895288895,31.022693810701544,1785.2116289974165,56.42514911102669,703.6822555190001,1
10.369233008295716,36.67504598405885,-46.023802439750064,86.57659890927118,-126.58980274541472,97.37676132668543,13.01394464398902,12.645021645021654,-5.478431372549018,-12.0,-10.390909090909084,9.462745098039218,-1.4941176470588218,-15.196581196581207,-8.466666666666665,9.391809089603209,18.661229640050383,31.022693810701544,1785.2116289974165,56.42514911102669,703.6822555190001,1
5.526560908164731,35.96312516422877,-48.06426658732519,86.51363411006434,-126.75095166685892,97.15651419900279,13.765265159518265,12.645021645021654,-5.478431372549018,-12.0,-10.390909090909084,9.462745098039218,-1.4941176470588218,-15.196581196581207,-8.466666666666665,9.391809089603209,18.661229640050383,29.851317553239568,1809.827299988999,56.84700862053944,696.6909068872417,1
5.526560908164731,35.96312516422877,-48.06426658732519,86.51363411006434,-126.75095166685892,97.15651419900279,13.765265159518265,10.445887445887454,5.4784313725490215,25.0,-8.081818181818175,-12.450980392156861,-13.44705882352941,-29.307692307692317,-11.454901960784312,14.458346310552194,69.01446381940885,29.851317553239568,1809.827299988999,56.84700862053944,696.6909068872417,1
5.526560908164731,35.96312516422877,-48.06426658732519,86.51363411006434,-126.75095166685892,97.15651419900279,13.765265159518265,8.246753246753254,1.4941176470588253,-14.0,-24.24545454545454,7.4705882352941195,7.4705882352941195,-9.76923076923078,0.4980392156862763,9.14934648684649,55.9577648180436,29.851317553239568,1809.827299988999,56.84700862053944,696.6909068872417,1
5.119924319604114,37.320224227029854,-49.99137161559059,86.07288051561716,-126.66305225516209,97.04639063516146,13.765265159518265,8.246753246753254,1.4941176470588253,-14.0,-24.24545454545454,7.4705882352941195,7.4705882352941195,-9.76923076923078,0.4980392156862763,9.14934648684649,55.9577648180436,30.810506720741518,1949.5715037283107,57.79482545274587,639.8757926397428,1
5.119924319604114,37.320224227029854,-49.99137161559059,86.07288051561716,-126.66305225516209,97.04639063516146,13.765265159518265,14.844155844155853,1.4941176470588253,-11.0,-6.927272727272721,-5.478431372549018,21.415686274509806,-19.538461538461547,0.4980392156862763,10.149520577461756,62.58723790722258,30.810506720741518,1949.5715037283107,57.79482545274587,639.8757926397428,1
5.119924319604114,37.320224227029854,-49.99137161559059,86.07288051561716,-126.66305225516209,97.04639063516146,13.765265159518265,13.744588744588754,9.462745098039218,12.0,-13.854545454545448,-27.392156862745097,2.4901960784313744,-2.1709401709401828,9.462745098039218,11.322239688416161,62.80695170333909,30.810506720741518,1949.5715037283107,57.79482545274587,639.8757926397428,1
6.265900160093126,37.631689585705516,-49.651294257661405,86.00991571641043,-126.63375245126315,96.71601994363752,13.765265159518265,13.744588744588754,9.462745098039218,12.0,-13.854545454545448,-27.392156862745097,2.4901960784313744,-2.1709401709401828,9.462745098039218,11.322239688416161,62.80695170333909,31.18296133448668,1954.810774407711,57.764299853259125,634.4788357340549,1
6.265900160093126,37.631689585705516,-49.651294257661405,86.00991571641043,-126.63375245126315,96.71601994363752,13.765265159518265,18.142857142857153,3.4862745098039234,-1.0,-47.33636363636363,-20.419607843137253,-0.49803921568627274,-17.367521367521377,9.462745098039218,14.714176101676102,237.05366307692023,31.18296133448668,1954.810774407711,57.764299853259125,634.4788357340549,1
6.265900160093126,37.631689585705516,-49.651294257661405,86.00991571641043,-126.63375245126315,96.71601994363752,13.765265159518265,13.744588744588754,0.4980392156862763,19.0,-6.927272727272721,3.4862745098039234,14.443137254901963,-17.367521367521377,3.4862745098039234,9.869138541197367,50.498991146305876,31.18296133448668,1954.810774407711,57.764299853259125,634.4788357340549,1
4.898122544025596,37.18673907331171,-48.819994049390054,85.94695091720371,-126.61910254931365,96.71601994363752,13.765265159518265,13.744588744588754,0.4980392156862763,19.0,-6.927272727272721,3.4862745098039234,14.443137254901963,-17.367521367521377,3.4862745098039234,9.869138541197367,50.498991146305876,30.30161855557579,1887.5581583597886,57.3178946799685,648.5503011106954,1
4.898122544025596,37.18673907331171,-48.819994049390054,85.94695091720371,-126.61910254931365,96.71601994363752,13.765265159518265,10.445887445887454,-6.474509803921567,9.0,31.17272727272728,19.423529411764708,-2.490196078431371,-1.0854700854700976,28.38823529411765,13.560069424040016,131.90223211630607,30.30161855557579,1887.5581583597886,57.3178946799685,648.5503011106954,1
4.898122544025596,37.18673907331171,-48.819994049390054,85.94695091720371,-126.61910254931365,96.71601994363752,13.765265159518265,15.943722943722953,5.4784313725490215,9.0,-9.236363636363631,5.4784313725490215,23.407843137254904,-17.367521367521377,3.4862745098039234,11.174823542470603,49.03395917732949,30.30161855557579,1887.5581583597886,57.3178946799685,648.5503011106954,1
5.045990394411275,37.00875886835419,-47.68640285629276,86.00991571641043,-126.61910254931365,96.99132885324082,13.657933657299793,15.943722943722953,5.4784313725490215,9.0,-9.236363636363631,5.4784313725490215,23.407843137254904,-17.367521367521377,3.4862745098039234,11.174823542470603,49.03395917732949,29.91371737301941,1829.265714338313,56.90169248035246,663.9695152534291,1
5.045990394411275,37.00875886835419,-47.68640285629276,86.00991571641043,-126.61910254931365,96.99132885324082,13.657933657299793,15.943722943722953,11.454901960784316,-4.0,-30.018181818181812,-39.345098039215685,5.4784313725490215,-40.16239316239317,-4.482352941176469,18.86063527975293,238.26843958557927,29.91371737301941,1829.265714338313,56.90169248035246,663.9695152534291,1
5.045990394411275,37.00875886835419,-47.68640285629276,86.00991571641043,-126.61910254931365,96.99132885324082,13.657933657299793,14.844155844155853,-10.458823529411763,-7.0,-18.472727272727266,-20.419607843137253,14.443137254901963,-16.28205128205129,0.4980392156862763,12.802317780258957,42.81438801525813,29.91371737301941,1829.265714338313,56.90169248035246,663.9695152534291,1
6.9682724494251005,37.11999649645264,-47.23296637905384,86.57659890927118,-126.70700196101052,97.10145241708213,13.496936403972086,14.844155844155853,-10.458823529411763,-7.0,-18.472727272727266,-20.419607843137253,14.443137254901963,-16.28205128205129,0.4980392156862763,12.802317780258957,42.81438801525813,30.440411774977196,1827.0538499044146,56.97652059492589,682.6915171231306,1
6.9682724494251005,37.11999649645264,-47.23296637905384,86.57659890927118,-126.70700196101052,97.10145241708213,13.496936403972086,12.645021645021654,0.4980392156862763,4.0,-8.081818181818175,-6.474509803921567,-3.48627450980392,-32.56410256410257,-2.490196078431371,8.779995249848191,106.49272962310735,30.440411774977196,1827.0538499044146,56.97652059492589,682.6915171231306,1
6.9682724494251005,37.11999649645264,-47.23296637905384,86.57659890927118,-126.70700196101052,97.10145241708213,13.496936403972086,13.744588744588754,15.439215686274512,8.0,4.618181818181824,8.466666666666669,-13.44705882352941,-29.307692307692317,-0.49803921568627274,11.69018040782747,75.86069532016765,30.440411774977196,1827.0538499044146,56.97652059492589,682.6915171231306,1
6.4877019356716445,37.275729175790474,-46.590598036298715,87.20624690133855,-126.73630176490946,97.37676132668543,13.174941897316728,13.744588744588754,15.439215686274512,8.0,4.618181818181824,8.466666666666669,-13.44705882352941,-29.307692307692317,-0.49803921568627274,11.69018040782747,75.86069532016765,30.118009715920277,1799.7948982163298,57.02419137114257,704.9090524929912,1
6.4877019356716445,37.275729175790474,-46.590598036298715,87.20624690133855,-126.73630176490946,97.37676132668543,13.174941897316728,18.142857142857153,112.05882352941177,43.0,-3.463636363636357,9.462745098039218,-9.462745098039214,-14.111111111111121,1.4941176470588253,26.399504498769208,1364.6160292330712,30.118009715920277,1799.7948982163298,57.02419137114257,704.9090524929912,1
6.4877019356716445,37.275729175790474,-46.590598036298715,87.20624690133855,-126.73630176490946,97.37676132668543,13.174941897316728,15.943722943722953,24.403921568627453,-4.0,19.627272727272732,5.4784313725490215,-24.40392156862745,24.96581196581195,-5.478431372549018,15.537689189895072,85.49925952826605,30.118009715920277,1799.7948982163298,57.02419137114257,704.9090524929912,1
8.37301702808905,37.320224227029854,-46.4016661707825,88.15071888943976,-126.85350098050526,97.32169954476475,12.852947390661313,15.943722943722953,24.403921568627453,-4.0,19.627272727272732,5.4784313725490215,-24.40392156862745,24.96581196581195,-5.478431372549018,15.537689189895072,85.49925952826605,30.698302475300466,1807.9269426564092,57.29086976241737,734.8658630513758,1
8.37301702808905,37.320224227029854,-46.4016661707825,88.15071888943976,-126.85350098050526,97.32169954476475,12.852947390661313,9.346320346320354,-127.0,-27.0,8.08181818181819,0.4980392156862763,-6.474509803921567,23.880341880341867,1.4941176470588253,25.471893384393383,1776.4001577970687,30.698302475300466,1807.9269426564092,57.29086976241737,734.8658630513758,1
8.37301702808905,37.320224227029854,-46.4016661707825,88.15071888943976,-126.85350098050526,97.32169954476475,12.852947390661313,9.346320346320354,-67.23529411764706,27.0,12.700000000000006,3.4862745098039234,2.4901960784313744,3.256410256410245,-15.439215686274508,17.619213874360934,468.8662391329809,30.698302475300466,1807.9269426564092,57.29086976241737,734.8658630513758,1
8.225149177703372,37.275729175790474,-46.74174352871169,88.96926127912741,-126.98535009805053,97.04639063516146,12.745615888442842,9.346320346320354,-67.23529411764706,27.0,12.700000000000006,3.4862745098039234,2.4901960784313744,3.256410256410245,-15.439215686274508,17.619213874360934,468.8662391329809,30.747540627401843,1820.7052019459284,57.662244661209854,757.498324068352,1
8.225149177703372,37.275729175790474,-46.74174352871169,88.96926127912741,-126.98535009805053,97.04639063516146,12.745615888442842,17.043290043290053,-26.396078431372548,13.0,8.08181818181819,-4.482352941176469,-12.450980392156861,5.427350427350415,-2.490196078431371,11.171508311949488,61.985329036091365,30.747540627401843,1820.7052019459284,57.662244661209854,757.498324068352,1
8.225149177703372,37.275729175790474,-46.74174352871169,88.96926127912741,-126.98535009805053,97.04639063516146,12.745615888442842,10.445887445887454,1.4941176470588253,-25.0,-9.236363636363631,-9.462745098039214,-4.482352941176469,-10.854700854700866,-1.4941176470588218,9.058785658785661,56.40836218171585,30.747540627401843,1820.7052019459284,57.662244661209854,757.498324068352,1
5.67442875855041,37.297976701410164,-47.23296637905384,89.09519087754086,-127.0,97.04639063516146,12.691950137333606,10.445887445887454,1.4941176470588253,-25.0,-9.236363636363631,-9.462745098039214,-4.482352941176469,-10.854700854700866,-1.4941176470588218,9.058785658785661,56.40836218171585,30.068457279671474,1824.1202638022642,57.87537798600162,755.6835427107612,1
5.67442875855041,37.297976701410164,-47.23296637905384,89.09519087754086,-127.0,97.04639063516146,12.691950137333606,12.645021645021654,10.458823529411767,-5.0,-6.927272727272721,15.439215686274512,9.462745098039218,-35.82051282051283,2.4901960784313744,12.28047344812051,107.57336937312091,30.068457279671474,1824.1202638022642,57.87537798600162,755.6835427107612,1
5.67442875855041,37.297976701410164,-47.23296637905384,89.09519087754086,-127.0,97.04639063516146,12.691950137333606,17.043290043290053,11.454901960784316,8.0,-16.163636363636357,-4.482352941176469,-2.490196078431371,-31.478632478632488,5.4784313725490215,12.073930154812508,89.70334532675498,30.068457279671474,1824.1202638022642,57.87537798600162,755.6835427107612,1
2.532236937854733,37.364719278269234,-47.724189229396,88.59147248388695,-126.8974506863537,97.32169954476475,12.691950137333606,17.043290043290053,11.454901960784316,8.0,-16.163636363636357,-4.482352941176469,-2.490196078431371,-31.478632478632488,5.4784313725490215,12.073930154812508,89.70334532675498,29.20704848183999,1829.855424687573,57.89346033051739,733.6056170433931,1
2.532236937854733,37.364719278269234,-47.724189229396,88.59147248388695,-126.8974506863537,97.32169954476475,12.691950137333606,13.744588744588754,4.482352941176472,-7.0,-17.318181818181813,8.466666666666669,-15.439215686274508,2.1709401709401597,-4.482352941176469,9.138037371125606,32.107586818981616,29.20704848183999,1829.855424687573,57.89346033051739,733.6056170433931,1
2.532236937854733,37.364719278269234,-47.724189229396,88.59147248388695,-126.8974506863537,97.32169954476475,12.691950137333606,15.943722943722953,5.4784313725490215,-15.0,-11.54545454545454,4.482352941176472,-8.466666666666665,3.256410256410245,18.42745098039216,10.325061213296507,33.087001361578864,29.20704848183999,1829.855424687573,57.89346033051739,733.6056170433931,1
-4.454518992868596,37.542699483226755,-48.74442130318357,86.57659890927118,-126.53120313761681,98.42293518317794,12.745615888442842,15.943722943722953,5.4784313725490215,-15.0,-11.54545454545454,4.482352941176472,-8.466666666666665,3.256410256410245,18.42745098039216,10.325061213296507,33.087001361578864,30.247213259759643,1861.8048366657822,57.6212398985605,660.1792545122823,1
-4.454518992868596,37.542699483226755,-48.74442130318357,86.57659890927118,-126.53120313761681,98.42293518317794,12.745615888442842,7.147186147186156,3.4862745098039234,-27.0,10.390909090909098,1.4941176470588253,-0.49803921568627274,-31.478632478632488,0.4980392156862763,10.24914978812038,150.49708240999183,30.247213259759643,1861.8048366657822,57.6212398985605,660.1792545122823,1
-4.454518992868596,37.542699483226755,-48.74442130318357,86.57659890927118,-126.53120313761681,98.42293518317794,12.745615888442842,14.844155844155853,34.36470588235294,-22.0,-17.318181818181813,4.482352941176472,9.462745098039218,-14.111111111111121,0.4980392156862763,14.635161488837962,111.5291875270157,30.247213259759643,1861.8048366657822,57.6212398985605,660.1792545122823,1
-14.435598893901926,38.00989752124024,-49.42457601904194,82.60981655924638,-125.72545853039568,100.9007153696076,12.584618635115135,14.844155844155853,34.36470588235294,-22.0,-17.318181818181813,4.482352941176472,9.462745098039218,-14.111111111111121,0.4980392156862763,14.635161488837962,111.5291875270157,33.9566908113947,1936.5909629600947,56.68143003317619,536.784642186018,1
-14.435598893901926,38.00989752124024,-49.42457601904194,82.60981655924638,-125.72545853039568,100.9007153696076,12.584618635115135,17.043290043290053,-0.49803921568627274,-1.0,-18.472727272727266,16.43529411764706,7.4705882352941195,13.025641025641011,3.4862745098039234,9.678981802511213,55.893133855333865,33.9566908113947,1936.5909629600947,56.68143003317619,536.784642186018,1
-14.435598893901926,38.00989752124024,-49.42457601904194,82.60981655924638,-125.72545853039568,100.9007153696076,12.584618635115135,-0.549783549783541,-23.4078431372549,-28.0,-18.472727272727266,-10.458823529411763,-5.478431372549018,-5.427350427350439,-3.48627450980392,11.910154224860106,102.8096126349939,33.9566908113947,1936.5909629600947,56.68143003317619,536.784642186018,1
-25.784456411002783,38.38810545677497,-50.82267182386194,76.5651958353991,-124.43626715884187,105.195534359419,12.208958377350484,-0.549783549783541,-23.4078431372549,-28.0,-18.472727272727266,-10.458823529411763,-5.478431372549018,-5.427350427350439,-3.48627450980392,11.910154224860106,102.8096126349939,38.3317445638799,2117.265451791651,55.25865770534534,379.1310354999486,1
-25.784456411002783,38.38810545677497,-50.82267182386194,76.5651958353991,-124.43626715884187,105.195534359419,12.208958377350484,9.346320346320354,1.4941176470588253,17.0,53.10909090909092,-14.44313725490196,-2.490196078431371,-16.28205128205129,-2.490196078431371,14.581888699535762,283.46019501679183,38.3317445638799,2117.265451791651,55.25865770534534,379.1310354999486,1
-25.784456411002783,38.38810545677497,-50.82267182386194,76.5651958353991,-124.43626715884187,105.195534359419,12.208958377350484,17.043290043290053,11.454901960784316,16.0,-5.772727272727266,9.462745098039218,-2.490196078431371,-16.28205128205129,-4.482352941176469,10.373533084562498,33.010384069171316,38.3317445638799,2117.265451791651,55.25865770534534,379.1310354999486,1
-30.220491922573153,38.566085661732494,-51.540612912823555,69.89092711948433,-122.95662706194489,110.4264036418816,11.61863511514889,17.043290043290053,11.454901960784316,16.0,-5.772727272727266,9.462745098039218,-2.490196078431371,-16.28205128205129,-4.482352941176469,10.373533084562498,33.010384069171316,40.10906349904307,2217.5596571344195,53.33254189801346,247.71968020429486,1
-30.220491922573153,38.566085661732494,-51.540612912823555,69.89092711948433,-122.95662706194489,110.4264036418816,11.61863511514889,13.744588744588754,3.4862745098039234,-6.0,-39.25454545454545,14.443137254901963,16.43529411764706,-1.0854700854700976,0.4980392156862763,11.86841867283044,161.60880986773574,40.10906349904307,2217.5596571344195,53.33254189801346,247.71968020429486,1
-30.220491922573153,38.566085661732494,-51.540612912823555,69.89092711948433,-122.95662706194489,110.4264036418816,11.61863511514889,10.445887445887454,-9.462745098039214,-45.0,-31.172727272727265,-0.49803921568627274,-4.482352941176469,-39.07692307692309,-22.41176470588235,20.318804969540263,277.4572853088526,40.10906349904307,2217.5596571344195,53.33254189801346,247.71968020429486,1
-23.45553776742834,38.47709555925373,-50.55816721213924,64.9167079821517,-121.69673549429001,115.38196401474092,10.70631734629194,10.445887445887454,-9.462745098039214,-45.0,-31.172727272727265,-0.49803921568627274,-4.482352941176469,-39.07692307692309,-22.41176470588235,20.318804969540263,277.4572853088526,37.49693351294044,2082.913601727593,51.317323584514895,175.19551506655412,1
-23.45553776742834,38.47709555925373,-50.55816721213924,64.9167079821517,-121.69673549429001,115.38196401474092,10.70631734629194,21.44155844155845,14.443137254901963,55.0,-15.009090909090903,-12.450980392156861,16.43529411764706,-15.196581196581207,5.4784313725490215,19.431884210560682,226.27536516148737,37.49693351294044,2082.913601727593,51.317323584514895,175.19551506655412,1
-23.45553776742834,38.47709555925373,-50.55816721213924,64.9167079821517,-121.69673549429001,115.38196401474092,10.70631734629194,1.649350649350657,64.24705882352941,-22.0,-16.163636363636357,8.466666666666669,13.447058823529414,9.769230769230756,5.4784313725490215,17.652679183561535,394.3843317495107,37.49693351294044,2082.913601727593,51.317323584514895,175.19551506655412,1
-13.40052394120217,38.47709555925373,-50.595953585242476,61.83143282102128,-120.86169108316992,118.90591805766309,9.954996830762752,1.649350649350657,64.24705882352941,-22.0,-16.163636363636357,8.466666666666669,13.447058823529414,9.769230769230756,5.4784313725490215,17.652679183561535,394.3843317495107,34.15785769523279,2001.465912556112,50.30149398850583,136.42129707467876,1
-13.40052394120217,38.47709555925373,-50.595953585242476,61.83143282102128,-120.86169108316992,118.90591805766309,9.954996830762752,21.44155844155845,64.24705882352941,62.0,6.217248937900877e-15,-2.490196078431371,11.454901960784316,4.34188034188033,-0.49803921568627274,20.80920435773377,731.9652758950272,34.15785769523279,2001.465912556112,50.30149398850583,136.42129707467876,1
-13.40052394120217,38.47709555925373,-50.595953585242476,61.83143282102128,-120.86169108316992,118.90591805766309,9.954996830762752,6.047619047619056,-25.4,31.0,6.217248937900877e-15,17.43137254901961,-14.44313725490196,-39.07692307692309,-8.466666666666665,17.733214824391297,176.87796519884205,34.15785769523279,2001.465912556112,50.30149398850583,136.42129707467876,1
-11.995779362538222,39.8786896732942,-50.55816721213924,58.68319286068413,-119.79224824085824,121.82419249945802,8.506021550813443,6.047619047619056,-25.4,31.0,6.217248937900877e-15,17.43137254901961,-14.44313725490196,-39.07692307692309,-8.466666666666665,17.733214824391297,176.87796519884205,34.14421208265722,2059.47389628816,49.70668324870585,88.9461037361277,1
-11.995779362538222,39.8786896732942,-50.55816721213924,58.68319286068413,-119.79224824085824,121.82419249945802,8.506021550813443,1.649350649350657,-105.08627450980393,-2.0,17.318181818181824,-8.466666666666665,-19.423529411764704,-66.21367521367523,-5.478431372549018,28.204513705249003,1407.0042939236123,34.14421208265722,2059.47389628816,49.70668324870585,88.9461037361277,1
-11.995779362538222,39.8786896732942,-50.55816721213924,58.68319286068413,-119.79224824085824,121.82419249945802,8.506021550813443,12.645021645021654,-83.17254901960784,37.0,-5.772727272727266,6.4745098039215705,14.443137254901963,-1.0854700854700976,7.4705882352941195,21.008000414618063,750.9595194964944,34.14421208265722,2059.47389628816,49.70668324870585,88.9461037361277,1
-17.208121088633405,42.17018481212226,-50.86045819696518,53.33118492811104,-118.01961010497175,123.97160199436372,6.466723008662598,12.645021645021654,-83.17254901960784,37.0,-5.772727272727266,6.4745098039215705,14.443137254901963,-1.0854700854700976,7.4705882352941195,21.008000414618063,750.9595194964944,36.74625469924028,2218.827257196798,48.78727597906616,34.365544278734944,1
-17.208121088633405,42.17018481212226,-50.86045819696518,53.33118492811104,-118.01961010497175,123.97160199436372,6.466723008662598,20.341991341991353,-16.435294117647057,-2.0,-60.03636363636363,4.482352941176472,9.462745098039218,32.56410256410255,-4.482352941176469,18.725650330062095,382.461131039038,36.74625469924028,2218.827257196798,48.78727597906616,34.365544278734944,1
-17.208121088633405,42.17018481212226,-50.86045819696518,53.33118492811104,-118.01961010497175,123.97160199436372,6.466723008662598,25.83982683982685,1.4941176470588253,-6.0,-20.781818181818174,-6.474509803921567,2.4901960784313744,26.051282051282037,-8.466666666666665,12.199802158625687,106.51510265582556,36.74625469924028,2218.827257196798,48.78727597906616,34.365544278734944,1
-31.58826953864068,45.284838398878854,-51.46504016661707,45.01983143282098,-115.45587726381359,126.55950574463469,4.212761462074809,25.83982683982685,1.4941176470588253,-6.0,-20.781818181818174,-6.474509803921567,2.4901960784313744,26.051282051282037,-8.466666666666665,12.199802158625687,106.51510265582556,42.77938270137887,2610.8499561681538,47.256569999438966,13.300973034035872,1
-31.58826953864068,45.284838398878854,-51.46504016661707,45.01983143282098,-115.45587726381359,126.55950574463469,4.212761462074809,20.341991341991353,-2.490196078431371,-37.0,-47.33636363636363,4.482352941176472,-5.478431372549018,16.28205128205127,6.4745098039215705,17.485737057060586,277.2643109281239,42.77938270137887,2610.8499561681538,47.256569999438966,13.300973034035872,1
-31.58826953864068,45.284838398878854,-51.46504016661707,45.01983143282098,-115.45587726381359,126.55950574463469,4.212761462074809,20.341991341991353,17.43137254901961,23.0,15.009090909090915,-6.474509803921567,12.450980392156865,11.940170940170926,9.462745098039218,14.513857629298807,30.82329730674263,42.77938270137887,2610.8499561681538,47.256569999438966,13.300973034035872,1
-17.50385678940476,49.3783831129018,-59.58911038381433,37.1492315319781,-112.23289883492907,126.99999999999997,-0.2414958799915894,20.341991341991353,17.43137254901961,23.0,15.009090909090915,-6.474509803921567,12.450980392156865,11.940170940170926,9.462745098039218,14.513857629298807,30.82329730674263,42.157116762040296,3019.719537235387,48.70557500956475,126.2265437792087,1
-17.50385678940476,49.3783831129018,-59.58911038381433,37.1492315319781,-112.23289883492907,126.99999999999997,-0.2414958799915894,2.7489177489177568,14.443137254901963,3.0,27.709090909090918,-6.474509803921567,-8.466666666666665,3.256410256410245,0.4980392156862763,8.324596481949424,80.43131447545362,42.157116762040296,3019.719537235387,48.70557500956475,126.2265437792087,1
-17.50385678940476,49.3783831129018,-59.58911038381433,37.1492315319781,-112.23289883492907,126.99999999999997,-0.2414958799915894,3.8484848484848566,0.4980392156862763,-30.0,42.718181818181826,9.462745098039218,16.43529411764706,-5.427350427350439,-3.48627450980392,13.984546254399199,225.2334778788818,42.157116762040296,3019.719537235387,48.70557500956475,126.2265437792087,1
34.804395284529164,55.54094770955591,-56.26390955072894,38.15666831928604,-110.69465913023419,116.97875569044002,-5.76906824424259,3.8484848484848566,0.4980392156862763,-30.0,42.718181818181826,9.462745098039218,16.43529411764706,-5.427350427350439,-3.48627450980392,13.984546254399199,225.2334778788818,48.86975084827134,3537.2944765060074,49.987175193190296,105.10133812606995,1
34.804395284529164,55.54094770955591,-56.26390955072894,38.15666831928604,-110.69465913023419,116.97875569044002,-5.76906824424259,3.8484848484848566,0.4980392156862763,-35.0,-47.33636363636363,-28.388235294117646,-13.44705882352941,-47.76068376068377,-9.462745098039214,23.2177013346131,360.8055301561747,48.86975084827134,3537.2944765060074,49.987175193190296,105.10133812606995,1
34.804395284529164,55.54094770955591,-56.26390955072894,38.15666831928604,-110.69465913023419,116.97875569044002,-5.76906824424259,9.346320346320354,-108.07450980392157,-2.0,-32.32727272727272,-17.431372549019606,-13.44705882352941,-122.65811965811966,0.4980392156862763,38.2228366404837,2379.7946442383945,48.86975084827134,3537.2944765060074,49.987175193190296,105.10133812606995,1
50.03478387425409,64.57344311115003,-51.76733115144302,42.69013386217148,-109.58126658207408,100.9007153696076,-12.10162687513207,9.346320346320354,-108.07450980392157,-2.0,-32.32727272727272,-17.431372549019606,-13.44705882352941,-122.65811965811966,0.4980392156862763,38.2228366404837,2379.7946442383945,55.45851937894904,4018.3698320219128,53.01030270825484,120.87853963988992,1
50.03478387425409,64.57344311115003,-51.76733115144302,42.69013386217148,-109.58126658207408,100.9007153696076,-12.10162687513207,10.445887445887454,-34.364705882352936,8.0,33.48181818181819,-0.49803921568627274,-5.478431372549018,-19.538461538461547,11.454901960784316,15.407780699692466,159.8730837913985,55.45851937894904,4018.3698320219128,53.01030270825484,120.87853963988992,1
50.03478387425409,64.57344311115003,-51.76733115144302,42.69013386217148,-109.58126658207408,100.9007153696076,-12.10162687513207,13.744588744588754,-10.458823529411763,3.0,2.3090909090909157,-11.454901960784312,-7.470588235294116,-42.33333333333334,-4.482352941176469,11.90670995670996,168.2431058244073,55.45851937894904,4018.3698320219128,53.01030270825484,120.87853963988992,1
3.8630475913258433,71.33669089953577,-54.56352276108301,39.856717897868066,-106.43153766293692,88.9523086928246,-18.70251426156767,13.744588744588754,-10.458823529411763,3.0,2.3090909090909157,-11.454901960784312,-7.470588235294116,-42.33333333333334,-4.482352941176469,11.90670995670996,168.2431058244073,43.25442041731487,3969.5367440363307,55.25231051949561,248.10299647853617,1
3.8630475913258433,71.33669089953577,-54.56352276108301,39.856717897868066,-106.43153766293692,88.9523086928246,-18.70251426156767,15.943722943722953,16.43529411764706,15.0,-3.463636363636357,-48.30980392156863,-20.419607843137253,-3.256410256410268,-0.49803921568627274,15.4158143327261,231.684158399562,43.25442041731487,3969.5367440363307,55.25231051949561,248.10299647853617,1
3.8630475913258433,71.33669089953577,-54.56352276108301,39.856717897868066,-106.43153766293692,88.9523086928246,-18.70251426156767,20.341991341991353,57.274509803921575,79.0,127.00000000000001,23.407843137254904,9.462745098039218,21.709401709401696,4.482352941176472,42.83485550397315,1787.7753703236192,43.25442041731487,3969.5367440363307,55.25231051949561,248.10299647853617,1
-62.23388153107264,78.41140404659717,-58.53109193692353,28.145265245413952,-100.2492790402584,88.0162584001734,-27.77202619902812,20.341991341991353,57.274509803921575,79.0,127.00000000000001,23.407843137254904,9.462745098039218,21.709401709401696,4.482352941176472,42.83485550397315,1787.7753703236192,66.39212583819779,6424.675702033236,55.02925374297822,640.8683305473847,1
-62.23388153107264,78.41140404659717,-58.53109193692353,28.145265245413952,-100.2492790402584,88.0162584001734,-27.77202619902812,13.744588744588754,-11.454901960784312,-69.0,-25.399999999999995,14.443137254901963,12.450980392156865,3.256410256410245,2.4901960784313744,19.03002683590919,458.5127912060808,66.39212583819779,6424.675702033236,55.02925374297822,640.8683305473847,1
-62.23388153107264,78.41140404659717,-58.53109193692353,28.145265245413952,-100.2492790402584,88.0162584001734,-27.77202619902812,19.242424242424253,-38.34901960784313,-11.0,-18.472727272727266,-4.482352941176469,5.4784313725490215,21.709401709401696,5.4784313725490215,15.526598564833858,132.2819679470906,66.39212583819779,6424.675702033236,55.02925374297822,640.8683305473847,1
-74.21117741231264,87.68862223000787,-61.17613805415054,14.922657411997989,-92.67527973237976,86.30934316063296,-38.12951616311011,19.242424242424253,-38.34901960784313,-11.0,-18.472727272727266,-4.482352941176469,5.4784313725490215,21.709401709401696,5.4784313725490215,15.526598564833858,132.2819679470906,74.35864589882368,8090.362371625385,54.5958058987188,1356.1969874308197,1
-74.21117741231264,87.68862223000787,-61.17613805415054,14.922657411997989,-92.67527973237976,86.30934316063296,-38.12951616311011,12.645021645021654,-22.41176470588235,-12.0,13.854545454545462,37.352941176470594,3.4862745098039234,-8.683760683760696,2.4901960784313744,14.115563031739505,127.59204891076031,74.35864589882368,8090.362371625385,54.5958058987188,1356.1969874308197,1
-74.21117741231264,87.68862223000787,-61.17613805415054,14.922657411997989,-92.67527973237976,86.30934316063296,-38.12951616311011,14.844155844155853,7.4705882352941195,-1.0,-40.4090909090909,23.407843137254904,16.43529411764706,-10.854700854700866,1.4941176470588253,14.489473843150316,166.9424846650812,74.35864589882368,8090.362371625385,54.5958058987188,1356.1969874308197,1
-70.32964633968857,97.16606814399577,-64.19904790240999,2.9593455627168623,-84.42738493482526,81.07847387817036,-48.96999788717517,14.844155844155853,7.4705882352941195,-1.0,-40.4090909090909,23.407843137254904,16.43529411764706,-10.854700854700866,1.4941176470588253,14.489473843150316,166.9424846650812,77.23158746203144,9021.849880711512,54.774820536374214,2285.3386909615647,1
-70.32964633968857,97.16606814399577,-64.19904790240999,2.9593455627168623,-84.42738493482526,81.07847387817036,-48.96999788717517,9.346320346320354,0.4980392156862763,-46.0,-19.62727272727272,9.462745098039218,0.4980392156862763,-31.478632478632488,-4.482352941176469,15.174175252851725,263.93917191685733,77.23158746203144,9021.849880711512,54.774820536374214,2285.3386909615647,1
-70.32964633968857,97.16606814399577,-64.19904790240999,2.9593455627168623,-84.42738493482526,81.07847387817036,-48.96999788717517,17.043290043290053,11.454901960784316,-9.0,-53.1090909090909,-50.30196078431372,3.4862745098039234,-1.2434497875801753e-14,4.482352941176472,18.609733893557426,445.0313347860614,77.23158746203144,9021.849880711512,54.774820536374214,2285.3386909615647,1
-48.03856789404746,105.41990014890075,-74.89259149062778,-6.611303916708039,-76.48713807820972,68.5243876002601,-58.200507077963266,17.043290043290053,11.454901960784316,-9.0,-53.1090909090909,-50.30196078431372,3.4862745098039234,-1.2434497875801753e-14,4.482352941176472,18.609733893557426,445.0313347860614,76.11701984452533,9463.872439778215,62.30793185207886,2559.5649160077137,1
-48.03856789404746,105.41990014890075,-74.89259149062778,-6.611303916708039,-76.48713807820972,68.5243876002601,-58.200507077963266,13.744588744588754,4.482352941176472,13.0,21.936363636363645,16.43529411764706,8.466666666666669,-1.0854700854700976,0.4980392156862763,9.956096925949872,58.49256496963985,76.11701984452533,9463.872439778215,62.30793185207886,2559.5649160077137,1
-48.03856789404746,105.41990014890075,-74.89259149062778,-6.611303916708039,-76.48713807820972,68.5243876002601,-58.200507077963266,13.744588744588754,13.447058823529414,-2.0,34.63636363636364,25.400000000000002,0.4980392156862763,-27.136752136752147,13.447058823529414,16.288732672556208,144.7810072404419,76.11701984452533,9463.872439778215,62.30793185207886,2559.5649160077137,1
-32.66031145393685,109.98064290093718,-93.48348705742339,-16.43381259295984,-68.81058945668475,50.409061348363295,-63.88907669554192,13.744588744588754,13.447058823529414,-2.0,34.63636363636364,25.400000000000002,0.4980392156862763,-27.136752136752147,13.447058823529414,16.288732672556208,144.7810072404419,78.70814713743248,10907.258788245745,73.29931418377346,2493.302991112416,1
-32.66031145393685,109.98064290093718,-93.48348705742339,-16.43381259295984,-68.81058945668475,50.409061348363295,-63.88907669554192,14.844155844155853,6.4745098039215705,7.0,-11.54545454545454,2.4901960784313744,-10.458823529411763,9.769230769230756,-1.4941176470588218,8.009561027208084,20.6570773276292,78.70814713743248,10907.258788245745,73.29931418377346,2493.302991112416,1
-32.66031145393685,109.98064290093718,-93.48348705742339,-16.43381259295984,-68.81058945668475,50.409061348363295,-63.88907669554192,9.346320346320354,-0.49803921568627274,-18.0,-57.72727272727272,-36.35686274509804,-20.419607843137253,-4.341880341880353,-3.48627450980392,18.772032216149867,384.95915762947243,78.70814713743248,10907.258788245745,73.29931418377346,2493.302991112416,1
-71.84529180614177,112.07191030918804,-108.9381136566498,-32.42687159147249,-58.921905640789035,37.3594190331671,-67.43101626875136,9.346320346320354,-0.49803921568627274,-18.0,-57.72727272727272,-36.35686274509804,-20.419607843137253,-4.341880341880353,-3.48627450980392,18.772032216149867,384.95915762947243,97.61843859065988,14007.80756002414,84.47896518577011,2034.5205060270046,1
-71.84529180614177,112.07191030918804,-108.9381136566498,-32.42687159147249,-58.921905640789035,37.3594190331671,-67.43101626875136,7.147186147186156,3.4862745098039234,3.0,-8.081818181818175,1.4941176470588253,7.4705882352941195,2.1709401709401597,-4.482352941176469,4.666659729159728,6.596715131679778,97.61843859065988,14007.80756002414,84.47896518577011,2034.5205060270046,1
-71.84529180614177,112.07191030918804,-108.9381136566498,-32.42687159147249,-58.921905640789035,37.3594190331671,-67.43101626875136,10.445887445887454,4.482352941176472,-10.0,-12.699999999999994,29.3843137254902,9.462745098039218,-10.854700854700866,-6.474509803921567,11.725563733651972,57.61607702865209,97.61843859065988,14007.80756002414,84.47896518577011,2034.5205060270046,1
-102.67573861155583,113.36226679513005,-118.15798869384112,-50.93852255825493,-47.67078094359212,28.824842835464963,-68.87999154870067,10.445887445887454,4.482352941176472,-10.0,-12.699999999999994,29.3843137254902,9.462745098039218,-10.854700854700866,-6.474509803921567,11.725563733651972,57.61607702865209,111.39866470017567,16752.291424898027,94.15292601574203,1406.3632367722994,1
-102.67573861155583,113.36226679513005,-118.15798869384112,-50.93852255825493,-47.67078094359212,28.824842835464963,-68.87999154870067,10.445887445887454,-2.490196078431371,-3.0,-19.62727272727272,-16.435294117647057,-1.4941176470588218,17.367521367521356,22.411764705882355,11.659006761212641,71.19389177826747,111.39866470017567,16752.291424898027,94.15292601574203,1406.3632367722994,1
-102.67573861155583,113.36226679513005,-118.15798869384112,-50.93852255825493,-47.67078094359212,28.824842835464963,-68.87999154870067,9.346320346320354,0.4980392156862763,-9.0,-5.772727272727266,3.4862745098039234,-15.439215686274508,-8.683760683760696,5.4784313725490215,7.213096135890256,20.234354456929104,111.39866470017567,16752.291424898027,94.15292601574203,1406.3632367722994,1
-107.51841071168681,117.12209862485766,-121.8232668848557,-68.3797719385226,-35.74576075671936,20.1801430739215,-68.7726600464822,9.346320346320354,0.4980392156862763,-9.0,-5.772727272727266,3.4862745098039234,-15.439215686274508,-8.683760683760696,5.4784313725490215,7.213096135890256,20.234354456929104,115.48792540713339,17960.479173947948,102.4417124827453,875.687090980826,1
-107.51841071168681,117.12209862485766,-121.8232668848557,-68.3797719385226,-35.74576075671936,20.1801430739215,-68.7726600464822,9.346320346320354,-1.4941176470588218,-3.0,4.618181818181824,21.415686274509806,9.462745098039218,-13.025641025641036,-9.462745098039214,8.978179663473785,40.34829237516953,115.48792540713339,17960.479173947948,102.4417124827453,875.687090980826,1
-107.51841071168681,117.12209862485766,-121.8232668848557,-68.3797719385226,-35.74576075671936,20.1801430739215,-68.7726600464822,11.545454545454554,0.4980392156862763,-9.0,-18.472727272727266,-29.384313725490195,-25.4,-44.50427350427351,-6.474509803921567,18.15991475844417,206.95353068638602,115.48792540713339,17960.479173947948,102.4417124827453,875.687090980826,1
-119.1260369669626,120.83743540334588,-121.36983040761677,-83.93207734258806,-22.971046256777036,12.74680251463252,-67.69934502429749,11.545454545454554,0.4980392156862763,-9.0,-18.472727272727266,-29.384313725490195,-25.4,-44.50427350427351,-6.474509803921567,18.15991475844417,206.95353068638602,120.44443425930842,19375.310382107073,108.71311438451691,460.6457087652303,1
-119.1260369669626,120.83743540334588,-121.36983040761677,-83.93207734258806,-22.971046256777036,12.74680251463252,-67.69934502429749,18.142857142857153,86.16078431372549,11.0,65.80909090909091,14.443137254901963,15.439215686274512,8.68376068376067,8.466666666666669,28.51818908215967,898.9213336807807,120.44443425930842,19375.310382107073,108.71311438451691,460.6457087652303,1
-119.1260369669626,120.83743540334588,-121.36983040761677,-83.93207734258806,-22.971046256777036,12.74680251463252,-67.69934502429749,35.73593073593075,118.03529411764706,13.0,-4.618181818181812,22.411764705882355,-12.450980392156861,-28.222222222222232,5.4784313725490215,29.99410067057126,1383.7667933484995,120.44443425930842,19375.310382107073,108.71311438451691,460.6457087652303,1
-127.0,123.48489095208897,-121.78548051175245,-97.21764997521075,-9.566385973007286,6.524821157598069,-65.23072047327275,35.73593073593075,118.03529411764706,13.0,-4.618181818181812,22.411764705882355,-12.450980392156861,-28.222222222222232,5.4784313725490215,29.99410067057126,1383.7667933484995,124.09012382128047,20487.90448779733,114.16267381301738,216.07237360905776,1
-127.0,123.48489095208897,-121.78548051175245,-97.21764997521075,-9.566385973007286,6.524821157598069,-65.23072047327275,9.346320346320354,-114.05098039215686,-3.0,-17.318181818181813,-9.462745098039214,-7.470588235294116,-56.44444444444445,-3.48627450980392,27.57244185553009,1523.637929553508,124.09012382128047,20487.90448779733,114.16267381301738,216.07237360905776,1
-127.0,123.48489095208897,-121.78548051175245,-97.21764997521075,-9.566385973007286,6.524821157598069,-65.23072047327275,-1.649350649350641,-127.0,-14.0,-21.93636363636363,5.4784313725490215,7.4705882352941195,-11.940170940170951,-3.48627450980392,24.12014741794154,1770.745286624099,124.09012382128047,20487.90448779733,114.16267381301738,216.07237360905776,1
-118.49759860282347,126.22133660331083,-126.01755429931568,-108.42538423401095,3.7943246049140438,-1.2939518751355195,-59.9178111134587,-1.649350649350641,-127.0,-14.0,-21.93636363636363,5.4784313725490215,7.4705882352941195,-11.940170940170951,-3.48627450980392,24.12014741794154,1770.745286624099,123.57882983514999,20594.727510981415,120.22142504554581,104.37031592740257,1
-118.49759860282347,126.22133660331083,-126.01755429931568,-108.42538423401095,3.7943246049140438,-1.2939518751355195,-59.9178111134587,4.9480519480519565,-121.02352941176471,-9.0,-17.318181818181813,7.4705882352941195,-6.474509803921567,1.0854700854700727,15.439215686274512,22.844943373619845,1602.0346287133532,123.57882983514999,20594.727510981415,120.22142504554581,104.37031592740257,1
-118.49759860282347,126.22133660331083,-126.01755429931568,-108.42538423401095,3.7943246049140438,-1.2939518751355195,-59.9178111134587,8.246753246753254,-70.2235294117647,-9.0,-10.390909090909084,-6.474509803921567,-8.466666666666665,-10.854700854700866,-9.462745098039214,16.63997677159442,470.59788504296705,123.57882983514999,20594.727510981415,120.22142504554581,104.37031592740257,1
-95.1344782418862,126.99999999999999,-127.0,-116.98859692612791,16.18814165417001,-13.187296769997857,-51.59961969152755,8.246753246753254,-70.2235294117647,-9.0,-10.390909090909084,-6.474509803921567,-8.466666666666665,-10.854700854700866,-9.462745098039214,16.63997677159442,470.59788504296705,116.37815941396207,19145.856316785303,123.66286564204263,33.409397169178455,1
-95.1344782418862,126.99999999999999,-127.0,-116.98859692612791,16.18814165417001,-13.187296769997857,-51.59961969152755,9.346320346320354,114.05098039215687,8.0,-13.854545454545448,-50.30196078431372,-13.44705882352941,-83.5811965811966,-67.23529411764706,44.977169562463686,1626.4105505938019,116.37815941396207,19145.856316785303,123.66286564204263,33.409397169178455,1
-95.1344782418862,126.99999999999999,-127.0,-116.98859692612791,16.18814165417001,-13.187296769997857,-51.59961969152755,22.541125541125552,124.01176470588236,13.0,12.700000000000006,-25.4,-10.458823529411763,14.111111111111097,34.36470588235294,32.07344134623546,1446.0383520849687,116.37815941396207,19145.856316785303,123.66286564204263,33.409397169178455,1
-80.27375927812547,125.70964351405797,-125.71526331448973,-123.09618244918204,27.717614488406948,-27.00780403208327,-41.18846397633638,22.541125541125552,124.01176470588236,13.0,12.700000000000006,-25.4,-10.458823529411763,14.111111111111097,34.36470588235294,32.07344134623546,1446.0383520849687,110.56622203555771,17951.429381446284,124.84036309257658,2.2816324831333747,1
-80.27375927812547,125.70964351405797,-125.71526331448973,-123.09618244918204,27.717614488406948,-27.00780403208327,-41.18846397633638,30.238095238095248,85.16470588235295,17.0,-6.927272727272721,52.294117647058826,34.36470588235294,37.991452991452974,28.38823529411765,36.546073207837914,569.1832940248075,110.56622203555771,17951.429381446284,124.84036309257658,2.2816324831333747,1
-80.27375927812547,125.70964351405797,-125.71526331448973,-123.09618244918204,27.717614488406948,-27.00780403208327,-41.18846397633638,-0.549783549783541,-126.00392156862745,-2.0,2.3090909090909157,29.3843137254902,24.403921568627453,-9.76923076923078,-4.482352941176469,24.86282687900335,1787.9799669837219,110.56622203555771,17951.429381446284,124.84036309257658,2.2816324831333747,1
-85.30126619123855,124.9754751686082,-122.76792621243678,-126.55924640555281,39.49613565578496,-39.176457836548906,-30.025987745615907,-0.549783549783541,-126.00392156862745,-2.0,2.3090909090909157,29.3843137254902,24.403921568627453,-9.76923076923078,-4.482352941176469,24.86282687900335,1787.9799669837219,111.01488919076117,17832.808582984915,124.76754926219927,3.625952088599337,1
-85.30126619123855,124.9754751686082,-122.76792621243678,-126.55924640555281,39.49613565578496,-39.176457836548906,-30.025987745615907,0.5497835497835588,-58.27058823529411,-10.0,-31.172727272727265,23.407843137254904,-16.435294117647057,-55.358974358974365,-28.388235294117646,27.94793074572486,415.3374193399488,111.01488919076117,17832.808582984915,124.76754926219927,3.625952088599337,1
-85.30126619123855,124.9754751686082,-122.76792621243678,-126.55924640555281,39.49613565578496,-39.176457836548906,-30.025987745615907,19.242424242424253,-115.04705882352941,-12.0,-19.62727272727272,-15.439215686274508,11.454901960784316,54.27350427350426,8.466666666666669,31.94388054755702,1336.9880434852998,111.01488919076117,17832.808582984915,124.76754926219927,3.625952088599337,1
-89.5154999272304,124.06332661820092,-117.4400476048795,-127.0,51.50905525435458,-49.69325818339479,-18.43418550602155,19.242424242424253,-115.04705882352941,-12.0,-19.62727272727272,-15.439215686274508,11.454901960784316,54.27350427350426,8.466666666666669,31.94388054755702,1336.9880434852998,110.33962471677027,17453.26254544299,122.83445807436014,23.980760872773587,1
-89.5154999272304,124.06332661820092,-117.4400476048795,-127.0,51.50905525435458,-49.69325818339479,-18.43418550602155,11.545454545454554,-127.0,-7.0,-2.3090909090909024,15.439215686274512,9.462745098039218,-22.794871794871803,2.4901960784313744,24.755196764020297,1752.5416384765947,110.33962471677027,17453.26254544299,122.83445807436014,23.980760872773587,1
-89.5154999272304,124.06332661820092,-117.4400476048795,-127.0,51.50905525435458,-49.69325818339479,-18.43418550602155,12.645021645021654,-98.11372549019607,-7.0,-12.699999999999994,-2.490196078431371,-13.44705882352941,-2.1709401709401828,7.4705882352941195,19.5046913054266,1028.6532822754796,110.33962471677027,17453.26254544299,122.83445807436014,23.980760872773587,1
-87.0756803958667,122.43925724796355,-111.69651889318655,-124.60733763014377,63.24362671588416,-59.76956427487539,-6.252060004225655,12.645021645021654,-98.11372549019607,-7.0,-12.699999999999994,-2.490196078431371,-13.44705882352941,-2.1709401709401828,7.4705882352941195,19.5046913054266,1028.6532822754796,107.07048551233895,16553.709408904655,119.58103792376464,47.79937339355956,1
-87.0756803958667,122.43925724796355,-111.69651889318655,-124.60733763014377,63.24362671588416,-59.76956427487539,-6.252060004225655,2.7489177489177568,-14.44313725490196,-6.0,-15.009090909090903,-8.466666666666665,-13.44705882352941,-2.1709401709401828,-7.470588235294116,8.719549976167624,26.03138049022141,107.07048551233895,16553.709408904655,119.58103792376464,47.79937339355956,1
-87.0756803958667,122.43925724796355,-111.69651889318655,-124.60733763014377,63.24362671588416,-59.76956427487539,-6.252060004225655,3.8484848484848566,50.30196078431373,-2.0,-11.54545454545454,30.380392156862747,8.466666666666669,-13.025641025641036,14.443137254901963,16.751467160290694,258.6323726857775,107.07048551233895,16553.709408904655,119.58103792376464,47.79937339355956,1
-85.67093581720275,119.34685118682664,-106.70871764355846,-119.69608329201787,74.5973007267274,-68.74463472794281,6.359391506444126,3.8484848484848566,50.30196078431373,-2.0,-11.54545454545454,30.380392156862747,8.466666666666669,-13.025641025641036,14.443137254901963,16.751467160290694,258.6323726857775,103.90883488252928,15596.000241905313,115.25055070746767,54.75267483459339,1
-85.67093581720275,119.34685118682664,-106.70871764355846,-119.69608329201787,74.5973007267274,-68.74463472794281,6.359391506444126,18.142857142857153,25.400000000000002,9.0,-23.090909090909083,-62.25490196078431,0.4980392156862763,83.58119658119656,28.38823529411765,31.29451741069388,774.4811392101443,103.90883488252928,15596.000241905313,115.25055070746767,54.75267483459339,1
-85.67093581720275,119.34685118682664,-106.70871764355846,-119.69608329201787,74.5973007267274,-68.74463472794281,6.359391506444126,44.53246753246754,127.0,16.0,-3.463636363636357,-23.4078431372549,-22.41176470588235,-73.81196581196582,33.3686274509804,42.99953812527342,1600.0487317220484,103.90883488252928,15596.000241905313,115.25055070746767,54.75267483459339,1
-78.35147722311164,117.05535604799859,-107.99345432906873,-113.9033217649976,85.438228169339,-77.49945805332757,20.956475808155517,44.53246753246754,127.0,16.0,-3.463636363636357,-23.4078431372549,-22.41176470588235,-73.81196581196582,33.3686274509804,42.99953812527342,1600.0487317220484,101.13342920005965,14951.574057987793,112.98404404735497,21.163319332501672,1
-78.35147722311164,117.05535604799859,-107.99345432906873,-113.9033217649976,85.438228169339,-77.49945805332757,20.956475808155517,24.740259740259752,16.43529411764706,4.0,-23.090909090909083,-47.31372549019608,-70.2235294117647,-108.54700854700855,-14.44313725490196,38.599232956585894,1239.0247328249013,101.13342920005965,14951.574057987793,112.98404404735497,21.163319332501672,1
-78.35147722311164,117.05535604799859,-107.99345432906873,-113.9033217649976,85.438228169339,-77.49945805332757,20.956475808155517,14.844155844155853,-110.06666666666666,-15.0,-30.018181818181812,-40.34117647058824,-18.427450980392155,-1.2434497875801753e-14,-34.364705882352936,32.88279220779221,1136.9716579294168,101.13342920005965,14951.574057987793,112.98404404735497,21.163319332501672,1
-54.95138989957795,111.84943505299114,-112.56560547456114,-109.68468021814579,94.79951551505361,-87.57576414480818,38.66617367420241,14.844155844155853,-110.06666666666666,-15.0,-30.018181818181812,-40.34117647058824,-18.427450980392155,-1.2434497875801753e-14,-34.364705882352936,32.88279220779221,1136.9716579294168,93.12214347571008,13584.003909360195,111.36657358189935,2.249798983461658,1
-54.95138989957795,111.84943505299114,-112.56560547456114,-109.68468021814579,94.79951551505361,-87.57576414480818,38.66617367420241,-0.549783549783541,-127.0,-19.0,6.217248937900877e-15,59.266666666666666,36.35686274509804,60.78632478632477,28.38823529411765,41.41848413024883,1728.8005816223772,93.12214347571008,13584.003909360195,111.36657358189935,2.249798983461658,1
-54.95138989957795,111.84943505299114,-112.56560547456114,-109.68468021814579,94.79951551505361,-87.57576414480818,38.66617367420241,-8.24675324675324,-122.01960784313725,-22.0,-36.94545454545454,-58.27058823529411,-58.27058823529411,-118.31623931623932,-17.431372549019606,55.18757549639902,1933.4172109949816,93.12214347571008,13584.003909360195,111.36657358189935,2.249798983461658,1
-34.619560471547096,103.19514758693175,-109.05147277595952,-106.28458106098174,102.53466374437649,-98.03750270973339,57.01986055356008,-8.24675324675324,-122.01960784313725,-22.0,-36.94545454545454,-58.27058823529411,-58.27058823529411,-118.31623931623932,-17.431372549019606,55.18757549639902,1933.4172109949816,82.2887269448128,11596.938530334133,106.17706714129099,8.582805612105739,1
-34.619560471547096,103.19514758693175,-109.05147277595952,-106.28458106098174,102.53466374437649,-98.03750270973339,57.01986055356008,-22.54112554112553,-62.25490196078431,-5.0,-10.390909090909084,-46.317647058823525,25.400000000000002,-29.307692307692317,-76.2,34.67653449491685,621.8450073420047,82.2887269448128,11596.938530334133,106.17706714129099,8.582805612105739,1
-34.619560471547096,103.19514758693175,-109.05147277595952,-106.28458106098174,102.53466374437649,-98.03750270973339,57.01986055356008,4.9480519480519565,15.439215686274512,0.0,2.3090909090909157,29.3843137254902,113.05490196078432,126.99999999999997,-34.364705882352936,40.8125350140056,2556.8088780885873,82.2887269448128,11596.938530334133,106.17706714129099,8.582805612105739,1
-40.534274486974255,95.141543312604,-108.40910443320439,-101.81408031730291,110.13796285615409,-105.08541079557773,74.72955841960697,4.9480519480519565,15.439215686274512,0.0,2.3090909090909157,29.3843137254902,113.05490196078432,126.99999999999997,-34.364705882352936,40.8125350140056,2556.8088780885873,81.36164074426088,10741.297712258696,101.78824268770377,44.00754520954425,1
-40.534274486974255,95.141543312604,-108.40910443320439,-101.81408031730291,110.13796285615409,-105.08541079557773,74.72955841960697,13.744588744588754,37.352941176470594,6.0,-6.927272727272721,19.423529411764708,-18.427450980392155,-127.0,21.415686274509806,31.28643366437484,1591.698807614117,81.36164074426088,10741.297712258696,101.78824268770377,44.00754520954425,1
-40.534274486974255,95.141543312604,-108.40910443320439,-101.81408031730291,110.13796285615409,-105.08541079557773,74.72955841960697,53.32900432900434,45.321568627450986,-3.0,-3.463636363636357,-12.450980392156861,-50.30196078431372,-51.017094017094024,-62.25490196078431,35.14239330930508,600.4074962794976,81.36164074426088,10741.297712258696,101.78824268770377,44.00754520954425,1
-52.10493377965363,91.69317684155206,-103.42130318357631,-94.51016360932078,118.09285961471909,-109.60047691307179,91.15127825903232,53.32900432900434,45.321568627450986,-3.0,-3.463636363636357,-12.450980392156861,-50.30196078431372,-51.017094017094024,-62.25490196078431,35.14239330930508,600.4074962794976,82.40647126826066,10230.15445041743,96.54154787814973,37.48212840935505,1
-52.10493377965363,91.69317684155206,-103.42130318357631,-94.51016360932078,118.09285961471909,-109.60047691307179,91.15127825903232,-29.13852813852813,13.447058823529414,-9.0,12.700000000000006,57.274509803921575,56.27843137254902,-27.136752136752147,31.376470588235296,29.543968857939447,351.13085431317484,82.40647126826066,10230.15445041743,96.54154787814973,37.48212840935505,1
-52.10493377965363,91.69317684155206,-103.42130318357631,-94.51016360932078,118.09285961471909,-109.60047691307179,91.15127825903232,24.740259740259752,54.286274509803924,-4.0,-18.472727272727266,23.407843137254904,88.15294117647059,36.90598290598289,-48.30980392156863,37.28447908300849,687.1456498184582,82.40647126826066,10230.15445041743,96.54154787814973,37.48212840935505,1
-40.386406636588575,83.81755277218181,-99.03808390360012,-89.22112047595442,124.040719806206,-112.73899848254933,105.37270230297906,24.740259740259752,54.286274509803924,-4.0,-18.472727272727266,23.407843137254904,88.15294117647059,36.90598290598289,-48.30980392156863,37.28447908300849,687.1456498184582,74.41401443745684,8717.137773859122,90.69225238391213,59.53931379857694,1
-40.386406636588575,83.81755277218181,-99.03808390360012,-89.22112047595442,124.040719806206,-112.73899848254933,105.37270230297906,-2.7489177489177408,-0.49803921568627274,-25.0,-24.24545454545454,19.423529411764708,0.4980392156862763,28.222222222222207,-24.40392156862745,15.630015491044897,147.97633384603049,74.41401443745684,8717.137773859122,90.69225238391213,59.53931379857694,1
-40.386406636588575,83.81755277218181,-99.03808390360012,-89.22112047595442,124.040719806206,-112.73899848254933,105.37270230297906,-0.549783549783541,17.43137254901961,21.0,16.16363636363637,58.27058823529412,-15.439215686274508,-43.41880341880343,-62.25490196078431,29.316037720449486,503.6676790196747,74.41401443745684,8717.137773859122,90.69225238391213,59.53931379857694,1
5.859263571532509,67.35438381361126,-98.28235644153526,-91.86564204263766,126.64840235321257,-116.48319965315414,120.13078385801816,-0.549783549783541,17.43137254901961,21.0,16.16363636363637,58.27058823529412,-15.439215686274508,-43.41880341880343,-62.25490196078431,29.316037720449486,503.6676790196747,57.16533460889301,7010.442759147466,85.83412743259471,266.4192490867749,1
5.859263571532509,67.35438381361126,-98.28235644153526,-91.86564204263766,126.64840235321257,-116.48319965315414,120.13078385801816,-23.640692640692635,25.400000000000002,21.0,-2.3090909090909024,-32.372549019607845,-38.34901960784313,87.9230769230769,93.13333333333334,40.515970304205595,1062.9911314481021,57.16533460889301,7010.442759147466,85.83412743259471,266.4192490867749,1
5.859263571532509,67.35438381361126,-98.28235644153526,-91.86564204263766,126.64840235321257,-116.48319965315414,120.13078385801816,76.41991341991343,52.294117647058826,4.0,16.16363636363637,82.1764705882353,2.4901960784313744,71.64102564102562,119.03137254901961,53.02709153591507,1773.862736381509,57.16533460889301,7010.442759147466,85.83412743259471,266.4192490867749,1
18.538931742104477,48.44398703687482,-68.99791728652187,-94.82498760535452,126.99999999999997,-119.18122696726647,127.0,76.41991341991343,52.294117647058826,4.0,16.16363636363637,82.1764705882353,2.4901960784313744,71.64102564102562,119.03137254901961,53.02709153591507,1773.862736381509,45.326945355167055,3724.9355268582767,70.75563064291707,540.1164706157662,1
18.538931742104477,48.44398703687482,-68.99791728652187,-94.82498760535452,126.99999999999997,-119.18122696726647,127.0,81.91774891774894,32.372549019607845,0.0,-6.927272727272721,24.403921568627453,51.29803921568627,-33.64957264957266,-62.25490196078431,36.60300075741253,760.4651546552417,45.326945355167055,3724.9355268582767,70.75563064291707,540.1164706157662,1
18.538931742104477,48.44398703687482,-68.99791728652187,-94.82498760535452,126.99999999999997,-119.18122696726647,127.0,-0.549783549783541,7.4705882352941195,9.0,6.927272727272733,21.415686274509806,-62.25490196078431,-83.5811965811966,-33.36862745098039,28.07100709747769,902.1190998428353,45.326945355167055,3724.9355268582767,70.75563064291707,540.1164706157662,1
24.194877019356696,33.53814487168256,-19.459982148170177,-94.00644521566687,125.24201176606296,-123.6412313028398,122.49207690682442,-0.549783549783541,7.4705882352941195,9.0,6.927272727272733,21.415686274509806,-62.25490196078431,-83.5811965811966,-33.36862745098039,28.07100709747769,902.1190998428353,25.731001346403144,800.307475118226,49.00152407850654,1568.6308613389392,1
24.194877019356696,33.53814487168256,-19.459982148170177,-94.00644521566687,125.24201176606296,-123.6412313028398,122.49207690682442,41.23376623376625,19.423529411764708,-3.0,-20.781818181818174,-86.16078431372549,-81.18039215686275,-34.73504273504274,127.0,51.68941662912252,1784.7820894291792,25.731001346403144,800.307475118226,49.00152407850654,1568.6308613389392,1
24.194877019356696,33.53814487168256,-19.459982148170177,-94.00644521566687,125.24201176606296,-123.6412313028398,122.49207690682442,-103.9090909090909,-45.32156862745098,-30.0,-25.399999999999995,127.0,99.10980392156863,-74.8974358974359,123.0156862745098,78.58169820375703,1669.9822318123693,25.731001346403144,800.307475118226,49.00152407850654,1568.6308613389392,1
37.5029835540678,17.675659104843643,1.5492412972329817,-94.38423401090733,121.5062867689468,-127.0,112.29558419607014,-103.9090909090909,-45.32156862745098,-30.0,-25.399999999999995,127.0,99.10980392156863,-74.8974358974359,123.0156862745098,78.58169820375703,1669.9822318123693,18.909294652048143,324.3092880652223,37.86971147099465,2460.4337812621297,1
37.5029835540678,17.675659104843643,1.5492412972329817,-94.38423401090733,121.5062867689468,-127.0,112.29558419607014,113.80519480519482,25.400000000000002,-17.0,-32.32727272727272,-22.41176470588235,44.325490196078434,-37.991452991453,46.31764705882353,42.44735281058811,938.9034356344973,18.909294652048143,324.3092880652223,37.86971147099465,2460.4337812621297,1
37.5029835540678,17.675659104843643,1.5492412972329817,-94.38423401090733,121.5062867689468,-127.0,112.29558419607014,-44.53246753246753,15.439215686274512,10.0,-17.318181818181813,-117.0392156862745,-84.1686274509804,-125.91452991452992,-76.2,61.32652976108858,2139.6183065372825,18.909294652048143,324.3092880652223,37.86971147099465,2460.4337812621297,1
64.23009751127927,-7.842252780940711,8.842011306158895,-100.55478433316807,114.79663167608719,-126.28419683503148,98.50348616099723,-44.53246753246753,15.439215686274512,10.0,-17.318181818181813,-117.0392156862745,-84.1686274509804,-125.91452991452992,-76.2,61.32652976108858,2139.6183065372825,26.971453866126293,1423.4380730397315,39.07968280675589,2834.6409600392003,1
64.23009751127927,-7.842252780940711,8.842011306158895,-100.55478433316807,114.79663167608719,-126.28419683503148,98.50348616099723,102.80952380952382,62.254901960784316,48.0,60.036363636363646,76.2,46.31764705882353,-78.15384615384616,7.4705882352941195,60.15535885682945,788.5851650714685,26.971453866126293,1423.4380730397315,39.07968280675589,2834.6409600392003,1
64.23009751127927,-7.842252780940711,8.842011306158895,-100.55478433316807,114.79663167608719,-126.28419683503148,98.50348616099723,65.42424242424244,27.3921568627451,40.0,45.02727272727273,43.32941176470588,75.20392156862745,8.68376068376067,39.345098039215685,43.05073300882125,426.8149036235729,26.971453866126293,1423.4380730397315,39.07968280675589,2834.6409600392003,1
79.71925483917913,-36.96426381711484,28.264207081225834,-108.99206742687159,105.0690967816357,-119.89703013223499,78.16416649059789,65.42424242424244,27.3921568627451,40.0,45.02727272727273,43.32941176470588,75.20392156862745,8.68376068376067,39.345098039215685,43.05073300882125,426.8149036235729,48.315908579173275,3419.5698135871053,58.07351277507075,1963.447152673243,1
79.71925483917913,-36.96426381711484,28.264207081225834,-108.99206742687159,105.0690967816357,-119.89703013223499,78.16416649059789,-127.0,-78.1921568627451,-34.0,-48.490909090909085,-29.384313725490195,29.3843137254902,113.97435897435895,85.16470588235295,68.19884478266832,1501.682805666693,48.315908579173275,3419.5698135871053,58.07351277507075,1963.447152673243,1
79.71925483917913,-36.96426381711484,28.264207081225834,-108.99206742687159,105.0690967816357,-119.89703013223499,78.16416649059789,-97.31168831168831,-43.32941176470588,-1.0,-60.03636363636363,43.32941176470588,-22.41176470588235,-28.222222222222232,-8.466666666666665,38.01344113402937,948.5853289334243,48.315908579173275,3419.5698135871053,58.07351277507075,1963.447152673243,1
100.97525833212048,-63.95051239379873,54.11008628384411,-117.4293505205751,91.85488522320911,-109.21504443962718,51.921614198182965,-97.31168831168831,-43.32941176470588,-1.0,-60.03636363636363,43.32941176470588,-22.41176470588235,-28.222222222222232,-8.466666666666665,38.01344113402937,948.5853289334243,73.01195233658778,7222.526526796076,78.49664973273931,1161.024889482731,1
100.97525833212048,-63.95051239379873,54.11008628384411,-117.4293505205751,91.85488522320911,-109.21504443962718,51.921614198182965,-74.22077922077922,-27.392156862745097,5.0,3.46363636363637,-14.44313725490196,44.325490196078434,-123.74358974358975,-21.415686274509802,39.250559489530076,1702.2372366839902,73.01195233658778,7222.526526796076,78.49664973273931,1161.024889482731,1
100.97525833212048,-63.95051239379873,54.11008628384411,-117.4293505205751,91.85488522320911,-109.21504443962718,51.921614198182965,29.138528138528148,1.4941176470588253,20.0,5.772727272727279,-127.0,-27.392156862745097,75.98290598290596,77.19607843137256,45.497064291917226,1905.2449286726455,73.01195233658778,7222.526526796076,78.49664973273931,1161.024889482731,1
105.85489739484788,-85.4416221424192,74.36358226718241,-122.40356965790784,76.29668935286651,-92.58638629958816,21.868793577012468,29.138528138528148,1.4941176470588253,20.0,5.772727272727279,-127.0,-27.392156862745097,75.98290598290596,77.19607843137256,45.497064291917226,1905.2449286726455,88.55336726814983,10520.627445322749,94.0695913558365,632.7914866860218,1
105.85489739484788,-85.4416221424192,74.36358226718241,-122.40356965790784,76.29668935286651,-92.58638629958816,21.868793577012468,34.63636363636365,-31.376470588235293,-23.0,-15.009090909090903,36.35686274509804,63.25098039215686,5.427350427350415,87.15686274509804,37.02674768042415,702.6965567982617,88.55336726814983,10520.627445322749,94.0695913558365,632.7914866860218,1
105.85489739484788,-85.4416221424192,74.36358226718241,-122.40356965790784,76.29668935286651,-92.58638629958816,21.868793577012468,4.9480519480519565,2.4901960784313744,-9.0,-64.65454545454546,-41.33725490196078,38.34901960784314,4.34188034188033,-96.12156862745098,32.655314620020505,1171.2231124401053,88.55336726814983,10520.627445322749,94.0695913558365,632.7914866860218,1
88.33255712414493,-103.55110799684681,123.0324308241595,-115.16261774913244,59.170953973930075,-68.79969650986345,-16.87787872385377,4.9480519480519565,2.4901960784313744,-9.0,-64.65454545454546,-41.33725490196078,38.34901960784314,4.34188034188033,-96.12156862745098,32.655314620020505,1171.2231124401053,104.97203198171708,14893.920373285391,113.91538552337958,96.04717594421098,1
88.33255712414493,-103.55110799684681,123.0324308241595,-115.16261774913244,59.170953973930075,-68.79969650986345,-16.87787872385377,26.93939393939395,-2.490196078431371,-24.0,-20.781818181818174,-34.364705882352936,-104.09019607843138,-84.66666666666667,-75.20392156862745,46.567112299465236,1318.8035142509445,104.97203198171708,14893.920373285391,113.91538552337958,96.04717594421098,1
88.33255712414493,-103.55110799684681,123.0324308241595,-115.16261774913244,59.170953973930075,-68.79969650986345,-16.87787872385377,100.61038961038963,34.36470588235294,32.0,38.10000000000001,-103.09411764705882,-71.21960784313725,24.96581196581195,-77.19607843137254,60.1938389225154,1010.8233544497073,104.97203198171708,14893.920373285391,113.91538552337958,96.04717594421098,1
67.81589288313198,-126.64403959008496,127.00000000000001,-102.44372830937039,41.0636751643788,-32.56904400606982,-54.65856750475382,100.61038961038963,34.36470588235294,32.0,38.10000000000001,-103.09411764705882,-71.21960784313725,24.96581196581195,-77.19607843137254,60.1938389225154,1010.8233544497073,107.15331082440565,17608.787115380932,118.69592263315178,198.132042206821,1
67.81589288313198,-126.64403959008496,127.00000000000001,-102.44372830937039,41.0636751643788,-32.56904400606982,-54.65856750475382,59.92640692640694,-1.4941176470588218,-25.0,-28.863636363636356,53.29019607843138,-127.0,-74.8974358974359,0.4980392156862763,46.37122901608196,1775.41543431971,107.15331082440565,17608.787115380932,118.69592263315178,198.132042206821,1
67.81589288313198,-126.64403959008496,127.00000000000001,-102.44372830937039,41.0636751643788,-32.56904400606982,-54.65856750475382,19.242424242424253,-38.34901960784313,-40.0,62.34545454545456,62.254901960784316,-12.450980392156861,85.75213675213674,127.0,55.924364687599976,1402.960865831997,107.15331082440565,17608.787115380932,118.69592263315178,198.132042206821,1
73.76757386115555,-127.0,125.26182683725084,-83.36539414972731,22.4436497865959,4.48753522653368,-86.4286921614198,19.242424242424253,-38.34901960784313,-40.0,62.34545454545456,62.254901960784316,-12.450980392156861,85.75213675213674,127.0,55.924364687599976,1402.960865831997,108.67646689946879,17765.884347154628,111.87574032899272,610.3851909320905,1
73.76757386115555,-127.0,125.26182683725084,-83.36539414972731,22.4436497865959,4.48753522653368,-86.4286921614198,34.63636363636365,51.29803921568627,11.0,19.627272727272732,3.4862745098039234,10.458823529411767,-32.56410256410257,-65.24313725490197,28.53925167969286,465.7305843978408,108.67646689946879,17765.884347154628,111.87574032899272,610.3851909320905,1
73.76757386115555,-127.0,125.26182683725084,-83.36539414972731,22.4436497865959,4.48753522653368,-86.4286921614198,-40.13419913419913,-89.14901960784314,-78.0,23.090909090909097,22.411764705882355,103.09411764705882,77.06837606837605,72.2156862745098,63.145509066097304,937.4247746668101,108.67646689946879,17765.884347154628,111.87574032899272,610.3851909320905,1
86.00363848057049,-97.67776123324867,124.01487652484381,-56.16460089241457,5.581612642750011,31.41274658573593,-112.2419184449609,-40.13419913419913,-89.14901960784314,-78.0,23.090909090909097,22.411764705882355,103.09411764705882,77.06837606837605,72.2156862745098,63.145509066097304,937.4247746668101,102.56542541288765,14055.22274243784,92.61907955016902,1170.1076711271996,1
86.00363848057049,-97.67776123324867,124.01487652484381,-56.16460089241457,5.581612642750011,31.41274658573593,-112.2419184449609,41.23376623376625,102.09803921568627,-44.0,-1.154545454545448,-57.27450980392157,-93.13333333333333,29.307692307692292,0.4980392156862763,46.087490695578936,1411.7839711878173,102.56542541288765,14055.22274243784,92.61907955016902,1170.1076711271996,1
86.00363848057049,-97.67776123324867,124.01487652484381,-56.16460089241457,5.581612642750011,31.41274658573593,-112.2419184449609,127.00000000000001,-76.2,-87.0,-127.0,75.20392156862745,-92.13725490196079,-103.11965811965813,-100.10588235294118,98.47083961789845,408.73501315917434,102.56542541288765,14055.22274243784,92.61907955016902,1170.1076711271996,1
95.31931305486826,-63.10510642025051,45.00357036596253,-39.54189390183444,-8.04279617026187,45.67374810318661,-121.52609338685829,127.00000000000001,-76.2,-87.0,-127.0,75.20392156862745,-92.13725490196079,-103.11965811965813,-100.10588235294118,98.47083961789845,408.73501315917434,67.80932994702711,6552.909440805073,49.21685689601583,152.12008358525628,1
95.31931305486826,-63.10510642025051,45.00357036596253,-39.54189390183444,-8.04279617026187,45.67374810318661,-121.52609338685829,-15.943722943722936,-125.0078431372549,-52.0,56.57272727272728,-4.482352941176469,69.22745098039216,-87.92307692307693,-127.0,67.26964677479384,2036.5703590454339,67.80932994702711,6552.909440805073,49.21685689601583,152.12008358525628,1
95.31931305486826,-63.10510642025051,45.00357036596253,-39.54189390183444,-8.04279617026187,45.67374810318661,-121.52609338685829,20.341991341991353,-58.27058823529411,36.0,20.78181818181819,-56.27843137254902,-124.01176470588236,-27.136752136752147,16.43529411764706,44.90708001149178,1279.5253118865323,67.80932994702711,6552.909440805073,49.21685689601583,152.12008358525628,1
126.99999999999997,-19.98940176929142,-75.72389169889914,-43.760535448686255,-18.444226554389218,37.96509863429435,-109.93429114726393,20.341991341991353,-58.27058823529411,36.0,20.78181818181819,-56.27843137254902,-124.01176470588236,-27.136752136752147,16.43529411764706,44.90708001149178,1279.5253118865323,74.23776448939684,10968.19897762578,46.491276305625604,782.1760511492043,1
126.99999999999997,-19.98940176929142,-75.72389169889914,-43.760535448686255,-18.444226554389218,37.96509863429435,-109.93429114726393,33.536796536796544,-93.13333333333333,-44.0,-56.57272727272726,-34.364705882352936,45.321568627450986,-24.965811965811977,-123.0156862745098,56.86382873662285,1151.1680360047308,74.23776448939684,10968.19897762578,46.491276305625604,782.1760511492043,1
126.99999999999997,-19.98940176929142,-75.72389169889914,-43.760535448686255,-18.444226554389218,37.96509863429435,-109.93429114726393,-0.549783549783541,98.11372549019609,114.0,109.68181818181819,-18.427450980392155,68.23137254901961,29.307692307692292,-100.10588235294118,67.30221567648037,2041.6029158714093,74.23776448939684,10968.19897762578,46.491276305625604,782.1760511492043,1
124.52321350603985,6.685381448716814,-67.56203510859862,-43.50867625185924,-26.457722920752126,23.373726425319717,-100.4354532009296,-0.549783549783541,98.11372549019609,114.0,109.68181818181819,-18.427450980392155,68.23137254901961,29.307692307692292,-100.10588235294118,67.30221567648037,2041.6029158714093,66.2568766877851,9382.52937745881,39.252030936391556,940.0810122125699,1
124.52321350603985,6.685381448716814,-67.56203510859862,-43.50867625185924,-26.457722920752126,23.373726425319717,-100.4354532009296,29.138528138528148,127.0,107.0,-48.490909090909085,9.462745098039218,-24.40392156862745,107.46153846153844,33.3686274509804,60.79078372607785,2080.1156396425217,66.2568766877851,9382.52937745881,39.252030936391556,940.0810122125699,1
124.52321350603985,6.685381448716814,-67.56203510859862,-43.50867625185924,-26.457722920752126,23.373726425319717,-100.4354532009296,26.93939393939395,-62.25490196078431,-95.0,-121.22727272727272,18.42745098039216,89.14901960784314,55.358974358974336,90.1450980392157,69.81276395173454,1258.536103066883,66.2568766877851,9382.52937745881,39.252030936391556,940.0810122125699,1
70.4775141900742,11.980292546203017,-48.215412079738165,-41.556767476450204,-31.26289076017997,19.409278127032266,-96.24952461440944,26.93939393939395,-62.25490196078431,-95.0,-121.22727272727272,18.42745098039216,89.14901960784314,55.358974358974336,90.1450980392157,69.81276395173454,1258.536103066883,43.55773960533846,3522.243090326144,33.917490700797124,372.0148841436694,1
70.4775141900742,11.980292546203017,-48.215412079738165,-41.556767476450204,-31.26289076017997,19.409278127032266,-96.24952461440944,30.238095238095248,37.352941176470594,59.0,-109.68181818181817,55.28235294117647,32.372549019607845,-26.05128205128206,-127.0,59.6223798260563,1470.5500317293395,43.55773960533846,3522.243090326144,33.917490700797124,372.0148841436694,1
70.4775141900742,11.980292546203017,-48.215412079738165,-41.556767476450204,-31.26289076017997,19.409278127032266,-96.24952461440944,-13.744588744588736,33.3686274509804,11.0,-11.54545454545454,-26.396078431372548,-52.294117647058826,-24.965811965811977,-6.474509803921567,22.473648573648575,230.39946257706563,43.55773960533846,3522.243090326144,33.917490700797124,372.0148841436694,1
-0.7578227332266234,18.23184724533589,-24.447783397798265,-40.80118988596928,-30.164148113969333,30.58681985692604,-100.1134586942743,-13.744588744588736,33.3686274509804,11.0,-11.54545454545454,-26.396078431372548,-52.294117647058826,-24.965811965811977,-6.474509803921567,22.473648573648575,230.39946257706563,14.479151125453592,457.2287790030043,27.82694017636781,135.90783220819253,1
-0.7578227332266234,18.23184724533589,-24.447783397798265,-40.80118988596928,-30.164148113969333,30.58681985692604,-100.1134586942743,-18.142857142857135,-59.266666666666666,-94.0,15.009090909090915,34.36470588235294,-24.40392156862745,-14.111111111111121,-61.258823529411764,40.06964710126475,826.6588882497398,14.479151125453592,457.2287790030043,27.82694017636781,135.90783220819253,1
-0.7578227332266234,18.23184724533589,-24.447783397798265,-40.80118988596928,-30.164148113969333,30.58681985692604,-100.1134586942743,-78.61904761904762,48.30980392156863,-17.0,-30.018181818181812,16.43529411764706,38.34901960784314,80.3247863247863,86.16078431372549,49.40211471535001,828.1213979488994,14.479151125453592,457.2287790030043,27.82694017636781,135.90783220819253,1
5.822296608936089,23.838223701497753,-23.01190121987503,-37.275161130391666,-29.84185027108088,43.416215044439596,-105.31903655186989,-78.61904761904762,48.30980392156863,-17.0,-30.018181818181812,16.43529411764706,38.34901960784314,80.3247863247863,86.16078431372549,49.40211471535001,828.1213979488994,17.557473843436288,558.4864664306247,28.041762017254815,64.11244659776607,1
5.822296608936089,23.838223701497753,-23.01190121987503,-37.275161130391666,-29.84185027108088,43.416215044439596,-105.31903655186989,0.5497835497835588,-12.450980392156861,-59.0,62.34545454545456,-49.305882352941175,-57.27450980392157,-14.111111111111121,-26.396078431372548,35.179225023342674,604.2825446342673,17.557473843436288,558.4864664306247,28.041762017254815,64.11244659776607,1
5.822296608936089,23.838223701497753,-23.01190121987503,-37.275161130391666,-29.84185027108088,43.416215044439596,-105.31903655186989,21.44155844155845,31.376470588235296,1.0,12.700000000000006,-28.388235294117646,46.31764705882353,-51.017094017094024,23.407843137254904,26.95610606713548,270.76391928902393,17.557473843436288,558.4864664306247,28.041762017254815,64.11244659776607,1
22.27259496434287,18.85477796268721,-12.847366855102635,-28.837878036688153,-32.49348252393588,54.97918924777798,-110.73927741390241,21.44155844155845,31.376470588235296,1.0,12.700000000000006,-28.388235294117646,46.31764705882353,-51.017094017094024,23.407843137254904,26.95610606713548,270.76391928902393,17.991579927377572,375.0198628840393,20.180007618159333,65.24128719190993,1
22.27259496434287,18.85477796268721,-12.847366855102635,-28.837878036688153,-32.49348252393588,54.97918924777798,-110.73927741390241,-22.54112554112553,45.321568627450986,127.0,-18.472727272727266,80.1843137254902,-12.450980392156861,-6.512820512820524,0.4980392156862763,39.122696910932206,1916.4173174535808,17.991579927377572,375.0198628840393,20.180007618159333,65.24128719190993,1
22.27259496434287,18.85477796268721,-12.847366855102635,-28.837878036688153,-32.49348252393588,54.97918924777798,-110.73927741390241,116.00432900432902,62.254901960784316,32.0,-84.28181818181818,101.10196078431373,85.16470588235295,18.45299145299144,64.24705882352941,70.43847076126488,1101.4725428484019,17.991579927377572,375.0198628840393,20.180007618159333,65.24128719190993,1
6.7834376364430025,15.584391696592789,-7.406129128235634,-19.896876549330727,-34.63236820855925,71.27747669629305,-117.0718360447919,116.00432900432902,62.254901960784316,32.0,-84.28181818181818,101.10196078431373,85.16470588235295,18.45299145299144,64.24705882352941,70.43847076126488,1101.4725428484019,9.924652820423809,134.56077418916814,14.295799124719716,40.25004589661327,1
6.7834376364430025,15.584391696592789,-7.406129128235634,-19.896876549330727,-34.63236820855925,71.27747669629305,-117.0718360447919,-34.63636363636363,-55.28235294117647,-127.0,-108.52727272727272,-89.14901960784314,-13.44705882352941,61.87179487179486,70.2235294117647,70.01717400246811,1404.5117268133392,9.924652820423809,134.56077418916814,14.295799124719716,40.25004589661327,1
6.7834376364430025,15.584391696592789,-7.406129128235634,-19.896876549330727,-34.63236820855925,71.27747669629305,-117.0718360447919,-24.74025974025973,71.21960784313725,127.0,34.63636363636364,-30.380392156862744,-13.44705882352941,-33.64957264957266,60.26274509803922,49.41699999347058,1334.907911045309,9.924652820423809,134.56077418916814,14.295799124719716,40.25004589661327,1
31.95793916460484,20.72357011474116,-14.85004462957452,-10.137332672285652,-37.89929634329221,78.65575547366136,-121.36509613353053,-24.74025974025973,71.21960784313725,127.0,34.63636363636364,-30.380392156862744,-13.44705882352941,-33.64957264957266,60.26274509803922,49.41699999347058,1334.907911045309,22.510517969640176,597.1134101336145,15.236982472200443,28.129396467553743,1
31.95793916460484,20.72357011474116,-14.85004462957452,-10.137332672285652,-37.89929634329221,78.65575547366136,-121.36509613353053,43.43290043290044,-16.435294117647057,-108.0,-9.236363636363631,28.38823529411765,59.266666666666666,-40.16239316239317,-73.21176470588236,47.26670225199638,1046.3038583588584,22.510517969640176,597.1134101336145,15.236982472200443,28.129396467553743,1
31.95793916460484,20.72357011474116,-14.85004462957452,-10.137332672285652,-37.89929634329221,78.65575547366136,-121.36509613353053,46.73160173160174,-18.427450980392155,-112.0,-2.3090909090909024,57.274509803921575,-94.12941176470588,-72.72649572649573,-0.49803921568627274,50.512075016486776,1727.299218179737,22.510517969640176,597.1134101336145,15.236982472200443,28.129396467553743,1
50.18265172463977,26.485679250240857,-11.827134781315074,1.8889439762021993,-42.396816241781075,73.42488619119875,-123.94105218677373,46.73160173160174,-18.427450980392155,-112.0,-2.3090909090909024,57.274509803921575,-94.12941176470588,-72.72649572649573,-0.49803921568627274,50.512075016486776,1727.299218179737,29.498488585398565,979.1053076638514,13.400586002586044,153.10665809457373,1
50.18265172463977,26.485679250240857,-11.827134781315074,1.8889439762021993,-42.396816241781075,73.42488619119875,-123.94105218677373,-8.24675324675324,-21.415686274509802,92.0,65.80909090909091,-6.474509803921567,30.380392156862747,-54.27350427350428,-8.466666666666665,35.883325416413655,1000.3939822652181,29.498488585398565,979.1053076638514,13.400586002586044,153.10665809457373,1
50.18265172463977,26.485679250240857,-11.827134781315074,1.8889439762021993,-42.396816241781075,73.42488619119875,-123.94105218677373,26.93939393939395,-25.4,-49.0,53.10909090909092,18.42745098039216,48.30980392156863,-36.90598290598292,-79.18823529411765,42.159994743818274,382.71164520715257,29.498488585398565,979.1053076638514,13.400586002586044,153.10665809457373,1
8.188182215106952,31.113164579136363,-17.570663493008023,9.255825483391163,-44.43315261275812,73.31476262735744,-126.57067399112611,26.93939393939395,-25.4,-49.0,53.10909090909092,18.42745098039216,48.30980392156863,-36.90598290598292,-79.18823529411765,42.159994743818274,382.71164520715257,18.957336762417114,593.1980107272744,19.313217851845184,121.71318985672468,1
