Gyro 0,Gyro 1,Gyro 2,Orientation 0,Orientation 1,Orientation 2,Orientation 3,Sensor 0,Sensor 1,Sensor 2,Sensor 3,Sensor 4,Sensor 5,Sensor 6,Sensor 7,Sensor Mean,Sensor Variance,Gyro Mean,Gyro Variance,Orientation Mean,Orientation Variance,Label
-2.13314215485458,39.10910852713178,-63.956365503080086,114.98949211908939,-124.49647986482682,89.46965699208441,14.082453290008175,-8.0,-23.142222222222223,-16.435294117647057,-8.466666666666665,6.047619047619049,2.4901960784313744,-2.490196078431371,-16.435294117647057,10.4384360410831,55.53899322674603,35.066205395022145,2690.9210205921095,72.68498871643375,1496.5998009161797,1
-2.13314215485458,39.10910852713178,-63.956365503080086,114.98949211908939,-124.49647986482682,89.46965699208441,14.082453290008175,-13.0,-43.46222222222222,-66.2392156862745,-3.48627450980392,44.34920634920635,-1.4941176470588218,3.4862745098039234,59.266666666666666,29.34799719887955,723.0127753691453,35.066205395022145,2690.9210205921095,72.68498871643375,1496.5998009161797,1
-2.13314215485458,39.10910852713178,-63.956365503080086,114.98949211908939,-124.49647986482682,89.46965699208441,14.082453290008175,0.0,-14.111111111111112,18.42745098039216,0.4980392156862763,-2.015873015873014,-15.439215686274508,2.4901960784313744,24.403921568627453,9.673225957049487,90.65109080233401,35.066205395022145,2690.9210205921095,72.68498871643375,1496.5998009161797,1
-3.6246074013382614,39.65058139534884,-63.402207392197134,114.8623967975982,-124.41064488876373,89.8961381626289,13.772948822095884,0.0,-14.111111111111112,18.42745098039216,0.4980392156862763,-2.015873015873014,-15.439215686274508,2.4901960784313744,24.403921568627453,9.673225957049487,90.65109080233401,35.55913206296141,2677.663450491101,72.63839519504806,1478.1846678726574,1
-3.6246074013382614,39.65058139534884,-63.402207392197134,114.8623967975982,-124.41064488876373,89.8961381626289,13.772948822095884,3.0,-5.080000000000002,-28.388235294117646,-22.41176470588235,-39.30952380952381,18.42745098039216,-21.415686274509802,-71.21960784313725,26.156533613445376,469.33503809719963,35.55913206296141,2677.663450491101,72.63839519504806,1478.1846678726574,1
-3.6246074013382614,39.65058139534884,-63.402207392197134,114.8623967975982,-124.41064488876373,89.8961381626289,13.772948822095884,-5.0,-18.62666666666667,-7.470588235294116,-2.490196078431371,-51.4047619047619,-31.376470588235293,-16.435294117647057,-33.36862745098039,20.771575630252098,284.68761237867693,35.55913206296141,2677.663450491101,72.63839519504806,1478.1846678726574,1
-2.51467977604808,39.74903100775194,-63.04363449691993,114.98949211908939,-124.38203323007605,89.95706404413527,13.566612510154357,-5.0,-18.62666666666667,-7.470588235294116,-2.490196078431371,-51.4047619047619,-31.376470588235293,-16.435294117647057,-33.36862745098039,20.771575630252098,284.68761237867693,35.10244842690665,2669.384615062234,72.59405254125376,1483.6896106778238,1
-2.51467977604808,39.74903100775194,-63.04363449691993,114.98949211908939,-124.38203323007605,89.95706404413527,13.566612510154357,-6.0,-32.17333333333333,-8.466666666666665,49.30588235294118,13.103174603174605,-3.48627450980392,-3.48627450980392,-25.4,17.677700746965453,273.57577597527035,35.10244842690665,2669.384615062234,72.59405254125376,1483.6896106778238,1
-2.51467977604808,39.74903100775194,-63.04363449691993,114.98949211908939,-124.38203323007605,89.95706404413527,13.566612510154357,0.0,-10.724444444444446,9.462745098039218,16.43529411764706,24.19047619047619,14.443137254901963,2.4901960784313744,-25.4,12.89328664799253,84.27512143750745,35.10244842690665,2669.384615062234,72.59405254125376,1483.6896106778238,1
-1.127270244435353,39.37984496124031,-63.69558521560575,115.18013510132607,-124.39633905941989,89.71336051810984,13.566612510154357,0.0,-10.724444444444446,9.462745098039218,16.43529411764706,24.19047619047619,14.443137254901963,2.4901960784313744,-25.4,12.89328664799253,84.27512143750745,34.73423347376047,2696.6941211265557,72.75185509272404,1497.9330143956959,1
-1.127270244435353,39.37984496124031,-63.69558521560575,115.18013510132607,-124.39633905941989,89.71336051810984,13.566612510154357,6.0,-6.20888888888889,41.33725490196079,6.4745098039215705,-31.246031746031743,-6.474509803921567,6.4745098039215705,2.4901960784313744,13.338237628384688,209.76052682863997,34.73423347376047,2696.6941211265557,72.75185509272404,1497.9330143956959,1
-1.127270244435353,39.37984496124031,-63.69558521560575,115.18013510132607,-124.39633905941989,89.71336051810984,13.566612510154357,6.0,23.142222222222216,103.09411764705882,-0.49803921568627274,2.0158730158730176,15.439215686274512,-3.48627450980392,-28.388235294117646,22.75799719887955,1159.6107474186188,34.73423347376047,2696.6941211265557,72.75185509272404,1497.9330143956959,1
1.2313259593062829,39.133720930232556,-64.02156057494867,115.8791593695272,-124.56800901154605,89.04317582153992,13.72136474411053,6.0,23.142222222222216,103.09411764705882,-0.49803921568627274,2.0158730158730176,15.439215686274512,-3.48627450980392,-28.388235294117646,22.75799719887955,1159.6107474186188,34.79553582149583,2722.590474666272,73.01148029156947,1533.0795726933566,1
1.2313259593062829,39.133720930232556,-64.02156057494867,115.8791593695272,-124.56800901154605,89.04317582153992,13.72136474411053,13.0,14.111111111111107,62.254901960784316,4.482352941176472,100.7936507936508,14.443137254901963,3.4862745098039234,2.4901960784313744,26.8827030812325,1266.9670576771016,34.79553582149583,2722.590474666272,73.01148029156947,1533.0795726933566,1
1.2313259593062829,39.133720930232556,-64.02156057494867,115.8791593695272,-124.56800901154605,89.04317582153992,13.72136474411053,7.0,-33.30222222222223,-47.31372549019608,3.4862745098039234,8.063492063492065,11.454901960784316,6.4745098039215705,22.411764705882355,17.438361344537817,245.20718874547643,34.79553582149583,2722.590474666272,73.01148029156947,1533.0795726933566,1
2.4106240611771,38.666085271317826,-64.54312114989733,116.64173129847393,-124.78259645170377,88.25113936195729,14.082453290008175,7.0,-33.30222222222223,-47.31372549019608,3.4862745098039234,8.063492063492065,11.454901960784316,6.4745098039215705,22.411764705882355,17.438361344537817,245.20718874547643,35.20661016079742,2741.5671259077485,73.28364590656302,1577.347923104501,1
2.4106240611771,38.666085271317826,-64.54312114989733,116.64173129847393,-124.78259645170377,88.25113936195729,14.082453290008175,6.0,-15.24,-23.4078431372549,-24.40392156862745,-31.246031746031743,-12.450980392156861,-6.474509803921567,-27.392156862745097,18.326930438842204,92.61657445413893,35.20661016079742,2741.5671259077485,73.28364590656302,1577.347923104501,1
2.4106240611771,38.666085271317826,-64.54312114989733,116.64173129847393,-124.78259645170377,88.25113936195729,14.082453290008175,1.0,-10.724444444444446,12.450980392156865,22.411764705882355,-2.015873015873014,-3.48627450980392,-0.49803921568627274,14.443137254901963,8.378814192343604,62.39453017703816,35.20661016079742,2741.5671259077485,73.28364590656302,1577.347923104501,1
2.0290864399836006,38.83837209302325,-65.0972792607803,117.08656492369278,-124.9542664038299,87.21539937634923,14.495125913891172,1.0,-10.724444444444446,12.450980392156865,22.411764705882355,-2.015873015873014,-3.48627450980392,-0.49803921568627274,14.443137254901963,8.378814192343604,62.39453017703816,35.32157926459572,2777.248684136528,73.67407209249878,1585.8659517750734,1
2.0290864399836006,38.83837209302325,-65.0972792607803,117.08656492369278,-124.9542664038299,87.21539937634923,14.495125913891172,0.0,-27.657777777777778,-59.266666666666666,3.4862745098039234,35.27777777777778,3.4862745098039234,2.4901960784313744,-28.388235294117646,20.006650326797384,450.89782792424154,35.32157926459572,2777.248684136528,73.67407209249878,1585.8659517750734,1
2.0290864399836006,38.83837209302325,-65.0972792607803,117.08656492369278,-124.9542664038299,87.21539937634923,14.495125913891172,-2.0,-23.142222222222223,1.4941176470588253,-38.34901960784313,13.103174603174605,-6.474509803921567,-9.462745098039214,-51.29803921568627,18.16547852474323,329.6014422274792,35.32157926459572,2777.248684136528,73.67407209249878,1585.8659517750734,1
2.445309299467419,39.05988372093023,-64.96688911704312,117.65849387040282,-125.08301886792455,86.24058527224751,14.753046303818053,-2.0,-23.142222222222223,1.4941176470588253,-38.34901960784313,13.103174603174605,-6.474509803921567,-9.462745098039214,-51.29803921568627,18.16547852474323,329.6014422274792,35.49069404581359,2784.433503749189,73.89508890279205,1604.2199429178793,1
2.445309299467419,39.05988372093023,-64.96688911704312,117.65849387040282,-125.08301886792455,86.24058527224751,14.753046303818053,-4.0,-29.915555555555557,22.411764705882355,-14.44313725490196,-36.285714285714285,7.4705882352941195,2.4901960784313744,-6.474509803921567,15.436433239962653,162.306744190661,35.49069404581359,2784.433503749189,73.89508890279205,1604.2199429178793,1
2.445309299467419,39.05988372093023,-64.96688911704312,117.65849387040282,-125.08301886792455,86.24058527224751,14.753046303818053,1.0,-26.52888888888889,-81.18039215686275,-22.41176470588235,-26.206349206349202,-4.482352941176469,-0.49803921568627274,3.4862745098039234,20.724257703081236,725.8046763622225,35.49069404581359,2784.433503749189,73.89508890279205,1604.2199429178793,1
2.063771678273919,39.035271317829455,-64.64091375770022,118.23042281711287,-125.22607716136301,85.32669704965217,15.010966693744933,1.0,-26.52888888888889,-81.18039215686275,-22.41176470588235,-26.206349206349202,-4.482352941176469,-0.49803921568627274,3.4862745098039234,20.724257703081236,725.8046763622225,35.24665225126787,2760.8596994208997,73.96886929754751,1633.2260711636388,1
2.063771678273919,39.035271317829455,-64.64091375770022,118.23042281711287,-125.22607716136301,85.32669704965217,15.010966693744933,-6.0,-7.337777777777779,28.38823529411765,27.3921568627451,-18.14285714285714,-3.48627450980392,2.4901960784313744,4.482352941176472,12.214981325863679,117.1469903937174,35.24665225126787,2760.8596994208997,73.96886929754751,1633.2260711636388,1
2.063771678273919,39.035271317829455,-64.64091375770022,118.23042281711287,-125.22607716136301,85.32669704965217,15.010966693744933,-6.0,-33.30222222222223,-43.32941176470588,11.454901960784316,32.25396825396825,-4.482352941176469,2.4901960784313744,23.407843137254904,19.59011204481793,242.5784201687647,35.24665225126787,2760.8596994208997,73.96886929754751,1633.2260711636388,1
-0.052027857435489766,39.15833333333333,-63.9237679671458,118.54816112084063,-125.29760630808224,84.90021587910768,15.114134849715697,-6.0,-33.30222222222223,-43.32941176470588,11.454901960784316,32.25396825396825,-4.482352941176469,2.4901960784313744,23.407843137254904,19.59011204481793,242.5784201687647,34.37804305263821,2707.161869645861,73.87675414043993,1649.9826393568544,1
-0.052027857435489766,39.15833333333333,-63.9237679671458,118.54816112084063,-125.29760630808224,84.90021587910768,15.114134849715697,2.0,-15.24,6.4745098039215705,24.403921568627453,-8.063492063492061,-0.49803921568627274,-4.482352941176469,-34.364705882352936,11.940877684407095,142.76346167504036,34.37804305263821,2707.161869645861,73.87675414043993,1649.9826393568544,1
-0.052027857435489766,39.15833333333333,-63.9237679671458,118.54816112084063,-125.29760630808224,84.90021587910768,15.114134849715697,-1.0,-16.36888888888889,1.4941176470588253,-16.435294117647057,-51.4047619047619,-7.470588235294116,-6.474509803921567,-25.4,15.756020074696544,277.2304238924763,34.37804305263821,2707.161869645861,73.87675414043993,1649.9826393568544,1
-0.29482452546771687,39.133720930232556,-63.85857289527721,118.929447085314,-125.38344128414533,84.53466059006954,15.165718927701107,-1.0,-16.36888888888889,1.4941176470588253,-16.435294117647057,-51.4047619047619,-7.470588235294116,-6.474509803921567,-25.4,15.756020074696544,277.2304238924763,34.42903945032583,2700.39548183547,73.97391363694125,1668.5795668941635,1
-0.29482452546771687,39.133720930232556,-63.85857289527721,118.929447085314,-125.38344128414533,84.53466059006954,15.165718927701107,1.0,-5.080000000000002,28.38823529411765,-14.44313725490196,1.0079365079365097,24.403921568627453,-4.482352941176469,-37.35294117647059,14.519815592903827,195.2290263452222,34.42903945032583,2700.39548183547,73.97391363694125,1668.5795668941635,1
-0.29482452546771687,39.133720930232556,-63.85857289527721,118.929447085314,-125.38344128414533,84.53466059006954,15.165718927701107,-6.0,-7.337777777777779,39.345098039215685,-0.49803921568627274,-5.039682539682538,-7.470588235294116,3.4862745098039234,7.4705882352941195,9.581006069094304,150.41917633497843,34.42903945032583,2700.39548183547,73.97391363694125,1668.5795668941635,1
-1.4741226273385348,39.30600775193798,-63.98896303901438,118.929447085314,-125.39774711348917,84.5955864715759,15.165718927701107,-6.0,-7.337777777777779,39.345098039215685,-0.49803921568627274,-5.039682539682538,-7.470588235294116,3.4862745098039234,7.4705882352941195,9.581006069094304,150.41917633497843,34.9230311394303,2706.8292160252986,74.07480595875545,1661.266193370221,1
-1.4741226273385348,39.30600775193798,-63.98896303901438,118.929447085314,-125.39774711348917,84.5955864715759,15.165718927701107,-3.0,-23.142222222222223,-32.372549019607845,35.36078431372549,-39.30952380952381,-19.423529411764704,-5.478431372549018,23.407843137254904,22.686860410831002,175.1189788386379,34.9230311394303,2706.8292160252986,74.07480595875545,1661.266193370221,1
-1.4741226273385348,39.30600775193798,-63.98896303901438,118.929447085314,-125.39774711348917,84.5955864715759,15.165718927701107,-4.0,-27.657777777777778,-25.4,9.462745098039218,4.031746031746033,4.482352941176472,2.4901960784313744,30.380392156862747,13.488151260504203,146.53288415043576,34.9230311394303,2706.8292160252986,74.07480595875545,1661.266193370221,1
-1.0232145295643984,39.25678294573643,-64.08675564681725,119.18363772829628,-125.44066460152072,84.35188294555047,15.26888708367187,-4.0,-27.657777777777778,-25.4,9.462745098039218,4.031746031746033,4.482352941176472,2.4901960784313744,30.380392156862747,13.488151260504203,146.53288415043576,34.7889177073727,2713.229230614719,74.17572544028332,1673.4160124782054,1
-1.0232145295643984,39.25678294573643,-64.08675564681725,119.18363772829628,-125.44066460152072,84.35188294555047,15.26888708367187,-5.0,-16.36888888888889,1.4941176470588253,-10.458823529411763,2.0158730158730176,-13.44705882352941,-4.482352941176469,9.462745098039218,7.841232492997199,29.60037889212329,34.7889177073727,2713.229230614719,74.17572544028332,1673.4160124782054,1
-1.0232145295643984,39.25678294573643,-64.08675564681725,119.18363772829628,-125.44066460152072,84.35188294555047,15.26888708367187,-3.0,-31.044444444444444,-32.372549019607845,9.462745098039218,-52.41269841269841,-6.474509803921567,2.4901960784313744,8.466666666666669,18.215476190476192,331.8214537100243,34.7889177073727,2713.229230614719,74.17572544028332,1673.4160124782054,1
-0.08671309572580777,39.404457364341084,-64.02156057494867,119.62847135351512,-125.54080540692763,83.86447589349962,15.372055239642577,-3.0,-31.044444444444444,-32.372549019607845,9.462745098039218,-52.41269841269841,-6.474509803921567,2.4901960784313744,8.466666666666669,18.215476190476192,331.8214537100243,34.50424367833852,2724.0264088793056,74.35149643093496,1689.0037862253914,1
-0.08671309572580777,39.404457364341084,-64.02156057494867,119.62847135351512,-125.54080540692763,83.86447589349962,15.372055239642577,4.0,-14.111111111111112,-5.478431372549018,-1.4941176470588218,-35.27777777777777,3.4862745098039234,5.4784313725490215,4.482352941176472,9.226062091503268,124.74109914227127,34.50424367833852,2724.0264088793056,74.35149643093496,1689.0037862253914,1
-0.08671309572580777,39.404457364341084,-64.02156057494867,119.62847135351512,-125.54080540692763,83.86447589349962,15.372055239642577,-1.0,-22.013333333333335,1.4941176470588253,2.4901960784313744,-2.015873015873014,3.4862745098039234,2.4901960784313744,0.4980392156862763,4.436003734827265,51.32317842239292,34.50424367833852,2724.0264088793056,74.35149643093496,1689.0037862253914,1
-0.9885292912740804,39.57674418604651,-63.98896303901438,119.946209657243,-125.61233455364686,83.49892060446147,15.423639317627988,-1.0,-22.013333333333335,1.4941176470588253,2.4901960784313744,-2.015873015873014,3.4862745098039234,2.4901960784313744,0.4980392156862763,4.436003734827265,51.32317842239292,34.85141217211166,2723.408629620042,74.5039722941013,1697.7368097573838,1
-0.9885292912740804,39.57674418604651,-63.98896303901438,119.946209657243,-125.61233455364686,83.49892060446147,15.423639317627988,8.0,-15.24,6.4745098039215705,-7.470588235294116,-31.246031746031743,1.4941176470588253,3.4862745098039234,32.372549019607845,13.223008870214752,147.69796921858068,34.85141217211166,2723.408629620042,74.5039722941013,1697.7368097573838,1
-0.9885292912740804,39.57674418604651,-63.98896303901438,119.946209657243,-125.61233455364686,83.49892060446147,15.423639317627988,1.0,-37.81777777777778,-57.27450980392157,6.4745098039215705,16.126984126984127,5.4784313725490215,6.4745098039215705,28.38823529411765,19.879369747899162,389.98033451306446,34.85141217211166,2723.408629620042,74.5039722941013,1697.7368097573838,1
-1.2660111975966257,39.404457364341084,-64.21714579055443,120.13685263947968,-125.66955787102225,83.13336531542333,15.526807473598751,1.0,-37.81777777777778,-57.27450980392157,6.4745098039215705,16.126984126984127,5.4784313725490215,6.4745098039215705,28.38823529411765,19.879369747899162,389.98033451306446,34.96253811749738,2725.72816666315,74.5861519314584,1710.0671279778835,1
-1.2660111975966257,39.404457364341084,-64.21714579055443,120.13685263947968,-125.66955787102225,83.13336531542333,15.526807473598751,1.0,-20.884444444444444,13.447058823529414,16.43529411764706,15.11904761904762,-14.44313725490196,-3.48627450980392,-3.48627450980392,11.037691409897292,53.56504068507578,34.96253811749738,2725.72816666315,74.5861519314584,1710.0671279778835,1
-1.2660111975966257,39.404457364341084,-64.21714579055443,120.13685263947968,-125.66955787102225,83.13336531542333,15.526807473598751,0.0,-16.36888888888889,18.42745098039216,24.403921568627453,4.031746031746033,9.462745098039218,-2.490196078431371,-10.458823529411763,10.705471521942112,72.51321199224789,34.96253811749738,2725.72816666315,74.5861519314584,1710.0671279778835,1
-1.4047521507578984,39.05988372093023,-63.9237679671458,120.13685263947968,-125.66955787102225,83.1942911969297,15.578391551584104,0.0,-16.36888888888889,18.42745098039216,24.403921568627453,4.031746031746033,9.462745098039218,-2.490196078431371,-10.458823529411763,10.705471521942112,72.51321199224789,34.79613461294465,2691.9411016481727,74.37350144251857,1725.2664195346033,1
-1.4047521507578984,39.05988372093023,-63.9237679671458,120.13685263947968,-125.66955787102225,83.1942911969297,15.578391551584104,2.0,-10.724444444444446,6.4745098039215705,26.39607843137255,-22.17460317460317,-2.490196078431371,-5.478431372549018,-25.4,12.642282913165266,107.45067387286069,34.79613461294465,2691.9411016481727,74.37350144251857,1725.2664195346033,1
-1.4047521507578984,39.05988372093023,-63.9237679671458,120.13685263947968,-125.66955787102225,83.1942911969297,15.578391551584104,7.0,0.5644444444444439,19.423529411764708,-48.30980392156863,19.150793650793652,9.462745098039218,14.443137254901963,18.42745098039216,17.097738095238096,203.7485241626498,34.79613461294465,2691.9411016481727,74.37350144251857,1725.2664195346033,1
-0.6416769083708986,38.936821705426354,-63.85857289527721,120.26394796097077,-125.72678118839764,82.7678100263852,15.733143785540221,7.0,0.5644444444444439,19.423529411764708,-48.30980392156863,19.150793650793652,9.462745098039218,14.443137254901963,18.42745098039216,17.097738095238096,203.7485241626498,34.47902383635815,2688.287773642673,74.35311418722478,1736.1269139426097,1
-0.6416769083708986,38.936821705426354,-63.85857289527721,120.26394796097077,-125.72678118839764,82.7678100263852,15.733143785540221,-5.0,-25.4,-1.4941176470588218,13.447058823529414,10.07936507936508,3.4862745098039234,0.4980392156862763,16.43529411764706,9.480018674136321,74.05205602938342,34.47902383635815,2688.287773642673,74.35311418722478,1736.1269139426097,1
-0.6416769083708986,38.936821705426354,-63.85857289527721,120.26394796097077,-125.72678118839764,82.7678100263852,15.733143785540221,0.0,-7.337777777777779,8.466666666666669,20.419607843137257,22.174603174603178,-9.462745098039214,-4.482352941176469,-8.466666666666665,10.101302521008403,57.03283053369497,34.47902383635815,2688.287773642673,74.35311418722478,1736.1269139426097,1
-0.3641950020483533,38.17383720930232,-63.85857289527721,120.51813860395305,-125.85553365249226,82.52410650035978,16.094232331437865,0.0,-7.337777777777779,8.466666666666669,20.419607843137257,22.174603174603178,-9.462745098039214,-4.482352941176469,-8.466666666666665,10.101302521008403,57.03283053369497,34.132201702209294,2654.554777086726,74.18351623617752,1775.0993342878708,1
-0.3641950020483533,38.17383720930232,-63.85857289527721,120.51813860395305,-125.85553365249226,82.52410650035978,16.094232331437865,1.0,-18.62666666666667,-19.423529411764704,-16.435294117647057,1.7763568394002505e-15,7.4705882352941195,-2.490196078431371,5.4784313725490215,8.865588235294117,65.51140514087987,34.132201702209294,2654.554777086726,74.18351623617752,1775.0993342878708,1
-0.3641950020483533,38.17383720930232,-63.85857289527721,120.51813860395305,-125.85553365249226,82.52410650035978,16.094232331437865,-2.0,-16.36888888888889,0.4980392156862763,19.423529411764708,-17.134920634920633,4.482352941176472,-1.4941176470588218,9.462745098039218,8.858074229691876,61.03016489214423,34.132201702209294,2654.554777086726,74.18351623617752,1775.0993342878708,1
-1.3700669124675802,37.82926356589147,-63.82597535934292,120.51813860395305,-125.94136862855535,82.64595826337249,16.45532087733551,-2.0,-16.36888888888889,0.4980392156862763,19.423529411764708,-17.134920634920633,4.482352941176472,-1.4941176470588218,9.462745098039218,8.858074229691876,61.03016489214423,34.34176861256733,2628.519268470429,74.05779250972914,1787.880075414244,1
-1.3700669124675802,37.82926356589147,-63.82597535934292,120.51813860395305,-125.94136862855535,82.64595826337249,16.45532087733551,4.0,1.6933333333333316,46.31764705882353,-2.490196078431371,-9.07142857142857,-11.454901960784312,-0.49803921568627274,4.482352941176472,10.000987394957983,229.15428836671927,34.34176861256733,2628.519268470429,74.05779250972914,1787.880075414244,1
-1.3700669124675802,37.82926356589147,-63.82597535934292,120.51813860395305,-125.94136862855535,82.64595826337249,16.45532087733551,-3.0,-22.013333333333335,-11.454901960784312,3.4862745098039234,-24.19047619047619,15.439215686274512,2.4901960784313744,29.3843137254902,13.93233893557423,111.03752522342269,34.34176861256733,2628.519268470429,74.05779250972914,1787.880075414244,1
-1.127270244435353,37.607751937984496,-63.239219712525674,120.58168626469853,-126.05581526330613,82.88966178939792,16.713241267262447,-3.0,-22.013333333333335,-11.454901960784312,3.4862745098039234,-24.19047619047619,15.439215686274512,2.4901960784313744,29.3843137254902,13.93233893557423,111.03752522342269,33.99141396498184,2588.0679835463275,73.8095526384029,1804.9673980363768,1
-1.127270244435353,37.607751937984496,-63.239219712525674,120.58168626469853,-126.05581526330613,82.88966178939792,16.713241267262447,-6.0,-26.52888888888889,-20.419607843137253,-6.474509803921567,21.166666666666668,-18.427450980392155,-0.49803921568627274,-6.474509803921567,13.248709150326796,89.1716145459927,33.99141396498184,2588.0679835463275,73.8095526384029,1804.9673980363768,1
-1.127270244435353,37.607751937984496,-63.239219712525674,120.58168626469853,-126.05581526330613,82.88966178939792,16.713241267262447,-2.0,-18.62666666666667,-47.31372549019608,-1.4941176470588218,52.41269841269841,-4.482352941176469,-3.48627450980392,-4.482352941176469,16.787273576097107,448.1001894432719,33.99141396498184,2588.0679835463275,73.8095526384029,1804.9673980363768,1
-1.1966407210159895,37.68158914728682,-63.1414271047228,120.77232924693521,-126.1416502393692,83.1942911969297,16.971161657189327,-2.0,-18.62666666666667,-47.31372549019608,-1.4941176470588218,52.41269841269841,-4.482352941176469,-3.48627450980392,-4.482352941176469,16.787273576097107,448.1001894432719,34.00655232434187,2585.65898732811,73.86511516631494,1812.2658868085798,1
-1.1966407210159895,37.68158914728682,-63.1414271047228,120.77232924693521,-126.1416502393692,83.1942911969297,16.971161657189327,3.0,-22.013333333333335,-50.30196078431372,-39.345098039215685,-5.039682539682538,8.466666666666669,1.4941176470588253,-0.49803921568627274,16.26986227824463,364.82953851871895,34.00655232434187,2585.65898732811,73.86511516631494,1812.2658868085798,1
-1.1966407210159895,37.68158914728682,-63.1414271047228,120.77232924693521,-126.1416502393692,83.1942911969297,16.971161657189327,-5.0,-18.62666666666667,30.380392156862747,5.4784313725490215,-9.07142857142857,-5.478431372549018,-1.4941176470588218,-11.454901960784312,10.873046218487394,89.27146708134235,34.00655232434187,2585.65898732811,73.86511516631494,1812.2658868085798,1
-1.925030725112671,37.656976744186046,-63.04363449691993,120.77232924693521,-126.21317938608843,83.68169824898055,17.177497969130798,-5.0,-18.62666666666667,30.380392156862747,5.4784313725490215,-9.07142857142857,-5.478431372549018,-1.4941176470588218,-11.454901960784312,10.873046218487394,89.27146708134235,34.20854732207288,2573.805357774525,73.82431349601373,1814.2077351751896,1
-1.925030725112671,37.656976744186046,-63.04363449691993,120.77232924693521,-126.21317938608843,83.68169824898055,17.177497969130798,-5.0,-25.4,-17.431372549019606,5.4784313725490215,11.087301587301589,-7.470588235294116,1.4941176470588253,17.43137254901961,11.349147992530346,65.48910850723732,34.20854732207288,2573.805357774525,73.82431349601373,1814.2077351751896,1
-1.925030725112671,37.656976744186046,-63.04363449691993,120.77232924693521,-126.21317938608843,83.68169824898055,17.177497969130798,-3.0,-15.24,14.443137254901963,-11.454901960784312,-42.33333333333333,4.482352941176472,-6.474509803921567,-20.419607843137253,14.730980392156862,159.4492266930301,34.20854732207288,2573.805357774525,73.82431349601373,1814.2077351751896,1
-1.2313259593063077,38.050775193798444,-63.27181724845997,121.0265198899175,-126.31332019149536,84.04725353801868,17.28066612510156,-3.0,-15.24,14.443137254901963,-11.454901960784312,-42.33333333333333,4.482352941176472,-6.474509803921567,-20.419607843137253,14.730980392156862,159.4492266930301,34.18463946718824,2609.728961603718,74.11637077739196,1809.4468079002859,1
-1.2313259593063077,38.050775193798444,-63.27181724845997,121.0265198899175,-126.31332019149536,84.04725353801868,17.28066612510156,-4.0,-28.78666666666667,-18.427450980392155,1.4941176470588253,-5.039682539682538,8.466666666666669,7.4705882352941195,45.321568627450986,14.875842670401497,231.86958138553902,34.18463946718824,2609.728961603718,74.11637077739196,1809.4468079002859,1
-1.2313259593063077,38.050775193798444,-63.27181724845997,121.0265198899175,-126.31332019149536,84.04725353801868,17.28066612510156,-2.0,-15.24,46.31764705882353,18.42745098039216,8.063492063492065,5.4784313725490215,-4.482352941176469,-2.490196078431371,12.812446311858078,218.45834481522465,34.18463946718824,2609.728961603718,74.11637077739196,1809.4468079002859,1
-1.300696435886944,38.37073643410852,-63.04363449691993,121.15361521140858,-126.35623767952691,84.23003118253776,17.28066612510156,-2.0,-15.24,46.31764705882353,18.42745098039216,8.063492063492065,5.4784313725490215,-4.482352941176469,-2.490196078431371,12.812446311858078,218.45834481522465,34.238355788971795,2611.814602950557,74.18932871414567,1806.4211293522135,1
-1.300696435886944,38.37073643410852,-63.04363449691993,121.15361521140858,-126.35623767952691,84.23003118253776,17.28066612510156,-4.0,-17.497777777777777,-0.49803921568627274,-3.48627450980392,-7.055555555555554,-0.49803921568627274,2.4901960784313744,-5.478431372549018,5.125539215686274,30.092622319559634,34.238355788971795,2611.814602950557,74.18932871414567,1806.4211293522135,1
-1.300696435886944,38.37073643410852,-63.04363449691993,121.15361521140858,-126.35623767952691,84.23003118253776,17.28066612510156,-2.0,-10.724444444444446,10.458823529411767,-20.419607843137253,28.22222222222222,-6.474509803921567,0.4980392156862763,0.4980392156862763,9.911960784313727,99.75636292756754,34.238355788971795,2611.814602950557,74.18932871414567,1806.4211293522135,1
-0.3641950020483533,38.666085271317826,-63.10882956878851,121.47135351513634,-126.42776682624614,84.04725353801868,17.383834281072325,-2.0,-10.724444444444446,10.458823529411767,-20.419607843137253,28.22222222222222,-6.474509803921567,0.4980392156862763,0.4980392156862763,9.911960784313727,99.75636292756754,34.046369947384896,2636.3975393070295,74.41542278508089,1810.0573998517166,1
-0.3641950020483533,38.666085271317826,-63.10882956878851,121.47135351513634,-126.42776682624614,84.04725353801868,17.383834281072325,2.0,-33.30222222222223,9.462745098039218,-10.458823529411763,21.166666666666668,-6.474509803921567,-2.490196078431371,-0.49803921568627274,10.731650326797386,126.71688057188021,34.046369947384896,2636.3975393070295,74.41542278508089,1810.0573998517166,1
-0.3641950020483533,38.666085271317826,-63.10882956878851,121.47135351513634,-126.42776682624614,84.04725353801868,17.383834281072325,1.0,-23.142222222222223,-7.470588235294116,19.423529411764708,-21.166666666666664,-0.49803921568627274,-2.490196078431371,-37.35294117647059,14.068022875816993,176.58437193966913,34.046369947384896,2636.3975393070295,74.41542278508089,1810.0573998517166,1
-1.300696435886944,39.05988372093023,-63.076232032854215,121.66199649737302,-126.45637848493382,83.98632765651233,17.383834281072325,1.0,-23.142222222222223,-7.470588235294116,19.423529411764708,-21.166666666666664,-0.49803921568627274,-2.490196078431371,-37.35294117647059,14.068022875816993,176.58437193966913,34.47893739655713,2646.163228359582,74.59937075038583,1805.3643032106504,1
-1.300696435886944,39.05988372093023,-63.076232032854215,121.66199649737302,-126.45637848493382,83.98632765651233,17.383834281072325,1.0,-11.853333333333335,0.4980392156862763,-9.462745098039214,-17.134920634920633,4.482352941176472,5.4784313725490215,3.4862745098039234,6.674512138188609,32.96635914500876,34.47893739655713,2646.163228359582,74.59937075038583,1805.3643032106504,1
-1.300696435886944,39.05988372093023,-63.076232032854215,121.66199649737302,-126.45637848493382,83.98632765651233,17.383834281072325,4.0,-8.466666666666669,12.450980392156865,28.38823529411765,-6.047619047619046,-5.478431372549018,3.4862745098039234,16.43529411764706,10.594187675070028,71.36695278111247,34.47893739655713,2646.163228359582,74.59937075038583,1805.3643032106504,1
-1.6128635804998075,39.10910852713178,-62.88064681724847,121.9161871403553,-126.47068431427769,84.10817941952504,17.229082047116208,4.0,-8.466666666666669,12.450980392156865,28.38823529411765,-6.047619047619046,-5.478431372549018,3.4862745098039234,16.43529411764706,10.594187675070028,71.36695278111247,34.534206308293356,2635.655078381081,74.63531416157852,1817.8822203960394,1
-1.6128635804998075,39.10910852713178,-62.88064681724847,121.9161871403553,-126.47068431427769,84.10817941952504,17.229082047116208,-2.0,-19.755555555555556,-13.44705882352941,-15.439215686274508,16.126984126984127,-8.466666666666665,-7.470588235294116,-12.450980392156861,11.894631185807654,32.03105739027638,34.534206308293356,2635.655078381081,74.63531416157852,1817.8822203960394,1
-1.6128635804998075,39.10910852713178,-62.88064681724847,121.9161871403553,-126.47068431427769,84.10817941952504,17.229082047116208,-2.0,-18.62666666666667,11.454901960784316,5.4784313725490215,9.071428571428573,5.4784313725490215,-2.490196078431371,-3.48627450980392,7.2607913165266105,31.583884157976932,34.534206308293356,2635.655078381081,74.63531416157852,1817.8822203960394,1
-1.0925850061450348,39.37984496124031,-63.076232032854215,122.17037778333759,-126.48499014362153,83.98632765651233,17.07432981316009,-2.0,-18.62666666666667,11.454901960784316,5.4784313725490215,9.071428571428573,5.4784313725490215,-2.490196078431371,-3.48627450980392,7.2607913165266105,31.583884157976932,34.51622066674652,2662.872966536069,74.87548492581071,1817.984857865648,1
-1.0925850061450348,39.37984496124031,-63.076232032854215,122.17037778333759,-126.48499014362153,83.98632765651233,17.07432981316009,-4.0,-17.497777777777777,17.43137254901961,-5.478431372549018,-16.126984126984127,18.42745098039216,-2.490196078431371,-2.490196078431371,10.49280112044818,55.328557609361845,34.51622066674652,2662.872966536069,74.87548492581071,1817.984857865648,1
-1.0925850061450348,39.37984496124031,-63.076232032854215,122.17037778333759,-126.48499014362153,83.98632765651233,17.07432981316009,-5.0,-15.24,4.482352941176472,-19.423529411764704,-5.039682539682538,3.4862745098039234,1.4941176470588253,11.454901960784316,8.202607376283847,41.05144529659357,34.51622066674652,2662.872966536069,74.87548492581071,1817.984857865648,1
-0.26013928717739865,39.355232558139534,-63.33701232032855,122.55166374781095,-126.51360180230921,83.68169824898055,16.971161657189327,-5.0,-15.24,4.482352941176472,-19.423529411764704,-5.039682539682538,3.4862745098039234,1.4941176470588253,11.454901960784316,8.202607376283847,41.05144529659357,34.31746138854849,2682.294459377042,75.08130287542635,1833.8578111563522,1
-0.26013928717739865,39.355232558139534,-63.33701232032855,122.55166374781095,-126.51360180230921,83.68169824898055,16.971161657189327,2.0,-3.9511111111111124,83.17254901960784,31.376470588235296,-2.015873015873014,-8.466666666666665,0.4980392156862763,-20.419607843137253,18.987539682539683,790.0729152037284,34.31746138854849,2682.294459377042,75.08130287542635,1833.8578111563522,1
-0.26013928717739865,39.355232558139534,-63.33701232032855,122.55166374781095,-126.51360180230921,83.68169824898055,16.971161657189327,8.0,3.9511111111111106,76.2,-12.450980392156861,-6.047619047619046,-10.458823529411763,0.4980392156862763,-7.470588235294116,15.634645191409899,612.5085095791693,34.31746138854849,2682.294459377042,75.08130287542635,1833.8578111563522,1
0.5029359552096011,39.28139534883721,-63.565195071868594,123.0600450337754,-126.59943677837231,83.25521707843605,16.971161657189327,8.0,3.9511111111111106,76.2,-12.450980392156861,-6.047619047619046,-10.458823529411763,0.4980392156862763,-7.470588235294116,15.634645191409899,612.5085095791693,34.44984212530513,2697.6525812350833,75.3022118181604,1858.0337073349492,1
0.5029359552096011,39.28139534883721,-63.565195071868594,123.0600450337754,-126.59943677837231,83.25521707843605,16.971161657189327,1.0,-3.9511111111111124,-19.423529411764704,-12.450980392156861,-1.0079365079365061,0.4980392156862763,-6.474509803921567,-46.317647058823525,11.39046918767507,242.78243790801724,34.44984212530513,2697.6525812350833,75.3022118181604,1858.0337073349492,1
0.5029359552096011,39.28139534883721,-63.565195071868594,123.0600450337754,-126.59943677837231,83.25521707843605,16.971161657189327,1.0,-20.884444444444444,-17.431372549019606,-18.427450980392155,-4.03174603174603,2.4901960784313744,-0.49803921568627274,2.4901960784313744,8.406680672268907,77.73009300992727,34.44984212530513,2697.6525812350833,75.3022118181604,1858.0337073349492,1
-0.6416769083708986,39.47829457364341,-63.63039014373717,123.31423567675756,-126.61374260771615,82.88966178939792,16.867993501218564,1.0,-20.884444444444444,-17.431372549019606,-18.427450980392155,-4.03174603174603,2.4901960784313744,-0.49803921568627274,2.4901960784313744,8.406680672268907,77.73009300992727,34.58345387525049,2701.431828485507,75.47430679804604,1862.3250264468675,1
-0.6416769083708986,39.47829457364341,-63.63039014373717,123.31423567675756,-126.61374260771615,82.88966178939792,16.867993501218564,-3.0,-14.111111111111112,36.35686274509804,-5.478431372549018,-2.015873015873014,-11.454901960784312,-5.478431372549018,25.400000000000002,12.911951447245565,148.0945639432244,34.58345387525049,2701.431828485507,75.47430679804604,1862.3250264468675,1
-0.6416769083708986,39.47829457364341,-63.63039014373717,123.31423567675756,-126.61374260771615,82.88966178939792,16.867993501218564,6.0,-9.595555555555556,41.33725490196079,37.352941176470594,5.039682539682541,3.4862745098039234,2.4901960784313744,15.439215686274512,15.092640056022411,241.70089149598843,34.58345387525049,2701.431828485507,75.47430679804604,1862.3250264468675,1
-0.12139833401612599,39.502906976744185,-63.66298767967147,123.63197398048544,-126.6566600957477,82.40225473734706,16.867993501218564,6.0,-9.595555555555556,41.33725490196079,37.352941176470594,5.039682539682541,3.4862745098039234,2.4901960784313744,15.439215686274512,15.092640056022411,241.70089149598843,34.42909766347726,2708.4701613651496,75.5992895456337,1876.2814554065264,1
-0.12139833401612599,39.502906976744185,-63.66298767967147,123.63197398048544,-126.6566600957477,82.40225473734706,16.867993501218564,-3.0,-27.657777777777778,-3.48627450980392,10.458823529411767,-1.0079365079365061,1.4941176470588253,2.4901960784313744,1.4941176470588253,6.386155462184874,82.98738658343511,34.42909766347726,2708.4701613651496,75.5992895456337,1876.2814554065264,1
-0.12139833401612599,39.502906976744185,-63.66298767967147,123.63197398048544,-126.6566600957477,82.40225473734706,16.867993501218564,-4.0,-26.52888888888889,-42.33333333333333,-12.450980392156861,23.182539682539684,-8.466666666666665,-9.462745098039214,-29.384313725490195,19.476183473389355,170.63460235549556,34.42909766347726,2708.4701613651496,75.5992895456337,1876.2814554065264,1
-0.502935955209626,39.37984496124031,-63.72818275154005,123.9497122842132,-126.69957758377922,82.03669944830892,16.816409423233154,-4.0,-26.52888888888889,-42.33333333333333,-12.450980392156861,23.182539682539684,-8.466666666666665,-9.462745098039214,-29.384313725490195,19.476183473389355,170.63460235549556,34.53698788932999,2703.222237484319,75.6859133323312,1895.2561052384006,1
-0.502935955209626,39.37984496124031,-63.72818275154005,123.9497122842132,-126.69957758377922,82.03669944830892,16.816409423233154,4.0,-19.755555555555556,-25.4,4.482352941176472,33.26190476190476,13.447058823529414,21.415686274509806,30.380392156862747,19.017868814192344,120.98233356196508,34.53698788932999,2703.222237484319,75.6859133323312,1895.2561052384006,1
-0.502935955209626,39.37984496124031,-63.72818275154005,123.9497122842132,-126.69957758377922,82.03669944830892,16.816409423233154,-5.0,-16.36888888888889,-11.454901960784312,-0.49803921568627274,2.0158730158730176,4.482352941176472,0.4980392156862763,-7.470588235294116,5.97358543417367,31.306646497204543,34.53698788932999,2703.222237484319,75.6859133323312,1895.2561052384006,1
-0.502935955209626,39.552131782945736,-63.956365503080086,124.20390292719549,-126.72818924246693,81.67114415927078,16.816409423233154,-5.0,-16.36888888888889,-11.454901960784312,-0.49803921568627274,2.0158730158730176,4.482352941176472,0.4980392156862763,-7.470588235294116,5.97358543417367,31.306646497204543,34.67047774707848,2724.125863884332,75.9041334044071,1898.5424578325935,1
-0.502935955209626,39.552131782945736,-63.956365503080086,124.20390292719549,-126.72818924246693,81.67114415927078,16.816409423233154,0.0,-20.884444444444444,-26.396078431372548,-7.470588235294116,-15.119047619047617,-1.4941176470588218,-5.478431372549018,-9.462745098039214,10.788181605975721,86.85978707513506,34.67047774707848,2724.125863884332,75.9041334044071,1898.5424578325935,1
-0.502935955209626,39.552131782945736,-63.956365503080086,124.20390292719549,-126.72818924246693,81.67114415927078,16.816409423233154,1.0,-17.497777777777777,-5.478431372549018,-11.454901960784312,16.126984126984127,-2.490196078431371,3.4862745098039234,13.447058823529414,8.872703081232492,42.55136159370067,34.67047774707848,2724.125863884332,75.9041334044071,1898.5424578325935,1
-0.39888024033867153,39.453682170542635,-64.18454825462013,124.52164123092325,-126.78541255984231,81.24466298872629,16.816409423233154,1.0,-17.497777777777777,-5.478431372549018,-11.454901960784312,16.126984126984127,-2.490196078431371,3.4862745098039234,13.447058823529414,8.872703081232492,42.55136159370067,34.67903688850048,2732.9534967334084,76.05329055202867,1914.789697466369,1
-0.39888024033867153,39.453682170542635,-64.18454825462013,124.52164123092325,-126.78541255984231,81.24466298872629,16.816409423233154,-6.0,-14.111111111111112,16.43529411764706,21.415686274509806,36.285714285714285,6.4745098039215705,-1.4941176470588218,15.439215686274512,14.706956115779647,118.95594422518464,34.67903688850048,2732.9534967334084,76.05329055202867,1914.789697466369,1
-0.39888024033867153,39.453682170542635,-64.18454825462013,124.52164123092325,-126.78541255984231,81.24466298872629,16.816409423233154,-3.0,-19.755555555555556,16.43529411764706,7.4705882352941195,-3.023809523809522,-1.4941176470588218,0.4980392156862763,14.443137254901963,8.265067693744165,56.992553309995046,34.67903688850048,2732.9534967334084,76.05329055202867,1914.789697466369,1
0.12139833401610112,39.453682170542635,-64.3149383983573,124.83937953465102,-126.8426358772177,80.63540417366272,16.919577579203917,-3.0,-19.755555555555556,16.43529411764706,7.4705882352941195,-3.023809523809522,-1.4941176470588218,0.4980392156862763,14.443137254901963,8.265067693744165,56.992553309995046,34.63000630097201,2744.499443009537,76.20266670118365,1928.6678917401402,1
0.12139833401610112,39.453682170542635,-64.3149383983573,124.83937953465102,-126.8426358772177,80.63540417366272,16.919577579203917,4.0,-11.853333333333335,2.4901960784313744,-0.49803921568627274,-19.15079365079365,-5.478431372549018,-3.48627450980392,-8.466666666666665,6.927966853408029,37.083070723757906,34.63000630097201,2744.499443009537,76.20266670118365,1928.6678917401402,1
0.12139833401610112,39.453682170542635,-64.3149383983573,124.83937953465102,-126.8426358772177,80.63540417366272,16.919577579203917,-1.0,-16.36888888888889,-12.450980392156861,-18.427450980392155,-3.023809523809522,0.4980392156862763,1.4941176470588253,-7.470588235294116,7.591734360410831,52.84235489232729,34.63000630097201,2744.499443009537,76.20266670118365,1928.6678917401402,1
-0.7457326232418531,39.552131782945736,-64.08675564681725,124.9664748561421,-126.82833004787386,80.20892300311823,16.867993501218564,-1.0,-16.36888888888889,-12.450980392156861,-18.427450980392155,-3.023809523809522,0.4980392156862763,1.4941176470588253,-7.470588235294116,7.591734360410831,52.84235489232729,34.79487335100161,2729.503676841946,76.20178742863503,1933.982996962263,1
-0.7457326232418531,39.552131782945736,-64.08675564681725,124.9664748561421,-126.82833004787386,80.20892300311823,16.867993501218564,0.0,-19.755555555555556,-26.396078431372548,-19.423529411764704,-13.103174603174601,-10.458823529411763,1.4941176470588253,7.4705882352941195,12.262733426704015,85.77623262049917,34.79487335100161,2729.503676841946,76.20178742863503,1933.982996962263,1
-0.7457326232418531,39.552131782945736,-64.08675564681725,124.9664748561421,-126.82833004787386,80.20892300311823,16.867993501218564,-7.0,-33.30222222222223,-43.32941176470588,-14.44313725490196,3.0238095238095255,5.4784313725490215,0.4980392156862763,6.4745098039215705,14.193695144724558,244.81660604115285,34.79487335100161,2729.503676841946,76.20178742863503,1933.982996962263,1
-0.919158814693444,39.57674418604651,-63.891170431211506,125.15711783837878,-126.8426358772177,79.84336771408009,16.816409423233154,-7.0,-33.30222222222223,-43.32941176470588,-14.44313725490196,3.0238095238095255,5.4784313725490215,0.4980392156862763,6.4745098039215705,14.193695144724558,244.81660604115285,34.795691143983824,2718.5002936867368,76.20834415187893,1944.784664967027,1
-0.919158814693444,39.57674418604651,-63.891170431211506,125.15711783837878,-126.8426358772177,79.84336771408009,16.816409423233154,4.0,-6.20888888888889,37.352941176470594,-30.380392156862744,-10.079365079365077,-4.482352941176469,-2.490196078431371,-4.482352941176469,12.434561157796452,183.39884379529593,34.795691143983824,2718.5002936867368,76.20834415187893,1944.784664967027,1
-0.919158814693444,39.57674418604651,-63.891170431211506,125.15711783837878,-126.8426358772177,79.84336771408009,16.816409423233154,0.0,-26.52888888888889,-48.30980392156863,-24.40392156862745,-19.15079365079365,-1.4941176470588218,2.4901960784313744,-0.49803921568627274,15.359470121381886,303.04261626258346,34.795691143983824,2718.5002936867368,76.20834415187893,1944.784664967027,1
-1.0232145295643984,39.47829457364341,-63.69558521560575,125.41130848136106,-126.85694170656154,79.66059006956102,16.713241267262447,0.0,-26.52888888888889,-48.30980392156863,-24.40392156862745,-19.15079365079365,-1.4941176470588218,2.4901960784313744,-0.49803921568627274,15.359470121381886,303.04261626258346,34.73236477293785,2702.1746263020395,76.19506275687007,1963.2984239194273,1
-1.0232145295643984,39.47829457364341,-63.69558521560575,125.41130848136106,-126.85694170656154,79.66059006956102,16.713241267262447,-4.0,-16.36888888888889,5.4784313725490215,20.419607843137257,-38.3015873015873,-6.474509803921567,-4.482352941176469,-38.34901960784313,16.734299719887957,212.89849730027078,34.73236477293785,2702.1746263020395,76.19506275687007,1963.2984239194273,1
-1.0232145295643984,39.47829457364341,-63.69558521560575,125.41130848136106,-126.85694170656154,79.66059006956102,16.713241267262447,-7.0,-18.62666666666667,-0.49803921568627274,-10.458823529411763,-9.07142857142857,-2.490196078431371,5.4784313725490215,57.274509803921575,13.862261904761905,338.16626846856394,34.73236477293785,2702.1746263020395,76.19506275687007,1963.2984239194273,1
0.0520278574354649,39.552131782945736,-63.63039014373717,125.9832374280711,-126.92847085328077,79.29503478052288,16.610073111291683,-7.0,-18.62666666666667,-0.49803921568627274,-10.458823529411763,-9.07142857142857,-2.490196078431371,5.4784313725490215,57.274509803921575,13.862261904761905,338.16626846856394,34.41151659470612,2710.390233958765,76.38858645158467,1989.6626855318857,1
0.0520278574354649,39.552131782945736,-63.63039014373717,125.9832374280711,-126.92847085328077,79.29503478052288,16.610073111291683,1.0,-11.853333333333335,-18.427450980392155,6.4745098039215705,8.063492063492065,-1.4941176470588218,-4.482352941176469,-4.482352941176469,7.0347012138188605,33.50440516930084,34.41151659470612,2710.390233958765,76.38858645158467,1989.6626855318857,1
0.0520278574354649,39.552131782945736,-63.63039014373717,125.9832374280711,-126.92847085328077,79.29503478052288,16.610073111291683,-1.0,-11.853333333333335,24.403921568627453,12.450980392156865,35.27777777777778,2.4901960784313744,-4.482352941176469,-16.435294117647057,13.549232026143791,137.7656236926579,34.41151659470612,2710.390233958765,76.38858645158467,1989.6626855318857,1
-0.08671309572580777,39.60135658914729,-63.63039014373717,126.36452339254447,-126.98569417065616,78.80762772847203,16.558489033306273,-1.0,-11.853333333333335,24.403921568627453,12.450980392156865,35.27777777777778,2.4901960784313744,-4.482352941176469,-16.435294117647057,13.549232026143791,137.7656236926579,34.43948660953675,2711.622550269285,76.53209004180964,2006.802173633473,1
-0.08671309572580777,39.60135658914729,-63.63039014373717,126.36452339254447,-126.98569417065616,78.80762772847203,16.558489033306273,0.0,-16.36888888888889,-7.470588235294116,14.443137254901963,1.7763568394002505e-15,3.4862745098039234,0.4980392156862763,7.4705882352941195,6.217189542483661,41.61981442058305,34.43948660953675,2711.622550269285,76.53209004180964,2006.802173633473,1
-0.08671309572580777,39.60135658914729,-63.63039014373717,126.36452339254447,-126.98569417065616,78.80762772847203,16.558489033306273,0.0,-22.013333333333335,-27.392156862745097,-0.49803921568627274,-18.14285714285714,-5.478431372549018,6.4745098039215705,9.462745098039218,11.182759103641457,103.62451904840366,34.43948660953675,2711.622550269285,76.53209004180964,2006.802173633473,1
-1.335381674177262,39.65058139534884,-63.30441478439426,126.55516637478115,-126.97138834131232,78.5639242024466,16.403736799350156,0.0,-22.013333333333335,-27.392156862745097,-0.49803921568627274,-18.14285714285714,-5.478431372549018,6.4745098039215705,9.462745098039218,11.182759103641457,103.62451904840366,34.76345928464012,2686.6235786204406,76.50338751817475,2018.7613835321538,1
-1.335381674177262,39.65058139534884,-63.30441478439426,126.55516637478115,-126.97138834131232,78.5639242024466,16.403736799350156,2.0,-12.982222222222223,4.482352941176472,8.466666666666669,-39.30952380952381,8.466666666666669,-2.490196078431371,-6.474509803921567,10.584017273576098,147.59801618115657,34.76345928464012,2686.6235786204406,76.50338751817475,2018.7613835321538,1
-1.335381674177262,39.65058139534884,-63.30441478439426,126.55516637478115,-126.97138834131232,78.5639242024466,16.403736799350156,5.0,-2.822222222222223,-39.345098039215685,27.3921568627451,-16.126984126984127,6.4745098039215705,-3.48627450980392,-18.427450980392155,14.884337068160598,173.24399567670207,34.76345928464012,2686.6235786204406,76.50338751817475,2018.7613835321538,1
-1.0232145295643984,39.42906976744186,-63.5325975359343,126.74580935701783,-126.97138834131232,78.32022067642119,16.352152721364803,5.0,-2.822222222222223,-39.345098039215685,27.3921568627451,-16.126984126984127,6.4745098039215705,-3.48627450980392,-18.427450980392155,14.884337068160598,173.24399567670207,34.66162727764685,2690.8192004289976,76.569158886798,2033.5172020295809,1
-1.0232145295643984,39.42906976744186,-63.5325975359343,126.74580935701783,-126.97138834131232,78.32022067642119,16.352152721364803,-3.0,-22.013333333333335,-17.431372549019606,-7.470588235294116,2.0158730158730176,5.4784313725490215,5.4784313725490215,10.458823529411767,9.168356676003736,50.60804615772235,34.66162727764685,2690.8192004289976,76.569158886798,2033.5172020295809,1
-1.0232145295643984,39.42906976744186,-63.5325975359343,126.74580935701783,-126.97138834131232,78.32022067642119,16.352152721364803,-1.0,-23.142222222222223,18.42745098039216,20.419607843137257,10.07936507936508,1.4941176470588253,-1.4941176470588218,-8.466666666666665,10.56544351073763,82.54397582719365,34.66162727764685,2690.8192004289976,76.569158886798,2033.5172020295809,1
-1.0578997678547166,39.25678294573643,-63.27181724845997,127.0,-127.0,78.19836891340847,16.24898456539404,-1.0,-23.142222222222223,18.42745098039216,20.419607843137257,10.07936507936508,1.4941176470588253,-1.4941176470588218,-8.466666666666665,10.56544351073763,82.54397582719365,34.5288333206837,2667.993171393742,76.50953339806547,2056.1458814010466,1
-1.0578997678547166,39.25678294573643,-63.27181724845997,127.0,-127.0,78.19836891340847,16.24898456539404,2.0,-7.337777777777779,94.12941176470588,39.345098039215685,24.19047619047619,-2.490196078431371,-8.466666666666665,6.4745098039215705,23.05426704014939,988.4594268584991,34.5288333206837,2667.993171393742,76.50953339806547,2056.1458814010466,1
-1.0578997678547166,39.25678294573643,-63.27181724845997,127.0,-127.0,78.19836891340847,16.24898456539404,-1.0,-10.724444444444446,57.274509803921575,1.4941176470588253,-37.29365079365079,11.454901960784316,12.450980392156865,21.415686274509806,19.138536414565827,372.00523721649887,34.5288333206837,2667.993171393742,76.50953339806547,2056.1458814010466,1
-1.8209750102417166,39.18294573643411,-63.63039014373717,127.0,-127.0,78.19836891340847,16.300568643379393,-1.0,-10.724444444444446,57.274509803921575,1.4941176470588253,-37.29365079365079,11.454901960784316,12.450980392156865,21.415686274509806,19.138536414565827,372.00523721649887,34.878103630137666,2678.717891758894,76.60444529339043,2054.2033351522023,1
-1.8209750102417166,39.18294573643411,-63.63039014373717,127.0,-127.0,78.19836891340847,16.300568643379393,2.0,-8.466666666666669,2.4901960784313744,-20.419607843137253,-6.047619047619046,-0.49803921568627274,0.4980392156862763,-3.48627450980392,5.488305322128851,43.871119310469275,34.878103630137666,2678.717891758894,76.60444529339043,2054.2033351522023,1
-1.8209750102417166,39.18294573643411,-63.63039014373717,127.0,-127.0,78.19836891340847,16.300568643379393,-4.0,-15.24,-2.490196078431371,-15.439215686274508,-27.21428571428571,-12.450980392156861,-6.474509803921567,-17.431372549019606,12.592570028011204,66.52311200597886,34.878103630137666,2678.717891758894,76.60444529339043,2054.2033351522023,1
-2.479994537757762,39.23217054263566,-63.76078028747434,126.93645233925452,-126.97138834131232,78.25929479491482,16.24898456539404,-4.0,-15.24,-2.490196078431371,-15.439215686274508,-27.21428571428571,-12.450980392156861,-6.474509803921567,-17.431372549019606,12.592570028011204,66.52311200597886,35.15764845595592,2683.797889748352,76.64313438978817,2047.4765467782338,1
-2.479994537757762,39.23217054263566,-63.76078028747434,126.93645233925452,-126.97138834131232,78.25929479491482,16.24898456539404,-8.0,-35.56,-81.18039215686275,-22.41176470588235,1.7763568394002505e-15,-2.490196078431371,-4.482352941176469,-18.427450980392155,21.56901960784314,723.591361036964,35.15764845595592,2683.797889748352,76.64313438978817,2047.4765467782338,1
-2.479994537757762,39.23217054263566,-63.76078028747434,126.93645233925452,-126.97138834131232,78.25929479491482,16.24898456539404,6.0,-24.27111111111111,-41.33725490196078,-28.388235294117646,-10.079365079365077,2.4901960784313744,3.4862745098039234,47.31372549019608,20.42077030812325,308.8888439037488,35.15764845595592,2683.797889748352,76.64313438978817,2047.4765467782338,1
-2.3759388228868072,38.73992248062015,-63.72818275154005,126.80935701776332,-126.95708251196848,78.50299832094025,16.19740048740863,6.0,-24.27111111111111,-41.33725490196078,-28.388235294117646,-10.079365079365077,2.4901960784313744,3.4862745098039234,47.31372549019608,20.42077030812325,308.8888439037488,34.94801468501567,2659.0540792798743,76.4258207499745,2059.9788329775015,1
-2.3759388228868072,38.73992248062015,-63.72818275154005,126.80935701776332,-126.95708251196848,78.50299832094025,16.19740048740863,-1.0,-22.013333333333335,-2.490196078431371,1.4941176470588253,25.1984126984127,-0.49803921568627274,6.4745098039215705,11.454901960784316,8.82793884220355,96.98605379934111,34.94801468501567,2659.0540792798743,76.4258207499745,2059.9788329775015,1
-2.3759388228868072,38.73992248062015,-63.72818275154005,126.80935701776332,-126.95708251196848,78.50299832094025,16.19740048740863,-2.0,-38.946666666666665,11.454901960784316,-16.435294117647057,-7.055555555555554,-1.4941176470588218,-2.490196078431371,-12.450980392156861,11.540964052287581,152.83813529076116,34.94801468501567,2659.0540792798743,76.4258207499745,2059.9788329775015,1
-1.7516045336610802,38.96143410852713,-63.72818275154005,126.80935701776332,-126.95708251196848,78.50299832094025,16.19740048740863,-2.0,-38.946666666666665,11.454901960784316,-16.435294117647057,-7.055555555555554,-1.4941176470588218,-2.490196078431371,-12.450980392156861,11.540964052287581,152.83813529076116,34.813740464576085,2673.967528990762,76.49965795927683,2051.6473241031526,1
-1.7516045336610802,38.96143410852713,-63.72818275154005,126.80935701776332,-126.95708251196848,78.50299832094025,16.19740048740863,4.0,-0.5644444444444456,44.325490196078434,32.372549019607845,51.404761904761905,2.4901960784313744,-3.48627450980392,-21.415686274509802,20.007425303454717,420.87277457915627,34.813740464576085,2673.967528990762,76.49965795927683,2051.6473241031526,1
-1.7516045336610802,38.96143410852713,-63.72818275154005,126.80935701776332,-126.95708251196848,78.50299832094025,16.19740048740863,0.0,-18.62666666666667,-10.458823529411763,6.4745098039215705,-14.111111111111109,5.4784313725490215,-2.490196078431371,-9.462745098039214,8.38781045751634,37.185336022164854,34.813740464576085,2673.967528990762,76.49965795927683,2051.6473241031526,1
-2.8615321589512615,38.73992248062015,-63.402207392197134,126.61871403552664,-126.94277668262461,78.80762772847203,16.19740048740863,0.0,-18.62666666666667,-10.458823529411763,6.4745098039215705,-14.111111111111109,5.4784313725490215,-2.490196078431371,-9.462745098039214,8.38781045751634,37.185336022164854,35.001220677256185,2638.144846796857,76.25361463611465,2054.539502399437,1
-2.8615321589512615,38.73992248062015,-63.402207392197134,126.61871403552664,-126.94277668262461,78.80762772847203,16.19740048740863,-4.0,-25.4,-27.392156862745097,-12.450980392156861,-36.285714285714285,-14.44313725490196,-12.450980392156861,-35.36078431372549,20.97296918767507,139.75184756255445,35.001220677256185,2638.144846796857,76.25361463611465,2054.539502399437,1
-2.8615321589512615,38.73992248062015,-63.402207392197134,126.61871403552664,-126.94277668262461,78.80762772847203,16.19740048740863,2.0,-6.20888888888889,1.4941176470588253,8.466666666666669,56.44444444444444,3.4862745098039234,1.4941176470588253,-7.470588235294116,10.88313725490196,346.44245941060524,35.001220677256185,2638.144846796857,76.25361463611465,2054.539502399437,1
-2.479994537757762,38.76453488372093,-63.63039014373717,126.49161871403555,-126.94277668262461,78.92947949148474,16.300568643379393,2.0,-6.20888888888889,1.4941176470588253,8.466666666666669,56.44444444444444,3.4862745098039234,1.4941176470588253,-7.470588235294116,10.88313725490196,346.44245941060524,34.95830652173862,2654.200460224295,76.29551458049788,2044.3143420917374,1
-2.479994537757762,38.76453488372093,-63.63039014373717,126.49161871403555,-126.94277668262461,78.92947949148474,16.300568643379393,-2.0,-11.853333333333335,24.403921568627453,-0.49803921568627274,-48.38095238095238,-0.49803921568627274,0.4980392156862763,1.4941176470588253,11.203305322128852,297.09050970348926,34.95830652173862,2654.200460224295,76.29551458049788,2044.3143420917374,1
-2.479994537757762,38.76453488372093,-63.63039014373717,126.49161871403555,-126.94277668262461,78.92947949148474,16.300568643379393,1.0,-7.337777777777779,43.32941176470588,20.419607843137257,-8.063492063492061,0.4980392156862763,-4.482352941176469,9.462745098039218,11.824178338001868,200.8078177294447,34.95830652173862,2654.200460224295,76.29551458049788,2044.3143420917374,1
-4.110200737402716,38.986046511627904,-63.66298767967147,126.0467850888167,-126.8426358772177,79.4168865435356,16.19740048740863,1.0,-7.337777777777779,43.32941176470588,20.419607843137257,-8.063492063492061,0.4980392156862763,-4.482352941176469,9.462745098039218,11.824178338001868,200.8078177294447,35.58641164290069,2656.774196657897,76.23193976003868,2013.3769677003281,1
-4.110200737402716,38.986046511627904,-63.66298767967147,126.0467850888167,-126.8426358772177,79.4168865435356,16.19740048740863,-1.0,-25.4,-31.376470588235293,-17.431372549019606,9.071428571428573,5.4784313725490215,2.4901960784313744,15.439215686274512,13.460889355742298,120.25797166905977,35.58641164290069,2656.774196657897,76.23193976003868,2013.3769677003281,1
-4.110200737402716,38.986046511627904,-63.66298767967147,126.0467850888167,-126.8426358772177,79.4168865435356,16.19740048740863,-6.0,-22.013333333333335,-18.427450980392155,-9.462745098039214,-2.015873015873014,-11.454901960784312,-13.44705882352941,-19.423529411764704,12.780611577964518,48.04635559653055,35.58641164290069,2656.774196657897,76.23193976003868,2013.3769677003281,1
-3.7633483544995343,39.25678294573643,-63.79337782340863,125.60195146359774,-126.71388341312309,79.78244183257374,15.991064175467159,-6.0,-22.013333333333335,-18.427450980392155,-9.462745098039214,-2.015873015873014,-11.454901960784312,-13.44705882352941,-19.423529411764704,12.780611577964518,48.04635559653055,35.60450304121486,2678.9452949457136,76.2173707442476,1979.6387316672594,1
-3.7633483544995343,39.25678294573643,-63.79337782340863,125.60195146359774,-126.71388341312309,79.78244183257374,15.991064175467159,-5.0,-17.497777777777777,35.36078431372549,19.423529411764708,2.0158730158730176,-8.466666666666665,3.4862745098039234,10.458823529411767,12.713716153127917,123.28734998731515,35.60450304121486,2678.9452949457136,76.2173707442476,1979.6387316672594,1
-3.7633483544995343,39.25678294573643,-63.79337782340863,125.60195146359774,-126.71388341312309,79.78244183257374,15.991064175467159,0.0,-12.982222222222223,49.30588235294118,-11.454901960784312,-6.047619047619046,-2.490196078431371,0.4980392156862763,-31.376470588235293,14.269416433239963,304.1998095553691,35.60450304121486,2678.9452949457136,76.2173707442476,1979.6387316672594,1
-3.4858664481769885,39.084496124031006,-63.5325975359343,125.41130848136106,-126.67096592509154,80.14799712161188,15.887896019496395,0.0,-12.982222222222223,49.30588235294118,-11.454901960784312,-6.047619047619046,-2.490196078431371,0.4980392156862763,-31.376470588235293,14.269416433239963,304.1998095553691,35.36765336938077,2658.01893251213,76.00946738044212,1979.8338437820096,1
-3.4858664481769885,39.084496124031006,-63.5325975359343,125.41130848136106,-126.67096592509154,80.14799712161188,15.887896019496395,8.0,-0.5644444444444456,55.28235294117647,-24.40392156862745,-12.095238095238093,-0.49803921568627274,2.4901960784313744,-4.482352941176469,13.477068160597572,347.97042779534473,35.36765336938077,2658.01893251213,76.00946738044212,1979.8338437820096,1
-3.4858664481769885,39.084496124031006,-63.5325975359343,125.41130848136106,-126.67096592509154,80.14799712161188,15.887896019496395,-2.0,-16.36888888888889,9.462745098039218,0.4980392156862763,1.0079365079365097,-1.4941176470588218,-2.490196078431371,-1.4941176470588218,4.352005135387488,31.699187045667944,35.36765336938077,2658.01893251213,76.00946738044212,1979.8338437820096,1
-2.5840502526287166,38.8875968992248,-63.467402464065714,125.34776082061546,-126.6566600957477,80.45262652914366,15.836311941510985,-2.0,-16.36888888888889,9.462745098039218,0.4980392156862763,1.0079365079365097,-1.4941176470588218,-2.490196078431371,-1.4941176470588218,4.352005135387488,31.699187045667944,34.97968320530641,2650.537664774822,75.90092006130199,1984.7842562090239,1
-2.5840502526287166,38.8875968992248,-63.467402464065714,125.34776082061546,-126.6566600957477,80.45262652914366,15.836311941510985,-10.0,-42.33333333333333,-92.13725490196079,-11.454901960784312,14.111111111111112,8.466666666666669,-8.466666666666665,-32.372549019607845,27.417810457516342,841.3118949061106,34.97968320530641,2650.537664774822,75.90092006130199,1984.7842562090239,1
-2.5840502526287166,38.8875968992248,-63.467402464065714,125.34776082061546,-126.6566600957477,80.45262652914366,15.836311941510985,5.0,-0.5644444444444456,4.482352941176472,13.447058823529414,22.174603174603178,-3.48627450980392,6.4745098039215705,22.411764705882355,9.75512605042017,73.28674466980692,34.97968320530641,2650.537664774822,75.90092006130199,1984.7842562090239,1
-2.4106240611771255,38.73992248062015,-63.33701232032855,125.34776082061546,-126.6566600957477,80.87910769968815,15.733143785540221,5.0,-0.5644444444444456,4.482352941176472,13.447058823529414,22.174603174603178,-3.48627450980392,6.4745098039215705,22.411764705882355,9.75512605042017,73.28674466980692,34.82918628737527,2637.51548089177,75.80823187385472,1991.8779033458807,1
-2.4106240611771255,38.73992248062015,-63.33701232032855,125.34776082061546,-126.6566600957477,80.87910769968815,15.733143785540221,-2.0,-19.755555555555556,-27.392156862745097,-7.470588235294116,8.063492063492065,5.4784313725490215,2.4901960784313744,17.43137254901961,11.260224089635855,84.45252701516335,34.82918628737527,2637.51548089177,75.80823187385472,1991.8779033458807,1
-2.4106240611771255,38.73992248062015,-63.33701232032855,125.34776082061546,-126.6566600957477,80.87910769968815,15.733143785540221,5.0,-11.853333333333335,-6.474509803921567,6.4745098039215705,-6.047619047619046,-5.478431372549018,-5.478431372549018,-39.345098039215685,10.768991596638655,138.02964027336424,34.82918628737527,2637.51548089177,75.80823187385472,1991.8779033458807,1
-2.8615321589512615,38.567635658914725,-62.97843942505134,125.34776082061546,-126.6566600957477,81.366514751739,15.681559707554868,5.0,-11.853333333333335,-6.474509803921567,6.4745098039215705,-6.047619047619046,-5.478431372549018,-5.478431372549018,-39.345098039215685,10.768991596638655,138.02964027336424,34.802535747639105,2607.0039750467085,75.63127863486051,2002.7682858220746,1
-2.8615321589512615,38.567635658914725,-62.97843942505134,125.34776082061546,-126.6566600957477,81.366514751739,15.681559707554868,1.0,-17.497777777777777,-4.482352941176469,-21.415686274509802,4.031746031746033,6.4745098039215705,1.4941176470588253,5.4784313725490215,7.734327731092438,56.82236873642701,34.802535747639105,2607.0039750467085,75.63127863486051,2002.7682858220746,1
-2.8615321589512615,38.567635658914725,-62.97843942505134,125.34776082061546,-126.6566600957477,81.366514751739,15.681559707554868,-3.0,-33.30222222222223,26.39607843137255,3.4862745098039234,18.142857142857146,7.4705882352941195,3.4862745098039234,11.454901960784316,13.342399626517276,133.01855598256734,34.802535747639105,2607.0039750467085,75.63127863486051,2002.7682858220746,1
-3.2083845418544437,38.666085271317826,-62.685061601642715,125.28421315986998,-126.62804843705999,81.97577356680257,15.526807473598751,-3.0,-33.30222222222223,26.39607843137255,3.4862745098039234,18.142857142857146,7.4705882352941195,3.4862745098039234,11.454901960784316,13.342399626517276,133.01855598256734,34.85317713827166,2593.8335514455066,75.5451200109435,1999.710846447365,1
-3.2083845418544437,38.666085271317826,-62.685061601642715,125.28421315986998,-126.62804843705999,81.97577356680257,15.526807473598751,-4.0,-17.497777777777777,15.439215686274512,2.4901960784313744,-12.095238095238093,2.4901960784313744,3.4862745098039234,13.447058823529414,8.868244631185808,40.435706288441295,34.85317713827166,2593.8335514455066,75.5451200109435,1999.710846447365,1
-3.2083845418544437,38.666085271317826,-62.685061601642715,125.28421315986998,-126.62804843705999,81.97577356680257,15.526807473598751,-3.0,-31.044444444444444,16.43529411764706,69.22745098039216,-18.14285714285714,12.450980392156865,-0.49803921568627274,-2.490196078431371,19.161157796451914,512.6794208053592,34.85317713827166,2593.8335514455066,75.5451200109435,1999.710846447365,1
-5.462925030725124,38.37073643410852,-62.71765913757701,124.77583187390542,-126.51360180230921,83.25521707843605,15.26888708367187,-3.0,-31.044444444444444,16.43529411764706,69.22745098039216,-18.14285714285714,12.450980392156865,-0.49803921568627274,-2.490196078431371,19.161157796451914,512.6794208053592,35.51710686747022,2569.7263623862536,75.28807581519699,1984.9716610768423,1
-5.462925030725124,38.37073643410852,-62.71765913757701,124.77583187390542,-126.51360180230921,83.25521707843605,15.26888708367187,-1.0,-20.884444444444444,-1.4941176470588218,21.415686274509806,19.150793650793652,-7.470588235294116,-2.490196078431371,-5.478431372549018,9.923032212885154,81.295478910039,35.51710686747022,2569.7263623862536,75.28807581519699,1984.9716610768423,1
-5.462925030725124,38.37073643410852,-62.71765913757701,124.77583187390542,-126.51360180230921,83.25521707843605,15.26888708367187,-5.0,-20.884444444444444,-41.33725490196078,-33.36862745098039,13.103174603174605,-0.49803921568627274,0.4980392156862763,-0.49803921568627274,14.39845238095238,256.7582609535753,35.51710686747022,2569.7263623862536,75.28807581519699,1984.9716610768423,1
-7.786835996176442,38.198449612403095,-63.04363449691993,123.75906930197652,-126.35623767952691,84.77836411609496,15.165718927701107,-5.0,-20.884444444444444,-41.33725490196078,-33.36862745098039,13.103174603174605,-0.49803921568627274,0.4980392156862763,-0.49803921568627274,14.39845238095238,256.7582609535753,36.34297336849982,2569.65331130894,75.00038447043319,1937.377812862787,1
-7.786835996176442,38.198449612403095,-63.04363449691993,123.75906930197652,-126.35623767952691,84.77836411609496,15.165718927701107,1.0,-5.080000000000002,32.372549019607845,17.43137254901961,16.126984126984127,-3.48627450980392,9.462745098039218,23.407843137254904,13.545971055088703,117.19983092653185,36.34297336849982,2569.65331130894,75.00038447043319,1937.377812862787,1
-7.786835996176442,38.198449612403095,-63.04363449691993,123.75906930197652,-126.35623767952691,84.77836411609496,15.165718927701107,0.0,-16.36888888888889,-7.470588235294116,-10.458823529411763,8.063492063492065,10.458823529411767,1.4941176470588253,14.443137254901963,8.594733893557423,32.489298747647204,36.34297336849982,2569.65331130894,75.00038447043319,1937.377812862787,1
-14.411716509627214,38.32151162790697,-63.85857289527721,121.15361521140858,-125.85553365249226,87.21539937634923,14.95938261575958,0.0,-16.36888888888889,-7.470588235294116,-10.458823529411763,8.063492063492065,10.458823529411767,1.4941176470588253,14.443137254901963,8.594733893557423,32.489298747647204,38.8639336776038,2611.0924382322314,74.44456657819758,1799.3367927081076,1
-14.411716509627214,38.32151162790697,-63.85857289527721,121.15361521140858,-125.85553365249226,87.21539937634923,14.95938261575958,10.0,-12.982222222222223,-12.450980392156861,-30.380392156862744,-4.03174603174603,-5.478431372549018,8.466666666666669,24.403921568627453,13.524295051353874,85.25497140137102,38.8639336776038,2611.0924382322314,74.44456657819758,1799.3367927081076,1
-14.411716509627214,38.32151162790697,-63.85857289527721,121.15361521140858,-125.85553365249226,87.21539937634923,14.95938261575958,-5.0,-10.724444444444446,-13.44705882352941,2.4901960784313744,-43.341269841269835,-17.431372549019606,-5.478431372549018,-16.435294117647057,14.293508403361344,167.86480568179337,38.8639336776038,2611.0924382322314,74.44456657819758,1799.3367927081076,1
-20.55100368701353,38.37073643410852,-63.565195071868594,117.21366024518397,-125.06871303858068,90.87095226673061,14.340373679935055,-5.0,-10.724444444444446,-13.44705882352941,2.4901960784313744,-43.341269841269835,-17.431372549019606,-5.478431372549018,-16.435294117647057,14.293508403361344,167.86480568179337,40.82897839766355,2618.8210418975405,73.0498639170537,1621.5208660968808,1
-20.55100368701353,38.37073643410852,-63.565195071868594,117.21366024518397,-125.06871303858068,90.87095226673061,14.340373679935055,-2.0,-18.62666666666667,-20.419607843137253,25.400000000000002,-12.095238095238093,-0.49803921568627274,-6.474509803921567,-27.392156862745097,14.113277310924369,108.34124091048184,40.82897839766355,2618.8210418975405,73.0498639170537,1621.5208660968808,1
-20.55100368701353,38.37073643410852,-63.565195071868594,117.21366024518397,-125.06871303858068,90.87095226673061,14.340373679935055,-3.0,-6.20888888888889,-41.33725490196078,-14.44313725490196,39.30952380952381,10.458823529411767,4.482352941176472,-17.431372549019606,17.083919234360412,229.8015250231247,40.82897839766355,2618.8210418975405,73.0498639170537,1621.5208660968808,1
-25.719104192270937,38.73992248062015,-63.239219712525674,112.25694270703036,-123.98147000844833,95.5013192612137,13.41186027619824,-3.0,-6.20888888888889,-41.33725490196078,-14.44313725490196,39.30952380952381,10.458823529411767,4.482352941176472,-17.431372549019606,17.083919234360412,229.8015250231247,42.56608212847225,2660.4117717866,71.41202830005874,1401.2841658989423,1
-25.719104192270937,38.73992248062015,-63.239219712525674,112.25694270703036,-123.98147000844833,95.5013192612137,13.41186027619824,-2.0,-9.595555555555556,16.43529411764706,22.411764705882355,-15.119047619047617,-4.482352941176469,-1.4941176470588218,-9.462745098039214,10.125109710550888,55.541574901376684,42.56608212847225,2660.4117717866,71.41202830005874,1401.2841658989423,1
-25.719104192270937,38.73992248062015,-63.239219712525674,112.25694270703036,-123.98147000844833,95.5013192612137,13.41186027619824,-4.0,-3.9511111111111124,-13.44705882352941,29.3843137254902,6.047619047619049,1.4941176470588253,-3.48627450980392,21.415686274509806,10.40327264239029,102.8056745732716,42.56608212847225,2660.4117717866,71.41202830005874,1401.2841658989423,1
-27.279939915335255,39.01065891472868,-61.90272073921972,107.23667750813115,-122.73686285553367,100.92372271527942,11.91592201462231,-4.0,-3.9511111111111124,-13.44705882352941,29.3843137254902,6.047619047619049,1.4941176470588253,-3.48627450980392,21.415686274509806,10.40327264239029,102.8056745732716,42.73110652309455,2629.448439734857,69.38335238735985,1205.6672906681918,1
-27.279939915335255,39.01065891472868,-61.90272073921972,107.23667750813115,-122.73686285553367,100.92372271527942,11.91592201462231,1.0,-20.884444444444444,-56.27843137254902,11.454901960784316,-2.015873015873014,0.4980392156862763,5.4784313725490215,27.3921568627451,15.625284780578898,366.72795651698596,42.73110652309455,2629.448439734857,69.38335238735985,1205.6672906681918,1
-27.279939915335255,39.01065891472868,-61.90272073921972,107.23667750813115,-122.73686285553367,100.92372271527942,11.91592201462231,-8.0,-29.915555555555557,-34.364705882352936,-0.49803921568627274,-8.063492063492061,-0.49803921568627274,-0.49803921568627274,-37.35294117647059,14.898851540616246,260.72478638793206,42.73110652309455,2629.448439734857,69.38335238735985,1205.6672906681918,1
-25.684418953980618,38.96143410852713,-60.957392197125266,102.72479359519639,-121.56378484933822,106.16334852482608,10.471567831031734,-8.0,-29.915555555555557,-34.364705882352936,-0.49803921568627274,-8.063492063492061,-0.49803921568627274,-0.49803921568627274,-37.35294117647059,14.898851540616246,260.72478638793206,41.86774841987767,2567.840134981679,67.54787330028293,1049.0173341348623,1
-25.684418953980618,38.96143410852713,-60.957392197125266,102.72479359519639,-121.56378484933822,106.16334852482608,10.471567831031734,-17.0,-23.142222222222223,10.458823529411767,12.450980392156865,-42.33333333333333,-7.470588235294116,-2.490196078431371,-8.466666666666665,15.476601307189542,156.94016688575212,41.86774841987767,2567.840134981679,67.54787330028293,1049.0173341348623,1
-25.684418953980618,38.96143410852713,-60.957392197125266,102.72479359519639,-121.56378484933822,106.16334852482608,10.471567831031734,-15.0,-31.044444444444444,-18.427450980392155,-16.435294117647057,-21.166666666666664,-14.44313725490196,40.34117647058824,60.26274509803922,27.140114379084967,260.20026606830106,41.86774841987767,2567.840134981679,67.54787330028293,1049.0173341348623,1
-27.453366106786845,39.20755813953488,-60.66401437371664,98.08581436077066,-120.36209518445509,111.52482609738544,9.078797725426512,-15.0,-31.044444444444444,-18.427450980392155,-16.435294117647057,-21.166666666666664,-14.44313725490196,40.34117647058824,60.26274509803922,27.140114379084967,260.20026606830106,42.44164620667946,2586.8261626588715,65.98579562467405,887.9032806756538,1
-27.453366106786845,39.20755813953488,-60.66401437371664,98.08581436077066,-120.36209518445509,111.52482609738544,9.078797725426512,-29.0,-14.111111111111112,14.443137254901963,-12.450980392156861,11.087301587301589,-4.482352941176469,-19.423529411764704,-14.44313725490196,14.930193744164331,49.90950776062059,42.44164620667946,2586.8261626588715,65.98579562467405,887.9032806756538,1
-27.453366106786845,39.20755813953488,-60.66401437371664,98.08581436077066,-120.36209518445509,111.52482609738544,9.078797725426512,-26.0,-24.27111111111111,13.447058823529414,6.4745098039215705,5.039682539682541,8.466666666666669,-5.478431372549018,19.423529411764708,13.57512371615313,73.98959730859664,42.44164620667946,2586.8261626588715,65.98579562467405,887.9032806756538,1
-26.308753243206347,39.453682170542635,-59.979466119096514,94.01876407305485,-119.27485215432273,116.7644519069321,7.6860276198213455,-26.0,-24.27111111111111,13.447058823529414,6.4745098039215705,5.039682539682541,8.466666666666669,-5.478431372549018,19.423529411764708,13.57512371615313,73.98959730859664,41.91396717761517,2557.560965984585,64.48397078756467,759.5549624881553,1
-26.308753243206347,39.453682170542635,-59.979466119096514,94.01876407305485,-119.27485215432273,116.7644519069321,7.6860276198213455,-6.0,-1.6933333333333351,47.31372549019608,-104.09019607843138,-45.357142857142854,-16.435294117647057,24.403921568627453,80.1843137254902,40.68474089635855,1317.5292341724926,41.91396717761517,2557.560965984585,64.48397078756467,759.5549624881553,1
-26.308753243206347,39.453682170542635,-59.979466119096514,94.01876407305485,-119.27485215432273,116.7644519069321,7.6860276198213455,-1.0,-15.24,20.419607843137257,32.372549019607845,-16.126984126984127,-35.36078431372549,-29.384313725490195,-60.26274509803922,26.27087301587302,311.7758266497885,41.91396717761517,2557.560965984585,64.48397078756467,759.5549624881553,1
-20.6897446401748,39.30600775193798,-59.22972279260781,91.41330998248691,-118.48803154041116,121.21204125689611,6.49959382615765,-1.0,-15.24,20.419607843137257,32.372549019607845,-16.126984126984127,-35.36078431372549,-29.384313725490195,-60.26274509803922,26.27087301587302,311.7758266497885,39.74182506157353,2465.685069172176,63.31634684234424,691.3181085293553,1
-20.6897446401748,39.30600775193798,-59.22972279260781,91.41330998248691,-118.48803154041116,121.21204125689611,6.49959382615765,11.0,-8.466666666666669,46.31764705882353,81.18039215686275,1.0079365079365097,3.4862745098039234,-10.458823529411763,-35.36078431372549,24.65981559290383,776.6221437867088,39.74182506157353,2465.685069172176,63.31634684234424,691.3181085293553,1
-20.6897446401748,39.30600775193798,-59.22972279260781,91.41330998248691,-118.48803154041116,121.21204125689611,6.49959382615765,10.0,-29.915555555555557,-47.31372549019608,-43.32941176470588,25.1984126984127,-8.466666666666665,0.4980392156862763,-40.34117647058824,25.632873482726424,312.70234186262735,39.74182506157353,2465.685069172176,63.31634684234424,691.3181085293553,1
-18.08835176840094,38.41996124031007,-60.98998973305956,88.80785589191896,-117.8299633905942,124.92852002878385,5.880584890333125,10.0,-29.915555555555557,-47.31372549019608,-43.32941176470588,25.1984126984127,-8.466666666666665,0.4980392156862763,-40.34117647058824,25.632873482726424,312.70234186262735,39.16610091392352,2486.0130552781416,62.7392689550962,637.0299652028957,1
-18.08835176840094,38.41996124031007,-60.98998973305956,88.80785589191896,-117.8299633905942,124.92852002878385,5.880584890333125,10.0,-24.27111111111111,-26.396078431372548,-3.48627450980392,-4.03174603174603,33.3686274509804,1.4941176470588253,5.4784313725490215,13.565798319327731,155.38752866131205,39.16610091392352,2486.0130552781416,62.7392689550962,637.0299652028957,1
-18.08835176840094,38.41996124031007,-60.98998973305956,88.80785589191896,-117.8299633905942,124.92852002878385,5.880584890333125,27.0,-0.5644444444444456,9.462745098039218,2.4901960784313744,-20.158730158730158,13.447058823529414,-2.490196078431371,37.352941176470594,14.12078898225957,174.0758358051718,39.16610091392352,2486.0130552781416,62.7392689550962,637.0299652028957,1
-8.341799808821534,38.6906976744186,-66.27079055441479,86.77433074806106,-117.2148127288088,126.99999999999997,5.055239642567074,27.0,-0.5644444444444456,9.462745098039218,2.4901960784313744,-20.158730158730158,13.447058823529414,-2.490196078431371,37.352941176470594,14.12078898225957,174.0758358051718,37.76776267921831,2764.1229665875912,63.91193965896482,582.1820755503946,1
-8.341799808821534,38.6906976744186,-66.27079055441479,86.77433074806106,-117.2148127288088,126.99999999999997,5.055239642567074,20.0,-32.17333333333333,-7.470588235294116,41.33725490196079,-7.055555555555554,-2.490196078431371,0.4980392156862763,11.454901960784316,15.309983660130719,215.99738207130352,37.76776267921831,2764.1229665875912,63.91193965896482,582.1820755503946,1
-8.341799808821534,38.6906976744186,-66.27079055441479,86.77433074806106,-117.2148127288088,126.99999999999997,5.055239642567074,22.0,-17.497777777777777,-21.415686274509802,-16.435294117647057,1.0079365079365097,5.4784313725490215,-3.48627450980392,-3.48627450980392,11.3509593837535,77.64369618178424,37.76776267921831,2764.1229665875912,63.91193965896482,582.1820755503946,1
15.209476990304506,40.561240310077515,-70.21509240246407,87.85464098073555,-117.22911855815263,123.34444710961859,4.590982940698666,22.0,-17.497777777777777,-21.415686274509802,-16.435294117647057,1.0079365079365097,5.4784313725490215,-3.48627450980392,-3.48627450980392,11.3509593837535,77.64369618178424,41.99526990094869,3368.577474766905,66.21032456442572,571.1950608262893,1
15.209476990304506,40.561240310077515,-70.21509240246407,87.85464098073555,-117.22911855815263,123.34444710961859,4.590982940698666,12.0,-22.013333333333335,-28.388235294117646,2.4901960784313744,31.246031746031747,10.458823529411767,6.4745098039215705,6.4745098039215705,14.943204948646127,117.68926783789766,41.99526990094869,3368.577474766905,66.21032456442572,571.1950608262893,1
15.209476990304506,40.561240310077515,-70.21509240246407,87.85464098073555,-117.22911855815263,123.34444710961859,4.590982940698666,15.0,-9.595555555555556,58.27058823529412,-1.4941176470588218,-17.134920634920633,-4.482352941176469,-1.4941176470588218,10.458823529411767,14.741309523809523,343.0907493790109,41.99526990094869,3368.577474766905,66.21032456442572,571.1950608262893,1
30.228185170012274,44.7453488372093,-73.08367556468173,90.77783337503126,-117.71551675584342,113.71815783161428,4.9004874086109,15.0,-9.595555555555556,58.27058823529412,-1.4941176470588218,-17.134920634920633,-4.482352941176469,-1.4941176470588218,10.458823529411767,14.741309523809523,343.0907493790109,49.352403190634426,4127.961266817737,69.5356192589741,539.1889358425583,1
30.228185170012274,44.7453488372093,-73.08367556468173,90.77783337503126,-117.71551675584342,113.71815783161428,4.9004874086109,-4.0,-46.84888888888889,-69.22745098039215,-4.482352941176469,12.095238095238097,-3.48627450980392,-4.482352941176469,-21.415686274509802,20.754780578898224,602.0620733236212,49.352403190634426,4127.961266817737,69.5356192589741,539.1889358425583,1
30.228185170012274,44.7453488372093,-73.08367556468173,90.77783337503126,-117.71551675584342,113.71815783161428,4.9004874086109,-1.0,-6.20888888888889,31.376470588235296,17.43137254901961,-15.119047619047617,15.439215686274512,2.4901960784313744,17.43137254901961,13.312070494864614,98.17214246225726,49.352403190634426,4127.961266817737,69.5356192589741,539.1889358425583,1
23.811416086303414,49.47093023255814,-74.81134496919918,91.73104828621467,-117.65829343846804,102.2031662269129,5.2099918765231905,-1.0,-6.20888888888889,31.376470588235296,17.43137254901961,-15.119047619047617,15.439215686274512,2.4901960784313744,17.43137254901961,13.312070494864614,98.17214246225726,49.36456376268691,4305.157265626325,72.00444116265733,452.38842621163104,1
23.811416086303414,49.47093023255814,-74.81134496919918,91.73104828621467,-117.65829343846804,102.2031662269129,5.2099918765231905,-7.0,-19.755555555555556,80.1843137254902,5.4784313725490215,-37.29365079365079,1.4941176470588253,-2.490196078431371,-19.423529411764704,21.63997432306256,704.147827428357,49.36456376268691,4305.157265626325,72.00444116265733,452.38842621163104,1
23.811416086303414,49.47093023255814,-74.81134496919918,91.73104828621467,-117.65829343846804,102.2031662269129,5.2099918765231905,-4.0,-8.466666666666669,53.29019607843138,7.4705882352941195,-40.317460317460316,-21.415686274509802,-5.478431372549018,1.4941176470588253,17.741643323996264,368.7980987602013,49.36456376268691,4305.157265626325,72.00444116265733,452.38842621163104,1
0.8151030998224646,54.1718992248062,-76.37602669404518,87.85464098073555,-116.17048718670799,93.55169105301029,3.9719740048741414,-4.0,-8.466666666666669,53.29019607843138,7.4705882352941195,-40.317460317460316,-21.415686274509802,-5.478431372549018,1.4941176470588253,17.741643323996264,368.7980987602013,43.78767633955795,4308.029862215118,72.80085563319564,293.2181591349088,1
0.8151030998224646,54.1718992248062,-76.37602669404518,87.85464098073555,-116.17048718670799,93.55169105301029,3.9719740048741414,1.0,-20.884444444444444,-35.36078431372549,6.4745098039215705,26.20634920634921,1.4941176470588253,-0.49803921568627274,-6.474509803921567,12.299094304388422,178.6421492999814,43.78767633955795,4308.029862215118,72.80085563319564,293.2181591349088,1
0.8151030998224646,54.1718992248062,-76.37602669404518,87.85464098073555,-116.17048718670799,93.55169105301029,3.9719740048741414,-1.0,-24.27111111111111,-29.384313725490195,-12.450980392156861,-17.134920634920633,0.4980392156862763,1.4941176470588253,-3.48627450980392,11.214969654528478,130.08390447460027,43.78767633955795,4308.029862215118,72.80085563319564,293.2181591349088,1
-20.55100368701353,59.8327519379845,-78.69045174537989,79.65699274455847,-113.06612221909322,88.43391700647635,0.3610885458977009,-1.0,-24.27111111111111,-29.384313725490195,-12.450980392156861,-17.134920634920633,0.4980392156862763,1.4941176470588253,-3.48627450980392,11.214969654528478,130.08390447460027,53.024735790125966,4838.403591268956,72.72673214264096,124.92459451432765,1
-20.55100368701353,59.8327519379845,-78.69045174537989,79.65699274455847,-113.06612221909322,88.43391700647635,0.3610885458977009,5.0,11.853333333333332,70.2235294117647,46.31764705882353,-11.087301587301585,-0.49803921568627274,2.4901960784313744,4.482352941176472,18.994049953314658,643.6353454480267,53.024735790125966,4838.403591268956,72.72673214264096,124.92459451432765,1
-20.55100368701353,59.8327519379845,-78.69045174537989,79.65699274455847,-113.06612221909322,88.43391700647635,0.3610885458977009,-4.0,-33.30222222222223,-61.258823529411764,-5.478431372549018,26.20634920634921,17.43137254901961,2.4901960784313744,-6.474509803921567,19.580238095238094,411.33638941397913,53.024735790125966,4838.403591268956,72.72673214264096,124.92459451432765,1
-29.361054212754347,68.52093023255814,-85.2425564681725,68.85389041781343,-108.77437341593918,81.97577356680257,-4.539398862713199,-4.0,-33.30222222222223,-61.258823529411764,-5.478431372549018,26.20634920634921,17.43137254901961,2.4901960784313744,-6.474509803921567,19.580238095238094,411.33638941397913,61.04151363782833,6057.805835940078,74.20579237284802,91.38533689312386,1
-29.361054212754347,68.52093023255814,-85.2425564681725,68.85389041781343,-108.77437341593918,81.97577356680257,-4.539398862713199,-1.0,-23.142222222222223,-73.21176470588236,-75.20392156862745,30.23809523809524,4.482352941176472,-3.48627450980392,-8.466666666666665,27.403912231559293,937.5188515988533,61.04151363782833,6057.805835940078,74.20579237284802,91.38533689312386,1
-29.361054212754347,68.52093023255814,-85.2425564681725,68.85389041781343,-108.77437341593918,81.97577356680257,-4.539398862713199,1.0,-11.853333333333335,25.400000000000002,55.28235294117647,75.5952380952381,6.4745098039215705,16.43529411764706,6.4745098039215705,24.81440476190476,712.1942940191764,61.04151363782833,6057.805835940078,74.20579237284802,91.38533689312386,1
-30.81783422094771,74.77248062015504,-88.79568788501027,57.415311483612754,-104.02483807378205,72.4104101703046,-9.181965881397218,1.0,-11.853333333333335,25.400000000000002,55.28235294117647,75.5952380952381,6.4745098039215705,16.43529411764706,6.4745098039215705,24.81440476190476,712.1942940191764,64.79533424203767,6877.5486419781355,73.66115999625934,247.1082809201684,1
-30.81783422094771,74.77248062015504,-88.79568788501027,57.415311483612754,-104.02483807378205,72.4104101703046,-9.181965881397218,-4.0,-18.62666666666667,-11.454901960784312,-69.22745098039215,-23.18253968253968,3.4862745098039234,3.4862745098039234,-2.490196078431371,16.994288048552754,506.3000416606293,64.79533424203767,6877.5486419781355,73.66115999625934,247.1082809201684,1
-30.81783422094771,74.77248062015504,-88.79568788501027,57.415311483612754,-104.02483807378205,72.4104101703046,-9.181965881397218,-1.0,-22.013333333333335,0.4980392156862763,-77.19607843137254,-37.29365079365079,-7.470588235294116,-9.462745098039214,5.4784313725490215,20.051608309990662,684.9594684776305,64.79533424203767,6877.5486419781355,73.66115999625934,247.1082809201684,1
-40.04410760617234,81.3686046511628,-91.30569815195072,47.05704278208657,-99.28960856096874,63.210602062844785,-13.82453290008118,-1.0,-22.013333333333335,0.4980392156862763,-77.19607843137254,-37.29365079365079,-7.470588235294116,-9.462745098039214,5.4784313725490215,20.051608309990662,684.9594684776305,70.9061368030953,7864.202035251139,73.24378186173335,538.9954345299759,1
-40.04410760617234,81.3686046511628,-91.30569815195072,47.05704278208657,-99.28960856096874,63.210602062844785,-13.82453290008118,11.0,8.466666666666665,65.24313725490197,60.26274509803922,11.087301587301589,-0.49803921568627274,2.4901960784313744,2.4901960784313744,20.192285247432306,707.8144620735004,70.9061368030953,7864.202035251139,73.24378186173335,538.9954345299759,1
-40.04410760617234,81.3686046511628,-91.30569815195072,47.05704278208657,-99.28960856096874,63.210602062844785,-13.82453290008118,2.0,-11.853333333333335,10.458823529411767,-81.18039215686275,1.0079365079365097,4.482352941176472,17.43137254901961,15.439215686274512,17.98167833800187,688.6782969292728,70.9061368030953,7864.202035251139,73.24378186173335,538.9954345299759,1
-65.39901679639493,85.10968992248061,-99.03131416837783,31.742056542406885,-93.05226696705155,56.630606860158295,-18.15759545085291,2.0,-11.853333333333335,10.458823529411767,-81.18039215686275,1.0079365079365097,4.482352941176472,17.43137254901961,15.439215686274512,17.98167833800187,688.6782969292728,83.18000696241779,9615.318602049254,71.96102021108844,1261.6266843480337,1
-65.39901679639493,85.10968992248061,-99.03131416837783,31.742056542406885,-93.05226696705155,56.630606860158295,-18.15759545085291,-2.0,-19.755555555555556,-13.44705882352941,-49.305882352941175,-9.07142857142857,-7.470588235294116,-33.36862745098039,-3.48627450980392,17.238176937441644,270.379622961385,83.18000696241779,9615.318602049254,71.96102021108844,1261.6266843480337,1
-65.39901679639493,85.10968992248061,-99.03131416837783,31.742056542406885,-93.05226696705155,56.630606860158295,-18.15759545085291,-3.0,-11.853333333333335,16.43529411764706,5.4784313725490215,35.27777777777778,4.482352941176472,8.466666666666669,-7.470588235294116,11.558055555555557,110.43309345703426,83.18000696241779,9615.318602049254,71.96102021108844,1261.6266843480337,1
-80.90331831216714,90.94282945736434,-103.13860369609856,14.266449837378104,-85.51309490284427,51.086351643079865,-22.903330625507692,-3.0,-11.853333333333335,16.43529411764706,5.4784313725490215,35.27777777777778,4.482352941176472,8.466666666666669,-7.470588235294116,11.558055555555557,110.43309345703426,91.66158382187668,11282.184852372437,69.44929433028034,2321.043972066416,1
-80.90331831216714,90.94282945736434,-103.13860369609856,14.266449837378104,-85.51309490284427,51.086351643079865,-22.903330625507692,0.0,-18.62666666666667,-9.462745098039214,120.02745098039216,47.37301587301587,13.447058823529414,37.352941176470594,12.450980392156865,32.34260737628385,1492.8609115353768,91.66158382187668,11282.184852372437,69.44929433028034,2321.043972066416,1
-80.90331831216714,90.94282945736434,-103.13860369609856,14.266449837378104,-85.51309490284427,51.086351643079865,-22.903330625507692,0.0,-17.497777777777777,-11.454901960784312,-64.24705882352941,-37.29365079365079,9.462745098039218,6.4745098039215705,-18.427450980392155,20.607261904761906,432.80682700274014,91.66158382187668,11282.184852372437,69.44929433028034,2321.043972066416,1
-94.5346169602622,96.60368217054264,-111.64656057494867,-5.623967975981941,-76.74362151506618,45.420244662988694,-26.61738424045484,0.0,-17.497777777777777,-11.454901960784312,-64.24705882352941,-37.29365079365079,9.462745098039218,6.4745098039215705,-18.427450980392155,20.607261904761906,432.80682700274014,100.92828656858451,13365.805268740884,71.29140357382441,3290.731121170028,1
-94.5346169602622,96.60368217054264,-111.64656057494867,-5.623967975981941,-76.74362151506618,45.420244662988694,-26.61738424045484,-8.0,-32.17333333333333,-31.376470588235293,68.23137254901961,-9.07142857142857,-6.474509803921567,-32.372549019607845,-16.435294117647057,25.516869747899158,424.65032381619324,100.92828656858451,13365.805268740884,71.29140357382441,3290.731121170028,1
-94.5346169602622,96.60368217054264,-111.64656057494867,-5.623967975981941,-76.74362151506618,45.420244662988694,-26.61738424045484,15.0,-18.62666666666667,0.4980392156862763,56.27843137254902,-15.119047619047617,1.4941176470588253,-0.49803921568627274,2.4901960784313744,13.750567226890757,352.0149867794176,100.92828656858451,13365.805268740884,71.29140357382441,3290.731121170028,1
-109.55332513996996,101.96918604651162,-114.84111909650925,-26.340505379034198,-66.72954097437342,40.5461741424802,-29.867181153533693,15.0,-18.62666666666667,0.4980392156862763,56.27843137254902,-15.119047619047617,1.4941176470588253,-0.49803921568627274,2.4901960784313744,13.750567226890757,352.0149867794176,108.78787676099694,15296.07365329531,81.05027017401835,2286.290438052771,1
-109.55332513996996,101.96918604651162,-114.84111909650925,-26.340505379034198,-66.72954097437342,40.5461741424802,-29.867181153533693,-1.0,-17.497777777777777,3.4862745098039234,-24.40392156862745,17.134920634920636,-7.470588235294116,-9.462745098039214,0.4980392156862763,10.119283380018675,76.4121910917308,108.78787676099694,15296.07365329531,81.05027017401835,2286.290438052771,1
-109.55332513996996,101.96918604651162,-114.84111909650925,-26.340505379034198,-66.72954097437342,40.5461741424802,-29.867181153533693,-16.0,-24.27111111111111,0.4980392156862763,39.345098039215685,7.055555555555557,-0.49803921568627274,-6.474509803921567,-0.49803921568627274,11.830049019607843,195.1381952017844,108.78787676099694,15296.07365329531,81.05027017401835,2286.290438052771,1
-121.97064044790386,107.77771317829458,-113.99358316221766,-45.97673254941208,-55.685440720923694,36.76876948908608,-33.22014622258325,-16.0,-24.27111111111111,0.4980392156862763,39.345098039215685,7.055555555555557,-0.49803921568627274,-6.474509803921567,-0.49803921568627274,11.830049019607843,195.1381952017844,114.5806455961387,17005.07455290652,89.2493429633081,1414.0483689388761,1
-121.97064044790386,107.77771317829458,-113.99358316221766,-45.97673254941208,-55.685440720923694,36.76876948908608,-33.22014622258325,2.0,-19.755555555555556,-5.478431372549018,-32.372549019607845,-17.134920634920633,-2.490196078431371,14.443137254901963,5.4784313725490215,12.394152661064425,111.68299427069304,114.5806455961387,17005.07455290652,89.2493429633081,1414.0483689388761,1
-121.97064044790386,107.77771317829458,-113.99358316221766,-45.97673254941208,-55.685440720923694,36.76876948908608,-33.22014622258325,-7.0,-28.78666666666667,-46.317647058823525,-29.384313725490195,-16.126984126984127,-8.466666666666665,-2.490196078431371,-5.478431372549018,18.006363211951445,237.22570275500178,114.5806455961387,17005.07455290652,89.2493429633081,1414.0483689388761,1
-127.0,114.3984496124031,-115.91683778234086,-63.706529897423025,-43.926049000281616,32.32118013912208,-35.747766043866704,-7.0,-28.78666666666667,-46.317647058823525,-29.384313725490195,-16.126984126984127,-8.466666666666665,-2.490196078431371,-5.478431372549018,18.006363211951445,237.22570275500178,119.10509579824799,18573.529927956395,98.00727243072232,882.9820794104177,1
-127.0,114.3984496124031,-115.91683778234086,-63.706529897423025,-43.926049000281616,32.32118013912208,-35.747766043866704,-8.0,-16.36888888888889,-23.4078431372549,-16.435294117647057,1.7763568394002505e-15,3.4862745098039234,12.450980392156865,17.43137254901961,12.197581699346406,61.538901951020044,119.10509579824799,18573.529927956395,98.00727243072232,882.9820794104177,1
-127.0,114.3984496124031,-115.91683778234086,-63.706529897423025,-43.926049000281616,32.32118013912208,-35.747766043866704,4.0,-16.36888888888889,10.458823529411767,53.29019607843138,18.142857142857146,1.4941176470588253,-9.462745098039214,2.4901960784313744,14.463478057889825,283.8250292934604,119.10509579824799,18573.529927956395,98.00727243072232,882.9820794104177,1
-124.29455141335518,118.21337209302325,-119.2743839835729,-79.33925444083059,-31.980681498169538,26.411369633005506,-36.366774979691286,4.0,-16.36888888888889,10.458823529411767,53.29019607843138,18.142857142857146,1.4941176470588253,-9.462745098039214,2.4901960784313744,14.463478057889825,283.8250292934604,120.59410249665045,19205.95488844923,105.60900350580891,517.8562235106692,1
-124.29455141335518,118.21337209302325,-119.2743839835729,-79.33925444083059,-31.980681498169538,26.411369633005506,-36.366774979691286,-8.0,-23.142222222222223,-12.450980392156861,-19.423529411764704,21.166666666666668,-14.44313725490196,-22.41176470588235,-70.2235294117647,23.907728758169934,378.49859624900057,120.59410249665045,19205.95488844923,105.60900350580891,517.8562235106692,1
-124.29455141335518,118.21337209302325,-119.2743839835729,-79.33925444083059,-31.980681498169538,26.411369633005506,-36.366774979691286,-1.0,-18.62666666666667,-8.466666666666665,5.4784313725490215,4.031746031746033,-8.466666666666665,7.4705882352941195,82.1764705882353,16.964654528478057,720.5679667319652,120.59410249665045,19205.95488844923,105.60900350580891,517.8562235106692,1
-120.79134234603305,119.9608527131783,-125.8916837782341,-93.70102576932698,-19.963784849338225,19.404893259774497,-34.20024370430542,-1.0,-18.62666666666667,-8.466666666666665,5.4784313725490215,4.031746031746033,-8.466666666666665,7.4705882352941195,82.1764705882353,16.964654528478057,720.5679667319652,122.21462627914848,19738.517101302474,113.18452075357978,293.4986218816112,1
-120.79134234603305,119.9608527131783,-125.8916837782341,-93.70102576932698,-19.963784849338225,19.404893259774497,-34.20024370430542,-3.0,-19.755555555555556,15.439215686274512,15.439215686274512,3.0238095238095255,5.4784313725490215,11.454901960784316,-5.478431372549018,9.883695144724557,42.12941759819397,122.21462627914848,19738.517101302474,113.18452075357978,293.4986218816112,1
-120.79134234603305,119.9608527131783,-125.8916837782341,-93.70102576932698,-19.963784849338225,19.404893259774497,-34.20024370430542,-17.0,-11.853333333333335,13.447058823529414,-0.49803921568627274,8.063492063492065,5.4784313725490215,-21.415686274509802,-127.0,25.594505135387486,1721.8011619059819,122.21462627914848,19738.517101302474,113.18452075357978,293.4986218816112,1
-113.40338659019528,122.56976744186046,-126.51103696098562,-105.39379534650982,-8.10425232328922,10.69249220436555,-30.279853777416747,-17.0,-11.853333333333335,13.447058823529414,-0.49803921568627274,8.063492063492065,5.4784313725490215,-21.415686274509802,-127.0,25.594505135387486,1721.8011619059819,120.82806366434711,19649.39784067468,118.15819991645196,126.08091937446628,1
-113.40338659019528,122.56976744186046,-126.51103696098562,-105.39379534650982,-8.10425232328922,10.69249220436555,-30.279853777416747,-1.0,-14.111111111111112,7.4705882352941195,-31.376470588235293,-9.07142857142857,-15.439215686274508,35.36078431372549,88.15294117647059,25.24781746031746,783.2548660782395,120.82806366434711,19649.39784067468,118.15819991645196,126.08091937446628,1
-113.40338659019528,122.56976744186046,-126.51103696098562,-105.39379534650982,-8.10425232328922,10.69249220436555,-30.279853777416747,12.0,-16.36888888888889,0.4980392156862763,7.4705882352941195,-3.023809523809522,-12.450980392156861,-9.462745098039214,-31.376470588235293,11.581440242763772,90.45099692168806,120.82806366434711,19649.39784067468,118.15819991645196,126.08091937446628,1
-104.45459511129319,125.37558139534885,-126.80441478439425,-114.41756317237923,3.512081103914385,-0.2741664667786097,-24.554021121039796,12.0,-16.36888888888889,0.4980392156862763,7.4705882352941195,-3.023809523809522,-12.450980392156861,-9.462745098039214,-31.376470588235293,11.581440242763772,90.45099692168806,118.87819709701209,19486.029157618264,122.19918645070743,45.925636847777376,1
-104.45459511129319,125.37558139534885,-126.80441478439425,-114.41756317237923,3.512081103914385,-0.2741664667786097,-24.554021121039796,-9.0,-19.755555555555556,-4.482352941176469,-28.388235294117646,-30.238095238095234,-12.450980392156861,-53.29019607843137,-22.41176470588235,22.502147525676936,236.85624740528016,118.87819709701209,19486.029157618264,122.19918645070743,45.925636847777376,1
-104.45459511129319,125.37558139534885,-126.80441478439425,-114.41756317237923,3.512081103914385,-0.2741664667786097,-24.554021121039796,-2.0,-17.497777777777777,4.482352941176472,-5.478431372549018,-10.079365079365077,2.4901960784313744,-8.466666666666665,13.447058823529414,7.9927310924369745,29.9299193122129,118.87819709701209,19486.029157618264,122.19918645070743,45.925636847777376,1
-92.52287313942374,125.4248062015504,-125.59830595482546,-120.77232924693521,14.484652210644883,-13.373230990645254,-17.22908204711615,-2.0,-17.497777777777777,4.482352941176472,-5.478431372549018,-10.079365079365077,2.4901960784313744,-8.466666666666665,13.447058823529414,7.9927310924369745,29.9299193122129,114.5153284319332,18601.296337119114,123.9318138011037,7.494282527118511,1
-92.52287313942374,125.4248062015504,-125.59830595482546,-120.77232924693521,14.484652210644883,-13.373230990645254,-17.22908204711615,2.0,-17.497777777777777,6.4745098039215705,-12.450980392156861,-9.07142857142857,15.439215686274512,24.403921568627453,17.43137254901961,13.096150793650795,50.72991805877036,114.5153284319332,18601.296337119114,123.9318138011037,7.494282527118511,1
-92.52287313942374,125.4248062015504,-125.59830595482546,-120.77232924693521,14.484652210644883,-13.373230990645254,-17.22908204711615,-6.0,-19.755555555555556,6.4745098039215705,-9.462745098039214,-9.07142857142857,0.4980392156862763,11.454901960784316,6.4745098039215705,8.648961251167135,30.711638146544015,114.5153284319332,18601.296337119114,123.9318138011037,7.494282527118511,1
-99.52929127406802,125.20329457364342,-127.0,-125.34776082061546,25.843480709659246,-24.766370832333905,-8.6661251015434,-6.0,-19.755555555555556,6.4745098039215705,-9.462745098039214,-9.07142857142857,0.4980392156862763,11.454901960784316,6.4745098039215705,8.648961251167135,30.711638146544015,117.24419528257049,19144.31279558399,125.8503517980863,0.9964858652511103,1
-99.52929127406802,125.20329457364342,-127.0,-125.34776082061546,25.843480709659246,-24.766370832333905,-8.6661251015434,-4.0,-15.24,2.4901960784313744,-2.490196078431371,-16.126984126984127,-9.462745098039214,12.450980392156865,-12.450980392156861,9.339010270774976,31.799976798736925,117.24419528257049,19144.31279558399,125.8503517980863,0.9964858652511103,1
-99.52929127406802,125.20329457364342,-127.0,-125.34776082061546,25.843480709659246,-24.766370832333905,-8.6661251015434,-3.0,0.5644444444444439,16.43529411764706,14.443137254901963,1.7763568394002505e-15,37.352941176470594,20.419607843137257,93.13333333333334,23.168594771241835,954.255973059202,117.24419528257049,19144.31279558399,125.8503517980863,0.9964858652511103,1
-114.61736993035642,123.84961240310078,-123.67505133470226,-127.0,37.931906505209795,-32.07747661309668,-0.4126726238829974,-3.0,0.5644444444444439,16.43529411764706,14.443137254901963,1.7763568394002505e-15,37.352941176470594,20.419607843137257,93.13333333333334,23.168594771241835,954.255973059202,120.71401122271982,19702.833735693417,124.84155457926768,3.501782867360351,1
-114.61736993035642,123.84961240310078,-123.67505133470226,-127.0,37.931906505209795,-32.07747661309668,-0.4126726238829974,1.0,-17.497777777777777,-0.49803921568627274,-1.4941176470588218,-1.0079365079365061,-10.458823529411763,-38.34901960784313,5.4784313725490215,9.473018207282912,171.8302152756963,120.71401122271982,19702.833735693417,124.84155457926768,3.501782867360351,1
-114.61736993035642,123.84961240310078,-123.67505133470226,-127.0,37.931906505209795,-32.07747661309668,-0.4126726238829974,-3.0,-23.142222222222223,-5.478431372549018,-6.474509803921567,-4.03174603174603,-6.474509803921567,-26.396078431372548,-22.41176470588235,12.176157796451912,98.23411349533278,120.71401122271982,19702.833735693417,124.84155457926768,3.501782867360351,1
-118.95302471664618,126.01550387596899,-121.65400410677618,-125.72904678508883,50.449507181075745,-38.29191652674504,8.769293257514278,-3.0,-23.142222222222223,-5.478431372549018,-6.474509803921567,-4.03174603174603,-6.474509803921567,-26.396078431372548,-22.41176470588235,12.176157796451912,98.23411349533278,122.20751089979711,20226.176745818648,124.46618492261133,5.951785121942312,1
-118.95302471664618,126.01550387596899,-121.65400410677618,-125.72904678508883,50.449507181075745,-38.29191652674504,8.769293257514278,-6.0,-15.24,-0.49803921568627274,-6.474509803921567,26.20634920634921,34.36470588235294,8.466666666666669,85.16470588235295,22.801872082166202,763.3484683182207,122.20751089979711,20226.176745818648,124.46618492261133,5.951785121942312,1
-118.95302471664618,126.01550387596899,-121.65400410677618,-125.72904678508883,50.449507181075745,-38.29191652674504,8.769293257514278,5.0,-16.36888888888889,-0.49803921568627274,14.443137254901963,-11.087301587301585,-8.466666666666665,1.4941176470588253,-2.490196078431371,7.481043417366946,36.730122909338036,122.20751089979711,20226.176745818648,124.46618492261133,5.951785121942312,1
-107.99248941690564,127.0,-116.5361909650924,-121.53490117588194,62.43779217121937,-46.3341328855841,19.13769293257519,5.0,-16.36888888888889,-0.49803921568627274,14.443137254901963,-11.087301587301585,-8.466666666666665,1.4941176470588253,-2.490196078431371,7.481043417366946,36.730122909338036,117.17622679399933,19100.723538047492,121.69036404699143,27.390951407973677,1
-107.99248941690564,127.0,-116.5361909650924,-121.53490117588194,62.43779217121937,-46.3341328855841,19.13769293257519,2.0,-17.497777777777777,-10.458823529411763,-8.466666666666665,9.071428571428573,-10.458823529411763,2.4901960784313744,-69.22745098039215,16.20889589169001,482.81943781438497,117.17622679399933,19100.723538047492,121.69036404699143,27.390951407973677,1
-107.99248941690564,127.0,-116.5361909650924,-121.53490117588194,62.43779217121937,-46.3341328855841,19.13769293257519,-2.0,-17.497777777777777,4.482352941176472,3.4862745098039234,-15.119047619047617,18.42745098039216,31.376470588235296,-19.423529411764704,13.976612978524743,101.3664420173734,117.17622679399933,19100.723538047492,121.69036404699143,27.390951407973677,1
-86.00204834084393,125.03100775193799,-112.65708418891171,-116.00625469101828,73.00980005632215,-57.23986567522189,31.311535337124326,-2.0,-17.497777777777777,4.482352941176472,3.4862745098039234,-15.119047619047617,18.42745098039216,31.376470588235296,-19.423529411764704,13.976612978524743,101.3664420173734,107.8967134272312,16956.84512506714,117.898115543956,40.96284920106291,1
-86.00204834084393,125.03100775193799,-112.65708418891171,-116.00625469101828,73.00980005632215,-57.23986567522189,31.311535337124326,85.0,11.853333333333332,8.466666666666669,36.35686274509804,-11.087301587301585,-11.454901960784312,-0.49803921568627274,-18.427450980392155,22.893069561157795,737.1754829827793,107.8967134272312,16956.84512506714,117.898115543956,40.96284920106291,1
-86.00204834084393,125.03100775193799,-112.65708418891171,-116.00625469101828,73.00980005632215,-57.23986567522189,31.311535337124326,-18.0,-26.52888888888889,1.4941176470588253,25.400000000000002,9.071428571428573,27.3921568627451,-0.49803921568627274,-6.474509803921567,14.357392623716152,128.69784911302213,107.8967134272312,16956.84512506714,117.898115543956,40.96284920106291,1
-67.48013109381402,119.5670542635659,-112.26591375770022,-110.54115586690011,82.17983666572796,-69.30319021348046,45.18765231519092,-18.0,-26.52888888888889,1.4941176470588253,25.400000000000002,9.071428571428573,27.3921568627451,-0.49803921568627274,-6.474509803921567,14.357392623716152,128.69784911302213,99.77103303836004,15123.156823414047,114.12470796272207,22.958047389200605,1
-67.48013109381402,119.5670542635659,-112.26591375770022,-110.54115586690011,82.17983666572796,-69.30319021348046,45.18765231519092,70.0,-3.9511111111111124,-0.49803921568627274,-37.35294117647059,-10.079365079365077,17.43137254901961,10.458823529411767,38.34901960784314,23.515084033613448,553.2726805129023,99.77103303836004,15123.156823414047,114.12470796272207,22.958047389200605,1
-67.48013109381402,119.5670542635659,-112.26591375770022,-110.54115586690011,82.17983666572796,-69.30319021348046,45.18765231519092,16.0,-17.497777777777777,-10.458823529411763,-22.41176470588235,2.0158730158730176,-17.431372549019606,-12.450980392156861,-22.41176470588235,15.084794584500466,45.52411366795083,99.77103303836004,15123.156823414047,114.12470796272207,22.958047389200605,1
-63.075105830943606,110.95271317829457,-116.04722792607802,-105.52089066800102,90.66319346662911,-78.68577596545936,60.19861900893585,16.0,-17.497777777777777,-10.458823529411763,-22.41176470588235,2.0158730158730176,-17.431372549019606,-12.450980392156861,-22.41176470588235,15.084794584500466,45.52411366795083,96.69168231177207,14103.45012829377,110.84027725745788,27.710425394915838,1
-63.075105830943606,110.95271317829457,-116.04722792607802,-105.52089066800102,90.66319346662911,-78.68577596545936,60.19861900893585,-54.0,-38.946666666666665,-15.439215686274508,-24.40392156862745,-64.5079365079365,-6.474509803921567,51.29803921568627,-27.392156862745097,35.30780578898226,411.2352358571315,96.69168231177207,14103.45012829377,110.84027725745788,27.710425394915838,1
-63.075105830943606,110.95271317829457,-116.04722792607802,-105.52089066800102,90.66319346662911,-78.68577596545936,60.19861900893585,1.0,-7.337777777777779,6.4745098039215705,4.482352941176472,12.095238095238097,-18.427450980392155,1.4941176470588253,16.43529411764706,8.468342670401496,43.05259166167556,96.69168231177207,14103.45012829377,110.84027725745788,27.710425394915838,1
-76.8104601939096,103.56899224806202,-117.44892197125256,-98.84838628971727,99.59003097718953,-82.70688414487887,74.74532900081238,1.0,-7.337777777777779,6.4745098039215705,4.482352941176472,12.095238095238097,-18.427450980392155,1.4941176470588253,16.43529411764706,8.468342670401496,43.05259166167556,99.27612480440807,13839.52497412506,106.62210016967727,93.4860828957893,1
-76.8104601939096,103.56899224806202,-117.44892197125256,-98.84838628971727,99.59003097718953,-82.70688414487887,74.74532900081238,-53.0,-40.07555555555555,-15.439215686274508,-29.384313725490195,37.2936507936508,-23.4078431372549,14.443137254901963,-56.27843137254902,33.66526844070961,252.09494215817045,99.27612480440807,13839.52497412506,106.62210016967727,93.4860828957893,1
-76.8104601939096,103.56899224806202,-117.44892197125256,-98.84838628971727,99.59003097718953,-82.70688414487887,74.74532900081238,-15.0,-10.724444444444446,13.447058823529414,50.30196078431373,-2.015873015873014,-57.27450980392157,5.4784313725490215,74.20784313725491,28.556265172735763,764.0989320214363,99.27612480440807,13839.52497412506,106.62210016967727,93.4860828957893,1
-76.39423733442578,94.29011627906976,-118.23126283367557,-91.98523892919684,108.01616446071529,-83.25521707843609,89.13728675873278,-15.0,-10.724444444444446,13.447058823529414,50.30196078431373,-2.015873015873014,-57.27450980392157,5.4784313725490215,74.20784313725491,28.556265172735763,764.0989320214363,96.30520548239038,12674.80364184415,101.50220601398071,211.2241214569233,1
-76.39423733442578,94.29011627906976,-118.23126283367557,-91.98523892919684,108.01616446071529,-83.25521707843609,89.13728675873278,60.0,11.853333333333332,34.36470588235294,47.31372549019608,-64.5079365079365,34.36470588235294,25.400000000000002,120.02745098039216,49.7289822595705,1110.0293714878544,96.30520548239038,12674.80364184415,101.50220601398071,211.2241214569233,1
-76.39423733442578,94.29011627906976,-118.23126283367557,-91.98523892919684,108.01616446071529,-83.25521707843609,89.13728675873278,-26.0,-16.36888888888889,16.43529411764706,-39.345098039215685,9.071428571428573,-28.388235294117646,-41.33725490196078,-37.35294117647059,26.78739262371615,144.82492915601966,96.30520548239038,12674.80364184415,101.50220601398071,211.2241214569233,1
-72.54417588420047,84.54360465116278,-115.72125256673512,-85.12209156867652,115.68408898901717,-80.94003358119454,102.7554833468725,-26.0,-16.36888888888889,16.43529411764706,-39.345098039215685,9.071428571428573,-28.388235294117646,-41.33725490196078,-37.35294117647059,26.78739262371615,144.82492915601966,90.93634436736613,11107.807296813493,95.12898292885814,318.1148384077061,1
-72.54417588420047,84.54360465116278,-115.72125256673512,-85.12209156867652,115.68408898901717,-80.94003358119454,102.7554833468725,-9.0,-22.013333333333335,2.4901960784313744,-7.470588235294116,95.75396825396825,11.454901960784316,-113.05490196078432,-127.0,48.529736227824465,2856.7090422103915,90.93634436736613,11107.807296813493,95.12898292885814,318.1148384077061,1
-72.54417588420047,84.54360465116278,-115.72125256673512,-85.12209156867652,115.68408898901717,-80.94003358119454,102.7554833468725,13.0,-19.755555555555556,-7.470588235294116,-11.454901960784312,43.34126984126984,3.4862745098039234,3.4862745098039234,-38.34901960784313,17.542985527544353,236.81098704514483,90.93634436736613,11107.807296813493,95.12898292885814,318.1148384077061,1
-49.23569575310666,74.62480620155038,-105.64861396303903,-76.2254190642982,123.46646015206984,-82.21947709282801,118.38545897644195,13.0,-19.755555555555556,-7.470588235294116,-11.454901960784312,43.34126984126984,3.4862745098039234,3.4862745098039234,-38.34901960784313,17.542985527544353,236.81098704514483,76.50303863923203,8503.724550543118,85.49961307629587,305.1271679345808,1
-49.23569575310666,74.62480620155038,-105.64861396303903,-76.2254190642982,123.46646015206984,-82.21947709282801,118.38545897644195,-87.0,-31.044444444444444,-8.466666666666665,41.33725490196079,-26.206349206349202,85.16470588235295,48.30980392156863,75.20392156862745,50.341643323996266,852.6041483783056,76.50303863923203,8503.724550543118,85.49961307629587,305.1271679345808,1
-49.23569575310666,74.62480620155038,-105.64861396303903,-76.2254190642982,123.46646015206984,-82.21947709282801,118.38545897644195,-20.0,-20.884444444444444,-24.40392156862745,-50.30196078431372,-14.111111111111109,-37.35294117647059,0.4980392156862763,-53.29019607843137,27.60532679738562,328.57497688068685,76.50303863923203,8503.724550543118,85.49961307629587,305.1271679345808,1
-26.4128089580773,61.801744186046506,-84.55800821355237,-72.98448836627472,126.27040270346382,-83.01151355241069,124.83346872461419,-20.0,-20.884444444444444,-24.40392156862745,-50.30196078431372,-14.111111111111109,-37.35294117647059,0.4980392156862763,-53.29019607843137,27.60532679738562,328.57497688068685,57.59085378589206,5430.641450891371,73.11474692195786,129.47461359088584,1
-26.4128089580773,61.801744186046506,-84.55800821355237,-72.98448836627472,126.27040270346382,-83.01151355241069,124.83346872461419,-3.0,-34.43111111111111,-25.4,-4.482352941176469,102.80952380952381,-82.17647058823529,-65.24313725490197,-19.423529411764704,42.120765639589166,1374.7418105235993,57.59085378589206,5430.641450891371,73.11474692195786,129.47461359088584,1
-26.4128089580773,61.801744186046506,-84.55800821355237,-72.98448836627472,126.27040270346382,-83.01151355241069,124.83346872461419,35.0,-10.724444444444446,-1.4941176470588218,-3.48627450980392,-34.269841269841265,117.03921568627452,-11.454901960784312,78.1921568627451,36.45761904761905,1691.280645152876,57.59085378589206,5430.641450891371,73.11474692195786,129.47461359088584,1
-4.457053120305897,51.68604651162791,-64.3149383983573,-71.0780585439079,127.0,-86.60614056128571,127.00000000000006,35.0,-10.724444444444446,-1.4941176470588218,-3.48627450980392,-34.269841269841265,117.03921568627452,-11.454901960784312,78.1921568627451,36.45761904761905,1691.280645152876,40.15267934343037,3365.207094388037,62.35968115129771,96.87980584165732,1
-4.457053120305897,51.68604651162791,-64.3149383983573,-71.0780585439079,127.0,-86.60614056128571,127.00000000000006,26.0,-16.36888888888889,4.482352941176472,44.325490196078434,3.0238095238095255,26.39607843137255,-56.27843137254902,-95.12549019607843,34.000067693744164,943.2516243465143,40.15267934343037,3365.207094388037,62.35968115129771,96.87980584165732,1
-4.457053120305897,51.68604651162791,-64.3149383983573,-71.0780585439079,127.0,-86.60614056128571,127.00000000000006,30.0,-24.27111111111111,13.447058823529414,-65.24313725490197,-27.21428571428571,0.4980392156862763,49.30588235294118,-37.35294117647059,30.916556956115777,406.72669591448783,40.15267934343037,3365.207094388037,62.35968115129771,96.87980584165732,1
22.042468933497187,42.53023255813953,-46.15811088295689,-71.58643982987235,125.51219374823994,-93.67354281602303,125.7103980503656,30.0,-24.27111111111111,13.447058823529414,-65.24313725490197,-27.21428571428571,0.4980392156862763,49.30588235294118,-37.35294117647059,30.916556956115777,406.72669591448783,36.910270791531204,2156.1149679942687,53.4249277569896,250.67076586501955,1
22.042468933497187,42.53023255813953,-46.15811088295689,-71.58643982987235,125.51219374823994,-93.67354281602303,125.7103980503656,-1.0,-17.497777777777777,8.466666666666669,31.376470588235296,-104.82539682539682,-111.06274509803922,-54.28627450980392,122.01960784313727,56.31686741363212,2449.95780036616,36.910270791531204,2156.1149679942687,53.4249277569896,250.67076586501955,1
22.042468933497187,42.53023255813953,-46.15811088295689,-71.58643982987235,125.51219374823994,-93.67354281602303,125.7103980503656,-50.0,-27.657777777777778,-15.439215686274508,48.30980392156863,-112.88888888888889,19.423529411764708,16.43529411764706,-34.364705882352936,40.56490196078431,1035.042238762869,36.910270791531204,2156.1149679942687,53.4249277569896,250.67076586501955,1
63.803495835040266,25.719961240310074,-25.100102669404528,-76.98799099324492,120.53376513658124,-104.15279443511633,120.50040617384246,-50.0,-27.657777777777778,-15.439215686274508,48.30980392156863,-112.88888888888889,19.423529411764708,16.43529411764706,-34.364705882352936,40.56490196078431,1035.042238762869,38.20785324825162,1989.480721675834,42.602684967653175,886.8580090171783,1
63.803495835040266,25.719961240310074,-25.100102669404528,-76.98799099324492,120.53376513658124,-104.15279443511633,120.50040617384246,20.0,7.337777777777777,10.458823529411767,-30.380392156862744,22.174603174603178,3.4862745098039234,-4.482352941176469,-44.325490196078434,17.830714285714286,204.49013276439115,38.20785324825162,1989.480721675834,42.602684967653175,886.8580090171783,1
63.803495835040266,25.719961240310074,-25.100102669404528,-76.98799099324492,120.53376513658124,-104.15279443511633,120.50040617384246,107.0,-3.9511111111111124,-15.439215686274508,27.3921568627451,13.103174603174605,84.1686274509804,-108.07450980392157,57.274509803921575,52.05041316526611,1856.5524295020405,38.20785324825162,1989.480721675834,42.602684967653175,886.8580090171783,1
88.6728116891984,3.150387596899222,-0.6519507186858462,-84.42306730047528,112.53680653337088,-114.02278723914611,108.84240454914709,107.0,-3.9511111111111124,-15.439215686274508,27.3921568627451,13.103174603174605,84.1686274509804,-108.07450980392157,57.274509803921575,52.05041316526611,1856.5524295020405,30.82505000159449,2551.2426630857017,29.408468538686787,2271.515104399039,1
88.6728116891984,3.150387596899222,-0.6519507186858462,-84.42306730047528,112.53680653337088,-114.02278723914611,108.84240454914709,-29.0,-6.20888888888889,-6.474509803921567,-1.4941176470588218,-87.69047619047619,-83.17254901960784,26.39607843137255,-15.439215686274508,31.984479458450046,1183.151631235544,30.82505000159449,2551.2426630857017,29.408468538686787,2271.515104399039,1
