Gyro 0,Gyro 1,Gyro 2,Orientation 0,Orientation 1,Orientation 2,Orientation 3,Sensor 0,Sensor 1,Sensor 2,Sensor 3,Sensor 4,Sensor 5,Sensor 6,Sensor 7,Sensor Mean,Sensor Variance,Gyro Mean,Gyro Variance,Orientation Mean,Orientation Variance,Label
-18.88924050632911,25.632736359850053,-51.04158372041583,73.91171171171175,-124.09798892451181,95.1840465309514,24.52413793103449,0.0,-18.977011494252864,-10.0,37.82978723404254,5.655870445344121,-22.41176470588235,0.4980392156862763,-2.490196078431371,12.23283364670494,176.40102892828983,31.854520195531663,1482.488493000014,50.19534393065921,583.2519565927427,1
-18.88924050632911,25.632736359850053,-51.04158372041583,73.91171171171175,-124.09798892451181,95.1840465309514,24.52413793103449,-4.26890756302521,-14.597701149425276,-38.0,39.18085106382978,5.655870445344121,-9.462745098039214,3.4862745098039234,2.4901960784313744,14.642818238487362,233.57801924918542,31.854520195531663,1482.488493000014,50.19534393065921,583.2519565927427,1
-19.44571567672833,25.484631403581833,-50.98540145985401,73.68288288288295,-124.09798892451181,95.23680930619028,24.73022312373223,-4.26890756302521,-14.597701149425276,-38.0,39.18085106382978,5.655870445344121,-9.462745098039214,3.4862745098039234,2.4901960784313744,14.642818238487362,233.57801924918542,31.971916180054723,1476.858965698399,50.0509719154396,581.4227303455939,1
-19.44571567672833,25.484631403581833,-50.98540145985401,73.68288288288295,-124.09798892451181,95.23680930619028,24.73022312373223,-3.2016806722689077,-13.137931034482747,-10.0,21.617021276595736,11.82591093117408,-0.49803921568627274,-6.474509803921567,-4.482352941176469,8.904680734413223,45.41655221641882,31.971916180054723,1476.858965698399,50.0509719154396,581.4227303455939,1
-19.44571567672833,25.484631403581833,-50.98540145985401,73.68288288288295,-124.09798892451181,95.23680930619028,24.73022312373223,-2.134453781512605,-21.89655172413792,-7.0,22.968085106382972,13.8825910931174,10.458823529411767,-2.490196078431371,-3.48627450980392,10.539621977849745,70.33532340919265,31.971916180054723,1476.858965698399,50.0509719154396,581.4227303455939,1
-20.12585199610516,25.590420658059134,-50.73258128732581,73.39684684684687,-124.0387642086855,95.6061487328625,24.73022312373223,-2.134453781512605,-21.89655172413792,-7.0,22.968085106382972,13.8825910931174,10.458823529411767,-2.490196078431371,-3.48627450980392,10.539621977849745,70.33532340919265,32.1496179804967,1475.3250148751977,49.906616264077265,571.8752599007249,1
-20.12585199610516,25.590420658059134,-50.73258128732581,73.39684684684687,-124.0387642086855,95.6061487328625,24.73022312373223,3.2016806722689077,-2.9195402298850457,29.0,-7.105427357601002e-15,-6.6842105263157965,13.447058823529414,6.4745098039215705,0.4980392156862763,7.778129908950877,91.92134526599673,32.1496179804967,1475.3250148751977,49.906616264077265,571.8752599007249,1
-20.12585199610516,25.590420658059134,-50.73258128732581,73.39684684684687,-124.0387642086855,95.6061487328625,24.73022312373223,2.134453781512605,-1.4597701149425166,43.0,6.755319148936163,4.627530364372461,20.419607843137257,-8.466666666666665,-0.49803921568627274,10.920173391906744,208.23236750127424,32.1496179804967,1475.3250148751977,49.906616264077265,571.8752599007249,1
-19.44571567672833,25.823157017909196,-50.81685467816854,73.3396396396397,-124.02395802972893,95.86996260905693,24.73022312373223,2.134453781512605,-1.4597701149425166,43.0,6.755319148936163,4.627530364372461,20.419607843137257,-8.466666666666665,-0.49803921568627274,10.920173391906744,208.23236750127424,32.028575790935356,1484.5184316776522,49.993217111905814,564.9628143157236,1
-19.44571567672833,25.823157017909196,-50.81685467816854,73.3396396396397,-124.02395802972893,95.86996260905693,24.73022312373223,-1.0672268907563025,-20.436781609195393,8.0,14.861702127659568,5.655870445344121,7.4705882352941195,-10.458823529411763,-17.431372549019606,10.67279567333511,41.92013766705997,32.028575790935356,1484.5184316776522,49.993217111905814,564.9628143157236,1
-19.44571567672833,25.823157017909196,-50.81685467816854,73.3396396396397,-124.02395802972893,95.86996260905693,24.73022312373223,4.26890756302521,-11.678160919540218,11.0,-40.53191489361703,-11.825910931174096,3.4862745098039234,-0.49803921568627274,5.4784313725490215,11.095954925674471,159.39213516583,32.028575790935356,1484.5184316776522,49.993217111905814,564.9628143157236,1
-19.538461538461537,25.844314868804656,-50.98540145985401,73.22522522522524,-123.99434567181581,96.18653926049024,24.62718052738336,4.26890756302521,-11.678160919540218,11.0,-40.53191489361703,-11.825910931174096,3.4862745098039234,-0.49803921568627274,5.4784313725490215,11.095954925674471,159.39213516583,32.122725955706734,1491.885289332291,50.018313851294636,561.9391103827628,1
-19.538461538461537,25.844314868804656,-50.98540145985401,73.22522522522524,-123.99434567181581,96.18653926049024,24.62718052738336,1.0672268907563025,-2.9195402298850457,27.0,5.40425531914893,-5.655870445344137,-0.49803921568627274,1.4941176470588253,6.4745098039215705,6.314194943975135,75.04353998855125,32.122725955706734,1491.885289332291,50.018313851294636,561.9391103827628,1
-19.538461538461537,25.844314868804656,-50.98540145985401,73.22522522522524,-123.99434567181581,96.18653926049024,24.62718052738336,0.0,-18.977011494252864,3.0,17.563829787234035,9.76923076923076,2.4901960784313744,5.4784313725490215,0.4980392156862763,7.222092339673042,56.03519137734764,32.122725955706734,1491.885289332291,50.018313851294636,561.9391103827628,1
-18.672833495618303,26.055893377759258,-51.04158372041583,73.28243243243247,-123.99434567181581,96.18653926049024,24.62718052738336,0.0,-18.977011494252864,3.0,17.563829787234035,9.76923076923076,2.4901960784313744,5.4784313725490215,0.4980392156862763,7.222092339673042,56.03519137734764,31.9234368645978,1498.7359956220282,50.12663651020252,558.2143440687514,1
-18.672833495618303,26.055893377759258,-51.04158372041583,73.28243243243247,-123.99434567181581,96.18653926049024,24.62718052738336,-2.134453781512605,-26.27586206896551,-4.0,-2.7021276595744723,-6.6842105263157965,-1.4941176470588218,5.4784313725490215,10.458823529411767,7.403503323173499,66.58495435398471,31.9234368645978,1498.7359956220282,50.12663651020252,558.2143440687514,1
-18.672833495618303,26.055893377759258,-51.04158372041583,73.28243243243247,-123.99434567181581,96.18653926049024,24.62718052738336,-4.26890756302521,-14.597701149425276,-22.0,-22.968085106382986,8.7408906882591,15.439215686274512,0.4980392156862763,-1.4941176470588218,11.250869632014023,78.20654655800695,31.9234368645978,1498.7359956220282,50.12663651020252,558.2143440687514,1
-18.6110029211295,26.26747188671386,-50.98540145985401,73.28243243243247,-123.96473331390266,96.08101371001247,24.52413793103449,-4.26890756302521,-14.597701149425276,-22.0,-22.968085106382986,8.7408906882591,15.439215686274512,0.4980392156862763,-1.4941176470588218,11.250869632014023,78.20654655800695,31.954625422565794,1505.0309370205428,50.17843525966678,553.0900246150529,1
-18.6110029211295,26.26747188671386,-50.98540145985401,73.28243243243247,-123.96473331390266,96.08101371001247,24.52413793103449,0.0,-2.9195402298850457,54.0,44.585106382978715,10.79757085020242,9.462745098039218,-2.490196078431371,2.4901960784313744,15.84316933974602,446.12007751231096,31.954625422565794,1505.0309370205428,50.17843525966678,553.0900246150529,1
-18.6110029211295,26.26747188671386,-50.98540145985401,73.28243243243247,-123.96473331390266,96.08101371001247,24.52413793103449,1.0672268907563025,-18.977011494252864,-2.0,36.478723404255305,-2.570850202429158,-1.4941176470588218,-2.490196078431371,-2.490196078431371,8.446040224451899,163.788892461957,31.954625422565794,1505.0309370205428,50.17843525966678,553.0900246150529,1
-18.765579357351506,26.26747188671386,-50.76067241760671,73.22522522522524,-123.9351209559895,95.9754881595347,24.472616632860024,1.0672268907563025,-18.977011494252864,-2.0,36.478723404255305,-2.570850202429158,-1.4941176470588218,-2.490196078431371,-2.490196078431371,8.446040224451899,163.788892461957,31.931241220557357,1497.4994498753738,50.0844565098486,551.600600615548,1
-18.765579357351506,26.26747188671386,-50.76067241760671,73.22522522522524,-123.9351209559895,95.9754881595347,24.472616632860024,-1.0672268907563025,-18.977011494252864,-29.0,8.106382978723397,-0.5141700404858378,9.462745098039218,2.4901960784313744,2.4901960784313744,9.013491082390045,102.89218288393779,31.931241220557357,1497.4994498753738,50.0844565098486,551.600600615548,1
-18.765579357351506,26.26747188671386,-50.76067241760671,73.22522522522524,-123.9351209559895,95.9754881595347,24.472616632860024,0.0,-10.21839080459769,33.0,8.106382978723397,10.79757085020242,-8.466666666666665,2.4901960784313744,1.4941176470588253,9.321665628210047,108.66954281741073,31.931241220557357,1497.4994498753738,50.0844565098486,551.600600615548,1
-19.723953261927942,26.20399833402748,-50.36739659367396,73.05360360360362,-123.86109006120665,96.08101371001247,24.31805273833669,0.0,-10.21839080459769,33.0,8.106382978723397,10.79757085020242,-8.466666666666665,2.4901960784313744,1.4941176470588253,9.321665628210047,108.66954281741073,32.098449396543124,1485.2626463667293,49.874999510435025,548.9032196444607,1
-19.723953261927942,26.20399833402748,-50.36739659367396,73.05360360360362,-123.86109006120665,96.08101371001247,24.31805273833669,-4.26890756302521,-24.81609195402298,-25.0,31.074468085106375,8.7408906882591,-6.474509803921567,4.482352941176472,-4.482352941176469,13.667446747086021,126.97102525039031,32.098449396543124,1485.2626463667293,49.874999510435025,548.9032196444607,1
-19.723953261927942,26.20399833402748,-50.36739659367396,73.05360360360362,-123.86109006120665,96.08101371001247,24.31805273833669,-4.26890756302521,-29.195402298850567,-27.0,18.91489361702127,8.7408906882591,-2.490196078431371,-3.48627450980392,-7.470588235294116,12.695894123835693,116.9215017085146,32.098449396543124,1485.2626463667293,49.874999510435025,548.9032196444607,1
-19.383885102239528,26.0347355268638,-50.339305463393046,72.99639639639645,-123.8314777032935,96.23930203572914,24.21501014198782,-4.26890756302521,-29.195402298850567,-27.0,18.91489361702127,8.7408906882591,-2.490196078431371,-3.48627450980392,-7.470588235294116,12.695894123835693,116.9215017085146,31.919308697498792,1475.6805477945934,49.7901457955511,551.5755801618368,1
-19.383885102239528,26.0347355268638,-50.339305463393046,72.99639639639645,-123.8314777032935,96.23930203572914,24.21501014198782,2.134453781512605,-18.977011494252864,-34.0,-22.968085106382986,14.91093117408906,-5.478431372549018,-6.474509803921567,2.4901960784313744,13.429202351392433,129.41963111251138,31.919308697498792,1475.6805477945934,49.7901457955511,551.5755801618368,1
-19.383885102239528,26.0347355268638,-50.339305463393046,72.99639639639645,-123.8314777032935,96.23930203572914,24.21501014198782,-1.0672268907563025,-13.137931034482747,15.0,31.074468085106375,-1.5425101214574983,-9.462745098039214,0.4980392156862763,2.4901960784313744,9.284139565494973,110.45382770534567,31.919308697498792,1475.6805477945934,49.7901457955511,551.5755801618368,1
-18.765579357351506,26.01357767596834,-50.59212563592125,73.05360360360362,-123.8314777032935,96.23930203572914,24.21501014198782,-1.0672268907563025,-13.137931034482747,15.0,31.074468085106375,-1.5425101214574983,-9.462745098039214,0.4980392156862763,2.4901960784313744,9.284139565494973,110.45382770534567,31.7904275564137,1481.0892887576517,49.88643563849774,553.5645085974976,1
-18.765579357351506,26.01357767596834,-50.59212563592125,73.05360360360362,-123.8314777032935,96.23930203572914,24.21501014198782,-4.26890756302521,-26.27586206896551,-5.0,37.82978723404254,7.712550607287441,6.4745098039215705,4.482352941176472,-0.49803921568627274,11.567751179263126,173.7109439542594,31.7904275564137,1481.0892887576517,49.88643563849774,553.5645085974976,1
-18.765579357351506,26.01357767596834,-50.59212563592125,73.05360360360362,-123.8314777032935,96.23930203572914,24.21501014198782,-1.0672268907563025,-20.436781609195393,-9.0,-13.510638297872347,4.627530364372461,1.4941176470588253,3.4862745098039234,1.4941176470588253,6.88958587076476,48.66287679235814,31.7904275564137,1481.0892887576517,49.88643563849774,553.5645085974976,1
-18.270934761441087,25.99241982507288,-50.929219199292184,73.05360360360362,-123.8314777032935,96.23930203572914,24.21501014198782,-1.0672268907563025,-20.436781609195393,-9.0,-13.510638297872347,4.627530364372461,1.4941176470588253,3.4862745098039234,1.4941176470588253,6.88958587076476,48.66287679235814,31.730857928602052,1490.4577753116296,49.991747542656235,554.3478944894081,1
-18.270934761441087,25.99241982507288,-50.929219199292184,73.05360360360362,-123.8314777032935,96.23930203572914,24.21501014198782,-1.0672268907563025,-18.977011494252864,-1.0,5.40425531914893,1.5425101214574815,1.4941176470588253,-0.49803921568627274,-0.49803921568627274,3.8101499880058687,40.06311167626763,31.730857928602052,1490.4577753116296,49.991747542656235,554.3478944894081,1
-18.270934761441087,25.99241982507288,-50.929219199292184,73.05360360360362,-123.8314777032935,96.23930203572914,24.21501014198782,-4.26890756302521,-24.81609195402298,-2.0,-7.105427357601002e-15,2.5708502024291415,-19.423529411764704,1.4941176470588253,2.4901960784313744,7.132961607091531,89.04929871022138,31.730857928602052,1490.4577753116296,49.991747542656235,554.3478944894081,1
-17.776290165530668,25.99241982507288,-50.90112806901127,73.22522522522524,-123.87589624016323,96.08101371001247,24.266531440162225,-4.26890756302521,-24.81609195402298,-2.0,-7.105427357601002e-15,2.5708502024291415,-19.423529411764704,1.4941176470588253,2.4901960784313744,7.132961607091531,89.04929871022138,31.556612686538273,1487.595428018873,50.039591039769796,558.2911610317312,1
-17.776290165530668,25.99241982507288,-50.90112806901127,73.22522522522524,-123.87589624016323,96.08101371001247,24.266531440162225,1.0672268907563025,-14.597701149425276,-13.0,-9.457446808510642,3.5991902834008016,-8.466666666666665,-5.478431372549018,-2.490196078431371,7.269607406217509,24.39293134988132,31.556612686538273,1487.595428018873,50.039591039769796,558.2911610317312,1
-17.776290165530668,25.99241982507288,-50.90112806901127,73.22522522522524,-123.87589624016323,96.08101371001247,24.266531440162225,4.26890756302521,-7.298850574712632,8.0,-7.105427357601002e-15,1.5425101214574815,31.376470588235296,-2.490196078431371,-7.470588235294116,7.805940395144513,99.55830814468412,31.556612686538273,1487.595428018873,50.039591039769796,558.2911610317312,1
-17.55988315481986,26.01357767596834,-50.90112806901127,73.4540540540541,-123.9351209559895,95.71167428334027,24.31805273833669,4.26890756302521,-7.298850574712632,8.0,-7.105427357601002e-15,1.5425101214574815,31.376470588235296,-2.490196078431371,-7.470588235294116,7.805940395144513,99.55830814468412,31.49152963326649,1487.6928435061882,50.12291993301124,563.1039056721307,1
-17.55988315481986,26.01357767596834,-50.90112806901127,73.4540540540541,-123.9351209559895,95.71167428334027,24.31805273833669,0.0,-13.137931034482747,-8.0,28.372340425531906,6.6842105263157805,18.42745098039216,3.4862745098039234,0.4980392156862763,9.825780836526599,95.12556481748665,31.49152963326649,1487.6928435061882,50.12291993301124,563.1039056721307,1
-17.55988315481986,26.01357767596834,-50.90112806901127,73.4540540540541,-123.9351209559895,95.71167428334027,24.31805273833669,-2.134453781512605,-13.137931034482747,-14.0,16.212765957446802,3.5991902834008016,-35.36078431372549,-0.49803921568627274,9.462745098039218,11.800738710536741,125.0123225310099,31.49152963326649,1487.6928435061882,50.12291993301124,563.1039056721307,1
-18.85832521908471,25.780841316118277,-50.90112806901127,73.4540540540541,-123.94992713494608,95.71167428334027,24.31805273833669,-2.134453781512605,-13.137931034482747,-14.0,16.212765957446802,3.5991902834008016,-35.36078431372549,-0.49803921568627274,9.462745098039218,11.800738710536741,125.0123225310099,31.84676486807142,1483.2534720364656,50.04534114639455,568.7330816318129,1
-18.85832521908471,25.780841316118277,-50.90112806901127,73.4540540540541,-123.94992713494608,95.71167428334027,24.31805273833669,2.134453781512605,-11.678160919540218,12.0,31.074468085106375,-0.5141700404858378,-45.32156862745098,-0.49803921568627274,-1.4941176470588218,13.089372289605139,276.6705644257454,31.84676486807142,1483.2534720364656,50.04534114639455,568.7330816318129,1
-18.85832521908471,25.780841316118277,-50.90112806901127,73.4540540540541,-123.94992713494608,95.71167428334027,24.31805273833669,0.0,-14.597701149425276,-1.0,16.212765957446802,-6.6842105263157965,-23.4078431372549,-0.49803921568627274,-5.478431372549018,8.484873919834758,74.83843134535348,31.84676486807142,1483.2534720364656,50.04534114639455,568.7330816318129,1
-19.07473222979552,25.738525614327354,-50.788763547887626,73.4540540540541,-123.9351209559895,95.71167428334027,24.31805273833669,0.0,-14.597701149425276,-1.0,16.212765957446802,-6.6842105263157965,-23.4078431372549,-0.49803921568627274,-5.478431372549018,8.484873919834758,74.83843134535348,31.8673404640035,1478.4056412610055,49.99378107208969,569.6669114232124,1
-19.07473222979552,25.738525614327354,-50.788763547887626,73.4540540540541,-123.9351209559895,95.71167428334027,24.31805273833669,-4.26890756302521,-17.517241379310335,-3.0,2.7021276595744617,4.627530364372461,4.482352941176472,-12.450980392156861,2.4901960784313744,6.442417047255897,30.296346617499776,31.8673404640035,1478.4056412610055,49.99378107208969,569.6669114232124,1
-19.07473222979552,25.738525614327354,-50.788763547887626,73.4540540540541,-123.9351209559895,95.71167428334027,24.31805273833669,0.0,1.2434497875801753e-14,61.0,-18.914893617021278,-7.712550607287458,7.4705882352941195,-9.462745098039214,-1.4941176470588218,13.256861900587612,411.41245124546055,31.8673404640035,1478.4056412610055,49.99378107208969,569.6669114232124,1
-18.36368062317429,25.780841316118277,-50.9573103295731,73.4540540540541,-123.9351209559895,95.76443705857915,24.31805273833669,0.0,1.2434497875801753e-14,61.0,-18.914893617021278,-7.712550607287458,7.4705882352941195,-9.462745098039214,-1.4941176470588218,13.256861900587612,411.41245124546055,31.700610756288555,1483.304572113942,50.064068566581824,568.7822138244853,1
-18.36368062317429,25.780841316118277,-50.9573103295731,73.4540540540541,-123.9351209559895,95.76443705857915,24.31805273833669,-2.134453781512605,-11.678160919540218,10.0,-2.7021276595744723,2.5708502024291415,6.4745098039215705,-0.49803921568627274,-1.4941176470588218,4.694032403715388,17.567755172529612,31.700610756288555,1483.304572113942,50.064068566581824,568.7822138244853,1
-18.36368062317429,25.780841316118277,-50.9573103295731,73.4540540540541,-123.9351209559895,95.76443705857915,24.31805273833669,-1.0672268907563025,-18.977011494252864,-5.0,25.670212765957437,-1.5425101214574983,7.4705882352941195,-0.49803921568627274,0.4980392156862763,7.590453492386346,91.85585719358268,31.700610756288555,1483.304572113942,50.064068566581824,568.7822138244853,1
-17.652629016553064,25.865472719700115,-50.9573103295731,73.62567567567572,-123.99434567181581,95.50062318238471,24.369574036511153,-1.0672268907563025,-18.977011494252864,-5.0,25.670212765957437,-1.5425101214574983,7.4705882352941195,-0.49803921568627274,0.4980392156862763,7.590453492386346,91.85585719358268,31.49180402194209,1484.1278285874014,50.14948624164964,570.7486814167673,1
-17.652629016553064,25.865472719700115,-50.9573103295731,73.62567567567572,-123.99434567181581,95.50062318238471,24.369574036511153,5.336134453781512,23.356321839080472,82.0,35.127659574468076,11.82591093117408,18.42745098039216,6.4745098039215705,-1.4941176470588218,23.005263153734585,688.7974699271117,31.49180402194209,1484.1278285874014,50.14948624164964,570.7486814167673,1
-17.652629016553064,25.865472719700115,-50.9573103295731,73.62567567567572,-123.99434567181581,95.50062318238471,24.369574036511153,2.134453781512605,-5.839080459770104,2.0,44.585106382978715,4.627530364372461,3.4862745098039234,4.482352941176472,10.458823529411767,9.701702746128255,205.79211429832853,31.49180402194209,1484.1278285874014,50.14948624164964,570.7486814167673,1
-18.827409931840307,25.99241982507288,-50.62021676620216,73.62567567567572,-123.99434567181581,95.50062318238471,24.369574036511153,2.134453781512605,-5.839080459770104,2.0,44.585106382978715,4.627530364372461,3.4862745098039234,4.482352941176472,10.458823529411767,9.701702746128255,205.79211429832853,31.813348841038447,1481.5159652187504,50.07943742231692,567.4510974563273,1
-18.827409931840307,25.99241982507288,-50.62021676620216,73.62567567567572,-123.99434567181581,95.50062318238471,24.369574036511153,-1.0672268907563025,-26.27586206896551,-25.0,10.808510638297864,13.8825910931174,5.4784313725490215,8.466666666666669,8.466666666666669,12.430744424627429,80.47214028141791,31.813348841038447,1481.5159652187504,50.07943742231692,567.4510974563273,1
-18.827409931840307,25.99241982507288,-50.62021676620216,73.62567567567572,-123.99434567181581,95.50062318238471,24.369574036511153,-1.0672268907563025,-14.597701149425276,14.0,29.72340425531914,9.76923076923076,20.419607843137257,2.4901960784313744,-12.450980392156861,13.06479342230712,85.97546268483447,31.813348841038447,1481.5159652187504,50.07943742231692,567.4510974563273,1
-18.95107108081791,25.950104123281957,-50.50785224507852,73.62567567567572,-123.99434567181581,95.50062318238471,24.369574036511153,-1.0672268907563025,-14.597701149425276,14.0,29.72340425531914,9.76923076923076,20.419607843137257,2.4901960784313744,-12.450980392156861,13.06479342230712,85.97546268483447,31.803009149726126,1476.29417736407,50.02787734801206,568.4128126382149,1
-18.95107108081791,25.950104123281957,-50.50785224507852,73.62567567567572,-123.99434567181581,95.50062318238471,24.369574036511153,-3.2016806722689077,-21.89655172413792,-28.0,-5.404255319148941,-3.5991902834008176,-12.450980392156861,-1.4941176470588218,-1.4941176470588218,9.692611710653887,103.39825663000646,31.803009149726126,1476.29417736407,50.02787734801206,568.4128126382149,1
-18.95107108081791,25.950104123281957,-50.50785224507852,73.62567567567572,-123.99434567181581,95.50062318238471,24.369574036511153,-1.0672268907563025,-24.81609195402298,-19.0,-7.105427357601002e-15,13.8825910931174,-5.478431372549018,-6.474509803921567,-3.48627450980392,9.275640703021399,80.92717748795941,31.803009149726126,1476.29417736407,50.02787734801206,568.4128126382149,1
-18.85832521908471,25.844314868804656,-50.873036938730365,73.62567567567572,-123.99434567181581,95.50062318238471,24.369574036511153,-1.0672268907563025,-24.81609195402298,-19.0,-7.105427357601002e-15,13.8825910931174,-5.478431372549018,-6.474509803921567,-3.48627450980392,9.275640703021399,80.92717748795941,31.858559008873243,1484.8033109467476,50.11434249440358,571.196323083988,1
-18.85832521908471,25.844314868804656,-50.873036938730365,73.62567567567572,-123.99434567181581,95.50062318238471,24.369574036511153,3.2016806722689077,-24.81609195402298,-5.0,12.159574468085099,1.5425101214574815,-5.478431372549018,-5.478431372549018,-10.458823529411763,8.516942936293033,55.775806014810215,31.858559008873243,1484.8033109467476,50.11434249440358,571.196323083988,1
-18.85832521908471,25.844314868804656,-50.873036938730365,73.62567567567572,-123.99434567181581,95.50062318238471,24.369574036511153,-2.134453781512605,-14.597701149425276,12.0,25.670212765957437,10.79757085020242,-25.4,-7.470588235294116,0.4980392156862763,12.321070749759766,89.1347982550002,31.858559008873243,1484.8033109467476,50.11434249440358,571.196323083988,1
-18.487341772151897,25.823157017909196,-50.90112806901127,73.62567567567572,-123.99434567181581,95.50062318238471,24.369574036511153,-2.134453781512605,-14.597701149425276,12.0,25.670212765957437,10.79757085020242,-25.4,-7.470588235294116,0.4980392156862763,12.321070749759766,89.1347982550002,31.737208953024123,1483.44829453692,50.11665358753206,571.7317476655983,1
-18.487341772151897,25.823157017909196,-50.90112806901127,73.62567567567572,-123.99434567181581,95.50062318238471,24.369574036511153,-1.0672268907563025,-27.735632183908038,-18.0,-9.457446808510642,-5.655870445344137,4.482352941176472,0.4980392156862763,-1.4941176470588218,8.548835766555086,93.39251589890708,31.737208953024123,1483.44829453692,50.11665358753206,571.7317476655983,1
-18.487341772151897,25.823157017909196,-50.90112806901127,73.62567567567572,-123.99434567181581,95.50062318238471,24.369574036511153,0.0,-13.137931034482747,6.0,14.861702127659568,-5.655870445344137,2.4901960784313744,7.4705882352941195,10.458823529411767,7.5093889313279645,25.962095746677527,31.737208953024123,1483.44829453692,50.11665358753206,571.7317476655983,1
-18.456426484907496,25.865472719700115,-50.98540145985401,73.62567567567572,-123.97953949285923,95.5533859576236,24.369574036511153,0.0,-13.137931034482747,6.0,14.861702127659568,-5.655870445344137,2.4901960784313744,7.4705882352941195,10.458823529411767,7.5093889313279645,25.962095746677527,31.769100221487207,1488.1036373642921,50.158849951743285,570.7716371456653,1
-18.456426484907496,25.865472719700115,-50.98540145985401,73.62567567567572,-123.97953949285923,95.5533859576236,24.369574036511153,-4.26890756302521,-27.735632183908038,-8.0,-12.159574468085111,-2.570850202429158,-2.490196078431371,4.482352941176472,0.4980392156862763,7.775694081592705,78.4003780407814,31.769100221487207,1488.1036373642921,50.158849951743285,570.7716371456653,1
-18.456426484907496,25.865472719700115,-50.98540145985401,73.62567567567572,-123.97953949285923,95.5533859576236,24.369574036511153,-1.0672268907563025,-18.977011494252864,0.0,25.670212765957437,3.5991902834008016,7.4705882352941195,-0.49803921568627274,-4.482352941176469,7.720577728315533,90.35294121346637,31.769100221487207,1488.1036373642921,50.158849951743285,570.7716371456653,1
-18.487341772151897,25.653894210745513,-51.04158372041583,73.62567567567572,-123.99434567181581,95.50062318238471,24.369574036511153,-1.0672268907563025,-18.977011494252864,0.0,25.670212765957437,3.5991902834008016,7.4705882352941195,-0.49803921568627274,-4.482352941176469,7.720577728315533,90.35294121346637,31.72760656777108,1481.7372863355336,50.107051202279024,575.9779675003467,1
-18.487341772151897,25.653894210745513,-51.04158372041583,73.62567567567572,-123.99434567181581,95.50062318238471,24.369574036511153,-3.2016806722689077,-18.977011494252864,-21.0,5.40425531914893,-0.5141700404858378,1.4941176470588253,1.4941176470588253,2.4901960784313744,6.821943612338195,68.45751502306189,31.72760656777108,1481.7372863355336,50.107051202279024,575.9779675003467,1
-18.487341772151897,25.653894210745513,-51.04158372041583,73.62567567567572,-123.99434567181581,95.50062318238471,24.369574036511153,2.134453781512605,-8.75862068965516,-18.0,4.053191489361696,8.7408906882591,5.4784313725490215,-0.49803921568627274,-1.4941176470588218,6.144718110510334,32.6477166072102,31.72760656777108,1481.7372863355336,50.107051202279024,575.9779675003467,1
-19.44571567672833,25.928946272386497,-50.84494580844945,73.39684684684687,-123.96473331390266,95.44786040714584,24.472616632860024,2.134453781512605,-8.75862068965516,-18.0,4.053191489361696,8.7408906882591,5.4784313725490215,-0.49803921568627274,-1.4941176470588218,6.144718110510334,32.6477166072102,32.07320258585476,1489.833684183513,50.05691297589427,563.7661430456026,1
-19.44571567672833,25.928946272386497,-50.84494580844945,73.39684684684687,-123.96473331390266,95.44786040714584,24.472616632860024,-3.2016806722689077,-18.977011494252864,-22.0,14.861702127659568,10.79757085020242,12.450980392156865,-5.478431372549018,-8.466666666666665,12.029255446969538,41.56230362615507,32.07320258585476,1489.833684183513,50.05691297589427,563.7661430456026,1
-19.44571567672833,25.928946272386497,-50.84494580844945,73.39684684684687,-123.96473331390266,95.44786040714584,24.472616632860024,3.2016806722689077,-8.75862068965516,11.0,43.23404255319148,-1.5425101214574983,-6.474509803921567,-2.490196078431371,0.4980392156862763,9.649949891826534,197.56030027582514,32.07320258585476,1489.833684183513,50.05691297589427,563.7661430456026,1
-20.46592015579357,26.01357767596834,-50.564034505640336,73.05360360360362,-123.86109006120665,95.76443705857915,24.369574036511153,3.2016806722689077,-8.75862068965516,11.0,43.23404255319148,-1.5425101214574983,-6.474509803921567,-2.490196078431371,0.4980392156862763,9.649949891826534,197.56030027582514,32.34784411246741,1488.3951489243454,49.8770719284041,553.5449480050422,1
-20.46592015579357,26.01357767596834,-50.564034505640336,73.05360360360362,-123.86109006120665,95.76443705857915,24.369574036511153,2.134453781512605,-5.839080459770104,17.0,-7.105427357601002e-15,15.939271255060719,-19.423529411764704,0.4980392156862763,-0.49803921568627274,7.666551667435086,69.89608383975502,32.34784411246741,1488.3951489243454,49.8770719284041,553.5449480050422,1
-20.46592015579357,26.01357767596834,-50.564034505640336,73.05360360360362,-123.86109006120665,95.76443705857915,24.369574036511153,-3.2016806722689077,-21.89655172413792,-28.0,-7.105427357601002e-15,15.939271255060719,0.4980392156862763,-2.490196078431371,-0.49803921568627274,9.065472270158935,125.28642392271796,32.34784411246741,1488.3951489243454,49.8770719284041,553.5449480050422,1
-20.15676728334956,25.928946272386497,-50.67639902676398,72.76756756756765,-123.78705916642377,96.08101371001247,24.31805273833669,-3.2016806722689077,-21.89655172413792,-28.0,-7.105427357601002e-15,15.939271255060719,0.4980392156862763,-2.490196078431371,-0.49803921568627274,9.065472270158935,125.28642392271796,32.25403752750001,1487.2866406828432,49.79097095557271,549.0520983602896,1
-20.15676728334956,25.928946272386497,-50.67639902676398,72.76756756756765,-123.78705916642377,96.08101371001247,24.31805273833669,-1.0672268907563025,-18.977011494252864,-20.0,-32.42553191489362,1.5425101214574815,-7.470588235294116,2.4901960784313744,9.462745098039218,11.679476229140622,125.04762655889577,32.25403752750001,1487.2866406828432,49.79097095557271,549.0520983602896,1
-20.15676728334956,25.928946272386497,-50.67639902676398,72.76756756756765,-123.78705916642377,96.08101371001247,24.31805273833669,-1.0672268907563025,-29.195402298850567,-35.0,-33.776595744680854,-3.5991902834008176,-5.478431372549018,4.482352941176472,-3.48627450980392,14.510684255152245,230.01460387896108,32.25403752750001,1487.2866406828432,49.79097095557271,549.0520983602896,1
-20.249513145082762,25.801999167013737,-50.788763547887626,72.53873873873874,-123.7278344505975,96.45035313668467,24.31805273833669,-1.0672268907563025,-29.195402298850567,-35.0,-33.776595744680854,-3.5991902834008176,-5.478431372549018,4.482352941176472,-3.48627450980392,14.510684255152245,230.01460387896108,32.280091953328046,1486.5887557744527,49.70983381788003,546.9537734705323,1
-20.249513145082762,25.801999167013737,-50.788763547887626,72.53873873873874,-123.7278344505975,96.45035313668467,24.31805273833669,1.0672268907563025,-4.379310344827575,32.0,-8.10638297872341,8.7408906882591,16.43529411764706,0.4980392156862763,-0.49803921568627274,8.965647931448249,116.28374050904674,32.280091953328046,1486.5887557744527,49.70983381788003,546.9537734705323,1
-20.249513145082762,25.801999167013737,-50.788763547887626,72.53873873873874,-123.7278344505975,96.45035313668467,24.31805273833669,0.0,-13.137931034482747,19.0,22.968085106382972,-0.5141700404858378,3.4862745098039234,-2.490196078431371,-0.49803921568627274,7.761836998159141,85.43383671293967,32.280091953328046,1486.5887557744527,49.70983381788003,546.9537734705323,1
-20.342259006815965,25.844314868804656,-50.84494580844945,72.25270270270278,-123.6686097347712,96.81969256335688,24.266531440162225,0.0,-13.137931034482747,19.0,22.968085106382972,-0.5141700404858378,3.4862745098039234,-2.490196078431371,-0.49803921568627274,7.761836998159141,85.43383671293967,32.34383989469003,1490.8093686184236,49.647321126652294,539.510343994213,1
-20.342259006815965,25.844314868804656,-50.84494580844945,72.25270270270278,-123.6686097347712,96.81969256335688,24.266531440162225,-1.0672268907563025,-10.21839080459769,-6.0,-8.10638297872341,-19.024291497975714,-8.466666666666665,-3.48627450980392,3.4862745098039234,7.4819384822909525,31.04986180101417,32.34383989469003,1490.8093686184236,49.647321126652294,539.510343994213,1
-20.342259006815965,25.844314868804656,-50.84494580844945,72.25270270270278,-123.6686097347712,96.81969256335688,24.266531440162225,-2.134453781512605,-23.35632183908045,0.0,22.968085106382972,5.655870445344121,12.450980392156865,-6.474509803921567,-19.423529411764704,11.55796884752041,87.87457149132995,32.34383989469003,1490.8093686184236,49.647321126652294,539.510343994213,1
-20.033106134371955,25.759683465222814,-50.9573103295731,72.02387387387387,-123.6241911979015,97.1362692147902,24.266531440162225,-2.134453781512605,-23.35632183908045,0.0,22.968085106382972,5.655870445344121,12.450980392156865,-6.474509803921567,-19.423529411764704,11.55796884752041,87.87457149132995,32.250033309722625,1489.7971868883342,49.580289222889924,536.5159688881682,1
-20.033106134371955,25.759683465222814,-50.9573103295731,72.02387387387387,-123.6241911979015,97.1362692147902,24.266531440162225,0.0,-18.977011494252864,28.0,49.98936170212765,7.712550607287441,17.43137254901961,5.4784313725490215,2.4901960784313744,16.259865475458497,275.3639884320777,32.250033309722625,1489.7971868883342,49.580289222889924,536.5159688881682,1
-20.033106134371955,25.759683465222814,-50.9573103295731,72.02387387387387,-123.6241911979015,97.1362692147902,24.266531440162225,3.2016806722689077,-8.75862068965516,43.0,27.021276595744673,3.5991902834008016,0.4980392156862763,-0.49803921568627274,4.482352941176472,11.38239995170232,237.5975856854562,32.250033309722625,1489.7971868883342,49.580289222889924,536.5159688881682,1
-20.49683544303797,25.886630570595578,-50.84494580844945,71.68063063063062,-123.55016030311862,97.45284586622353,24.266531440162225,3.2016806722689077,-8.75862068965516,43.0,27.021276595744673,3.5991902834008016,0.4980392156862763,-0.49803921568627274,4.482352941176472,11.38239995170232,237.5975856854562,32.409470607361,1493.3614226337193,49.47073566989187,525.6889505033081,1
-20.49683544303797,25.886630570595578,-50.84494580844945,71.68063063063062,-123.55016030311862,97.45284586622353,24.266531440162225,-3.2016806722689077,-23.35632183908045,-23.0,31.074468085106375,0.5141700404858218,3.4862745098039234,-3.48627450980392,-0.49803921568627274,11.077153609029459,156.2264389903169,32.409470607361,1493.3614226337193,49.47073566989187,525.6889505033081,1
-20.49683544303797,25.886630570595578,-50.84494580844945,71.68063063063062,-123.55016030311862,97.45284586622353,24.266531440162225,0.0,-14.597701149425276,-11.0,35.127659574468076,-0.5141700404858378,0.4980392156862763,4.482352941176472,-2.490196078431371,8.588764874959164,143.53075252831363,32.409470607361,1493.3614226337193,49.47073566989187,525.6889505033081,1
-20.651411879259978,25.950104123281957,-50.81685467816854,71.2801801801802,-123.46132322937919,97.76942251765684,24.266531440162225,0.0,-14.597701149425276,-11.0,35.127659574468076,-0.5141700404858378,0.4980392156862763,4.482352941176472,-2.490196078431371,8.588764874959164,143.53075252831363,32.47279022690349,1495.8035327688326,49.34904632721023,515.319794847402,1
-20.651411879259978,25.950104123281957,-50.81685467816854,71.2801801801802,-123.46132322937919,97.76942251765684,24.266531440162225,2.134453781512605,-11.678160919540218,4.0,1.3510638297872273,16.96761133603238,-9.462745098039214,1.4941176470588253,-2.490196078431371,6.19729358630023,33.912281402181826,32.47279022690349,1495.8035327688326,49.34904632721023,515.319794847402,1
-20.651411879259978,25.950104123281957,-50.81685467816854,71.2801801801802,-123.46132322937919,97.76942251765684,24.266531440162225,-4.26890756302521,-11.678160919540218,-10.0,-10.808510638297879,3.5991902834008016,2.4901960784313744,-0.49803921568627274,6.4745098039215705,6.227189312787916,17.503770004389725,32.47279022690349,1495.8035327688326,49.34904632721023,515.319794847402,1
-20.404089581304767,25.780841316118277,-50.53594337535942,70.99414414414423,-123.40209851355289,98.03323639385127,24.31805273833669,-4.26890756302521,-11.678160919540218,-10.0,-10.808510638297879,3.5991902834008016,2.4901960784313744,-0.49803921568627274,6.4745098039215705,6.227189312787916,17.503770004389725,32.240291424260825,1477.5380134518987,49.10364294520732,512.5993015463554,1
-20.404089581304767,25.780841316118277,-50.53594337535942,70.99414414414423,-123.40209851355289,98.03323639385127,24.31805273833669,-3.2016806722689077,-33.574712643678154,-48.0,17.563829787234035,3.5991902834008016,-7.470588235294116,-4.482352941176469,-8.466666666666665,15.794877653714892,273.5306736960363,32.240291424260825,1477.5380134518987,49.10364294520732,512.5993015463554,1
-20.404089581304767,25.780841316118277,-50.53594337535942,70.99414414414423,-123.40209851355289,98.03323639385127,24.31805273833669,1.0672268907563025,-21.89655172413792,-28.0,-6.755319148936177,1.5425101214574815,5.4784313725490215,3.4862745098039234,10.458823529411767,9.835642162131574,98.60672583882805,32.240291424260825,1477.5380134518987,49.10364294520732,512.5993015463554,1
-20.49683544303797,25.738525614327354,-50.45166998451669,70.65090090090098,-123.34287379772661,98.40257582052348,24.31805273833669,1.0672268907563025,-21.89655172413792,-28.0,-6.755319148936177,1.5425101214574815,5.4784313725490215,3.4862745098039234,10.458823529411767,9.835642162131574,98.60672583882805,32.22901034729401,1473.3244383170695,48.94703216658167,505.9783146928775,1
-20.49683544303797,25.738525614327354,-50.45166998451669,70.65090090090098,-123.34287379772661,98.40257582052348,24.31805273833669,-2.134453781512605,-16.057471264367805,11.0,44.585106382978715,4.627530364372461,-0.49803921568627274,-3.48627450980392,1.4941176470588253,10.485374145722574,218.24771393730757,32.22901034729401,1473.3244383170695,48.94703216658167,505.9783146928775,1
-20.49683544303797,25.738525614327354,-50.45166998451669,70.65090090090098,-123.34287379772661,98.40257582052348,24.31805273833669,-3.2016806722689077,-23.35632183908045,-14.0,43.23404255319148,2.5708502024291415,-11.454901960784312,-1.4941176470588218,15.439215686274512,14.343891320135954,193.34271958330766,32.22901034729401,1473.3244383170695,48.94703216658167,505.9783146928775,1
-20.12585199610516,25.759683465222814,-50.64830789648307,70.42207207207207,-123.28364908190031,98.7719152471957,24.266531440162225,-3.2016806722689077,-23.35632183908045,-14.0,43.23404255319148,2.5708502024291415,-11.454901960784312,-1.4941176470588218,15.439215686274512,14.343891320135954,193.34271958330766,32.177947785937015,1479.2139704489705,48.943354477925986,500.86238863689164,1
-20.12585199610516,25.759683465222814,-50.64830789648307,70.42207207207207,-123.28364908190031,98.7719152471957,24.266531440162225,-2.134453781512605,-14.597701149425276,-7.0,1.3510638297872273,2.5708502024291415,-2.490196078431371,2.4901960784313744,8.466666666666669,5.137640973335458,21.143882189169535,32.177947785937015,1479.2139704489705,48.943354477925986,500.86238863689164,1
-20.12585199610516,25.759683465222814,-50.64830789648307,70.42207207207207,-123.28364908190031,98.7719152471957,24.266531440162225,-1.0672268907563025,-16.057471264367805,9.0,8.106382978723397,7.712550607287441,1.4941176470588253,-0.49803921568627274,3.4862745098039234,5.927757889210495,28.386610046657413,32.177947785937015,1479.2139704489705,48.943354477925986,500.86238863689164,1
-19.229308666017523,25.696209912536435,-51.06967485069674,70.30765765765773,-123.28364908190031,98.87744079767346,24.369574036511153,-1.0672268907563025,-16.057471264367805,9.0,8.106382978723397,7.712550607287441,1.4941176470588253,-0.49803921568627274,3.4862745098039234,5.927757889210495,28.386610046657413,31.998397809750234,1487.5187003014096,49.024514140296965,500.68232922744414,1
-19.229308666017523,25.696209912536435,-51.06967485069674,70.30765765765773,-123.28364908190031,98.87744079767346,24.369574036511153,-1.0672268907563025,-10.21839080459769,29.0,6.755319148936163,10.79757085020242,2.4901960784313744,-0.49803921568627274,-1.4941176470588218,7.790107579458631,90.28166503675759,31.998397809750234,1487.5187003014096,49.024514140296965,500.68232922744414,1
-19.229308666017523,25.696209912536435,-51.06967485069674,70.30765765765773,-123.28364908190031,98.87744079767346,24.369574036511153,2.134453781512605,-4.379310344827575,16.0,4.053191489361696,9.76923076923076,3.4862745098039234,6.4745098039215705,-4.482352941176469,6.347415454979324,20.49255635668882,31.998397809750234,1487.5187003014096,49.024514140296965,500.68232922744414,1
-19.383885102239528,25.928946272386497,-51.29440389294403,70.1360360360361,-123.25403672398718,98.98296634815122,24.42109533468556,2.134453781512605,-4.379310344827575,16.0,4.053191489361696,9.76923076923076,3.4862745098039234,6.4745098039215705,-4.482352941176469,6.347415454979324,20.49255635668882,32.20241175585669,1505.8299512390754,49.11979540045555,492.11338791454574,1
-19.383885102239528,25.928946272386497,-51.29440389294403,70.1360360360361,-123.25403672398718,98.98296634815122,24.42109533468556,-3.2016806722689077,-21.89655172413792,0.0,13.510638297872333,2.5708502024291415,-0.49803921568627274,4.482352941176472,-14.44313725490196,7.575406288559126,64.10083653341924,32.20241175585669,1505.8299512390754,49.11979540045555,492.11338791454574,1
-19.383885102239528,25.928946272386497,-51.29440389294403,70.1360360360361,-123.25403672398718,98.98296634815122,24.42109533468556,2.134453781512605,-17.517241379310335,10.0,68.90425531914892,6.6842105263157805,-1.4941176470588218,6.4745098039215705,-0.49803921568627274,14.213353459119288,518.8755836152618,32.20241175585669,1505.8299512390754,49.11979540045555,492.11338791454574,1
-18.796494644595906,25.738525614327354,-51.097765980977655,70.1360360360361,-123.25403672398718,98.98296634815122,24.42109533468556,2.134453781512605,-17.517241379310335,10.0,68.90425531914892,6.6842105263157805,-1.4941176470588218,6.4745098039215705,-0.49803921568627274,14.213353459119288,518.8755836152618,31.87759541330031,1488.425977588,48.9907758771137,496.1142883847697,1
-18.796494644595906,25.738525614327354,-51.097765980977655,70.1360360360361,-123.25403672398718,98.98296634815122,24.42109533468556,1.0672268907563025,-11.678160919540218,12.0,40.531914893617014,0.5141700404858218,1.4941176470588253,-11.454901960784312,2.4901960784313744,10.153836053834233,177.0662945130417,31.87759541330031,1488.425977588,48.9907758771137,496.1142883847697,1
-18.796494644595906,25.738525614327354,-51.097765980977655,70.1360360360361,-123.25403672398718,98.98296634815122,24.42109533468556,2.134453781512605,-2.9195402298850457,26.0,-12.159574468085111,4.627530364372461,0.4980392156862763,-10.458823529411763,-6.474509803921567,8.159058924109353,68.19160946879062,31.87759541330031,1488.425977588,48.9907758771137,496.1142883847697,1
-18.88924050632911,25.759683465222814,-51.097765980977655,70.1360360360361,-123.25403672398718,98.98296634815122,24.42109533468556,2.134453781512605,-2.9195402298850457,26.0,-12.159574468085111,4.627530364372461,0.4980392156862763,-10.458823529411763,-6.474509803921567,8.159058924109353,68.19160946879062,31.91556331750986,1489.6638434072947,48.99782849407885,495.62246995894395,1
-18.88924050632911,25.759683465222814,-51.097765980977655,70.1360360360361,-123.25403672398718,98.98296634815122,24.42109533468556,1.0672268907563025,-21.89655172413792,6.0,47.28723404255318,0.5141700404858218,1.4941176470588253,-9.462745098039214,-3.48627450980392,11.401039994104398,259.5721662262881,31.91556331750986,1489.6638434072947,48.99782849407885,495.62246995894395,1
-18.88924050632911,25.759683465222814,-51.097765980977655,70.1360360360361,-123.25403672398718,98.98296634815122,24.42109533468556,-1.0672268907563025,-10.21839080459769,33.0,12.159574468085099,0.5141700404858218,0.4980392156862763,-7.470588235294116,2.4901960784313744,8.427273216667086,119.54020616445088,31.91556331750986,1489.6638434072947,48.99782849407885,495.62246995894395,1
-19.012901655306717,25.759683465222814,-50.90112806901127,70.1360360360361,-123.25403672398718,98.98296634815122,24.369574036511153,-1.0672268907563025,-10.21839080459769,33.0,12.159574468085099,0.5141700404858218,0.4980392156862763,-7.470588235294116,2.4901960784313744,8.427273216667086,119.54020616445088,31.89123772984693,1483.0538978790175,48.932282523423396,495.2224314590677,1
-19.012901655306717,25.759683465222814,-50.90112806901127,70.1360360360361,-123.25403672398718,98.98296634815122,24.369574036511153,2.134453781512605,-11.678160919540218,39.0,83.7659574468085,8.7408906882591,1.4941176470588253,2.4901960784313744,3.4862745098039234,19.09875638392682,836.7945347317184,31.89123772984693,1483.0538978790175,48.932282523423396,495.2224314590677,1
-19.012901655306717,25.759683465222814,-50.90112806901127,70.1360360360361,-123.25403672398718,98.98296634815122,24.369574036511153,3.2016806722689077,-24.81609195402298,-33.0,-8.10638297872341,-7.712550607287458,-2.490196078431371,4.482352941176472,-2.490196078431371,10.787431413792746,134.5471842449277,31.89123772984693,1483.0538978790175,48.932282523423396,495.2224314590677,1
-19.754868549172343,25.611578508954594,-51.013492590134916,69.9072072072072,-123.20961818711746,99.24678022434566,24.472616632860024,3.2016806722689077,-24.81609195402298,-33.0,-8.10638297872341,-7.712550607287458,-2.490196078431371,4.482352941176472,-2.490196078431371,10.787431413792746,134.5471842449277,32.12664654942062,1484.4362694254332,48.84409276876556,494.0554021320828,1
-19.754868549172343,25.611578508954594,-51.013492590134916,69.9072072072072,-123.20961818711746,99.24678022434566,24.472616632860024,-2.134453781512605,-5.839080459770104,29.0,-7.105427357601002e-15,10.79757085020242,4.482352941176472,7.4705882352941195,5.4784313725490215,8.150309705063094,81.53318432756798,32.12664654942062,1484.4362694254332,48.84409276876556,494.0554021320828,1
-19.754868549172343,25.611578508954594,-51.013492590134916,69.9072072072072,-123.20961818711746,99.24678022434566,24.472616632860024,-2.134453781512605,-18.977011494252864,-5.0,18.91489361702127,11.82591093117408,-4.482352941176469,2.4901960784313744,1.4941176470588253,8.164867061328437,54.644678143135124,32.12664654942062,1484.4362694254332,48.84409276876556,494.0554021320828,1
-18.981986368062316,25.653894210745513,-51.238221632382206,69.9072072072072,-123.20961818711746,99.24678022434566,24.42109533468556,-2.134453781512605,-18.977011494252864,-5.0,18.91489361702127,11.82591093117408,-4.482352941176469,2.4901960784313744,1.4941176470588253,8.164867061328437,54.644678143135124,31.95803407039668,1490.87067121762,48.93310768344497,493.5740905288898,1
-18.981986368062316,25.653894210745513,-51.238221632382206,69.9072072072072,-123.20961818711746,99.24678022434566,24.42109533468556,1.0672268907563025,-11.678160919540218,-11.0,-8.10638297872341,8.7408906882591,-7.470588235294116,-0.49803921568627274,24.403921568627453,9.120651312110859,55.25055820476875,31.95803407039668,1490.87067121762,48.93310768344497,493.5740905288898,1
-18.981986368062316,25.653894210745513,-51.238221632382206,69.9072072072072,-123.20961818711746,99.24678022434566,24.42109533468556,-4.26890756302521,-16.057471264367805,-4.0,-8.10638297872341,11.82591093117408,4.482352941176472,-6.474509803921567,3.4862745098039234,7.337726249024058,20.15123322008227,31.95803407039668,1490.87067121762,48.93310768344497,493.5740905288898,1
-18.92015579357351,25.738525614327354,-50.84494580844945,69.9072072072072,-123.20961818711746,99.29954299958456,24.42109533468556,-4.26890756302521,-16.057471264367805,-4.0,-8.10638297872341,11.82591093117408,4.482352941176472,-6.474509803921567,3.4862745098039234,7.337726249024058,20.15123322008227,31.834542405450104,1479.7696896249308,48.83022620999467,490.762429708599,1
-18.92015579357351,25.738525614327354,-50.84494580844945,69.9072072072072,-123.20961818711746,99.29954299958456,24.42109533468556,-4.26890756302521,-17.517241379310335,4.0,41.88297872340425,-3.5991902834008176,3.4862745098039234,2.4901960784313744,-10.458823529411763,10.962951508348459,182.06673209355125,31.834542405450104,1479.7696896249308,48.83022620999467,490.762429708599,1
-18.92015579357351,25.738525614327354,-50.84494580844945,69.9072072072072,-123.20961818711746,99.29954299958456,24.42109533468556,-3.2016806722689077,-23.35632183908045,-22.0,16.212765957446802,6.6842105263157805,2.4901960784313744,3.4862745098039234,-4.482352941176469,10.239225315565463,78.14482474023241,31.834542405450104,1479.7696896249308,48.83022620999467,490.762429708599,1
-16.354186952288217,25.611578508954594,-50.84494580844945,70.30765765765773,-123.35767997668319,98.82467802243457,24.62718052738336,-3.2016806722689077,-23.35632183908045,-22.0,16.212765957446802,6.6842105263157805,2.4901960784313744,3.4862745098039234,-4.482352941176469,10.239225315565463,78.14482474023241,30.93690375656409,1466.0563379866167,48.92139399168726,502.2099115106106,1
-16.354186952288217,25.611578508954594,-50.84494580844945,70.30765765765773,-123.35767997668319,98.82467802243457,24.62718052738336,1.0672268907563025,-17.517241379310335,-28.0,-20.265957446808514,-6.6842105263157965,3.4862745098039234,4.482352941176472,-10.458823529411763,11.495260902947887,90.26926028928008,30.93690375656409,1466.0563379866167,48.92139399168726,502.2099115106106,1
-16.354186952288217,25.611578508954594,-50.84494580844945,70.30765765765773,-123.35767997668319,98.82467802243457,24.62718052738336,-3.2016806722689077,-17.517241379310335,10.0,39.18085106382978,11.82591093117408,-10.458823529411763,-2.490196078431371,-2.490196078431371,12.1456124666072,147.6796698902413,30.93690375656409,1466.0563379866167,48.92139399168726,502.2099115106106,1
-19.07473222979552,25.759683465222814,-50.81685467816854,70.30765765765773,-123.35767997668319,98.82467802243457,24.62718052738336,-3.2016806722689077,-17.517241379310335,10.0,39.18085106382978,11.82591093117408,-10.458823529411763,-2.490196078431371,-2.490196078431371,12.1456124666072,147.6796698902413,31.883756791062293,1480.275560377914,48.961398600349696,498.712539104998,1
-19.07473222979552,25.759683465222814,-50.81685467816854,70.30765765765773,-123.35767997668319,98.82467802243457,24.62718052738336,0.0,-8.75862068965516,26.0,13.510638297872333,3.5991902834008016,-11.454901960784312,3.4862745098039234,-7.470588235294116,9.28502674710133,65.38425117320337,31.883756791062293,1480.275560377914,48.961398600349696,498.712539104998,1
-19.07473222979552,25.759683465222814,-50.81685467816854,70.30765765765773,-123.35767997668319,98.82467802243457,24.62718052738336,-1.0672268907563025,-14.597701149425276,14.0,-9.457446808510642,-5.655870445344137,8.466666666666669,2.4901960784313744,-1.4941176470588218,7.153653210774152,28.911985304455445,31.883756791062293,1480.275560377914,48.961398600349696,498.712539104998,1
-17.31256085686465,25.780841316118277,-50.9573103295731,70.65090090090098,-123.41690469250946,98.7719152471957,24.575659229208895,-1.0672268907563025,-14.597701149425276,14.0,-9.457446808510642,-5.655870445344137,8.466666666666669,2.4901960784313744,-1.4941176470588218,7.153653210774152,28.911985304455445,31.350237500852007,1479.625732653482,49.12968418219745,505.8357247864158,1
-17.31256085686465,25.780841316118277,-50.9573103295731,70.65090090090098,-123.41690469250946,98.7719152471957,24.575659229208895,-1.0672268907563025,-1.4597701149425166,16.0,36.478723404255305,6.6842105263157805,-5.478431372549018,0.4980392156862763,2.4901960784313744,8.769574700367071,150.83780572281242,31.350237500852007,1479.625732653482,49.12968418219745,505.8357247864158,1
-17.31256085686465,25.780841316118277,-50.9573103295731,70.65090090090098,-123.41690469250946,98.7719152471957,24.575659229208895,-2.134453781512605,-32.114942528735625,-28.0,2.7021276595744617,-1.5425101214574983,-2.490196078431371,-4.482352941176469,-9.462745098039214,10.366166026115906,155.1118832105169,31.350237500852007,1479.625732653482,49.12968418219745,505.8357247864158,1
-15.643135345666987,25.928946272386497,-51.097765980977655,71.22297297297303,-123.56496648207519,98.24428749480683,24.62718052738336,-2.134453781512605,-32.114942528735625,-28.0,2.7021276595744617,-1.5425101214574983,-2.490196078431371,-4.482352941176469,-9.462745098039214,10.366166026115906,155.1118832105169,30.889949199677048,1486.397200684495,49.4165617421124,515.0070494579452,1
-15.643135345666987,25.928946272386497,-51.097765980977655,71.22297297297303,-123.56496648207519,98.24428749480683,24.62718052738336,-2.134453781512605,-27.735632183908038,-35.0,10.808510638297864,0.5141700404858218,4.482352941176472,-5.478431372549018,-6.474509803921567,11.578507595231423,162.2055327095151,30.889949199677048,1486.397200684495,49.4165617421124,515.0070494579452,1
-15.643135345666987,25.928946272386497,-51.097765980977655,71.22297297297303,-123.56496648207519,98.24428749480683,24.62718052738336,-4.26890756302521,-24.81609195402298,-21.0,-9.457446808510642,-4.627530364372477,-8.466666666666665,-3.48627450980392,-0.49803921568627274,9.57761963526102,76.59422050025572,30.889949199677048,1486.397200684495,49.4165617421124,515.0070494579452,1
-16.44693281402142,26.1405247813411,-51.12585711125856,71.5090090090091,-123.65380355581462,97.55837141670129,24.73022312373223,-4.26890756302521,-24.81609195402298,-21.0,-9.457446808510642,-4.627530364372477,-8.466666666666665,-3.48627450980392,-0.49803921568627274,9.57761963526102,76.59422050025572,31.237771568873693,1497.735517603893,49.591796967202924,516.3398456732252,1
-16.44693281402142,26.1405247813411,-51.12585711125856,71.5090090090091,-123.65380355581462,97.55837141670129,24.73022312373223,-2.134453781512605,-21.89655172413792,-7.0,-1.3510638297872397,8.7408906882591,-3.48627450980392,-1.4941176470588218,1.4941176470588253,5.949683728452303,49.23891530640681,31.237771568873693,1497.735517603893,49.591796967202924,516.3398456732252,1
-16.44693281402142,26.1405247813411,-51.12585711125856,71.5090090090091,-123.65380355581462,97.55837141670129,24.73022312373223,-3.2016806722689077,-8.75862068965516,2.0,22.968085106382972,6.6842105263157805,7.4705882352941195,-1.4941176470588218,5.4784313725490215,7.256966781190598,47.131792978351996,31.237771568873693,1497.735517603893,49.591796967202924,516.3398456732252,1
-18.487341772151897,26.1405247813411,-51.06967485069674,71.5090090090091,-123.65380355581462,97.5056086414624,24.781744421906694,-3.2016806722689077,-8.75862068965516,2.0,22.968085106382972,6.6842105263157805,7.4705882352941195,-1.4941176470588218,5.4784313725490215,7.256966781190598,47.131792978351996,31.899180468063246,1502.4449715294588,49.57306954701565,516.254710855295,1
-18.487341772151897,26.1405247813411,-51.06967485069674,71.5090090090091,-123.65380355581462,97.5056086414624,24.781744421906694,-3.2016806722689077,-13.137931034482747,-14.0,-8.10638297872341,11.82591093117408,-8.466666666666665,-1.4941176470588218,-0.49803921568627274,7.591341143257614,28.222685366476632,31.899180468063246,1502.4449715294588,49.57306954701565,516.254710855295,1
-18.487341772151897,26.1405247813411,-51.06967485069674,71.5090090090091,-123.65380355581462,97.5056086414624,24.781744421906694,2.134453781512605,-7.298850574712632,13.0,17.563829787234035,20.05263157894736,6.4745098039215705,0.4980392156862763,-6.474509803921567,9.187103068242006,49.46985112340341,31.899180468063246,1502.4449715294588,49.57306954701565,516.254710855295,1
-18.487341772151897,25.99241982507288,-51.04158372041583,71.5090090090091,-123.63899737685807,97.5056086414624,24.73022312373223,2.134453781512605,-7.298850574712632,13.0,17.563829787234035,20.05263157894736,6.4745098039215705,0.4980392156862763,-6.474509803921567,9.187103068242006,49.46985112340341,31.840448439213535,1495.410927136404,49.51433751816594,519.6893334565201,1
-18.487341772151897,25.99241982507288,-51.04158372041583,71.5090090090091,-123.63899737685807,97.5056086414624,24.73022312373223,3.2016806722689077,-14.597701149425276,15.0,-18.914893617021278,-0.5141700404858378,5.4784313725490215,-7.470588235294116,6.4745098039215705,8.95649686137075,41.767528173292234,31.840448439213535,1495.410927136404,49.51433751816594,519.6893334565201,1
-18.487341772151897,25.99241982507288,-51.04158372041583,71.5090090090091,-123.63899737685807,97.5056086414624,24.73022312373223,-2.134453781512605,-16.057471264367805,-12.0,13.510638297872333,-5.655870445344137,-0.49803921568627274,5.4784313725490215,-1.4941176470588218,7.103627753048874,35.67513099115956,31.840448439213535,1495.410927136404,49.51433751816594,519.6893334565201,1
-17.86903602726387,25.928946272386497,-51.013492590134916,71.62342342342345,-123.6686097347712,97.34732031574575,24.781744421906694,-2.134453781512605,-16.057471264367805,-12.0,13.510638297872333,-5.655870445344137,-0.49803921568627274,5.4784313725490215,-1.4941176470588218,7.103627753048874,35.67513099115956,31.60382496326176,1489.4928587468962,49.52195409531495,523.6648258378068,1
-17.86903602726387,25.928946272386497,-51.013492590134916,71.62342342342345,-123.6686097347712,97.34732031574575,24.781744421906694,-4.26890756302521,-23.35632183908045,-15.0,22.968085106382972,0.5141700404858218,-1.4941176470588218,-3.48627450980392,-1.4941176470588218,9.072749294112002,96.37704184723998,31.60382496326176,1489.4928587468962,49.52195409531495,523.6648258378068,1
-17.86903602726387,25.928946272386497,-51.013492590134916,71.62342342342345,-123.6686097347712,97.34732031574575,24.781744421906694,1.0672268907563025,-18.977011494252864,6.0,-1.3510638297872397,-4.627530364372477,-6.474509803921567,1.4941176470588253,1.4941176470588253,5.185697209651012,35.96539387440438,31.60382496326176,1489.4928587468962,49.52195409531495,523.6648258378068,1
-18.796494644595906,26.0347355268638,-50.98540145985401,71.62342342342345,-123.6686097347712,97.34732031574575,24.73022312373223,1.0672268907563025,-18.977011494252864,6.0,-1.3510638297872397,-4.627530364372477,-6.474509803921567,1.4941176470588253,1.4941176470588253,5.185697209651012,35.96539387440438,31.93887721043791,1496.3444036834242,49.54785347004708,521.1320241997295,1
-18.796494644595906,26.0347355268638,-50.98540145985401,71.62342342342345,-123.6686097347712,97.34732031574575,24.73022312373223,-2.134453781512605,-16.057471264367805,-10.0,-18.914893617021278,-6.6842105263157965,2.4901960784313744,-2.490196078431371,-15.439215686274508,9.276329629044342,46.74562145523453,31.93887721043791,1496.3444036834242,49.54785347004708,521.1320241997295,1
-18.796494644595906,26.0347355268638,-50.98540145985401,71.62342342342345,-123.6686097347712,97.34732031574575,24.73022312373223,1.0672268907563025,-10.21839080459769,20.0,44.585106382978715,13.8825910931174,-1.4941176470588218,10.458823529411767,11.454901960784316,14.145144788588127,189.75224541212964,31.93887721043791,1496.3444036834242,49.54785347004708,521.1320241997295,1
-19.198393378773122,26.055893377759258,-51.06967485069674,71.62342342342345,-123.6686097347712,97.40008309098464,24.73022312373223,1.0672268907563025,-10.21839080459769,20.0,44.585106382978715,13.8825910931174,-1.4941176470588218,10.458823529411767,11.454901960784316,14.145144788588127,189.75224541212964,32.10798720240971,1502.0137211778779,49.582997217293155,520.7576064048741,1
-19.198393378773122,26.055893377759258,-51.06967485069674,71.62342342342345,-123.6686097347712,97.40008309098464,24.73022312373223,-2.134453781512605,-11.678160919540218,36.0,31.074468085106375,6.6842105263157805,0.4980392156862763,16.43529411764706,3.4862745098039234,13.49886264445153,181.71475382028254,32.10798720240971,1502.0137211778779,49.582997217293155,520.7576064048741,1
-19.198393378773122,26.055893377759258,-51.06967485069674,71.62342342342345,-123.6686097347712,97.40008309098464,24.73022312373223,0.0,-21.89655172413792,-12.0,-12.159574468085111,1.5425101214574815,-7.470588235294116,-5.478431372549018,4.482352941176472,8.128751107837516,50.14217090235915,32.10798720240971,1502.0137211778779,49.582997217293155,520.7576064048741,1
-19.16747809152872,26.1405247813411,-51.097765980977655,71.62342342342345,-123.6686097347712,97.40008309098464,24.73022312373223,0.0,-21.89655172413792,-12.0,-12.159574468085111,1.5425101214574815,-7.470588235294116,-5.478431372549018,4.482352941176472,8.128751107837516,50.14217090235915,32.13525628461583,1506.3519948192607,49.620571395247396,518.8100951045672,1
-19.16747809152872,26.1405247813411,-51.097765980977655,71.62342342342345,-123.6686097347712,97.40008309098464,24.73022312373223,3.2016806722689077,-10.21839080459769,28.0,24.319148936170205,4.627530364372461,1.4941176470588253,-0.49803921568627274,0.4980392156862763,9.10711835698008,121.53042107644451,32.13525628461583,1506.3519948192607,49.620571395247396,518.8100951045672,1
-19.16747809152872,26.1405247813411,-51.097765980977655,71.62342342342345,-123.6686097347712,97.40008309098464,24.73022312373223,-5.336134453781512,-24.81609195402298,-18.0,58.095744680851055,3.5991902834008016,12.450980392156865,-2.490196078431371,-10.458823529411763,16.905895171507044,334.3604454217892,32.13525628461583,1506.3519948192607,49.620571395247396,518.8100951045672,1
-20.12585199610516,25.99241982507288,-51.013492590134916,71.39459459459465,-123.59457883998834,97.71665974241796,24.678701825557766,-5.336134453781512,-24.81609195402298,-18.0,58.095744680851055,3.5991902834008016,12.450980392156865,-2.490196078431371,-10.458823529411763,16.905895171507044,334.3604454217892,32.37725480377099,1501.808647356112,49.46683566993415,517.1334791721534,1
-20.12585199610516,25.99241982507288,-51.013492590134916,71.39459459459465,-123.59457883998834,97.71665974241796,24.678701825557766,-2.134453781512605,-20.436781609195393,-15.0,6.755319148936163,0.5141700404858218,0.4980392156862763,7.4705882352941195,7.4705882352941195,7.534992533300563,50.110737647100954,32.37725480377099,1501.808647356112,49.46683566993415,517.1334791721534,1
-20.12585199610516,25.99241982507288,-51.013492590134916,71.39459459459465,-123.59457883998834,97.71665974241796,24.678701825557766,-2.134453781512605,-16.057471264367805,-3.0,13.510638297872333,9.76923076923076,4.482352941176472,7.4705882352941195,11.454901960784316,8.4849546562798,25.790543519800757,32.37725480377099,1501.808647356112,49.46683566993415,517.1334791721534,1
-23.15555014605647,26.077051228654717,-51.12585711125856,70.42207207207207,-123.35767997668319,98.40257582052348,24.575659229208895,-2.134453781512605,-16.057471264367805,-3.0,13.510638297872333,9.76923076923076,4.482352941176472,7.4705882352941195,11.454901960784316,8.4849546562798,25.790543519800757,33.45281949532325,1527.746027664983,49.208326803995114,494.3779102602352,1
-23.15555014605647,26.077051228654717,-51.12585711125856,70.42207207207207,-123.35767997668319,98.40257582052348,24.575659229208895,4.26890756302521,-13.137931034482747,3.0,1.3510638297872273,-4.627530364372477,8.466666666666669,-2.490196078431371,7.4705882352941195,5.6016104715074775,15.105586418943416,33.45281949532325,1527.746027664983,49.208326803995114,494.3779102602352,1
-23.15555014605647,26.077051228654717,-51.12585711125856,70.42207207207207,-123.35767997668319,98.40257582052348,24.575659229208895,-3.2016806722689077,-11.678160919540218,25.0,47.28723404255318,7.712550607287441,-12.450980392156861,-0.49803921568627274,-13.44705882352941,15.159463084127786,223.54570295035117,33.45281949532325,1527.746027664983,49.208326803995114,494.3779102602352,1
-29.864167478091524,26.796418159100366,-51.49104180491041,68.01936936936943,-122.70620810259399,100.09098462816786,24.163488843813354,-3.2016806722689077,-11.678160919540218,25.0,47.28723404255318,7.712550607287441,-12.450980392156861,-0.49803921568627274,-13.44705882352941,15.159463084127786,223.54570295035117,36.05054248070076,1634.5116742523605,48.76894311112674,430.3902925950799,1
-29.864167478091524,26.796418159100366,-51.49104180491041,68.01936936936943,-122.70620810259399,100.09098462816786,24.163488843813354,2.134453781512605,-23.35632183908045,-15.0,-2.7021276595744723,-0.5141700404858378,-0.49803921568627274,2.4901960784313744,9.462745098039218,7.019756714101279,69.2023310391132,36.05054248070076,1634.5116742523605,48.76894311112674,430.3902925950799,1
-29.864167478091524,26.796418159100366,-51.49104180491041,68.01936936936943,-122.70620810259399,100.09098462816786,24.163488843813354,10.672268907563025,-5.839080459770104,-22.0,-6.755319148936177,7.712550607287441,1.4941176470588253,-11.454901960784312,-5.478431372549018,8.925833762993612,37.600895398049666,36.05054248070076,1634.5116742523605,48.76894311112674,430.3902925950799,1
-39.23149951314508,26.669471053727605,-52.895598318955976,63.328378378378375,-121.61055085980763,102.94017449106772,24.060446247464483,10.672268907563025,-5.839080459770104,-22.0,-6.755319148936177,7.712550607287441,1.4941176470588253,-11.454901960784312,-5.478431372549018,8.925833762993612,37.600895398049666,39.59885629527622,1810.0409636851225,47.631149250353985,356.7546895562617,1
-39.23149951314508,26.669471053727605,-52.895598318955976,63.328378378378375,-121.61055085980763,102.94017449106772,24.060446247464483,-3.2016806722689077,-16.057471264367805,-9.0,2.7021276595744617,12.85425101214574,-3.48627450980392,7.4705882352941195,6.4745098039215705,7.655862894672065,23.230226849861847,39.59885629527622,1810.0409636851225,47.631149250353985,356.7546895562617,1
-39.23149951314508,26.669471053727605,-52.895598318955976,63.328378378378375,-121.61055085980763,102.94017449106772,24.060446247464483,-4.26890756302521,-21.89655172413792,26.0,-12.159574468085111,6.6842105263157805,-19.423529411764704,-7.470588235294116,-15.439215686274508,14.167822201862169,61.69307823488553,39.59885629527622,1810.0409636851225,47.631149250353985,356.7546895562617,1
-55.833008763388506,27.09262807163681,-54.74961291749612,54.97612612612613,-119.62652287962692,108.26921479019526,23.957403651115612,-4.26890756302521,-21.89655172413792,26.0,-12.159574468085111,6.6842105263157805,-19.423529411764704,-7.470588235294116,-15.439215686274508,14.167822201862169,61.69307823488553,45.89174991750715,2262.664566862786,45.606122371753024,257.07493045874753,1
-55.833008763388506,27.09262807163681,-54.74961291749612,54.97612612612613,-119.62652287962692,108.26921479019526,23.957403651115612,1.0672268907563025,-13.137931034482747,-2.0,29.72340425531914,3.5991902834008016,-2.490196078431371,1.4941176470588253,3.4862745098039234,7.124792587406638,98.3807650037012,45.89174991750715,2262.664566862786,45.606122371753024,257.07493045874753,1
-55.833008763388506,27.09262807163681,-54.74961291749612,54.97612612612613,-119.62652287962692,108.26921479019526,23.957403651115612,-2.134453781512605,-17.517241379310335,-9.0,12.159574468085099,2.5708502024291415,-22.41176470588235,-5.478431372549018,-3.48627450980392,9.344823802446559,56.10326039968147,45.89174991750715,2262.664566862786,45.606122371753024,257.07493045874753,1
-74.38218111002921,28.679466888796327,-54.9462508294625,43.420270270270294,-116.68009326726903,116.60573327793935,23.54523326572007,-2.134453781512605,-17.517241379310335,-9.0,12.159574468085099,2.5708502024291415,-22.41176470588235,-5.478431372549018,-3.48627450980392,9.344823802446559,56.10326039968147,52.669299609429345,2998.7865563331297,42.34866266284304,173.34724179463154,1
-74.38218111002921,28.679466888796327,-54.9462508294625,43.420270270270294,-116.68009326726903,116.60573327793935,23.54523326572007,-16.008403361344538,-35.03448275862068,-17.0,1.3510638297872273,0.5141700404858218,0.4980392156862763,-16.435294117647057,-1.4941176470588218,11.041946371328804,153.13948437786524,52.669299609429345,2998.7865563331297,42.34866266284304,173.34724179463154,1
-74.38218111002921,28.679466888796327,-54.9462508294625,43.420270270270294,-116.68009326726903,116.60573327793935,23.54523326572007,-9.605042016806722,-18.977011494252864,21.0,39.18085106382978,9.76923076923076,36.35686274509804,-9.462745098039214,-3.48627450980392,18.479752212132663,173.63856373508847,52.669299609429345,2998.7865563331297,42.34866266284304,173.34724179463154,1
-82.0491723466407,31.556934610578917,-52.052864410528635,31.463963963964034,-113.00816088603906,126.68342334856669,21.53590263691683,-9.605042016806722,-18.977011494252864,21.0,39.18085106382978,9.76923076923076,36.35686274509804,-9.462745098039214,-3.48627450980392,18.479752212132663,173.63856373508847,55.21965712258275,3466.1207533538795,38.35792099502387,140.66576725069115,1
-82.0491723466407,31.556934610578917,-52.052864410528635,31.463963963964034,-113.00816088603906,126.68342334856669,21.53590263691683,-1.0672268907563025,2.919540229885069,43.0,31.074468085106375,5.655870445344121,-0.49803921568627274,-10.458823529411763,-8.466666666666665,12.892579382857072,243.97782537644224,55.21965712258275,3466.1207533538795,38.35792099502387,140.66576725069115,1
-82.0491723466407,31.556934610578917,-52.052864410528635,31.463963963964034,-113.00816088603906,126.68342334856669,21.53590263691683,6.4033613445378155,-14.597701149425276,-3.0,-6.755319148936177,-0.5141700404858378,-5.478431372549018,-6.474509803921567,-17.431372549019606,7.581858176109412,32.12903888822759,55.21965712258275,3466.1207533538795,38.35792099502387,140.66576725069115,1
-25.350535540408956,32.78408996251561,-57.30590577305905,28.660810810810858,-111.43870591664236,127.0,18.959837728194714,6.4033613445378155,-14.597701149425276,-3.0,-6.755319148936177,-0.5141700404858378,-5.478431372549018,-6.474509803921567,-17.431372549019606,7.581858176109412,32.12903888822759,38.48017709199454,2086.164616784481,39.58360218212851,239.81039116755306,1
-25.350535540408956,32.78408996251561,-57.30590577305905,28.660810810810858,-111.43870591664236,127.0,18.959837728194714,11.739495798319327,-1.4597701149425166,25.0,-13.510638297872347,2.5708502024291415,16.43529411764706,5.4784313725490215,-5.478431372549018,10.209113909538553,64.34722388057935,38.48017709199454,2086.164616784481,39.58360218212851,239.81039116755306,1
-25.350535540408956,32.78408996251561,-57.30590577305905,28.660810810810858,-111.43870591664236,127.0,18.959837728194714,8.53781512605042,-1.4597701149425166,49.0,31.074468085106375,-21.080971659919037,-8.466666666666665,8.466666666666669,10.458823529411767,17.31814773109543,248.4950143762283,38.48017709199454,2086.164616784481,39.58360218212851,239.81039116755306,1
12.242453748782868,33.270720533111195,-59.21610263216102,32.550900900900956,-112.4011075488196,118.0303282093893,18.856795131845843,8.53781512605042,-1.4597701149425166,49.0,31.074468085106375,-21.080971659919037,-8.466666666666665,8.466666666666669,10.458823529411767,17.31814773109543,248.4950143762283,34.90975897135169,2350.3876238676257,41.67924135539105,230.78566265623417,1
12.242453748782868,33.270720533111195,-59.21610263216102,32.550900900900956,-112.4011075488196,118.0303282093893,18.856795131845843,2.134453781512605,-17.517241379310335,-10.0,20.265957446808503,10.79757085020242,-51.29803921568627,-16.435294117647057,-21.415686274509802,18.733030383209623,213.0763037138955,34.90975897135169,2350.3876238676257,41.67924135539105,230.78566265623417,1
12.242453748782868,33.270720533111195,-59.21610263216102,32.550900900900956,-112.4011075488196,118.0303282093893,18.856795131845843,0.0,-8.75862068965516,31.0,-29.723404255319153,6.6842105263157805,14.443137254901963,8.466666666666669,8.466666666666669,13.442838257440673,124.59525237109025,34.90975897135169,2350.3876238676257,41.67924135539105,230.78566265623417,1
-0.8656280428432304,34.68829654310703,-59.04755585047555,34.152702702702754,-112.96374234916934,109.69380972164521,19.62961460446246,0.0,-8.75862068965516,31.0,-29.723404255319153,6.6842105263157805,14.443137254901963,8.466666666666669,8.466666666666669,13.442838257440673,124.59525237109025,31.533826812141935,2239.2713834712463,42.629518365428446,202.23568133577862,1
-0.8656280428432304,34.68829654310703,-59.04755585047555,34.152702702702754,-112.96374234916934,109.69380972164521,19.62961460446246,4.26890756302521,-18.977011494252864,-4.0,18.91489361702127,7.712550607287441,2.4901960784313744,5.4784313725490215,-12.450980392156861,9.286621390590504,44.70252559558785,31.533826812141935,2239.2713834712463,42.629518365428446,202.23568133577862,1
-0.8656280428432304,34.68829654310703,-59.04755585047555,34.152702702702754,-112.96374234916934,109.69380972164521,19.62961460446246,-10.672268907563025,-14.597701149425276,-23.0,6.755319148936163,2.5708502024291415,13.447058823529414,14.443137254901963,32.372549019607845,14.732360563299103,87.04339467264097,31.533826812141935,2239.2713834712463,42.629518365428446,202.23568133577862,1
-25.134128529698145,36.04239900041648,-54.27206370272063,33.18018018018017,-112.06056543281841,108.42750311591193,17.62028397565922,-10.672268907563025,-14.597701149425276,-23.0,6.755319148936163,2.5708502024291415,13.447058823529414,14.443137254901963,32.372549019607845,14.732360563299103,87.04339467264097,38.48286374427842,2124.71482669108,41.16488096110576,130.89675371029372,1
-25.134128529698145,36.04239900041648,-54.27206370272063,33.18018018018017,-112.06056543281841,108.42750311591193,17.62028397565922,-8.53781512605042,-18.977011494252864,-6.0,33.77659574468085,9.76923076923076,2.4901960784313744,-2.490196078431371,-6.474509803921567,11.0644443868749,111.46621939983778,38.48286374427842,2124.71482669108,41.16488096110576,130.89675371029372,1
-25.134128529698145,36.04239900041648,-54.27206370272063,33.18018018018017,-112.06056543281841,108.42750311591193,17.62028397565922,-3.2016806722689077,-26.27586206896551,-17.0,24.319148936170205,17.99595141700404,32.372549019607845,-1.4941176470588218,-21.415686274509802,18.00937450444814,117.01319068913399,38.48286374427842,2124.71482669108,41.16488096110576,130.89675371029372,1
-10.511197663096393,36.931028738025816,-49.86175624861755,35.6400900900901,-111.48312445351209,106.1587037806398,13.653144016227145,-3.2016806722689077,-26.27586206896551,-17.0,24.319148936170205,17.99595141700404,32.372549019607845,-1.4941176470588218,-21.415686274509802,18.00937450444814,117.01319068913399,32.434660883246586,1888.7031387709294,40.81095835891116,61.854337478418856,1
-10.511197663096393,36.931028738025816,-49.86175624861755,35.6400900900901,-111.48312445351209,106.1587037806398,13.653144016227145,-6.4033613445378155,-16.057471264367805,-3.0,40.531914893617014,23.137651821862338,12.450980392156865,5.4784313725490215,2.4901960784313744,13.693750895940278,168.16045248942555,32.434660883246586,1888.7031387709294,40.81095835891116,61.854337478418856,1
-10.511197663096393,36.931028738025816,-49.86175624861755,35.6400900900901,-111.48312445351209,106.1587037806398,13.653144016227145,-5.336134453781512,-18.977011494252864,-11.0,6.755319148936163,1.5425101214574815,-24.40392156862745,-3.48627450980392,2.4901960784313744,9.248920921911346,69.59731986813287,32.434660883246586,1888.7031387709294,40.81095835891116,61.854337478418856,1
3.0296981499513187,39.08912952936276,-53.204600752046,39.3013513513514,-111.32025648498978,99.29954299958456,10.355780933062874,-5.336134453781512,-18.977011494252864,-11.0,6.755319148936163,1.5425101214574815,-24.40392156862745,-3.48627450980392,2.4901960784313744,9.248920921911346,69.59731986813287,31.77447614378669,2163.4519356105147,43.865027210920054,65.43198497300693,1
3.0296981499513187,39.08912952936276,-53.204600752046,39.3013513513514,-111.32025648498978,99.29954299958456,10.355780933062874,-3.2016806722689077,-26.27586206896551,-20.0,4.053191489361696,5.655870445344121,17.43137254901961,2.4901960784313744,12.450980392156865,11.44489421194351,80.89783261934735,31.77447614378669,2163.4519356105147,43.865027210920054,65.43198497300693,1
3.0296981499513187,39.08912952936276,-53.204600752046,39.3013513513514,-111.32025648498978,99.29954299958456,10.355780933062874,1.0672268907563025,-18.977011494252864,-23.0,43.23404255319148,12.85425101214574,-8.466666666666665,1.4941176470588253,2.4901960784313744,13.947939042812905,206.9197176034736,31.77447614378669,2163.4519356105147,43.865027210920054,65.43198497300693,1
-1.3602726387536492,39.7027072053311,-58.513824375138235,40.38828828828832,-110.8316525794229,90.64644786040715,8.60405679513184,1.0672268907563025,-18.977011494252864,-23.0,43.23404255319148,12.85425101214574,-8.466666666666665,1.4941176470588253,2.4901960784313744,13.947939042812905,206.9197176034736,33.19226807307433,2433.1973109094383,46.20160662291922,113.81053483886998,1
-1.3602726387536492,39.7027072053311,-58.513824375138235,40.38828828828832,-110.8316525794229,90.64644786040715,8.60405679513184,-5.336134453781512,-16.057471264367805,-20.0,-14.86170212765958,1.5425101214574815,-2.490196078431371,-1.4941176470588218,-6.474509803921567,8.532080187084768,53.93540637478865,33.19226807307433,2433.1973109094383,46.20160662291922,113.81053483886998,1
-1.3602726387536492,39.7027072053311,-58.513824375138235,40.38828828828832,-110.8316525794229,90.64644786040715,8.60405679513184,2.134453781512605,-5.839080459770104,-27.0,-6.755319148936177,5.655870445344121,-12.450980392156861,1.4941176470588253,0.4980392156862763,7.728482636308121,74.992250473049,33.19226807307433,2433.1973109094383,46.20160662291922,113.81053483886998,1
-21.918938656280424,40.527863390254055,-61.49148418491484,36.61261261261268,-109.21777907315652,83.89281262982968,7.4705882352940876,2.134453781512605,-5.839080459770104,-27.0,-6.755319148936177,5.655870445344121,-12.450980392156861,1.4941176470588253,0.4980392156862763,7.728482636308121,74.992250473049,41.31276207714978,2645.5894541863377,46.21065339592719,178.96013936421,1
-21.918938656280424,40.527863390254055,-61.49148418491484,36.61261261261268,-109.21777907315652,83.89281262982968,7.4705882352940876,5.336134453781512,-20.436781609195393,-14.0,9.457446808510632,2.5708502024291415,19.423529411764708,5.4784313725490215,18.42745098039216,11.89132810482782,50.54530376067841,41.31276207714978,2645.5894541863377,46.21065339592719,178.96013936421,1
-21.918938656280424,40.527863390254055,-61.49148418491484,36.61261261261268,-109.21777907315652,83.89281262982968,7.4705882352940876,-1.0672268907563025,-23.35632183908045,-23.0,2.7021276595744617,4.627530364372461,-2.490196078431371,-2.490196078431371,-0.49803921568627274,7.528954765791585,94.79159877209013,41.31276207714978,2645.5894541863377,46.21065339592719,178.96013936421,1
-37.84031158714703,41.5645980841316,-59.77792523777924,30.605855855855907,-106.58227921888661,80.99085999169091,4.843002028397564,-1.0672268907563025,-23.35632183908045,-23.0,2.7021276595744617,4.627530364372461,-2.490196078431371,-2.490196078431371,-0.49803921568627274,7.528954765791585,94.79159877209013,46.39427830301929,2842.7842676400614,43.982793059255584,217.1381582092234,1
-37.84031158714703,41.5645980841316,-59.77792523777924,30.605855855855907,-106.58227921888661,80.99085999169091,4.843002028397564,0.0,-5.839080459770104,13.0,-9.457446808510642,8.7408906882591,2.4901960784313744,-2.490196078431371,-2.490196078431371,5.5635007739792455,19.9891762008765,46.39427830301929,2842.7842676400614,43.982793059255584,217.1381582092234,1
-37.84031158714703,41.5645980841316,-59.77792523777924,30.605855855855907,-106.58227921888661,80.99085999169091,4.843002028397564,2.134453781512605,-27.735632183908038,-11.0,-52.691489361702125,-12.854251012145756,1.4941176470588253,-1.4941176470588218,9.462745098039218,14.858350841428173,309.18422969789754,46.39427830301929,2842.7842676400614,43.982793059255584,217.1381582092234,1
-36.603700097370975,43.426488962932105,-60.59256801592567,24.77072072072076,-103.76910521713786,77.56127960116328,1.854766734279906,2.134453781512605,-27.735632183908038,-11.0,-52.691489361702125,-12.854251012145756,1.4941176470588253,-1.4941176470588218,9.462745098039218,14.858350841428173,309.18422969789754,46.87425235874292,2966.7101933020963,42.92992589985951,320.9861170669509,1
-36.603700097370975,43.426488962932105,-60.59256801592567,24.77072072072076,-103.76910521713786,77.56127960116328,1.854766734279906,4.26890756302521,-4.379310344827575,48.0,22.968085106382972,-31.364372469635633,2.4901960784313744,3.4862745098039234,7.4705882352941195,15.553466788425101,284.50585238356774,46.87425235874292,2966.7101933020963,42.92992589985951,320.9861170669509,1
-36.603700097370975,43.426488962932105,-60.59256801592567,24.77072072072076,-103.76910521713786,77.56127960116328,1.854766734279906,-4.26890756302521,-16.057471264367805,-25.0,67.5531914893617,7.712550607287441,6.4745098039215705,-5.478431372549018,-10.458823529411763,17.875485703740562,449.8626623461582,46.87425235874292,2966.7101933020963,42.92992589985951,320.9861170669509,1
-32.21372930866602,46.64248229904206,-60.08692767086927,19.564864864864944,-100.70422617312737,72.28500207727463,-1.9062880324544267,-4.26890756302521,-16.057471264367805,-25.0,67.5531914893617,7.712550607287441,6.4745098039215705,-5.478431372549018,-10.458823529411763,17.875485703740562,449.8626623461582,46.314379759525785,3064.397374763962,42.09809161159209,425.99800855357637,1
-32.21372930866602,46.64248229904206,-60.08692767086927,19.564864864864944,-100.70422617312737,72.28500207727463,-1.9062880324544267,-2.134453781512605,-2.9195402298850457,-14.0,41.88297872340425,24.165991902833998,9.462745098039218,1.4941176470588253,-0.49803921568627274,12.069733324802527,210.55070780451317,46.314379759525785,3064.397374763962,42.09809161159209,425.99800855357637,1
-32.21372930866602,46.64248229904206,-60.08692767086927,19.564864864864944,-100.70422617312737,72.28500207727463,-1.9062880324544267,-2.134453781512605,-16.057471264367805,39.0,16.212765957446802,1.5425101214574815,-38.34901960784313,-9.462745098039214,-5.478431372549018,16.029674650402008,226.17595694459456,46.314379759525785,3064.397374763962,42.09809161159209,425.99800855357637,1
-39.7261441090555,47.29837567680133,-58.963282459632815,12.58558558558559,-96.81020110754882,67.6418778562526,-6.079513184584243,-2.134453781512605,-16.057471264367805,39.0,16.212765957446802,1.5425101214574815,-38.34901960784313,-9.462745098039214,-5.478431372549018,16.029674650402008,226.17595694459456,48.662600748496544,3205.8124209637735,39.61574790733991,581.9897689183272,1
-39.7261441090555,47.29837567680133,-58.963282459632815,12.58558558558559,-96.81020110754882,67.6418778562526,-6.079513184584243,2.134453781512605,-23.35632183908045,29.0,49.98936170212765,13.8825910931174,-26.396078431372548,2.4901960784313744,3.4862745098039234,18.841909679430742,279.67199167432517,48.662600748496544,3205.8124209637735,39.61574790733991,581.9897689183272,1
-39.7261441090555,47.29837567680133,-58.963282459632815,12.58558558558559,-96.81020110754882,67.6418778562526,-6.079513184584243,-4.26890756302521,-30.655172413793093,-41.0,35.127659574468076,-11.825910931174096,0.4980392156862763,0.4980392156862763,-2.490196078431371,15.79549062403305,289.0692534616066,48.662600748496544,3205.8124209637735,39.61574790733991,581.9897689183272,1
-59.91382667964946,50.95868388171594,-53.59787657597876,3.3180180180180514,-91.33191489361703,65.95346904860823,-12.365111561866115,-4.26890756302521,-30.655172413793093,-41.0,35.127659574468076,-11.825910931174096,0.4980392156862763,0.4980392156862763,-2.490196078431371,15.79549062403305,289.0692534616066,54.82346237911472,3877.4465264392848,35.95819282523758,800.7770931037492,1
-59.91382667964946,50.95868388171594,-53.59787657597876,3.3180180180180514,-91.33191489361703,65.95346904860823,-12.365111561866115,-4.26890756302521,-32.114942528735625,-30.0,-27.021276595744688,5.655870445344121,23.407843137254904,9.462745098039218,0.4980392156862763,16.553703072978756,165.32134136089866,54.82346237911472,3877.4465264392848,35.95819282523758,800.7770931037492,1
-59.91382667964946,50.95868388171594,-53.59787657597876,3.3180180180180514,-91.33191489361703,65.95346904860823,-12.365111561866115,4.26890756302521,1.4597701149425397,50.0,8.106382978723397,-21.080971659919037,2.4901960784313744,-5.478431372549018,-1.4941176470588218,11.797347176831174,279.3575403949577,54.82346237911472,3877.4465264392848,35.95819282523758,800.7770931037492,1
-73.79479065238559,58.13119533527696,-48.822384428223835,-3.9472972972972684,-85.49828038472748,67.6418778562526,-20.866125760649084,4.26890756302521,1.4597701149425397,50.0,8.106382978723397,-21.080971659919037,2.4901960784313744,-5.478431372549018,-1.4941176470588218,11.797347176831174,279.3575403949577,60.249456805295466,4911.192512611502,36.966959020266025,839.3870353502837,1
-73.79479065238559,58.13119533527696,-48.822384428223835,-3.9472972972972684,-85.49828038472748,67.6418778562526,-20.866125760649084,0.0,-20.436781609195393,1.0,31.074468085106375,10.79757085020242,8.466666666666669,8.466666666666669,-4.482352941176469,10.59056335237675,109.57889505598591,60.249456805295466,4911.192512611502,36.966959020266025,839.3870353502837,1
-73.79479065238559,58.13119533527696,-48.822384428223835,-3.9472972972972684,-85.49828038472748,67.6418778562526,-20.866125760649084,3.2016806722689077,-11.678160919540218,-5.0,9.457446808510632,10.79757085020242,8.466666666666669,-13.44705882352941,4.482352941176472,8.316367210236841,13.852093246280528,60.249456805295466,4911.192512611502,36.966959020266025,839.3870353502837,1
-71.07424537487827,65.07097042898792,-52.41804910418048,-10.869369369369338,-79.2056543281842,66.058994599086,-29.315618661257645,3.2016806722689077,-11.678160919540218,-5.0,9.457446808510632,10.79757085020242,8.466666666666669,-13.44705882352941,4.482352941176472,8.316367210236841,13.852093246280528,62.85442163601556,5447.87385940622,42.78612963417925,804.0337938639532,1
-71.07424537487827,65.07097042898792,-52.41804910418048,-10.869369369369338,-79.2056543281842,66.058994599086,-29.315618661257645,7.470588235294118,-4.379310344827575,-8.0,-2.7021276595744723,14.91093117408906,-13.44705882352941,-7.470588235294116,5.4784313725490215,7.98237948064472,17.932091792721184,62.85442163601556,5447.87385940622,42.78612963417925,804.0337938639532,1
-71.07424537487827,65.07097042898792,-52.41804910418048,-10.869369369369338,-79.2056543281842,66.058994599086,-29.315618661257645,3.2016806722689077,-7.298850574712632,27.0,-9.457446808510642,5.655870445344121,0.4980392156862763,16.43529411764706,12.450980392156865,10.249770278290812,71.2696674182027,62.85442163601556,5447.87385940622,42.78612963417925,804.0337938639532,1
-84.92429406037,71.92611411911703,-58.76664454766644,-19.679279279279285,-71.78775867094141,64.8982135438305,-37.455983772819536,3.2016806722689077,-7.298850574712632,27.0,-9.457446808510642,5.655870445344121,0.4980392156862763,16.43529411764706,12.450980392156865,10.249770278290812,71.2696674182027,71.87235090905115,7061.145057005872,50.12401264868759,738.4542523012559,1
-84.92429406037,71.92611411911703,-58.76664454766644,-19.679279279279285,-71.78775867094141,64.8982135438305,-37.455983772819536,0.0,-23.35632183908045,-18.0,6.755319148936163,-0.5141700404858378,-10.458823529411763,7.4705882352941195,5.4784313725490215,9.00420677071967,66.00292134723615,71.87235090905115,7061.145057005872,50.12401264868759,738.4542523012559,1
-84.92429406037,71.92611411911703,-58.76664454766644,-19.679279279279285,-71.78775867094141,64.8982135438305,-37.455983772819536,-6.4033613445378155,-21.89655172413792,0.0,-25.67021276595745,4.627530364372461,13.447058823529414,-18.427450980392155,-4.482352941176469,11.86931486801296,87.75380281121481,71.87235090905115,7061.145057005872,50.12401264868759,738.4542523012559,1
-97.53773125608568,81.48946272386505,-61.126299491262984,-29.4617117117117,-62.75598950743223,63.31533028666391,-46.214604462474654,-6.4033613445378155,-21.89655172413792,0.0,-25.67021276595745,4.627530364372461,13.447058823529414,-18.427450980392155,-4.482352941176469,11.86931486801296,87.75380281121481,80.05116449040456,8952.630696616863,57.35915797561324,687.3652352448548,1
-97.53773125608568,81.48946272386505,-61.126299491262984,-29.4617117117117,-62.75598950743223,63.31533028666391,-46.214604462474654,2.134453781512605,-14.597701149425276,4.0,60.79787234042552,9.76923076923076,13.447058823529414,22.411764705882355,16.43529411764706,17.949171960956626,343.0450301479194,80.05116449040456,8952.630696616863,57.35915797561324,687.3652352448548,1
-97.53773125608568,81.48946272386505,-61.126299491262984,-29.4617117117117,-62.75598950743223,63.31533028666391,-46.214604462474654,-8.53781512605042,-18.977011494252864,-1.0,52.69148936170212,11.82591093117408,6.4745098039215705,14.443137254901963,5.4784313725490215,14.928538168069005,263.9875942101213,80.05116449040456,8952.630696616863,57.35915797561324,687.3652352448548,1
-98.0014605647517,91.77217825905872,-70.70537491705375,-40.04504504504496,-52.59895074322354,57.8280016618197,-53.53062880324546,-8.53781512605042,-18.977011494252864,-1.0,52.69148936170212,11.82591093117408,6.4745098039215705,14.443137254901963,5.4784313725490215,14.928538168069005,263.9875942101213,86.82633791362139,10526.344261702161,67.5075327403858,676.5937235752386,1
-98.0014605647517,91.77217825905872,-70.70537491705375,-40.04504504504496,-52.59895074322354,57.8280016618197,-53.53062880324546,-11.739495798319327,-27.735632183908038,-22.0,-6.755319148936177,-7.712550607287458,-13.44705882352941,-17.431372549019606,-9.462745098039214,14.535521776129904,54.30962374508756,86.82633791362139,10526.344261702161,67.5075327403858,676.5937235752386,1
-98.0014605647517,91.77217825905872,-70.70537491705375,-40.04504504504496,-52.59895074322354,57.8280016618197,-53.53062880324546,-1.0672268907563025,-16.057471264367805,-3.0,25.670212765957437,7.712550607287441,-2.490196078431371,0.4980392156862763,-5.478431372549018,7.746766024379456,77.54112516330456,86.82633791362139,10526.344261702161,67.5075327403858,676.5937235752386,1
-109.06913339824732,101.84331528529779,-84.04866180048661,-53.088288288288254,-40.69478286213931,50.44121312837558,-58.2705882352941,-1.0672268907563025,-16.057471264367805,-3.0,25.670212765957437,7.712550607287441,-2.490196078431371,0.4980392156862763,-5.478431372549018,7.746766024379456,77.54112516330456,98.32037016134392,13277.652025587535,79.66008845802422,608.7078463564109,1
-109.06913339824732,101.84331528529779,-84.04866180048661,-53.088288288288254,-40.69478286213931,50.44121312837558,-58.2705882352941,-1.0672268907563025,-13.137931034482747,0.0,37.82978723404254,11.82591093117408,6.4745098039215705,-14.44313725490196,-2.490196078431371,10.908587403463821,149.91935871287728,98.32037016134392,13277.652025587535,79.66008845802422,608.7078463564109,1
-109.06913339824732,101.84331528529779,-84.04866180048661,-53.088288288288254,-40.69478286213931,50.44121312837558,-58.2705882352941,0.0,-13.137931034482747,1.0,12.159574468085099,7.712550607287441,-1.4941176470588218,1.4941176470588253,-3.48627450980392,5.060570739222106,27.52682791036396,98.32037016134392,13277.652025587535,79.66008845802422,608.7078463564109,1
-127.0,111.8932944606414,-104.69564255695641,-70.13603603603599,-26.480851063829782,42.21022019110927,-58.21906693711969,0.0,-13.137931034482747,1.0,12.159574468085099,7.712550607287441,-1.4941176470588218,1.4941176470588253,-3.48627450980392,5.060570739222106,27.52682791036396,114.5296456725326,17413.04302293645,95.57499101787793,498.3068711577909,1
-127.0,111.8932944606414,-104.69564255695641,-70.13603603603599,-26.480851063829782,42.21022019110927,-58.21906693711969,3.2016806722689077,-18.977011494252864,-2.0,-10.808510638297879,-2.570850202429158,0.4980392156862763,0.4980392156862763,2.4901960784313744,5.130540939631591,41.98977961794076,114.5296456725326,17413.04302293645,95.57499101787793,498.3068711577909,1
-127.0,111.8932944606414,-104.69564255695641,-70.13603603603599,-26.480851063829782,42.21022019110927,-58.21906693711969,3.2016806722689077,-20.436781609195393,-11.0,2.7021276595744617,28.279352226720636,10.458823529411767,-0.49803921568627274,-19.423529411764704,12.000041790577768,98.69093737217403,114.5296456725326,17413.04302293645,95.57499101787793,498.3068711577909,1
-121.5898247322298,120.33527696793003,-116.8029197080292,-86.03963963963963,-12.370562518216254,29.96925633568759,-53.63367139959439,3.2016806722689077,-20.436781609195393,-11.0,2.7021276595744617,28.279352226720636,10.458823529411767,-0.49803921568627274,-19.423529411764704,12.000041790577768,98.69093737217403,119.57600713606301,19130.86560251155,107.72594543853296,355.84128135522906,1
-121.5898247322298,120.33527696793003,-116.8029197080292,-86.03963963963963,-12.370562518216254,29.96925633568759,-53.63367139959439,-3.2016806722689077,-7.298850574712632,14.0,24.319148936170205,7.712550607287441,-6.474509803921567,-15.439215686274508,49.30588235294118,15.968979829197055,225.96008274525715,119.57600713606301,19130.86560251155,107.72594543853296,355.84128135522906,1
-121.5898247322298,120.33527696793003,-116.8029197080292,-86.03963963963963,-12.370562518216254,29.96925633568759,-53.63367139959439,2.134453781512605,-16.057471264367805,-3.0,22.968085106382972,8.7408906882591,2.4901960784313744,21.415686274509806,4.482352941176472,10.161142016830016,76.32401516379802,119.57600713606301,19130.86560251155,107.72594543853296,355.84128135522906,1
-101.24756572541382,122.15485214493961,-122.70205706702056,-99.65495495495486,0.7477120373069148,13.032405484004997,-44.92657200811357,2.134453781512605,-16.057471264367805,-3.0,22.968085106382972,8.7408906882591,2.4901960784313744,21.415686274509806,4.482352941176472,10.161142016830016,76.32401516379802,115.368158312458,18387.30691631353,114.83728805563834,172.95228709176942,1
-101.24756572541382,122.15485214493961,-122.70205706702056,-99.65495495495486,0.7477120373069148,13.032405484004997,-44.92657200811357,1.0672268907563025,-20.436781609195393,0.0,9.457446808510632,0.5141700404858218,-4.482352941176469,-19.423529411764704,12.450980392156865,8.479061011755773,69.39211100583762,115.368158312458,18387.30691631353,114.83728805563834,172.95228709176942,1
-101.24756572541382,122.15485214493961,-122.70205706702056,-99.65495495495486,0.7477120373069148,13.032405484004997,-44.92657200811357,-6.4033613445378155,-10.21839080459769,12.0,44.585106382978715,20.05263157894736,37.352941176470594,39.345098039215685,-1.4941176470588218,21.431455871725834,278.6301753006427,115.368158312458,18387.30691631353,114.83728805563834,172.95228709176942,1
-95.3736611489776,125.20158267388588,-126.18535722185356,-111.09639639639636,13.940017487612948,-6.014956377233062,-33.2312373225152,-6.4033613445378155,-10.21839080459769,12.0,44.585106382978715,20.05263157894736,37.352941176470594,39.345098039215685,-1.4941176470588218,21.431455871725834,278.6301753006427,115.58686701490569,18799.69872542451,120.82777876404526,71.26680517934834,1
-95.3736611489776,125.20158267388588,-126.18535722185356,-111.09639639639636,13.940017487612948,-6.014956377233062,-33.2312373225152,-8.53781512605042,-16.057471264367805,4.0,-7.105427357601002e-15,-2.570850202429158,-5.478431372549018,1.4941176470588253,-56.27843137254902,11.802139623125534,348.3613399182339,115.58686701490569,18799.69872542451,120.82777876404526,71.26680517934834,1
-95.3736611489776,125.20158267388588,-126.18535722185356,-111.09639639639636,13.940017487612948,-6.014956377233062,-33.2312373225152,3.2016806722689077,-14.597701149425276,2.0,13.510638297872333,16.96761133603238,-18.427450980392155,-64.24705882352941,-26.396078431372548,19.918527461361627,383.97248621050556,115.58686701490569,18799.69872542451,120.82777876404526,71.26680517934834,1
-91.20009737098344,125.43431903373593,-124.27516036275159,-119.33423423423415,26.910230253570397,-25.43165766514332,-19.83569979716026,3.2016806722689077,-14.597701149425276,2.0,13.510638297872333,16.96761133603238,-18.427450980392155,-64.24705882352941,-26.396078431372548,19.918527461361627,383.97248621050556,113.63652558915699,18396.54237723127,123.01457121024055,10.494572398849556,1
-91.20009737098344,125.43431903373593,-124.27516036275159,-119.33423423423415,26.910230253570397,-25.43165766514332,-19.83569979716026,11.739495798319327,-10.21839080459769,1.0,-7.105427357601002e-15,0.5141700404858218,25.400000000000002,-11.454901960784312,-4.482352941176469,8.101163943170453,73.56157885889004,113.63652558915699,18396.54237723127,123.01457121024055,10.494572398849556,1
-91.20009737098344,125.43431903373593,-124.27516036275159,-119.33423423423415,26.910230253570397,-25.43165766514332,-19.83569979716026,10.672268907563025,-13.137931034482747,15.0,22.968085106382972,-5.655870445344137,-22.41176470588235,-35.36078431372549,13.447058823529414,17.331720417113765,85.9159648616933,113.63652558915699,18396.54237723127,123.01457121024055,10.494572398849556,1
-98.27969814995132,126.15368596418159,-127.0,-125.34099099099092,40.50230253570389,-42.89613626921479,-4.276267748478745,10.672268907563025,-13.137931034482747,15.0,22.968085106382972,-5.655870445344137,-22.41176470588235,-35.36078431372549,13.447058823529414,17.331720417113765,85.9159648616933,117.14446137137763,19213.664726755218,126.16489231839084,0.6881719097743217,1
-98.27969814995132,126.15368596418159,-127.0,-125.34099099099092,40.50230253570389,-42.89613626921479,-4.276267748478745,-1.0672268907563025,-18.977011494252864,-2.0,-7.105427357601002e-15,10.79757085020242,-4.482352941176469,35.36078431372549,36.35686274509804,13.630226154401448,226.84099691863588,117.14446137137763,19213.664726755218,126.16489231839084,0.6881719097743217,1
-98.27969814995132,126.15368596418159,-127.0,-125.34099099099092,40.50230253570389,-42.89613626921479,-4.276267748478745,1.0672268907563025,-10.21839080459769,4.0,-6.755319148936177,-30.336032388663973,-11.454901960784312,-78.1921568627451,-66.2392156862745,26.03290546784476,899.8040304988674,117.14446137137763,19213.664726755218,126.16489231839084,0.6881719097743217,1
-108.79089581304771,127.0,-121.74695863746958,-127.0,54.938327018362,-57.828001661819684,11.592292089249497,1.0672268907563025,-10.21839080459769,4.0,-6.755319148936177,-30.336032388663973,-11.454901960784312,-78.1921568627451,-66.2392156862745,26.03290546784476,899.8040304988674,119.17928481683909,19606.70925727015,125.24898621248985,9.198147852151834,1
-108.79089581304771,127.0,-121.74695863746958,-127.0,54.938327018362,-57.828001661819684,11.592292089249497,6.4033613445378155,-20.436781609195393,-4.0,20.265957446808503,10.79757085020242,-14.44313725490196,-27.392156862745097,3.4862745098039234,13.403154984774389,76.55624564278294,119.17928481683909,19606.70925727015,125.24898621248985,9.198147852151834,1
-108.79089581304771,127.0,-121.74695863746958,-127.0,54.938327018362,-57.828001661819684,11.592292089249497,-13.873949579831933,-17.517241379310335,4.0,55.39361702127658,9.76923076923076,-8.466666666666665,17.43137254901961,43.32941176470588,21.22268621625522,332.7123906286636,119.17928481683909,19606.70925727015,125.24898621248985,9.198147852151834,1
-104.37000973709834,124.73610995418575,-114.52753815527538,-124.76891891891887,68.82652287962694,-72.12671375155796,28.079107505070965,-13.873949579831933,-17.517241379310335,4.0,55.39361702127658,9.76923076923076,-8.466666666666665,17.43137254901961,43.32941176470588,21.22268621625522,332.7123906286636,114.54455261551982,18306.647128368517,121.34418900945998,34.85031575793365,1
-104.37000973709834,124.73610995418575,-114.52753815527538,-124.76891891891887,68.82652287962694,-72.12671375155796,28.079107505070965,-6.4033613445378155,-20.436781609195393,-20.0,6.755319148936163,26.222672064777317,0.4980392156862763,-25.4,-49.305882352941175,19.37775696700927,237.77518616487603,114.54455261551982,18306.647128368517,121.34418900945998,34.85031575793365,1
-104.37000973709834,124.73610995418575,-114.52753815527538,-124.76891891891887,68.82652287962694,-72.12671375155796,28.079107505070965,1.0672268907563025,-17.517241379310335,-3.0,-5.404255319148941,-76.61133603238866,-34.364705882352936,102.09803921568627,71.21960784313725,38.910301570347585,1540.082588576434,114.54455261551982,18306.647128368517,121.34418900945998,34.85031575793365,1
-89.68524829600779,118.28296543107038,-110.3700508737005,-120.8216216216216,81.29332556106093,-86.16161196510177,46.111561866125726,1.0672268907563025,-17.517241379310335,-3.0,-5.404255319148941,-76.61133603238866,-34.364705882352936,102.09803921568627,71.21960784313725,38.910301570347585,1540.082588576434,106.11275486692621,15993.473473963266,116.49154597546415,29.715720524143343,1
-89.68524829600779,118.28296543107038,-110.3700508737005,-120.8216216216216,81.29332556106093,-86.16161196510177,46.111561866125726,-18.142857142857142,-23.35632183908045,-5.0,-20.265957446808514,-24.165991902834016,-4.482352941176469,7.4705882352941195,18.42745098039216,15.163940061055358,67.18524739194699,106.11275486692621,15993.473473963266,116.49154597546415,29.715720524143343,1
-89.68524829600779,118.28296543107038,-110.3700508737005,-120.8216216216216,81.29332556106093,-86.16161196510177,46.111561866125726,-3.2016806722689077,-10.21839080459769,10.0,10.808510638297864,-2.570850202429158,33.3686274509804,-22.41176470588235,-24.40392156862745,14.622968255385477,119.82196015456861,106.11275486692621,15993.473473963266,116.49154597546415,29.715720524143343,1
-66.28237585199611,108.95235318617242,-107.05529750055297,-117.04594594594585,91.5688137569222,-100.77690070627338,65.94726166328599,-3.2016806722689077,-10.21839080459769,10.0,10.808510638297864,-2.570850202429158,33.3686274509804,-22.41176470588235,-24.40392156862745,14.622968255385477,119.82196015456861,94.09667551290715,13171.491092673012,111.01786554422374,28.15302006580485,1
-66.28237585199611,108.95235318617242,-107.05529750055297,-117.04594594594585,91.5688137569222,-100.77690070627338,65.94726166328599,-4.26890756302521,-11.678160919540218,11.0,41.88297872340425,24.165991902833998,15.439215686274512,36.35686274509804,26.39607843137255,21.3985244964436,172.50729812378603,94.09667551290715,13171.491092673012,111.01786554422374,28.15302006580485,1
-66.28237585199611,108.95235318617242,-107.05529750055297,-117.04594594594585,91.5688137569222,-100.77690070627338,65.94726166328599,-32.016806722689076,-30.655172413793093,-25.0,-10.808510638297879,66.32793522267205,-4.482352941176469,2.4901960784313744,-97.11764705882354,33.61232763448544,1075.1222548764524,94.09667551290715,13171.491092673012,111.01786554422374,28.15302006580485,1
-62.881694255111974,98.45805914202415,-99.86396814863969,-111.78288288288286,100.73383853104052,-112.85957623597838,84.28884381338742,-32.016806722689076,-30.655172413793093,-25.0,-10.808510638297879,66.32793522267205,-4.482352941176469,2.4901960784313744,-97.11764705882354,33.61232763448544,1075.1222548764524,87.06790718192526,11121.638519543903,103.36830339118224,53.59800605033224,1
-62.881694255111974,98.45805914202415,-99.86396814863969,-111.78288288288286,100.73383853104052,-112.85957623597838,84.28884381338742,28.81512605042017,8.758620689655185,11.0,-2.7021276595744723,-72.49797570850203,-30.380392156862744,-98.11372549019607,-66.2392156862745,39.813397930185644,1221.0478164758104,87.06790718192526,11121.638519543903,103.36830339118224,53.59800605033224,1
-62.881694255111974,98.45805914202415,-99.86396814863969,-111.78288288288286,100.73383853104052,-112.85957623597838,84.28884381338742,34.15126050420168,2.919540229885069,17.0,27.021276595744673,12.85425101214574,19.423529411764708,-14.44313725490196,2.4901960784313744,16.287898885884402,118.41815018215111,87.06790718192526,11121.638519543903,103.36830339118224,53.59800605033224,1
-71.7543816942551,86.038400666389,-93.00973236009732,-104.68918918918916,109.52870883124454,-119.66597424179474,99.64219066937119,34.15126050420168,2.919540229885069,17.0,27.021276595744673,12.85425101214574,19.423529411764708,-14.44313725490196,2.4901960784313744,16.287898885884402,118.41815018215111,83.60083824024713,9568.09767288531,94.57910740522516,88.81018165475615,1
-71.7543816942551,86.038400666389,-93.00973236009732,-104.68918918918916,109.52870883124454,-119.66597424179474,99.64219066937119,-25.613445378151262,-42.33333333333333,-19.0,9.457446808510632,57.07287449392712,62.254901960784316,95.12549019607843,-116.04313725490196,53.36257867821089,1395.134140004448,83.60083824024713,9568.09767288531,94.57910740522516,88.81018165475615,1
-71.7543816942551,86.038400666389,-93.00973236009732,-104.68918918918916,109.52870883124454,-119.66597424179474,99.64219066937119,1.0672268907563025,-20.436781609195393,2.0,-8.10638297872341,-8.740890688259118,15.439215686274512,22.411764705882355,104.09019607843138,22.786557329690307,1140.932224167351,83.60083824024713,9568.09767288531,94.57910740522516,88.81018165475615,1
-69.46665043816942,73.49179508538109,-90.17252820172527,-97.7671171171171,117.46482075196737,-122.83174075612794,113.70750507099388,1.0672268907563025,-20.436781609195393,2.0,-8.10638297872341,-8.740890688259118,15.439215686274512,22.411764705882355,104.09019607843138,22.786557329690307,1140.932224167351,77.71032457509192,7941.976872915957,87.14381346807448,154.20264963949694,1
-69.46665043816942,73.49179508538109,-90.17252820172527,-97.7671171171171,117.46482075196737,-122.83174075612794,113.70750507099388,-19.210084033613445,-32.114942528735625,-2.0,5.40425531914893,-47.817813765182194,-85.16470588235293,-64.24705882352941,-70.2235294117647,40.772798720540905,961.8332865056362,77.71032457509192,7941.976872915957,87.14381346807448,154.20264963949694,1
-69.46665043816942,73.49179508538109,-90.17252820172527,-97.7671171171171,117.46482075196737,-122.83174075612794,113.70750507099388,-69.36974789915966,-42.33333333333333,-14.0,2.7021276595744617,69.41295546558703,52.294117647058826,-21.415686274509802,-87.15686274509804,44.835603878040146,904.7867138360817,77.71032457509192,7941.976872915957,87.14381346807448,154.20264963949694,1
-62.75803310613437,58.61782590587254,-84.80712231807121,-92.90450450450442,123.07636257650832,-122.56792687993351,123.54807302231234,-69.36974789915966,-42.33333333333333,-14.0,2.7021276595744617,69.41295546558703,52.294117647058826,-21.415686274509802,-87.15686274509804,44.835603878040146,904.7867138360817,68.72766044335937,5964.829543169912,78.77648424281605,321.17052902750817,1
-62.75803310613437,58.61782590587254,-84.80712231807121,-92.90450450450442,123.07636257650832,-122.56792687993351,123.54807302231234,34.15126050420168,-26.27586206896551,-17.0,-16.212765957446813,-13.882591093117416,91.14117647058823,6.4745098039215705,127.0,41.51727073728016,1898.4961152579756,68.72766044335937,5964.829543169912,78.77648424281605,321.17052902750817,1
-62.75803310613437,58.61782590587254,-84.80712231807121,-92.90450450450442,123.07636257650832,-122.56792687993351,123.54807302231234,18.142857142857142,32.11494252873565,10.0,-47.287234042553195,12.85425101214574,-51.29803921568627,32.372549019607845,82.1764705882353,35.78079294372764,578.88128538477,68.72766044335937,5964.829543169912,78.77648424281605,321.17052902750817,1
-51.28846153846153,43.532278217409406,-64.24441495244415,-88.04189189189185,126.48178373651997,-121.77648525135021,127.0,18.142857142857142,32.11494252873565,10.0,-47.287234042553195,12.85425101214574,-51.29803921568627,32.372549019607845,82.1764705882353,35.78079294372764,578.88128538477,53.02171823610502,3462.440834557442,65.27286168724847,496.0697043776659,1
-51.28846153846153,43.532278217409406,-64.24441495244415,-88.04189189189185,126.48178373651997,-121.77648525135021,127.0,6.4033613445378155,14.597701149425301,15.0,-2.7021276595744723,-65.29959514170041,-3.48627450980392,-9.462745098039214,-8.466666666666665,15.677308946218474,422.51321539234834,53.02171823610502,3462.440834557442,65.27286168724847,496.0697043776659,1
-51.28846153846153,43.532278217409406,-64.24441495244415,-88.04189189189185,126.48178373651997,-121.77648525135021,127.0,-93.91596638655462,-64.22988505747125,-20.0,-8.10638297872341,-15.939271255060735,-24.40392156862745,23.407843137254904,-64.24705882352941,39.281291150902724,941.7807271201084,53.02171823610502,3462.440834557442,65.27286168724847,496.0697043776659,1
-28.596640701071077,29.546938775510196,-40.198407431984066,-84.32342342342338,127.00000000000001,-123.0427918570835,124.26937119675455,-93.91596638655462,-64.22988505747125,-20.0,-8.10638297872341,-15.939271255060735,-24.40392156862745,23.407843137254904,-64.24705882352941,39.281291150902724,941.7807271201084,32.78066230285511,1396.6150238718792,51.35625654363921,843.4890151946148,1
-28.596640701071077,29.546938775510196,-40.198407431984066,-84.32342342342338,127.00000000000001,-123.0427918570835,124.26937119675455,57.63025210084034,13.137931034482772,13.0,36.478723404255305,113.63157894736841,127.0,118.03529411764706,32.372549019607845,63.91079107802521,2334.040434580554,32.78066230285511,1396.6150238718792,51.35625654363921,843.4890151946148,1
-28.596640701071077,29.546938775510196,-40.198407431984066,-84.32342342342338,127.00000000000001,-123.0427918570835,124.26937119675455,120.59663865546219,4.379310344827598,6.0,63.499999999999986,94.09311740890686,68.23137254901961,108.07450980392157,127.0,73.98436859526723,2308.5168365109853,32.78066230285511,1396.6150238718792,51.35625654363921,843.4890151946148,1
-4.544547224926967,13.276551436901283,-19.551426675514257,-82.8932432432432,124.49775575633927,-125.52264229331115,115.92292089249491,120.59663865546219,4.379310344827598,6.0,63.499999999999986,94.09311740890686,68.23137254901961,108.07450980392157,127.0,73.98436859526723,2308.5168365109853,12.457508445780837,270.0790225513849,38.573740451886245,1483.0072605698624,1
-4.544547224926967,13.276551436901283,-19.551426675514257,-82.8932432432432,124.49775575633927,-125.52264229331115,115.92292089249491,-83.24369747899159,-61.3103448275862,-51.0,-75.65957446808511,-11.825910931174096,-127.0,89.14901960784314,-25.4,65.57356841421002,1353.7513759071608,12.457508445780837,270.0790225513849,38.573740451886245,1483.0072605698624,1
-4.544547224926967,13.276551436901283,-19.551426675514257,-82.8932432432432,124.49775575633927,-125.52264229331115,115.92292089249491,-113.12605042016807,-32.114942528735625,16.0,-7.105427357601002e-15,-61.18623481781377,94.12941176470588,102.09803921568627,47.31372549019608,58.24605052966321,1744.3933315224851,12.457508445780837,270.0790225513849,38.573740451886245,1483.0072605698624,1
13.479065238558917,-6.315618492294888,0.14045565140456517,-83.122072072072,119.12311279510348,-127.0,101.23935091277889,-113.12605042016807,-32.114942528735625,16.0,-7.105427357601002e-15,-61.18623481781377,94.12941176470588,102.09803921568627,47.31372549019608,58.24605052966321,1744.3933315224851,6.64504646075279,101.90481717866649,29.859382071923818,2137.2187685667923,1
13.479065238558917,-6.315618492294888,0.14045565140456517,-83.122072072072,119.12311279510348,-127.0,101.23935091277889,68.30252100840336,5.839080459770127,26.0,37.82978723404254,-17.995951417004054,31.376470588235296,56.27843137254902,16.43529411764706,32.50719202470643,442.62852524410266,6.64504646075279,101.90481717866649,29.859382071923818,2137.2187685667923,1
13.479065238558917,-6.315618492294888,0.14045565140456517,-83.122072072072,119.12311279510348,-127.0,101.23935091277889,127.0,11.678160919540243,-2.0,71.60638297872339,126.99999999999999,-48.30980392156863,-127.0,-127.0,80.19929347747903,2951.7538980577433,6.64504646075279,101.90481717866649,29.859382071923818,2137.2187685667923,1
34.686952288218116,-30.816409829237827,15.927670869276724,-86.15405405405397,110.38746721072575,-125.62816784378896,81.09452332657196,127.0,11.678160919540243,-2.0,71.60638297872339,126.99999999999999,-48.30980392156863,-127.0,-127.0,80.19929347747903,2951.7538980577433,27.14367766224422,1137.9350280658073,44.29937825085617,1369.2790518975594,1
34.686952288218116,-30.816409829237827,15.927670869276724,-86.15405405405397,110.38746721072575,-125.62816784378896,81.09452332657196,68.30252100840336,20.436781609195414,9.0,6.755319148936163,-87.92307692307692,-3.48627450980392,67.23529411764706,-65.24313725490197,41.0478005714956,1178.575514416944,27.14367766224422,1137.9350280658073,44.29937825085617,1369.2790518975594,1
34.686952288218116,-30.816409829237827,15.927670869276724,-86.15405405405397,110.38746721072575,-125.62816784378896,81.09452332657196,-28.81512605042017,-36.49425287356321,-22.0,-59.446808510638306,-109.51821862348179,-127.0,-97.11764705882354,-119.03137254901961,74.92792820824333,1855.7221215958311,27.14367766224422,1137.9350280658073,44.29937825085617,1369.2790518975594,1
63.3145082765336,-53.53994169096211,29.888962618889636,-91.53153153153153,97.80221509763919,-122.40963855421688,57.90993914807302,-28.81512605042017,-36.49425287356321,-22.0,-59.446808510638306,-109.51821862348179,-127.0,-97.11764705882354,-119.03137254901961,74.92792820824333,1855.7221215958311,48.91447086212845,3622.1019423432667,58.3201452804611,967.0893353052453,1
63.3145082765336,-53.53994169096211,29.888962618889636,-91.53153153153153,97.80221509763919,-122.40963855421688,57.90993914807302,62.96638655462185,-21.89655172413792,10.0,52.69148936170212,29.3076923076923,79.18823529411765,-17.431372549019606,21.415686274509806,36.862176758225154,620.3227237744353,48.91447086212845,3622.1019423432667,58.3201452804611,967.0893353052453,1
63.3145082765336,-53.53994169096211,29.888962618889636,-91.53153153153153,97.80221509763919,-122.40963855421688,57.90993914807302,56.563025210084035,14.597701149425301,30.0,63.499999999999986,40.619433198380555,26.39607843137255,-92.13725490196079,-62.25490196078431,48.25854935650094,632.1794115346385,48.91447086212845,3622.1019423432667,58.3201452804611,967.0893353052453,1
75.89703018500488,-70.74127446897127,50.64830789648309,-94.04864864864862,82.95161760419704,-116.02534275031158,31.4279918864097,56.563025210084035,14.597701149425301,30.0,63.499999999999986,40.619433198380555,26.39607843137255,-92.13725490196079,-62.25490196078431,48.25854935650094,632.1794115346385,65.76220418348642,6145.953512642442,71.81274367136766,471.75842903978304,1
75.89703018500488,-70.74127446897127,50.64830789648309,-94.04864864864862,82.95161760419704,-116.02534275031158,31.4279918864097,56.563025210084035,127.00000000000001,27.0,41.88297872340425,62.214574898785415,-101.10196078431372,36.35686274509804,127.0,72.38992529521069,1633.175818089665,65.76220418348642,6145.953512642442,71.81274367136766,471.75842903978304,1
75.89703018500488,-70.74127446897127,50.64830789648309,-94.04864864864862,82.95161760419704,-116.02534275031158,31.4279918864097,-127.0,-80.28735632183907,-37.0,-54.04255319148936,-55.01619433198381,34.36470588235294,56.27843137254902,-71.21960784313725,64.40110611791893,875.9780593076376,65.76220418348642,6145.953512642442,71.81274367136766,471.75842903978304,1
81.7709347614411,-85.31903373594336,84.69475779694758,-87.58423423423415,64.85846691926554,-108.0581636892397,-2.1123732251521687,-127.0,-80.28735632183907,-37.0,-54.04255319148936,-55.01619433198381,34.36470588235294,56.27843137254902,-71.21960784313725,64.40110611791893,875.9780593076376,83.92824209811069,9472.049270831532,85.86600858904171,2.311654637850017,1
81.7709347614411,-85.31903373594336,84.69475779694758,-87.58423423423415,64.85846691926554,-108.0581636892397,-2.1123732251521687,27.747899159663866,24.816091954023,28.0,55.39361702127658,63.242914979757074,70.2235294117647,21.415686274509806,61.25882352941177,44.01232029130085,411.97827027863525,83.92824209811069,9472.049270831532,85.86600858904171,2.311654637850017,1
81.7709347614411,-85.31903373594336,84.69475779694758,-87.58423423423415,64.85846691926554,-108.0581636892397,-2.1123732251521687,42.6890756302521,-52.551724137931025,-18.0,45.936170212765944,25.194331983805657,28.38823529411765,127.0,-13.44705882352941,44.150824510300225,1310.611405794862,83.92824209811069,9472.049270831532,85.86600858904171,2.311654637850017,1
55.74026290165531,-106.49804248229904,116.10064145100642,-70.02162162162153,45.56601573885166,-88.27212297465724,-42.453549695740435,42.6890756302521,-52.551724137931025,-18.0,45.936170212765944,25.194331983805657,28.38823529411765,127.0,-13.44705882352941,44.150824510300225,1310.611405794862,92.77964894498693,13252.469520219634,97.54010185164232,591.0025423659893,1
55.74026290165531,-106.49804248229904,116.10064145100642,-70.02162162162153,45.56601573885166,-88.27212297465724,-42.453549695740435,-78.97478991596638,10.218390804597714,26.0,31.074468085106375,-25.194331983805675,-27.392156862745097,-73.21176470588236,16.43529411764706,36.06264955946884,656.3005684961199,92.77964894498693,13252.469520219634,97.54010185164232,591.0025423659893,1
55.74026290165531,-106.49804248229904,116.10064145100642,-70.02162162162153,45.56601573885166,-88.27212297465724,-42.453549695740435,18.142857142857142,-62.77011494252873,-8.0,45.936170212765944,1.5425101214574815,96.12156862745098,36.35686274509804,127.0,49.483760474019796,1935.2569550516794,92.77964894498693,13252.469520219634,97.54010185164232,591.0025423659893,1
-3.4625121713729268,-127.0,127.0,-43.935135135135056,27.620926843485872,-48.33070211882011,-85.06166328600409,18.142857142857142,-62.77011494252873,-8.0,45.936170212765944,1.5425101214574815,96.12156862745098,36.35686274509804,127.0,49.483760474019796,1935.2569550516794,85.82083739045765,16132.996330178968,99.31171171171168,2299.923925006092,1
-3.4625121713729268,-127.0,127.0,-43.935135135135056,27.620926843485872,-48.33070211882011,-85.06166328600409,-85.3781512605042,-2.9195402298850457,-34.0,-20.265957446808514,-11.825910931174096,115.04705882352941,71.21960784313725,83.17254901960784,52.97859694433079,1682.3415643683545,85.82083739045765,16132.996330178968,99.31171171171168,2299.923925006092,1
-3.4625121713729268,-127.0,127.0,-43.935135135135056,27.620926843485872,-48.33070211882011,-85.06166328600409,-8.53781512605042,-90.50574712643677,-57.0,-7.105427357601002e-15,-127.0,-127.0,-109.07058823529411,127.0,80.76426881097267,2801.948690780828,85.82083739045765,16132.996330178968,99.31171171171168,2299.923925006092,1
-33.94498539435248,-115.49012911286965,99.10550763105508,-17.390990990990986,12.948003497522595,-3.218529289572075,-117.57160243407714,-8.53781512605042,-90.50574712643677,-57.0,-7.105427357601002e-15,-127.0,-127.0,-109.07058823529411,127.0,80.76426881097267,2801.948690780828,82.8468740460924,11733.88857798469,77.32887591163858,2761.52649184618,1
-33.94498539435248,-115.49012911286965,99.10550763105508,-17.390990990990986,12.948003497522595,-3.218529289572075,-117.57160243407714,-3.2016806722689077,-64.22988505747125,40.0,-41.88297872340426,76.61133603238865,62.254901960784316,-21.415686274509802,-77.19607843137254,48.34906839402497,707.3841792018198,82.8468740460924,11733.88857798469,77.32887591163858,2761.52649184618,1
-33.94498539435248,-115.49012911286965,99.10550763105508,-17.390990990990986,12.948003497522595,-3.218529289572075,-117.57160243407714,-6.4033613445378155,-86.12643678160919,94.0,-27.021276595744688,33.42105263157894,60.26274509803922,18.42745098039216,30.380392156862747,44.50533944859559,1027.1740007978249,82.8468740460924,11733.88857798469,77.32887591163858,2761.52649184618,1
24.48490749756573,-91.87796751353603,20.731254147312555,-5.377477477477441,-1.5028271640920927,21.896551724137936,-127.0,-6.4033613445378155,-86.12643678160919,94.0,-27.021276595744688,33.42105263157894,60.26274509803922,18.42745098039216,30.380392156862747,44.50533944859559,1027.1740007978249,45.69804305280477,4372.540899564216,39.328899712775346,2129.9880095535013,1
24.48490749756573,-91.87796751353603,20.731254147312555,-5.377477477477441,-1.5028271640920927,21.896551724137936,-127.0,-73.63865546218487,-35.03448275862068,-13.0,-28.372340425531917,-44.732793522267215,28.38823529411765,9.462745098039218,96.12156862745098,41.093852648526564,892.8903824694905,45.69804305280477,4372.540899564216,39.328899712775346,2129.9880095535013,1
