,Gyro 0,Gyro 1,Gyro 2,Label,Orientation 0,Orientation 1,Orientation 2,Orientation 3,Sensor 0,Sensor 1,Sensor 2,Sensor 3,Sensor 4,Sensor 5,Sensor 6,Sensor 7,Timestamp
0,9.0,-25.0,-16.0,1.0,-8348.0,-9979.0,-1509.0,-9845.0,-15.0,5.0,26.0,4.0,11.0,1.0,19.0,-3.0,2.384185791015625e-06
1,9.0,-25.0,-16.0,1.0,-8348.0,-9979.0,-1509.0,-9845.0,-7.0,-4.0,-13.0,-10.0,-6.0,-2.0,6.0,10.0,0.002195596694946289
2,9.0,-25.0,-16.0,1.0,-8348.0,-9979.0,-1509.0,-9845.0,5.0,-10.0,-21.0,-6.0,3.0,2.0,-2.0,-4.0,0.004069805145263672
3,-7.0,-23.0,-11.0,1.0,-8347.0,-9984.0,-1504.0,-9842.0,5.0,-10.0,-21.0,-6.0,3.0,2.0,-2.0,-4.0,0.007083892822265625
4,-7.0,-23.0,-11.0,1.0,-8347.0,-9984.0,-1504.0,-9842.0,17.0,4.0,12.0,21.0,-10.0,-6.0,-9.0,19.0,0.011955022811889648
5,-7.0,-23.0,-11.0,1.0,-8347.0,-9984.0,-1504.0,-9842.0,14.0,2.0,-13.0,0.0,-1.0,21.0,-1.0,3.0,0.014458656311035156
6,16.0,-13.0,-11.0,1.0,-8344.0,-9989.0,-1503.0,-9839.0,14.0,2.0,-13.0,0.0,-1.0,21.0,-1.0,3.0,0.016357898712158203
7,16.0,-13.0,-11.0,1.0,-8344.0,-9989.0,-1503.0,-9839.0,3.0,-4.0,1.0,26.0,19.0,-9.0,-10.0,-20.0,0.018306255340576172
8,16.0,-13.0,-11.0,1.0,-8344.0,-9989.0,-1503.0,-9839.0,-1.0,6.0,30.0,0.0,3.0,-15.0,-16.0,-9.0,0.02061605453491211
9,20.0,2.0,-10.0,1.0,-8341.0,-9994.0,-1509.0,-9835.0,-1.0,6.0,30.0,0.0,3.0,-15.0,-16.0,-9.0,0.02400970458984375
10,20.0,2.0,-10.0,1.0,-8341.0,-9994.0,-1509.0,-9835.0,3.0,9.0,18.0,-9.0,19.0,5.0,-2.0,-7.0,0.027226924896240234
11,20.0,2.0,-10.0,1.0,-8341.0,-9994.0,-1509.0,-9835.0,-5.0,3.0,-16.0,40.0,-6.0,-2.0,5.0,-5.0,0.02920222282409668
12,-34.0,14.0,-17.0,1.0,-8343.0,-9994.0,-1508.0,-9834.0,-5.0,3.0,-16.0,40.0,-6.0,-2.0,5.0,-5.0,0.031116962432861328
13,-34.0,14.0,-17.0,1.0,-8343.0,-9994.0,-1508.0,-9834.0,-18.0,-10.0,-5.0,1.0,-3.0,-3.0,-4.0,-5.0,0.033078670501708984
14,-34.0,14.0,-17.0,1.0,-8343.0,-9994.0,-1508.0,-9834.0,-13.0,-9.0,-39.0,-33.0,12.0,1.0,0.0,-16.0,0.03491544723510742
15,-32.0,18.0,-15.0,1.0,-8345.0,-9990.0,-1505.0,-9836.0,-13.0,-9.0,-39.0,-33.0,12.0,1.0,0.0,-16.0,0.0367124080657959
16,-32.0,18.0,-15.0,1.0,-8345.0,-9990.0,-1505.0,-9836.0,-10.0,5.0,-6.0,20.0,-3.0,3.0,-4.0,-3.0,0.038620948791503906
17,-32.0,18.0,-15.0,1.0,-8345.0,-9990.0,-1505.0,-9836.0,-10.0,-3.0,-19.0,-7.0,-2.0,-6.0,-1.0,18.0,0.04041337966918945
18,-10.0,13.0,-19.0,1.0,-8345.0,-9992.0,-1505.0,-9835.0,-10.0,-3.0,-19.0,-7.0,-2.0,-6.0,-1.0,18.0,0.04314422607421875
19,-10.0,13.0,-19.0,1.0,-8345.0,-9992.0,-1505.0,-9835.0,-4.0,3.0,29.0,7.0,-15.0,16.0,-2.0,-5.0,0.045207977294921875
20,-10.0,13.0,-19.0,1.0,-8345.0,-9992.0,-1505.0,-9835.0,0.0,3.0,37.0,21.0,-3.0,3.0,0.0,22.0,0.04712390899658203
21,-17.0,4.0,-11.0,1.0,-8345.0,-9992.0,-1502.0,-9835.0,0.0,3.0,37.0,21.0,-3.0,3.0,0.0,22.0,0.04896950721740723
22,-17.0,4.0,-11.0,1.0,-8345.0,-9992.0,-1502.0,-9835.0,3.0,13.0,78.0,12.0,2.0,-14.0,2.0,-1.0,0.05087423324584961
23,-17.0,4.0,-11.0,1.0,-8345.0,-9992.0,-1502.0,-9835.0,-1.0,-6.0,6.0,0.0,-3.0,6.0,3.0,6.0,0.0539548397064209
24,-6.0,-2.0,7.0,1.0,-8344.0,-9993.0,-1502.0,-9834.0,-1.0,-6.0,6.0,0.0,-3.0,6.0,3.0,6.0,0.0578610897064209
25,-6.0,-2.0,7.0,1.0,-8344.0,-9993.0,-1502.0,-9834.0,-1.0,-4.0,-42.0,-15.0,-7.0,-3.0,-3.0,-10.0,0.060651302337646484
26,-6.0,-2.0,7.0,1.0,-8344.0,-9993.0,-1502.0,-9834.0,-3.0,-7.0,2.0,27.0,-7.0,-6.0,-5.0,-21.0,0.06261754035949707
27,-5.0,0.0,13.0,1.0,-8344.0,-9994.0,-1502.0,-9834.0,-3.0,-7.0,2.0,27.0,-7.0,-6.0,-5.0,-21.0,0.0644979476928711
28,-5.0,0.0,13.0,1.0,-8344.0,-9994.0,-1502.0,-9834.0,0.0,1.0,-23.0,-12.0,-2.0,-3.0,-5.0,-12.0,0.06641888618469238
29,-5.0,0.0,13.0,1.0,-8344.0,-9994.0,-1502.0,-9834.0,4.0,18.0,37.0,-26.0,-11.0,5.0,2.0,5.0,0.06824183464050293
30,24.0,4.0,26.0,1.0,-8337.0,-9999.0,-1502.0,-9836.0,4.0,18.0,37.0,-26.0,-11.0,5.0,2.0,5.0,0.07005453109741211
31,24.0,4.0,26.0,1.0,-8337.0,-9999.0,-1502.0,-9836.0,-1.0,-7.0,4.0,3.0,-9.0,-11.0,-4.0,10.0,0.07211494445800781
32,24.0,4.0,26.0,1.0,-8337.0,-9999.0,-1502.0,-9836.0,8.0,21.0,47.0,-22.0,10.0,4.0,0.0,-1.0,0.07394218444824219
33,1.0,6.0,10.0,1.0,-8336.0,-9999.0,-1502.0,-9836.0,8.0,21.0,47.0,-22.0,10.0,4.0,0.0,-1.0,0.07580399513244629
34,1.0,6.0,10.0,1.0,-8336.0,-9999.0,-1502.0,-9836.0,3.0,-1.0,17.0,7.0,-18.0,15.0,4.0,7.0,0.07770037651062012
35,1.0,6.0,10.0,1.0,-8336.0,-9999.0,-1502.0,-9836.0,-3.0,-8.0,-19.0,-5.0,-9.0,22.0,5.0,-8.0,0.07954931259155273
36,5.0,5.0,4.0,1.0,-8336.0,-9999.0,-1501.0,-9836.0,-3.0,-8.0,-19.0,-5.0,-9.0,22.0,5.0,-8.0,0.0813593864440918
37,5.0,5.0,4.0,1.0,-8336.0,-9999.0,-1501.0,-9836.0,6.0,12.0,18.0,-34.0,3.0,18.0,5.0,26.0,0.08387446403503418
38,5.0,5.0,4.0,1.0,-8336.0,-9999.0,-1501.0,-9836.0,-4.0,-12.0,-23.0,-25.0,3.0,-30.0,-6.0,-4.0,0.08752107620239258
39,22.0,5.0,3.0,1.0,-8332.0,-10003.0,-1503.0,-9836.0,-4.0,-12.0,-23.0,-25.0,3.0,-30.0,-6.0,-4.0,0.08966302871704102
40,22.0,5.0,3.0,1.0,-8332.0,-10003.0,-1503.0,-9836.0,-4.0,-3.0,-21.0,2.0,-8.0,-18.0,-8.0,-4.0,0.09193301200866699
41,22.0,5.0,3.0,1.0,-8332.0,-10003.0,-1503.0,-9836.0,3.0,10.0,75.0,-12.0,-4.0,-5.0,0.0,1.0,0.09449267387390137
42,7.0,5.0,1.0,1.0,-8331.0,-10003.0,-1503.0,-9835.0,3.0,10.0,75.0,-12.0,-4.0,-5.0,0.0,1.0,0.09646010398864746
43,7.0,5.0,1.0,1.0,-8331.0,-10003.0,-1503.0,-9835.0,1.0,1.0,-10.0,-10.0,16.0,-14.0,-1.0,-15.0,0.09843921661376953
44,7.0,5.0,1.0,1.0,-8331.0,-10003.0,-1503.0,-9835.0,-5.0,-7.0,-35.0,3.0,-22.0,-12.0,1.0,1.0,0.10026931762695312
45,-4.0,7.0,5.0,1.0,-8331.0,-10003.0,-1503.0,-9835.0,-5.0,-7.0,-35.0,3.0,-22.0,-12.0,1.0,1.0,0.1020967960357666
46,-4.0,7.0,5.0,1.0,-8331.0,-10003.0,-1503.0,-9835.0,0.0,-5.0,9.0,33.0,15.0,-2.0,0.0,-9.0,0.10411930084228516
47,-4.0,7.0,5.0,1.0,-8331.0,-10003.0,-1503.0,-9835.0,-6.0,-13.0,-57.0,18.0,3.0,44.0,-4.0,-12.0,0.10596060752868652
48,-16.0,20.0,7.0,1.0,-8329.0,-10001.0,-1500.0,-9839.0,-6.0,-13.0,-57.0,18.0,3.0,44.0,-4.0,-12.0,0.10787510871887207
49,-16.0,20.0,7.0,1.0,-8329.0,-10001.0,-1500.0,-9839.0,1.0,-3.0,2.0,-23.0,5.0,72.0,-1.0,-14.0,0.10975885391235352
50,-16.0,20.0,7.0,1.0,-8329.0,-10001.0,-1500.0,-9839.0,2.0,5.0,19.0,26.0,9.0,-25.0,3.0,0.0,0.11159276962280273
51,-13.0,22.0,12.0,1.0,-8327.0,-9999.0,-1495.0,-9845.0,2.0,5.0,19.0,26.0,9.0,-25.0,3.0,0.0,0.11346578598022461
52,-13.0,22.0,12.0,1.0,-8327.0,-9999.0,-1495.0,-9845.0,-2.0,-6.0,5.0,7.0,4.0,-66.0,0.0,3.0,0.11685919761657715
53,-13.0,22.0,12.0,1.0,-8327.0,-9999.0,-1495.0,-9845.0,-2.0,-2.0,-16.0,-11.0,-10.0,-11.0,-6.0,1.0,0.11947059631347656
54,7.0,25.0,13.0,1.0,-8322.0,-9999.0,-1495.0,-9849.0,-2.0,-2.0,-16.0,-11.0,-10.0,-11.0,-6.0,1.0,0.12143468856811523
55,7.0,25.0,13.0,1.0,-8322.0,-9999.0,-1495.0,-9849.0,-1.0,2.0,-15.0,-14.0,-10.0,-5.0,-6.0,2.0,0.12339568138122559
56,7.0,25.0,13.0,1.0,-8322.0,-9999.0,-1495.0,-9849.0,-3.0,-8.0,-10.0,17.0,28.0,-27.0,-6.0,-4.0,0.12619972229003906
57,5.0,26.0,14.0,1.0,-8318.0,-9998.0,-1496.0,-9853.0,-3.0,-8.0,-10.0,17.0,28.0,-27.0,-6.0,-4.0,0.12819790840148926
58,5.0,26.0,14.0,1.0,-8318.0,-9998.0,-1496.0,-9853.0,-7.0,-8.0,-10.0,46.0,-1.0,-10.0,-8.0,-25.0,0.13012361526489258
59,5.0,26.0,14.0,1.0,-8318.0,-9998.0,-1496.0,-9853.0,0.0,-4.0,7.0,-6.0,-9.0,3.0,8.0,24.0,0.13196802139282227
60,-2.0,35.0,24.0,1.0,-8314.0,-9997.0,-1497.0,-9857.0,0.0,-4.0,7.0,-6.0,-9.0,3.0,8.0,24.0,0.1337895393371582
61,-2.0,35.0,24.0,1.0,-8314.0,-9997.0,-1497.0,-9857.0,0.0,0.0,-15.0,-15.0,-12.0,-3.0,7.0,4.0,0.135725736618042
62,-2.0,35.0,24.0,1.0,-8314.0,-9997.0,-1497.0,-9857.0,1.0,2.0,3.0,10.0,-6.0,3.0,-4.0,5.0,0.1376490592956543
63,-28.0,26.0,23.0,1.0,-8313.0,-9994.0,-1494.0,-9861.0,1.0,2.0,3.0,10.0,-6.0,3.0,-4.0,5.0,0.13951325416564941
64,-28.0,26.0,23.0,1.0,-8313.0,-9994.0,-1494.0,-9861.0,-2.0,-5.0,-12.0,-39.0,-7.0,3.0,-5.0,-11.0,0.14142179489135742
65,-28.0,26.0,23.0,1.0,-8313.0,-9994.0,-1494.0,-9861.0,-2.0,-8.0,-12.0,13.0,10.0,-11.0,-2.0,4.0,0.14324212074279785
66,19.0,22.0,22.0,1.0,-8306.0,-9996.0,-1495.0,-9865.0,-2.0,-8.0,-12.0,13.0,10.0,-11.0,-2.0,4.0,0.1455821990966797
67,19.0,22.0,22.0,1.0,-8306.0,-9996.0,-1495.0,-9865.0,3.0,12.0,28.0,15.0,5.0,-4.0,1.0,4.0,0.14898061752319336
68,19.0,22.0,22.0,1.0,-8306.0,-9996.0,-1495.0,-9865.0,-14.0,-3.0,-22.0,-13.0,-4.0,-1.0,3.0,32.0,0.15109801292419434
69,27.0,13.0,20.0,1.0,-8300.0,-9999.0,-1496.0,-9867.0,-14.0,-3.0,-22.0,-13.0,-4.0,-1.0,3.0,32.0,0.1529548168182373
70,27.0,13.0,20.0,1.0,-8300.0,-9999.0,-1496.0,-9867.0,0.0,-3.0,-7.0,2.0,9.0,19.0,-1.0,12.0,0.15490460395812988
71,27.0,13.0,20.0,1.0,-8300.0,-9999.0,-1496.0,-9867.0,5.0,-5.0,-40.0,-25.0,-9.0,11.0,0.0,-24.0,0.15673279762268066
72,18.0,13.0,23.0,1.0,-8294.0,-10000.0,-1497.0,-9870.0,5.0,-5.0,-40.0,-25.0,-9.0,11.0,0.0,-24.0,0.15950250625610352
73,18.0,13.0,23.0,1.0,-8294.0,-10000.0,-1497.0,-9870.0,1.0,0.0,11.0,2.0,3.0,1.0,-1.0,10.0,0.16163325309753418
74,18.0,13.0,23.0,1.0,-8294.0,-10000.0,-1497.0,-9870.0,0.0,-1.0,-10.0,-2.0,10.0,-2.0,0.0,3.0,0.16352224349975586
75,18.0,3.0,19.0,1.0,-8289.0,-10003.0,-1496.0,-9872.0,0.0,-1.0,-10.0,-2.0,10.0,-2.0,0.0,3.0,0.16538190841674805
76,18.0,3.0,19.0,1.0,-8289.0,-10003.0,-1496.0,-9872.0,-2.0,-7.0,1.0,-1.0,-12.0,-10.0,4.0,0.0,0.16740894317626953
77,18.0,3.0,19.0,1.0,-8289.0,-10003.0,-1496.0,-9872.0,2.0,3.0,4.0,8.0,-8.0,-20.0,-3.0,-10.0,0.16925549507141113
78,20.0,2.0,8.0,1.0,-8284.0,-10007.0,-1497.0,-9872.0,2.0,3.0,4.0,8.0,-8.0,-20.0,-3.0,-10.0,0.17122650146484375
79,20.0,2.0,8.0,1.0,-8284.0,-10007.0,-1497.0,-9872.0,-7.0,-3.0,3.0,-2.0,1.0,12.0,-3.0,-7.0,0.1732041835784912
80,20.0,2.0,8.0,1.0,-8284.0,-10007.0,-1497.0,-9872.0,3.0,1.0,-5.0,-13.0,-8.0,-18.0,-3.0,24.0,0.1750636100769043
81,17.0,-4.0,-2.0,1.0,-8281.0,-10013.0,-1500.0,-9868.0,3.0,1.0,-5.0,-13.0,-8.0,-18.0,-3.0,24.0,0.17827105522155762
82,17.0,-4.0,-2.0,1.0,-8281.0,-10013.0,-1500.0,-9868.0,-5.0,-2.0,-15.0,26.0,-3.0,-4.0,0.0,0.0,0.1813197135925293
83,17.0,-4.0,-2.0,1.0,-8281.0,-10013.0,-1500.0,-9868.0,4.0,11.0,50.0,-11.0,-1.0,26.0,3.0,-24.0,0.18337035179138184
84,-2.0,0.0,2.0,1.0,-8281.0,-10013.0,-1500.0,-9868.0,4.0,11.0,50.0,-11.0,-1.0,26.0,3.0,-24.0,0.18522143363952637
85,-2.0,0.0,2.0,1.0,-8281.0,-10013.0,-1500.0,-9868.0,4.0,5.0,-20.0,-31.0,-11.0,4.0,12.0,25.0,0.18716740608215332
86,-2.0,0.0,2.0,1.0,-8281.0,-10013.0,-1500.0,-9868.0,1.0,0.0,11.0,7.0,5.0,0.0,0.0,-7.0,0.1889936923980713
87,-5.0,-2.0,-2.0,1.0,-8281.0,-10013.0,-1500.0,-9868.0,1.0,0.0,11.0,7.0,5.0,0.0,0.0,-7.0,0.19082093238830566
88,-5.0,-2.0,-2.0,1.0,-8281.0,-10013.0,-1500.0,-9868.0,-4.0,-13.0,-16.0,1.0,21.0,-23.0,-11.0,-9.0,0.19374299049377441
89,-5.0,-2.0,-2.0,1.0,-8281.0,-10013.0,-1500.0,-9868.0,-2.0,-3.0,8.0,11.0,-21.0,31.0,0.0,-3.0,0.19570040702819824
90,-15.0,1.0,-2.0,1.0,-8281.0,-10013.0,-1500.0,-9868.0,-2.0,-3.0,8.0,11.0,-21.0,31.0,0.0,-3.0,0.1975398063659668
91,-15.0,1.0,-2.0,1.0,-8281.0,-10013.0,-1500.0,-9868.0,-1.0,-5.0,-7.0,-20.0,-21.0,5.0,1.0,12.0,0.19945907592773438
92,-15.0,1.0,-2.0,1.0,-8281.0,-10013.0,-1500.0,-9868.0,1.0,1.0,-6.0,-5.0,8.0,-10.0,1.0,-2.0,0.2012789249420166
93,-16.0,-5.0,1.0,1.0,-8281.0,-10014.0,-1500.0,-9868.0,1.0,1.0,-6.0,-5.0,8.0,-10.0,1.0,-2.0,0.20313358306884766
94,-16.0,-5.0,1.0,1.0,-8281.0,-10014.0,-1500.0,-9868.0,0.0,-1.0,-2.0,12.0,0.0,3.0,-7.0,-14.0,0.20527338981628418
95,-16.0,-5.0,1.0,1.0,-8281.0,-10014.0,-1500.0,-9868.0,-5.0,-18.0,-83.0,34.0,-16.0,-8.0,-10.0,-9.0,0.2075362205505371
96,-64.0,4.0,1.0,1.0,-8286.0,-10008.0,-1491.0,-9870.0,-5.0,-18.0,-83.0,34.0,-16.0,-8.0,-10.0,-9.0,0.2108461856842041
97,-64.0,4.0,1.0,1.0,-8286.0,-10008.0,-1491.0,-9870.0,6.0,10.0,25.0,-24.0,-20.0,-9.0,-7.0,-6.0,0.21290802955627441
98,-64.0,4.0,1.0,1.0,-8286.0,-10008.0,-1491.0,-9870.0,-2.0,-10.0,-20.0,-16.0,-2.0,-11.0,2.0,-3.0,0.21477961540222168
99,-30.0,-7.0,4.0,1.0,-8286.0,-10008.0,-1483.0,-9872.0,-2.0,-10.0,-20.0,-16.0,-2.0,-11.0,2.0,-3.0,0.21662688255310059
100,-30.0,-7.0,4.0,1.0,-8286.0,-10008.0,-1483.0,-9872.0,0.0,2.0,-1.0,6.0,7.0,-11.0,3.0,0.0,0.21853423118591309
101,-30.0,-7.0,4.0,1.0,-8286.0,-10008.0,-1483.0,-9872.0,-1.0,-1.0,1.0,-9.0,8.0,-3.0,-2.0,18.0,0.22038626670837402
102,-8.0,4.0,-9.0,1.0,-8285.0,-10008.0,-1482.0,-9872.0,-1.0,-1.0,1.0,-9.0,8.0,-3.0,-2.0,18.0,0.22220373153686523
103,-8.0,4.0,-9.0,1.0,-8285.0,-10008.0,-1482.0,-9872.0,-2.0,-8.0,-60.0,6.0,-5.0,13.0,3.0,16.0,0.22469592094421387
104,-8.0,4.0,-9.0,1.0,-8285.0,-10008.0,-1482.0,-9872.0,-3.0,0.0,-8.0,-18.0,1.0,-9.0,-4.0,-9.0,0.22710704803466797
105,12.0,8.0,-2.0,1.0,-8285.0,-10008.0,-1483.0,-9872.0,-3.0,0.0,-8.0,-18.0,1.0,-9.0,-4.0,-9.0,0.22905373573303223
106,12.0,8.0,-2.0,1.0,-8285.0,-10008.0,-1483.0,-9872.0,-2.0,-11.0,-28.0,-5.0,6.0,0.0,-6.0,-11.0,0.23097562789916992
107,12.0,8.0,-2.0,1.0,-8285.0,-10008.0,-1483.0,-9872.0,0.0,6.0,23.0,-5.0,-6.0,-3.0,-7.0,-10.0,0.23279023170471191
108,-8.0,1.0,13.0,1.0,-8285.0,-10009.0,-1483.0,-9871.0,0.0,6.0,23.0,-5.0,-6.0,-3.0,-7.0,-10.0,0.23470807075500488
109,-8.0,1.0,13.0,1.0,-8285.0,-10009.0,-1483.0,-9871.0,-2.0,0.0,29.0,-14.0,2.0,9.0,6.0,5.0,0.23660564422607422
110,-8.0,1.0,13.0,1.0,-8285.0,-10009.0,-1483.0,-9871.0,11.0,29.0,86.0,-49.0,-8.0,5.0,4.0,1.0,0.2396700382232666
111,-13.0,0.0,14.0,1.0,-8285.0,-10009.0,-1483.0,-9871.0,11.0,29.0,86.0,-49.0,-8.0,5.0,4.0,1.0,0.2435619831085205
112,-13.0,0.0,14.0,1.0,-8285.0,-10009.0,-1483.0,-9871.0,3.0,5.0,4.0,-2.0,20.0,-3.0,2.0,9.0,0.24557709693908691
113,-13.0,0.0,14.0,1.0,-8285.0,-10009.0,-1483.0,-9871.0,15.0,-9.0,-28.0,-10.0,8.0,-1.0,3.0,-6.0,0.2474370002746582
114,-4.0,-20.0,9.0,1.0,-8284.0,-10014.0,-1482.0,-9868.0,15.0,-9.0,-28.0,-10.0,8.0,-1.0,3.0,-6.0,0.24927830696105957
115,-4.0,-20.0,9.0,1.0,-8284.0,-10014.0,-1482.0,-9868.0,28.0,0.0,10.0,-14.0,-4.0,14.0,-1.0,-12.0,0.25118064880371094
116,-4.0,-20.0,9.0,1.0,-8284.0,-10014.0,-1482.0,-9868.0,11.0,3.0,2.0,16.0,-11.0,6.0,0.0,13.0,0.25298571586608887
117,-19.0,-16.0,0.0,1.0,-8286.0,-10014.0,-1478.0,-9866.0,11.0,3.0,2.0,16.0,-11.0,6.0,0.0,13.0,0.25495219230651855
118,-19.0,-16.0,0.0,1.0,-8286.0,-10014.0,-1478.0,-9866.0,1.0,6.0,28.0,10.0,4.0,-1.0,-5.0,3.0,0.25688624382019043
119,-19.0,-16.0,0.0,1.0,-8286.0,-10014.0,-1478.0,-9866.0,-8.0,0.0,8.0,13.0,8.0,1.0,1.0,-4.0,0.25870442390441895
120,3.0,-13.0,-5.0,1.0,-8285.0,-10015.0,-1479.0,-9866.0,-8.0,0.0,8.0,13.0,8.0,1.0,1.0,-4.0,0.26050424575805664
121,3.0,-13.0,-5.0,1.0,-8285.0,-10015.0,-1479.0,-9866.0,-5.0,-6.0,-18.0,3.0,-3.0,-7.0,4.0,1.0,0.26241326332092285
122,3.0,-13.0,-5.0,1.0,-8285.0,-10015.0,-1479.0,-9866.0,1.0,8.0,20.0,-30.0,-5.0,21.0,10.0,16.0,0.26424479484558105
123,-13.0,-18.0,-15.0,1.0,-8287.0,-10018.0,-1478.0,-9861.0,1.0,8.0,20.0,-30.0,-5.0,21.0,10.0,16.0,0.26605677604675293
124,-13.0,-18.0,-15.0,1.0,-8287.0,-10018.0,-1478.0,-9861.0,-6.0,-1.0,-11.0,5.0,-6.0,-4.0,-1.0,-10.0,0.2679436206817627
125,-13.0,-18.0,-15.0,1.0,-8287.0,-10018.0,-1478.0,-9861.0,-10.0,-11.0,-26.0,8.0,6.0,-10.0,-5.0,-4.0,0.27074384689331055
126,-8.0,-13.0,-16.0,1.0,-8287.0,-10019.0,-1478.0,-9860.0,-10.0,-11.0,-26.0,8.0,6.0,-10.0,-5.0,-4.0,0.2735710144042969
127,-8.0,-13.0,-16.0,1.0,-8287.0,-10019.0,-1478.0,-9860.0,-4.0,-2.0,7.0,7.0,-3.0,-9.0,-2.0,-4.0,0.27678418159484863
128,-8.0,-13.0,-16.0,1.0,-8287.0,-10019.0,-1478.0,-9860.0,-7.0,-11.0,-27.0,22.0,1.0,-9.0,-6.0,-24.0,0.2787158489227295
129,-23.0,-8.0,-16.0,1.0,-8291.0,-10019.0,-1477.0,-9858.0,-7.0,-11.0,-27.0,22.0,1.0,-9.0,-6.0,-24.0,0.2805500030517578
130,-23.0,-8.0,-16.0,1.0,-8291.0,-10019.0,-1477.0,-9858.0,1.0,9.0,26.0,65.0,-3.0,9.0,0.0,-19.0,0.28246235847473145
131,-23.0,-8.0,-16.0,1.0,-8291.0,-10019.0,-1477.0,-9858.0,-1.0,2.0,-1.0,10.0,15.0,22.0,3.0,-2.0,0.2842743396759033
132,4.0,-22.0,-20.0,1.0,-8292.0,-10022.0,-1479.0,-9852.0,-1.0,2.0,-1.0,10.0,15.0,22.0,3.0,-2.0,0.28608083724975586
133,4.0,-22.0,-20.0,1.0,-8292.0,-10022.0,-1479.0,-9852.0,-5.0,-10.0,-29.0,-11.0,6.0,34.0,1.0,3.0,0.28816771507263184
134,4.0,-22.0,-20.0,1.0,-8292.0,-10022.0,-1479.0,-9852.0,-1.0,-2.0,-7.0,2.0,0.0,11.0,-7.0,-4.0,0.29001617431640625
135,-33.0,-25.0,-20.0,1.0,-8297.0,-10023.0,-1475.0,-9848.0,-1.0,-2.0,-7.0,2.0,0.0,11.0,-7.0,-4.0,0.29183411598205566
136,-33.0,-25.0,-20.0,1.0,-8297.0,-10023.0,-1475.0,-9848.0,-1.0,2.0,17.0,-26.0,-27.0,-8.0,-4.0,-5.0,0.29371023178100586
137,-33.0,-25.0,-20.0,1.0,-8297.0,-10023.0,-1475.0,-9848.0,4.0,4.0,47.0,18.0,-16.0,-24.0,4.0,8.0,0.2955610752105713
138,-22.0,-25.0,-22.0,1.0,-8303.0,-10024.0,-1473.0,-9843.0,4.0,4.0,47.0,18.0,-16.0,-24.0,4.0,8.0,0.2973790168762207
139,-22.0,-25.0,-22.0,1.0,-8303.0,-10024.0,-1473.0,-9843.0,-3.0,-4.0,-9.0,-8.0,-7.0,-31.0,-4.0,-11.0,0.299389123916626
140,-22.0,-25.0,-22.0,1.0,-8303.0,-10024.0,-1473.0,-9843.0,-2.0,-6.0,-20.0,-14.0,3.0,-26.0,1.0,-9.0,0.3027222156524658
141,-34.0,-22.0,-24.0,1.0,-8308.0,-10024.0,-1470.0,-9839.0,-2.0,-6.0,-20.0,-14.0,3.0,-26.0,1.0,-9.0,0.3048064708709717
142,-34.0,-22.0,-24.0,1.0,-8308.0,-10024.0,-1470.0,-9839.0,-5.0,-16.0,-55.0,-1.0,8.0,-28.0,-4.0,-3.0,0.3067648410797119
143,-34.0,-22.0,-24.0,1.0,-8308.0,-10024.0,-1470.0,-9839.0,-4.0,-1.0,-6.0,-3.0,7.0,-4.0,4.0,19.0,0.30963611602783203
144,-43.0,-27.0,-17.0,1.0,-8314.0,-10023.0,-1463.0,-9836.0,-4.0,-1.0,-6.0,-3.0,7.0,-4.0,4.0,19.0,0.3185558319091797
145,-43.0,-27.0,-17.0,1.0,-8314.0,-10023.0,-1463.0,-9836.0,-2.0,-3.0,-18.0,-4.0,-1.0,-1.0,1.0,11.0,0.32747864723205566
146,-43.0,-27.0,-17.0,1.0,-8314.0,-10023.0,-1463.0,-9836.0,-2.0,1.0,-2.0,-10.0,-3.0,-1.0,-6.0,-6.0,0.330488920211792
147,-14.0,-28.0,-14.0,1.0,-8315.0,-10027.0,-1459.0,-9831.0,-2.0,1.0,-2.0,-10.0,-3.0,-1.0,-6.0,-6.0,0.341048002243042
148,-14.0,-28.0,-14.0,1.0,-8315.0,-10027.0,-1459.0,-9831.0,3.0,6.0,37.0,12.0,3.0,-3.0,-2.0,2.0,0.34909653663635254
149,-14.0,-28.0,-14.0,1.0,-8315.0,-10027.0,-1459.0,-9831.0,-3.0,0.0,9.0,36.0,2.0,0.0,-3.0,-14.0,0.3509502410888672
150,-37.0,-25.0,-17.0,1.0,-8321.0,-10027.0,-1456.0,-9826.0,-3.0,0.0,9.0,36.0,2.0,0.0,-3.0,-14.0,0.3657236099243164
151,-37.0,-25.0,-17.0,1.0,-8321.0,-10027.0,-1456.0,-9826.0,-2.0,3.0,14.0,17.0,22.0,6.0,-3.0,11.0,0.36959171295166016
152,-37.0,-25.0,-17.0,1.0,-8321.0,-10027.0,-1456.0,-9826.0,-2.0,-3.0,-17.0,25.0,5.0,10.0,-4.0,-11.0,0.3730325698852539
153,-53.0,-22.0,-15.0,1.0,-8327.0,-10027.0,-1450.0,-9823.0,-2.0,-3.0,-17.0,25.0,5.0,10.0,-4.0,-11.0,0.37869906425476074
154,-53.0,-22.0,-15.0,1.0,-8327.0,-10027.0,-1450.0,-9823.0,2.0,4.0,5.0,-7.0,-27.0,21.0,2.0,3.0,0.3947434425354004
155,-53.0,-22.0,-15.0,1.0,-8327.0,-10027.0,-1450.0,-9823.0,-2.0,-5.0,-19.0,-15.0,-22.0,9.0,-2.0,-6.0,0.3985130786895752
156,-35.0,-23.0,-19.0,1.0,-8332.0,-10029.0,-1446.0,-9818.0,-2.0,-5.0,-19.0,-15.0,-22.0,9.0,-2.0,-6.0,0.40193629264831543
157,-35.0,-23.0,-19.0,1.0,-8332.0,-10029.0,-1446.0,-9818.0,-16.0,-4.0,3.0,-6.0,2.0,15.0,2.0,-1.0,0.41126132011413574
158,-35.0,-23.0,-19.0,1.0,-8332.0,-10029.0,-1446.0,-9818.0,3.0,-4.0,3.0,-28.0,-11.0,15.0,-3.0,-14.0,0.41344165802001953
159,-8.0,-29.0,-15.0,1.0,-8332.0,-10033.0,-1442.0,-9813.0,3.0,-4.0,3.0,-28.0,-11.0,15.0,-3.0,-14.0,0.42505574226379395
160,-8.0,-29.0,-15.0,1.0,-8332.0,-10033.0,-1442.0,-9813.0,10.0,10.0,12.0,-5.0,22.0,-6.0,1.0,-6.0,0.4288039207458496
161,-8.0,-29.0,-15.0,1.0,-8332.0,-10033.0,-1442.0,-9813.0,5.0,-1.0,7.0,-2.0,5.0,-14.0,4.0,-8.0,0.4318277835845947
162,15.0,-32.0,-19.0,1.0,-8332.0,-10039.0,-1442.0,-9808.0,5.0,-1.0,7.0,-2.0,5.0,-14.0,4.0,-8.0,0.43900084495544434
163,15.0,-32.0,-19.0,1.0,-8332.0,-10039.0,-1442.0,-9808.0,-1.0,-3.0,-13.0,-5.0,-10.0,-24.0,1.0,6.0,0.4467146396636963
164,15.0,-32.0,-19.0,1.0,-8332.0,-10039.0,-1442.0,-9808.0,-1.0,2.0,16.0,19.0,-4.0,-16.0,-4.0,-9.0,0.4534027576446533
165,26.0,-39.0,-7.0,1.0,-8328.0,-10048.0,-1440.0,-9802.0,-1.0,2.0,16.0,19.0,-4.0,-16.0,-4.0,-9.0,0.46111035346984863
166,26.0,-39.0,-7.0,1.0,-8328.0,-10048.0,-1440.0,-9802.0,2.0,5.0,0.0,-43.0,-14.0,-14.0,1.0,1.0,0.4691500663757324
167,26.0,-39.0,-7.0,1.0,-8328.0,-10048.0,-1440.0,-9802.0,-7.0,-7.0,-4.0,-11.0,14.0,6.0,-1.0,-8.0,0.47125792503356934
168,11.0,-50.0,4.0,1.0,-8324.0,-10056.0,-1433.0,-9798.0,-7.0,-7.0,-4.0,-11.0,14.0,6.0,-1.0,-8.0,0.4838860034942627
169,11.0,-50.0,4.0,1.0,-8324.0,-10056.0,-1433.0,-9798.0,7.0,13.0,47.0,-5.0,8.0,9.0,4.0,0.0,0.48778820037841797
170,11.0,-50.0,4.0,1.0,-8324.0,-10056.0,-1433.0,-9798.0,-5.0,-4.0,-32.0,-16.0,0.0,-3.0,1.0,12.0,0.4924139976501465
171,14.0,-61.0,16.0,1.0,-8320.0,-10065.0,-1426.0,-9793.0,-5.0,-4.0,-32.0,-16.0,0.0,-3.0,1.0,12.0,0.5079572200775146
172,14.0,-61.0,16.0,1.0,-8320.0,-10065.0,-1426.0,-9793.0,-4.0,-4.0,-1.0,-16.0,7.0,6.0,-6.0,0.0,0.5113077163696289
173,14.0,-61.0,16.0,1.0,-8320.0,-10065.0,-1426.0,-9793.0,-3.0,1.0,-9.0,-15.0,-3.0,-2.0,-6.0,6.0,0.5150125026702881
174,-25.0,-56.0,10.0,1.0,-8322.0,-10068.0,-1416.0,-9789.0,-3.0,1.0,-9.0,-15.0,-3.0,-2.0,-6.0,6.0,0.5223474502563477
175,-25.0,-56.0,10.0,1.0,-8322.0,-10068.0,-1416.0,-9789.0,-3.0,-4.0,2.0,16.0,-4.0,0.0,0.0,7.0,0.5292301177978516
176,-25.0,-56.0,10.0,1.0,-8322.0,-10068.0,-1416.0,-9789.0,2.0,7.0,45.0,15.0,-2.0,7.0,5.0,14.0,0.531062126159668
177,-130.0,-55.0,0.0,1.0,-8339.0,-10061.0,-1398.0,-9785.0,2.0,7.0,45.0,15.0,-2.0,7.0,5.0,14.0,0.5449919700622559
178,-130.0,-55.0,0.0,1.0,-8339.0,-10061.0,-1398.0,-9785.0,-1.0,-10.0,-29.0,5.0,18.0,-8.0,-4.0,-28.0,0.5490190982818604
179,-130.0,-55.0,0.0,1.0,-8339.0,-10061.0,-1398.0,-9785.0,4.0,-3.0,-8.0,7.0,-1.0,4.0,3.0,-11.0,0.5524275302886963
180,-254.0,-51.0,-22.0,1.0,-8370.0,-10040.0,-1367.0,-9784.0,4.0,-3.0,-8.0,7.0,-1.0,4.0,3.0,-11.0,0.5683717727661133
181,-254.0,-51.0,-22.0,1.0,-8370.0,-10040.0,-1367.0,-9784.0,3.0,9.0,71.0,-6.0,-21.0,0.0,5.0,12.0,0.572479248046875
182,-254.0,-51.0,-22.0,1.0,-8370.0,-10040.0,-1367.0,-9784.0,-5.0,-5.0,-30.0,-19.0,-2.0,-9.0,-11.0,-11.0,0.5762205123901367
183,-358.0,-42.0,-41.0,1.0,-8415.0,-10007.0,-1327.0,-9785.0,-5.0,-5.0,-30.0,-19.0,-2.0,-9.0,-11.0,-11.0,0.5811131000518799
184,-358.0,-42.0,-41.0,1.0,-8415.0,-10007.0,-1327.0,-9785.0,1.0,-12.0,-64.0,-25.0,11.0,9.0,5.0,19.0,0.5894825458526611
185,-358.0,-42.0,-41.0,1.0,-8415.0,-10007.0,-1327.0,-9785.0,-2.0,-1.0,-27.0,-12.0,-1.0,9.0,10.0,17.0,0.591904878616333
186,-450.0,-41.0,-41.0,1.0,-8472.0,-9960.0,-1275.0,-9791.0,-2.0,-1.0,-27.0,-12.0,-1.0,9.0,10.0,17.0,0.6044344902038574
187,-450.0,-41.0,-41.0,1.0,-8472.0,-9960.0,-1275.0,-9791.0,-3.0,-1.0,-8.0,16.0,31.0,-21.0,-20.0,-35.0,0.6076645851135254
188,-450.0,-41.0,-41.0,1.0,-8472.0,-9960.0,-1275.0,-9791.0,2.0,9.0,65.0,20.0,8.0,24.0,-6.0,22.0,0.6124570369720459
189,-588.0,-47.0,-58.0,1.0,-8547.0,-9897.0,-1208.0,-9798.0,2.0,9.0,65.0,20.0,8.0,24.0,-6.0,22.0,0.6279780864715576
190,-588.0,-47.0,-58.0,1.0,-8547.0,-9897.0,-1208.0,-9798.0,2.0,15.0,21.0,16.0,9.0,18.0,8.0,5.0,0.6311256885528564
191,-588.0,-47.0,-58.0,1.0,-8547.0,-9897.0,-1208.0,-9798.0,-13.0,-14.0,-31.0,-5.0,5.0,-31.0,-1.0,-44.0,0.6341128349304199
192,-662.0,-4.0,-78.0,1.0,-8631.0,-9816.0,-1135.0,-9814.0,-13.0,-14.0,-31.0,-5.0,5.0,-31.0,-1.0,-44.0,0.6437430381774902
193,-662.0,-4.0,-78.0,1.0,-8631.0,-9816.0,-1135.0,-9814.0,-3.0,22.0,55.0,37.0,-42.0,-28.0,3.0,30.0,0.6494815349578857
194,-662.0,-4.0,-78.0,1.0,-8631.0,-9816.0,-1135.0,-9814.0,-9.0,-2.0,-51.0,-21.0,11.0,36.0,3.0,9.0,0.6513576507568359
195,-620.0,68.0,-118.0,1.0,-8716.0,-9734.0,-1085.0,-9827.0,-9.0,-2.0,-51.0,-21.0,11.0,36.0,3.0,9.0,0.6639618873596191
196,-620.0,68.0,-118.0,1.0,-8716.0,-9734.0,-1085.0,-9827.0,-21.0,-5.0,22.0,-26.0,21.0,26.0,-1.0,-16.0,0.665851354598999
197,-620.0,68.0,-118.0,1.0,-8716.0,-9734.0,-1085.0,-9827.0,5.0,3.0,-13.0,-4.0,-2.0,-40.0,-14.0,-14.0,0.6714212894439697
198,-655.0,239.0,-139.0,1.0,-8817.0,-9613.0,-1057.0,-9859.0,5.0,3.0,-13.0,-4.0,-2.0,-40.0,-14.0,-14.0,0.6881217956542969
199,-655.0,239.0,-139.0,1.0,-8817.0,-9613.0,-1057.0,-9859.0,1.0,-15.0,-82.0,22.0,10.0,19.0,12.0,73.0,0.6915349960327148
200,-655.0,239.0,-139.0,1.0,-8817.0,-9613.0,-1057.0,-9859.0,5.0,16.0,20.0,22.0,91.0,14.0,4.0,35.0,0.694739580154419
201,-838.0,387.0,-227.0,1.0,-8958.0,-9443.0,-1050.0,-9897.0,5.0,16.0,20.0,22.0,91.0,14.0,4.0,35.0,0.7024304866790771
202,-838.0,387.0,-227.0,1.0,-8958.0,-9443.0,-1050.0,-9897.0,2.0,-19.0,-52.0,-24.0,-35.0,-12.0,-5.0,-26.0,0.7098140716552734
203,-838.0,387.0,-227.0,1.0,-8958.0,-9443.0,-1050.0,-9897.0,13.0,-14.0,-97.0,12.0,-23.0,-8.0,10.0,6.0,0.7116830348968506
204,-871.0,615.0,-132.0,1.0,-9090.0,-9205.0,-1014.0,-10003.0,13.0,-14.0,-97.0,12.0,-23.0,-8.0,10.0,6.0,0.7247648239135742
205,-871.0,615.0,-132.0,1.0,-9090.0,-9205.0,-1014.0,-10003.0,-3.0,-3.0,18.0,12.0,-32.0,-13.0,-10.0,-34.0,0.7279205322265625
206,-871.0,615.0,-132.0,1.0,-9090.0,-9205.0,-1014.0,-10003.0,0.0,-1.0,25.0,20.0,-11.0,3.0,1.0,-11.0,0.7313086986541748
207,386.0,1077.0,59.0,1.0,-9088.0,-8997.0,-1134.0,-10181.0,0.0,-1.0,25.0,20.0,-11.0,3.0,1.0,-11.0,0.748781681060791
208,386.0,1077.0,59.0,1.0,-9088.0,-8997.0,-1134.0,-10181.0,-3.0,-7.0,26.0,-26.0,-20.0,4.0,0.0,-19.0,0.7523736953735352
209,386.0,1077.0,59.0,1.0,-9088.0,-8997.0,-1134.0,-10181.0,-5.0,19.0,90.0,-6.0,-40.0,-11.0,-1.0,-1.0,0.7559142112731934
210,760.0,1340.0,-158.0,1.0,-9071.0,-8836.0,-1405.0,-10302.0,-5.0,19.0,90.0,-6.0,-40.0,-11.0,-1.0,-1.0,0.762096643447876
211,760.0,1340.0,-158.0,1.0,-9071.0,-8836.0,-1405.0,-10302.0,-9.0,-19.0,-78.0,-49.0,-18.0,-5.0,6.0,-4.0,0.7691433429718018
212,760.0,1340.0,-158.0,1.0,-9071.0,-8836.0,-1405.0,-10302.0,-5.0,-2.0,4.0,3.0,-61.0,-9.0,-17.0,4.0,0.770998477935791
213,-850.0,1731.0,-516.0,1.0,-9198.0,-8528.0,-1545.0,-10429.0,-5.0,-2.0,4.0,3.0,-61.0,-9.0,-17.0,4.0,0.7842555046081543
214,-850.0,1731.0,-516.0,1.0,-9198.0,-8528.0,-1545.0,-10429.0,7.0,13.0,-42.0,-39.0,1.0,14.0,16.0,14.0,0.7861769199371338
215,-850.0,1731.0,-516.0,1.0,-9198.0,-8528.0,-1545.0,-10429.0,1.0,0.0,8.0,7.0,34.0,6.0,32.0,14.0,0.7907795906066895
216,-1983.0,2265.0,-615.0,1.0,-9418.0,-8039.0,-1607.0,-10609.0,1.0,0.0,8.0,7.0,34.0,6.0,32.0,14.0,0.8090987205505371
217,-1983.0,2265.0,-615.0,1.0,-9418.0,-8039.0,-1607.0,-10609.0,1.0,-1.0,2.0,58.0,8.0,-21.0,-14.0,0.0,0.8114137649536133
218,-1983.0,2265.0,-615.0,1.0,-9418.0,-8039.0,-1607.0,-10609.0,3.0,-9.0,-1.0,64.0,14.0,3.0,-22.0,7.0,0.813223123550415
219,-2121.0,2739.0,-866.0,1.0,-9654.0,-7467.0,-1712.0,-10797.0,3.0,-9.0,-1.0,64.0,14.0,3.0,-22.0,7.0,0.8216466903686523
220,-2121.0,2739.0,-866.0,1.0,-9654.0,-7467.0,-1712.0,-10797.0,4.0,5.0,15.0,72.0,29.0,10.0,19.0,11.0,0.8291418552398682
221,-2121.0,2739.0,-866.0,1.0,-9654.0,-7467.0,-1712.0,-10797.0,-3.0,-4.0,-20.0,-105.0,-46.0,-12.0,-5.0,-6.0,0.8309857845306396
222,-1902.0,3177.0,-1216.0,1.0,-9884.0,-6864.0,-1920.0,-10953.0,-3.0,-4.0,-20.0,-105.0,-46.0,-12.0,-5.0,-6.0,0.84442138671875
223,-1902.0,3177.0,-1216.0,1.0,-9884.0,-6864.0,-1920.0,-10953.0,-5.0,-2.0,17.0,-58.0,-53.0,1.0,-26.0,-14.0,0.8463704586029053
224,-1902.0,3177.0,-1216.0,1.0,-9884.0,-6864.0,-1920.0,-10953.0,0.0,0.0,-9.0,30.0,44.0,16.0,11.0,6.0,0.8510279655456543
225,-2099.0,3545.0,-1440.0,1.0,-10127.0,-6177.0,-2156.0,-11095.0,0.0,0.0,-9.0,30.0,44.0,16.0,11.0,6.0,0.8683362007141113
226,-2099.0,3545.0,-1440.0,1.0,-10127.0,-6177.0,-2156.0,-11095.0,-1.0,0.0,-4.0,-3.0,-4.0,-11.0,-33.0,-9.0,0.8721163272857666
227,-2099.0,3545.0,-1440.0,1.0,-10127.0,-6177.0,-2156.0,-11095.0,-2.0,3.0,8.0,-1.0,-4.0,0.0,-4.0,-2.0,0.8755857944488525
228,-2719.0,3757.0,-1653.0,1.0,-10407.0,-5375.0,-2350.0,-11213.0,-2.0,3.0,8.0,-1.0,-4.0,0.0,-4.0,-2.0,0.8821187019348145
229,-2719.0,3757.0,-1653.0,1.0,-10407.0,-5375.0,-2350.0,-11213.0,0.0,-1.0,18.0,63.0,27.0,5.0,-3.0,-4.0,0.8897788524627686
230,-2719.0,3757.0,-1653.0,1.0,-10407.0,-5375.0,-2350.0,-11213.0,-4.0,1.0,17.0,18.0,1.0,-1.0,-2.0,-4.0,0.892723560333252
231,-3392.0,3890.0,-2045.0,1.0,-10723.0,-4498.0,-2496.0,-11270.0,-4.0,1.0,17.0,18.0,1.0,-1.0,-2.0,-4.0,0.9052867889404297
232,-3392.0,3890.0,-2045.0,1.0,-10723.0,-4498.0,-2496.0,-11270.0,-4.0,-2.0,-11.0,-50.0,3.0,-13.0,12.0,-3.0,0.9080202579498291
233,-3392.0,3890.0,-2045.0,1.0,-10723.0,-4498.0,-2496.0,-11270.0,-4.0,-1.0,-10.0,-27.0,-7.0,-4.0,32.0,0.0,0.9114534854888916
234,-3665.0,4027.0,-2244.0,1.0,-11032.0,-3558.0,-2619.0,-11280.0,-4.0,-1.0,-10.0,-27.0,-7.0,-4.0,32.0,0.0,0.9365584850311279
235,-3665.0,4027.0,-2244.0,1.0,-11032.0,-3558.0,-2619.0,-11280.0,-2.0,-1.0,11.0,21.0,31.0,13.0,18.0,-2.0,0.9406716823577881
236,-3665.0,4027.0,-2244.0,1.0,-11032.0,-3558.0,-2619.0,-11280.0,-2.0,-5.0,-2.0,9.0,4.0,16.0,-12.0,-7.0,0.9440968036651611
237,-3548.0,4168.0,-2292.0,1.0,-11294.0,-2609.0,-2766.0,-11245.0,-2.0,-5.0,-2.0,9.0,4.0,16.0,-12.0,-7.0,0.9475398063659668
238,-3548.0,4168.0,-2292.0,1.0,-11294.0,-2609.0,-2766.0,-11245.0,-5.0,-6.0,0.0,6.0,9.0,12.0,-22.0,0.0,0.9516022205352783
239,-3548.0,4168.0,-2292.0,1.0,-11294.0,-2609.0,-2766.0,-11245.0,0.0,7.0,17.0,-16.0,-41.0,-22.0,-33.0,4.0,0.9536466598510742
240,-3497.0,4158.0,-2294.0,1.0,-11514.0,-1654.0,-2905.0,-11167.0,0.0,7.0,17.0,-16.0,-41.0,-22.0,-33.0,4.0,0.964540958404541
241,-3497.0,4158.0,-2294.0,1.0,-11514.0,-1654.0,-2905.0,-11167.0,-10.0,-2.0,-1.0,-6.0,-22.0,1.0,-3.0,-4.0,0.9812877178192139
242,-3497.0,4158.0,-2294.0,1.0,-11514.0,-1654.0,-2905.0,-11167.0,-2.0,-5.0,-12.0,-14.0,-48.0,14.0,-3.0,-8.0,0.9853940010070801
243,-2797.0,4056.0,-2246.0,1.0,-11681.0,-790.0,-3106.0,-11034.0,-2.0,-5.0,-12.0,-14.0,-48.0,14.0,-3.0,-8.0,0.9894094467163086
244,-2797.0,4056.0,-2246.0,1.0,-11681.0,-790.0,-3106.0,-11034.0,1.0,-1.0,0.0,-12.0,-7.0,-14.0,-20.0,-52.0,0.9931268692016602
245,-2797.0,4056.0,-2246.0,1.0,-11681.0,-790.0,-3106.0,-11034.0,-5.0,-1.0,3.0,9.0,12.0,-5.0,22.0,-17.0,0.9950168132781982
246,-2462.0,3967.0,-2245.0,1.0,-11813.0,31.0,-3328.0,-10856.0,-5.0,-1.0,3.0,9.0,12.0,-5.0,22.0,-17.0,1.0008647441864014
247,-2462.0,3967.0,-2245.0,1.0,-11813.0,31.0,-3328.0,-10856.0,-4.0,-5.0,-3.0,-16.0,-50.0,-7.0,-10.0,-82.0,1.016968011856079
248,-2462.0,3967.0,-2245.0,1.0,-11813.0,31.0,-3328.0,-10856.0,-2.0,4.0,1.0,1.0,11.0,-21.0,-5.0,103.0,1.0191831588745117
249,-2491.0,3906.0,-2249.0,1.0,-11914.0,857.0,-3530.0,-10646.0,-2.0,4.0,1.0,1.0,11.0,-21.0,-5.0,103.0,1.0259861946105957
250,-2491.0,3906.0,-2249.0,1.0,-11914.0,857.0,-3530.0,-10646.0,-6.0,-4.0,-5.0,-9.0,-8.0,24.0,-4.0,33.0,1.029451608657837
251,-2491.0,3906.0,-2249.0,1.0,-11914.0,857.0,-3530.0,-10646.0,5.0,-2.0,1.0,-1.0,1.0,6.0,-1.0,-54.0,1.0321009159088135
252,-2486.0,3814.0,-2221.0,1.0,-11981.0,1678.0,-3709.0,-10408.0,5.0,-2.0,1.0,-1.0,1.0,6.0,-1.0,-54.0,1.04813814163208
253,-2486.0,3814.0,-2221.0,1.0,-11981.0,1678.0,-3709.0,-10408.0,7.0,6.0,5.0,6.0,42.0,-13.0,14.0,38.0,1.0519919395446777
254,-2486.0,3814.0,-2221.0,1.0,-11981.0,1678.0,-3709.0,-10408.0,-3.0,-8.0,-5.0,-5.0,37.0,39.0,50.0,-15.0,1.0556654930114746
255,-2643.0,3672.0,-2145.0,1.0,-12010.0,2506.0,-3841.0,-10158.0,-3.0,-8.0,-5.0,-5.0,37.0,39.0,50.0,-15.0,1.0610485076904297
256,-2643.0,3672.0,-2145.0,1.0,-12010.0,2506.0,-3841.0,-10158.0,6.0,-1.0,-9.0,-2.0,-14.0,-15.0,-22.0,-99.0,1.0788264274597168
257,-2643.0,3672.0,-2145.0,1.0,-12010.0,2506.0,-3841.0,-10158.0,-13.0,0.0,4.0,7.0,6.0,5.0,-1.0,20.0,1.082282304763794
258,-2494.0,3484.0,-2153.0,1.0,-12019.0,3295.0,-3955.0,-9875.0,-13.0,0.0,4.0,7.0,6.0,5.0,-1.0,20.0,1.0846879482269287
259,-2494.0,3484.0,-2153.0,1.0,-12019.0,3295.0,-3955.0,-9875.0,20.0,9.0,5.0,2.0,22.0,-5.0,13.0,-27.0,1.086639165878296
260,-2494.0,3484.0,-2153.0,1.0,-12019.0,3295.0,-3955.0,-9875.0,-4.0,-3.0,-1.0,-2.0,-20.0,0.0,31.0,32.0,1.0906174182891846
261,-2315.0,3276.0,-2079.0,1.0,-12004.0,4033.0,-4056.0,-9574.0,-4.0,-3.0,-1.0,-2.0,-20.0,0.0,31.0,32.0,1.1086571216583252
262,-2315.0,3276.0,-2079.0,1.0,-12004.0,4033.0,-4056.0,-9574.0,-4.0,3.0,-4.0,-12.0,-25.0,0.0,-84.0,47.0,1.1119608879089355
263,-2315.0,3276.0,-2079.0,1.0,-12004.0,4033.0,-4056.0,-9574.0,3.0,4.0,6.0,14.0,34.0,-3.0,1.0,-29.0,1.1149983406066895
264,-2146.0,3134.0,-1878.0,1.0,-11953.0,4726.0,-4156.0,-9272.0,3.0,4.0,6.0,14.0,34.0,-3.0,1.0,-29.0,1.1297039985656738
265,-2146.0,3134.0,-1878.0,1.0,-11953.0,4726.0,-4156.0,-9272.0,-2.0,-3.0,8.0,26.0,57.0,-12.0,60.0,76.0,1.1329832077026367
266,-2146.0,3134.0,-1878.0,1.0,-11953.0,4726.0,-4156.0,-9272.0,4.0,-3.0,-7.0,1.0,14.0,36.0,73.0,-15.0,1.137247085571289
267,-1983.0,2869.0,-1868.0,1.0,-11898.0,5371.0,-4227.0,-8955.0,4.0,-3.0,-7.0,1.0,14.0,36.0,73.0,-15.0,1.1444931030273438
268,-1983.0,2869.0,-1868.0,1.0,-11898.0,5371.0,-4227.0,-8955.0,-17.0,-2.0,3.0,12.0,40.0,2.0,-23.0,-57.0,1.1464252471923828
269,-1983.0,2869.0,-1868.0,1.0,-11898.0,5371.0,-4227.0,-8955.0,-33.0,0.0,-1.0,-1.0,9.0,34.0,-3.0,47.0,1.1511273384094238
270,-1600.0,2656.0,-2013.0,1.0,-11866.0,5953.0,-4291.0,-8591.0,-33.0,0.0,-1.0,-1.0,9.0,34.0,-3.0,47.0,1.1757457256317139
271,-1600.0,2656.0,-2013.0,1.0,-11866.0,5953.0,-4291.0,-8591.0,41.0,11.0,7.0,37.0,-1.0,3.0,-46.0,-29.0,1.1794934272766113
272,-1600.0,2656.0,-2013.0,1.0,-11866.0,5953.0,-4291.0,-8591.0,25.0,1.0,-3.0,-18.0,-52.0,-57.0,-100.0,-102.0,1.182966709136963
273,-1439.0,2370.0,-1948.0,1.0,-11830.0,6484.0,-4332.0,-8229.0,25.0,1.0,-3.0,-18.0,-52.0,-57.0,-100.0,-102.0,1.1863982677459717
274,-1439.0,2370.0,-1948.0,1.0,-11830.0,6484.0,-4332.0,-8229.0,-11.0,-12.0,-4.0,-42.0,-37.0,26.0,41.0,42.0,1.1889917850494385
275,-1439.0,2370.0,-1948.0,1.0,-11830.0,6484.0,-4332.0,-8229.0,14.0,-14.0,-18.0,-3.0,25.0,0.0,30.0,15.0,1.1908278465270996
276,-1294.0,2096.0,-1795.0,1.0,-11785.0,6962.0,-4355.0,-7883.0,14.0,-14.0,-18.0,-3.0,25.0,0.0,30.0,15.0,1.2040598392486572
277,-1294.0,2096.0,-1795.0,1.0,-11785.0,6962.0,-4355.0,-7883.0,14.0,9.0,8.0,-4.0,34.0,1.0,110.0,67.0,1.2059743404388428
278,-1294.0,2096.0,-1795.0,1.0,-11785.0,6962.0,-4355.0,-7883.0,-25.0,-15.0,9.0,11.0,107.0,41.0,-71.0,-81.0,1.2112650871276855
279,-1091.0,1656.0,-1764.0,1.0,-11759.0,7368.0,-4336.0,-7555.0,-25.0,-15.0,9.0,11.0,107.0,41.0,-71.0,-81.0,1.230445384979248
280,-1091.0,1656.0,-1764.0,1.0,-11759.0,7368.0,-4336.0,-7555.0,-65.0,-26.0,-18.0,-36.0,-17.0,-65.0,-44.0,-12.0,1.2327611446380615
281,-1091.0,1656.0,-1764.0,1.0,-11759.0,7368.0,-4336.0,-7555.0,44.0,31.0,8.0,21.0,21.0,1.0,45.0,60.0,1.2345929145812988
282,-1006.0,1005.0,-1661.0,1.0,-11747.0,7707.0,-4250.0,-7280.0,44.0,31.0,8.0,21.0,21.0,1.0,45.0,60.0,1.2415330410003662
283,-1006.0,1005.0,-1661.0,1.0,-11747.0,7707.0,-4250.0,-7280.0,48.0,21.0,3.0,-3.0,70.0,11.0,-106.0,-40.0,1.249152660369873
284,-1006.0,1005.0,-1661.0,1.0,-11747.0,7707.0,-4250.0,-7280.0,-48.0,-31.0,-30.0,-62.0,-115.0,-74.0,-9.0,-78.0,1.2509925365447998
285,-826.0,566.0,-1191.0,1.0,-11745.0,7912.0,-4156.0,-7117.0,-48.0,-31.0,-30.0,-62.0,-115.0,-74.0,-9.0,-78.0,1.264108657836914
286,-826.0,566.0,-1191.0,1.0,-11745.0,7912.0,-4156.0,-7117.0,-32.0,-16.0,-9.0,6.0,-32.0,6.0,14.0,-72.0,1.266014814376831
287,-826.0,566.0,-1191.0,1.0,-11745.0,7912.0,-4156.0,-7117.0,0.0,-5.0,-3.0,19.0,20.0,-63.0,-117.0,-87.0,1.2710859775543213
288,-305.0,166.0,-629.0,1.0,-11759.0,7992.0,-4099.0,-7035.0,0.0,-5.0,-3.0,19.0,20.0,-63.0,-117.0,-87.0,1.2894604206085205
289,-305.0,166.0,-629.0,1.0,-11759.0,7992.0,-4099.0,-7035.0,-4.0,-3.0,5.0,6.0,-12.0,72.0,122.0,-82.0,1.2944810390472412
290,-305.0,166.0,-629.0,1.0,-11759.0,7992.0,-4099.0,-7035.0,-4.0,8.0,7.0,-24.0,47.0,-78.0,57.0,19.0,1.2982981204986572
291,560.0,-266.0,192.0,1.0,-11805.0,7891.0,-4125.0,-7058.0,-4.0,8.0,7.0,-24.0,47.0,-78.0,57.0,19.0,1.3014495372772217
292,560.0,-266.0,192.0,1.0,-11805.0,7891.0,-4125.0,-7058.0,-40.0,-16.0,10.0,33.0,-91.0,-21.0,42.0,90.0,1.3094043731689453
293,560.0,-266.0,192.0,1.0,-11805.0,7891.0,-4125.0,-7058.0,112.0,32.0,9.0,87.0,77.0,63.0,-103.0,36.0,1.3112525939941406
294,1352.0,-782.0,1084.0,1.0,-11870.0,7606.0,-4221.0,-7202.0,112.0,32.0,9.0,87.0,77.0,63.0,-103.0,36.0,1.3259608745574951
295,1352.0,-782.0,1084.0,1.0,-11870.0,7606.0,-4221.0,-7202.0,42.0,30.0,18.0,-63.0,66.0,90.0,-94.0,-78.0,1.3297128677368164
296,1352.0,-782.0,1084.0,1.0,-11870.0,7606.0,-4221.0,-7202.0,-30.0,-36.0,-36.0,-18.0,-6.0,-49.0,-112.0,-93.0,1.3331809043884277
297,1888.0,-1445.0,2160.0,1.0,-11917.0,7144.0,-4359.0,-7510.0,-30.0,-36.0,-36.0,-18.0,-6.0,-49.0,-112.0,-93.0,1.348475694656372
298,1888.0,-1445.0,2160.0,1.0,-11917.0,7144.0,-4359.0,-7510.0,-111.0,-55.0,-24.0,22.0,-83.0,0.0,88.0,127.0,1.3545629978179932
299,1888.0,-1445.0,2160.0,1.0,-11917.0,7144.0,-4359.0,-7510.0,50.0,36.0,15.0,2.0,-126.0,-59.0,-36.0,-68.0,1.3571982383728027
300,2563.0,-2283.0,3166.0,1.0,-11950.0,6465.0,-4513.0,-7968.0,50.0,36.0,15.0,2.0,-126.0,-59.0,-36.0,-68.0,1.3607096672058105
301,2563.0,-2283.0,3166.0,1.0,-11950.0,6465.0,-4513.0,-7968.0,126.0,68.0,-13.0,-17.0,-104.0,63.0,36.0,70.0,1.3689939975738525
302,2563.0,-2283.0,3166.0,1.0,-11950.0,6465.0,-4513.0,-7968.0,-64.0,-31.0,-26.0,-82.0,-108.0,-29.0,20.0,127.0,1.3712353706359863
303,3197.0,-3169.0,4110.0,1.0,-11948.0,5558.0,-4657.0,-8551.0,-64.0,-31.0,-26.0,-82.0,-108.0,-29.0,20.0,127.0,1.3846697807312012
304,3197.0,-3169.0,4110.0,1.0,-11948.0,5558.0,-4657.0,-8551.0,-25.0,-41.0,-21.0,-20.0,-31.0,-128.0,-73.0,115.0,1.3913910388946533
305,3197.0,-3169.0,4110.0,1.0,-11948.0,5558.0,-4657.0,-8551.0,100.0,72.0,4.0,-28.0,34.0,85.0,127.0,120.0,1.3935089111328125
306,3601.0,-4330.0,4909.0,1.0,-11890.0,4463.0,-4704.0,-9221.0,100.0,72.0,4.0,-28.0,34.0,85.0,127.0,120.0,1.4066314697265625
307,3601.0,-4330.0,4909.0,1.0,-11890.0,4463.0,-4704.0,-9221.0,-83.0,-18.0,15.0,8.0,20.0,93.0,83.0,-128.0,1.4085543155670166
308,3601.0,-4330.0,4909.0,1.0,-11890.0,4463.0,-4704.0,-9221.0,28.0,-5.0,-1.0,-26.0,-17.0,41.0,55.0,100.0,1.4134705066680908
309,3486.0,-5659.0,5204.0,1.0,-11777.0,3161.0,-4554.0,-9951.0,28.0,-5.0,-1.0,-26.0,-17.0,41.0,55.0,100.0,1.4213640689849854
310,3486.0,-5659.0,5204.0,1.0,-11777.0,3161.0,-4554.0,-9951.0,127.0,48.0,0.0,80.0,-4.0,52.0,-40.0,6.0,1.4292383193969727
311,3486.0,-5659.0,5204.0,1.0,-11777.0,3161.0,-4554.0,-9951.0,-128.0,-108.0,-18.0,-18.0,-47.0,121.0,-39.0,-128.0,1.431081771850586
312,2557.0,-6548.0,6271.0,1.0,-11450.0,1801.0,-4185.0,-10799.0,-128.0,-108.0,-18.0,-18.0,-47.0,121.0,-39.0,-128.0,1.4438095092773438
313,2557.0,-6548.0,6271.0,1.0,-11450.0,1801.0,-4185.0,-10799.0,-50.0,6.0,37.0,22.0,27.0,-25.0,-128.0,-128.0,1.4524281024932861
314,2557.0,-6548.0,6271.0,1.0,-11450.0,1801.0,-4185.0,-10799.0,-83.0,-47.0,-75.0,-18.0,-89.0,-93.0,32.0,100.0,1.4555230140686035
315,1123.0,-7079.0,6526.0,1.0,-10965.0,526.0,-3542.0,-11637.0,-83.0,-47.0,-75.0,-18.0,-89.0,-93.0,32.0,100.0,1.4666049480438232
316,1123.0,-7079.0,6526.0,1.0,-10965.0,526.0,-3542.0,-11637.0,34.0,13.0,41.0,45.0,113.0,-3.0,-71.0,-85.0,1.4684898853302002
317,1123.0,-7079.0,6526.0,1.0,-10965.0,526.0,-3542.0,-11637.0,7.0,18.0,48.0,71.0,127.0,105.0,21.0,-128.0,1.4738740921020508
318,-1478.0,-6796.0,5845.0,1.0,-10426.0,-384.0,-2563.0,-12371.0,7.0,18.0,48.0,71.0,127.0,105.0,21.0,-128.0,1.4900493621826172
319,-1478.0,-6796.0,5845.0,1.0,-10426.0,-384.0,-2563.0,-12371.0,-50.0,-16.0,-23.0,-79.0,-24.0,82.0,127.0,66.0,1.4930336475372314
320,-1478.0,-6796.0,5845.0,1.0,-10426.0,-384.0,-2563.0,-12371.0,-37.0,-66.0,-52.0,-85.0,-85.0,102.0,127.0,127.0,1.4948670864105225
321,-2197.0,-5565.0,3297.0,1.0,-10117.0,-974.0,-1615.0,-12749.0,-37.0,-66.0,-52.0,-85.0,-85.0,102.0,127.0,127.0,1.5040256977081299
322,-2197.0,-5565.0,3297.0,1.0,-10117.0,-974.0,-1615.0,-12749.0,79.0,-10.0,-41.0,27.0,127.0,-62.0,-73.0,64.0,1.511681079864502
323,-2197.0,-5565.0,3297.0,1.0,-10117.0,-974.0,-1615.0,-12749.0,61.0,71.0,88.0,7.0,84.0,-45.0,-4.0,36.0,1.5134930610656738
324,305.0,-3701.0,-88.0,1.0,-10183.0,-1520.0,-1249.0,-12684.0,61.0,71.0,88.0,7.0,84.0,-45.0,-4.0,36.0,1.5265634059906006
325,305.0,-3701.0,-88.0,1.0,-10183.0,-1520.0,-1249.0,-12684.0,41.0,-37.0,-15.0,-117.0,52.0,44.0,54.0,66.0,1.5284769535064697
326,305.0,-3701.0,-88.0,1.0,-10183.0,-1520.0,-1249.0,-12684.0,4.0,78.0,98.0,15.0,-8.0,-31.0,-58.0,-128.0,1.533653974533081
327,4699.0,-2076.0,-1365.0,1.0,-10305.0,-2306.0,-1689.0,-12414.0,4.0,78.0,98.0,15.0,-8.0,-31.0,-58.0,-128.0,1.5501186847686768
328,4699.0,-2076.0,-1365.0,1.0,-10305.0,-2306.0,-1689.0,-12414.0,-23.0,-6.0,-105.0,67.0,36.0,-128.0,-54.0,16.0,1.552008867263794
329,4699.0,-2076.0,-1365.0,1.0,-10305.0,-2306.0,-1689.0,-12414.0,-8.0,-13.0,84.0,110.0,127.0,38.0,56.0,61.0,1.5558512210845947
330,5456.0,-1227.0,-263.0,1.0,-10207.0,-3075.0,-2292.0,-12230.0,-8.0,-13.0,84.0,110.0,127.0,38.0,56.0,61.0,1.5634233951568604
331,5456.0,-1227.0,-263.0,1.0,-10207.0,-3075.0,-2292.0,-12230.0,-49.0,84.0,113.0,58.0,-30.0,-56.0,29.0,40.0,1.5792434215545654
332,5456.0,-1227.0,-263.0,1.0,-10207.0,-3075.0,-2292.0,-12230.0,24.0,102.0,-19.0,32.0,-53.0,-21.0,-15.0,66.0,1.5810596942901611
333,1448.0,-1424.0,-58.0,1.0,-10244.0,-3209.0,-2218.0,-12178.0,24.0,102.0,-19.0,32.0,-53.0,-21.0,-15.0,66.0,1.58758544921875
334,1448.0,-1424.0,-58.0,1.0,-10244.0,-3209.0,-2218.0,-12178.0,26.0,14.0,-69.0,1.0,16.0,-62.0,-7.0,-110.0,1.5910007953643799
335,1448.0,-1424.0,-58.0,1.0,-10244.0,-3209.0,-2218.0,-12178.0,-36.0,-45.0,-85.0,-32.0,82.0,97.0,101.0,64.0,1.5931205749511719
336,-1101.0,-1328.0,402.0,1.0,-10276.0,-3159.0,-1804.0,-12233.0,-36.0,-45.0,-85.0,-32.0,82.0,97.0,101.0,64.0,1.6102333068847656
337,-1101.0,-1328.0,402.0,1.0,-10276.0,-3159.0,-1804.0,-12233.0,32.0,-22.0,-120.0,-128.0,-15.0,95.0,-74.0,-128.0,1.6121766567230225
338,-1101.0,-1328.0,402.0,1.0,-10276.0,-3159.0,-1804.0,-12233.0,-36.0,-55.0,-80.0,33.0,-58.0,-92.0,-41.0,33.0,1.6139841079711914
339,-772.0,-849.0,86.0,1.0,-10290.0,-3187.0,-1424.0,-12263.0,-36.0,-55.0,-80.0,33.0,-58.0,-92.0,-41.0,33.0,1.623866081237793
340,-772.0,-849.0,86.0,1.0,-10290.0,-3187.0,-1424.0,-12263.0,19.0,-20.0,-124.0,-80.0,-115.0,76.0,-75.0,-58.0,1.631847620010376
341,-772.0,-849.0,86.0,1.0,-10290.0,-3187.0,-1424.0,-12263.0,0.0,-25.0,-53.0,-58.0,-70.0,1.0,-114.0,-128.0,1.6336801052093506
342,1478.0,-807.0,661.0,1.0,-10151.0,-3468.0,-1411.0,-12305.0,0.0,-25.0,-53.0,-58.0,-70.0,1.0,-114.0,-128.0,1.6470530033111572
343,1478.0,-807.0,661.0,1.0,-10151.0,-3468.0,-1411.0,-12305.0,7.0,96.0,127.0,60.0,-2.0,47.0,70.0,56.0,1.6503987312316895
344,1478.0,-807.0,661.0,1.0,-10151.0,-3468.0,-1411.0,-12305.0,1.0,68.0,-58.0,-11.0,-21.0,-101.0,-63.0,-87.0,1.6547513008117676
345,1766.0,-847.0,913.0,1.0,-9971.0,-3798.0,-1527.0,-12341.0,1.0,68.0,-58.0,-11.0,-21.0,-101.0,-63.0,-87.0,1.671203851699829
346,1766.0,-847.0,913.0,1.0,-9971.0,-3798.0,-1527.0,-12341.0,13.0,50.0,-15.0,28.0,-57.0,-109.0,-62.0,-37.0,1.6754024028778076
347,1766.0,-847.0,913.0,1.0,-9971.0,-3798.0,-1527.0,-12341.0,-45.0,-51.0,18.0,-51.0,-39.0,-86.0,-101.0,-128.0,1.6787655353546143
348,218.0,-749.0,797.0,1.0,-9868.0,-3940.0,-1463.0,-12386.0,-45.0,-51.0,18.0,-51.0,-39.0,-86.0,-101.0,-128.0,1.683845043182373
349,218.0,-749.0,797.0,1.0,-9868.0,-3940.0,-1463.0,-12386.0,13.0,-48.0,23.0,90.0,-1.0,-40.0,-10.0,-25.0,1.693185567855835
350,218.0,-749.0,797.0,1.0,-9868.0,-3940.0,-1463.0,-12386.0,2.0,28.0,-2.0,-24.0,44.0,122.0,22.0,-91.0,1.6951096057891846
351,304.0,-525.0,429.0,1.0,-9784.0,-4137.0,-1425.0,-12393.0,2.0,28.0,-2.0,-24.0,44.0,122.0,22.0,-91.0,1.7070012092590332
352,304.0,-525.0,429.0,1.0,-9784.0,-4137.0,-1425.0,-12393.0,-22.0,-23.0,-69.0,-120.0,44.0,-30.0,127.0,127.0,1.710378646850586
353,304.0,-525.0,429.0,1.0,-9784.0,-4137.0,-1425.0,-12393.0,-6.0,-40.0,-110.0,-48.0,13.0,16.0,42.0,-32.0,1.7143268585205078
354,367.0,-255.0,262.0,1.0,-9722.0,-4291.0,-1464.0,-12385.0,-6.0,-40.0,-110.0,-48.0,13.0,16.0,42.0,-32.0,1.7296571731567383
355,367.0,-255.0,262.0,1.0,-9722.0,-4291.0,-1464.0,-12385.0,-83.0,4.0,-28.0,-20.0,-1.0,-87.0,-71.0,51.0,1.7315723896026611
356,367.0,-255.0,262.0,1.0,-9722.0,-4291.0,-1464.0,-12385.0,38.0,38.0,7.0,-31.0,56.0,69.0,103.0,127.0,1.7333803176879883
357,341.0,-82.0,-13.0,1.0,-9699.0,-4403.0,-1540.0,-12355.0,38.0,38.0,7.0,-31.0,56.0,69.0,103.0,127.0,1.7438185214996338
358,341.0,-82.0,-13.0,1.0,-9699.0,-4403.0,-1540.0,-12355.0,79.0,10.0,10.0,41.0,67.0,58.0,26.0,-75.0,1.752326488494873
359,341.0,-82.0,-13.0,1.0,-9699.0,-4403.0,-1540.0,-12355.0,40.0,1.0,1.0,-45.0,-22.0,21.0,-21.0,98.0,1.7542908191680908
360,238.0,-63.0,-362.0,1.0,-9738.0,-4460.0,-1634.0,-12292.0,40.0,1.0,1.0,-45.0,-22.0,21.0,-21.0,98.0,1.7664966583251953
361,238.0,-63.0,-362.0,1.0,-9738.0,-4460.0,-1634.0,-12292.0,-41.0,-41.0,75.0,67.0,40.0,110.0,7.0,1.0,1.7685232162475586
362,238.0,-63.0,-362.0,1.0,-9738.0,-4460.0,-1634.0,-12292.0,-48.0,-50.0,-40.0,34.0,44.0,18.0,-34.0,-14.0,1.7743513584136963
363,347.0,-3.0,-344.0,1.0,-9759.0,-4533.0,-1719.0,-12236.0,-48.0,-50.0,-40.0,34.0,44.0,18.0,-34.0,-14.0,1.8051583766937256
364,484.0,12.0,-177.0,1.0,-9748.0,-4619.0,-1796.0,-12202.0,-48.0,-50.0,-40.0,34.0,44.0,18.0,-34.0,-14.0,1.8090827465057373
365,484.0,12.0,-177.0,1.0,-9748.0,-4619.0,-1796.0,-12202.0,-28.0,-11.0,13.0,58.0,-16.0,-47.0,-39.0,-128.0,1.8149104118347168
366,484.0,12.0,-177.0,1.0,-9748.0,-4619.0,-1796.0,-12202.0,-7.0,-9.0,28.0,55.0,-4.0,-6.0,52.0,90.0,1.817258358001709
367,484.0,12.0,-177.0,1.0,-9748.0,-4619.0,-1796.0,-12202.0,-16.0,-14.0,-34.0,-18.0,9.0,5.0,-30.0,-110.0,1.8190805912017822
368,484.0,12.0,-177.0,1.0,-9748.0,-4619.0,-1796.0,-12202.0,3.0,-12.0,-72.0,57.0,58.0,28.0,23.0,34.0,1.820913553237915
369,238.0,-12.0,-117.0,1.0,-9736.0,-4679.0,-1797.0,-12188.0,3.0,-12.0,-72.0,57.0,58.0,28.0,23.0,34.0,1.8271846771240234
370,238.0,-12.0,-117.0,1.0,-9736.0,-4679.0,-1797.0,-12188.0,-38.0,-12.0,70.0,11.0,75.0,-12.0,20.0,119.0,1.8291232585906982
371,238.0,-12.0,-117.0,1.0,-9736.0,-4679.0,-1797.0,-12188.0,-4.0,-6.0,3.0,-38.0,-66.0,-99.0,-38.0,-64.0,1.8336679935455322
372,200.0,-94.0,-110.0,1.0,-9730.0,-4735.0,-1785.0,-12174.0,-4.0,-6.0,3.0,-38.0,-66.0,-99.0,-38.0,-64.0,1.85001802444458
373,200.0,-94.0,-110.0,1.0,-9730.0,-4735.0,-1785.0,-12174.0,0.0,-15.0,-94.0,-40.0,26.0,83.0,40.0,71.0,1.853090524673462
374,200.0,-94.0,-110.0,1.0,-9730.0,-4735.0,-1785.0,-12174.0,13.0,-1.0,-1.0,6.0,-21.0,-98.0,-67.0,-128.0,1.8561034202575684
375,284.0,-84.0,-61.0,1.0,-9717.0,-4796.0,-1807.0,-12156.0,13.0,-1.0,-1.0,6.0,-21.0,-98.0,-67.0,-128.0,1.8633029460906982
376,284.0,-84.0,-61.0,1.0,-9717.0,-4796.0,-1807.0,-12156.0,16.0,-10.0,1.0,-58.0,-45.0,-74.0,-76.0,-128.0,1.8721709251403809
377,284.0,-84.0,-61.0,1.0,-9717.0,-4796.0,-1807.0,-12156.0,14.0,2.0,27.0,-81.0,-20.0,3.0,23.0,-22.0,1.8756661415100098
378,257.0,-110.0,51.0,1.0,-9697.0,-4863.0,-1856.0,-12138.0,14.0,2.0,27.0,-81.0,-20.0,3.0,23.0,-22.0,1.8872907161712646
379,257.0,-110.0,51.0,1.0,-9697.0,-4863.0,-1856.0,-12138.0,-18.0,-20.0,63.0,23.0,-18.0,-81.0,9.0,7.0,1.8907148838043213
380,257.0,-110.0,51.0,1.0,-9697.0,-4863.0,-1856.0,-12138.0,29.0,24.0,57.0,58.0,5.0,24.0,34.0,-58.0,1.8939249515533447
381,72.0,-126.0,71.0,1.0,-9680.0,-4915.0,-1856.0,-12131.0,29.0,24.0,57.0,58.0,5.0,24.0,34.0,-58.0,1.9113554954528809
382,72.0,-126.0,71.0,1.0,-9680.0,-4915.0,-1856.0,-12131.0,-51.0,-11.0,-16.0,-37.0,35.0,9.0,36.0,-7.0,1.9133245944976807
383,72.0,-126.0,71.0,1.0,-9680.0,-4915.0,-1856.0,-12131.0,-5.0,4.0,13.0,5.0,-43.0,-48.0,-15.0,-15.0,1.915147304534912
384,137.0,-88.0,57.0,1.0,-9660.0,-4964.0,-1861.0,-12126.0,-5.0,4.0,13.0,5.0,-43.0,-48.0,-15.0,-15.0,1.9240846633911133
385,137.0,-88.0,57.0,1.0,-9660.0,-4964.0,-1861.0,-12126.0,4.0,8.0,54.0,76.0,-31.0,-40.0,27.0,-32.0,1.9318461418151855
386,137.0,-88.0,57.0,1.0,-9660.0,-4964.0,-1861.0,-12126.0,7.0,10.0,63.0,95.0,24.0,-50.0,-28.0,-75.0,1.9337866306304932
387,256.0,-16.0,34.0,1.0,-9636.0,-5019.0,-1903.0,-12116.0,7.0,10.0,63.0,95.0,24.0,-50.0,-28.0,-75.0,1.9468634128570557
388,256.0,-16.0,34.0,1.0,-9636.0,-5019.0,-1903.0,-12116.0,-9.0,18.0,87.0,77.0,3.0,-20.0,-27.0,-85.0,1.948793888092041
389,256.0,-16.0,34.0,1.0,-9636.0,-5019.0,-1903.0,-12116.0,-16.0,-17.0,-28.0,10.0,-53.0,55.0,18.0,-95.0,1.9541027545928955
390,159.0,13.0,17.0,1.0,-9620.0,-5061.0,-1940.0,-12106.0,-16.0,-17.0,-28.0,10.0,-53.0,55.0,18.0,-95.0,1.9711360931396484
391,159.0,13.0,17.0,1.0,-9620.0,-5061.0,-1940.0,-12106.0,26.0,6.0,-40.0,41.0,-58.0,-37.0,32.0,35.0,1.9753222465515137
392,159.0,13.0,17.0,1.0,-9620.0,-5061.0,-1940.0,-12106.0,1.0,10.0,-3.0,27.0,-21.0,-72.0,-18.0,-75.0,1.9776315689086914
393,234.0,-6.0,-46.0,1.0,-9606.0,-5112.0,-1980.0,-12089.0,1.0,10.0,-3.0,27.0,-21.0,-72.0,-18.0,-75.0,1.9836115837097168
394,234.0,-6.0,-46.0,1.0,-9606.0,-5112.0,-1980.0,-12089.0,-6.0,-9.0,-55.0,-55.0,-76.0,-27.0,-53.0,-25.0,1.9919061660766602
395,234.0,-6.0,-46.0,1.0,-9606.0,-5112.0,-1980.0,-12089.0,-30.0,-20.0,-5.0,-13.0,-21.0,-9.0,-10.0,17.0,1.9937262535095215
396,316.0,-48.0,-38.0,1.0,-9591.0,-5175.0,-2041.0,-12064.0,-30.0,-20.0,-5.0,-13.0,-21.0,-9.0,-10.0,17.0,2.007406234741211
397,316.0,-48.0,-38.0,1.0,-9591.0,-5175.0,-2041.0,-12064.0,68.0,9.0,-65.0,-34.0,2.0,-6.0,-60.0,-83.0,2.0111281871795654
398,316.0,-48.0,-38.0,1.0,-9591.0,-5175.0,-2041.0,-12064.0,2.0,-38.0,-64.0,-124.0,42.0,31.0,17.0,24.0,2.0141611099243164
399,121.0,-107.0,103.0,1.0,-9571.0,-5222.0,-2063.0,-12055.0,2.0,-38.0,-64.0,-124.0,42.0,31.0,17.0,24.0,2.0312602519989014
400,121.0,-107.0,103.0,1.0,-9571.0,-5222.0,-2063.0,-12055.0,-38.0,6.0,-35.0,-47.0,-5.0,28.0,-9.0,-84.0,2.0349209308624268
401,121.0,-107.0,103.0,1.0,-9571.0,-5222.0,-2063.0,-12055.0,-1.0,-5.0,-26.0,74.0,67.0,-15.0,-63.0,-54.0,2.0381171703338623
402,-92.0,-158.0,145.0,1.0,-9558.0,-5249.0,-2031.0,-12060.0,-1.0,-5.0,-26.0,74.0,67.0,-15.0,-63.0,-54.0,2.0441484451293945
403,-92.0,-158.0,145.0,1.0,-9558.0,-5249.0,-2031.0,-12060.0,-7.0,-29.0,-45.0,-7.0,-30.0,40.0,15.0,81.0,2.051701068878174
404,-92.0,-158.0,145.0,1.0,-9558.0,-5249.0,-2031.0,-12060.0,23.0,-13.0,-26.0,-28.0,-5.0,64.0,-8.0,-6.0,2.053779363632202
405,-30.0,-149.0,69.0,1.0,-9551.0,-5272.0,-2004.0,-12059.0,23.0,-13.0,-26.0,-28.0,-5.0,64.0,-8.0,-6.0,2.067225456237793
406,-30.0,-149.0,69.0,1.0,-9551.0,-5272.0,-2004.0,-12059.0,-29.0,1.0,23.0,5.0,-14.0,26.0,68.0,26.0,2.070600986480713
407,-30.0,-149.0,69.0,1.0,-9551.0,-5272.0,-2004.0,-12059.0,10.0,13.0,23.0,-32.0,-19.0,116.0,63.0,94.0,2.073822498321533
408,-8.0,-126.0,28.0,1.0,-9549.0,-5294.0,-1991.0,-12054.0,10.0,13.0,23.0,-32.0,-19.0,116.0,63.0,94.0,2.1072986125946045
409,-37.0,-94.0,-7.0,1.0,-9550.0,-5313.0,-1972.0,-12048.0,10.0,13.0,23.0,-32.0,-19.0,116.0,63.0,94.0,2.1115386486053467
410,-37.0,-94.0,-7.0,1.0,-9550.0,-5313.0,-1972.0,-12048.0,-20.0,-13.0,11.0,68.0,24.0,14.0,7.0,107.0,2.1157288551330566
411,-37.0,-94.0,-7.0,1.0,-9550.0,-5313.0,-1972.0,-12048.0,-3.0,20.0,35.0,42.0,4.0,18.0,-4.0,-58.0,2.119400978088379
412,52.0,-61.0,-46.0,1.0,-9550.0,-5335.0,-1970.0,-12038.0,-3.0,20.0,35.0,42.0,4.0,18.0,-4.0,-58.0,2.1363465785980225
413,52.0,-61.0,-46.0,1.0,-9550.0,-5335.0,-1970.0,-12038.0,-8.0,-4.0,33.0,11.0,0.0,-8.0,20.0,57.0,2.1408305168151855
414,52.0,-61.0,-46.0,1.0,-9550.0,-5335.0,-1970.0,-12038.0,-2.0,24.0,71.0,34.0,-42.0,-17.0,-19.0,63.0,2.1448590755462646
415,203.0,-46.0,-55.0,1.0,-9544.0,-5369.0,-1997.0,-12023.0,-2.0,24.0,71.0,34.0,-42.0,-17.0,-19.0,63.0,2.1578845977783203
416,203.0,-46.0,-55.0,1.0,-9544.0,-5369.0,-1997.0,-12023.0,20.0,2.0,17.0,8.0,9.0,12.0,-7.0,-38.0,2.1617255210876465
417,203.0,-46.0,-55.0,1.0,-9544.0,-5369.0,-1997.0,-12023.0,5.0,7.0,-6.0,-59.0,-7.0,-36.0,-5.0,3.0,2.1651835441589355
418,241.0,-61.0,-5.0,1.0,-9532.0,-5407.0,-2029.0,-12011.0,5.0,7.0,-6.0,-59.0,-7.0,-36.0,-5.0,3.0,2.1800339221954346
419,241.0,-61.0,-5.0,1.0,-9532.0,-5407.0,-2029.0,-12011.0,12.0,-1.0,-15.0,-7.0,34.0,46.0,21.0,-10.0,2.1825644969940186
420,241.0,-61.0,-5.0,1.0,-9532.0,-5407.0,-2029.0,-12011.0,2.0,-11.0,-28.0,-2.0,-20.0,-36.0,-11.0,-3.0,2.184694528579712
421,169.0,-86.0,56.0,1.0,-9514.0,-5440.0,-2033.0,-12009.0,2.0,-11.0,-28.0,-2.0,-20.0,-36.0,-11.0,-3.0,2.2014849185943604
422,169.0,-86.0,56.0,1.0,-9514.0,-5440.0,-2033.0,-12009.0,13.0,8.0,-2.0,-9.0,-34.0,0.0,-9.0,21.0,2.204345464706421
423,109.0,-113.0,68.0,1.0,-9494.0,-5474.0,-2006.0,-12015.0,13.0,8.0,-2.0,-9.0,-34.0,0.0,-9.0,21.0,2.209859848022461
424,109.0,-113.0,68.0,1.0,-9494.0,-5474.0,-2006.0,-12015.0,-2.0,4.0,8.0,-1.0,-3.0,-39.0,-8.0,-12.0,2.213634490966797
425,165.0,-166.0,-40.0,1.0,-9481.0,-5526.0,-1979.0,-12005.0,-2.0,4.0,8.0,-1.0,-3.0,-39.0,-8.0,-12.0,2.2333877086639404
426,165.0,-166.0,-40.0,1.0,-9481.0,-5526.0,-1979.0,-12005.0,-23.0,-1.0,-4.0,-32.0,40.0,15.0,1.0,2.0,2.2372283935546875
427,165.0,-166.0,-40.0,1.0,-9481.0,-5526.0,-1979.0,-12005.0,-14.0,0.0,0.0,11.0,-11.0,-14.0,-3.0,4.0,2.240877866744995
428,165.0,-166.0,-40.0,1.0,-9481.0,-5526.0,-1979.0,-12005.0,-10.0,-5.0,-23.0,-15.0,-20.0,7.0,5.0,3.0,2.2447187900543213
429,165.0,-166.0,-40.0,1.0,-9481.0,-5526.0,-1979.0,-12005.0,-4.0,-1.0,-4.0,-16.0,-50.0,-37.0,-15.0,5.0,2.2468326091766357
430,165.0,-166.0,-40.0,1.0,-9481.0,-5526.0,-1979.0,-12005.0,2.0,10.0,12.0,-2.0,8.0,-6.0,-5.0,-7.0,2.2486517429351807
431,221.0,-221.0,-255.0,1.0,-9488.0,-5594.0,-1948.0,-11973.0,2.0,10.0,12.0,-2.0,8.0,-6.0,-5.0,-7.0,2.250518321990967
432,221.0,-221.0,-255.0,1.0,-9488.0,-5594.0,-1948.0,-11973.0,4.0,8.0,-1.0,-10.0,24.0,-10.0,-12.0,1.0,2.2524328231811523
433,221.0,-221.0,-255.0,1.0,-9488.0,-5594.0,-1948.0,-11973.0,-4.0,5.0,-19.0,-58.0,-16.0,-9.0,-2.0,-5.0,2.2542724609375
434,221.0,-221.0,-255.0,1.0,-9488.0,-5594.0,-1948.0,-11973.0,7.0,12.0,18.0,21.0,21.0,-1.0,4.0,8.0,2.256086587905884
435,409.0,-305.0,-468.0,1.0,-9506.0,-5701.0,-1941.0,-11909.0,7.0,12.0,18.0,21.0,21.0,-1.0,4.0,8.0,2.269369602203369
436,409.0,-305.0,-468.0,1.0,-9506.0,-5701.0,-1941.0,-11909.0,2.0,-3.0,8.0,29.0,7.0,-5.0,0.0,4.0,2.272601366043091
437,409.0,-305.0,-468.0,1.0,-9506.0,-5701.0,-1941.0,-11909.0,-1.0,5.0,16.0,17.0,6.0,2.0,2.0,18.0,2.2767691612243652
438,608.0,-469.0,-612.0,1.0,-9529.0,-5856.0,-1951.0,-11813.0,-1.0,5.0,16.0,17.0,6.0,2.0,2.0,18.0,2.2838327884674072
439,608.0,-469.0,-612.0,1.0,-9529.0,-5856.0,-1951.0,-11813.0,2.0,13.0,13.0,-9.0,-17.0,-5.0,-4.0,6.0,2.3007917404174805
440,608.0,-469.0,-612.0,1.0,-9529.0,-5856.0,-1951.0,-11813.0,2.0,29.0,-29.0,0.0,-90.0,-9.0,-6.0,-7.0,2.3050320148468018
441,1039.0,-629.0,-747.0,1.0,-9541.0,-6090.0,-2033.0,-11670.0,2.0,29.0,-29.0,0.0,-90.0,-9.0,-6.0,-7.0,2.309356927871704
442,1039.0,-629.0,-747.0,1.0,-9541.0,-6090.0,-2033.0,-11670.0,-6.0,-20.0,-81.0,-48.0,10.0,3.0,0.0,-2.0,2.3113656044006348
443,1039.0,-629.0,-747.0,1.0,-9541.0,-6090.0,-2033.0,-11670.0,5.0,-15.0,33.0,-3.0,36.0,30.0,5.0,1.0,2.3131771087646484
444,1335.0,-766.0,-766.0,1.0,-9535.0,-6379.0,-2160.0,-11497.0,5.0,-15.0,33.0,-3.0,36.0,30.0,5.0,1.0,2.329218864440918
445,1335.0,-766.0,-766.0,1.0,-9535.0,-6379.0,-2160.0,-11497.0,1.0,11.0,18.0,27.0,-11.0,-3.0,-2.0,-8.0,2.3311901092529297
446,1335.0,-766.0,-766.0,1.0,-9535.0,-6379.0,-2160.0,-11497.0,-8.0,-48.0,-62.0,-8.0,12.0,-5.0,-2.0,-5.0,2.3363773822784424
447,1402.0,-971.0,-750.0,1.0,-9528.0,-6687.0,-2286.0,-11302.0,-8.0,-48.0,-62.0,-8.0,12.0,-5.0,-2.0,-5.0,2.343754291534424
448,1402.0,-971.0,-750.0,1.0,-9528.0,-6687.0,-2286.0,-11302.0,2.0,-10.0,9.0,22.0,22.0,6.0,3.0,-8.0,2.35257625579834
449,1402.0,-971.0,-750.0,1.0,-9528.0,-6687.0,-2286.0,-11302.0,-2.0,0.0,25.0,6.0,7.0,-17.0,-5.0,-8.0,2.3561301231384277
450,1390.0,-1077.0,-653.0,1.0,-9516.0,-6992.0,-2405.0,-11102.0,-2.0,0.0,25.0,6.0,7.0,-17.0,-5.0,-8.0,2.3679018020629883
451,1390.0,-1077.0,-653.0,1.0,-9516.0,-6992.0,-2405.0,-11102.0,-6.0,-8.0,-4.0,-36.0,-13.0,1.0,2.0,-3.0,2.370187520980835
452,1390.0,-1077.0,-653.0,1.0,-9516.0,-6992.0,-2405.0,-11102.0,-5.0,22.0,-9.0,15.0,4.0,11.0,7.0,1.0,2.37300181388855
453,1488.0,-1204.0,-343.0,1.0,-9465.0,-7318.0,-2518.0,-10908.0,-5.0,22.0,-9.0,15.0,4.0,11.0,7.0,1.0,2.389127254486084
454,1488.0,-1204.0,-343.0,1.0,-9465.0,-7318.0,-2518.0,-10908.0,-1.0,18.0,68.0,-12.0,-8.0,7.0,0.0,4.0,2.391055107116699
455,1488.0,-1204.0,-343.0,1.0,-9465.0,-7318.0,-2518.0,-10908.0,-4.0,-2.0,-36.0,-29.0,20.0,-2.0,-5.0,-1.0,2.396068811416626
456,1259.0,-1254.0,19.0,1.0,-9394.0,-7625.0,-2583.0,-10743.0,-4.0,-2.0,-36.0,-29.0,20.0,-2.0,-5.0,-1.0,2.412557601928711
457,1259.0,-1254.0,19.0,1.0,-9394.0,-7625.0,-2583.0,-10743.0,-6.0,-13.0,-5.0,38.0,-4.0,-3.0,-6.0,1.0,2.4149560928344727
458,1259.0,-1254.0,19.0,1.0,-9394.0,-7625.0,-2583.0,-10743.0,-4.0,-7.0,-17.0,30.0,4.0,-3.0,-1.0,-11.0,2.418951988220215
459,884.0,-1300.0,259.0,1.0,-9323.0,-7895.0,-2559.0,-10615.0,-4.0,-7.0,-17.0,30.0,4.0,-3.0,-1.0,-11.0,2.427640199661255
460,884.0,-1300.0,259.0,1.0,-9323.0,-7895.0,-2559.0,-10615.0,3.0,2.0,-20.0,-16.0,3.0,28.0,7.0,4.0,2.4303250312805176
461,884.0,-1300.0,259.0,1.0,-9323.0,-7895.0,-2559.0,-10615.0,-2.0,-10.0,-3.0,10.0,24.0,23.0,-1.0,-20.0,2.4327542781829834
462,746.0,-1321.0,362.0,1.0,-9244.0,-8148.0,-2477.0,-10512.0,-2.0,-10.0,-3.0,10.0,24.0,23.0,-1.0,-20.0,2.4574027061462402
463,746.0,-1321.0,362.0,1.0,-9244.0,-8148.0,-2477.0,-10512.0,2.0,-12.0,25.0,49.0,-12.0,-12.0,1.0,-13.0,2.461108684539795
464,746.0,-1321.0,362.0,1.0,-9244.0,-8148.0,-2477.0,-10512.0,3.0,10.0,70.0,29.0,9.0,-16.0,0.0,15.0,2.4643585681915283
465,997.0,-1372.0,492.0,1.0,-9141.0,-8406.0,-2414.0,-10412.0,3.0,10.0,70.0,29.0,9.0,-16.0,0.0,15.0,2.472649574279785
466,997.0,-1372.0,492.0,1.0,-9141.0,-8406.0,-2414.0,-10412.0,-1.0,-5.0,1.0,-19.0,-1.0,-4.0,-5.0,-32.0,2.475496530532837
467,997.0,-1372.0,492.0,1.0,-9141.0,-8406.0,-2414.0,-10412.0,-6.0,2.0,-9.0,-33.0,-18.0,5.0,-4.0,14.0,2.477447509765625
468,973.0,-1546.0,832.0,1.0,-9017.0,-8693.0,-2344.0,-10300.0,-6.0,2.0,-9.0,-33.0,-18.0,5.0,-4.0,14.0,2.486963987350464
469,973.0,-1546.0,832.0,1.0,-9017.0,-8693.0,-2344.0,-10300.0,-19.0,-5.0,13.0,-30.0,-2.0,-12.0,-6.0,1.0,2.4890737533569336
470,973.0,-1546.0,832.0,1.0,-9017.0,-8693.0,-2344.0,-10300.0,5.0,1.0,-15.0,4.0,-21.0,-8.0,10.0,35.0,2.493697166442871
471,211.0,-1500.0,1186.0,1.0,-8916.0,-8898.0,-2130.0,-10259.0,5.0,1.0,-15.0,4.0,-21.0,-8.0,10.0,35.0,2.5111703872680664
472,211.0,-1500.0,1186.0,1.0,-8916.0,-8898.0,-2130.0,-10259.0,-6.0,-12.0,-27.0,-15.0,-23.0,-9.0,-9.0,3.0,2.5146026611328125
473,211.0,-1500.0,1186.0,1.0,-8916.0,-8898.0,-2130.0,-10259.0,11.0,3.0,16.0,19.0,3.0,-4.0,-9.0,0.0,2.5251364707946777
474,124.0,-1435.0,1167.0,1.0,-8822.0,-9068.0,-1895.0,-10238.0,11.0,3.0,16.0,19.0,3.0,-4.0,-9.0,0.0,2.532336950302124
475,124.0,-1435.0,1167.0,1.0,-8822.0,-9068.0,-1895.0,-10238.0,1.0,2.0,5.0,-45.0,-31.0,-3.0,16.0,19.0,2.5342421531677246
476,124.0,-1435.0,1167.0,1.0,-8822.0,-9068.0,-1895.0,-10238.0,-15.0,-19.0,-21.0,-41.0,-14.0,9.0,7.0,-11.0,2.536069631576538
477,332.0,-1273.0,1076.0,1.0,-8708.0,-9242.0,-1710.0,-10212.0,-15.0,-19.0,-21.0,-41.0,-14.0,9.0,7.0,-11.0,2.5455615520477295
478,332.0,-1273.0,1076.0,1.0,-8708.0,-9242.0,-1710.0,-10212.0,6.0,2.0,-34.0,-17.0,28.0,-25.0,-19.0,-28.0,2.555516242980957
479,332.0,-1273.0,1076.0,1.0,-8708.0,-9242.0,-1710.0,-10212.0,5.0,6.0,0.0,-96.0,9.0,-4.0,7.0,-7.0,2.5579922199249268
480,-22.0,-1097.0,875.0,1.0,-8649.0,-9348.0,-1516.0,-10197.0,5.0,6.0,0.0,-96.0,9.0,-4.0,7.0,-7.0,2.5690369606018066
481,-22.0,-1097.0,875.0,1.0,-8649.0,-9348.0,-1516.0,-10197.0,-1.0,-33.0,-44.0,-46.0,-11.0,28.0,-16.0,-29.0,2.5711779594421387
482,-22.0,-1097.0,875.0,1.0,-8649.0,-9348.0,-1516.0,-10197.0,14.0,4.0,11.0,-22.0,48.0,-3.0,10.0,-12.0,2.5759592056274414
483,473.0,-908.0,915.0,1.0,-8543.0,-9437.0,-1373.0,-10225.0,14.0,4.0,11.0,-22.0,48.0,-3.0,10.0,-12.0,2.5938169956207275
484,473.0,-908.0,915.0,1.0,-8543.0,-9437.0,-1373.0,-10225.0,28.0,41.0,26.0,-12.0,38.0,-6.0,8.0,34.0,2.597262144088745
485,473.0,-908.0,915.0,1.0,-8543.0,-9437.0,-1373.0,-10225.0,-14.0,-12.0,-11.0,4.0,-17.0,-29.0,-26.0,-33.0,2.6005027294158936
486,1831.0,-775.0,566.0,1.0,-8302.0,-9691.0,-1440.0,-10176.0,-14.0,-12.0,-11.0,4.0,-17.0,-29.0,-26.0,-33.0,2.605876922607422
487,1831.0,-775.0,566.0,1.0,-8302.0,-9691.0,-1440.0,-10176.0,12.0,-12.0,-47.0,21.0,26.0,35.0,24.0,34.0,2.6146957874298096
488,1831.0,-775.0,566.0,1.0,-8302.0,-9691.0,-1440.0,-10176.0,0.0,17.0,67.0,64.0,11.0,52.0,29.0,26.0,2.617079973220825
489,1580.0,-599.0,280.0,1.0,-8147.0,-9890.0,-1584.0,-10088.0,0.0,17.0,67.0,64.0,11.0,52.0,29.0,26.0,2.6291143894195557
490,1580.0,-599.0,280.0,1.0,-8147.0,-9890.0,-1584.0,-10088.0,0.0,3.0,27.0,-6.0,-38.0,17.0,9.0,-5.0,2.6315133571624756
491,1580.0,-599.0,280.0,1.0,-8147.0,-9890.0,-1584.0,-10088.0,0.0,-7.0,-40.0,-74.0,-17.0,-16.0,5.0,26.0,2.6368720531463623
492,586.0,-424.0,532.0,1.0,-8049.0,-9996.0,-1583.0,-10063.0,0.0,-7.0,-40.0,-74.0,-17.0,-16.0,5.0,26.0,2.6530704498291016
493,586.0,-424.0,532.0,1.0,-8049.0,-9996.0,-1583.0,-10063.0,25.0,27.0,106.0,37.0,6.0,-9.0,12.0,55.0,2.6565136909484863
494,586.0,-424.0,532.0,1.0,-8049.0,-9996.0,-1583.0,-10063.0,15.0,11.0,-6.0,26.0,35.0,17.0,5.0,21.0,2.6606431007385254
495,290.0,-401.0,467.0,1.0,-7966.0,-10082.0,-1527.0,-10052.0,15.0,11.0,-6.0,26.0,35.0,17.0,5.0,21.0,2.667006015777588
496,290.0,-401.0,467.0,1.0,-7966.0,-10082.0,-1527.0,-10052.0,-32.0,-32.0,-61.0,-2.0,-19.0,-18.0,-3.0,14.0,2.674222230911255
497,290.0,-401.0,467.0,1.0,-7966.0,-10082.0,-1527.0,-10052.0,-12.0,-12.0,-12.0,14.0,-18.0,7.0,19.0,40.0,2.676715850830078
498,256.0,-275.0,198.0,1.0,-7904.0,-10146.0,-1488.0,-10042.0,-12.0,-12.0,-12.0,14.0,-18.0,7.0,19.0,40.0,2.689709424972534
499,256.0,-275.0,198.0,1.0,-7904.0,-10146.0,-1488.0,-10042.0,-10.0,0.0,-9.0,67.0,21.0,-3.0,-10.0,-32.0,2.693466901779175
