Gyro 0,Gyro 1,Gyro 2,Orientation 0,Orientation 1,Orientation 2,Orientation 3,Sensor 0,Sensor 1,Sensor 2,Sensor 3,Sensor 4,Sensor 5,Sensor 6,Sensor 7,Sensor Mean,Sensor Variance,Gyro Mean,Gyro Variance,Orientation Mean,Orientation Variance,Label
-6.756312821770036,-71.28086278109224,-16.890141179262073,86.3625438157236,-122.56533600072747,-126.053461373083,121.83608640406601,-20.48387096774194,16.09859154929576,-33.36862745098039,-17.683544303797483,-0.531380753138075,-4.590361445783127,-7.227642276422774,-35.39344262295083,16.922182671263798,162.9047004588095,31.642438927374783,1204.077103499995,58.17784925869264,1335.3704045467966,0
-6.756312821770036,-71.28086278109224,-16.890141179262073,86.3625438157236,-122.56533600072747,-126.053461373083,121.83608640406601,-12.290322580645164,29.215962441314538,1.4941176470588253,9.64556962025315,12.221757322175732,3.5702811244979973,-4.130081300813018,-33.31147540983608,13.234945930824313,141.0591094139741,31.642438927374783,1204.077103499995,58.17784925869264,1335.3704045467966,0
-6.756312821770036,-71.28086278109224,-16.890141179262073,86.3625438157236,-122.56533600072747,-126.053461373083,121.83608640406601,-16.38709677419355,31.600938967136138,-2.490196078431371,-11.253164556962039,6.907949790794978,-0.5100401606425646,-3.097560975609766,-31.229508196721323,12.934556937561466,156.34656363753018,31.642438927374783,1204.077103499995,58.17784925869264,1335.3704045467966,0
-0.4670262319195828,-70.11519045433684,-15.624510618104168,86.17175763645469,-122.70391925070474,-126.34470402751901,122.67522236340528,-16.38709677419355,31.600938967136138,-2.490196078431371,-11.253164556962039,6.907949790794978,-0.5100401606425646,-3.097560975609766,-31.229508196721323,12.934556937561466,156.34656363753018,28.7355757681202,1341.6417169141746,57.30381956963189,1367.3269334261406,0
-0.4670262319195828,-70.11519045433684,-15.624510618104168,86.17175763645469,-122.70391925070474,-126.34470402751901,122.67522236340528,-32.7741935483871,12.521126760563368,-3.48627450980392,6.4303797468354285,21.786610878661087,-5.610441767068267,-4.130081300813018,-41.6393442622951,16.047306596803413,211.61827317115473,28.7355757681202,1341.6417169141746,57.30381956963189,1367.3269334261406,0
-0.4670262319195828,-70.11519045433684,-15.624510618104168,86.17175763645469,-122.70391925070474,-126.34470402751901,122.67522236340528,-18.435483870967744,20.868544600938954,-0.49803921568627274,-19.291139240506343,-1.5941422594142267,0.5100401606425757,-15.48780487804879,-37.47540983606559,14.270075507783812,166.53696406036514,28.7355757681202,1341.6417169141746,57.30381956963189,1367.3269334261406,0
1.7124295170384953,-71.28086278109224,-15.624510618104168,85.79018527791689,-122.70391925070474,-126.92718933639105,123.9016518424396,-18.435483870967744,20.868544600938954,-0.49803921568627274,-19.291139240506343,-1.5941422594142267,0.5100401606425757,-15.48780487804879,-37.47540983606559,14.270075507783812,166.53696406036514,29.53926763874497,1454.36995831007,57.56518622570443,1371.8953126456825,0
1.7124295170384953,-71.28086278109224,-15.624510618104168,85.79018527791689,-122.70391925070474,-126.92718933639105,123.9016518424396,-20.48387096774194,28.02347417840374,5.4784313725490215,-4.822784810126596,-6.90794979079498,-12.751004016064252,-11.357723577235781,-24.983606557377062,14.351105658786672,82.00414637750737,29.53926763874497,1454.36995831007,57.56518622570443,1371.8953126456825,0
1.7124295170384953,-71.28086278109224,-15.624510618104168,85.79018527791689,-122.70391925070474,-126.92718933639105,123.9016518424396,-18.435483870967744,35.17840375586853,19.423529411764708,38.582278481012644,34.53974895397489,9.69076305220884,4.130081300812998,-31.229508196721323,23.90122462791646,164.62135062126137,29.53926763874497,1454.36995831007,57.56518622570443,1371.8953126456825,0
-3.9852905123804803,-70.11519045433684,-15.80531498398387,85.12243365047573,-122.70391925070474,-126.78156800917304,123.51435832274456,-18.435483870967744,35.17840375586853,19.423529411764708,38.582278481012644,34.53974895397489,9.69076305220884,4.130081300812998,-31.229508196721323,23.90122462791646,164.62135062126137,29.96859865023373,1243.739869741285,57.01431302959881,1329.9404770296364,0
-3.9852905123804803,-70.11519045433684,-15.80531498398387,85.12243365047573,-122.70391925070474,-126.78156800917304,123.51435832274456,-28.67741935483871,19.676056338028154,20.419607843137257,-1.4210854715202004e-14,15.410041841004183,3.5702811244979973,7.227642276422754,-33.31147540983608,16.036565523470642,140.1771416764291,29.96859865023373,1243.739869741285,57.01431302959881,1329.9404770296364,0
-3.9852905123804803,-70.11519045433684,-15.80531498398387,85.12243365047573,-122.70391925070474,-126.78156800917304,123.51435832274456,-16.38709677419355,24.446009389671346,5.4784313725490215,3.215189873417707,-12.221757322175733,-14.791164658634532,-2.0650406504065137,-31.229508196721323,13.729274779721216,106.60679475339144,29.96859865023373,1243.739869741285,57.01431302959881,1329.9404770296364,0
-5.604314783035052,-68.36668196420376,-16.13678965476332,84.58187280921383,-122.72701645903429,-126.49032535473702,122.73977128335446,-16.38709677419355,24.446009389671346,5.4784313725490215,3.215189873417707,-12.221757322175733,-14.791164658634532,-2.0650406504065137,-31.229508196721323,13.729274779721216,106.60679475339144,30.035928800667378,1129.6682352938628,56.36178147606031,1279.2705788025817,0
-5.604314783035052,-68.36668196420376,-16.13678965476332,84.58187280921383,-122.72701645903429,-126.49032535473702,122.73977128335446,-14.338709677419358,18.483568075117358,-14.44313725490196,-3.2151898734177355,11.158995815899582,-13.771084337349393,-7.227642276422774,-37.47540983606559,15.014217143324219,104.79713128206065,30.035928800667378,1129.6682352938628,56.36178147606031,1279.2705788025817,0
-5.604314783035052,-68.36668196420376,-16.13678965476332,84.58187280921383,-122.72701645903429,-126.49032535473702,122.73977128335446,-18.435483870967744,25.638497652582146,-2.490196078431371,-1.6075949367088749,17.535564853556487,-5.610441767068267,-12.390243902439034,-37.47540983606559,15.147929112227438,152.4577988875939,30.035928800667378,1129.6682352938628,56.36178147606031,1279.2705788025817,0
-3.9541554302525075,-65.56906837999081,-15.082097520465064,84.42288432648974,-122.81940529235247,-126.30829869571454,122.41702668360858,-18.435483870967744,25.638497652582146,-2.490196078431371,-1.6075949367088749,17.535564853556487,-5.610441767068267,-12.390243902439034,-37.47540983606559,15.147929112227438,152.4577988875939,28.201773776902797,1078.1938032562593,55.02468340898187,1285.4242195322709,0
-3.9541554302525075,-65.56906837999081,-15.082097520465064,84.42288432648974,-122.81940529235247,-126.30829869571454,122.41702668360858,-6.145161290322584,32.79342723004693,11.454901960784316,-16.075949367088622,-0.531380753138075,-6.630522088353408,-12.390243902439034,-41.6393442622951,15.957616356808508,199.60828123671197,28.201773776902797,1078.1938032562593,55.02468340898187,1285.4242195322709,0
-3.9541554302525075,-65.56906837999081,-15.082097520465064,84.42288432648974,-122.81940529235247,-126.30829869571454,122.41702668360858,-18.435483870967744,25.638497652582146,-9.462745098039214,-1.6075949367088749,11.158995815899582,5.610441767068279,-4.130081300813018,-31.229508196721323,13.409168579850022,114.17444512683012,28.201773776902797,1078.1938032562593,55.02468340898187,1285.4242195322709,0
-0.9651875459671435,-63.004589261128956,-14.027405386166809,84.51827741612419,-122.95798854232973,-126.49032535473702,123.06251588310033,-18.435483870967744,25.638497652582146,-9.462745098039214,-1.6075949367088749,11.158995815899582,5.610441767068279,-4.130081300813018,-31.229508196721323,13.409168579850022,114.17444512683012,25.999060731087635,1069.7122400669841,53.85009068780665,1305.094392982677,0
-0.9651875459671435,-63.004589261128956,-14.027405386166809,84.51827741612419,-122.95798854232973,-126.49032535473702,123.06251588310033,-16.38709677419355,8.943661971830974,-16.435294117647057,-17.683544303797483,2.6569037656903767,-8.670682730923689,-2.0650406504065137,-31.229508196721323,13.008966563901371,91.32477504040791,25.999060731087635,1069.7122400669841,53.85009068780665,1305.094392982677,0
-0.9651875459671435,-63.004589261128956,-14.027405386166809,84.51827741612419,-122.95798854232973,-126.49032535473702,123.06251588310033,-14.338709677419358,25.638497652582146,7.4705882352941195,-4.822784810126596,-3.7196652719665266,-8.670682730923689,-19.617886178861795,-39.55737704918034,15.47952395079432,151.96271299268147,25.999060731087635,1069.7122400669841,53.85009068780665,1305.094392982677,0
-1.338808531502814,-64.40339605323543,-13.786332898327208,84.61367050575865,-123.11966900063655,-126.5995413501505,123.57890724269373,-14.338709677419358,25.638497652582146,7.4705882352941195,-4.822784810126596,-3.7196652719665266,-8.670682730923689,-19.617886178861795,-39.55737704918034,15.47952395079432,151.96271299268147,26.50951249435515,1115.6950240961544,54.2677998191071,1331.1756714052253,0
-1.338808531502814,-64.40339605323543,-13.786332898327208,84.61367050575865,-123.11966900063655,-126.5995413501505,123.57890724269373,-30.725806451612904,-0.5962441314554106,-20.419607843137253,8.03797468354429,28.16317991631799,-1.5301204819277052,3.0975609756097464,-37.47540983606559,16.25573803995886,217.35930784625322,26.50951249435515,1115.6950240961544,54.2677998191071,1331.1756714052253,0
-1.338808531502814,-64.40339605323543,-13.786332898327208,84.61367050575865,-123.11966900063655,-126.5995413501505,123.57890724269373,-22.53225806451613,18.483568075117358,11.454901960784316,27.329113924050617,16.472803347280333,-8.670682730923689,1.032520325203242,-39.55737704918034,18.191653184632003,141.76234153291423,26.50951249435515,1115.6950240961544,54.2677998191071,1331.1756714052253,0
-2.6153468987496886,-63.12115649380449,-13.665796654407407,84.7090635953931,-123.3044466672729,-126.5267306865415,123.6434561626429,-22.53225806451613,18.483568075117358,11.454901960784316,27.329113924050617,16.472803347280333,-8.670682730923689,1.032520325203242,-39.55737704918034,18.191653184632003,141.76234153291423,26.467433348987196,1038.149675233265,53.83200558120168,1326.5026879198701,0
-2.6153468987496886,-63.12115649380449,-13.665796654407407,84.7090635953931,-123.3044466672729,-126.5267306865415,123.6434561626429,-24.580645161290327,24.446009389671346,-6.474509803921567,9.64556962025315,23.912133891213387,0.5100401606425757,-7.227642276422774,-31.229508196721323,16.003257312517057,126.7870155031642,26.467433348987196,1038.149675233265,53.83200558120168,1326.5026879198701,0
-2.6153468987496886,-63.12115649380449,-13.665796654407407,84.7090635953931,-123.3044466672729,-126.5267306865415,123.6434561626429,-18.435483870967744,20.868544600938954,-5.478431372549018,-1.6075949367088749,17.535564853556487,-2.550200803212846,-4.130081300813018,-27.065573770491817,12.208934438654845,97.01408057580373,26.467433348987196,1038.149675233265,53.83200558120168,1326.5026879198701,0
-2.708752145133606,-62.654887563102335,-14.539684422825962,84.77265898848273,-123.39683550059108,-126.4539200229325,123.6434561626429,-18.435483870967744,20.868544600938954,-5.478431372549018,-1.6075949367088749,17.535564853556487,-2.550200803212846,-4.130081300813018,-27.065573770491817,12.208934438654845,97.01408057580373,26.634441377020632,1008.0971472231413,53.98907699147034,1289.489883732604,0
-2.708752145133606,-62.654887563102335,-14.539684422825962,84.77265898848273,-123.39683550059108,-126.4539200229325,123.6434561626429,-12.290322580645164,28.02347417840374,4.482352941176472,6.4303797468354285,1.5941422594142258,-0.5100401606425646,-11.357723577235781,-35.39344262295083,12.510234758413025,161.46510173237826,26.634441377020632,1008.0971472231413,53.98907699147034,1289.489883732604,0
-2.708752145133606,-62.654887563102335,-14.539684422825962,84.77265898848273,-123.39683550059108,-126.4539200229325,123.6434561626429,-14.338709677419358,17.29107981220656,-8.466666666666665,-20.898734177215204,-26.037656903765694,-22.95180722891566,-18.585365853658544,-41.6393442622951,21.276170572767846,96.51627766106442,26.634441377020632,1008.0971472231413,53.98907699147034,1289.489883732604,0
-2.5219416523657707,-59.274437815511696,-14.810890971645513,84.99524286429646,-123.39683550059108,-126.34470402751901,123.44980940279538,-14.338709677419358,17.29107981220656,-8.466666666666665,-20.898734177215204,-26.037656903765694,-22.95180722891566,-18.585365853658544,-41.6393442622951,21.276170572767846,96.51627766106442,25.535756813174327,891.478515676067,53.02685721715122,1260.7350101476218,0
-2.5219416523657707,-59.274437815511696,-14.810890971645513,84.99524286429646,-123.39683550059108,-126.34470402751901,123.44980940279538,6.1451612903225765,33.98591549295773,-17.431372549019606,-22.506329113924064,6.907949790794978,-0.5100401606425646,-7.227642276422774,-37.47540983606559,16.523727563768734,189.0785062895637,25.535756813174327,891.478515676067,53.02685721715122,1260.7350101476218,0
-2.5219416523657707,-59.274437815511696,-14.810890971645513,84.99524286429646,-123.39683550059108,-126.34470402751901,123.44980940279538,-32.7741935483871,23.25352112676055,-2.490196078431371,19.291139240506315,13.284518828451883,5.610441767068279,1.032520325203242,-33.31147540983608,16.381000790580604,166.45737593781217,25.535756813174327,891.478515676067,53.02685721715122,1260.7350101476218,0
-0.49816131404755537,-58.92473611748508,-14.32874599596631,85.21782674011017,-123.37373829226154,-126.5267306865415,123.83710292249043,-32.7741935483871,23.25352112676055,-2.490196078431371,19.291139240506315,13.284518828451883,5.610441767068279,1.032520325203242,-33.31147540983608,16.381000790580604,166.45737593781217,24.58388114249965,932.2920084706677,52.82376961785385,1284.231786359654,0
-0.49816131404755537,-58.92473611748508,-14.32874599596631,85.21782674011017,-123.37373829226154,-126.5267306865415,123.83710292249043,-26.62903225806452,32.79342723004693,-0.49803921568627274,-1.4210854715202004e-14,3.7196652719665266,-2.550200803212846,-9.769962616701378e-15,-29.147540983606568,11.917238220322961,216.93090234536865,24.58388114249965,932.2920084706677,52.82376961785385,1284.231786359654,0
-0.49816131404755537,-58.92473611748508,-14.32874599596631,85.21782674011017,-123.37373829226154,-126.5267306865415,123.83710292249043,6.1451612903225765,62.60563380281688,54.286274509803924,-6.430379746835457,1.5941422594142258,-3.5702811244979866,1.032520325203242,-24.983606557377062,20.080999952033917,622.8771705824378,24.58388114249965,932.2920084706677,52.82376961785385,1284.231786359654,0
1.027457710223099,-61.72234970169802,-13.093249495788353,85.50400600901352,-123.4661271255797,-126.81797334097752,124.61168996188053,6.1451612903225765,62.60563380281688,54.286274509803924,-6.430379746835457,1.5941422594142258,-3.5702811244979866,1.032520325203242,-24.983606557377062,20.080999952033917,622.8771705824378,25.281018969236488,1083.6203481779164,53.43986840216663,1362.2790370622108,0
1.027457710223099,-61.72234970169802,-13.093249495788353,85.50400600901352,-123.4661271255797,-126.81797334097752,124.61168996188053,-10.241935483870972,35.17840375586853,13.447058823529414,17.683544303797454,1.5941422594142258,3.5702811244979973,-3.097560975609766,-39.55737704918034,15.546287971971086,213.16015223067453,25.281018969236488,1083.6203481779164,53.43986840216663,1362.2790370622108,0
1.027457710223099,-61.72234970169802,-13.093249495788353,85.50400600901352,-123.4661271255797,-126.81797334097752,124.61168996188053,-24.580645161290327,10.136150234741772,-8.466666666666665,-9.645569620253179,41.97907949790795,-5.610441767068267,-22.715447154471555,-33.31147540983608,19.555684439029474,175.9484100799948,25.281018969236488,1083.6203481779164,53.43986840216663,1362.2790370622108,0
0.3113508212797309,-65.56906837999081,-13.364456044607905,85.59939909864798,-123.62780758388652,-127.0,125.38627700127063,-24.580645161290327,10.136150234741772,-8.466666666666665,-9.645569620253179,41.97907949790795,-5.610441767068267,-22.715447154471555,-33.31147540983608,19.555684439029474,175.9484100799948,26.414958415292816,1208.7631461093013,54.84430784108222,1390.737115967801,0
0.3113508212797309,-65.56906837999081,-13.364456044607905,85.59939909864798,-123.62780758388652,-127.0,125.38627700127063,-18.435483870967744,25.638497652582146,0.4980392156862763,-11.253164556962039,-12.221757322175733,-0.5100401606425646,3.0975609756097464,-29.147540983606568,12.600260592279103,123.25062421344796,26.414958415292816,1208.7631461093013,54.84430784108222,1390.737115967801,0
0.3113508212797309,-65.56906837999081,-13.364456044607905,85.59939909864798,-123.62780758388652,-127.0,125.38627700127063,-28.67741935483871,12.521126760563368,-10.458823529411763,-9.645569620253179,14.347280334728033,-8.670682730923689,4.130081300812998,-43.72131147540985,16.5215368883677,172.5061986572982,26.414958415292816,1208.7631461093013,54.84430784108222,1390.737115967801,0
-3.0823731306692768,-64.40339605323543,-12.882311068928702,85.59939909864798,-123.83568245885242,-126.74516267736851,125.06353240152475,-28.67741935483871,12.521126760563368,-10.458823529411763,-9.645569620253179,14.347280334728033,-8.670682730923689,4.130081300812998,-43.72131147540985,16.5215368883677,172.5061986572982,26.789360084277803,1085.1214723039625,54.295035406937366,1398.5779390972061,0
-3.0823731306692768,-64.40339605323543,-12.882311068928702,85.59939909864798,-123.83568245885242,-126.74516267736851,125.06353240152475,-8.193548387096778,43.525821596244114,22.411764705882355,-17.683544303797483,18.598326359832633,-0.5100401606425646,3.0975609756097464,-24.983606557377062,17.37552663081034,191.61261093653175,26.789360084277803,1085.1214723039625,54.295035406937366,1398.5779390972061,0
-3.0823731306692768,-64.40339605323543,-12.882311068928702,85.59939909864798,-123.83568245885242,-126.74516267736851,125.06353240152475,-16.38709677419355,11.32863849765257,-25.4,-6.430379746835457,11.158995815899582,2.5502008032128574,-9.769962616701378e-15,-35.39344262295083,13.581094282593106,141.64832739205872,26.789360084277803,1085.1214723039625,54.295035406937366,1398.5779390972061,0
-3.455994116204947,-60.55667737494263,-12.791908885988851,85.6629944917376,-123.9280712921706,-126.49032535473702,124.61168996188053,-16.38709677419355,11.32863849765257,-25.4,-6.430379746835457,11.158995815899582,2.5502008032128574,-9.769962616701378e-15,-35.39344262295083,13.581094282593106,141.64832739205872,25.601526792378806,938.1867403344511,53.003860250889694,1370.3325642221312,0
-3.455994116204947,-60.55667737494263,-12.791908885988851,85.6629944917376,-123.9280712921706,-126.49032535473702,124.61168996188053,-53.25806451612903,1.7887323943661855,-37.35294117647059,8.03797468354429,-0.531380753138075,-6.630522088353408,-23.747967479674806,-56.21311475409837,23.445087230721846,524.3173925031155,25.601526792378806,938.1867403344511,53.003860250889694,1370.3325642221312,0
-3.455994116204947,-60.55667737494263,-12.791908885988851,85.6629944917376,-123.9280712921706,-126.49032535473702,124.61168996188053,-24.580645161290327,37.56338028169013,9.462745098039218,3.215189873417707,37.72803347280335,15.811244979919685,-12.390243902439034,-27.065573770491817,20.977132067511405,164.8913560357242,25.601526792378806,938.1867403344511,53.003860250889694,1370.3325642221312,0
-2.210590831086045,-62.77145479577788,-12.24949578834975,85.75838758137206,-124.1359461671365,-126.41751469112802,124.74078780177888,-24.580645161290327,37.56338028169013,9.462745098039218,3.215189873417707,37.72803347280335,15.811244979919685,-12.390243902439034,-27.065573770491817,20.977132067511405,164.8913560357242,25.743847138404558,1053.4776998065222,53.59311272183323,1414.0707655793226,0
-2.210590831086045,-62.77145479577788,-12.24949578834975,85.75838758137206,-124.1359461671365,-126.41751469112802,124.74078780177888,-10.241935483870972,22.061032863849753,0.4980392156862763,9.64556962025315,5.845188284518828,2.5502008032128574,-6.195121951219521,-33.31147540983608,11.293570454055928,121.88818303116071,25.743847138404558,1053.4776998065222,53.59311272183323,1414.0707655793226,0
-2.210590831086045,-62.77145479577788,-12.24949578834975,85.75838758137206,-124.1359461671365,-126.41751469112802,124.74078780177888,2.0483870967741886,22.061032863849753,10.458823529411767,-8.037974683544318,5.845188284518828,-10.71084337349397,-7.227642276422774,-37.47540983606559,12.98316274301015,131.70207370984048,25.743847138404558,1053.4776998065222,53.59311272183323,1414.0707655793226,0
-1.6501593527825396,-64.0536943552088,-12.038557361490097,85.85378067100652,-124.43620987542057,-126.49032535473702,125.32172808132145,2.0483870967741886,22.061032863849753,10.458823529411767,-8.037974683544318,5.845188284518828,-10.71084337349397,-7.227642276422774,-37.47540983606559,12.98316274301015,131.70207370984048,25.914137023160478,1117.9490784102807,53.9820107959018,1438.250905347555,0
-1.6501593527825396,-64.0536943552088,-12.038557361490097,85.85378067100652,-124.43620987542057,-126.49032535473702,125.32172808132145,-14.338709677419358,22.061032863849753,2.4901960784313744,-8.037974683544318,5.845188284518828,-5.610441767068267,-12.390243902439034,-33.31147540983608,13.010657833388377,105.38513750580168,25.914137023160478,1117.9490784102807,53.9820107959018,1438.250905347555,0
-1.6501593527825396,-64.0536943552088,-12.038557361490097,85.85378067100652,-124.43620987542057,-126.49032535473702,125.32172808132145,-10.241935483870972,50.680751173708906,17.43137254901961,6.4303797468354285,19.661087866108787,13.771084337349404,23.747967479674784,-24.983606557377062,20.868523149243117,185.5748490155965,25.914137023160478,1117.9490784102807,53.9820107959018,1438.250905347555,0
-2.1483206668301,-65.56906837999081,-12.098825483449998,85.8219829744617,-124.7133763753751,-126.49032535473702,125.64447268106733,-10.241935483870972,50.680751173708906,17.43137254901961,6.4303797468354285,19.661087866108787,13.771084337349404,23.747967479674784,-24.983606557377062,20.868523149243117,185.5748490155965,26.60540484342364,1163.3784436695046,54.49662561263417,1450.72522923842,0
-2.1483206668301,-65.56906837999081,-12.098825483449998,85.8219829744617,-124.7133763753751,-126.49032535473702,125.64447268106733,-18.435483870967744,22.061032863849753,11.454901960784316,4.822784810126568,19.661087866108787,-8.670682730923689,-2.0650406504065137,-37.47540983606559,15.580803073654119,129.90696054867462,26.60540484342364,1163.3784436695046,54.49662561263417,1450.72522923842,0
-2.1483206668301,-65.56906837999081,-12.098825483449998,85.8219829744617,-124.7133763753751,-126.49032535473702,125.64447268106733,-10.241935483870972,18.483568075117358,-19.423529411764704,3.215189873417707,0.531380753138075,-2.550200803212846,-20.65040650406505,-45.8032786885246,15.112436199138914,219.7471665762903,26.60540484342364,1163.3784436695046,54.49662561263417,1450.72522923842,0
-3.2691836234371117,-61.72234970169802,-12.43030015422945,85.91737606409615,-124.87505683368192,-126.23548803210554,125.38627700127063,-10.241935483870972,18.483568075117358,-19.423529411764704,3.215189873417707,0.531380753138075,-2.550200803212846,-20.65040650406505,-45.8032786885246,15.112436199138914,219.7471665762903,25.80727782645486,988.4008048756008,53.35667530667454,1402.575962508291,0
-3.2691836234371117,-61.72234970169802,-12.43030015422945,85.91737606409615,-124.87505683368192,-126.23548803210554,125.38627700127063,-2.0483870967741975,36.37089201877933,-3.48627450980392,-3.2151898734177355,-11.158995815899583,-19.891566265060234,11.357723577235761,-31.229508196721323,14.844817169211511,173.00830295482385,25.80727782645486,988.4008048756008,53.35667530667454,1402.575962508291,0
-3.2691836234371117,-61.72234970169802,-12.43030015422945,85.91737606409615,-124.87505683368192,-126.23548803210554,125.38627700127063,-16.38709677419355,25.638497652582146,-0.49803921568627274,9.64556962025315,-3.7196652719665266,-1.5301204819277052,4.130081300812998,-27.065573770491817,11.076830510989272,114.76645701089178,25.80727782645486,988.4008048756008,53.35667530667454,1402.575962508291,0
-2.6776170630056333,-61.256080770995865,-12.43030015422945,86.07636454682024,-125.05983450031827,-126.053461373083,125.1926302414231,-16.38709677419355,25.638497652582146,-0.49803921568627274,9.64556962025315,-3.7196652719665266,-1.5301204819277052,4.130081300812998,-27.065573770491817,11.076830510989272,114.76645701089178,25.454665996076983,985.0846817837958,53.25424849068185,1403.9576900111138,0
-2.6776170630056333,-61.256080770995865,-12.43030015422945,86.07636454682024,-125.05983450031827,-126.053461373083,125.1926302414231,-18.435483870967744,22.061032863849753,26.39607843137255,12.860759493670871,21.786610878661087,-0.5100401606425646,-15.48780487804879,-45.8032786885246,20.417636158217245,166.62834152484155,25.454665996076983,985.0846817837958,53.25424849068185,1403.9576900111138,0
-2.6776170630056333,-61.256080770995865,-12.43030015422945,86.07636454682024,-125.05983450031827,-126.053461373083,125.1926302414231,-12.290322580645164,20.868544600938954,-10.458823529411763,-8.037974683544318,-1.5941422594142267,-6.630522088353408,-6.195121951219521,-35.39344262295083,12.683611789559773,115.87608210089729,25.454665996076983,985.0846817837958,53.25424849068185,1403.9576900111138,0
0.2490806570237858,-62.18861863240018,-12.159093605409899,86.42613920881323,-125.31390379194326,-126.27189336391001,126.09631512071155,-12.290322580645164,20.868544600938954,-10.458823529411763,-8.037974683544318,-1.5941422594142267,-6.630522088353408,-6.195121951219521,-35.39344262295083,12.683611789559773,115.87608210089729,24.865597631611283,1092.5637425849504,53.59128381554111,1434.33414012938,0
0.2490806570237858,-62.18861863240018,-12.159093605409899,86.42613920881323,-125.31390379194326,-126.27189336391001,126.09631512071155,-24.580645161290327,13.713615023474166,-19.423529411764704,25.721518987341756,20.723849372384937,-9.69076305220883,-10.32520325203253,-35.39344262295083,19.94657086043101,75.84432841498287,24.865597631611283,1092.5637425849504,53.59128381554111,1434.33414012938,0
0.2490806570237858,-62.18861863240018,-12.159093605409899,86.42613920881323,-125.31390379194326,-126.27189336391001,126.09631512071155,-22.53225806451613,20.868544600938954,-4.482352941176469,-38.58227848101267,-11.158995815899583,-13.771084337349393,-11.357723577235781,-41.6393442622951,20.549072760053008,178.68088634798227,24.865597631611283,1092.5637425849504,53.59128381554111,1434.33414012938,0
-0.09340524638391257,-67.20100963744837,-13.153517617748253,86.39434151226841,-125.52177866690916,-126.5267306865415,127.0,-22.53225806451613,20.868544600938954,-4.482352941176469,-38.58227848101267,-11.158995815899583,-13.771084337349393,-11.357723577235781,-41.6393442622951,20.549072760053008,178.68088634798227,26.81597750052684,1265.8547493133042,55.58295625582168,1442.2889444707741,0
-0.09340524638391257,-67.20100963744837,-13.153517617748253,86.39434151226841,-125.52177866690916,-126.5267306865415,127.0,-24.580645161290327,24.446009389671346,-4.482352941176469,-4.822784810126596,44.10460251046025,10.710843373493981,1.032520325203242,-37.47540983606559,18.956896043435975,262.237934429482,26.81597750052684,1265.8547493133042,55.58295625582168,1442.2889444707741,0
-0.09340524638391257,-67.20100963744837,-13.153517617748253,86.39434151226841,-125.52177866690916,-126.5267306865415,127.0,-28.67741935483871,24.446009389671346,12.450980392156865,4.822784810126568,-0.531380753138075,-14.791164658634532,-14.455284552845537,-45.8032786885246,18.24728782499203,208.6480465464361,26.81597750052684,1265.8547493133042,55.58295625582168,1442.2889444707741,0
-3.923020348124535,-72.21340064249655,-13.906869142247007,85.85378067100652,-125.77584795853416,-126.38110935932355,126.87090216010165,-28.67741935483871,24.446009389671346,12.450980392156865,4.822784810126568,-0.531380753138075,-14.791164658634532,-14.455284552845537,-45.8032786885246,18.24728782499203,208.6480465464361,30.014430044289366,1360.484148847241,57.32468348525003,1460.3449435731522,0
-3.923020348124535,-72.21340064249655,-13.906869142247007,85.85378067100652,-125.77584795853416,-126.38110935932355,126.87090216010165,-2.0483870967741975,31.600938967136138,7.4705882352941195,-9.645569620253179,-2.6569037656903767,-9.69076305220883,3.0975609756097464,-24.983606557377062,11.399289783792955,120.97956876427124,30.014430044289366,1360.484148847241,57.32468348525003,1460.3449435731522,0
-3.923020348124535,-72.21340064249655,-13.906869142247007,85.85378067100652,-125.77584795853416,-126.38110935932355,126.87090216010165,-24.580645161290327,-1.7887323943662068,-14.44313725490196,-1.4210854715202004e-14,5.845188284518828,-8.670682730923689,-1.0325203252032615,-37.47540983606559,11.729539498408734,175.73921783355232,30.014430044289366,1360.484148847241,57.32468348525003,1460.3449435731522,0
-6.538367246874229,-67.78384580082606,-13.695930715387357,85.50400600901352,-125.98372283350005,-125.7258133868425,125.64447268106733,-24.580645161290327,-1.7887323943662068,-14.44313725490196,-1.4210854715202004e-14,5.845188284518828,-8.670682730923689,-1.0325203252032615,-37.47540983606559,11.729539498408734,175.73921783355232,29.33938125436255,1121.2903193996656,55.66126084174232,1399.3177189114238,0
-6.538367246874229,-67.78384580082606,-13.695930715387357,85.50400600901352,-125.98372283350005,-125.7258133868425,125.64447268106733,-28.67741935483871,18.483568075117358,-3.48627450980392,-33.75949367088609,7.970711297071129,12.751004016064263,-6.195121951219521,-41.6393442622951,19.12036714216201,198.5030776982695,29.33938125436255,1121.2903193996656,55.66126084174232,1399.3177189114238,0
-6.538367246874229,-67.78384580082606,-13.695930715387357,85.50400600901352,-125.98372283350005,-125.7258133868425,125.64447268106733,-24.580645161290327,23.25352112676055,-6.474509803921567,8.03797468354429,-6.90794979079498,-10.71084337349397,3.0975609756097464,-33.31147540983608,14.546810040656439,120.0394901060278,29.33938125436255,1121.2903193996656,55.66126084174232,1399.3177189114238,0
-5.946800686442751,-60.78981184029371,-13.575394471467556,85.47220831246871,-126.07611166681824,-125.10692274616599,124.35349428208383,-24.580645161290327,23.25352112676055,-6.474509803921567,8.03797468354429,-6.90794979079498,-10.71084337349397,3.0975609756097464,-33.31147540983608,14.546810040656439,120.0394901060278,26.77066899940134,882.5254205060088,53.27913820807666,1334.595623929154,0
-5.946800686442751,-60.78981184029371,-13.575394471467556,85.47220831246871,-126.07611166681824,-125.10692274616599,124.35349428208383,-6.145161290322584,28.02347417840374,3.4862745098039234,24.113924050632896,10.09623430962343,-5.610441767068267,5.162601626016251,-24.983606557377062,13.452714786156019,107.5933329524422,26.77066899940134,882.5254205060088,53.27913820807666,1334.595623929154,0
-5.946800686442751,-60.78981184029371,-13.575394471467556,85.47220831246871,-126.07611166681824,-125.10692274616599,124.35349428208383,-28.67741935483871,32.79342723004693,13.447058823529414,12.860759493670871,23.912133891213387,-11.730923694779111,-7.227642276422774,-37.47540983606559,21.015596825070848,125.26188143040068,26.77066899940134,882.5254205060088,53.27913820807666,1334.595623929154,0
-3.518264280460892,-57.40936209270307,-13.967137264206908,85.56760140210316,-126.0068200418296,-124.8520854235345,123.70800508259208,-28.67741935483871,32.79342723004693,13.447058823529414,12.860759493670871,23.912133891213387,-11.730923694779111,-7.227642276422774,-37.47540983606559,21.015596825070848,125.26188143040068,24.964921212456957,816.7760446814532,52.31470025300438,1301.1233006362036,0
-3.518264280460892,-57.40936209270307,-13.967137264206908,85.56760140210316,-126.0068200418296,-124.8520854235345,123.70800508259208,-10.241935483870972,33.98591549295773,14.443137254901963,-9.645569620253179,-4.782426778242678,3.5702811244979973,-7.227642276422774,-27.065573770491817,13.87031022520489,120.41421215214415,24.964921212456957,816.7760446814532,52.31470025300438,1301.1233006362036,0
-3.518264280460892,-57.40936209270307,-13.967137264206908,85.56760140210316,-126.0068200418296,-124.8520854235345,123.70800508259208,-18.435483870967744,24.446009389671346,-7.470588235294116,16.075949367088594,33.47698744769875,-9.69076305220883,-29.943089430894318,-39.55737704918034,22.387030980375506,131.18304130368162,24.964921212456957,816.7760446814532,52.31470025300438,1301.1233006362036,0
-3.8296151017406177,-60.55667737494263,-14.268477874006411,85.50400600901352,-126.0068200418296,-124.67005876451202,123.25616264294786,-18.435483870967744,24.446009389671346,-7.470588235294116,16.075949367088594,33.47698744769875,-9.69076305220883,-29.943089430894318,-39.55737704918034,22.387030980375506,131.18304130368162,26.21825678356322,911.5878105274014,53.44305375265419,1306.5778479480323,0
-3.8296151017406177,-60.55667737494263,-14.268477874006411,85.50400600901352,-126.0068200418296,-124.67005876451202,123.25616264294786,-18.435483870967744,20.868544600938954,0.4980392156862763,6.4303797468354285,-3.7196652719665266,4.590361445783138,-16.520325203252042,-37.47540983606559,13.567276148936962,150.94685777079212,26.21825678356322,911.5878105274014,53.44305375265419,1306.5778479480323,0
-3.8296151017406177,-60.55667737494263,-14.268477874006411,85.50400600901352,-126.0068200418296,-124.67005876451202,123.25616264294786,-26.62903225806452,17.29107981220656,-1.4941176470588218,-12.8607594936709,-7.97071129707113,0.5100401606425757,-3.097560975609766,-31.229508196721323,12.635351230130698,135.31013749339203,26.21825678356322,911.5878105274014,53.44305375265419,1306.5778479480323,0
-3.7050747732287275,-58.34189995410738,-14.11780756910666,85.59939909864798,-126.0068200418296,-124.48803210548948,122.80432020330363,-26.62903225806452,17.29107981220656,-1.4941176470588218,-12.8607594936709,-7.97071129707113,0.5100401606425757,-3.097560975609766,-31.229508196721323,12.635351230130698,135.31013749339203,25.388260765480926,841.5630029002209,52.68636887395402,1301.3932557479839,0
-3.7050747732287275,-58.34189995410738,-14.11780756910666,85.59939909864798,-126.0068200418296,-124.48803210548948,122.80432020330363,-34.822580645161295,12.521126760563368,-28.388235294117646,-8.037974683544318,-6.90794979079498,-9.69076305220883,-4.130081300813018,-37.47540983606559,17.74676517040863,183.34355127713147,25.388260765480926,841.5630029002209,52.68636887395402,1301.3932557479839,0
-3.7050747732287275,-58.34189995410738,-14.11780756910666,85.59939909864798,-126.0068200418296,-124.48803210548948,122.80432020330363,-3.552713678800501e-15,43.525821596244114,13.447058823529414,-6.430379746835457,28.16317991631799,2.5502008032128574,-6.195121951219521,-35.39344262295083,16.963150682538775,272.20371650315946,25.388260765480926,841.5630029002209,52.68636887395402,1301.3932557479839,0
-3.4871291983329193,-57.17622762735199,-13.937003203226958,85.75838758137206,-126.0068200418296,-124.306005446467,122.48157560355776,-3.552713678800501e-15,43.525821596244114,13.447058823529414,-6.430379746835457,28.16317991631799,2.5502008032128574,-6.195121951219521,-35.39344262295083,16.963150682538775,272.20371650315946,24.866786676303956,810.2249476064848,52.29053947065034,1307.4802750717176,0
-3.4871291983329193,-57.17622762735199,-13.937003203226958,85.75838758137206,-126.0068200418296,-124.306005446467,122.48157560355776,-6.145161290322584,14.906103286384964,-12.450980392156861,-16.075949367088622,19.661087866108787,1.5301204819277165,-18.585365853658544,-33.31147540983608,15.333280493435518,90.93027434101161,24.866786676303956,810.2249476064848,52.29053947065034,1307.4802750717176,0
-3.4871291983329193,-57.17622762735199,-13.937003203226958,85.75838758137206,-126.0068200418296,-124.306005446467,122.48157560355776,-6.145161290322584,30.408450704225338,-1.4941176470588218,11.25316455696201,-3.7196652719665266,17.851405622489967,4.130081300812998,-31.229508196721323,13.278944323819946,143.64406127976716,24.866786676303956,810.2249476064848,52.29053947065034,1307.4802750717176,0
-3.4248590340769747,-58.108765488756305,-13.243919800688104,86.07636454682024,-126.14540329180686,-124.08757345563998,122.22337992376106,-6.145161290322584,30.408450704225338,-1.4941176470588218,11.25316455696201,-3.7196652719665266,17.851405622489967,4.130081300812998,-31.229508196721323,13.278944323819946,143.64406127976716,24.925848107840462,849.9329930161155,52.47634994542155,1349.934330564197,0
-3.4248590340769747,-58.108765488756305,-13.243919800688104,86.07636454682024,-126.14540329180686,-124.08757345563998,122.22337992376106,-30.725806451612904,13.713615023474166,-2.490196078431371,-3.2151898734177355,-11.158995815899583,-22.95180722891566,-18.585365853658544,-47.88524590163935,18.840777778381167,228.37127497969135,24.925848107840462,849.9329930161155,52.47634994542155,1349.934330564197,0
-3.4248590340769747,-58.108765488756305,-13.243919800688104,86.07636454682024,-126.14540329180686,-124.08757345563998,122.22337992376106,-16.38709677419355,22.061032863849753,-2.490196078431371,4.822784810126568,19.661087866108787,14.791164658634543,6.195121951219502,-31.229508196721323,14.704749149910675,96.26398675476173,24.925848107840462,849.9329930161155,52.47634994542155,1349.934330564197,0
-1.9303750919342924,-58.57503441945846,-13.876735081267057,86.29894842263396,-126.1685005001364,-124.12397878744451,122.35247776365941,-16.38709677419355,22.061032863849753,-2.490196078431371,4.822784810126568,19.661087866108787,14.791164658634543,6.195121951219502,-31.229508196721323,14.704749149910675,96.26398675476173,24.79404819755327,891.545151842094,52.91690597445315,1335.255059440749,0
-1.9303750919342924,-58.57503441945846,-13.876735081267057,86.29894842263396,-126.1685005001364,-124.12397878744451,122.35247776365941,-22.53225806451613,25.638497652582146,-8.466666666666665,-4.822784810126596,2.6569037656903767,-9.69076305220883,-4.130081300813018,-39.55737704918034,14.686916545223012,173.87834985748873,24.79404819755327,891.545151842094,52.91690597445315,1335.255059440749,0
-1.9303750919342924,-58.57503441945846,-13.876735081267057,86.29894842263396,-126.1685005001364,-124.12397878744451,122.35247776365941,-14.338709677419358,36.37089201877933,-0.49803921568627274,4.822784810126568,2.6569037656903767,0.5100401606425757,10.32520325203251,-27.065573770491817,12.073518333858601,176.0376146404774,24.79404819755327,891.545151842094,52.91690597445315,1335.255059440749,0
-2.4285364059818533,-59.507572280862775,-14.29861193498636,86.45793690535805,-126.19159770846595,-124.08757345563998,122.28792884371023,-14.338709677419358,36.37089201877933,-0.49803921568627274,4.822784810126568,2.6569037656903767,0.5100401606425757,10.32520325203251,-27.065573770491817,12.073518333858601,176.0376146404774,25.41157354061033,907.1275208375401,53.42137370706906,1329.5234048546633,0
-2.4285364059818533,-59.507572280862775,-14.29861193498636,86.45793690535805,-126.19159770846595,-124.08757345563998,122.28792884371023,8.193548387096769,28.02347417840374,0.4980392156862763,8.03797468354429,27.10041841004184,3.5702811244979973,19.617886178861777,-24.983606557377062,15.00315359193872,124.68158838492279,25.41157354061033,907.1275208375401,53.42137370706906,1329.5234048546633,0
-2.4285364059818533,-59.507572280862775,-14.29861193498636,86.45793690535805,-126.19159770846595,-124.08757345563998,122.28792884371023,-18.435483870967744,18.483568075117358,-1.4941176470588218,11.25316455696201,11.158995815899582,-9.69076305220883,-2.0650406504065137,-35.39344262295083,13.496822036446462,118.35086621581968,25.41157354061033,907.1275208375401,53.42137370706906,1329.5234048546633,0
-3.0823731306692768,-60.55667737494263,-13.756198837347258,86.64872308462695,-126.30708375011368,-123.86914146481297,122.02973316391353,-18.435483870967744,18.483568075117358,-1.4941176470588218,11.25316455696201,11.158995815899582,-9.69076305220883,-2.0650406504065137,-35.39344262295083,13.496822036446462,118.35086621581968,25.798416447653054,934.5851658212939,53.65386643230561,1364.0666219674067,0
-3.0823731306692768,-60.55667737494263,-13.756198837347258,86.64872308462695,-126.30708375011368,-123.86914146481297,122.02973316391353,-30.725806451612904,35.17840375586853,5.4784313725490215,1.6075949367088465,4.7824267782426775,-6.630522088353408,-27.878048780487813,-39.55737704918034,18.979826401625445,248.73278209744439,25.798416447653054,934.5851658212939,53.65386643230561,1364.0666219674067,0
-3.0823731306692768,-60.55667737494263,-13.756198837347258,86.64872308462695,-126.30708375011368,-123.86914146481297,122.02973316391353,-12.290322580645164,23.25352112676055,-4.482352941176469,8.03797468354429,11.158995815899582,-1.5301204819277052,-7.227642276422774,-33.31147540983608,12.661550664526576,111.81679145044676,25.798416447653054,934.5851658212939,53.65386643230561,1364.0666219674067,0
-2.366266241725908,-61.9554841670491,-13.334321983627955,86.90310465698549,-126.49186141675003,-123.68711480579049,121.90063532401518,-12.290322580645164,23.25352112676055,-4.482352941176469,8.03797468354429,11.158995815899582,-1.5301204819277052,-7.227642276422774,-33.31147540983608,12.661550664526576,111.81679145044676,25.88535746413432,1005.8650919626118,54.06430360255418,1399.7944940360248,0
-2.366266241725908,-61.9554841670491,-13.334321983627955,86.90310465698549,-126.49186141675003,-123.68711480579049,121.90063532401518,-22.53225806451613,32.79342723004693,14.443137254901963,1.6075949367088465,11.158995815899582,-1.5301204819277052,7.227642276422754,-22.901639344262307,14.274351925585776,123.97592412829792,25.88535746413432,1005.8650919626118,54.06430360255418,1399.7944940360248,0
-2.366266241725908,-61.9554841670491,-13.334321983627955,86.90310465698549,-126.49186141675003,-123.68711480579049,121.90063532401518,-26.62903225806452,8.943661971830974,-31.376470588235293,-9.645569620253179,39.85355648535565,-2.550200803212846,-10.32520325203253,-43.72131147540985,21.630625806799355,248.0735677120709,25.88535746413432,1005.8650919626118,54.06430360255418,1399.7944940360248,0
-3.3625888698210296,-62.42175309775126,-13.726064776367307,86.99849774661993,-126.6304446667273,-123.432277483159,121.51334180432013,-26.62903225806452,8.943661971830974,-31.376470588235293,-9.645569620253179,39.85355648535565,-2.550200803212846,-10.32520325203253,-43.72131147540985,21.630625806799355,248.0735677120709,26.503468914646533,994.4427622100947,54.38210520691283,1390.689312001538,0
-3.3625888698210296,-62.42175309775126,-13.726064776367307,86.99849774661993,-126.6304446667273,-123.432277483159,121.51334180432013,-28.67741935483871,12.521126760563368,-0.49803921568627274,-14.46835443037976,1.5941422594142258,-20.911646586345377,15.48780487804877,-39.55737704918034,16.7144888168071,171.17966562577982,26.503468914646533,994.4427622100947,54.38210520691283,1390.689312001538,0
-3.3625888698210296,-62.42175309775126,-13.726064776367307,86.99849774661993,-126.6304446667273,-123.432277483159,121.51334180432013,-14.338709677419358,33.98591549295773,-1.4941176470588218,-16.075949367088622,5.845188284518828,-5.610441767068267,1.032520325203242,-31.229508196721323,13.701543844754523,165.920388028653,26.503468914646533,994.4427622100947,54.38210520691283,1390.689312001538,0
-3.020102966413331,-64.86966498393758,-14.35888005694626,86.90310465698549,-126.74593070837501,-123.32306148774546,121.51334180432013,-14.338709677419358,33.98591549295773,-1.4941176470588218,-16.075949367088622,5.845188284518828,-5.610441767068267,1.032520325203242,-31.229508196721323,13.701543844754523,165.920388028653,27.416216002432392,1084.2125969348579,55.37721656595644,1383.2460634312588,0
-3.020102966413331,-64.86966498393758,-14.35888005694626,86.90310465698549,-126.74593070837501,-123.32306148774546,121.51334180432013,-26.62903225806452,14.906103286384964,-2.490196078431371,30.544303797468338,15.410041841004183,4.590361445783138,-21.6829268292683,-41.6393442622951,19.736538724837487,173.81861038459647,27.416216002432392,1084.2125969348579,55.37721656595644,1383.2460634312588,0
-3.020102966413331,-64.86966498393758,-14.35888005694626,86.90310465698549,-126.74593070837501,-123.32306148774546,121.51334180432013,-18.435483870967744,14.906103286384964,-5.478431372549018,-25.721518987341785,-5.845188284518828,1.5301204819277165,-11.357723577235781,-33.31147540983608,14.57325565884524,118.54146566916936,27.416216002432392,1084.2125969348579,55.37721656595644,1383.2460634312588,0
-4.016425594508453,-64.0536943552088,-14.569818483805912,86.71231847771658,-126.81522233336365,-123.14103482872298,121.12604828462509,-18.435483870967744,14.906103286384964,-5.478431372549018,-25.721518987341785,-5.845188284518828,1.5301204819277165,-11.357723577235781,-33.31147540983608,14.57325565884524,118.54146566916936,27.546646144507722,1027.4169521628085,55.11194377224376,1361.1012539588169,0
-4.016425594508453,-64.0536943552088,-14.569818483805912,86.71231847771658,-126.81522233336365,-123.14103482872298,121.12604828462509,-28.67741935483871,18.483568075117358,-3.48627450980392,-4.822784810126596,-6.90794979079498,-14.791164658634532,-16.520325203252042,-37.47540983606559,16.395612029829216,141.82101310501392,27.546646144507722,1027.4169521628085,55.11194377224376,1361.1012539588169,0
-4.016425594508453,-64.0536943552088,-14.569818483805912,86.71231847771658,-126.81522233336365,-123.14103482872298,121.12604828462509,20.48387096774193,26.830985915492946,6.4745098039215705,-3.2151898734177355,3.7196652719665266,-3.5702811244979866,-7.227642276422774,-31.229508196721323,12.843956678772848,132.30193213465358,27.546646144507722,1027.4169521628085,55.11194377224376,1361.1012539588169,0
-4.172101005148315,-64.28682882055989,-14.690354727725712,86.45793690535805,-126.86141675002274,-122.9590081697005,120.73875476493015,20.48387096774193,26.830985915492946,6.4745098039215705,-3.2151898734177355,3.7196652719665266,-3.5702811244979866,-7.227642276422774,-31.229508196721323,12.843956678772848,132.30193213465358,27.716428184477973,1030.7040673557838,55.14504015121455,1350.3256879620308,0
-4.172101005148315,-64.28682882055989,-14.690354727725712,86.45793690535805,-126.86141675002274,-122.9590081697005,120.73875476493015,-14.338709677419358,35.17840375586853,3.4862745098039234,-19.291139240506343,20.723849372384937,7.6506024096385605,7.227642276422754,-31.229508196721323,17.390766179845716,131.92021538952812,27.716428184477973,1030.7040673557838,55.14504015121455,1350.3256879620308,0
-4.172101005148315,-64.28682882055989,-14.690354727725712,86.45793690535805,-126.86141675002274,-122.9590081697005,120.73875476493015,-20.48387096774194,23.25352112676055,22.411764705882355,-6.430379746835457,11.158995815899582,6.63052208835342,-9.769962616701378e-15,-35.39344262295083,15.720312134303018,135.44418260347825,27.716428184477973,1030.7040673557838,55.14504015121455,1350.3256879620308,0
-3.7050747732287275,-61.9554841670491,-15.323170008304666,86.33074611917877,-126.8383195416932,-122.84979217428696,120.48055908513345,-20.48387096774194,23.25352112676055,22.411764705882355,-6.430379746835457,11.158995815899582,6.63052208835342,-9.769962616701378e-15,-35.39344262295083,15.720312134303018,135.44418260347825,26.994576316194166,950.4438425398015,54.53646676484417,1301.8003306960593,0
-3.7050747732287275,-61.9554841670491,-15.323170008304666,86.33074611917877,-126.8383195416932,-122.84979217428696,120.48055908513345,-20.48387096774194,30.408450704225338,20.419607843137257,4.822784810126568,9.03347280334728,-2.550200803212846,-3.097560975609766,-29.147540983606568,14.995436236375944,133.26554327244816,26.994576316194166,950.4438425398015,54.53646676484417,1301.8003306960593,0
-3.7050747732287275,-61.9554841670491,-15.323170008304666,86.33074611917877,-126.8383195416932,-122.84979217428696,120.48055908513345,-22.53225806451613,31.600938967136138,6.4745098039215705,16.075949367088594,19.661087866108787,-4.590361445783127,-22.715447154471555,-37.47540983606559,20.140745313136435,127.07258918376044,26.994576316194166,950.4438425398015,54.53646676484417,1301.8003306960593,0
-2.0860505025741554,-63.35429095915557,-15.473840313204416,86.13995993990987,-126.7921251250341,-123.03181883330944,120.73875476493015,-22.53225806451613,31.600938967136138,6.4745098039215705,16.075949367088594,19.661087866108787,-4.590361445783127,-22.715447154471555,-37.47540983606559,20.140745313136435,127.07258918376044,26.97139392497805,1037.5946264530764,54.98936373742328,1300.9041213426199,0
-2.0860505025741554,-63.35429095915557,-15.473840313204416,86.13995993990987,-126.7921251250341,-123.03181883330944,120.73875476493015,-16.38709677419355,30.408450704225338,-2.490196078431371,-9.645569620253179,19.661087866108787,8.670682730923701,-1.0325203252032615,-35.39344262295083,15.461130840286252,156.51105198113237,26.97139392497805,1037.5946264530764,54.98936373742328,1300.9041213426199,0
-2.0860505025741554,-63.35429095915557,-15.473840313204416,86.13995993990987,-126.7921251250341,-123.03181883330944,120.73875476493015,-26.62903225806452,6.5586854460093775,-11.454901960784312,-22.506329113924064,1.5941422594142258,-16.831325301204814,-3.097560975609766,-37.47540983606559,15.768423393884586,157.223137083237,26.97139392497805,1037.5946264530764,54.98936373742328,1300.9041213426199,0
-0.7472419710713358,-63.12115649380449,-15.172499703404915,86.04456685027543,-126.74593070837501,-123.35946681955,121.38424396442178,-26.62903225806452,6.5586854460093775,-11.454901960784312,-22.506329113924064,1.5941422594142258,-16.831325301204814,-3.097560975609766,-37.47540983606559,15.768423393884586,157.223137083237,26.346966056093578,1066.2778269228338,54.779407682494956,1307.9010553408689,0
-0.7472419710713358,-63.12115649380449,-15.172499703404915,86.04456685027543,-126.74593070837501,-123.35946681955,121.38424396442178,-16.38709677419355,38.75586854460092,-12.450980392156861,1.6075949367088465,41.97907949790795,-18.871485943775095,-42.33333333333334,-37.47540983606559,26.23260615734277,248.26601511421228,26.346966056093578,1066.2778269228338,54.779407682494956,1307.9010553408689,0
-0.7472419710713358,-63.12115649380449,-15.172499703404915,86.04456685027543,-126.74593070837501,-123.35946681955,121.38424396442178,-32.7741935483871,19.676056338028154,-11.454901960784312,-24.113924050632924,2.6569037656903767,8.670682730923701,16.52032520325202,-22.901639344262307,17.346078367745115,92.3636708588537,26.346966056093578,1066.2778269228338,54.779407682494956,1307.9010553408689,0
-1.9926452561902375,-59.857273978889395,-15.051963459485115,85.98097145718579,-126.60734745839775,-123.432277483159,121.38424396442178,-32.7741935483871,19.676056338028154,-11.454901960784312,-24.113924050632924,2.6569037656903767,8.670682730923701,16.52032520325202,-22.901639344262307,17.346078367745115,92.3636708588537,25.63396089818825,921.062816648495,53.630069631853424,1286.8145993692792,0
-1.9926452561902375,-59.857273978889395,-15.051963459485115,85.98097145718579,-126.60734745839775,-123.432277483159,121.38424396442178,-2.0483870967741975,31.600938967136138,3.4862745098039234,-3.2151898734177355,-4.782426778242678,-0.5100401606425646,13.422764227642265,-29.147540983606568,11.02669532465826,157.92631466808953,25.63396089818825,921.062816648495,53.630069631853424,1286.8145993692792,0
-1.9926452561902375,-59.857273978889395,-15.051963459485115,85.98097145718579,-126.60734745839775,-123.432277483159,121.38424396442178,-22.53225806451613,31.600938967136138,15.439215686274512,11.25316455696201,5.845188284518828,-11.730923694779111,-15.48780487804879,-39.55737704918034,19.180858897676984,129.21732599842423,25.63396089818825,921.062816648495,53.630069631853424,1286.8145993692792,0
-2.739887227261579,-57.87563102340523,-14.841025032625463,86.04456685027543,-126.51495862507957,-123.432277483159,121.25514612452343,-22.53225806451613,31.600938967136138,15.439215686274512,11.25316455696201,5.845188284518828,-11.730923694779111,-15.48780487804879,-39.55737704918034,19.180858897676984,129.21732599842423,25.152181094430755,839.7275154866762,52.92040763543537,1285.9017709629693,0
-2.739887227261579,-57.87563102340523,-14.841025032625463,86.04456685027543,-126.51495862507957,-123.432277483159,121.25514612452343,-16.38709677419355,19.676056338028154,5.4784313725490215,-1.4210854715202004e-14,6.907949790794978,-8.670682730923689,-10.32520325203253,-41.6393442622951,13.635595565102129,165.9438478299575,25.152181094430755,839.7275154866762,52.92040763543537,1285.9017709629693,0
-2.739887227261579,-57.87563102340523,-14.841025032625463,86.04456685027543,-126.51495862507957,-123.432277483159,121.25514612452343,-40.96774193548387,25.638497652582146,-5.478431372549018,1.6075949367088465,-26.037656903765694,-9.69076305220883,-4.130081300813018,-37.47540983606559,18.878272123772128,244.35816077561017,25.152181094430755,839.7275154866762,52.92040763543537,1285.9017709629693,0
-2.241725913214018,-58.34189995410738,-13.937003203226958,86.26715072608914,-126.51495862507957,-123.39587215135447,121.19059720457426,-40.96774193548387,25.638497652582146,-5.478431372549018,1.6075949367088465,-26.037656903765694,-9.69076305220883,-4.130081300813018,-37.47540983606559,18.878272123772128,244.35816077561017,24.840209690182785,875.9673156275284,52.848684627807835,1330.5441211355708,0
-2.241725913214018,-58.34189995410738,-13.937003203226958,86.26715072608914,-126.51495862507957,-123.39587215135447,121.19059720457426,-14.338709677419358,25.638497652582146,-2.490196078431371,-8.037974683544318,0.531380753138075,2.5502008032128574,-11.357723577235781,-35.39344262295083,12.542265731064342,151.9647697815128,24.840209690182785,875.9673156275284,52.848684627807835,1330.5441211355708,0
-2.241725913214018,-58.34189995410738,-13.937003203226958,86.26715072608914,-126.51495862507957,-123.39587215135447,121.19059720457426,2.0483870967741886,31.600938967136138,1.4941176470588253,9.64556962025315,19.661087866108787,-1.5301204819277052,1.032520325203242,-33.31147540983608,12.540527176787265,191.36945659164485,24.840209690182785,875.9673156275284,52.848684627807835,1330.5441211355708,0
-0.6849718068153907,-61.13951353832032,-13.484992288527707,86.5533299949925,-126.65354187505685,-123.46868281496347,121.64243964421848,2.0483870967741886,31.600938967136138,1.4941176470588253,9.64556962025315,19.661087866108787,-1.5301204819277052,1.032520325203242,-33.31147540983608,12.540527176787265,191.36945659164485,25.10315921122114,1014.9242559742436,53.72594527394684,1375.9662396043902,0
-0.6849718068153907,-61.13951353832032,-13.484992288527707,86.5533299949925,-126.65354187505685,-123.46868281496347,121.64243964421848,-24.580645161290327,13.713615023474166,1.4941176470588253,4.822784810126568,3.7196652719665266,-0.5100401606425646,11.357723577235761,-41.6393442622951,12.72974198926123,199.76018166740647,25.10315921122114,1014.9242559742436,53.72594527394684,1375.9662396043902,0
-0.6849718068153907,-61.13951353832032,-13.484992288527707,86.5533299949925,-126.65354187505685,-123.46868281496347,121.64243964421848,-18.435483870967744,31.600938967136138,3.4862745098039234,11.25316455696201,17.535564853556487,-12.751004016064252,-12.390243902439034,-31.229508196721323,17.335272859206363,96.00931645171993,25.10315921122114,1014.9242559742436,53.72594527394684,1375.9662396043902,0
0.12454032851189556,-61.13951353832032,-13.454858227547756,86.83950926389585,-126.72283350004547,-123.68711480579049,122.28792884371023,-18.435483870967744,31.600938967136138,3.4862745098039234,11.25316455696201,17.535564853556487,-12.751004016064252,-12.390243902439034,-31.229508196721323,17.335272859206363,96.00931645171993,24.906304031459992,1035.2517855749377,53.81129367658798,1386.6038566880625,0
0.12454032851189556,-61.13951353832032,-13.454858227547756,86.83950926389585,-126.72283350004547,-123.68711480579049,122.28792884371023,-14.338709677419358,26.830985915492946,-5.478431372549018,-8.037974683544318,9.03347280334728,-1.5301204819277052,3.0975609756097464,-29.147540983606568,12.186849611687117,110.72673557591088,24.906304031459992,1035.2517855749377,53.81129367658798,1386.6038566880625,0
0.12454032851189556,-61.13951353832032,-13.454858227547756,86.83950926389585,-126.72283350004547,-123.68711480579049,122.28792884371023,-16.38709677419355,20.868544600938954,3.4862745098039234,6.4303797468354285,-4.782426778242678,-4.590361445783127,-13.422764227642286,-47.88524590163935,14.731636748134914,219.78263093227386,24.906304031459992,1035.2517855749377,53.81129367658798,1386.6038566880625,0
-2.553076734493743,-60.44011014226709,-13.394590105587856,86.99849774661993,-126.8383195416932,-123.54149347857248,122.09428208386271,-16.38709677419355,20.868544600938954,3.4862745098039234,6.4303797468354285,-4.782426778242678,-4.590361445783127,-13.422764227642286,-47.88524590163935,14.731636748134914,219.78263093227386,25.46259232744956,946.9546674083113,53.611065998158296,1389.360687949035,0
-2.553076734493743,-60.44011014226709,-13.394590105587856,86.99849774661993,-126.8383195416932,-123.54149347857248,122.09428208386271,-10.241935483870972,24.446009389671346,-4.482352941176469,-1.6075949367088749,10.09623430962343,4.590361445783138,-3.097560975609766,-33.31147540983608,11.48419061153501,130.33457690063045,25.46259232744956,946.9546674083113,53.611065998158296,1389.360687949035,0
-2.553076734493743,-60.44011014226709,-13.394590105587856,86.99849774661993,-126.8383195416932,-123.54149347857248,122.09428208386271,-2.0483870967741975,45.910798122065714,22.411764705882355,3.215189873417707,6.907949790794978,-2.550200803212846,-5.1626016260162695,-24.983606557377062,14.148812321942643,246.8810203852043,25.46259232744956,946.9546674083113,53.611065998158296,1389.360687949035,0
-3.4248590340769747,-60.44011014226709,-13.967137264206908,86.99849774661993,-126.86141675002274,-123.39587215135447,121.77153748411683,-2.0483870967741975,45.910798122065714,22.411764705882355,3.215189873417707,6.907949790794978,-2.550200803212846,-5.1626016260162695,-24.983606557377062,14.148812321942643,246.8810203852043,25.944035480183658,920.2692828893937,53.80191505103131,1366.44412903002,0
-3.4248590340769747,-60.44011014226709,-13.967137264206908,86.99849774661993,-126.86141675002274,-123.39587215135447,121.77153748411683,-30.725806451612904,24.446009389671346,-0.49803921568627274,-1.4210854715202004e-14,-3.7196652719665266,-9.69076305220883,-6.195121951219521,-43.72131147540985,14.874589600971907,261.36895503618877,25.944035480183658,920.2692828893937,53.80191505103131,1366.44412903002,0
-3.4248590340769747,-60.44011014226709,-13.967137264206908,86.99849774661993,-126.86141675002274,-123.39587215135447,121.77153748411683,-18.435483870967744,11.32863849765257,-17.431372549019606,-8.037974683544318,-29.22594142259414,-0.5100401606425646,-4.130081300813018,-39.55737704918034,16.082113691801787,171.97875698851863,25.944035480183658,920.2692828893937,53.80191505103131,1366.44412903002,0
-2.8332924736454963,-61.60578246902248,-13.846601020287109,87.03029544316476,-126.95380558334092,-123.28665615594099,121.70698856416766,-18.435483870967744,11.32863849765257,-17.431372549019606,-8.037974683544318,-29.22594142259414,-0.5100401606425646,-4.130081300813018,-39.55737704918034,16.082113691801787,171.97875698851863,26.095225320985026,976.0729930089074,54.16089297749144,1380.5330670011151,0
-2.8332924736454963,-61.60578246902248,-13.846601020287109,87.03029544316476,-126.95380558334092,-123.28665615594099,121.70698856416766,-14.338709677419358,24.446009389671346,0.4980392156862763,4.822784810126568,7.970711297071129,0.5100401606425757,-18.585365853658544,-31.229508196721323,12.80014607512464,128.6362479988979,26.095225320985026,976.0729930089074,54.16089297749144,1380.5330670011151,0
-2.8332924736454963,-61.60578246902248,-13.846601020287109,87.03029544316476,-126.95380558334092,-123.28665615594099,121.70698856416766,-20.48387096774194,24.446009389671346,1.4941176470588253,-12.8607594936709,33.47698744769875,2.5502008032128574,3.0975609756097464,-22.901639344262307,15.163893258615833,143.79582549901605,26.095225320985026,976.0729930089074,54.16089297749144,1380.5330670011151,0
-1.4633488600147042,-60.20697567691601,-13.997271325186858,87.15748622934402,-126.95380558334092,-123.35946681955,121.90063532401518,-20.48387096774194,24.446009389671346,1.4941176470588253,-12.8607594936709,33.47698744769875,2.5502008032128574,3.0975609756097464,-22.901639344262307,15.163893258615833,143.79582549901605,25.222531954039187,957.2082800400882,53.787244410482295,1369.0139733555347,0
-1.4633488600147042,-60.20697567691601,-13.997271325186858,87.15748622934402,-126.95380558334092,-123.35946681955,121.90063532401518,16.387096774193544,32.79342723004693,7.4705882352941195,-4.822784810126596,0.531380753138075,-4.590361445783127,-10.32520325203253,-33.31147540983608,13.779039738806375,163.10532328286618,25.222531954039187,957.2082800400882,53.787244410482295,1369.0139733555347,0
-1.4633488600147042,-60.20697567691601,-13.997271325186858,87.15748622934402,-126.95380558334092,-123.35946681955,121.90063532401518,-18.435483870967744,26.830985915492946,-17.431372549019606,1.6075949367088465,23.912133891213387,0.5100401606425757,-6.195121951219521,-39.55737704918034,16.810013790555622,182.97276789518045,25.222531954039187,957.2082800400882,53.787244410482295,1369.0139733555347,0
-1.9926452561902375,-60.673244607618166,-14.38901411792621,87.09389083625439,-126.88451395835229,-123.432277483159,121.90063532401518,-18.435483870967744,26.830985915492946,-17.431372549019606,1.6075949367088465,23.912133891213387,0.5100401606425757,-6.195121951219521,-39.55737704918034,16.810013790555622,182.97276789518045,25.68496799391154,956.552115536992,54.05204985393292,1354.3799396314964,0
-1.9926452561902375,-60.673244607618166,-14.38901411792621,87.09389083625439,-126.88451395835229,-123.432277483159,121.90063532401518,-26.62903225806452,22.061032863849753,3.4862745098039234,6.4303797468354285,13.284518828451883,1.5301204819277165,4.130081300812998,-35.39344262295083,14.11811032658713,157.6147387951107,25.68496799391154,956.552115536992,54.05204985393292,1354.3799396314964,0
-1.9926452561902375,-60.673244607618166,-14.38901411792621,87.09389083625439,-126.88451395835229,-123.432277483159,121.90063532401518,-12.290322580645164,26.830985915492946,3.4862745098039234,1.6075949367088465,3.7196652719665266,-10.71084337349397,-13.422764227642286,-37.47540983606559,13.692982581477406,156.9778781939624,25.68496799391154,956.552115536992,54.05204985393292,1354.3799396314964,0
-2.8955626379014414,-62.77145479577788,-14.780756910665563,86.99849774661993,-126.88451395835229,-123.35946681955,121.70698856416766,-12.290322580645164,26.830985915492946,3.4862745098039234,1.6075949367088465,3.7196652719665266,-10.71084337349397,-13.422764227642286,-37.47540983606559,13.692982581477406,156.9778781939624,26.81592478144829,1004.9145646838527,54.85023648435446,1350.90979751519,0
-2.8955626379014414,-62.77145479577788,-14.780756910665563,86.99849774661993,-126.88451395835229,-123.35946681955,121.70698856416766,-30.725806451612904,10.136150234741772,-9.462745098039214,4.822784810126568,11.158995815899582,-4.590361445783127,-7.227642276422774,-35.39344262295083,14.189741094447097,142.76552894017183,26.81592478144829,1004.9145646838527,54.85023648435446,1350.90979751519,0
-2.8955626379014414,-62.77145479577788,-14.780756910665563,86.99849774661993,-126.88451395835229,-123.35946681955,121.70698856416766,-24.580645161290327,26.830985915492946,9.462745098039218,-8.037974683544318,-1.5941422594142267,-6.630522088353408,8.260162601626007,-27.065573770491817,14.057843947281533,106.36562491658272,26.81592478144829,1004.9145646838527,54.85023648435446,1350.90979751519,0
-1.8058347634224021,-61.72234970169802,-14.871159093605414,86.96670005007512,-126.88451395835229,-123.35946681955,121.70698856416766,-24.580645161290327,26.830985915492946,9.462745098039218,-8.037974683544318,-1.5941422594142267,-6.630522088353408,8.260162601626007,-27.065573770491817,14.057843947281533,106.36562491658272,26.133114519575276,992.6209205995506,54.52006961512618,1338.346385285572,0
-1.8058347634224021,-61.72234970169802,-14.871159093605414,86.96670005007512,-126.88451395835229,-123.35946681955,121.70698856416766,-26.62903225806452,12.521126760563368,-10.458823529411763,-45.012658227848114,3.7196652719665266,-7.650602409638549,-16.520325203252042,-37.47540983606559,19.99845543710131,221.65710284598404,26.133114519575276,992.6209205995506,54.52006961512618,1338.346385285572,0
-1.8058347634224021,-61.72234970169802,-14.871159093605414,86.96670005007512,-126.88451395835229,-123.35946681955,121.70698856416766,-24.580645161290327,30.408450704225338,2.4901960784313744,17.683544303797454,16.472803347280333,6.63052208835342,7.227642276422754,-37.47540983606559,17.871151724483326,152.1040747561817,26.133114519575276,992.6209205995506,54.52006961512618,1338.346385285572,0
-0.37362098553566536,-60.55667737494263,-15.021829398505165,86.96670005007512,-126.74593070837501,-123.65070947398596,122.22337992376106,-24.580645161290327,30.408450704225338,2.4901960784313744,17.683544303797454,16.472803347280333,6.63052208835342,7.227642276422754,-37.47540983606559,17.871151724483326,152.1040747561817,25.317375919661156,984.9987777196001,54.18173560784097,1324.4960151682358,0
-0.37362098553566536,-60.55667737494263,-15.021829398505165,86.96670005007512,-126.74593070837501,-123.65070947398596,122.22337992376106,-6.145161290322584,35.17840375586853,-6.474509803921567,-3.2151898734177355,-11.158995815899583,9.69076305220884,27.878048780487795,-27.065573770491817,15.850830767827306,149.38772806604206,25.317375919661156,984.9987777196001,54.18173560784097,1324.4960151682358,0
-0.37362098553566536,-60.55667737494263,-15.021829398505165,86.96670005007512,-126.74593070837501,-123.65070947398596,122.22337992376106,-20.48387096774194,16.09859154929576,-5.478431372549018,-14.46835443037976,7.970711297071129,-6.630522088353408,-7.227642276422774,-39.55737704918034,14.739437628874267,129.2304129470761,25.317375919661156,984.9987777196001,54.18173560784097,1324.4960151682358,0
-2.584211816621716,-62.5383203304268,-15.172499703404915,86.9349023535303,-126.72283350004547,-123.65070947398596,122.22337992376106,-20.48387096774194,16.09859154929576,-5.478431372549018,-14.46835443037976,7.970711297071129,-6.630522088353408,-7.227642276422774,-39.55737704918034,14.739437628874267,129.2304129470761,26.765010616817808,999.4135138794768,54.881907462454,1331.4261020333254,0
-2.584211816621716,-62.5383203304268,-15.172499703404915,86.9349023535303,-126.72283350004547,-123.65070947398596,122.22337992376106,-28.67741935483871,16.09859154929576,-9.462745098039214,-4.822784810126596,7.970711297071129,0.5100401606425757,-14.455284552845537,-41.6393442622951,15.454615135644328,184.31191693669743,26.765010616817808,999.4135138794768,54.881907462454,1331.4261020333254,0
-2.584211816621716,-62.5383203304268,-15.172499703404915,86.9349023535303,-126.72283350004547,-123.65070947398596,122.22337992376106,-12.290322580645164,43.525821596244114,13.447058823529414,-1.4210854715202004e-14,-29.22594142259414,-14.791164658634532,-19.617886178861795,-29.147540983606568,20.255717030514468,178.7706848456001,26.765010616817808,999.4135138794768,54.881907462454,1331.4261020333254,0
-3.8296151017406177,-64.0536943552088,-14.901293154585364,86.71231847771658,-126.74593070837501,-123.46868281496347,121.83608640406601,-12.290322580645164,43.525821596244114,13.447058823529414,-1.4210854715202004e-14,-29.22594142259414,-14.791164658634532,-19.617886178861795,-29.147540983606568,20.255717030514468,178.7706848456001,27.59486753717826,1027.5800534368182,55.22243532917025,1347.699191478589,0
-3.8296151017406177,-64.0536943552088,-14.901293154585364,86.71231847771658,-126.74593070837501,-123.46868281496347,121.83608640406601,-26.62903225806452,23.25352112676055,-2.490196078431371,-12.8607594936709,12.221757322175732,-0.5100401606425646,8.260162601626007,-33.31147540983608,14.942118056400965,137.54469316549574,27.59486753717826,1027.5800534368182,55.22243532917025,1347.699191478589,0
-3.8296151017406177,-64.0536943552088,-14.901293154585364,86.71231847771658,-126.74593070837501,-123.46868281496347,121.83608640406601,-10.241935483870972,14.906103286384964,-8.466666666666665,-3.2151898734177355,28.16317991631799,0.5100401606425757,-13.422764227642286,-33.31147540983608,14.029669378097408,131.1011289417548,27.59486753717826,1027.5800534368182,55.22243532917025,1347.699191478589,0
-2.3974013238538805,-65.33593391463974,-14.449282239886111,86.64872308462695,-126.88451395835229,-123.46868281496347,121.96518424396436,-10.241935483870972,14.906103286384964,-8.466666666666665,-3.2151898734177355,28.16317991631799,0.5100401606425757,-13.422764227642286,-33.31147540983608,14.029669378097408,131.1011289417548,27.39420582612658,1115.993006160557,55.47797974638427,1376.0742598608772,0
-2.3974013238538805,-65.33593391463974,-14.449282239886111,86.64872308462695,-126.88451395835229,-123.46868281496347,121.96518424396436,-14.338709677419358,19.676056338028154,8.466666666666669,17.683544303797454,7.970711297071129,-6.630522088353408,-3.097560975609766,-31.229508196721323,13.636659942958406,83.12044922462896,27.39420582612658,1115.993006160557,55.47797974638427,1376.0742598608772,0
-2.3974013238538805,-65.33593391463974,-14.449282239886111,86.64872308462695,-126.88451395835229,-123.46868281496347,121.96518424396436,-16.38709677419355,26.830985915492946,1.4941176470588253,-1.4210854715202004e-14,9.03347280334728,2.5502008032128574,8.260162601626007,-33.31147540983608,12.233438994345946,151.343818801612,27.39420582612658,1115.993006160557,55.47797974638427,1376.0742598608772,0
-1.9926452561902375,-64.51996328591096,-14.449282239886111,86.64872308462695,-127.0,-123.505088146768,122.15883100381188,-16.38709677419355,26.830985915492946,1.4941176470588253,-1.4210854715202004e-14,9.03347280334728,2.5502008032128574,8.260162601626007,-33.31147540983608,12.233438994345946,151.343818801612,26.98729692732911,1095.3177342243616,55.205989536808005,1368.252394822542,0
-1.9926452561902375,-64.51996328591096,-14.449282239886111,86.64872308462695,-127.0,-123.505088146768,122.15883100381188,-20.48387096774194,26.830985915492946,9.462745098039218,17.683544303797454,15.410041841004183,5.610441767068279,-28.910569105691067,-41.6393442622951,20.75394290764127,133.50504745975383,26.98729692732911,1095.3177342243616,55.205989536808005,1368.252394822542,0
-1.9926452561902375,-64.51996328591096,-14.449282239886111,86.64872308462695,-127.0,-123.505088146768,122.15883100381188,-10.241935483870972,33.98591549295773,3.4862745098039234,-9.645569620253179,5.845188284518828,-17.851405622489956,-5.1626016260162695,-33.31147540983608,14.941295756218366,152.619717845427,26.98729692732911,1095.3177342243616,55.205989536808005,1368.252394822542,0
-1.7746996812944298,-63.47085819183111,-14.41914817890616,86.64872308462695,-127.0,-123.505088146768,122.15883100381188,-10.241935483870972,33.98591549295773,3.4862745098039234,-9.645569620253179,5.845188284518828,-17.851405622489956,-5.1626016260162695,-33.31147540983608,14.941295756218366,152.619717845427,26.554902017343903,1062.061384659684,54.84624315178808,1360.0658612069851,0
-1.7746996812944298,-63.47085819183111,-14.41914817890616,86.64872308462695,-127.0,-123.505088146768,122.15883100381188,-26.62903225806452,39.94835680751172,15.439215686274512,8.03797468354429,6.907949790794978,-9.69076305220883,-4.130081300813018,-31.229508196721323,17.751610221991648,174.4240110657679,26.554902017343903,1062.061384659684,54.84624315178808,1360.0658612069851,0
-1.7746996812944298,-63.47085819183111,-14.41914817890616,86.64872308462695,-127.0,-123.505088146768,122.15883100381188,-20.48387096774194,12.521126760563368,-33.36862745098039,8.03797468354429,21.786610878661087,-2.550200803212846,-11.357723577235781,-37.47540983606559,18.44769311975066,149.49529051167588,26.554902017343903,1062.061384659684,54.84624315178808,1360.0658612069851,0
-2.0549154204461826,-62.88802202845341,-14.599952544785863,86.64872308462695,-127.0,-123.505088146768,122.22337992376106,-20.48387096774194,12.521126760563368,-33.36862745098039,8.03797468354429,21.786610878661087,-2.550200803212846,-11.357723577235781,-37.47540983606559,18.44769311975066,149.49529051167588,26.514296664561822,1031.6304117486234,54.712232552622076,1347.8889842405042,0
-2.0549154204461826,-62.88802202845341,-14.599952544785863,86.64872308462695,-127.0,-123.505088146768,122.22337992376106,-8.193548387096778,26.830985915492946,5.4784313725490215,-6.430379746835457,-1.5941422594142267,-9.69076305220883,-8.260162601626025,-37.47540983606559,12.994227896411108,153.81259600486536,26.514296664561822,1031.6304117486234,54.712232552622076,1347.8889842405042,0
-2.0549154204461826,-62.88802202845341,-14.599952544785863,86.64872308462695,-127.0,-123.505088146768,122.22337992376106,-38.91935483870968,20.868544600938954,0.4980392156862763,-4.822784810126596,38.79079497907949,6.63052208835342,2.0650406504064946,-33.31147540983608,18.238319574142125,282.17680132010037,26.514296664561822,1031.6304117486234,54.712232552622076,1347.8889842405042,0
-2.0237803383182102,-61.256080770995865,-14.479416300866061,86.64872308462695,-127.0,-123.505088146768,122.22337992376106,-38.91935483870968,20.868544600938954,0.4980392156862763,-4.822784810126596,38.79079497907949,6.63052208835342,2.0650406504064946,-33.31147540983608,18.238319574142125,282.17680132010037,25.91975913672671,975.2774367882673,54.12807338549629,1340.208577377951,0
-2.0237803383182102,-61.256080770995865,-14.479416300866061,86.64872308462695,-127.0,-123.505088146768,122.22337992376106,-14.338709677419358,50.680751173708906,16.43529411764706,-14.46835443037976,2.6569037656903767,0.5100401606425757,-2.0650406504065137,-33.31147540983608,16.808321173216328,302.0957267941406,25.91975913672671,975.2774367882673,54.12807338549629,1340.208577377951,0
-2.0237803383182102,-61.256080770995865,-14.479416300866061,86.64872308462695,-127.0,-123.505088146768,122.22337992376106,-22.53225806451613,23.25352112676055,-4.482352941176469,-1.6075949367088749,-17.535564853556487,-9.69076305220883,-18.585365853658544,-37.47540983606559,16.895353833081433,134.1014268644372,25.91975913672671,975.2774367882673,54.12807338549629,1340.208577377951,0
-0.6849718068153907,-62.18861863240018,-14.509550361846012,86.71231847771658,-127.0,-123.68711480579049,122.61067344345611,-22.53225806451613,23.25352112676055,-4.482352941176469,-1.6075949367088749,-17.535564853556487,-9.69076305220883,-18.585365853658544,-37.47540983606559,16.895353833081433,134.1014268644372,25.79438026702053,1041.1851827031073,54.47016249065425,1347.9908548075855,0
-0.6849718068153907,-62.18861863240018,-14.509550361846012,86.71231847771658,-127.0,-123.68711480579049,122.61067344345611,-12.290322580645164,30.408450704225338,-2.490196078431371,4.822784810126568,17.535564853556487,-6.630522088353408,12.390243902439014,-27.065573770491817,14.204207348533647,104.09049534080476,25.79438026702053,1041.1851827031073,54.47016249065425,1347.9908548075855,0
-0.6849718068153907,-62.18861863240018,-14.509550361846012,86.71231847771658,-127.0,-123.68711480579049,122.61067344345611,-14.338709677419358,25.638497652582146,3.4862745098039234,17.683544303797454,15.410041841004183,2.5502008032128574,-5.1626016260162695,-35.39344262295083,14.957914129598379,131.60008503723012,25.79438026702053,1041.1851827031073,54.47016249065425,1347.9908548075855,0
-1.961510174062265,-62.77145479577788,-14.871159093605414,86.71231847771658,-127.0,-123.68711480579049,122.61067344345611,-14.338709677419358,25.638497652582146,3.4862745098039234,17.683544303797454,15.410041841004183,2.5502008032128574,-5.1626016260162695,-35.39344262295083,14.957914129598379,131.60008503723012,26.534708021148518,1026.4911214129238,54.78497745569996,1338.1259106409993,0
-1.961510174062265,-62.77145479577788,-14.871159093605414,86.71231847771658,-127.0,-123.68711480579049,122.61067344345611,-32.7741935483871,26.830985915492946,0.4980392156862763,3.215189873417707,-14.347280334728033,-16.831325301204814,4.130081300812998,-35.39344262295083,16.752567264085087,188.33404201130497,26.534708021148518,1026.4911214129238,54.78497745569996,1338.1259106409993,0
-1.961510174062265,-62.77145479577788,-14.871159093605414,86.71231847771658,-127.0,-123.68711480579049,122.61067344345611,-24.580645161290327,-0.5962441314554106,-29.384313725490195,-16.075949367088622,15.410041841004183,4.590361445783138,-17.552845528455293,-43.72131147540985,18.988964084497127,188.56969711175205,26.534708021148518,1026.4911214129238,54.78497745569996,1338.1259106409993,0
-2.0549154204461826,-63.12115649380449,-15.082097520465064,86.71231847771658,-127.0,-123.68711480579049,122.54612452350693,-24.580645161290327,-0.5962441314554106,-29.384313725490195,-16.075949367088622,15.410041841004183,4.590361445783138,-17.552845528455293,-43.72131147540985,18.988964084497127,188.56969711175205,26.752723144905246,1034.424076556758,54.971857497328706,1332.5304441966396,0
-2.0549154204461826,-63.12115649380449,-15.082097520465064,86.71231847771658,-127.0,-123.68711480579049,122.54612452350693,-14.338709677419358,14.906103286384964,-0.49803921568627274,30.544303797468338,55.79497907949791,17.851405622489967,-8.260162601626025,-35.39344262295083,22.198393237940458,310.2174556071229,26.752723144905246,1034.424076556758,54.971857497328706,1332.5304441966396,0
-2.0549154204461826,-63.12115649380449,-15.082097520465064,86.71231847771658,-127.0,-123.68711480579049,122.54612452350693,-26.62903225806452,22.061032863849753,6.4745098039215705,-12.8607594936709,-22.84937238493724,-18.871485943775095,-13.422764227642286,-45.8032786885246,21.121529458048247,141.4998038627975,26.752723144905246,1034.424076556758,54.971857497328706,1332.5304441966396,0
-0.2802157391517477,-63.47085819183111,-14.871159093605414,86.68052078117177,-126.95380558334092,-123.86914146481297,122.93341804320198,-26.62903225806452,22.061032863849753,6.4745098039215705,-12.8607594936709,-22.84937238493724,-18.871485943775095,-13.422764227642286,-45.8032786885246,21.121529458048247,141.4998038627975,26.20741100819609,1094.6472789988866,55.00751268886942,1342.8672693208068,0
-0.2802157391517477,-63.47085819183111,-14.871159093605414,86.68052078117177,-126.95380558334092,-123.86914146481297,122.93341804320198,-14.338709677419358,23.25352112676055,7.4705882352941195,14.468354430379732,24.97489539748954,0.5100401606425757,-7.227642276422774,-29.147540983606568,15.173911536001903,99.33008249130009,26.20741100819609,1094.6472789988866,55.00751268886942,1342.8672693208068,0
-0.2802157391517477,-63.47085819183111,-14.871159093605414,86.68052078117177,-126.95380558334092,-123.86914146481297,122.93341804320198,-24.580645161290327,23.25352112676055,20.419607843137257,11.25316455696201,13.284518828451883,-0.5100401606425646,-18.585365853658544,-39.55737704918034,18.930530072510436,129.79274173372647,26.20741100819609,1094.6472789988866,55.00751268886942,1342.8672693208068,0
-0.591566560431473,-61.72234970169802,-14.690354727725712,86.64872308462695,-126.86141675002274,-124.05116812383551,123.25616264294786,-24.580645161290327,23.25352112676055,20.419607843137257,11.25316455696201,13.284518828451883,-0.5100401606425646,-18.585365853658544,-39.55737704918034,18.930530072510436,129.79274173372647,25.668090329951735,1024.626171080425,54.353809171350235,1335.223236307405,0
-0.591566560431473,-61.72234970169802,-14.690354727725712,86.64872308462695,-126.86141675002274,-124.05116812383551,123.25616264294786,-38.91935483870968,29.215962441314538,-8.466666666666665,-20.898734177215204,12.221757322175732,-15.811244979919673,-3.097560975609766,-41.6393442622951,21.283828207988297,199.35944657707387,25.668090329951735,1024.626171080425,54.353809171350235,1335.223236307405,0
-0.591566560431473,-61.72234970169802,-14.690354727725712,86.64872308462695,-126.86141675002274,-124.05116812383551,123.25616264294786,8.193548387096769,92.41784037558683,85.16470588235295,-40.18987341772153,60.046025104602506,-0.5100401606425646,19.617886178861777,-10.409836065573785,39.56871944655484,1292.855350852127,25.668090329951735,1024.626171080425,54.353809171350235,1335.223236307405,0
-2.2728609953419903,-60.44011014226709,-15.232767825364816,86.58512769153731,-126.8383195416932,-124.05116812383551,123.19161372299868,8.193548387096769,92.41784037558683,85.16470588235295,-40.18987341772153,60.046025104602506,-0.5100401606425646,19.617886178861777,-10.409836065573785,39.56871944655484,1292.855350852127,25.981912987657964,932.5153096201524,54.08600188638974,1303.0708334135022,0
-2.2728609953419903,-60.44011014226709,-15.232767825364816,86.58512769153731,-126.8383195416932,-124.05116812383551,123.19161372299868,-38.91935483870968,0.5962441314553857,28.38823529411765,32.1518987341772,-15.410041841004183,-31.11244979919678,-3.097560975609766,-37.47540983606559,23.39389943129203,227.99529815273698,25.981912987657964,932.5153096201524,54.08600188638974,1303.0708334135022,0
-2.2728609953419903,-60.44011014226709,-15.232767825364816,86.58512769153731,-126.8383195416932,-124.05116812383551,123.19161372299868,-26.62903225806452,8.943661971830974,-58.27058823529411,-57.873417721519,28.16317991631799,-3.5702811244979866,-12.390243902439034,-39.55737704918034,29.424722772392993,447.3699617066242,25.981912987657964,932.5153096201524,54.08600188638974,1303.0708334135022,0
-1.7435645991664572,-54.37861404313905,-16.498398386522723,86.58512769153731,-126.49186141675003,-124.41522144188048,123.57890724269373,-26.62903225806452,8.943661971830974,-58.27058823529411,-57.873417721519,28.16317991631799,-3.5702811244979866,-12.390243902439034,-39.55737704918034,29.424722772392993,447.3699617066242,24.206859009609406,737.1773813756184,52.4873800403997,1230.7199807084357,0
-1.7435645991664572,-54.37861404313905,-16.498398386522723,86.58512769153731,-126.49186141675003,-124.41522144188048,123.57890724269373,2.0483870967741886,41.14084507042252,68.23137254901961,6.4303797468354285,38.79079497907949,14.791164658634543,-11.357723577235781,-31.229508196721323,26.752521984340362,499.4057057673205,24.206859009609406,737.1773813756184,52.4873800403997,1230.7199807084357,0
-1.7435645991664572,-54.37861404313905,-16.498398386522723,86.58512769153731,-126.49186141675003,-124.41522144188048,123.57890724269373,-4.0967741935483915,60.22065727699529,-58.27058823529411,-33.75949367088609,-102.55648535564853,1.5301204819277165,77.43902439024389,-2.081967213114769,42.49438885220735,1464.8003370955787,24.206859009609406,737.1773813756184,52.4873800403997,1230.7199807084357,0
1.027457710223099,-37.70949977053694,-18.517380472179383,87.2846770155233,-125.52177866690916,-124.74286942812097,123.06251588310033,-4.0967741935483915,60.22065727699529,-58.27058823529411,-33.75949367088609,-102.55648535564853,1.5301204819277165,77.43902439024389,-2.081967213114769,42.49438885220735,1464.8003370955787,19.084779317646472,375.1483362674829,47.83718575274654,1259.1627859857338,0
1.027457710223099,-37.70949977053694,-18.517380472179383,87.2846770155233,-125.52177866690916,-124.74286942812097,123.06251588310033,126.99999999999999,126.99999999999997,41.33725490196079,54.65822784810125,-105.74476987447699,-72.93574297188755,-72.27642276422765,-1.4210854715202004e-14,75.11905229508177,1933.8249455564971,19.084779317646472,375.1483362674829,47.83718575274654,1259.1627859857338,0
1.027457710223099,-37.70949977053694,-18.517380472179383,87.2846770155233,-125.52177866690916,-124.74286942812097,123.06251588310033,-55.30645161290323,-13.71361502347419,-61.258823529411764,40.1898734177215,-0.531380753138075,-33.15261044176707,38.20325203252031,-62.45901639344263,38.10187790054734,494.3866507831112,19.084779317646472,375.1483362674829,47.83718575274654,1259.1627859857338,0
-5.230693797499383,-22.322625057365755,-23.79084114367066,88.07961942914372,-123.97426570882969,-124.41522144188048,120.28691232528593,-55.30645161290323,-13.71361502347419,-61.258823529411764,40.1898734177215,-0.531380753138075,-33.15261044176707,38.20325203252031,-62.45901639344263,38.10187790054734,494.3866507831112,17.114719999511934,106.46147369661175,44.73102854339337,1409.864163454139,0
-5.230693797499383,-22.322625057365755,-23.79084114367066,88.07961942914372,-123.97426570882969,-124.41522144188048,120.28691232528593,-34.822580645161295,-98.38028169014085,-127.0,-72.34177215189874,-13.284518828451883,40.29317269076306,-54.72357723577237,-66.62295081967214,63.43360675773254,1328.0499861901978,17.114719999511934,106.46147369661175,44.73102854339337,1409.864163454139,0
-5.230693797499383,-22.322625057365755,-23.79084114367066,88.07961942914372,-123.97426570882969,-124.41522144188048,120.28691232528593,-57.35483870967742,-35.17840375586855,-29.384313725490195,33.75949367088606,30.288702928870293,44.37349397590362,26.84552845528454,-58.29508196721312,39.434982148649226,156.3868365846972,17.114719999511934,106.46147369661175,44.73102854339337,1409.864163454139,0
-8.53101250306447,-31.648003671408897,-33.46387471823467,87.31647471206811,-121.54905883422752,-123.94195212842197,115.89758576874203,-57.35483870967742,-35.17840375586855,-29.384313725490195,33.75949367088606,30.288702928870293,44.37349397590362,26.84552845528454,-58.29508196721312,39.434982148649226,156.3868365846972,24.547630297569345,193.22338109611272,50.80945103390389,1000.3964302932073,0
-8.53101250306447,-31.648003671408897,-33.46387471823467,87.31647471206811,-121.54905883422752,-123.94195212842197,115.89758576874203,-36.87096774193549,35.17840375586853,12.450980392156865,65.91139240506327,5.845188284518828,4.590361445783138,3.0975609756097464,-29.147540983606568,24.136549498067804,478.59348783278494,24.547630297569345,193.22338109611272,50.80945103390389,1000.3964302932073,0
-8.53101250306447,-31.648003671408897,-33.46387471823467,87.31647471206811,-121.54905883422752,-123.94195212842197,115.89758576874203,-40.96774193548387,-1.7887323943662068,5.4784313725490215,-28.936708860759506,30.288702928870293,-5.610441767068267,-27.878048780487813,-52.04918032786887,24.12474854593173,332.57988459670776,24.547630297569345,193.22338109611272,50.80945103390389,1000.3964302932073,0
-14.5089482716352,-50.415328132170714,-43.10677423181872,84.07310966449676,-118.45403291806856,-123.72352013759496,110.92731893265568,-40.96774193548387,-1.7887323943662068,5.4784313725490215,-28.936708860759506,30.288702928870293,-5.610441767068267,-27.878048780487813,-52.04918032786887,24.12474854593173,332.57988459670776,36.01035021187488,360.08645407539456,59.1984040094954,477.416976095805,0
-14.5089482716352,-50.415328132170714,-43.10677423181872,84.07310966449676,-118.45403291806856,-123.72352013759496,110.92731893265568,22.532258064516128,104.34272300469482,121.02352941176471,-32.15189873417723,49.41841004184101,22.95180722891567,4.130081300812998,-20.819672131147556,47.17129748973376,1813.425190204347,36.01035021187488,360.08645407539456,59.1984040094954,477.416976095805,0
-14.5089482716352,-50.415328132170714,-43.10677423181872,84.07310966449676,-118.45403291806856,-123.72352013759496,110.92731893265568,75.79032258064515,85.26291079812205,27.3921568627451,91.63291139240505,69.61087866108787,4.590361445783138,-33.04065040650407,-10.409836065573785,49.71625352660828,1207.715122440144,36.01035021187488,360.08645407539456,59.1984040094954,477.416976095805,0
-8.99803873498406,-78.15832950894905,-57.6313916241547,77.23660490736106,-113.5343275438756,-124.306005446467,105.24701397712829,75.79032258064515,85.26291079812205,27.3921568627451,91.63291139240505,69.61087866108787,4.590361445783138,-33.04065040650407,-10.409836065573785,49.71625352660828,1207.715122440144,48.26258662269594,1261.617335351366,71.0087753468216,134.42819050789817,0
-8.99803873498406,-78.15832950894905,-57.6313916241547,77.23660490736106,-113.5343275438756,-124.306005446467,105.24701397712829,-38.91935483870968,18.483568075117358,2.4901960784313744,53.05063291139239,1.5941422594142258,-39.27309236947791,3.0975609756097464,-37.47540983606559,24.297994668027286,416.101019962982,48.26258662269594,1261.617335351366,71.0087753468216,134.42819050789817,0
-8.99803873498406,-78.15832950894905,-57.6313916241547,77.23660490736106,-113.5343275438756,-124.306005446467,105.24701397712829,-22.53225806451613,26.830985915492946,72.2156862745098,12.860759493670871,45.1673640167364,5.610441767068279,-13.422764227642286,-37.47540983606559,29.514458699462786,470.77536141306257,48.26258662269594,1261.617335351366,71.0087753468216,134.42819050789817,0
-17.996077469968125,-81.5387792565397,-65.3758452960019,69.54156234351528,-108.40674729471675,-124.63365343270749,99.50216010165184,-22.53225806451613,26.830985915492946,72.2156862745098,12.860759493670871,45.1673640167364,5.610441767068279,-13.422764227642286,-37.47540983606559,29.514458699462786,470.77536141306257,54.970234007503244,1090.6262972997897,72.15206229868562,70.4211410651348,0
-17.996077469968125,-81.5387792565397,-65.3758452960019,69.54156234351528,-108.40674729471675,-124.63365343270749,99.50216010165184,-127.0,-7.751173708920199,-46.317647058823525,-24.113924050632924,50.48117154811715,41.3132530120482,35.10569105691056,-39.55737704918034,46.45502968557911,1243.3796243213158,54.970234007503244,1090.6262972997897,72.15206229868562,70.4211410651348,0
-17.996077469968125,-81.5387792565397,-65.3758452960019,69.54156234351528,-108.40674729471675,-124.63365343270749,99.50216010165184,-49.16129032258065,6.5586854460093775,-37.35294117647059,-30.544303797468366,-50.48117154811715,-5.610441767068267,3.0975609756097464,-8.32786885245903,23.891782985722898,411.46874248344557,54.970234007503244,1090.6262972997897,72.15206229868562,70.4211410651348,0
-31.2907575386124,-71.04772831574115,-65.7374540277613,61.337756634952434,-102.86341729562609,-122.99541350150497,89.69072426937737,-49.16129032258065,6.5586854460093775,-37.35294117647059,-30.544303797468366,-50.48117154811715,-5.610441767068267,3.0975609756097464,-8.32786885245903,23.891782985722898,411.46874248344557,56.025313294038284,465.89843956709876,66.04097965948496,23.63998336726466,0
-31.2907575386124,-71.04772831574115,-65.7374540277613,61.337756634952434,-102.86341729562609,-122.99541350150497,89.69072426937737,-47.112903225806456,30.408450704225338,-3.48627450980392,-16.075949367088622,33.47698744769875,-12.751004016064252,5.162601626016251,-52.04918032786887,25.06541890307156,343.9649149511115,56.025313294038284,465.89843956709876,66.04097965948496,23.63998336726466,0
-31.2907575386124,-71.04772831574115,-65.7374540277613,61.337756634952434,-102.86341729562609,-122.99541350150497,89.69072426937737,-3.552713678800501e-15,30.408450704225338,20.419607843137257,3.215189873417707,-14.347280334728033,-23.971887550200798,-40.268292682926834,-33.31147540983608,20.742773049809006,203.07946707922835,56.025313294038284,465.89843956709876,66.04097965948496,23.63998336726466,0
-45.64403039960774,-52.163836622303805,-68.84126230869617,52.847771657486234,-96.53478221333091,-119.2820696574459,75.74815756035571,-3.552713678800501e-15,30.408450704225338,20.419607843137257,3.215189873417707,-14.347280334728033,-23.971887550200798,-40.268292682926834,-33.31147540983608,20.742773049809006,203.07946707922835,55.549709776869236,143.12599482511277,57.95095686282874,89.06600631130495,0
-45.64403039960774,-52.163836622303805,-68.84126230869617,52.847771657486234,-96.53478221333091,-119.2820696574459,75.74815756035571,-45.064516129032256,4.1737089201877815,-27.392156862745097,-49.83544303797469,14.347280334728033,-2.550200803212846,3.0975609756097464,-37.47540983606559,22.992034612444503,382.773151291233,55.549709776869236,143.12599482511277,57.95095686282874,89.06600631130495,0
-45.64403039960774,-52.163836622303805,-68.84126230869617,52.847771657486234,-96.53478221333091,-119.2820696574459,75.74815756035571,-57.35483870967742,10.136150234741772,-8.466666666666665,-19.291139240506343,0.531380753138075,-20.911646586345377,-67.11382113821139,-64.54098360655739,31.043328366980557,747.718364994962,55.549709776869236,143.12599482511277,57.95095686282874,89.06600631130495,0
-59.032115714635935,-35.84442404772831,-75.6515600901649,43.531046569854794,-89.00509229789944,-113.71205389135736,58.449047013977065,-57.35483870967742,10.136150234741772,-8.466666666666665,-19.291139240506343,0.531380753138075,-20.911646586345377,-67.11382113821139,-64.54098360655739,31.043328366980557,747.718364994962,56.84269995084305,399.7471760153222,51.675676902582666,445.90327241785695,0
-59.032115714635935,-35.84442404772831,-75.6515600901649,43.531046569854794,-89.00509229789944,-113.71205389135736,58.449047013977065,4.096774193548384,16.09859154929576,59.266666666666666,-12.8607594936709,39.85355648535565,40.29317269076306,36.13821138211381,-2.081967213114769,26.336212459316123,418.18100956740193,56.84269995084305,399.7471760153222,51.675676902582666,445.90327241785695,0
-59.032115714635935,-35.84442404772831,-75.6515600901649,43.531046569854794,-89.00509229789944,-113.71205389135736,58.449047013977065,30.725806451612897,111.4976525821596,107.07843137254902,53.05063291139239,20.723849372384937,2.5502008032128574,7.227642276422754,-6.245901639344275,42.38751467613484,1972.797454956124,56.84269995084305,399.7471760153222,51.675676902582666,445.90327241785695,0
-67.90561412110812,-22.672326755392376,-84.39043777435046,33.35578367551328,-80.20505592434301,-106.90425684391573,39.600762388818225,30.725806451612897,111.4976525821596,107.07843137254902,53.05063291139239,20.723849372384937,2.5502008032128574,7.227642276422754,-6.245901639344275,42.38751467613484,1972.797454956124,58.322792883616984,1021.154154089392,46.80618273508537,1087.9662330834121,0
-67.90561412110812,-22.672326755392376,-84.39043777435046,33.35578367551328,-80.20505592434301,-106.90425684391573,39.600762388818225,-26.62903225806452,-1.7887323943662068,-36.35686274509804,22.506329113924036,34.53974895397489,-27.032128514056218,-34.07317073170732,-56.21311475409837,29.8923899331612,233.8352711391673,58.322792883616984,1021.154154089392,46.80618273508537,1087.9662330834121,0
-67.90561412110812,-22.672326755392376,-84.39043777435046,33.35578367551328,-80.20505592434301,-106.90425684391573,39.600762388818225,-34.822580645161295,-4.173708920187806,-66.2392156862745,-32.15189873417723,10.09623430962343,-5.610441767068267,49.560975609756085,-41.6393442622951,30.536799991817965,502.1396177148138,58.322792883616984,1021.154154089392,46.80618273508537,1087.9662330834121,0
-92.06643785241481,-10.316200091785213,-91.5020761656187,22.1311967951928,-70.25015913430937,-96.60154794324211,16.104955527318907,-34.822580645161295,-4.173708920187806,-66.2392156862745,-32.15189873417723,10.09623430962343,-5.610441767068267,49.560975609756085,-41.6393442622951,30.536799991817965,502.1396177148138,64.62823803660625,2212.4277253181403,41.316491017532236,1923.8432542672606,0
-92.06643785241481,-10.316200091785213,-91.5020761656187,22.1311967951928,-70.25015913430937,-96.60154794324211,16.104955527318907,30.725806451612897,7.751173708920177,-30.380392156862744,-9.645569620253179,4.7824267782426775,-29.0722891566265,-1.0325203252032615,-37.47540983606559,18.858198504223378,206.94999336757175,64.62823803660625,2212.4277253181403,41.316491017532236,1923.8432542672606,0
-92.06643785241481,-10.316200091785213,-91.5020761656187,22.1311967951928,-70.25015913430937,-96.60154794324211,16.104955527318907,2.0483870967741886,25.638497652582146,-10.458823529411763,11.25316455696201,29.225941422594143,-10.71084337349397,-43.365853658536594,-45.8032786885246,22.313098747359923,265.9956525757629,64.62823803660625,2212.4277253181403,41.316491017532236,1923.8432542672606,0
-115.51115469477813,-7.635153740247816,-100.18068572784435,9.730095142714077,-59.30208238610531,-82.6219005303139,-11.005590851334205,2.0483870967741886,25.638497652582146,-10.458823529411763,11.25316455696201,29.225941422594143,-10.71084337349397,-43.365853658536594,-45.8032786885246,22.313098747359923,265.9956525757629,74.44233138762343,3406.155058592533,39.18197820360208,2791.7289345909794,0
-115.51115469477813,-7.635153740247816,-100.18068572784435,9.730095142714077,-59.30208238610531,-82.6219005303139,-11.005590851334205,-12.290322580645164,19.676056338028154,-37.35294117647059,4.822784810126568,-31.351464435146447,-4.590361445783127,1.032520325203242,-33.31147540983608,18.053490815154923,209.1398111059179,74.44233138762343,3406.155058592533,39.18197820360208,2791.7289345909794,0
-115.51115469477813,-7.635153740247816,-100.18068572784435,9.730095142714077,-59.30208238610531,-82.6219005303139,-11.005590851334205,-16.38709677419355,6.5586854460093775,10.458823529411767,-14.46835443037976,-5.845188284518828,5.610441767068279,3.0975609756097464,-24.983606557377062,10.926219720571048,53.519158495136665,74.44233138762343,3406.155058592533,39.18197820360208,2791.7289345909794,0
-127.0,3.2055988985773354,-110.9084114367066,-3.5931397095643405,-46.945075929799046,-66.3123118818977,-38.11613722998732,-16.38709677419355,6.5586854460093775,10.458823529411767,-14.46835443037976,-5.845188284518828,5.610441767068279,3.0975609756097464,-24.983606557377062,10.926219720571048,53.519158495136665,80.37133677842797,5039.074093638134,39.23571668161609,3852.7689270623287,0
-127.0,3.2055988985773354,-110.9084114367066,-3.5931397095643405,-46.945075929799046,-66.3123118818977,-38.11613722998732,-51.20967741935484,-10.136150234741791,-98.11372549019607,-46.62025316455697,3.7196652719665266,-3.5702811244979866,-11.357723577235781,-43.72131147540985,33.55609846974498,1083.423365801275,80.37133677842797,5039.074093638134,39.23571668161609,3852.7689270623287,0
-127.0,3.2055988985773354,-110.9084114367066,-3.5931397095643405,-46.945075929799046,-66.3123118818977,-38.11613722998732,-24.580645161290327,36.37089201877933,29.3843137254902,19.291139240506315,20.723849372384937,-15.811244979919673,-6.195121951219521,-37.47540983606559,23.729077035706986,111.47747890933866,80.37133677842797,5039.074093638134,39.23571668161609,3852.7689270623287,0
-122.11179210590831,15.32859109683342,-114.46423063234073,-16.59839759639459,-34.07993089024281,-50.07553389709045,-61.031003811944174,-24.580645161290327,36.37089201877933,29.3843137254902,19.291139240506315,20.723849372384937,-15.811244979919673,-6.195121951219521,-37.47540983606559,23.729077035706986,111.47747890933866,83.96820461169415,5965.753450638278,48.79707310852291,3234.534785080009,0
-122.11179210590831,15.32859109683342,-114.46423063234073,-16.59839759639459,-34.07993089024281,-50.07553389709045,-61.031003811944174,-34.822580645161295,-14.90610328638499,-29.384313725490195,-46.62025316455697,-84.48953974895397,-42.33333333333333,2.0650406504064946,-45.8032786885246,37.55305540535148,603.2331919438626,83.96820461169415,5965.753450638278,48.79707310852291,3234.534785080009,0
-122.11179210590831,15.32859109683342,-114.46423063234073,-16.59839759639459,-34.07993089024281,-50.07553389709045,-61.031003811944174,-28.67741935483871,-10.136150234741791,-46.317647058823525,-41.79746835443039,20.723849372384937,1.5301204819277165,16.52032520325202,-37.47540983606559,25.397298737058087,252.35044798938705,83.96820461169415,5965.753450638278,48.79707310852291,3234.534785080009,0
-119.52758028928659,26.285910968334107,-119.46648475501246,-29.571857786680013,-20.498772392470684,-33.51110792604277,-80.3956797966963,-28.67741935483871,-10.136150234741791,-46.317647058823525,-41.79746835443039,20.723849372384937,1.5301204819277165,16.52032520325202,-37.47540983606559,25.397298737058087,252.35044798938705,88.42665867087771,7084.223137415925,58.44141783667553,2795.7434559138746,0
-119.52758028928659,26.285910968334107,-119.46648475501246,-29.571857786680013,-20.498772392470684,-33.51110792604277,-80.3956797966963,-6.145161290322584,43.525821596244114,9.462745098039218,36.97468354430378,50.48117154811715,6.63052208835342,-8.260162601626025,-33.31147540983608,24.348967897105297,345.16431484141424,88.42665867087771,7084.223137415925,58.44141783667553,2795.7434559138746,0
-119.52758028928659,26.285910968334107,-119.46648475501246,-29.571857786680013,-20.498772392470684,-33.51110792604277,-80.3956797966963,-8.193548387096778,35.17840375586853,15.439215686274512,14.468354430379732,-45.1673640167364,-51.51405622489959,-116.67479674796749,-54.13114754098362,42.59586084877583,1210.5823123675084,88.42665867087771,7084.223137415925,58.44141783667553,2795.7434559138746,0
-118.62466290757538,27.451583295089506,-123.59485110926563,-42.60891337005508,-6.686641811403119,-16.182169987100508,-96.66200762388826,-8.193548387096778,35.17840375586853,15.439215686274512,14.468354430379732,-45.1673640167364,-51.51405622489959,-116.67479674796749,-54.13114754098362,42.59586084877583,1210.5823123675084,89.8903657706435,7362.9996369484925,64.55178259147007,2671.99911874819,0
-118.62466290757538,27.451583295089506,-123.59485110926563,-42.60891337005508,-6.686641811403119,-16.182169987100508,-96.66200762388826,-18.435483870967744,38.75586854460092,1.4941176470588253,-30.544303797468366,-48.35564853556485,2.5502008032128574,39.23577235772357,-14.573770491803291,24.243145756050055,310.2633219017621,89.8903657706435,7362.9996369484925,64.55178259147007,2671.99911874819,0
-118.62466290757538,27.451583295089506,-123.59485110926563,-42.60891337005508,-6.686641811403119,-16.182169987100508,-96.66200762388826,-2.0483870967741975,36.37089201877933,24.403921568627453,-4.822784810126596,-45.1673640167364,7.6506024096385605,-5.1626016260162695,-20.819672131147556,18.305778209730796,260.5385547042537,89.8903657706435,7362.9996369484925,64.55178259147007,2671.99911874819,0
-111.55699926452561,49.482790270766415,-124.37833669474433,-54.75563345017525,7.5181413112666995,0.600687974774246,-108.73265565438373,-2.0483870967741975,36.37089201877933,24.403921568627453,-4.822784810126596,-45.1673640167364,7.6506024096385605,-5.1626016260162695,-20.819672131147556,18.305778209730796,260.5385547042537,95.13937541001212,9387.648662798021,76.20558680522866,1747.4110927370334,0
-111.55699926452561,49.482790270766415,-124.37833669474433,-54.75563345017525,7.5181413112666995,0.600687974774246,-108.73265565438373,-6.145161290322584,55.4507042253521,8.466666666666669,41.797468354430364,72.79916317991632,-0.5100401606425646,-52.65853658536586,-43.72131147540985,35.19363149226329,715.2822405504963,95.13937541001212,9387.648662798021,76.20558680522866,1747.4110927370334,0
-111.55699926452561,49.482790270766415,-124.37833669474433,-54.75563345017525,7.5181413112666995,0.600687974774246,-108.73265565438373,-14.338709677419358,17.29107981220656,6.4745098039215705,4.822784810126568,80.23849372384937,-5.610441767068267,18.585365853658526,-20.819672131147556,21.022632197424723,611.8167934574842,95.13937541001212,9387.648662798021,76.20558680522866,1747.4110927370334,0
-108.87938220151997,87.13400642496559,-127.0,-65.9166249374061,22.854687642084194,17.529167263866952,-117.5113087674714,-14.338709677419358,17.29107981220656,6.4745098039215705,4.822784810126568,80.23849372384937,-5.610441767068267,18.585365853658526,-20.819672131147556,21.022632197424723,611.8167934574842,107.67112954216185,14100.496336307246,93.3502104541239,961.7755716584727,0
-108.87938220151997,87.13400642496559,-127.0,-65.9166249374061,22.854687642084194,17.529167263866952,-117.5113087674714,-4.0967741935483915,37.56338028169013,12.450980392156865,-22.506329113924064,52.60669456066945,21.931726907630527,65.04878048780486,-8.32786885245903,28.066566848735416,476.66538040264214,107.67112954216185,14100.496336307246,93.3502104541239,961.7755716584727,0
-108.87938220151997,87.13400642496559,-127.0,-65.9166249374061,22.854687642084194,17.529167263866952,-117.5113087674714,-49.16129032258065,-28.023474178403767,-54.28627450980392,-53.05063291139242,47.2928870292887,21.931726907630527,12.390243902439014,-43.72131147540985,38.732230154618605,249.24580449524706,107.67112954216185,14100.496336307246,93.3502104541239,961.7755716584727,0
-104.61387594998774,111.37999082147776,-123.86605765808518,-75.77391086629945,38.514594889515315,34.566862548373194,-123.1916137229988,-49.16129032258065,-28.023474178403767,-54.28627450980392,-53.05063291139242,47.2928870292887,21.931726907630527,12.390243902439014,-43.72131147540985,38.732230154618605,249.24580449524706,113.28664147651689,17060.78338477668,103.67331978195413,622.7582296442409,0
-104.61387594998774,111.37999082147776,-123.86605765808518,-75.77391086629945,38.514594889515315,34.566862548373194,-123.1916137229988,-20.48387096774194,51.8732394366197,33.3686274509804,17.683544303797454,38.79079497907949,-3.5702811244979866,-66.08130081300814,-58.29508196721312,36.26834263036728,470.8544486384612,113.28664147651689,17060.78338477668,103.67331978195413,622.7582296442409,0
-104.61387594998774,111.37999082147776,-123.86605765808518,-75.77391086629945,38.514594889515315,34.566862548373194,-123.1916137229988,-63.5,-30.40845070422536,-51.29803921568627,-86.81012658227849,-99.36820083682008,-96.39759036144578,51.62601626016259,-60.37704918032788,67.47318414261831,597.2192199635994,113.28664147651689,17060.78338477668,103.67331978195413,622.7582296442409,0
-95.05540573670017,127.00000000000001,-110.30573021710761,-82.96019028542813,53.227516595435105,50.111939228894926,-126.09631512071155,-63.5,-30.40845070422536,-51.29803921568627,-86.81012658227849,-99.36820083682008,-96.39759036144578,51.62601626016259,-60.37704918032788,67.47318414261831,597.2192199635994,110.78704531793592,17642.53086792049,106.7553068341786,494.330339572462,0
-95.05540573670017,127.00000000000001,-110.30573021710761,-82.96019028542813,53.227516595435105,50.111939228894926,-126.09631512071155,6.1451612903225765,55.4507042253521,18.42745098039216,25.721518987341756,81.30125523012552,-5.610441767068267,-33.04065040650407,-58.29508196721312,35.49903310678995,737.661800364477,110.78704531793592,17642.53086792049,106.7553068341786,494.330339572462,0
-95.05540573670017,127.00000000000001,-110.30573021710761,-82.96019028542813,53.227516595435105,50.111939228894926,-126.09631512071155,32.77419354838709,86.45539906103284,53.29019607843138,85.20253164556961,7.970711297071129,54.574297188755025,-50.59349593495936,-18.7377049180328,48.699816209029905,803.9018521198611,110.78704531793592,17642.53086792049,106.7553068341786,494.330339572462,0
-86.30644765873988,126.18402937127125,-99.03559141060624,-88.36579869804706,66.67009184322995,64.3828292962591,-127.0,32.77419354838709,86.45539906103284,53.29019607843138,85.20253164556961,7.970711297071129,54.574297188755025,-50.59349593495936,-18.7377049180328,48.699816209029905,803.9018521198611,103.84202281353913,16006.351919038343,104.52847315997485,380.1834552477089,0
-86.30644765873988,126.18402937127125,-99.03559141060624,-88.36579869804706,66.67009184322995,64.3828292962591,-127.0,-22.53225806451613,8.943661971830974,-4.482352941176469,11.25316455696201,102.55648535564853,60.694779116465874,25.81300813008129,-22.901639344262307,32.39716868511795,1104.327143824287,103.84202281353913,16006.351919038343,104.52847315997485,380.1834552477089,0
-86.30644765873988,126.18402937127125,-99.03559141060624,-88.36579869804706,66.67009184322995,64.3828292962591,-127.0,-2.0483870967741975,37.56338028169013,12.450980392156865,-24.113924050632924,4.7824267782426775,32.13253012048193,24.78048780487804,-22.901639344262307,20.096719483639884,159.2307657190117,103.84202281353913,16006.351919038343,104.52847315997485,380.1834552477089,0
-75.93846531012503,109.28178063331804,-101.92846126468146,-94.8843264897346,79.37355642447939,78.18045005016478,-124.80533672172817,-2.0483870967741975,37.56338028169013,12.450980392156865,-24.113924050632924,4.7824267782426775,32.13253012048193,24.78048780487804,-22.901639344262307,20.096719483639884,159.2307657190117,95.7162357360415,13265.297613279812,102.03152279591137,51.82963771356152,0
-75.93846531012503,109.28178063331804,-101.92846126468146,-94.8843264897346,79.37355642447939,78.18045005016478,-124.80533672172817,-14.338709677419358,18.483568075117358,2.4901960784313744,17.683544303797454,18.598326359832633,14.791164658634543,-77.43902439024392,-37.47540983606559,25.162492922442777,538.1180621882734,95.7162357360415,13265.297613279812,102.03152279591137,51.82963771356152,0
-75.93846531012503,109.28178063331804,-101.92846126468146,-94.8843264897346,79.37355642447939,78.18045005016478,-124.80533672172817,-10.241935483870972,48.295774647887306,53.29019607843138,30.544303797468338,66.42259414225941,-0.5100401606425646,32.0081300813008,-18.7377049180328,32.506334913736694,506.38960544319707,95.7162357360415,13265.297613279812,102.03152279591137,51.82963771356152,0
-52.40034322137779,78.97430013767784,-98.22197176414758,-102.32498748122183,89.97517504774028,88.73799627346995,-118.8022871664549,-10.241935483870972,48.295774647887306,53.29019607843138,30.544303797468338,66.42259414225941,-0.5100401606425646,32.0081300813008,-18.7377049180328,32.506334913736694,506.38960544319707,76.53220504106774,8459.572889322713,93.1737531276824,155.42703340515192,0
-52.40034322137779,78.97430013767784,-98.22197176414758,-102.32498748122183,89.97517504774028,88.73799627346995,-118.8022871664549,-2.0483870967741975,51.8732394366197,0.4980392156862763,9.64556962025315,-32.41422594142259,30.092369477911653,20.65040650406503,-31.229508196721323,22.30646818618174,309.3771353352104,76.53220504106774,8459.572889322713,93.1737531276824,155.42703340515192,0
-52.40034322137779,78.97430013767784,-98.22197176414758,-102.32498748122183,89.97517504774028,88.73799627346995,-118.8022871664549,-28.67741935483871,38.75586854460092,31.376470588235296,-33.75949367088609,-31.351464435146447,-71.9156626506024,-66.08130081300814,-56.21311475409837,44.76634935142705,299.6884595938227,76.53220504106774,8459.572889322713,93.1737531276824,155.42703340515192,0
-39.97744545231674,57.29279486002754,-87.31344168940562,-108.97070605908863,98.8214058379558,97.14762792030956,-111.76645489199495,-28.67741935483871,38.75586854460092,31.376470588235296,-33.75949367088609,-31.351464435146447,-71.9156626506024,-66.08130081300814,-56.21311475409837,44.76634935142705,299.6884595938227,61.5278940005833,5435.526639861587,84.52564753617393,673.4804736551055,0
-39.97744545231674,57.29279486002754,-87.31344168940562,-108.97070605908863,98.8214058379558,97.14762792030956,-111.76645489199495,-40.96774193548387,1.7887323943661855,-3.48627450980392,46.62025316455694,-9.03347280334728,10.710843373493981,-51.62601626016261,-52.04918032786887,27.035314346135458,512.9400439941727,61.5278940005833,5435.526639861587,84.52564753617393,673.4804736551055,0
-39.97744545231674,57.29279486002754,-87.31344168940562,-108.97070605908863,98.8214058379558,97.14762792030956,-111.76645489199495,-6.145161290322584,31.600938967136138,6.4745098039215705,-25.721518987341785,-51.54393305439331,-61.714859437751,102.21951219512194,20.819672131147527,38.28001323339198,1052.115884730141,61.5278940005833,5435.526639861587,84.52564753617393,673.4804736551055,0
-35.64966903652856,55.427719137218915,-77.03772689524261,-114.37631447170756,106.78994271164862,104.86555826286366,-104.9888182973317,-6.145161290322584,31.600938967136138,6.4745098039215705,-25.721518987341785,-51.54393305439331,-61.714859437751,102.21951219512194,20.819672131147527,38.28001323339198,1052.115884730141,56.03837168966336,4592.526060407786,82.28058683472302,889.3499082360805,0
-35.64966903652856,55.427719137218915,-77.03772689524261,-114.37631447170756,106.78994271164862,104.86555826286366,-104.9888182973317,-45.064516129032256,-16.098591549295783,-24.40392156862745,-114.13924050632912,-127.0,-127.0,-72.27642276422765,-52.04918032786887,72.25398410567264,2048.4550831940355,56.03837168966336,4592.526060407786,82.28058683472302,889.3499082360805,0
-35.64966903652856,55.427719137218915,-77.03772689524261,-114.37631447170756,106.78994271164862,104.86555826286366,-104.9888182973317,-10.241935483870972,14.906103286384964,-36.35686274509804,-11.253164556962039,67.48535564853557,-20.911646586345377,-68.14634146341464,-62.45901639344263,36.47005327050678,667.378404009926,56.03837168966336,4592.526060407786,82.28058683472302,889.3499082360805,0
-28.426329982838926,53.09637448370813,-65.43611341796179,-118.57361041562342,113.78839683550059,111.12727533323775,-98.27573062261752,-10.241935483870972,14.906103286384964,-36.35686274509804,-11.253164556962039,67.48535564853557,-20.911646586345377,-68.14634146341464,-62.45901639344263,36.47005327050678,667.378404009926,48.986272628169615,3677.6043502690322,79.03536610576445,1210.5218615709555,0
-28.426329982838926,53.09637448370813,-65.43611341796179,-118.57361041562342,113.78839683550059,111.12727533323775,-98.27573062261752,-4.0967741935483915,12.521126760563368,-82.17647058823529,-14.46835443037976,66.42259414225941,1.5301204819277165,-3.097560975609766,-12.491803278688536,24.600600606401528,982.0419550387638,48.986272628169615,3677.6043502690322,79.03536610576445,1210.5218615709555,0
-28.426329982838926,53.09637448370813,-65.43611341796179,-118.57361041562342,113.78839683550059,111.12727533323775,-98.27573062261752,-24.580645161290327,32.79342723004693,4.482352941176472,123.78481012658226,40.9163179916318,83.13654618473896,-41.30081300813009,-35.39344262295083,48.298544408318456,1414.95369737981,48.986272628169615,3677.6043502690322,79.03536610576445,1210.5218615709555,0
-19.054670262319192,26.169343735658572,-53.35235496500178,-122.99349023535302,119.56269891788669,117.46180306722084,-92.14358322744602,-24.580645161290327,32.79342723004693,4.482352941176472,123.78481012658226,40.9163179916318,83.13654618473896,-41.30081300813009,-35.39344262295083,48.298544408318456,1414.95369737981,32.858789654326515,1590.8738637154204,67.50506297867112,2493.9531944387086,0
-19.054670262319192,26.169343735658572,-53.35235496500178,-122.99349023535302,119.56269891788669,117.46180306722084,-92.14358322744602,4.096774193548384,33.98591549295773,27.3921568627451,27.329113924050617,117.43514644351464,95.37751004016064,10.32520325203251,-1.4210854715202004e-14,39.4927275261262,1883.7321971997208,32.858789654326515,1590.8738637154204,67.50506297867112,2493.9531944387086,0
-19.054670262319192,26.169343735658572,-53.35235496500178,-122.99349023535302,119.56269891788669,117.46180306722084,-92.14358322744602,-24.580645161290327,6.5586854460093775,-58.27058823529411,-54.658227848101276,122.7489539748954,48.453815261044184,96.02439024390243,-37.47540983606559,56.09633950082534,1413.7115903355698,32.858789654326515,1590.8738637154204,67.50506297867112,2493.9531944387086,0
-9.838685952439318,-7.285452042221195,-36.296476450349985,-126.10966449674513,123.55851595889787,121.57560556112938,-87.36696315120719,-24.580645161290327,6.5586854460093775,-58.27058823529411,-54.658227848101276,122.7489539748954,48.453815261044184,96.02439024390243,-37.47540983606559,56.09633950082534,1413.7115903355698,17.806871481670168,258.028869773444,56.563864329772095,3837.8736249506705,0
-9.838685952439318,-7.285452042221195,-36.296476450349985,-126.10966449674513,123.55851595889787,121.57560556112938,-87.36696315120719,-14.338709677419358,37.56338028169013,33.3686274509804,90.02531645569618,104.68200836820084,75.99598393574298,69.17886178861788,-8.32786885245903,54.18509460135085,1276.4591410008932,17.806871481670168,258.028869773444,56.563864329772095,3837.8736249506705,0
-9.838685952439318,-7.285452042221195,-36.296476450349985,-126.10966449674513,123.55851595889787,121.57560556112938,-87.36696315120719,2.0483870967741886,26.830985915492946,17.43137254901961,17.683544303797454,78.11297071129707,18.871485943775106,-92.92682926829269,-27.065573770491817,35.121393694867606,1042.6099826968587,17.806871481670168,258.028869773444,56.563864329772095,3837.8736249506705,0
-8.748958077960278,-26.052776502983015,-18.728318899039035,-127.0,125.75275075020458,124.67005876451194,-86.01143583227451,2.0483870967741886,26.830985915492946,17.43137254901961,17.683544303797454,78.11297071129707,18.871485943775106,-92.92682926829269,-27.065573770491817,35.121393694867606,1042.6099826968587,17.84335115999411,75.44290894590179,57.26036513400735,3661.1244232294766,0
-8.748958077960278,-26.052776502983015,-18.728318899039035,-127.0,125.75275075020458,124.67005876451194,-86.01143583227451,-16.38709677419355,36.37089201877933,-9.462745098039214,-61.08860759493672,-38.7907949790795,-61.714859437751,-111.51219512195122,-60.37704918032788,49.46303002563231,1033.4024163206416,17.84335115999411,75.44290894590179,57.26036513400735,3661.1244232294766,0
-8.748958077960278,-26.052776502983015,-18.728318899039035,-127.0,125.75275075020458,124.67005876451194,-86.01143583227451,8.193548387096769,42.333333333333314,12.450980392156865,49.83544303797466,100.43096234309624,107.61847389558234,109.4471544715447,-1.4210854715202004e-14,53.78873698259811,2142.6873678610964,17.84335115999411,75.44290894590179,57.26036513400735,3661.1244232294766,0
-5.043883304731547,-36.89352914180816,-3.329813738284498,-126.49123685528292,126.99999999999999,126.99999999999997,-86.59237611181709,8.193548387096769,42.333333333333314,12.450980392156865,49.83544303797466,100.43096234309624,107.61847389558234,109.4471544715447,-1.4210854715202004e-14,53.78873698259811,2142.6873678610964,15.089075394941402,357.3101610190938,55.571526578458524,4053.834727233716,0
-5.043883304731547,-36.89352914180816,-3.329813738284498,-126.49123685528292,126.99999999999999,126.99999999999997,-86.59237611181709,-36.87096774193549,5.366197183098578,16.43529411764706,3.215189873417707,-38.7907949790795,-14.791164658634532,-81.56910569105692,-95.7704918032787,36.60115075601856,1214.3681729029365,15.089075394941402,357.3101610190938,55.571526578458524,4053.834727233716,0
-5.043883304731547,-36.89352914180816,-3.329813738284498,-126.49123685528292,126.99999999999999,126.99999999999997,-86.59237611181709,-47.112903225806456,13.713615023474166,-3.48627450980392,17.683544303797454,52.60669456066945,18.871485943775106,-107.38211382113822,-77.03278688524591,42.23617728421384,1292.8513260198972,15.089075394941402,357.3101610190938,55.571526578458524,4053.834727233716,0
6.943123314537882,-54.728315741165666,15.47384031320441,-124.04281422133198,126.42256979176138,125.65300272323344,-88.5933926302414,-47.112903225806456,13.713615023474166,-3.48627450980392,17.683544303797454,52.60669456066945,18.871485943775106,-107.38211382113822,-77.03278688524591,42.23617728421384,1292.8513260198972,25.715093122969318,1467.413707065804,64.74832342523402,3022.1059393575133,0
6.943123314537882,-54.728315741165666,15.47384031320441,-124.04281422133198,126.42256979176138,125.65300272323344,-88.5933926302414,-12.290322580645164,25.638497652582146,3.4862745098039234,36.97468354430378,73.86192468619247,-46.41365461847389,126.99999999999999,20.819672131147527,43.31062871539362,1621.9216353479574,25.715093122969318,1467.413707065804,64.74832342523402,3022.1059393575133,0
6.943123314537882,-54.728315741165666,15.47384031320441,-124.04281422133198,126.42256979176138,125.65300272323344,-88.5933926302414,-38.91935483870968,0.5962441314553857,-47.31372549019608,16.075949367088594,-10.09623430962343,-5.610441767068267,-6.195121951219521,-54.13114754098362,22.367277424543072,444.5296192856318,25.715093122969318,1467.413707065804,64.74832342523402,3022.1059393575133,0
16.657268938465315,-73.14593850390087,35.69379523075097,-118.19203805708563,123.09657179230699,119.13644833022786,-93.17636594663281,-38.91935483870968,0.5962441314553857,-47.31372549019608,16.075949367088594,-10.09623430962343,-5.610441767068267,-6.195121951219521,-54.13114754098362,22.367277424543072,444.5296192856318,41.83233422437238,3378.8488399405737,75.67725726391248,1706.2956983568092,0
