Gyro 0,Gyro 1,Gyro 2,Orientation 0,Orientation 1,Orientation 2,Orientation 3,Sensor 0,Sensor 1,Sensor 2,Sensor 3,Sensor 4,Sensor 5,Sensor 6,Sensor 7,Sensor Mean,Sensor Variance,Gyro Mean,Gyro Variance,Orientation Mean,Orientation Variance,Label
-27.68512110726643,52.60933234053116,-32.468917249897075,-115.86767786809688,126.99999999999999,-43.27314172447973,2.174112734864309,4.482352941176472,-11.140350877192997,3.8154506437768294,-2.5918367346938904,-1.0495867768595017,12.248730964467011,-20.483870967741932,10.458823529411768,8.283875429415051,42.371778839236015,37.58779023256489,2284.7320855643306,66.98197581950836,1893.7679785932883,1
-27.68512110726643,52.60933234053116,-32.468917249897075,-115.86767786809688,126.99999999999999,-43.27314172447973,2.174112734864309,1.4941176470588253,-3.34210526315791,-0.5450643776823978,-0.8639455782313052,7.347107438016531,29.010152284263967,-6.437788018433176,13.447058823529416,7.8109174287966905,92.02850463872721,37.58779023256489,2284.7320855643306,66.98197581950836,1893.7679785932883,1
-27.68512110726643,52.60933234053116,-32.468917249897075,-115.86767786809688,126.99999999999999,-43.27314172447973,2.174112734864309,-0.49803921568627274,-26.73684210526317,0.5450643776824089,-2.5918367346938904,5.247933884297524,22.563451776649753,-7.608294930875572,4.482352941176474,8.784226995790634,102.77830516060912,37.58779023256489,2284.7320855643306,66.98197581950836,1893.7679785932883,1
-29.694018783984177,56.959295110449254,-32.594400988060926,-115.86767786809688,126.63073138000446,-41.35996035678892,2.174112734864309,-0.49803921568627274,-26.73684210526317,0.5450643776824089,-2.5918367346938904,5.247933884297524,22.563451776649753,-7.608294930875572,4.482352941176474,8.784226995790634,102.77830516060912,39.74923829416479,2589.5122517868754,68.47379132220236,1833.04737784264,1
-29.694018783984177,56.959295110449254,-32.594400988060926,-115.86767786809688,126.63073138000446,-41.35996035678892,2.174112734864309,-5.478431372549018,-33.42105263157896,-8.175965665236046,-11.231292517006814,-15.74380165289256,12.248730964467011,-21.654377880184327,7.470588235294121,14.428030114901109,85.32062316869897,39.74923829416479,2589.5122517868754,68.47379132220236,1833.04737784264,1
-29.694018783984177,56.959295110449254,-32.594400988060926,-115.86767786809688,126.63073138000446,-41.35996035678892,2.174112734864309,14.443137254901963,20.05263157894735,22.347639484978547,0.8639455782312799,-8.396694214876032,18.695431472081225,-13.460829493087553,16.43529411764706,14.336950399343875,48.26098864751948,39.74923829416479,2589.5122517868754,68.47379132220236,1833.04737784264,1
-29.694018783984177,59.607098535616785,-32.845368464388635,-116.18696052962373,126.21885484231713,-39.84955401387515,2.704384133611711,14.443137254901963,20.05263157894735,22.347639484978547,0.8639455782312799,-8.396694214876032,18.695431472081225,-13.460829493087553,16.43529411764706,14.336950399343875,48.26098864751948,40.71549526132986,2755.346535620735,69.5464758432097,1810.5486579390345,1
-29.694018783984177,59.607098535616785,-32.845368464388635,-116.18696052962373,126.21885484231713,-39.84955401387515,2.704384133611711,2.4901960784313744,-12.254385964912295,8.175965665236058,-2.5918367346938904,11.545454545454547,22.563451776649753,-12.290322580645157,10.458823529411768,10.296304609429356,40.66712438818599,40.71549526132986,2755.346535620735,69.5464758432097,1810.5486579390345,1
-29.694018783984177,59.607098535616785,-32.845368464388635,-116.18696052962373,126.21885484231713,-39.84955401387515,2.704384133611711,-13.44705882352941,-35.649122807017555,-22.347639484978536,-2.5918367346938904,3.148760330578515,21.27411167512691,-20.483870967741932,3.552713678800501e-15,14.867800102958345,153.07108655989023,40.71549526132986,2755.346535620735,69.5464758432097,1810.5486579390345,1
-25.51927829955511,58.47232563911642,-32.94993824619185,-116.97452442805665,125.83538358309103,-37.93637264618434,2.7574112734864116,-13.44705882352941,-35.649122807017555,-22.347639484978536,-2.5918367346938904,3.148760330578515,21.27411167512691,-20.483870967741932,3.552713678800501e-15,14.867800102958345,153.07108655989023,38.98051406162113,2577.972428891359,69.46559610445497,1855.6717674014703,1
-25.51927829955511,58.47232563911642,-32.94993824619185,-116.97452442805665,125.83538358309103,-37.93637264618434,2.7574112734864116,-2.490196078431371,-7.7982456140351015,-7.085836909871239,-14.687074829931985,-22.041322314049587,10.959390862944169,-16.972350230414744,-1.49411764705882,10.441066810842127,51.003878725304624,38.98051406162113,2577.972428891359,69.46559610445497,1855.6717674014703,1
-25.51927829955511,58.47232563911642,-32.94993824619185,-116.97452442805665,125.83538358309103,-37.93637264618434,2.7574112734864116,-0.49803921568627274,-22.28070175438598,-3.8154506437768188,2.5918367346938647,-7.347107438016527,22.563451776649753,-20.483870967741932,13.447058823529416,11.62843966931007,85.66997520998719,38.98051406162113,2577.972428891359,69.46559610445497,1855.6717674014703,1
-20.810924369747895,57.400595681310506,-32.97085220255249,-118.06008547724797,125.36669648848131,-35.41902874132808,2.651356993736954,-0.49803921568627274,-22.28070175438598,-3.8154506437768188,2.5918367346938647,-7.347107438016527,22.563451776649753,-20.483870967741932,13.447058823529416,11.62843966931007,85.66997520998719,37.06079075120363,2405.3173843703153,69.477177787037,1919.4272813361508,1
-20.810924369747895,57.400595681310506,-32.97085220255249,-118.06008547724797,125.36669648848131,-35.41902874132808,2.651356993736954,-6.474509803921567,-18.938596491228083,-5.995708154506432,-6.04761904761906,-14.694214876033056,13.538071065989854,-8.778801843317968,8.964705882352945,10.42902839562112,22.803927548079862,37.06079075120363,2405.3173843703153,69.477177787037,1919.4272813361508,1
-20.810924369747895,57.400595681310506,-32.97085220255249,-118.06008547724797,125.36669648848131,-35.41902874132808,2.651356993736954,2.4901960784313744,14.482456140350862,9.266094420600865,-18.142857142857153,-33.58677685950413,7.09137055837564,-21.654377880184327,5.976470588235298,14.086324958567456,103.7941964361611,37.06079075120363,2405.3173843703153,69.477177787037,1919.4272813361508,1
-17.389520514087984,57.14842392653265,-32.929024289831204,-119.23078856951311,124.75598300156564,-32.44856293359766,2.7574112734864116,2.4901960784313744,14.482456140350862,9.266094420600865,-18.142857142857153,-33.58677685950413,7.09137055837564,-21.654377880184327,5.976470588235298,14.086324958567456,103.7941964361611,35.82232291015061,2318.55466936685,69.76941226195899,1981.4656393686705,1
-17.389520514087984,57.14842392653265,-32.929024289831204,-119.23078856951311,124.75598300156564,-32.44856293359766,2.7574112734864116,11.454901960784316,-54.587719298245624,-47.42060085836909,-16.41496598639457,-32.53719008264463,12.248730964467011,-18.14285714285714,8.964705882352945,25.221459022014415,308.3502536003603,35.82232291015061,2318.55466936685,69.76941226195899,1981.4656393686705,1
-17.389520514087984,57.14842392653265,-32.929024289831204,-119.23078856951311,124.75598300156564,-32.44856293359766,2.7574112734864116,2.4901960784313744,-18.938596491228083,-7.085836909871239,-9.503401360544231,-2.099173553719006,22.563451776649753,-20.483870967741932,7.470588235294121,11.329389421684967,66.78132320631845,35.82232291015061,2318.55466936685,69.76941226195899,1981.4656393686705,1
-18.582303509639143,56.328865723504606,-33.012680115273774,-120.08220900025141,124.03164840080517,-29.528444003964353,3.3937369519832714,2.4901960784313744,-18.938596491228083,-7.085836909871239,-9.503401360544231,-2.099173553719006,22.563451776649753,-20.483870967741932,7.470588235294121,11.329389421684967,66.78132320631845,35.97461644947251,2300.305142953281,69.8079182796766,2031.5393584220237,1
-18.582303509639143,56.328865723504606,-33.012680115273774,-120.08220900025141,124.03164840080517,-29.528444003964353,3.3937369519832714,-4.482352941176469,20.05263157894735,17.98712446351932,12.959183673469376,13.644628099173556,22.563451776649753,-11.119815668202762,3.552713678800501e-15,12.851148525142325,58.77085632767736,35.97461644947251,2300.305142953281,69.8079182796766,2031.5393584220237,1
-18.582303509639143,56.328865723504606,-33.012680115273774,-120.08220900025141,124.03164840080517,-29.528444003964353,3.3937369519832714,-5.478431372549018,-41.21929824561405,-8.175965665236046,-11.231292517006814,-15.74380165289256,16.11675126903554,-22.824884792626726,7.470588235294121,16.03262671878186,135.72473780392826,35.97461644947251,2300.305142953281,69.8079182796766,2031.5393584220237,1
-22.44315373208106,51.47455944403079,-33.93289419514203,-120.31634961870444,123.32151643927533,-26.96075322101092,4.136116910229646,-5.478431372549018,-41.21929824561405,-8.175965665236046,-11.231292517006814,-15.74380165289256,16.11675126903554,-22.824884792626726,7.470588235294121,16.03262671878186,135.72473780392826,35.95020245708463,2148.379265703649,68.57460108595909,2084.8339108454093,1
-22.44315373208106,51.47455944403079,-33.93289419514203,-120.31634961870444,123.32151643927533,-26.96075322101092,4.136116910229646,21.415686274509806,12.254385964912267,3.8154506437768294,16.414965986394545,18.892561983471076,26.43147208121828,-11.119815668202762,16.43529411764706,15.847454090016578,47.570966394468236,35.95020245708463,2148.379265703649,68.57460108595909,2084.8339108454093,1
-22.44315373208106,51.47455944403079,-33.93289419514203,-120.31634961870444,123.32151643927533,-26.96075322101092,4.136116910229646,-9.462745098039214,-13.368421052631593,-25.618025751072956,-9.503401360544231,-7.347107438016527,16.11675126903554,-15.801843317972347,7.470588235294121,13.086110440325816,37.73191648324056,35.95020245708463,2148.379265703649,68.57460108595909,2084.8339108454093,1
-24.38927335640138,41.76594688508316,-34.5603128859613,-119.99706695717758,122.85282934466561,-24.292368681863252,3.7118997912317013,-9.462745098039214,-13.368421052631593,-25.618025751072956,-9.503401360544231,-7.347107438016527,16.11675126903554,-15.801843317972347,7.470588235294121,13.086110440325816,37.73191648324056,33.57184437581528,1717.6101901580262,65.44110890940735,2245.2447092148745,1
-24.38927335640138,41.76594688508316,-34.5603128859613,-119.99706695717758,122.85282934466561,-24.292368681863252,3.7118997912317013,-7.470588235294116,4.4561403508771775,-1.6351931330472047,-16.41496598639457,-12.595041322314048,14.827411167512697,-14.63133640552995,7.470588235294121,9.937658104532986,29.444047562649235,33.57184437581528,1717.6101901580262,65.44110890940735,2245.2447092148745,1
-24.38927335640138,41.76594688508316,-34.5603128859613,-119.99706695717758,122.85282934466561,-24.292368681863252,3.7118997912317013,-3.48627450980392,-40.10526315789475,-27.79828326180257,-7.775510204081645,-2.099173553719006,23.852791878172596,-11.119815668202762,10.458823529411768,15.836991970386126,179.1009052720752,33.57184437581528,1717.6101901580262,65.44110890940735,2245.2447092148745,1
-28.877904102817592,35.33556713824771,-34.28843145327295,-119.08178999413391,122.59718183851486,-22.228146679881092,2.9164926931106265,-3.48627450980392,-40.10526315789475,-27.79828326180257,-7.775510204081645,-2.099173553719006,23.852791878172596,-11.119815668202762,10.458823529411768,15.836991970386126,179.1009052720752,32.83396756477942,1500.024145818203,62.90192952855153,2367.4066647349173,1
-28.877904102817592,35.33556713824771,-34.28843145327295,-119.08178999413391,122.59718183851486,-22.228146679881092,2.9164926931106265,-0.49803921568627274,-36.76315789473685,3.8154506437768294,-12.9591836734694,-9.446280991735534,18.695431472081225,-14.63133640552995,11.952941176470592,13.595227684185833,121.61919865068076,32.83396756477942,1500.024145818203,62.90192952855153,2367.4066647349173,1
-28.877904102817592,35.33556713824771,-34.28843145327295,-119.08178999413391,122.59718183851486,-22.228146679881092,2.9164926931106265,-4.482352941176469,-37.87719298245615,5.995708154506444,-2.5918367346938904,3.148760330578515,21.27411167512691,-20.483870967741932,7.470588235294121,12.915552752696804,157.26407491155462,32.83396756477942,1500.024145818203,62.90192952855153,2367.4066647349173,1
-35.37543252595155,35.083395383469856,-33.0754219843557,-117.76208832648956,122.46935808543948,-21.32190287413283,2.5983298538621966,-4.482352941176469,-37.87719298245615,5.995708154506444,-2.5918367346938904,3.148760330578515,21.27411167512691,-20.483870967741932,7.470588235294121,12.915552752696804,157.26407491155462,34.51141663125904,1602.5601439735854,61.97363523143837,2335.2716133469326,1
-35.37543252595155,35.083395383469856,-33.0754219843557,-117.76208832648956,122.46935808543948,-21.32190287413283,2.5983298538621966,-18.427450980392155,-43.447368421052644,1.635193133047216,-11.231292517006814,-26.2396694214876,14.827411167512697,-12.290322580645157,7.470588235294121,16.9461620570548,167.70219768853272,34.51141663125904,1602.5601439735854,61.97363523143837,2335.2716133469326,1
-35.37543252595155,35.083395383469856,-33.0754219843557,-117.76208832648956,122.46935808543948,-21.32190287413283,2.5983298538621966,10.458823529411767,-3.34210526315791,-21.257510729613728,-23.32653061224491,-9.446280991735534,13.538071065989854,-16.972350230414744,4.482352941176474,12.853003170468115,53.661668432612544,34.51141663125904,1602.5601439735854,61.97363523143837,2335.2716133469326,1
-40.05239742956005,38.73988582774883,-31.5905310827501,-116.44238665884522,122.4409528069783,-21.623984142715585,2.9164926931106265,10.458823529411767,-3.34210526315791,-21.257510729613728,-23.32653061224491,-9.446280991735534,13.538071065989854,-16.972350230414744,4.482352941176474,12.853003170468115,53.661668432612544,36.79427144668633,1871.032437629311,62.25760118978138,2214.7715505638125,1
-40.05239742956005,38.73988582774883,-31.5905310827501,-116.44238665884522,122.4409528069783,-21.623984142715585,2.9164926931106265,3.4862745098039234,14.482456140350862,3.8154506437768294,-4.319727891156475,-19.942148760330575,9.670050761421326,-21.654377880184327,5.976470588235298,10.418369646907452,54.657630094897776,36.79427144668633,1871.032437629311,62.25760118978138,2214.7715505638125,1
-40.05239742956005,38.73988582774883,-31.5905310827501,-116.44238665884522,122.4409528069783,-21.623984142715585,2.9164926931106265,11.454901960784316,22.28070175438595,41.96995708154507,6.047619047619035,-4.198347107438014,13.538071065989854,-18.14285714285714,10.458823529411768,16.011409836253893,144.88988930897975,36.79427144668633,1871.032437629311,62.25760118978138,2214.7715505638125,1
-40.17795353435491,40.44204517249939,-31.38139151914368,-115.5058241850331,122.48356072467008,-22.328840436075325,3.340709812108571,11.454901960784316,22.28070175438595,41.96995708154507,6.047619047619035,-4.198347107438014,13.538071065989854,-18.14285714285714,10.458823529411768,16.011409836253893,144.88988930897975,37.33379674199933,1955.9282921631846,62.44308695889206,2132.264422604388,1
-40.17795353435491,40.44204517249939,-31.38139151914368,-115.5058241850331,122.48356072467008,-22.328840436075325,3.340709812108571,-11.454901960784312,-27.85087719298247,0.5450643776824089,-11.231292517006814,-2.099173553719006,19.984771573604068,-18.14285714285714,4.482352941176474,11.973911407476585,91.34015837550596,37.33379674199933,1955.9282921631846,62.44308695889206,2132.264422604388,1
-40.17795353435491,40.44204517249939,-31.38139151914368,-115.5058241850331,122.48356072467008,-22.328840436075325,3.340709812108571,-6.474509803921567,-12.254385964912295,-17.987124463519308,-4.319727891156475,-8.396694214876032,18.695431472081225,-16.972350230414744,2.9882352941176507,11.011057416874912,40.19324553977791,37.33379674199933,1955.9282921631846,62.44308695889206,2132.264422604388,1
-37.823776569451304,43.72027798461158,-30.419349526554136,-115.16525601273779,122.54037128159247,-23.235084241823586,3.8709812108559163,-6.474509803921567,-12.254385964912295,-17.987124463519308,-4.319727891156475,-8.396694214876032,18.695431472081225,-16.972350230414744,2.9882352941176507,11.011057416874912,40.19324553977791,37.321134693539,2033.4904567406618,63.101627841301166,2077.1947082417973,1
-37.823776569451304,43.72027798461158,-30.419349526554136,-115.16525601273779,122.54037128159247,-23.235084241823586,3.8709812108559163,5.4784313725490215,-27.85087719298247,-33.248927038626604,6.047619047619035,-1.0495867768595017,25.14213197969544,-8.778801843317968,19.42352941176471,15.877488082926844,145.50881185714326,37.321134693539,2033.4904567406618,63.101627841301166,2077.1947082417973,1
-37.823776569451304,43.72027798461158,-30.419349526554136,-115.16525601273779,122.54037128159247,-23.235084241823586,3.8709812108559163,1.4941176470588253,-1.1140350877193121,-4.905579399141626,-4.319727891156475,-7.347107438016527,10.959390862944169,-14.63133640552995,5.976470588235298,6.343470664975273,21.16624298457074,37.321134693539,2033.4904567406618,63.101627841301166,2077.1947082417973,1
-36.50543746910528,45.42243732936213,-30.18929600658707,-115.12268499120087,122.58297919928425,-24.292368681863252,4.666388308977048,1.4941176470588253,-1.1140350877193121,-4.905579399141626,-4.319727891156475,-7.347107438016527,10.959390862944169,-14.63133640552995,5.976470588235298,6.343470664975273,21.16624298457074,37.372390268351495,2078.200755005764,63.57813944238336,2050.6422805155016,1
-36.50543746910528,45.42243732936213,-30.18929600658707,-115.12268499120087,122.58297919928425,-24.292368681863252,4.666388308977048,-2.490196078431371,-26.73684210526317,-2.7253218884120116,-26.78231292517008,-25.1900826446281,9.670050761421326,-20.483870967741932,-4.482352941176467,14.820128789030559,122.34576168348755,37.372390268351495,2078.200755005764,63.57813944238336,2050.6422805155016,1
-36.50543746910528,45.42243732936213,-30.18929600658707,-115.12268499120087,122.58297919928425,-24.292368681863252,4.666388308977048,-12.450980392156861,-26.73684210526317,2.725321888412023,-0.8639455782313052,-9.446280991735534,25.14213197969544,-11.119815668202762,4.482352941176474,11.620958943109194,94.68381988987767,37.372390268351495,2078.200755005764,63.57813944238336,2050.6422805155016,1
-33.90014829461196,46.49416728716804,-31.46504734458625,-115.31425458811698,122.48356072467008,-24.946878097125875,5.673903966597095,-12.450980392156861,-26.73684210526317,2.725321888412023,-0.8639455782313052,-9.446280991735534,25.14213197969544,-11.119815668202762,4.482352941176474,11.620958943109194,94.68381988987767,37.286454308788755,2091.1358067499305,64.4244897399571,1998.794736287885,1
-33.90014829461196,46.49416728716804,-31.46504734458625,-115.31425458811698,122.48356072467008,-24.946878097125875,5.673903966597095,15.439215686274512,13.368421052631565,-4.905579399141626,6.047619047619035,14.694214876033062,31.588832487309652,-12.290322580645157,10.458823529411768,13.599128582383297,67.49219853180497,37.286454308788755,2091.1358067499305,64.4244897399571,1998.794736287885,1
-33.90014829461196,46.49416728716804,-31.46504734458625,-115.31425458811698,122.48356072467008,-24.946878097125875,5.673903966597095,18.42745098039216,-10.0263157894737,24.52789699570816,4.31972789115645,-9.446280991735534,19.984771573604068,-19.313364055299537,14.941176470588239,15.123373093494731,45.07321901601999,37.286454308788755,2091.1358067499305,64.4244897399571,1998.794736287885,1
-29.72540781018289,46.9354678580293,-31.94606834088102,-115.71867929271767,122.31312905390293,-24.695143706640238,6.2572025052191975,18.42745098039216,-10.0263157894737,24.52789699570816,4.31972789115645,-9.446280991735534,19.984771573604068,-19.313364055299537,14.941176470588239,15.123373093494731,45.07321901601999,36.202314669697735,2017.3529907516145,64.86673849720933,1995.6104364735852,1
-29.72540781018289,46.9354678580293,-31.94606834088102,-115.71867929271767,122.31312905390293,-24.695143706640238,6.2572025052191975,1.4941176470588253,-21.16666666666668,-12.536480686695274,-7.775510204081645,-4.198347107438014,18.695431472081225,-15.801843317972347,10.458823529411768,11.515902578925722,47.597784690167195,36.202314669697735,2017.3529907516145,64.86673849720933,1995.6104364735852,1
-29.72540781018289,46.9354678580293,-31.94606834088102,-115.71867929271767,122.31312905390293,-24.695143706640238,6.2572025052191975,-5.478431372549018,-30.078947368421066,-14.716738197424888,-7.775510204081645,-10.49586776859504,14.827411167512697,-13.460829493087553,7.470588235294121,13.038040475870753,59.84174470962099,36.202314669697735,2017.3529907516145,64.86673849720933,1995.6104364735852,1
-27.967622343054863,45.10722263588981,-32.468917249897075,-116.05924746501299,122.11429210467456,-23.939940535183382,6.4162839248434125,-5.478431372549018,-30.078947368421066,-14.716738197424888,-7.775510204081645,-10.49586776859504,14.827411167512697,-13.460829493087553,7.470588235294121,13.038040475870753,59.84174470962099,35.18125407628058,1896.3753506857222,64.5451291169333,2030.2099826423741,1
-27.967622343054863,45.10722263588981,-32.468917249897075,-116.05924746501299,122.11429210467456,-23.939940535183382,6.4162839248434125,-2.490196078431371,-23.394736842105274,-2.7253218884120116,-0.8639455782313052,-7.347107438016527,16.11675126903554,-15.801843317972347,11.952941176470592,10.086605448584372,64.86748688033292,35.18125407628058,1896.3753506857222,64.5451291169333,2030.2099826423741,1
-27.967622343054863,45.10722263588981,-32.468917249897075,-116.05924746501299,122.11429210467456,-23.939940535183382,6.4162839248434125,-3.48627450980392,-35.649122807017555,-38.69957081545064,-30.238095238095248,-18.892561983471072,8.380710659898483,-23.99539170506912,2.9882352941176507,20.29124537661546,201.85853186293164,35.18125407628058,1896.3753506857222,64.5451291169333,2030.2099826423741,1
-29.348739495798313,45.04417969719535,-32.36434746809387,-116.31467359423448,121.9438604339074,-23.38612487611499,6.628392484342385,-3.48627450980392,-35.649122807017555,-38.69957081545064,-30.238095238095248,-18.892561983471072,8.380710659898483,-23.99539170506912,2.9882352941176507,20.29124537661546,201.85853186293164,35.58575555369584,1922.5800658995292,64.57440025317457,2047.9864503952367,1
-29.348739495798313,45.04417969719535,-32.36434746809387,-116.31467359423448,121.9438604339074,-23.38612487611499,6.628392484342385,-4.482352941176469,-13.368421052631593,-3.8154506437768188,-0.8639455782313052,-5.2479338842975185,12.248730964467011,-16.972350230414744,7.470588235294121,8.058721691286198,30.858407677875896,35.58575555369584,1922.5800658995292,64.57440025317457,2047.9864503952367,1
-29.348739495798313,45.04417969719535,-32.36434746809387,-116.31467359423448,121.9438604339074,-23.38612487611499,6.628392484342385,7.4705882352941195,11.140350877192965,13.626609442060094,0.8639455782312799,-3.1487603305785106,25.14213197969544,-13.460829493087553,10.458823529411768,10.664004933193965,55.60034224865651,35.58575555369584,1922.5800658995292,64.57440025317457,2047.9864503952367,1
-29.12901631240731,45.4854802680566,-31.21407986825854,-116.67652727729825,121.8444419592932,-23.03369672943512,6.7874739039666,7.4705882352941195,11.140350877192965,13.626609442060094,0.8639455782312799,-3.1487603305785106,25.14213197969544,-13.460829493087553,10.458823529411768,10.664004933193965,55.60034224865651,35.27619214957415,1909.0821858487034,64.4586958045378,2095.9446601310483,1
-29.12901631240731,45.4854802680566,-31.21407986825854,-116.67652727729825,121.8444419592932,-23.03369672943512,6.7874739039666,-1.4941176470588218,-10.0263157894737,44.150214592274686,14.687074829931959,8.396694214876035,16.11675126903554,-16.972350230414744,4.482352941176474,14.540733939280244,173.5219669933087,35.27619214957415,1909.0821858487034,64.4586958045378,2095.9446601310483,1
-29.12901631240731,45.4854802680566,-31.21407986825854,-116.67652727729825,121.8444419592932,-23.03369672943512,6.7874739039666,18.42745098039216,-3.34210526315791,-19.077253218884117,-14.687074829931985,-12.595041322314048,14.827411167512697,-9.949308755760365,17.929411764705886,13.854382162832398,27.682981791266354,35.27619214957415,1909.0821858487034,64.4586958045378,2095.9446601310483,1
-29.12901631240731,45.17026557458428,-30.1056401811445,-117.08095198189893,121.81603668083203,-22.8323092170466,6.734446764091842,18.42745098039216,-3.34210526315791,-19.077253218884117,-14.687074829931985,-12.595041322314048,14.827411167512697,-9.949308755760365,17.929411764705886,13.854382162832398,27.682981791266354,34.8016406893787,1864.6331784081642,64.11895257920924,2160.4657701090455,1
-29.12901631240731,45.17026557458428,-30.1056401811445,-117.08095198189893,121.81603668083203,-22.8323092170466,6.734446764091842,-8.466666666666665,-23.394736842105274,-9.266094420600853,-11.231292517006814,-15.74380165289256,14.827411167512697,-16.972350230414744,4.482352941176474,13.048088304797009,34.978757020122465,34.8016406893787,1864.6331784081642,64.11895257920924,2160.4657701090455,1
-29.12901631240731,45.17026557458428,-30.1056401811445,-117.08095198189893,121.81603668083203,-22.8323092170466,6.734446764091842,-8.466666666666665,-18.938596491228083,10.35622317596567,2.5918367346938647,-10.49586776859504,16.11675126903554,-19.313364055299537,5.976470588235298,11.531972093714963,37.00999402547451,34.8016406893787,1864.6331784081642,64.11895257920924,2160.4657701090455,1
-30.82402372713791,44.918093819806415,-29.269081926718812,-117.35766362188888,121.87284723775441,-22.933002973240832,6.628392484342385,-8.466666666666665,-18.938596491228083,10.35622317596567,2.5918367346938647,-10.49586776859504,16.11675126903554,-19.313364055299537,5.976470588235298,11.531972093714963,37.00999402547451,35.003733157887716,1873.8372099572737,63.84827978947137,2208.663511901237,1
-30.82402372713791,44.918093819806415,-29.269081926718812,-117.35766362188888,121.87284723775441,-22.933002973240832,6.628392484342385,0.4980392156862763,20.05263157894735,3.8154506437768294,-2.5918367346938904,-12.595041322314048,18.695431472081225,-13.460829493087553,3.552713678800501e-15,8.963657557573397,67.17175108289734,35.003733157887716,1873.8372099572737,63.84827978947137,2208.663511901237,1
-30.82402372713791,44.918093819806415,-29.269081926718812,-117.35766362188888,121.87284723775441,-22.933002973240832,6.628392484342385,-0.49803921568627274,-14.482456140350891,-22.347639484978536,18.142857142857128,6.2975206611570265,21.27411167512691,-16.972350230414744,10.458823529411768,13.80922475999791,57.529511857690714,35.003733157887716,1873.8372099572737,63.84827978947137,2208.663511901237,1
-32.77014335145822,45.800694961528926,-28.97628653766982,-117.50666219726808,121.90125251621559,-23.436471754212107,6.999582463465572,-0.49803921568627274,-14.482456140350891,-22.347639484978536,18.142857142857128,6.2975206611570265,21.27411167512691,-16.972350230414744,10.458823529411768,13.80922475999791,57.529511857690714,35.84904161688566,1963.2278241434349,64.09454789882227,2210.4056450758844,1
-32.77014335145822,45.800694961528926,-28.97628653766982,-117.50666219726808,121.90125251621559,-23.436471754212107,6.999582463465572,11.454901960784316,17.824561403508753,-14.716738197424888,0.8639455782312799,9.44628099173554,26.43147208121828,-12.290322580645157,11.952941176470592,13.12264549625235,52.91538965562222,35.84904161688566,1963.2278241434349,64.09454789882227,2210.4056450758844,1
-32.77014335145822,45.800694961528926,-28.97628653766982,-117.50666219726808,121.90125251621559,-23.436471754212107,6.999582463465572,4.482352941176472,-37.87719298245615,-24.52789699570815,-11.231292517006814,10.495867768595044,30.29949238578681,-13.460829493087553,14.941176470588239,18.414512694300655,128.91912008929742,35.84904161688566,1963.2278241434349,64.09454789882227,2210.4056450758844,1
-31.82847256549678,47.37676842889056,-29.1645121449156,-117.78337383725803,121.88704987698499,-23.73855302279486,7.317745302714002,4.482352941176472,-37.87719298245615,-24.52789699570815,-11.231292517006814,10.495867768595044,30.29949238578681,-13.460829493087553,14.941176470588239,18.414512694300655,128.91912008929742,36.12325104643431,2023.189086329919,64.77488480368805,2190.3465019548767,1
-31.82847256549678,47.37676842889056,-29.1645121449156,-117.78337383725803,121.88704987698499,-23.73855302279486,7.317745302714002,-5.478431372549018,-31.192982456140363,13.626609442060094,-6.04761904761906,-12.595041322314048,17.406091370558382,-18.14285714285714,8.964705882352945,14.181792254556381,69.6319990010649,36.12325104643431,2023.189086329919,64.77488480368805,2190.3465019548767,1
-31.82847256549678,47.37676842889056,-29.1645121449156,-117.78337383725803,121.88704987698499,-23.73855302279486,7.317745302714002,-8.466666666666665,-5.570175438596506,3.8154506437768294,-12.9591836734694,-10.49586776859504,16.11675126903554,-19.313364055299537,3.552713678800501e-15,9.59218243942994,41.721233594980454,36.12325104643431,2023.189086329919,64.77488480368805,2190.3465019548767,1
-29.38012852199703,48.007197815835205,-29.14359818855496,-118.29422609570099,121.85864459852381,-23.73855302279486,7.4237995824634595,-8.466666666666665,-5.570175438596506,3.8154506437768294,-12.9591836734694,-10.49586776859504,16.11675126903554,-19.313364055299537,3.552713678800501e-15,9.59218243942994,41.721233594980454,35.5103081754624,1990.1832580713008,65.14834070003039,2207.3226985918973,1
-29.38012852199703,48.007197815835205,-29.14359818855496,-118.29422609570099,121.85864459852381,-23.73855302279486,7.4237995824634595,4.482352941176472,-33.42105263157896,-46.33047210300429,-28.510204081632665,-13.644628099173552,12.248730964467011,-13.460829493087553,4.482352941176474,19.572577906912123,224.17269804491275,35.5103081754624,1990.1832580713008,65.14834070003039,2207.3226985918973,1
-29.38012852199703,48.007197815835205,-29.14359818855496,-118.29422609570099,121.85864459852381,-23.73855302279486,7.4237995824634595,-11.454901960784312,-33.42105263157896,3.8154506437768294,-0.8639455782313052,-7.347107438016527,14.827411167512697,-14.63133640552995,1.494117647058827,10.981915434061175,112.68662469935738,35.5103081754624,1990.1832580713008,65.14834070003039,2207.3226985918973,1
-27.24567474048442,48.1963266319186,-29.582791272128446,-118.82636386491242,121.77342876314022,-23.084043607532237,7.2647181628392445,-11.454901960784312,-33.42105263157896,3.8154506437768294,-0.8639455782313052,-7.347107438016527,14.827411167512697,-14.63133640552995,1.494117647058827,10.981915434061175,112.68662469935738,35.00826421484383,1957.7581444479658,65.53516058965316,2216.5801845412925,1
-27.24567474048442,48.1963266319186,-29.582791272128446,-118.82636386491242,121.77342876314022,-23.084043607532237,7.2647181628392445,-2.490196078431371,-24.508771929824576,15.806866952789704,-9.503401360544231,-17.84297520661157,14.827411167512697,-18.14285714285714,4.482352941176474,13.450604097468469,55.31161327927537,35.00826421484383,1957.7581444479658,65.53516058965316,2216.5801845412925,1
-27.24567474048442,48.1963266319186,-29.582791272128446,-118.82636386491242,121.77342876314022,-23.084043607532237,7.2647181628392445,1.4941176470588253,14.482456140350862,22.347639484978547,-4.319727891156475,1.0495867768595062,19.984771573604068,-14.63133640552995,8.964705882352945,10.909292725236398,67.55490067223589,35.00826421484383,1957.7581444479658,65.53516058965316,2216.5801845412925,1
-27.967622343054863,47.50285430627949,-29.687361053931657,-119.14564652643928,121.64560501006484,-22.429534192269614,7.211691022964487,1.4941176470588253,14.482456140350862,22.347639484978547,-4.319727891156475,1.0495867768595062,19.984771573604068,-14.63133640552995,8.964705882352945,10.909292725236398,67.55490067223589,35.05261256775534,1942.8466157111975,65.44528729555013,2242.144386101018,1
-27.967622343054863,47.50285430627949,-29.687361053931657,-119.14564652643928,121.64560501006484,-22.429534192269614,7.211691022964487,11.454901960784316,-4.456140350877208,10.35622317596567,-4.319727891156475,1.0495867768595062,17.406091370558382,-18.14285714285714,10.458823529411768,9.705544024808809,38.003799838544175,35.05261256775534,1942.8466157111975,65.44528729555013,2242.144386101018,1
-27.967622343054863,47.50285430627949,-29.687361053931657,-119.14564652643928,121.64560501006484,-22.429534192269614,7.211691022964487,-3.48627450980392,1.1140350877192837,8.175965665236058,-16.41496598639457,-17.84297520661157,12.248730964467011,-18.14285714285714,4.482352941176474,10.238519688033254,46.96176449558219,35.05261256775534,1942.8466157111975,65.44528729555013,2242.144386101018,1
-29.223183391003452,46.62025316455697,-29.875586661177437,-119.35850163412385,121.54618653545067,-21.976412289395455,7.2647181628392445,-3.48627450980392,1.1140350877192837,8.175965665236058,-16.41496598639457,-17.84297520661157,12.248730964467011,-18.14285714285714,4.482352941176474,10.238519688033254,46.96176449558219,35.23967440557929,1934.044334871444,65.28478048661943,2263.0714531309013,1
-29.223183391003452,46.62025316455697,-29.875586661177437,-119.35850163412385,121.54618653545067,-21.976412289395455,7.2647181628392445,-6.474509803921567,-26.73684210526317,-11.446351931330467,-16.41496598639457,-12.595041322314048,14.827411167512697,-16.972350230414744,13.447058823529416,14.864316421335086,33.86230194760527,35.23967440557929,1934.044334871444,65.28478048661943,2263.0714531309013,1
-29.223183391003452,46.62025316455697,-29.875586661177437,-119.35850163412385,121.54618653545067,-21.976412289395455,7.2647181628392445,7.4705882352941195,-4.456140350877208,-25.618025751072956,-11.231292517006814,-15.74380165289256,10.959390862944169,-16.972350230414744,10.458823529411768,12.863801641239291,42.81372994395412,35.23967440557929,1934.044334871444,65.28478048661943,2263.0714531309013,1
-29.78818586258032,45.10722263588981,-29.60370522848909,-119.52878572027151,121.48937597852829,-21.724677898909817,7.2647181628392445,7.4705882352941195,-4.456140350877208,-25.618025751072956,-11.231292517006814,-15.74380165289256,10.959390862944169,-16.972350230414744,10.458823529411768,12.863801641239291,42.81372994395412,34.833037908986405,1865.179831602249,64.74657119488347,2310.9080342296215,1
-29.78818586258032,45.10722263588981,-29.60370522848909,-119.52878572027151,121.48937597852829,-21.724677898909817,7.2647181628392445,-11.454901960784312,-36.76315789473685,-20.167381974248922,4.31972789115645,1.0495867768595062,18.695431472081225,-19.313364055299537,5.976470588235298,14.717502826675263,133.51911551455632,34.833037908986405,1865.179831602249,64.74657119488347,2310.9080342296215,1
-29.78818586258032,45.10722263588981,-29.60370522848909,-119.52878572027151,121.48937597852829,-21.724677898909817,7.2647181628392445,-1.4941176470588218,-10.0263157894737,1.635193133047216,-4.319727891156475,-4.198347107438014,21.27411167512691,-11.119815668202762,7.470588235294121,7.692277143349752,42.91403076644581,34.833037908986405,1865.179831602249,64.74657119488347,2310.9080342296215,1
-30.886801779535336,44.16157855547283,-28.934458624948537,-119.6352132741138,121.48937597852829,-21.77502477700699,7.317745302714002,-1.4941176470588218,-10.0263157894737,1.635193133047216,-4.319727891156475,-4.198347107438014,21.27411167512691,-11.119815668202762,7.470588235294121,7.692277143349752,42.91403076644581,34.66094631998556,1829.8502810304744,64.24375015151172,2359.126935491582,1
-30.886801779535336,44.16157855547283,-28.934458624948537,-119.6352132741138,121.48937597852829,-21.77502477700699,7.317745302714002,5.4784313725490215,-13.368421052631593,12.536480686695285,7.77551020408162,-4.198347107438014,17.406091370558382,-13.460829493087553,13.447058823529416,10.95889626382136,21.169428142349737,34.66094631998556,1829.8502810304744,64.24375015151172,2359.126935491582,1
-30.886801779535336,44.16157855547283,-28.934458624948537,-119.6352132741138,121.48937597852829,-21.77502477700699,7.317745302714002,-10.458823529411763,-28.964912280701768,19.077253218884128,-0.8639455782313052,-20.99173553719008,10.959390862944169,-15.801843317972347,-2.9882352941176435,13.76326745243165,88.14426985989299,34.66094631998556,1829.8502810304744,64.24375015151172,2359.126935491582,1
-31.95402867029164,42.711590965500136,-28.49526554137505,-119.6352132741138,121.56038917468128,-22.077106045589744,7.2647181628392445,-10.458823529411763,-28.964912280701768,19.077253218884128,-0.8639455782313052,-20.99173553719008,10.959390862944169,-15.801843317972347,-2.9882352941176435,13.76326745243165,88.14426985989299,34.38696172572227,1776.2223685948998,63.61402326032967,2404.3062750615363,1
-31.95402867029164,42.711590965500136,-28.49526554137505,-119.6352132741138,121.56038917468128,-22.077106045589744,7.2647181628392445,2.4901960784313744,2.2280701754385817,-44.15021459227467,-12.9591836734694,-18.892561983471072,12.248730964467011,-16.972350230414744,3.552713678800501e-15,13.742663462245858,201.78312169042906,34.38696172572227,1776.2223685948998,63.61402326032967,2404.3062750615363,1
-31.95402867029164,42.711590965500136,-28.49526554137505,-119.6352132741138,121.56038917468128,-22.077106045589744,7.2647181628392445,-8.466666666666665,-28.964912280701768,-19.077253218884117,6.047619047619035,-7.347107438016527,22.563451776649753,-15.801843317972347,13.447058823529416,15.214489071254953,64.70449140474491,34.38696172572227,1776.2223685948998,63.61402326032967,2404.3062750615363,1
-32.39347503707365,40.88334574336064,-27.909674763277067,-119.67778429565071,121.75922612390961,-22.63092170465808,6.999582463465572,-8.466666666666665,-28.964912280701768,-19.077253218884117,6.047619047619035,-7.347107438016527,22.563451776649753,-15.801843317972347,13.447058823529416,15.214489071254953,64.70449140474491,33.728831847903784,1687.0127665016437,62.8236016007628,2466.3776021026342,1
-32.39347503707365,40.88334574336064,-27.909674763277067,-119.67778429565071,121.75922612390961,-22.63092170465808,6.999582463465572,1.4941176470588253,-5.570175438596506,5.995708154506444,-0.8639455782313052,-10.49586776859504,17.406091370558382,-22.824884792626726,8.964705882352945,9.201937079065772,58.14650950132976,33.728831847903784,1687.0127665016437,62.8236016007628,2466.3776021026342,1
-32.39347503707365,40.88334574336064,-27.909674763277067,-119.67778429565071,121.75922612390961,-22.63092170465808,6.999582463465572,-7.470588235294116,-40.10526315789475,-4.905579399141626,-6.04761904761906,-6.297520661157023,16.11675126903554,-15.801843317972347,5.976470588235298,12.84020445954372,141.53404475886686,33.728831847903784,1687.0127665016437,62.8236016007628,2466.3776021026342,1
-32.67597627286208,38.86597170513776,-27.261342116097158,-119.69906980641917,122.02907626929097,-23.486818632309223,6.52233820459287,-7.470588235294116,-40.10526315789475,-4.905579399141626,-6.04761904761906,-6.297520661157023,16.11675126903554,-15.801843317972347,5.976470588235298,12.84020445954372,141.53404475886686,32.934430031365665,1586.7317027917545,61.942127875884694,2535.5651128500576,1
-32.67597627286208,38.86597170513776,-27.261342116097158,-119.69906980641917,122.02907626929097,-23.486818632309223,6.52233820459287,-1.4941176470588218,1.1140350877192837,12.536480686695285,-31.965986394557834,-24.140495867768593,9.670050761421326,-18.14285714285714,4.482352941176474,12.943297066156843,123.96539428974302,32.934430031365665,1586.7317027917545,61.942127875884694,2535.5651128500576,1
-32.67597627286208,38.86597170513776,-27.261342116097158,-119.69906980641917,122.02907626929097,-23.486818632309223,6.52233820459287,-1.4941176470588218,-16.710526315789487,13.626609442060094,-4.319727891156475,-6.297520661157023,13.538071065989854,-16.972350230414744,5.976470588235298,9.866924230232724,36.24086697345502,32.934430031365665,1586.7317027917545,61.942127875884694,2535.5651128500576,1
-33.58625803262481,38.10945644080418,-26.633923425277892,-119.61392776334534,122.3415343323641,-24.443409316154657,6.098121085594983,-1.4941176470588218,-16.710526315789487,13.626609442060094,-4.319727891156475,-6.297520661157023,13.538071065989854,-16.972350230414744,5.976470588235298,9.866924230232724,36.24086697345502,32.77654596623563,1563.385944471962,61.452435876475796,2569.991318377402,1
-33.58625803262481,38.10945644080418,-26.633923425277892,-119.61392776334534,122.3415343323641,-24.443409316154657,6.098121085594983,-6.474509803921567,-28.964912280701768,-7.085836909871239,-0.8639455782313052,1.0495867768595062,22.563451776649753,-12.290322580645157,4.482352941176474,10.471864831007096,105.13082692844917,32.77654596623563,1563.385944471962,61.452435876475796,2569.991318377402,1
-33.58625803262481,38.10945644080418,-26.633923425277892,-119.61392776334534,122.3415343323641,-24.443409316154657,6.098121085594983,-8.466666666666665,-37.87719298245615,-19.077253218884117,-19.87074829931974,-20.99173553719008,14.827411167512697,-23.99539170506912,8.964705882352945,19.25888818243144,87.79515518149093,32.77654596623563,1563.385944471962,61.452435876475796,2569.991318377402,1
-35.909045971329704,38.23554231819311,-26.236558254425688,-119.42235816642923,122.68239767389845,-26.00416253716554,5.992066805845525,-8.466666666666665,-37.87719298245615,-19.077253218884117,-19.87074829931974,-20.99173553719008,14.827411167512697,-23.99539170506912,8.964705882352945,19.25888818243144,87.79515518149093,33.46038218131617,1624.604790583729,61.29815291301602,2569.811331896318,1
-35.909045971329704,38.23554231819311,-26.236558254425688,-119.42235816642923,122.68239767389845,-26.00416253716554,5.992066805845525,0.4980392156862763,1.1140350877192837,0.5450643776824089,7.77551020408162,1.0495867768595062,22.563451776649753,-12.290322580645157,7.470588235294121,6.663324781827265,60.58832862267259,33.46038218131617,1624.604790583729,61.29815291301602,2569.811331896318,1
-35.909045971329704,38.23554231819311,-26.236558254425688,-119.42235816642923,122.68239767389845,-26.00416253716554,5.992066805845525,-0.49803921568627274,-13.368421052631593,-13.626609442060081,-6.04761904761906,3.148760330578515,25.14213197969544,-11.119815668202762,7.470588235294121,10.05274812147098,59.18006119463367,33.46038218131617,1624.604790583729,61.29815291301602,2569.811331896318,1
-36.034602076124564,38.55075701166544,-25.943762865376698,-119.29464510181849,123.03746365466337,-27.71595639246783,6.045093945720225,-0.49803921568627274,-13.368421052631593,-13.626609442060081,-6.04761904761906,3.148760330578515,25.14213197969544,-11.119815668202762,7.470588235294121,10.05274812147098,59.18006119463367,33.50970731772224,1637.3906534003215,61.26305499295355,2565.4831632736236,1
-36.034602076124564,38.55075701166544,-25.943762865376698,-119.29464510181849,123.03746365466337,-27.71595639246783,6.045093945720225,19.423529411764708,2.2280701754385817,-4.905579399141626,-0.8639455782313052,-1.0495867768595017,25.14213197969544,-14.63133640552995,16.43529411764706,10.584934230538522,89.73508171901703,33.50970731772224,1637.3906534003215,61.26305499295355,2565.4831632736236,1
-36.034602076124564,38.55075701166544,-25.943762865376698,-119.29464510181849,123.03746365466337,-27.71595639246783,6.045093945720225,-0.49803921568627274,-35.649122807017555,0.5450643776824089,2.5918367346938647,-4.198347107438014,16.11675126903554,-15.801843317972347,7.470588235294121,10.358949133102515,143.2205466281741,33.50970731772224,1637.3906534003215,61.26305499295355,2565.4831632736236,1
-35.595155709342556,38.802928766443294,-26.257472210786332,-119.25207408028157,123.39252963542829,-29.42775024777012,6.045093945720225,-0.49803921568627274,-35.649122807017555,0.5450643776824089,2.5918367346938647,-4.198347107438014,16.11675126903554,-15.801843317972347,7.470588235294121,10.358949133102515,143.2205466281741,33.55185222885739,1642.52051368388,61.437491685837074,2546.2415731304786,1
-35.595155709342556,38.802928766443294,-26.257472210786332,-119.25207408028157,123.39252963542829,-29.42775024777012,6.045093945720225,3.4862745098039234,-23.394736842105274,-45.24034334763948,-16.41496598639457,-6.297520661157023,19.984771573604068,-12.290322580645157,5.976470588235298,16.6356757611981,183.923146188192,33.55185222885739,1642.52051368388,61.437491685837074,2546.2415731304786,1
-35.595155709342556,38.802928766443294,-26.257472210786332,-119.25207408028157,123.39252963542829,-29.42775024777012,6.045093945720225,0.4980392156862763,-16.710526315789487,-1.6351931330472047,-11.231292517006814,-8.396694214876032,14.827411167512697,-18.14285714285714,8.964705882352945,10.050839948641073,42.862323448889505,33.55185222885739,1642.52051368388,61.437491685837074,2546.2415731304786,1
-35.40682155215026,38.929014643832225,-26.675751337999174,-119.20950305874466,123.73339297696263,-30.93815659068389,5.88601252609601,0.4980392156862763,-16.710526315789487,-1.6351931330472047,-11.231292517006814,-8.396694214876032,14.827411167512697,-18.14285714285714,8.964705882352945,10.050839948641073,42.862323448889505,33.67052917799389,1651.0055749285398,61.604756346858686,2526.265748215922,1
-35.40682155215026,38.929014643832225,-26.675751337999174,-119.20950305874466,123.73339297696263,-30.93815659068389,5.88601252609601,-1.4941176470588218,-21.16666666666668,10.35622317596567,-35.421768707483004,-53.52892561983471,-1.9340101522842588,-16.972350230414744,4.482352941176474,18.169551892610546,335.48438969254147,33.67052917799389,1651.0055749285398,61.604756346858686,2526.265748215922,1
-35.40682155215026,38.929014643832225,-26.675751337999174,-119.20950305874466,123.73339297696263,-30.93815659068389,5.88601252609601,-2.490196078431371,-23.394736842105274,-23.437768240343342,0.8639455782312799,-2.099173553719006,19.984771573604068,-20.483870967741932,5.976470588235298,12.341366677801446,106.31718766227297,33.67052917799389,1651.0055749285398,61.604756346858686,2526.265748215922,1
-33.20958971824023,40.12683047902706,-27.595965417867433,-119.40107265566077,124.04585104003577,-31.945094152626382,5.461795407098123,-2.490196078431371,-23.394736842105274,-23.437768240343342,0.8639455782312799,-2.099173553719006,19.984771573604068,-20.483870967741932,5.976470588235298,12.341366677801446,106.31718766227297,33.64412853837825,1666.0200648713867,62.37462285085176,2478.2676278005492,1
-33.20958971824023,40.12683047902706,-27.595965417867433,-119.40107265566077,124.04585104003577,-31.945094152626382,5.461795407098123,2.4901960784313744,-7.7982456140351015,5.995708154506444,12.959183673469376,3.148760330578515,23.852791878172596,-16.972350230414744,8.964705882352945,10.272742730245138,53.4236741731347,33.64412853837825,1666.0200648713867,62.37462285085176,2478.2676278005492,1
-33.20958971824023,40.12683047902706,-27.595965417867433,-119.40107265566077,124.04585104003577,-31.945094152626382,5.461795407098123,6.4745098039215705,2.2280701754385817,22.347639484978547,-0.8639455782313052,-1.0495867768595017,12.248730964467011,-15.801843317972347,5.976470588235298,8.37384958626302,60.37508669335063,33.64412853837825,1666.0200648713867,62.37462285085176,2478.2676278005492,1
-30.63568956994562,40.75725986597172,-28.286125977768627,-119.82678287102992,124.32990382464773,-32.44856293359766,4.666388308977048,6.4745098039215705,2.2280701754385817,22.347639484978547,-0.8639455782313052,-1.0495867768595017,12.248730964467011,-15.801843317972347,5.976470588235298,8.37384958626302,60.37508669335063,33.22635847122865,1644.9104678334563,62.956722904923424,2464.535085525784,1
-30.63568956994562,40.75725986597172,-28.286125977768627,-119.82678287102992,124.32990382464773,-32.44856293359766,4.666388308977048,-4.482352941176469,-32.30701754385966,-1.6351931330472047,0.8639455782312799,-6.297520661157023,21.27411167512691,-16.972350230414744,8.964705882352945,11.599649705670778,121.64476580047389,33.22635847122865,1644.9104678334563,62.956722904923424,2464.535085525784,1
-30.63568956994562,40.75725986597172,-28.286125977768627,-119.82678287102992,124.32990382464773,-32.44856293359766,4.666388308977048,6.4745098039215705,-5.570175438596506,13.626609442060094,9.503401360544204,-3.1487603305785106,25.14213197969544,-12.290322580645157,13.447058823529416,11.150371219946361,46.88799134665936,33.22635847122865,1644.9104678334563,62.956722904923424,2464.535085525784,1
-28.061789421651007,42.7746339041946,-29.33182379580074,-120.42277717254672,124.48613285618428,-32.247175421209135,3.7649269311064586,6.4745098039215705,-5.570175438596506,13.626609442060094,9.503401360544204,-3.1487603305785106,25.14213197969544,-12.290322580645157,13.447058823529416,11.150371219946361,46.88799134665936,33.38941570721545,1703.1255164918575,64.17641162418069,2417.9175139528966,1
-28.061789421651007,42.7746339041946,-29.33182379580074,-120.42277717254672,124.48613285618428,-32.247175421209135,3.7649269311064586,17.43137254901961,11.140350877192965,11.446351931330478,-23.32653061224491,-26.2396694214876,7.09137055837564,-16.972350230414744,10.458823529411768,15.513352463684715,44.864111708263486,33.38941570721545,1703.1255164918575,64.17641162418069,2417.9175139528966,1
-28.061789421651007,42.7746339041946,-29.33182379580074,-120.42277717254672,124.48613285618428,-32.247175421209135,3.7649269311064586,-1.4941176470588218,-32.30701754385966,-48.5107296137339,-12.9591836734694,-4.198347107438014,17.406091370558382,-16.972350230414744,7.470588235294121,17.66480317772838,247.90191785127095,33.38941570721545,1703.1255164918575,64.17641162418069,2417.9175139528966,1
-25.644834404349968,46.05286671630679,-29.875586661177437,-121.25291209251655,124.55714605233727,-31.49197224975228,2.810438413361169,-1.4941176470588218,-32.30701754385966,-48.5107296137339,-12.9591836734694,-4.198347107438014,17.406091370558382,-16.972350230414744,7.470588235294121,17.66480317772838,247.90191785127095,33.857762593944734,1820.598273823745,65.72712182333359,2377.761136258491,1
-25.644834404349968,46.05286671630679,-29.875586661177437,-121.25291209251655,124.55714605233727,-31.49197224975228,2.810438413361169,-9.462745098039214,-47.903508771929836,-23.437768240343342,6.047619047619035,7.347107438016531,22.563451776649753,-18.14285714285714,5.976470588235298,17.610191012961266,202.45893762332307,33.857762593944734,1820.598273823745,65.72712182333359,2377.761136258491,1
-25.644834404349968,46.05286671630679,-29.875586661177437,-121.25291209251655,124.55714605233727,-31.49197224975228,2.810438413361169,15.439215686274512,12.254385964912267,-0.5450643776823978,-4.319727891156475,-9.446280991735534,19.984771573604068,-8.778801843317968,11.952941176470592,10.340148688144227,37.244369352388205,33.857762593944734,1820.598273823745,65.72712182333359,2377.761136258491,1
-24.8601087493821,47.31372549019609,-30.35660765747221,-122.12561803402329,124.52874077387607,-30.585728444003962,2.1210855949895517,15.439215686274512,12.254385964912267,-0.5450643776823978,-4.319727891156475,-9.446280991735534,19.984771573604068,-8.778801843317968,11.952941176470592,10.340148688144227,37.244369352388205,34.176813965683465,1878.6590833930877,66.5986503938972,2384.319062778928,1
-24.8601087493821,47.31372549019609,-30.35660765747221,-122.12561803402329,124.52874077387607,-30.585728444003962,2.1210855949895517,-3.48627450980392,-14.482456140350891,0.5450643776824089,-4.319727891156475,7.347107438016531,18.695431472081225,-12.290322580645157,8.964705882352945,8.766386286511194,37.28195545373568,34.176813965683465,1878.6590833930877,66.5986503938972,2384.319062778928,1
-24.8601087493821,47.31372549019609,-30.35660765747221,-122.12561803402329,124.52874077387607,-30.585728444003962,2.1210855949895517,-2.490196078431371,2.2280701754385817,1.635193133047216,-11.231292517006814,-19.942148760330575,14.827411167512697,-22.824884792626726,2.9882352941176507,9.770928989813955,74.80843855544082,34.176813965683465,1878.6590833930877,66.5986503938972,2384.319062778928,1
-24.514829461196236,47.56589724497395,-30.879456566488265,-123.04089499706696,124.4293222992619,-29.57879088206147,1.6438413361169069,-2.490196078431371,2.2280701754385817,1.635193133047216,-11.231292517006814,-19.942148760330575,14.827411167512697,-22.824884792626726,2.9882352941176507,9.770928989813955,74.80843855544082,34.32006109088615,1898.3021958807506,67.16208293617639,2411.4405536314025,1
-24.514829461196236,47.56589724497395,-30.879456566488265,-123.04089499706696,124.4293222992619,-29.57879088206147,1.6438413361169069,-12.450980392156861,-44.561403508771946,-10.35622317596566,-2.5918367346938904,6.2975206611570265,22.563451776649753,-11.119815668202762,2.9882352941176507,14.116183401464443,191.70421059423694,34.32006109088615,1898.3021958807506,67.16208293617639,2411.4405536314025,1
-24.514829461196236,47.56589724497395,-30.879456566488265,-123.04089499706696,124.4293222992619,-29.57879088206147,1.6438413361169069,0.4980392156862763,-32.30701754385966,-7.085836909871239,-25.054421768707495,-22.041322314049587,10.959390862944169,-14.63133640552995,10.458823529411768,15.379523568757516,108.43967585303122,34.32006109088615,1898.3021958807506,67.16208293617639,2411.4405536314025,1
-22.474542758279775,47.06155373541823,-31.38139151914368,-123.95617196011062,124.24468798926414,-28.169078295341933,1.166597077244262,0.4980392156862763,-32.30701754385966,-7.085836909871239,-25.054421768707495,-22.041322314049587,10.959390862944169,-14.63133640552995,10.458823529411768,15.379523568757516,108.43967585303122,33.63916267094723,1844.6493884399963,67.46637240489083,2454.789962123853,1
-22.474542758279775,47.06155373541823,-31.38139151914368,-123.95617196011062,124.24468798926414,-28.169078295341933,1.166597077244262,-11.454901960784312,-36.76315789473685,13.626609442060094,-0.8639455782313052,-9.446280991735534,19.984771573604068,-16.972350230414744,5.976470588235298,14.386061032475276,117.98680291316411,33.63916267094723,1844.6493884399963,67.46637240489083,2454.789962123853,1
-22.474542758279775,47.06155373541823,-31.38139151914368,-123.95617196011062,124.24468798926414,-28.169078295341933,1.166597077244262,9.462745098039218,-15.596491228070189,-22.347639484978536,0.8639455782312799,-4.198347107438014,23.852791878172596,-9.949308755760365,11.952941176470592,12.278026288395099,65.05734084654992,33.63916267094723,1844.6493884399963,67.46637240489083,2454.789962123853,1
-24.20093919920909,46.9354678580293,-31.234993824619185,-124.63730830470125,124.01744576157459,-26.96075322101092,1.0605427974947474,9.462745098039218,-15.596491228070189,-22.347639484978536,0.8639455782312799,-4.198347107438014,23.852791878172596,-9.949308755760365,11.952941176470592,12.278026288395099,65.05734084654992,34.12380029395252,1870.081235527464,67.60258999578325,2501.345540651667,1
-24.20093919920909,46.9354678580293,-31.234993824619185,-124.63730830470125,124.01744576157459,-26.96075322101092,1.0605427974947474,-0.49803921568627274,-14.482456140350891,5.995708154506444,-11.231292517006814,-32.53719008264463,12.248730964467011,-15.801843317972347,8.964705882352945,12.719995784373419,88.0654338964569,34.12380029395252,1870.081235527464,67.60258999578325,2501.345540651667,1
-24.20093919920909,46.9354678580293,-31.234993824619185,-124.63730830470125,124.01744576157459,-26.96075322101092,1.0605427974947474,-10.458823529411763,-14.482456140350891,22.347639484978547,-7.775510204081645,-12.595041322314048,14.827411167512697,-21.654377880184327,2.9882352941176507,13.391186877868947,42.96311519556344,34.12380029395252,1870.081235527464,67.60258999578325,2501.345540651667,1
-27.967622343054863,45.98982377761232,-30.963112391930835,-124.97787647699657,123.79020353388502,-26.457284440039643,1.6438413361169069,-10.458823529411763,-14.482456140350891,22.347639484978547,-7.775510204081645,-12.595041322314048,14.827411167512697,-21.654377880184327,2.9882352941176507,13.391186877868947,42.96311519556344,34.97351950419934,1900.0718637396815,67.3102708821799,2550.6150650466398,1
-27.967622343054863,45.98982377761232,-30.963112391930835,-124.97787647699657,123.79020353388502,-26.457284440039643,1.6438413361169069,13.447058823529414,30.078947368421034,28.88841201716739,0.8639455782312799,-4.198347107438014,17.406091370558382,-15.801843317972347,13.447058823529416,15.51646305085591,106.5554271781177,34.97351950419934,1900.0718637396815,67.3102708821799,2550.6150650466398,1
-27.967622343054863,45.98982377761232,-30.963112391930835,-124.97787647699657,123.79020353388502,-26.457284440039643,1.6438413361169069,6.4745098039215705,-7.7982456140351015,-12.536480686695274,-14.687074829931985,-2.099173553719006,14.827411167512697,-20.483870967741932,10.458823529411768,11.170698769121167,32.93770714054712,34.97351950419934,1900.0718637396815,67.3102708821799,2550.6150650466398,1
-30.729856648541762,46.80938198064037,-30.92128447920955,-125.16944607391268,123.53455602773427,-26.60832507433105,2.863465553235926,6.4745098039215705,-7.7982456140351015,-12.536480686695274,-14.687074829931985,-2.099173553719006,14.827411167512697,-20.483870967741932,10.458823529411768,11.170698769121167,32.93770714054712,36.15350770279723,2009.0711133500067,67.63337084458753,2545.9078751496654,1
-30.729856648541762,46.80938198064037,-30.92128447920955,-125.16944607391268,123.53455602773427,-26.60832507433105,2.863465553235926,16.43529411764706,15.59649122807016,-31.06866952789699,-14.687074829931985,-4.198347107438014,13.538071065989854,-22.824884792626726,7.470588235294121,15.727427613111864,70.45950443563775,36.15350770279723,2009.0711133500067,67.63337084458753,2545.9078751496654,1
-30.729856648541762,46.80938198064037,-30.92128447920955,-125.16944607391268,123.53455602773427,-26.60832507433105,2.863465553235926,-6.474509803921567,-17.824561403508785,1.635193133047216,6.047619047619035,3.148760330578515,22.563451776649753,-6.437788018433176,10.458823529411768,9.323838380396227,53.32375341318654,36.15350770279723,2009.0711133500067,67.63337084458753,2545.9078751496654,1
-32.173751853682646,48.51154132539092,-30.56574722107863,-125.36101567082879,123.26470588235294,-27.06144697720515,4.401252609603318,-6.474509803921567,-17.824561403508785,1.635193133047216,6.047619047619035,3.148760330578515,22.563451776649753,-6.437788018433176,10.458823529411768,9.323838380396227,53.32375341318654,37.083680133384064,2127.653296358856,68.14610140576612,2535.672692277447,1
-32.173751853682646,48.51154132539092,-30.56574722107863,-125.36101567082879,123.26470588235294,-27.06144697720515,4.401252609603318,-6.474509803921567,-13.368421052631593,1.635193133047216,-16.41496598639457,-17.84297520661157,12.248730964467011,-15.801843317972347,8.964705882352945,11.593918168424853,30.839256265115626,37.083680133384064,2127.653296358856,68.14610140576612,2535.672692277447,1
-32.173751853682646,48.51154132539092,-30.56574722107863,-125.36101567082879,123.26470588235294,-27.06144697720515,4.401252609603318,1.4941176470588253,-17.824561403508785,-0.5450643776823978,-4.319727891156475,-6.297520661157023,18.695431472081225,-18.14285714285714,4.482352941176474,8.975204192084792,61.84326804051572,37.083680133384064,2127.653296358856,68.14610140576612,2535.672692277447,1
-31.734305486900638,47.81806899975181,-30.712144915603126,-125.63772731081873,123.03746365466337,-27.564915758176426,5.83298538622131,1.4941176470588253,-17.824561403508785,-0.5450643776823978,-4.319727891156475,-6.297520661157023,18.695431472081225,-18.14285714285714,4.482352941176474,8.975204192084792,61.84326804051572,36.75483980075185,2082.769932714919,68.05598040872455,2559.8963419157885,1
-31.734305486900638,47.81806899975181,-30.712144915603126,-125.63772731081873,123.03746365466337,-27.564915758176426,5.83298538622131,-9.462745098039214,-36.76315789473685,-12.536480686695274,2.5918367346938647,1.0495867768595062,22.563451776649753,-13.460829493087553,5.976470588235298,13.050569881124664,138.5054878410626,36.75483980075185,2082.769932714919,68.05598040872455,2559.8963419157885,1
-31.734305486900638,47.81806899975181,-30.712144915603126,-125.63772731081873,123.03746365466337,-27.564915758176426,5.83298538622131,-3.48627450980392,-20.05263157894738,-16.8969957081545,-11.231292517006814,-25.1900826446281,4.512690355329955,-23.99539170506912,11.952941176470592,14.664787524426298,68.43155105775223,36.75483980075185,2082.769932714919,68.05598040872455,2559.8963419157885,1
-29.3173504695996,46.431124348473574,-31.151337999176615,-125.9995809938825,122.81022142697383,-27.464222001982193,6.734446764091842,-3.48627450980392,-20.05263157894738,-16.8969957081545,-11.231292517006814,-25.1900826446281,4.512690355329955,-23.99539170506912,11.952941176470592,14.664787524426298,68.43155105775223,35.63327093908327,1960.0389019079116,67.86068111384422,2593.466727165876,1
-29.3173504695996,46.431124348473574,-31.151337999176615,-125.9995809938825,122.81022142697383,-27.464222001982193,6.734446764091842,2.4901960784313744,-4.456140350877208,3.8154506437768294,0.8639455782312799,-5.2479338842975185,21.27411167512691,-19.313364055299537,10.458823529411768,8.489995724431553,61.03482401110108,35.63327093908327,1960.0389019079116,67.86068111384422,2593.466727165876,1
-29.3173504695996,46.431124348473574,-31.151337999176615,-125.9995809938825,122.81022142697383,-27.464222001982193,6.734446764091842,9.462745098039218,18.938596491228054,23.437768240343352,7.77551020408162,2.0991735537190106,18.695431472081225,-13.460829493087553,5.976470588235298,12.480815642601918,54.66760955754972,35.63327093908327,1960.0389019079116,67.86068111384422,2593.466727165876,1
-29.442906574394456,45.23330851327874,-30.795800741045696,-126.16986508003016,122.61138447774546,-27.16214073339944,7.317745302714002,9.462745098039218,18.938596491228054,23.437768240343352,7.77551020408162,2.0991735537190106,18.695431472081225,-13.460829493087553,5.976470588235298,12.480815642601918,54.66760955754972,35.15733860957297,1893.1321460754316,67.39965811145153,2642.5633280154984,1
-29.442906574394456,45.23330851327874,-30.795800741045696,-126.16986508003016,122.61138447774546,-27.16214073339944,7.317745302714002,-0.49803921568627274,-16.710526315789487,-9.266094420600853,-2.5918367346938904,-2.099173553719006,21.27411167512691,-18.14285714285714,7.470588235294121,9.75665341172096,64.64241156744642,35.15733860957297,1893.1321460754316,67.39965811145153,2642.5633280154984,1
-29.442906574394456,45.23330851327874,-30.795800741045696,-126.16986508003016,122.61138447774546,-27.16214073339944,7.317745302714002,3.4862745098039234,2.2280701754385817,-10.35622317596566,-16.41496598639457,1.7763568394002505e-15,18.695431472081225,-16.972350230414744,5.976470588235298,9.26622326729175,54.3165364740115,35.15733860957297,1893.1321460754316,67.39965811145153,2642.5633280154984,1
-32.80153237765694,43.40506329113925,-30.042898312062576,-126.14857956926171,122.54037128159247,-27.665609514370715,8.06012526096032,3.4862745098039234,2.2280701754385817,-10.35622317596566,-16.41496598639457,1.7763568394002505e-15,18.695431472081225,-16.972350230414744,5.976470588235298,9.26622326729175,54.3165364740115,35.416497993619586,1868.2763915001092,66.53218039082118,2710.2231514843897,1
-32.80153237765694,43.40506329113925,-30.042898312062576,-126.14857956926171,122.54037128159247,-27.665609514370715,8.06012526096032,1.4941176470588253,-17.824561403508785,10.35622317596567,-0.8639455782313052,-5.2479338842975185,14.827411167512697,-15.801843317972347,10.458823529411768,9.609357462994865,42.24361489141479,35.416497993619586,1868.2763915001092,66.53218039082118,2710.2231514843897,1
-32.80153237765694,43.40506329113925,-30.042898312062576,-126.14857956926171,122.54037128159247,-27.665609514370715,8.06012526096032,-11.454901960784312,-44.561403508771946,-1.6351931330472047,-4.319727891156475,2.0991735537190106,14.827411167512697,-21.654377880184327,7.470588235294121,13.502847166308761,204.09039085192532,35.416497993619586,1868.2763915001092,66.53218039082118,2710.2231514843897,1
-34.90459713297083,43.909406800694974,-28.850802799505967,-126.23372161233554,122.56877656005368,-28.97462834489596,9.173695198329824,-11.454901960784312,-44.561403508771946,-1.6351931330472047,-4.319727891156475,2.0991735537190106,14.827411167512697,-21.654377880184327,7.470588235294121,13.502847166308761,204.09039085192532,35.88826891105726,1923.7239571588257,66.33131040417884,2747.9145400294806,1
-34.90459713297083,43.909406800694974,-28.850802799505967,-126.23372161233554,122.56877656005368,-28.97462834489596,9.173695198329824,4.482352941176472,-14.482456140350891,-14.716738197424888,-14.687074829931985,-6.297520661157023,13.538071065989854,-15.801843317972347,8.964705882352945,11.62134537954455,19.240366428723892,35.88826891105726,1923.7239571588257,66.33131040417884,2747.9145400294806,1
-34.90459713297083,43.909406800694974,-28.850802799505967,-126.23372161233554,122.56877656005368,-28.97462834489596,9.173695198329824,-7.470588235294116,-37.87719298245615,-5.995708154506432,-11.231292517006814,-20.99173553719008,14.827411167512697,-14.63133640552995,-4.482352941176467,14.688452242584088,117.32134658880126,35.88826891105726,1923.7239571588257,66.33131040417884,2747.9145400294806,1
-31.82847256549678,43.594192107222646,-29.14359818855496,-126.4040056984832,122.55457392082307,-29.57879088206147,9.703966597077226,-7.470588235294116,-37.87719298245615,-5.995708154506432,-11.231292517006814,-20.99173553719008,14.827411167512697,-14.63133640552995,-4.482352941176467,14.688452242584088,117.32134658880126,34.855420953758134,1831.0955056443263,66.3805986647536,2754.311960103144,1
-31.82847256549678,43.594192107222646,-29.14359818855496,-126.4040056984832,122.55457392082307,-29.57879088206147,9.703966597077226,1.4941176470588253,-16.710526315789487,-32.1587982832618,-9.503401360544231,-7.347107438016527,21.27411167512691,-16.972350230414744,7.470588235294121,14.11637514818833,94.60554561980742,34.855420953758134,1831.0955056443263,66.3805986647536,2754.311960103144,1
-31.82847256549678,43.594192107222646,-29.14359818855496,-126.4040056984832,122.55457392082307,-29.57879088206147,9.703966597077226,-5.478431372549018,-31.192982456140363,-23.437768240343342,-2.5918367346938904,-4.198347107438014,21.27411167512691,-15.801843317972347,11.952941176470592,14.491032760091809,105.98953142027871,34.855420953758134,1831.0955056443263,66.3805986647536,2754.311960103144,1
-26.680672268907557,40.0637875403326,-30.042898312062576,-126.65943182770468,122.58297919928425,-28.722893954410324,8.802505219206694,-5.478431372549018,-31.192982456140363,-23.437768240343342,-2.5918367346938904,-4.198347107438014,21.27411167512691,-15.801843317972347,11.952941176470592,14.491032760091809,105.98953142027871,32.26245270710091,1563.5124800664948,65.58870589336662,2822.3297298415882,1
-26.680672268907557,40.0637875403326,-30.042898312062576,-126.65943182770468,122.58297919928425,-28.722893954410324,8.802505219206694,14.443137254901963,10.026315789473667,-5.995708154506432,4.31972789115645,3.148760330578515,21.27411167512691,-15.801843317972347,8.964705882352945,10.496788787008654,39.26370166818684,32.26245270710091,1563.5124800664948,65.58870589336662,2822.3297298415882,1
-26.680672268907557,40.0637875403326,-30.042898312062576,-126.65943182770468,122.58297919928425,-28.722893954410324,8.802505219206694,0.4980392156862763,-21.16666666666668,1.635193133047216,-2.5918367346938904,-14.694214876033056,21.27411167512691,-14.63133640552995,8.964705882352945,10.682013073642116,72.53911479911521,32.26245270710091,1563.5124800664948,65.58870589336662,2822.3297298415882,1
-23.730103806228367,35.77686770910897,-29.750102923013586,-126.93614346769462,122.72500559159023,-27.262834489593672,6.840501043841357,0.4980392156862763,-21.16666666666668,1.635193133047216,-2.5918367346938904,-14.694214876033056,21.27411167512691,-14.63133640552995,8.964705882352945,10.682013073642116,72.53911479911521,29.752358146116975,1311.8506547527195,64.15437136660573,2965.2436545615274,1
-23.730103806228367,35.77686770910897,-29.750102923013586,-126.93614346769462,122.72500559159023,-27.262834489593672,6.840501043841357,-13.44705882352941,-32.30701754385966,-1.6351931330472047,-7.775510204081645,1.7763568394002505e-15,17.406091370558382,-13.460829493087553,8.964705882352945,11.8745508063146,103.45591904059724,29.752358146116975,1311.8506547527195,64.15437136660573,2965.2436545615274,1
-23.730103806228367,35.77686770910897,-29.750102923013586,-126.93614346769462,122.72500559159023,-27.262834489593672,6.840501043841357,-2.490196078431371,-12.254385964912295,-11.446351931330467,-7.775510204081645,-9.446280991735534,21.27411167512691,-14.63133640552995,5.976470588235298,10.661830479922934,32.86654396274831,29.752358146116975,1311.8506547527195,64.15437136660573,2965.2436545615274,1
-25.927335640138402,35.65078183172004,-28.850802799505967,-127.0,122.89543726235739,-26.205550049554063,5.196659707724393,-2.490196078431371,-12.254385964912295,-11.446351931330467,-7.775510204081645,-9.446280991735534,21.27411167512691,-14.63133640552995,5.976470588235298,10.661830479922934,32.86654396274831,30.142973423788135,1326.8109385915182,63.83386154374201,3004.0307143160044,1
-25.927335640138402,35.65078183172004,-28.850802799505967,-127.0,122.89543726235739,-26.205550049554063,5.196659707724393,-8.466666666666665,-35.649122807017555,-2.7253218884120116,-6.04761904761906,-5.2479338842975185,18.695431472081225,-29.847926267281103,3.552713678800501e-15,13.335002754171892,175.9893942432804,30.142973423788135,1326.8109385915182,63.83386154374201,3004.0307143160044,1
-25.927335640138402,35.65078183172004,-28.850802799505967,-127.0,122.89543726235739,-26.205550049554063,5.196659707724393,7.4705882352941195,4.4561403508771775,2.725321888412023,-16.41496598639457,-18.892561983471072,12.248730964467011,-20.483870967741932,11.952941176470592,11.830640194141061,43.179295006089546,30.142973423788135,1326.8109385915182,63.83386154374201,3004.0307143160044,1
-29.12901631240731,35.9029535864979,-28.620749279538902,-126.74457387077851,123.06586893312458,-25.601387512388555,3.9240083507306736,7.4705882352941195,4.4561403508771775,2.725321888412023,-16.41496598639457,-18.892561983471072,12.248730964467011,-20.483870967741932,11.952941176470592,11.830640194141061,43.179295006089546,31.217573059481367,1398.7872793089032,63.756092245605096,2988.9192379756787,1
-29.12901631240731,35.9029535864979,-28.620749279538902,-126.74457387077851,123.06586893312458,-25.601387512388555,3.9240083507306736,-5.478431372549018,-21.16666666666668,10.35622317596567,-6.04761904761906,-23.09090909090909,17.406091370558382,-11.119815668202762,13.447058823529416,13.514101902000009,43.064890271291674,31.217573059481367,1398.7872793089032,63.756092245605096,2988.9192379756787,1
-29.12901631240731,35.9029535864979,-28.620749279538902,-126.74457387077851,123.06586893312458,-25.601387512388555,3.9240083507306736,-0.49803921568627274,-1.1140350877193121,9.266094420600865,7.77551020408162,-6.297520661157023,18.695431472081225,-13.460829493087553,11.952941176470592,8.632550216360558,37.84077912764742,31.217573059481367,1398.7872793089032,63.756092245605096,2988.9192379756787,1
-30.164854176964898,36.281211218664694,-28.265212021407986,-126.46786223078857,123.29311116081412,-25.24895936570863,2.5983298538621966,-0.49803921568627274,-1.1140350877193121,9.266094420600865,7.77551020408162,-6.297520661157023,18.695431472081225,-13.460829493087553,11.952941176470592,8.632550216360558,37.84077912764742,31.570425805679193,1430.8214999943414,63.67142849028708,2973.6081286765,1
-30.164854176964898,36.281211218664694,-28.265212021407986,-126.46786223078857,123.29311116081412,-25.24895936570863,2.5983298538621966,-3.48627450980392,-24.508771929824576,10.35622317596567,0.8639455782312799,-1.0495867768595017,22.563451776649753,-16.972350230414744,5.976470588235298,10.722134320748093,90.72975975376633,31.570425805679193,1430.8214999943414,63.67142849028708,2973.6081286765,1
-30.164854176964898,36.281211218664694,-28.265212021407986,-126.46786223078857,123.29311116081412,-25.24895936570863,2.5983298538621966,2.4901960784313744,-15.596491228070189,5.995708154506444,-0.8639455782313052,-2.099173553719006,25.14213197969544,-12.290322580645157,10.458823529411768,9.367099085338836,68.73978857496736,31.570425805679193,1430.8214999943414,63.67142849028708,2973.6081286765,1
-30.25902125556104,36.722511789525946,-29.05994236311239,-126.08472303695633,123.4493401923507,-24.594449950446005,1.325678496868477,2.4901960784313744,-15.596491228070189,5.995708154506444,-0.8639455782313052,-2.099173553719006,25.14213197969544,-12.290322580645157,10.458823529411768,9.367099085338836,68.73978857496736,32.01382513606646,1469.2158056007268,63.95572572986489,2909.6879723420843,1
-30.25902125556104,36.722511789525946,-29.05994236311239,-126.08472303695633,123.4493401923507,-24.594449950446005,1.325678496868477,-6.474509803921567,12.254385964912267,7.085836909871251,-4.319727891156475,-20.99173553719008,12.248730964467011,-14.63133640552995,3.552713678800501e-15,9.750782934631076,43.585231393387325,32.01382513606646,1469.2158056007268,63.95572572986489,2909.6879723420843,1
-30.25902125556104,36.722511789525946,-29.05994236311239,-126.08472303695633,123.4493401923507,-24.594449950446005,1.325678496868477,10.458823529411767,23.394736842105246,-15.806866952789694,-6.04761904761906,-14.694214876033056,7.09137055837564,-23.99539170506912,7.470588235294121,13.619951468337213,50.98611648862977,32.01382513606646,1469.2158056007268,63.95572572986489,2909.6879723420843,1
-31.04374691052891,37.163812360387205,-29.561877315767806,-125.61644180005028,123.52035338850366,-24.09098116947473,0.5832985386221026,10.458823529411767,23.394736842105246,-15.806866952789694,-6.04761904761906,-14.694214876033056,7.09137055837564,-23.99539170506912,7.470588235294121,13.619951468337213,50.98611648862977,32.5898121955613,1517.7974569916587,64.11404382540177,2851.3560715796907,1
-31.04374691052891,37.163812360387205,-29.561877315767806,-125.61644180005028,123.52035338850366,-24.09098116947473,0.5832985386221026,-6.474509803921567,-27.85087719298247,-10.35622317596566,-14.687074829931985,2.0991735537190106,17.406091370558382,-12.290322580645157,13.447058823529416,13.076416416406705,58.837828476652554,32.5898121955613,1517.7974569916587,64.11404382540177,2851.3560715796907,1
-31.04374691052891,37.163812360387205,-29.561877315767806,-125.61644180005028,123.52035338850366,-24.09098116947473,0.5832985386221026,-3.48627450980392,-7.7982456140351015,4.9055793991416365,0.8639455782312799,1.0495867768595062,21.27411167512691,-11.119815668202762,4.482352941176474,6.872489020322199,45.337180213481645,32.5898121955613,1517.7974569916587,64.11404382540177,2851.3560715796907,1
-30.76124567474048,37.79424174733185,-30.00107039934129,-125.29715913852343,123.59136658465665,-23.587512388503512,-0.15908141962421496,-3.48627450980392,-7.7982456140351015,4.9055793991416365,0.8639455782312799,1.0495867768595062,21.27411167512691,-11.119815668202762,4.482352941176474,6.872489020322199,45.337180213481645,32.85218594047121,1549.439511865349,64.36415709506552,2799.8064334358196,1
-30.76124567474048,37.79424174733185,-30.00107039934129,-125.29715913852343,123.59136658465665,-23.587512388503512,-0.15908141962421496,13.447058823529414,1.1140350877192837,17.98712446351932,9.503401360544204,5.247933884297524,22.563451776649753,-15.801843317972347,10.458823529411768,12.015459030455453,48.09730162310177,32.85218594047121,1549.439511865349,64.36415709506552,2799.8064334358196,1
-30.76124567474048,37.79424174733185,-30.00107039934129,-125.29715913852343,123.59136658465665,-23.587512388503512,-0.15908141962421496,0.4980392156862763,-44.561403508771946,0.5450643776824089,-6.04761904761906,8.396694214876035,19.984771573604068,-16.972350230414744,4.482352941176474,12.686036888728875,216.20014147653959,32.85218594047121,1549.439511865349,64.36415709506552,2799.8064334358196,1
-29.568462679189317,36.53338297344255,-31.736928777274596,-124.80759239084891,123.54875866696487,-22.429534192269614,-1.0605427974948043,0.4980392156862763,-44.561403508771946,0.5450643776824089,-6.04761904761906,8.396694214876035,19.984771573604068,-16.972350230414744,4.482352941176474,12.686036888728875,216.20014147653959,32.612924809968824,1505.8319517405032,64.35930138052201,2746.248407765859,1
-29.568462679189317,36.53338297344255,-31.736928777274596,-124.80759239084891,123.54875866696487,-22.429534192269614,-1.0605427974948043,12.450980392156865,3.3421052631578796,-11.446351931330467,-44.061224489795926,-13.644628099173552,16.11675126903554,-15.801843317972347,17.929411764705886,16.849162065916058,140.64865195868086,32.612924809968824,1505.8319517405032,64.35930138052201,2746.248407765859,1
-29.568462679189317,36.53338297344255,-31.736928777274596,-124.80759239084891,123.54875866696487,-22.429534192269614,-1.0605427974948043,-10.458823529411763,-34.53508771929826,-11.446351931330467,-30.238095238095248,-10.49586776859504,18.695431472081225,-14.63133640552995,2.9882352941176507,16.68615366980745,114.66954407878265,32.612924809968824,1505.8319517405032,64.35930138052201,2746.248407765859,1
-28.626791893227875,35.77686770910897,-34.058377933305884,-124.08388502472135,123.29311116081412,-20.617046580773092,-1.5908141962422064,-10.458823529411763,-34.53508771929826,-11.446351931330467,-30.238095238095248,-10.49586776859504,18.695431472081225,-14.63133640552995,2.9882352941176507,16.68615366980745,114.66954407878265,32.82067917854758,1509.0491718368114,64.63971022237874,2650.9457402259836,1
-28.626791893227875,35.77686770910897,-34.058377933305884,-124.08388502472135,123.29311116081412,-20.617046580773092,-1.5908141962422064,0.4980392156862763,10.026315789473667,-5.995708154506432,23.326530612244884,-10.49586776859504,16.11675126903554,-22.824884792626726,4.482352941176474,11.720806317918129,70.40170821159623,32.82067917854758,1509.0491718368114,64.63971022237874,2650.9457402259836,1
-28.626791893227875,35.77686770910897,-34.058377933305884,-124.08388502472135,123.29311116081412,-20.617046580773092,-1.5908141962422064,-3.48627450980392,-14.482456140350891,-1.6351931330472047,18.142857142857128,11.545454545454547,30.29949238578681,-15.801843317972347,13.447058823529416,13.605078749850282,79.26083259043973,32.82067917854758,1509.0491718368114,64.63971022237874,2650.9457402259836,1
-28.78373702422145,36.53338297344255,-36.25434335117332,-122.99832397553004,122.79601878774322,-18.099702675916774,-1.7498956158664214,-3.48627450980392,-14.482456140350891,-1.6351931330472047,18.142857142857128,11.545454545454547,30.29949238578681,-15.801843317972347,13.447058823529416,13.605078749850282,79.26083259043973,33.85715444961244,1603.364871198118,65.2620167667153,2500.1303433606736,1
-28.78373702422145,36.53338297344255,-36.25434335117332,-122.99832397553004,122.79601878774322,-18.099702675916774,-1.7498956158664214,1.4941176470588253,-33.42105263157896,-24.52789699570815,-7.775510204081645,1.0495867768595062,17.406091370558382,-18.14285714285714,-2.9882352941176435,13.350668507852532,142.5027291915522,33.85715444961244,1603.364871198118,65.2620167667153,2500.1303433606736,1
-28.78373702422145,36.53338297344255,-36.25434335117332,-122.99832397553004,122.79601878774322,-18.099702675916774,-1.7498956158664214,1.4941176470588253,-32.30701754385966,-4.905579399141626,-12.9591836734694,-6.297520661157023,25.14213197969544,-6.437788018433176,10.458823529411768,12.500270306528364,115.79207572972737,33.85715444961244,1603.364871198118,65.2620167667153,2500.1303433606736,1
-29.945130993573894,39.811615785554736,-37.69740634005763,-121.63605128634877,122.07168418698278,-15.280277502477702,-1.2726513569937197,1.4941176470588253,-32.30701754385966,-4.905579399141626,-12.9591836734694,-6.297520661157023,25.14213197969544,-6.437788018433176,10.458823529411768,12.500270306528364,115.79207572972737,35.81805103972875,1822.2916675206402,66.38169113732037,2290.90070700376,1
-29.945130993573894,39.811615785554736,-37.69740634005763,-121.63605128634877,122.07168418698278,-15.280277502477702,-1.2726513569937197,-8.466666666666665,-26.73684210526317,-0.5450643776823978,-6.04761904761906,-6.297520661157023,27.720812182741124,-8.778801843317968,8.964705882352945,11.694754095850044,99.2587546482564,35.81805103972875,1822.2916675206402,66.38169113732037,2290.90070700376,1
-29.945130993573894,39.811615785554736,-37.69740634005763,-121.63605128634877,122.07168418698278,-15.280277502477702,-1.2726513569937197,-9.462745098039214,-20.05263157894738,-5.995708154506432,-9.503401360544231,-9.446280991735534,13.538071065989854,-18.14285714285714,5.976470588235298,11.514770747606885,27.798318218043644,35.81805103972875,1822.2916675206402,66.38169113732037,2290.90070700376,1
-28.909293129016305,41.07247455944404,-40.70901605599012,-119.9332104248722,121.09170208007156,-11.252527254707672,-0.7954070981210748,-9.462745098039214,-20.05263157894738,-5.995708154506432,-9.503401360544231,-9.446280991735534,13.538071065989854,-18.14285714285714,5.976470588235298,11.514770747606885,27.798318218043644,36.89692791481682,1954.148912872888,67.23823368010211,2082.603456119828,1
-28.909293129016305,41.07247455944404,-40.70901605599012,-119.9332104248722,121.09170208007156,-11.252527254707672,-0.7954070981210748,-24.40392156862745,-56.81578947368422,-21.257510729613728,-26.78231292517008,-46.18181818181818,1.9340101522842694,-22.824884792626726,-4.482352941176467,25.58532509562514,347.63658100430064,36.89692791481682,1954.148912872888,67.23823368010211,2082.603456119828,1
-28.909293129016305,41.07247455944404,-40.70901605599012,-119.9332104248722,121.09170208007156,-11.252527254707672,-0.7954070981210748,19.423529411764708,36.76315789473682,-22.347639484978536,-19.87074829931974,-24.140495867768593,12.248730964467011,-16.972350230414744,8.964705882352945,20.09141975447539,70.70961351527669,36.89692791481682,1954.148912872888,67.23823368010211,2082.603456119828,1
-23.981216015818084,38.42467113427651,-45.58196788801976,-118.06008547724797,119.87027510624021,-5.261248761149659,-1.325678496868477,19.423529411764708,36.76315789473682,-22.347639484978536,-19.87074829931974,-24.140495867768593,12.248730964467011,-16.972350230414744,8.964705882352945,20.09141975447539,70.70961351527669,35.99595167937145,1903.0337720428595,67.35557483318141,1941.0172739459797,1
-23.981216015818084,38.42467113427651,-45.58196788801976,-118.06008547724797,119.87027510624021,-5.261248761149659,-1.325678496868477,-32.372549019607845,-98.03508771929825,28.88841201716739,-11.231292517006814,11.545454545454547,26.43147208121828,-6.437788018433176,-2.9882352941176435,27.241286401537995,937.8765797047615,35.99595167937145,1903.0337720428595,67.35557483318141,1941.0172739459797,1
-23.981216015818084,38.42467113427651,-45.58196788801976,-118.06008547724797,119.87027510624021,-5.261248761149659,-1.325678496868477,-1.4941176470588218,-20.05263157894738,21.25751072961374,31.96598639455781,-19.942148760330575,8.380710659898483,-9.949308755760365,8.964705882352945,15.250890051065015,94.94422788602738,35.99595167937145,1903.0337720428595,67.35557483318141,1941.0172739459797,1
-18.83341571922886,40.00074460163813,-52.169864141622064,-115.5058241850331,118.02393200626257,3.851536174430123,-2.492275574112739,-1.4941176470588218,-20.05263157894738,21.25751072961374,31.96598639455781,-19.942148760330575,8.380710659898483,-9.949308755760365,8.964705882352945,15.250890051065015,94.94422788602738,37.001341487496354,2178.0330550305857,69.22547764276443,1643.4247246489645,1
-18.83341571922886,40.00074460163813,-52.169864141622064,-115.5058241850331,118.02393200626257,3.851536174430123,-2.492275574112739,6.4745098039215705,31.192982456140335,2.725321888412023,9.503401360544204,-18.892561983471072,10.959390862944169,-21.654377880184327,13.447058823529416,14.35620063239339,84.37601350175781,37.001341487496354,2178.0330550305857,69.22547764276443,1643.4247246489645,1
-18.83341571922886,40.00074460163813,-52.169864141622064,-115.5058241850331,118.02393200626257,3.851536174430123,-2.492275574112739,9.462745098039218,21.16666666666665,17.98712446351932,-16.41496598639457,-8.396694214876032,17.406091370558382,-22.824884792626726,11.952941176470592,15.701514221143935,27.940477968256364,37.001341487496354,2178.0330550305857,69.22547764276443,1643.4247246489645,1
-23.133712308452786,40.94638868205511,-56.708192671881434,-111.69571775747926,115.62368597629164,13.769871159563877,-2.7574112734864116,9.462745098039218,21.16666666666665,17.98712446351932,-16.41496598639457,-8.396694214876032,17.406091370558382,-22.824884792626726,11.952941176470592,15.701514221143935,27.940477968256364,40.26276455412978,2461.653722340093,69.7834330371386,1379.5883241126019,1
-23.133712308452786,40.94638868205511,-56.708192671881434,-111.69571775747926,115.62368597629164,13.769871159563877,-2.7574112734864116,-3.48627450980392,-25.62280701754387,21.25751072961374,-26.78231292517008,-9.446280991735534,18.695431472081225,-8.778801843317968,8.964705882352945,15.37926567145241,77.40951322512981,40.26276455412978,2461.653722340093,69.7834330371386,1379.5883241126019,1
-23.133712308452786,40.94638868205511,-56.708192671881434,-111.69571775747926,115.62368597629164,13.769871159563877,-2.7574112734864116,3.4862745098039234,-1.1140350877193121,5.995708154506444,-19.87074829931974,5.247933884297524,29.010152284263967,2.9262672811059964,20.917647058823533,11.071095819980055,111.26825448999962,40.26276455412978,2461.653722340093,69.7834330371386,1379.5883241126019,1
-37.76099851705388,41.57681806899976,-56.248085631947305,-106.69362272689182,113.08141355401476,21.070168483647137,-0.3711899791231872,3.4862745098039234,-1.1140350877193121,5.995708154506444,-19.87074829931974,5.247933884297524,29.010152284263967,2.9262672811059964,20.917647058823533,11.071095819980055,111.26825448999962,45.195300739333646,2700.9955524559186,68.17284214261296,1166.6994255925154,1
-37.76099851705388,41.57681806899976,-56.248085631947305,-106.69362272689182,113.08141355401476,21.070168483647137,-0.3711899791231872,13.447058823529414,-17.824561403508785,-52.87124463519313,-83.80272108843538,-50.3801652892562,-12.248730964467,-28.677419354838705,4.482352941176474,32.966781812550636,736.144522896587,45.195300739333646,2700.9955524559186,68.17284214261296,1166.6994255925154,1
-37.76099851705388,41.57681806899976,-56.248085631947305,-106.69362272689182,113.08141355401476,21.070168483647137,-0.3711899791231872,4.482352941176472,-13.368421052631593,28.88841201716739,25.05442176870747,16.79338842975207,8.380710659898483,-27.50691244239631,2.9882352941176507,15.93285682573093,106.86244910540424,45.195300739333646,2700.9955524559186,68.17284214261296,1166.6994255925154,1
-57.94414236282748,44.53983618763962,-59.19695347879786,-100.05254336713315,110.18407515097293,25.6013875123885,5.0906054279749355,4.482352941176472,-13.368421052631593,28.88841201716739,25.05442176870747,16.79338842975207,8.380710659898483,-27.50691244239631,2.9882352941176507,15.93285682573093,106.86244910540424,53.893644009754986,3544.3094875872653,67.92977767785688,827.6118284678014,1
-57.94414236282748,44.53983618763962,-59.19695347879786,-100.05254336713315,110.18407515097293,25.6013875123885,5.0906054279749355,-6.474509803921567,-41.21929824561405,5.995708154506444,30.238095238095227,2.0991735537190106,29.010152284263967,-2.9262672811059858,26.894117647058827,18.107165276035637,235.16247709626523,53.893644009754986,3544.3094875872653,67.92977767785688,827.6118284678014,1
-57.94414236282748,44.53983618763962,-59.19695347879786,-100.05254336713315,110.18407515097293,25.6013875123885,5.0906054279749355,23.407843137254904,43.447368421052616,-11.446351931330467,19.870748299319715,-25.1900826446281,8.380710659898483,-26.336405529953915,7.470588235294121,20.69376235734154,141.4006670249183,53.893644009754986,3544.3094875872653,67.92977767785688,827.6118284678014,1
-67.1097380128522,49.52022834450237,-64.21630300535199,-93.83717422274366,107.3719525833147,28.823587710604556,10.870563674321488,23.407843137254904,43.447368421052616,-11.446351931330467,19.870748299319715,-25.1900826446281,8.380710659898483,-26.336405529953915,7.470588235294121,20.69376235734154,141.4006670249183,60.28208978756885,4424.486597026115,69.19123519086601,509.5603856815893,1
-67.1097380128522,49.52022834450237,-64.21630300535199,-93.83717422274366,107.3719525833147,28.823587710604556,10.870563674321488,21.415686274509806,15.59649122807016,-29.978540772532185,14.687074829931959,5.247933884297524,19.984771573604068,-11.119815668202762,13.447058823529416,16.434671631834735,55.274767768197826,60.28208978756885,4424.486597026115,69.19123519086601,509.5603856815893,1
-67.1097380128522,49.52022834450237,-64.21630300535199,-93.83717422274366,107.3719525833147,28.823587710604556,10.870563674321488,-19.423529411764704,-53.47368421052633,-23.437768240343342,-4.319727891156475,9.44628099173554,29.010152284263967,-15.801843317972347,7.470588235294121,20.297946822882103,249.28190945144837,60.28208978756885,4424.486597026115,69.19123519086601,509.5603856815893,1
-62.49555116164112,54.94192107222637,-67.95990119390696,-87.83466018603872,104.14795347796912,33.45550049554009,16.06722338204594,-19.423529411764704,-53.47368421052633,-23.437768240343342,-4.319727891156475,9.44628099173554,29.010152284263967,-15.801843317972347,7.470588235294121,20.297946822882103,249.28190945144837,61.799124475924806,4821.0461537152905,70.24549415072401,274.40102297551897,1
-62.49555116164112,54.94192107222637,-67.95990119390696,-87.83466018603872,104.14795347796912,33.45550049554009,16.06722338204594,-7.470588235294116,-50.13157894736843,13.626609442060094,54.428571428571416,14.694214876033062,22.563451776649753,-7.608294930875572,8.964705882352945,22.436001939900677,364.7752449733982,61.799124475924806,4821.0461537152905,70.24549415072401,274.40102297551897,1
-62.49555116164112,54.94192107222637,-67.95990119390696,-87.83466018603872,104.14795347796912,33.45550049554009,16.06722338204594,5.4784313725490215,-24.508771929824576,-4.905579399141626,-4.319727891156475,14.694214876033062,25.14213197969544,-22.824884792626726,2.9882352941176507,13.107747191893072,96.69503511590104,61.799124475924806,4821.0461537152905,70.24549415072401,274.40102297551897,1
-65.10084033613444,57.33755274261605,-73.20930424042817,-81.04458225090087,100.34164616416909,38.79226957383548,21.422964509394546,5.4784313725490215,-24.508771929824576,-4.905579399141626,-4.319727891156475,14.694214876033062,25.14213197969544,-22.824884792626726,2.9882352941176507,13.107747191893072,96.69503511590104,65.21589910639288,5349.898192457542,70.53047974464836,145.8878875360643,1
-65.10084033613444,57.33755274261605,-73.20930424042817,-81.04458225090087,100.34164616416909,38.79226957383548,21.422964509394546,-11.454901960784312,-27.85087719298247,26.708154506437776,-21.598639455782326,-40.93388429752066,1.9340101522842694,-28.677419354838705,-4.482352941176467,20.455029982725875,180.17943111016908,65.21589910639288,5349.898192457542,70.53047974464836,145.8878875360643,1
-65.10084033613444,57.33755274261605,-73.20930424042817,-81.04458225090087,100.34164616416909,38.79226957383548,21.422964509394546,-18.427450980392155,-73.5263157894737,12.536480686695285,-11.231292517006814,-4.198347107438014,13.538071065989854,-16.972350230414744,1.494117647058827,18.990553253058675,519.2949980671428,65.21589910639288,5349.898192457542,70.53047974464836,145.8878875360643,1
-82.6159169550173,60.36361379995037,-77.7894606834088,-72.72194754043409,95.88201744576156,42.06481665014866,29.217954070981193,-18.427450980392155,-73.5263157894737,12.536480686695285,-11.231292517006814,-4.198347107438014,13.538071065989854,-16.972350230414744,1.494117647058827,18.990553253058675,519.2949980671428,73.58966381279215,6592.118814042848,70.29167400793109,80.34470698352295,1
-82.6159169550173,60.36361379995037,-77.7894606834088,-72.72194754043409,95.88201744576156,42.06481665014866,29.217954070981193,16.43529411764706,37.87719298245612,10.35622317596567,25.05442176870747,-2.099173553719006,21.27411167512691,-18.14285714285714,8.964705882352945,17.525497537354042,121.30787316881121,73.58966381279215,6592.118814042848,70.29167400793109,80.34470698352295,1
-82.6159169550173,60.36361379995037,-77.7894606834088,-72.72194754043409,95.88201744576156,42.06481665014866,29.217954070981193,7.4705882352941195,6.684210526315773,15.806866952789704,0.8639455782312799,-15.74380165289256,22.563451776649753,-6.437788018433176,17.929411764705886,11.687508063164032,54.02780190229273,73.58966381279215,6592.118814042848,70.29167400793109,80.34470698352295,1
-94.7320810677212,67.61355174981387,-84.08456154796212,-63.42017933461829,90.6270409304406,44.129038652130816,38.55073068893529,7.4705882352941195,6.684210526315773,15.806866952789704,0.8639455782312799,-15.74380165289256,22.563451776649753,-6.437788018433176,17.929411764705886,11.687508063164032,54.02780190229273,82.14339812183239,8246.965290825741,71.70609754413142,119.31587137373003,1
-94.7320810677212,67.61355174981387,-84.08456154796212,-63.42017933461829,90.6270409304406,44.129038652130816,38.55073068893529,4.482352941176472,20.05263157894735,9.266094420600865,-42.33333333333334,-13.644628099173552,13.538071065989854,-21.654377880184327,8.964705882352945,16.74202440021984,139.50590957141122,82.14339812183239,8246.965290825741,71.70609754413142,119.31587137373003,1
-94.7320810677212,67.61355174981387,-84.08456154796212,-63.42017933461829,90.6270409304406,44.129038652130816,38.55073068893529,-7.470588235294116,-33.42105263157896,-26.708154506437765,-16.41496598639457,-12.595041322314048,16.11675126903554,-18.14285714285714,3.552713678800501e-15,16.358676386739017,108.89296153354086,82.14339812183239,8246.965290825741,71.70609754413142,119.31587137373003,1
-91.84429065743944,75.17870439314967,-90.27509263071222,-54.09712561803403,84.69033773205098,47.703666997026744,46.55782881002091,-7.470588235294116,-33.42105263157896,-26.708154506437765,-16.41496598639457,-12.595041322314048,16.11675126903554,-18.14285714285714,3.552713678800501e-15,16.358676386739017,108.89296153354086,85.76602922710045,9212.350367954914,73.18364088063197,330.1965331068425,1
-91.84429065743944,75.17870439314967,-90.27509263071222,-54.09712561803403,84.69033773205098,47.703666997026744,46.55782881002091,3.4862745098039234,-41.21929824561405,-28.888412017167376,-11.231292517006814,4.198347107438019,29.010152284263967,-8.778801843317968,14.941176470588239,17.719219374400044,188.51746093001344,85.76602922710045,9212.350367954914,73.18364088063197,330.1965331068425,1
-91.84429065743944,75.17870439314967,-90.27509263071222,-54.09712561803403,84.69033773205098,47.703666997026744,46.55782881002091,-10.458823529411763,-15.596491228070189,5.995708154506444,-11.231292517006814,-11.545454545454543,14.827411167512697,-18.14285714285714,5.976470588235298,11.72181360913186,19.078824345029382,85.76602922710045,9212.350367954914,73.18364088063197,330.1965331068425,1
-93.06846267918931,81.23082650781834,-96.46562371346232,-44.43350372915445,78.0435025721315,51.73141724479683,53.82254697286015,-10.458823529411763,-15.596491228070189,5.995708154506444,-11.231292517006814,-11.545454545454543,14.827411167512697,-18.14285714285714,5.976470588235298,11.72181360913186,19.078824345029382,90.25497096682334,10327.968555905496,74.04331798347836,715.5805866059472,1
-93.06846267918931,81.23082650781834,-96.46562371346232,-44.43350372915445,78.0435025721315,51.73141724479683,53.82254697286015,2.4901960784313744,-18.938596491228083,-7.085836909871239,-7.775510204081645,-1.0495867768595017,22.563451776649753,-18.14285714285714,3.552713678800501e-15,9.755754422497342,79.07363659750442,90.25497096682334,10327.968555905496,74.04331798347836,715.5805866059472,1
-93.06846267918931,81.23082650781834,-96.46562371346232,-44.43350372915445,78.0435025721315,51.73141724479683,53.82254697286015,11.454901960784316,-7.7982456140351015,-9.266094420600853,-9.503401360544231,-1.0495867768595017,22.563451776649753,-14.63133640552995,16.43529411764706,11.587789054081345,41.19908596409857,90.25497096682334,10327.968555905496,74.04331798347836,715.5805866059472,1
-104.43129016312407,79.08736659220651,-101.5058871963771,-33.726891812620465,70.72914336837395,53.74529236868182,61.35240083507307,11.454901960784316,-7.7982456140351015,-9.266094420600853,-9.503401360544231,-1.0495867768595017,22.563451776649753,-14.63133640552995,16.43529411764706,11.587789054081345,41.19908596409857,95.0081813172359,11050.263112291077,71.4400485337347,1192.3591589233977,1
-104.43129016312407,79.08736659220651,-101.5058871963771,-33.726891812620465,70.72914336837395,53.74529236868182,61.35240083507307,-2.490196078431371,-8.912280701754401,21.25751072961374,14.687074829931959,2.0991735537190106,21.27411167512691,-18.14285714285714,5.976470588235298,11.85495941245873,64.39672501425443,95.0081813172359,11050.263112291077,71.4400485337347,1192.3591589233977,1
-104.43129016312407,79.08736659220651,-101.5058871963771,-33.726891812620465,70.72914336837395,53.74529236868182,61.35240083507307,5.4784313725490215,-5.570175438596506,-21.257510729613728,11.23129251700679,-12.595041322314048,13.538071065989854,-14.63133640552995,11.952941176470592,12.031850003508811,25.686240652250156,95.0081813172359,11050.263112291077,71.4400485337347,1192.3591589233977,1
-113.12605042016807,86.33730454207,-105.10308769040758,-22.743568256096538,62.70465220308655,54.29910802775021,69.04133611691026,5.4784313725490215,-5.570175438596506,-21.257510729613728,11.23129251700679,-12.595041322314048,13.538071065989854,-14.63133640552995,11.952941176470592,12.031850003508811,25.686240652250156,101.52214755088188,12749.903613646627,71.39465349619137,1863.2347255718378,1
-113.12605042016807,86.33730454207,-105.10308769040758,-22.743568256096538,62.70465220308655,54.29910802775021,69.04133611691026,15.439215686274512,8.91228070175437,-38.69957081545064,-6.04761904761906,10.495867768595044,26.43147208121828,-12.290322580645157,16.43529411764706,16.843955349900515,116.03354708425266,101.52214755088188,12749.903613646627,71.39465349619137,1863.2347255718378,1
-113.12605042016807,86.33730454207,-105.10308769040758,-22.743568256096538,62.70465220308655,54.29910802775021,69.04133611691026,-2.490196078431371,-8.912280701754401,-15.806866952789694,-23.32653061224491,-13.644628099173552,18.695431472081225,-12.290322580645157,5.976470588235298,12.64284088566945,46.19253650295018,101.52214755088188,12749.903613646627,71.39465349619137,1863.2347255718378,1
-123.1705388037568,100.39587987093573,-109.4741045697818,-11.760244699572624,53.70017893088793,53.14112983151631,77.31356993736955,-2.490196078431371,-8.912280701754401,-15.806866952789694,-23.32653061224491,-13.644628099173552,18.695431472081225,-12.290322580645157,5.976470588235298,12.64284088566945,46.19253650295018,111.01350774815812,15702.491039816756,73.8767430467634,2914.4480661080993,1
-123.1705388037568,100.39587987093573,-109.4741045697818,-11.760244699572624,53.70017893088793,53.14112983151631,77.31356993736955,2.4901960784313744,-33.42105263157896,-15.806866952789694,-11.231292517006814,-15.74380165289256,13.538071065989854,-18.14285714285714,10.458823529411768,15.10412019636977,77.68402118934375,111.01350774815812,15702.491039816756,73.8767430467634,2914.4480661080993,1
-123.1705388037568,100.39587987093573,-109.4741045697818,-11.760244699572624,53.70017893088793,53.14112983151631,77.31356993736955,-16.435294117647057,-37.87719298245615,0.5450643776824089,-6.04761904761906,-10.49586776859504,14.827411167512697,-15.801843317972347,-1.49411764705882,12.940551303317948,140.5649271356592,111.01350774815812,15702.491039816756,73.8767430467634,2914.4480661080993,1
-124.52026693030153,99.45023579051875,-113.48958419102512,-0.649208078437951,44.26962648177141,51.07690782953415,83.67682672233815,-16.435294117647057,-37.87719298245615,0.5450643776824089,-6.04761904761906,-10.49586776859504,14.827411167512697,-15.801843317972347,-1.49411764705882,12.940551303317948,140.5649271356592,112.4866956372818,15937.971497413975,71.1963426866606,3781.949476950715,1
-124.52026693030153,99.45023579051875,-113.48958419102512,-0.649208078437951,44.26962648177141,51.07690782953415,83.67682672233815,-10.458823529411763,-12.254385964912295,-27.79828326180257,-2.5918367346938904,-2.099173553719006,13.538071065989854,-20.483870967741932,3.552713678800501e-15,11.153055634783914,93.02411466256886,112.4866956372818,15937.971497413975,71.1963426866606,3781.949476950715,1
-124.52026693030153,99.45023579051875,-113.48958419102512,-0.649208078437951,44.26962648177141,51.07690782953415,83.67682672233815,-9.462745098039214,-41.21929824561405,-32.1587982832618,-23.32653061224491,-11.545454545454543,13.538071065989854,-15.801843317972347,4.482352941176474,18.941886763719147,154.69935224376675,112.4866956372818,15937.971497413975,71.1963426866606,3781.949476950715,1
-121.13025210084034,96.17200297840657,-114.28431453272951,10.227687924243682,34.7538581972713,48.156788899900846,87.7599164926931,-9.462745098039214,-41.21929824561405,-32.1587982832618,-23.32653061224491,-11.545454545454543,13.538071065989854,-15.801843317972347,4.482352941176474,18.941886763719147,154.69935224376675,110.52885653732547,15259.833084010113,73.56133514512659,3090.377110184652,1
-121.13025210084034,96.17200297840657,-114.28431453272951,10.227687924243682,34.7538581972713,48.156788899900846,87.7599164926931,1.4941176470588253,-6.684210526315804,-21.257510729613728,-16.41496598639457,-3.1487603305785106,21.27411167512691,-15.801843317972347,11.952941176470592,12.253557673691411,60.30287107953617,110.52885653732547,15259.833084010113,73.56133514512659,3090.377110184652,1
-121.13025210084034,96.17200297840657,-114.28431453272951,10.227687924243682,34.7538581972713,48.156788899900846,87.7599164926931,0.4980392156862763,-11.140350877192997,40.87982832618027,4.31972789115645,-6.297520661157023,17.406091370558382,-16.972350230414744,7.470588235294121,13.123062100955034,160.4227066739806,110.52885653732547,15259.833084010113,73.56133514512659,3090.377110184652,1
-120.31413741967376,91.9481260858774,-113.84512144915603,20.913014330009204,25.138671438157004,43.77661050545089,90.09311064718162,0.4980392156862763,-11.140350877192997,40.87982832618027,4.31972789115645,-6.297520661157023,17.406091370558382,-16.972350230414744,7.470588235294121,13.123062100955034,160.4227066739806,108.70246165156907,14574.6629011904,75.5687539550142,2360.307006952118,1
-120.31413741967376,91.9481260858774,-113.84512144915603,20.913014330009204,25.138671438157004,43.77661050545089,90.09311064718162,-1.4941176470588218,-24.508771929824576,29.9785407725322,12.959183673469376,-2.099173553719006,25.14213197969544,-12.290322580645157,8.964705882352945,14.67961850241219,116.22676473715272,108.70246165156907,14574.6629011904,75.5687539550142,2360.307006952118,1
-120.31413741967376,91.9481260858774,-113.84512144915603,20.913014330009204,25.138671438157004,43.77661050545089,90.09311064718162,-6.474509803921567,-21.16666666666668,-49.60085836909871,2.5918367346938647,-8.396694214876032,19.984771573604068,-13.460829493087553,4.482352941176474,15.769814974640619,234.0848994332674,108.70246165156907,14574.6629011904,75.5687539550142,2360.307006952118,1
-125.68166089965398,95.03723008190619,-112.46480032935364,31.087488477331775,15.196823976738976,37.181169474727426,92.05511482254695,-6.474509803921567,-21.16666666666668,-49.60085836909871,2.5918367346938647,-8.396694214876032,19.984771573604068,-13.460829493087553,4.482352941176474,15.769814974640619,234.0848994332674,111.06123043697126,15324.767810709996,79.52983962953054,1835.9260900471281,1
-125.68166089965398,95.03723008190619,-112.46480032935364,31.087488477331775,15.196823976738976,37.181169474727426,92.05511482254695,-1.4941176470588218,-24.508771929824576,5.995708154506444,-0.8639455782313052,-4.198347107438014,19.984771573604068,-15.801843317972347,4.482352941176474,9.666232281226506,82.70368408417916,111.06123043697126,15324.767810709996,79.52983962953054,1835.9260900471281,1
-125.68166089965398,95.03723008190619,-112.46480032935364,31.087488477331775,15.196823976738976,37.181169474727426,92.05511482254695,6.4745098039215705,-12.254385964912295,-8.175965665236046,2.5918367346938647,-6.297520661157023,18.695431472081225,-14.63133640552995,8.964705882352945,9.760711573735614,26.728748909308063,111.06123043697126,15324.767810709996,79.52983962953054,1835.9260900471281,1
-126.84305486900642,106.19583023082652,-112.69485384932071,40.495684236989845,4.786289420711242,29.780178394449933,93.00960334029224,6.4745098039215705,-12.254385964912295,-8.175965665236046,2.5918367346938647,-6.297520661157023,18.695431472081225,-14.63133640552995,8.964705882352945,9.760711573735614,26.728748909308063,115.24457964971789,17070.07085629023,86.46212277237903,1595.2444307192197,1
-126.84305486900642,106.19583023082652,-112.69485384932071,40.495684236989845,4.786289420711242,29.780178394449933,93.00960334029224,-2.490196078431371,-21.16666666666668,-17.987124463519308,-31.965986394557834,-5.2479338842975185,19.984771573604068,-16.972350230414744,11.952941176470592,15.970996308495264,88.1247688939095,115.24457964971789,17070.07085629023,86.46212277237903,1595.2444307192197,1
-126.84305486900642,106.19583023082652,-112.69485384932071,40.495684236989845,4.786289420711242,29.780178394449933,93.00960334029224,-5.478431372549018,-37.87719298245615,-41.96995708154506,-25.054421768707495,-12.595041322314048,13.538071065989854,-12.290322580645157,3.552713678800501e-15,18.60042977177585,225.57926682882243,115.24457964971789,17070.07085629023,86.46212277237903,1595.2444307192197,1
-122.26025704399406,111.49143708116159,-115.89468917249897,49.563311824352624,-5.89409528069784,22.479881070366673,90.9415448851774,-5.478431372549018,-37.87719298245615,-41.96995708154506,-25.054421768707495,-12.595041322314048,13.538071065989854,-12.290322580645157,3.552713678800501e-15,18.60042977177585,225.57926682882243,116.54879443255156,17730.804228892102,92.31647935933772,1375.722157950845,1
-122.26025704399406,111.49143708116159,-115.89468917249897,49.563311824352624,-5.89409528069784,22.479881070366673,90.9415448851774,2.4901960784313744,-7.7982456140351015,13.626609442060094,-2.5918367346938904,-5.2479338842975185,17.406091370558382,-18.14285714285714,8.964705882352945,9.533559518660805,38.906828666031295,116.54879443255156,17730.804228892102,92.31647935933772,1375.722157950845,1
-122.26025704399406,111.49143708116159,-115.89468917249897,49.563311824352624,-5.89409528069784,22.479881070366673,90.9415448851774,-2.490196078431371,-15.596491228070189,3.8154506437768294,-7.775510204081645,-8.396694214876032,17.406091370558382,-16.972350230414744,5.976470588235298,9.80365681980556,36.11852927646857,116.54879443255156,17730.804228892102,92.31647935933772,1375.722157950845,1
-121.60108749382105,110.10449242988336,-117.46323589954713,58.37551328249391,-16.716506374412894,13.870564915758166,86.8054279749478,-2.490196078431371,-15.596491228070189,3.8154506437768294,-7.775510204081645,-8.396694214876032,17.406091370558382,-16.972350230414744,5.976470588235298,9.80365681980556,36.11852927646857,116.38960527441718,17581.944760102313,95.31441387064147,1036.8995588588657,1
-121.60108749382105,110.10449242988336,-117.46323589954713,58.37551328249391,-16.716506374412894,13.870564915758166,86.8054279749478,-9.462745098039214,-30.078947368421066,-21.257510729613728,-11.231292517006814,-9.446280991735534,16.11675126903554,-13.460829493087553,2.9882352941176507,14.255324095132138,69.38593857209365,116.38960527441718,17581.944760102313,95.31441387064147,1036.8995588588657,1
-121.60108749382105,110.10449242988336,-117.46323589954713,58.37551328249391,-16.716506374412894,13.870564915758166,86.8054279749478,3.4862745098039234,-15.596491228070189,41.96995708154507,2.5918367346938647,-7.347107438016527,19.984771573604068,-13.460829493087553,10.458823529411768,14.36201144852912,159.63036910083062,116.38960527441718,17581.944760102313,95.31441387064147,1036.8995588588657,1
-124.58304498269896,104.93497145693722,-117.19135446685878,66.86843207910836,-27.638335942742124,2.894945490584689,81.44968684759914,3.4862745098039234,-15.596491228070189,41.96995708154507,2.5918367346938647,-7.347107438016527,19.984771573604068,-13.460829493087553,10.458823529411768,14.36201144852912,159.63036910083062,115.569790302165,17012.210271245254,96.33158600096812,688.6128103888736,1
-124.58304498269896,104.93497145693722,-117.19135446685878,66.86843207910836,-27.638335942742124,2.894945490584689,81.44968684759914,-1.4941176470588218,-13.368421052631593,7.085836909871251,0.8639455782312799,-6.297520661157023,17.406091370558382,-18.14285714285714,7.470588235294121,9.016172324707451,44.1679122448478,115.569790302165,17012.210271245254,96.33158600096812,688.6128103888736,1
-124.58304498269896,104.93497145693722,-117.19135446685878,66.86843207910836,-27.638335942742124,2.894945490584689,81.44968684759914,-0.49803921568627274,-6.684210526315804,-36.519313304721024,-9.503401360544231,-9.446280991735534,19.984771573604068,-16.972350230414744,5.976470588235298,13.198104723907122,126.82629158893467,115.569790302165,17012.210271245254,96.33158600096812,688.6128103888736,1
-122.26025704399406,113.76098287416234,-118.80172910662824,74.78664208497445,-38.886826213375095,-8.4331020812686,73.54864300626303,-0.49803921568627274,-6.684210526315804,-36.519313304721024,-9.503401360544231,-9.446280991735534,19.984771573604068,-16.972350230414744,5.976470588235298,13.198104723907122,126.82629158893467,118.27432300826155,18300.56701864294,102.44978468858835,580.2893746759385,1
-122.26025704399406,113.76098287416234,-118.80172910662824,74.78664208497445,-38.886826213375095,-8.4331020812686,73.54864300626303,2.4901960784313744,-17.824561403508785,-19.077253218884117,-11.231292517006814,-5.2479338842975185,14.827411167512697,-13.460829493087553,7.470588235294121,11.453758249752873,35.555359224851536,118.27432300826155,18300.56701864294,102.44978468858835,580.2893746759385,1
-122.26025704399406,113.76098287416234,-118.80172910662824,74.78664208497445,-38.886826213375095,-8.4331020812686,73.54864300626303,-0.49803921568627274,-21.16666666666668,-1.6351931330472047,-0.8639455782313052,-4.198347107438014,14.827411167512697,-13.460829493087553,8.964705882352945,8.201892280502832,58.93798658556523,118.27432300826155,18300.56701864294,102.44978468858835,580.2893746759385,1
-112.05882352941177,124.54132539091587,-122.0015644298065,82.23657085393445,-50.220532319391644,-18.401783944499527,61.246346555323555,-0.49803921568627274,-21.16666666666668,-1.6351931330472047,-0.8639455782313052,-4.198347107438014,14.827411167512697,-13.460829493087553,8.964705882352945,8.201892280502832,58.93798658556523,119.5339044500447,19476.980847814408,109.59315355821894,562.8995593771618,1
-112.05882352941177,124.54132539091587,-122.0015644298065,82.23657085393445,-50.220532319391644,-18.401783944499527,61.246346555323555,3.4862745098039234,-5.570175438596506,-16.8969957081545,7.77551020408162,-5.2479338842975185,19.984771573604068,-11.119815668202762,7.470588235294121,9.694008152754378,34.82136124621264,119.5339044500447,19476.980847814408,109.59315355821894,562.8995593771618,1
-112.05882352941177,124.54132539091587,-122.0015644298065,82.23657085393445,-50.220532319391644,-18.401783944499527,61.246346555323555,-0.49803921568627274,-16.710526315789487,5.995708154506444,-14.687074829931985,-7.347107438016527,18.695431472081225,-19.313364055299537,5.976470588235298,11.152965258693348,49.751817301392244,119.5339044500447,19476.980847814408,109.59315355821894,562.8995593771618,1
-93.47652001977261,124.79349714569373,-124.90860436393578,89.5800720690522,-60.91511966003132,-26.306243805748295,43.588308977035524,-0.49803921568627274,-16.710526315789487,5.995708154506444,-14.687074829931985,-7.347107438016527,18.695431472081225,-19.313364055299537,5.976470588235298,11.152965258693348,49.751817301392244,114.39287384313404,18496.81930299281,113.09405785956058,414.6839582350949,1
-93.47652001977261,124.79349714569373,-124.90860436393578,89.5800720690522,-60.91511966003132,-26.306243805748295,43.588308977035524,6.4745098039215705,-8.912280701754401,19.077253218884128,19.870748299319715,1.7763568394002505e-15,21.27411167512691,-14.63133640552995,13.447058823529416,12.960912366008262,54.82021165236188,114.39287384313404,18496.81930299281,113.09405785956058,414.6839582350949,1
-93.47652001977261,124.79349714569373,-124.90860436393578,89.5800720690522,-60.91511966003132,-26.306243805748295,43.588308977035524,-8.466666666666665,-20.05263157894738,-13.626609442060081,-9.503401360544231,-9.446280991735534,18.695431472081225,-13.460829493087553,-4.482352941176467,12.216775493287392,27.97593905681944,114.39287384313404,18496.81930299281,113.09405785956058,414.6839582350949,1
-77.65645081562036,103.8632414991313,-127.0,97.43442554261291,-70.38828002683964,-34.71417244796834,21.741127348642976,-8.466666666666665,-20.05263157894738,-13.626609442060081,-9.503401360544231,-9.446280991735534,18.695431472081225,-13.460829493087553,-4.482352941176467,12.216775493287392,27.97593905681944,102.83989743825055,14780.336803273272,109.4325556805814,241.79374358760083,1
-77.65645081562036,103.8632414991313,-127.0,97.43442554261291,-70.38828002683964,-34.71417244796834,21.741127348642976,-4.482352941176469,-20.05263157894738,-13.626609442060081,-16.41496598639457,-14.694214876033056,17.406091370558382,-9.949308755760365,17.929411764705886,14.319448339454524,25.18668956426131,102.83989743825055,14780.336803273272,109.4325556805814,241.79374358760083,1
-77.65645081562036,103.8632414991313,-127.0,97.43442554261291,-70.38828002683964,-34.71417244796834,21.741127348642976,-2.490196078431371,-6.684210526315804,12.536480686695285,6.047619047619035,9.44628099173554,17.406091370558382,-19.313364055299537,8.964705882352945,10.361118579875988,33.052969896689156,102.83989743825055,14780.336803273272,109.4325556805814,241.79374358760083,1
-68.3652990608008,83.37428642343014,-126.62354878550843,105.3952065700159,-78.78203981212258,-44.43111992071363,-2.174112734864309,-2.490196078431371,-6.684210526315804,12.536480686695285,6.047619047619035,9.44628099173554,17.406091370558382,-19.313364055299537,8.964705882352945,10.361118579875988,33.052969896689156,92.78771142324645,11753.00270939219,105.13101392631815,467.6770220307086,1
-68.3652990608008,83.37428642343014,-126.62354878550843,105.3952065700159,-78.78203981212258,-44.43111992071363,-2.174112734864309,-7.470588235294116,1.1140350877192837,16.896995708154513,19.870748299319715,1.7763568394002505e-15,19.984771573604068,-16.972350230414744,5.976470588235298,11.035744965342717,69.46778529409015,92.78771142324645,11753.00270939219,105.13101392631815,467.6770220307086,1
-68.3652990608008,83.37428642343014,-126.62354878550843,105.3952065700159,-78.78203981212258,-44.43111992071363,-2.174112734864309,1.4941176470588253,-25.62280701754387,-36.519313304721024,-14.687074829931985,-28.33884297520661,13.538071065989854,-18.14285714285714,11.952941176470592,18.787003144972488,120.41779977025597,92.78771142324645,11753.00270939219,105.13101392631815,467.6770220307086,1
-75.64755313890262,63.95706130553488,-122.96360642239604,112.78127880667056,-86.83493625587118,-58.0247770069376,-24.763674321503117,1.4941176470588253,-25.62280701754387,-36.519313304721024,-14.687074829931985,-28.33884297520661,13.538071065989854,-18.14285714285714,11.952941176470592,18.787003144972488,120.41779977025597,87.52274028894452,9444.598882727,99.90064884486715,994.8760628167236,1
-75.64755313890262,63.95706130553488,-122.96360642239604,112.78127880667056,-86.83493625587118,-58.0247770069376,-24.763674321503117,-3.48627450980392,-40.10526315789475,15.806866952789704,-26.78231292517008,-13.644628099173552,10.959390862944169,-26.336405529953915,7.470588235294121,18.073966284128026,147.1556546227565,87.52274028894452,9444.598882727,99.90064884486715,994.8760628167236,1
-75.64755313890262,63.95706130553488,-122.96360642239604,112.78127880667056,-86.83493625587118,-58.0247770069376,-24.763674321503117,19.423529411764708,-25.62280701754387,-3.8154506437768188,50.97278911564624,31.48760330578513,34.16751269035534,-14.63133640552995,4.482352941176474,23.075422691447315,254.26273532695353,87.52274028894452,9444.598882727,99.90064884486715,994.8760628167236,1
-93.57068709836875,55.32017870439316,-115.60189378344998,118.67736528953323,-95.22869604115411,-75.74687809712589,-43.641336116910225,19.423529411764708,-25.62280701754387,-3.8154506437768188,50.97278911564624,31.48760330578513,34.16751269035534,-14.63133640552995,4.482352941176474,23.075422691447315,254.26273532695353,88.16425319540396,8644.703141839387,96.53314592579211,1276.2461316402616,1
-93.57068709836875,55.32017870439316,-115.60189378344998,118.67736528953323,-95.22869604115411,-75.74687809712589,-43.641336116910225,-4.482352941176469,-14.482456140350891,-0.5450643776823978,25.05442176870747,25.190082644628102,-3.2233502538071015,-47.405529953917046,8.964705882352945,16.168495495327804,248.43895267111571,88.16425319540396,8644.703141839387,96.53314592579211,1276.2461316402616,1
-93.57068709836875,55.32017870439316,-115.60189378344998,118.67736528953323,-95.22869604115411,-75.74687809712589,-43.641336116910225,-7.470588235294116,-34.53508771929826,7.085836909871251,-16.41496598639457,5.247933884297524,13.538071065989854,-29.847926267281103,8.964705882352945,15.388139493847454,122.26690014396505,88.16425319540396,8644.703141839387,96.53314592579211,1276.2461316402616,1
-106.59713297083539,51.15934475055846,-108.34475092630711,122.99832397553003,-103.90650861104899,-95.9863230921705,-59.920668058455135,-7.470588235294116,-34.53508771929826,7.085836909871251,-16.41496598639457,5.247933884297524,13.538071065989854,-29.847926267281103,8.964705882352945,15.388139493847454,122.26690014396505,88.70040954923365,8388.619494878934,94.1674732174652,1440.9561364466936,1
-106.59713297083539,51.15934475055846,-108.34475092630711,122.99832397553003,-103.90650861104899,-95.9863230921705,-59.920668058455135,1.4941176470588253,-5.570175438596506,7.085836909871251,25.05442176870747,76.6198347107438,59.95431472081219,4.0967741935483915,13.447058823529416,24.165316776608485,814.6025674381675,88.70040954923365,8388.619494878934,94.1674732174652,1440.9561364466936,1
-106.59713297083539,51.15934475055846,-108.34475092630711,122.99832397553003,-103.90650861104899,-95.9863230921705,-59.920668058455135,-28.388235294117646,-30.078947368421066,0.5450643776824089,-49.24489795918368,-39.88429752066116,14.827411167512697,-4.096774193548383,1.494117647058827,21.069968191023236,344.8669755014415,88.70040954923365,8388.619494878934,94.1674732174652,1440.9561364466936,1
-127.0,74.6113179448995,-95.23170028818444,124.19031257856365,-113.76314023708343,-115.97403369672946,-72.54112734864299,-28.388235294117646,-30.078947368421066,0.5450643776824089,-49.24489795918368,-39.88429752066116,14.827411167512697,-4.096774193548383,1.494117647058827,21.069968191023236,344.8669755014415,98.94767274436133,11750.49987209713,98.0111102705492,620.3130171087764,1
-127.0,74.6113179448995,-95.23170028818444,124.19031257856365,-113.76314023708343,-115.97403369672946,-72.54112734864299,-16.435294117647057,-34.53508771929826,-2.7253218884120116,7.77551020408162,16.79338842975207,92.18781725888326,52.08755760368665,26.894117647058827,31.17926185860247,852.9321316435718,98.94767274436133,11750.49987209713,98.0111102705492,620.3130171087764,1
-127.0,74.6113179448995,-95.23170028818444,124.19031257856365,-113.76314023708343,-115.97403369672946,-72.54112734864299,4.482352941176472,1.1140350877192837,-8.175965665236046,-61.34013605442178,-99.7107438016529,-21.274111675126903,-26.336405529953915,7.470588235294121,28.73804237382268,1198.2895476895926,98.94767274436133,11750.49987209713,98.0111102705492,620.3130171087764,1
-97.9023727137914,127.00000000000001,-86.21778509674763,124.06259951395289,-121.71661820621786,-125.388899900892,-87.7068893528184,4.482352941176472,1.1140350877192837,-8.175965665236046,-61.34013605442178,-99.7107438016529,-21.274111675126903,-26.336405529953915,7.470588235294121,28.73804237382268,1198.2895476895926,103.70671927017968,16029.905120272726,112.42679487023351,517.3412253838662,1
