Gyro 0,Gyro 1,Gyro 2,Orientation 0,Orientation 1,Orientation 2,Orientation 3,Sensor 0,Sensor 1,Sensor 2,Sensor 3,Sensor 4,Sensor 5,Sensor 6,Sensor 7,Sensor Mean,Sensor Variance,Gyro Mean,Gyro Variance,Orientation Mean,Orientation Variance,Label
-23.878535773710478,2.9611398963730564,-18.5809009009009,-127.0,119.9772789488092,85.86835587730997,-10.409090909090878,-22.506329113924057,-1.0159999999999876,1.9340101522842588,9.524999999999988,-13.947976878612716,1.739726027397254,12.915254237288138,16.282051282051277,9.98329346144471,62.02651876809451,15.140192190328145,202.08210783871627,49.51401359909132,4564.052799850995,1
-23.878535773710478,2.9611398963730564,-18.5809009009009,-127.0,119.9772789488092,85.86835587730997,-10.409090909090878,3.215189873417714,15.240000000000013,19.984771573604057,19.04999999999999,-8.075144508670519,1.739726027397254,8.610169491525426,19.538461538461533,11.931682876634563,55.727042010245135,15.140192190328145,202.08210783871627,49.51401359909132,4564.052799850995,1
-23.878535773710478,2.9611398963730564,-18.5809009009009,-127.0,119.9772789488092,85.86835587730997,-10.409090909090878,-35.367088607594944,-23.367999999999988,-4.512690355329955,9.524999999999988,-9.543352601156068,-6.217248937900877e-15,3.552713678800501e-15,3.256410256410252,10.696567727561401,156.33309674944869,15.140192190328145,202.08210783871627,49.51401359909132,4564.052799850995,1
-23.878535773710478,2.9611398963730564,-18.5809009009009,-127.0,119.9772789488092,85.86835587730997,-10.409090909090878,-33.75949367088609,53.84800000000001,21.2741116751269,9.524999999999988,-11.011560693641616,3.479452054794514,10.762711864406782,3.256410256410252,18.364592526908268,306.3370185701475,15.140192190328145,202.08210783871627,49.51401359909132,4564.052799850995,1
-23.878535773710478,2.9611398963730564,-18.5809009009009,-127.0,119.9772789488092,85.86835587730997,-10.409090909090878,-17.683544303797476,-17.271999999999988,-5.802030456852798,12.699999999999989,-11.011560693641616,6.958904109589035,3.552713678800501e-15,13.025641025641022,10.55671007369024,36.25405705315165,15.140192190328145,202.08210783871627,49.51401359909132,4564.052799850995,1
-25.040765391014972,5.428756476683938,-17.734234234234236,-126.63957430035475,120.15806186695865,84.22309011240236,-9.272727272727252,-17.683544303797476,-17.271999999999988,-5.802030456852798,12.699999999999989,-11.011560693641616,6.958904109589035,3.552713678800501e-15,13.025641025641022,10.55671007369024,36.25405705315165,16.06791870064438,253.05021651087856,49.93418833709097,4450.643372540339,1
-25.040765391014972,5.428756476683938,-17.734234234234236,-126.63957430035475,120.15806186695865,84.22309011240236,-9.272727272727252,-25.72151898734178,-3.0479999999999876,-7.09137055837564,11.112499999999988,-8.075144508670519,1.739726027397254,12.915254237288138,-3.552713678800501e-15,8.712939289884163,67.48256351554677,16.06791870064438,253.05021651087856,49.93418833709097,4450.643372540339,1
-25.040765391014972,5.428756476683938,-17.734234234234236,-126.63957430035475,120.15806186695865,84.22309011240236,-9.272727272727252,-33.75949367088609,-23.367999999999988,3.2233502538071015,7.937499999999989,-8.075144508670519,6.958904109589035,3.552713678800501e-15,-3.552713678800501e-15,10.41529906786909,143.5667711257777,16.06791870064438,253.05021651087856,49.93418833709097,4450.643372540339,1
-25.21686078757626,7.64961139896373,-18.146126126126127,-126.038864800946,120.26931289351218,83.01333587349973,-8.409090909090878,-33.75949367088609,-23.367999999999988,3.2233502538071015,7.937499999999989,-8.075144508670519,6.958904109589035,3.552713678800501e-15,-3.552713678800501e-15,10.41529906786909,143.5667711257777,17.00419943755537,299.270059517428,50.61153410867862,4294.505866874881,1
-25.21686078757626,7.64961139896373,-18.146126126126127,-126.038864800946,120.26931289351218,83.01333587349973,-8.409090909090878,6.430379746835435,25.400000000000013,8.380710659898472,11.112499999999988,-18.352601156069362,8.698630136986296,25.830508474576273,19.538461538461533,15.467973964103422,61.088397924134156,17.00419943755537,299.270059517428,50.61153410867862,4294.505866874881,1
-25.21686078757626,7.64961139896373,-18.146126126126127,-126.038864800946,120.26931289351218,83.01333587349973,-8.409090909090878,-11.253164556962034,53.84800000000001,14.827411167512686,15.87499999999999,-6.60693641618497,5.219178082191775,19.372881355932208,9.769230769230766,17.096475293501804,243.06152204295137,17.00419943755537,299.270059517428,50.61153410867862,4294.505866874881,1
-23.244592346089846,6.744818652849741,-20.091171171171172,-125.25794245171463,120.26931289351218,82.81977519527527,-8.136363636363626,-11.253164556962034,53.84800000000001,14.827411167512686,15.87499999999999,-6.60693641618497,5.219178082191775,19.372881355932208,9.769230769230766,17.096475293501804,243.06152204295137,16.69352739003692,271.579864500783,50.69797742524518,4213.922569947087,1
-23.244592346089846,6.744818652849741,-20.091171171171172,-125.25794245171463,120.26931289351218,82.81977519527527,-8.136363636363626,-1.6075949367088676,-3.0479999999999876,-26.43147208121828,12.699999999999989,5.138728323699423,6.958904109589035,23.67796610169492,22.794871794871792,12.794692168472789,102.46276206026047,16.69352739003692,271.579864500783,50.69797742524518,4213.922569947087,1
-23.244592346089846,6.744818652849741,-20.091171171171172,-125.25794245171463,120.26931289351218,82.81977519527527,-8.136363636363626,-7.105427357601002e-15,11.176000000000013,-12.248730964467011,11.112499999999988,-11.011560693641616,3.479452054794514,10.762711864406782,16.282051282051277,9.50912585742015,27.048066007256825,16.69352739003692,271.579864500783,50.69797742524518,4213.922569947087,1
-22.716306156405988,1.0693005181347144,-19.90810810810811,-124.3568782026015,120.3666575417465,82.67460468660698,-8.318181818181813,-7.105427357601002e-15,11.176000000000013,-12.248730964467011,11.112499999999988,-11.011560693641616,3.479452054794514,10.762711864406782,16.282051282051277,9.50912585742015,27.048066007256825,14.56457159421627,168.948788971131,48.44476227628144,4410.712176161301,1
-22.716306156405988,1.0693005181347144,-19.90810810810811,-124.3568782026015,120.3666575417465,82.67460468660698,-8.318181818181813,-22.506329113924057,-33.52799999999999,-29.010152284263967,12.699999999999989,-2.202312138728322,10.438356164383556,3.552713678800501e-15,13.025641025641022,15.426348840867613,144.74849193701814,14.56457159421627,168.948788971131,48.44476227628144,4410.712176161301,1
-22.716306156405988,1.0693005181347144,-19.90810810810811,-124.3568782026015,120.3666575417465,82.67460468660698,-8.318181818181813,-12.860759493670894,19.304000000000013,-1.9340101522842694,19.04999999999999,-8.075144508670519,3.479452054794514,15.067796610169495,9.769230769230766,11.192549198602558,43.18458506621723,14.56457159421627,168.948788971131,48.44476227628144,4410.712176161301,1
-26.977814753189126,0.16450777202072508,-19.336036036036035,-123.31564840362633,120.54744045989598,81.75519146504098,-8.045454545454504,-12.860759493670894,19.304000000000013,-1.9340101522842694,19.04999999999999,-8.075144508670519,3.479452054794514,15.067796610169495,9.769230769230766,11.192549198602558,43.18458506621723,15.492786187081961,195.89561047239815,47.60539740389436,4390.918453826295,1
-26.977814753189126,0.16450777202072508,-19.336036036036035,-123.31564840362633,120.54744045989598,81.75519146504098,-8.045454545454504,-30.54430379746836,-7.111999999999988,8.380710659898472,11.112499999999988,-6.60693641618497,-6.217248937900877e-15,6.457627118644071,6.512820512820509,9.590862313127046,81.3073249221806,15.492786187081961,195.89561047239815,47.60539740389436,4390.918453826295,1
-26.977814753189126,0.16450777202072508,-19.336036036036035,-123.31564840362633,120.54744045989598,81.75519146504098,-8.045454545454504,-53.05063291139241,-45.719999999999985,-10.959390862944169,-3.1750000000000114,-18.352601156069362,-5.219178082191787,15.067796610169495,-6.512820512820518,19.757177516948467,363.66021895163186,15.492786187081961,195.89561047239815,47.60539740389436,4390.918453826295,1
-30.92235163616195,2.5498704663212433,-20.800540540540542,-122.09420575482854,120.6308787298111,80.49704705658223,-7.0,-53.05063291139241,-45.719999999999985,-10.959390862944169,-3.1750000000000114,-18.352601156069362,-5.219178082191787,15.067796610169495,-6.512820512820518,19.757177516948467,363.66021895163186,18.090920881007914,294.6804010871301,48.481538920563445,4147.390278378885,1
-30.92235163616195,2.5498704663212433,-20.800540540540542,-122.09420575482854,120.6308787298111,80.49704705658223,-7.0,-36.9746835443038,-17.271999999999988,-7.09137055837564,14.287499999999989,0.734104046242777,10.438356164383556,-2.152542372881353,3.256410256410252,11.525870867824668,140.26280576339843,18.090920881007914,294.6804010871301,48.481538920563445,4147.390278378885,1
-30.92235163616195,2.5498704663212433,-20.800540540540542,-122.09420575482854,120.6308787298111,80.49704705658223,-7.0,-22.506329113924057,15.240000000000013,1.9340101522842588,7.937499999999989,-19.820809248554912,1.739726027397254,19.372881355932208,6.512820512820509,11.88300955136415,69.92941610030803,18.090920881007914,294.6804010871301,48.481538920563445,4147.390278378885,1
-31.274542429284523,8.88341968911917,-22.081981981981983,-121.2131651556957,120.6447851081303,79.28729281767954,-5.727272727272691,-22.506329113924057,15.240000000000013,1.9340101522842588,7.937499999999989,-19.820809248554912,1.739726027397254,19.372881355932208,6.512820512820509,11.88300955136415,69.92941610030803,20.74664803346189,442.6701982888486,50.72618894226562,3769.8608734341387,1
-31.274542429284523,8.88341968911917,-22.081981981981983,-121.2131651556957,120.6447851081303,79.28729281767954,-5.727272727272691,-16.075949367088615,-21.335999999999988,0.644670050761416,4.762499999999989,-15.416184971098264,1.739726027397254,12.915254237288138,6.512820512820509,9.925388145806771,56.936777111099495,20.74664803346189,442.6701982888486,50.72618894226562,3769.8608734341387,1
-31.274542429284523,8.88341968911917,-22.081981981981983,-121.2131651556957,120.6447851081303,79.28729281767954,-5.727272727272691,-14.468354430379755,-5.079999999999988,9.670050761421315,14.287499999999989,-27.161849710982658,-1.7397260273972668,12.915254237288138,19.538461538461533,13.10764958824133,63.94948482181586,20.74664803346189,442.6701982888486,50.72618894226562,3769.8608734341387,1
-30.464503605102607,12.50259067357513,-20.274234234234235,-120.65250295624753,120.76994251300302,77.78719756144028,-4.636363636363626,-14.468354430379755,-5.079999999999988,9.670050761421315,14.287499999999989,-27.161849710982658,-1.7397260273972668,12.915254237288138,19.538461538461533,13.10764958824133,63.94948482181586,21.080442837637325,504.0555052734719,51.14310928801896,3638.7664670020636,1
-30.464503605102607,12.50259067357513,-20.274234234234235,-120.65250295624753,120.76994251300302,77.78719756144028,-4.636363636363626,-27.329113924050638,23.368000000000013,10.959390862944158,11.112499999999988,-19.820809248554912,3.479452054794514,19.372881355932208,9.769230769230766,15.6514222769384,64.64587280069978,21.080442837637325,504.0555052734719,51.14310928801896,3638.7664670020636,1
-30.464503605102607,12.50259067357513,-20.274234234234235,-120.65250295624753,120.76994251300302,77.78719756144028,-4.636363636363626,-12.860759493670894,41.65600000000001,-3.223350253807112,14.287499999999989,3.6705202312138745,15.657534246575336,23.67796610169492,9.769230769230766,15.600357637024114,154.69855608917734,21.080442837637325,504.0555052734719,51.14310928801896,3638.7664670020636,1
-33.246810870770936,19.49417098445596,-21.166666666666668,-120.19195900670083,120.75603613468381,75.94837111830827,-2.68181818181813,-12.860759493670894,41.65600000000001,-3.223350253807112,14.287499999999989,3.6705202312138745,15.657534246575336,23.67796610169492,9.769230769230766,15.600357637024114,154.69855608917734,24.635882840631186,763.4741282560464,53.61759888594114,3324.8083795682005,1
-33.246810870770936,19.49417098445596,-21.166666666666668,-120.19195900670083,120.75603613468381,75.94837111830827,-2.68181818181813,-6.430379746835451,31.496000000000013,25.142131979695428,15.87499999999999,3.6705202312138745,-3.4794520547945265,-2.152542372881353,3.256410256410252,11.437804580228862,130.2457411490527,24.635882840631186,763.4741282560464,53.61759888594114,3324.8083795682005,1
-33.246810870770936,19.49417098445596,-21.166666666666668,-120.19195900670083,120.75603613468381,75.94837111830827,-2.68181818181813,17.68354430379746,17.272000000000013,-23.852791878172596,-3.1750000000000114,3.6705202312138745,3.479452054794514,25.830508474576273,29.307692307692303,15.533938656280881,115.91076127684178,24.635882840631186,763.4741282560464,53.61759888594114,3324.8083795682005,1
-30.992789794786464,23.935880829015545,-22.333693693693693,-120.19195900670083,120.67259786476869,74.30310535340067,-0.6818181818181301,17.68354430379746,17.272000000000013,-23.852791878172596,-3.1750000000000114,3.6705202312138745,3.479452054794514,25.830508474576273,29.307692307692303,15.533938656280881,115.91076127684178,25.754121439165232,872.1687213831055,55.48717784313669,3140.6732799726915,1
-30.992789794786464,23.935880829015545,-22.333693693693693,-120.19195900670083,120.67259786476869,74.30310535340067,-0.6818181818181301,-33.75949367088609,-29.463999999999984,1.9340101522842588,15.87499999999999,-5.138728323699421,8.698630136986296,8.610169491525426,6.512820512820509,13.749106536025245,138.55826137454937,25.754121439165232,872.1687213831055,55.48717784313669,3140.6732799726915,1
-30.992789794786464,23.935880829015545,-22.333693693693693,-120.19195900670083,120.67259786476869,74.30310535340067,-0.6818181818181301,-33.75949367088609,-17.271999999999988,22.563451776649742,22.224999999999987,2.2023121387283258,13.917808219178076,17.22033898305085,22.794871794871792,18.99440957292061,81.35520528842355,25.754121439165232,872.1687213831055,55.48717784313669,3140.6732799726915,1
-21.554076539101494,22.61981865284974,-23.08882882882883,-120.93283405597163,120.58915959485354,73.6740331491713,0.2727272727273089,-33.75949367088609,-17.271999999999988,22.563451776649742,22.224999999999987,2.2023121387283258,13.917808219178076,17.22033898305085,22.794871794871792,18.99440957292061,81.35520528842355,22.42090800692669,673.828155937446,55.54716051255007,3206.5197211814666,1
-21.554076539101494,22.61981865284974,-23.08882882882883,-120.93283405597163,120.58915959485354,73.6740331491713,0.2727272727273089,-35.367088607594944,-29.463999999999984,-4.512690355329955,6.349999999999989,-15.416184971098264,-6.217248937900877e-15,-4.305084745762709,13.025641025641022,13.55508621317836,162.2260095295931,22.42090800692669,673.828155937446,55.54716051255007,3206.5197211814666,1
-21.554076539101494,22.61981865284974,-23.08882882882883,-120.93283405597163,120.58915959485354,73.6740331491713,0.2727272727273089,-7.105427357601002e-15,31.496000000000013,19.984771573604057,15.87499999999999,-21.289017341040463,5.219178082191775,15.067796610169495,13.025641025641022,15.244675579080853,94.48165225325582,22.42090800692669,673.828155937446,55.54716051255007,3206.5197211814666,1
-13.594564614531333,23.442357512953368,-26.91027027027027,-121.81387465510446,120.17196824527785,74.83539721851781,0.681818181818187,-7.105427357601002e-15,31.496000000000013,19.984771573604057,15.87499999999999,-21.289017341040463,5.219178082191775,15.067796610169495,13.025641025641022,15.244675579080853,94.48165225325582,21.315730799251657,680.7381237439181,57.38883414610937,3115.9459881623347,1
-13.594564614531333,23.442357512953368,-26.91027027027027,-121.81387465510446,120.17196824527785,74.83539721851781,0.681818181818187,-28.936708860759502,-19.303999999999988,1.9340101522842588,12.699999999999989,-8.075144508670519,3.479452054794514,19.372881355932208,19.538461538461533,14.167582308862814,86.2313399846809,21.315730799251657,680.7381237439181,57.38883414610937,3115.9459881623347,1
-13.594564614531333,23.442357512953368,-26.91027027027027,-121.81387465510446,120.17196824527785,74.83539721851781,0.681818181818187,-16.075949367088615,76.20000000000002,5.802030456852787,14.287499999999989,-8.075144508670519,6.958904109589035,8.610169491525426,-3.256410256410259,17.40826352376708,582.3806831564724,21.315730799251657,680.7381237439181,57.38883414610937,3115.9459881623347,1
-10.002218524681082,23.689119170984455,-27.413693693693695,-122.63484430429641,119.60180673419107,76.81939417031816,0.863636363636374,-16.075949367088615,76.20000000000002,5.802030456852787,14.287499999999989,-8.075144508670519,6.958904109589035,8.610169491525426,-3.256410256410259,17.40826352376708,582.3806831564724,20.36834379645308,674.9605309944718,57.91255238965818,3145.1994168565366,1
-10.002218524681082,23.689119170984455,-27.413693693693695,-122.63484430429641,119.60180673419107,76.81939417031816,0.863636363636374,12.860759493670876,55.88000000000001,-13.538071065989854,3.17499999999999,-11.011560693641616,3.479452054794514,6.457627118644071,-3.552713678800501e-15,13.300308803342617,320.1728310489239,20.36834379645308,674.9605309944718,57.91255238965818,3145.1994168565366,1
-10.002218524681082,23.689119170984455,-27.413693693693695,-122.63484430429641,119.60180673419107,76.81939417031816,0.863636363636374,25.72151898734176,-13.207999999999988,-29.010152284263967,11.112499999999988,-0.7341040462427735,8.698630136986296,8.610169491525426,35.82051282051282,16.61444847085913,146.607777614831,20.36834379645308,674.9605309944718,57.91255238965818,3145.1994168565366,1
-10.600942872989458,22.537564766839377,-25.14828828828829,-123.45581395348837,119.14289624965782,78.22270908744525,1.181818181818187,25.72151898734176,-13.207999999999988,-29.010152284263967,11.112499999999988,-0.7341040462427735,8.698630136986296,8.610169491525426,35.82051282051282,16.61444847085913,146.607777614831,19.428931976039042,597.2877548037064,57.047222336205344,3309.279749769667,1
-10.600942872989458,22.537564766839377,-25.14828828828829,-123.45581395348837,119.14289624965782,78.22270908744525,1.181818181818187,-35.367088607594944,-7.111999999999988,0.644670050761416,25.399999999999988,-2.202312138728322,10.438356164383556,17.22033898305085,13.025641025641022,13.926300871270012,139.35272991224153,19.428931976039042,597.2877548037064,57.047222336205344,3309.279749769667,1
-10.600942872989458,22.537564766839377,-25.14828828828829,-123.45581395348837,119.14289624965782,78.22270908744525,1.181818181818187,-30.54430379746836,9.144000000000013,-0.6446700507614267,14.287499999999989,-12.479768786127167,1.739726027397254,10.762711864406782,6.512820512820509,10.764437629872688,87.30780280158446,19.428931976039042,597.2877548037064,57.047222336205344,3309.279749769667,1
-13.10149750415973,14.06541450777202,-22.242162162162163,-123.93638155301537,118.90648781823158,78.7550009525624,1.4545454545454959,-30.54430379746836,9.144000000000013,-0.6446700507614267,14.287499999999989,-12.479768786127167,1.739726027397254,10.762711864406782,6.512820512820509,10.764437629872688,87.30780280158446,16.469691391364638,356.63883038287423,53.41465274098319,3746.7004765292513,1
-13.10149750415973,14.06541450777202,-22.242162162162163,-123.93638155301537,118.90648781823158,78.7550009525624,1.4545454545454959,-22.506329113924057,-55.87999999999999,-12.248730964467011,14.287499999999989,-2.202312138728322,3.479452054794514,15.067796610169495,9.769230769230766,16.93016895641427,289.95163991403064,16.469691391364638,356.63883038287423,53.41465274098319,3746.7004765292513,1
-13.10149750415973,14.06541450777202,-22.242162162162163,-123.93638155301537,118.90648781823158,78.7550009525624,1.4545454545454959,-7.105427357601002e-15,86.36000000000001,-0.6446700507614267,11.112499999999988,-16.884393063583815,3.479452054794514,6.457627118644071,13.025641025641022,17.245535414178107,815.8917871157861,16.469691391364638,356.63883038287423,53.41465274098319,3746.7004765292513,1
-23.491125901275648,6.41580310880829,-18.283423423423425,-123.97642885297596,119.08727073638106,76.96456467898645,2.636363636363683,-7.105427357601002e-15,86.36000000000001,-0.6446700507614267,11.112499999999988,-16.884393063583815,3.479452054794514,6.457627118644071,13.025641025641022,17.245535414178107,815.8917871157861,16.063450811169123,255.2660598670879,49.558551795069214,4188.7254223372565,1
-23.491125901275648,6.41580310880829,-18.283423423423425,-123.97642885297596,119.08727073638106,76.96456467898645,2.636363636363683,-19.291139240506336,9.144000000000013,17.40609137055837,9.524999999999988,-24.22543352601156,1.739726027397254,8.610169491525426,13.025641025641022,12.870900085204996,51.125499706493734,16.063450811169123,255.2660598670879,49.558551795069214,4188.7254223372565,1
-23.491125901275648,6.41580310880829,-18.283423423423425,-123.97642885297596,119.08727073638106,76.96456467898645,2.636363636363683,-56.26582278481013,-53.847999999999985,34.16751269035532,4.762499999999989,-13.947976878612716,-6.958904109589048,-10.762711864406779,-13.025641025641029,24.217383669176876,441.7389384748866,16.063450811169123,255.2660598670879,49.558551795069214,4188.7254223372565,1
-32.40155296727676,-4.030440414507773,-15.69765765765766,-123.61600315333071,119.68524500410622,73.28691179272244,4.090909090909122,-56.26582278481013,-53.847999999999985,34.16751269035532,4.762499999999989,-13.947976878612716,-6.958904109589048,-10.762711864406779,-13.025641025641029,24.217383669176876,441.7389384748866,17.37655034648073,203.34401736590914,47.78136707516538,4347.200011380544,1
-32.40155296727676,-4.030440414507773,-15.69765765765766,-123.61600315333071,119.68524500410622,73.28691179272244,4.090909090909122,-16.075949367088615,11.176000000000013,-7.09137055837564,15.87499999999999,-3.670520231213871,8.698630136986296,15.067796610169495,9.769230769230766,10.928062209133085,20.26816940166987,17.37655034648073,203.34401736590914,47.78136707516538,4347.200011380544,1
-32.40155296727676,-4.030440414507773,-15.69765765765766,-123.61600315333071,119.68524500410622,73.28691179272244,4.090909090909122,-14.468354430379755,-27.431999999999988,-27.720812182741124,12.699999999999989,12.47976878612717,5.219178082191775,6.457627118644071,19.538461538461533,15.752025267318174,73.28682970260977,17.37655034648073,203.34401736590914,47.78136707516538,4347.200011380544,1
-40.431503050471434,-11.59779792746114,-16.155315315315317,-122.79503350413874,120.47790856830001,68.39950466755573,5.954545454545496,-14.468354430379755,-27.431999999999988,-27.720812182741124,12.699999999999989,12.47976878612717,5.219178082191775,6.457627118644071,19.538461538461533,15.752025267318174,73.28682970260977,22.728205431082632,240.24780113564125,50.182715582305065,3959.604276671234,1
-40.431503050471434,-11.59779792746114,-16.155315315315317,-122.79503350413874,120.47790856830001,68.39950466755573,5.954545454545496,-19.291139240506336,-7.111999999999988,12.248730964467,11.112499999999988,-9.543352601156068,1.739726027397254,15.067796610169495,3.256410256410252,9.921456962513298,34.35858936833598,22.728205431082632,240.24780113564125,50.182715582305065,3959.604276671234,1
-40.431503050471434,-11.59779792746114,-16.155315315315317,-122.79503350413874,120.47790856830001,68.39950466755573,5.954545454545496,27.329113924050624,27.432000000000013,-31.588832487309652,3.17499999999999,-24.22543352601156,3.479452054794514,30.135593220338986,22.794871794871792,21.27003712592214,130.67894215591423,22.728205431082632,240.24780113564125,50.182715582305065,3959.604276671234,1
-44.516916250693285,-12.913860103626945,-16.452792792792792,-121.83389830508474,121.35401040240897,62.883025338159655,8.0,27.329113924050624,27.432000000000013,-31.588832487309652,3.17499999999999,-24.22543352601156,3.479452054794514,30.135593220338986,22.794871794871792,21.27003712592214,130.67894215591423,24.627856382371007,299.8120379788925,50.40018373383483,3830.2126942297136,1
-44.516916250693285,-12.913860103626945,-16.452792792792792,-121.83389830508474,121.35401040240897,62.883025338159655,8.0,-38.582278481012665,3.0480000000000125,-13.538071065989854,3.17499999999999,-19.820809248554912,-6.217248937900877e-15,-2.152542372881353,13.025641025641022,11.667792774259977,167.04409232187572,24.627856382371007,299.8120379788925,50.40018373383483,3830.2126942297136,1
-44.516916250693285,-12.913860103626945,-16.452792792792792,-121.83389830508474,121.35401040240897,62.883025338159655,8.0,3.215189873417714,51.81600000000002,0.644670050761416,17.462499999999988,-3.670520231213871,5.219178082191775,19.372881355932208,26.051282051282048,15.931527705599878,294.96736779142327,24.627856382371007,299.8120379788925,50.40018373383483,3830.2126942297136,1
-40.99500831946755,-12.17357512953368,-18.992792792792795,-121.11304690579425,122.16058034492197,58.28595923032958,9.363636363636374,3.215189873417714,51.81600000000002,0.644670050761416,17.462499999999988,-3.670520231213871,5.219178082191775,19.372881355932208,26.051282051282048,15.931527705599878,294.96736779142327,24.05379208059801,226.8790381238291,50.7598049427069,3723.8094234222617,1
-40.99500831946755,-12.17357512953368,-18.992792792792795,-121.11304690579425,122.16058034492197,58.28595923032958,9.363636363636374,-16.075949367088615,1.0160000000000124,1.9340101522842588,4.762499999999989,-22.75722543352601,1.739726027397254,21.525423728813564,19.538461538461533,11.168662030946404,93.42734502256307,24.05379208059801,226.8790381238291,50.7598049427069,3723.8094234222617,1
-40.99500831946755,-12.17357512953368,-18.992792792792795,-121.11304690579425,122.16058034492197,58.28595923032958,9.363636363636374,-49.83544303797469,-37.591999999999985,16.11675126903553,15.87499999999999,-3.670520231213871,8.698630136986296,8.610169491525426,16.282051282051277,19.585070681098383,252.61061317745722,24.05379208059801,226.8790381238291,50.7598049427069,3723.8094234222617,1
-34.05684969495285,-7.731865284974093,-20.686126126126126,-120.91281040599132,122.8141801259239,54.8986473614022,10.090909090909122,-49.83544303797469,-37.591999999999985,16.11675126903553,15.87499999999999,-3.670520231213871,8.698630136986296,8.610169491525426,16.282051282051277,19.585070681098383,252.61061317745722,20.824947035351023,173.2656544800347,49.776933939030506,3837.1879090271823,1
-34.05684969495285,-7.731865284974093,-20.686126126126126,-120.91281040599132,122.8141801259239,54.8986473614022,10.090909090909122,-30.54430379746836,-11.175999999999988,1.9340101522842588,9.524999999999988,-25.69364161849711,-6.958904109589048,4.305084745762715,9.769230769230766,12.48827189910403,103.88988586435335,20.824947035351023,173.2656544800347,49.776933939030506,3837.1879090271823,1
-34.05684969495285,-7.731865284974093,-20.686126126126126,-120.91281040599132,122.8141801259239,54.8986473614022,10.090909090909122,-28.936708860759502,-37.591999999999985,18.695431472081214,15.87499999999999,5.138728323699423,5.219178082191775,3.552713678800501e-15,-3.256410256410259,14.339182124392767,181.62568157772506,20.824947035351023,173.2656544800347,49.776933939030506,3837.1879090271823,1
-30.077093732667773,3.7836787564766836,-23.454954954954957,-120.99290500591249,123.10621407062688,52.62430939226522,11.136363636363683,-28.936708860759502,-37.591999999999985,18.695431472081214,15.87499999999999,5.138728323699423,5.219178082191775,3.552713678800501e-15,-3.256410256410259,14.339182124392767,181.62568157772506,19.10524248136647,322.05796700307167,49.41051290578138,3939.7689209018886,1
-30.077093732667773,3.7836787564766836,-23.454954954954957,-120.99290500591249,123.10621407062688,52.62430939226522,11.136363636363683,-20.898734177215196,15.240000000000013,-4.512690355329955,15.87499999999999,5.138728323699423,3.479452054794514,2.152542372881358,16.282051282051277,10.447399820746465,53.7801619059323,19.10524248136647,322.05796700307167,49.41051290578138,3939.7689209018886,1
-30.077093732667773,3.7836787564766836,-23.454954954954957,-120.99290500591249,123.10621407062688,52.62430939226522,11.136363636363683,-33.75949367088609,-31.495999999999988,56.08629441624365,22.224999999999987,-12.479768786127167,3.479452054794514,15.067796610169495,9.769230769230766,23.045379538431455,287.5622729660066,19.10524248136647,322.05796700307167,49.41051290578138,3939.7689209018886,1
-25.815585135884632,12.749352331606218,-26.42972972972973,-121.37335435553804,123.05058855735011,51.46294532291864,12.409090909090935,-33.75949367088609,-31.495999999999988,56.08629441624365,22.224999999999987,-12.479768786127167,3.479452054794514,15.067796610169495,9.769230769230766,23.045379538431455,287.5622729660066,21.664889065740194,503.77200777042077,53.51747880562467,3500.103066422772,1
-25.815585135884632,12.749352331606218,-26.42972972972973,-121.37335435553804,123.05058855735011,51.46294532291864,12.409090909090935,-4.82278481012659,19.304000000000013,16.11675126903553,15.87499999999999,-8.075144508670519,6.958904109589035,17.22033898305085,16.282051282051277,13.081871870315474,30.552223803832998,21.664889065740194,503.77200777042077,53.51747880562467,3500.103066422772,1
-25.815585135884632,12.749352331606218,-26.42972972972973,-121.37335435553804,123.05058855735011,51.46294532291864,12.409090909090935,-61.08860759493671,-59.94399999999999,0.644670050761416,12.699999999999989,-19.820809248554912,-5.219178082191787,4.305084745762715,-3.552713678800501e-15,20.46529371527594,653.5455417616904,21.664889065740194,503.77200777042077,53.51747880562467,3500.103066422772,1
-17.010815307820295,12.913860103626943,-26.223783783783784,-122.41458415451321,122.95324390911578,51.1242141360259,13.045454545454561,-61.08860759493671,-59.94399999999999,0.644670050761416,12.699999999999989,-19.820809248554912,-5.219178082191787,4.305084745762715,-3.552713678800501e-15,20.46529371527594,653.5455417616904,18.71615306507701,418.6866926128917,53.850742680641304,3570.038785333577,1
-17.010815307820295,12.913860103626943,-26.223783783783784,-122.41458415451321,122.95324390911578,51.1242141360259,13.045454545454561,-12.860759493670894,25.400000000000013,5.802030456852787,11.112499999999988,-13.947976878612716,12.178082191780817,12.915254237288138,19.538461538461533,14.21938309958336,34.51293124919605,18.71615306507701,418.6866926128917,53.850742680641304,3570.038785333577,1
-17.010815307820295,12.913860103626943,-26.223783783783784,-122.41458415451321,122.95324390911578,51.1242141360259,13.045454545454561,-28.936708860759502,-37.591999999999985,-14.827411167512697,22.224999999999987,24.225433526011564,17.3972602739726,2.152542372881358,3.256410256410252,18.826595807193492,147.64894201600072,18.71615306507701,418.6866926128917,53.850742680641304,3570.038785333577,1
-11.587077093732663,14.147668393782384,-25.88054054054054,-123.65605045329129,122.68902272105119,51.46294532291864,13.681818181818187,-28.936708860759502,-37.591999999999985,-14.827411167512697,22.224999999999987,24.225433526011564,17.3972602739726,2.152542372881358,3.256410256410252,18.826595807193492,147.64894201600072,17.205095342685198,411.47295551703644,54.56141979587141,3614.9660614669942,1
-11.587077093732663,14.147668393782384,-25.88054054054054,-123.65605045329129,122.68902272105119,51.46294532291864,13.681818181818187,-14.468354430379755,13.208000000000013,-14.827411167512697,15.87499999999999,-13.947976878612716,-6.217248937900877e-15,-6.457627118644066,-3.256410256410259,10.255097481444938,37.30961582712563,17.205095342685198,411.47295551703644,54.56141979587141,3614.9660614669942,1
-11.587077093732663,14.147668393782384,-25.88054054054054,-123.65605045329129,122.68902272105119,51.46294532291864,13.681818181818187,-22.506329113924057,41.65600000000001,3.2233502538071015,7.937499999999989,-12.479768786127167,-1.7397260273972668,4.305084745762715,3.256410256410252,12.138021147928573,189.2011226034779,17.205095342685198,411.47295551703644,54.56141979587141,3614.9660614669942,1
-11.692734331669435,18.58937823834197,-26.132252252252254,-124.65723295230588,122.20229947987956,51.995237188035844,14.954545454545496,-22.506329113924057,41.65600000000001,3.2233502538071015,7.937499999999989,-12.479768786127167,-1.7397260273972668,4.305084745762715,3.256410256410252,12.138021147928573,189.2011226034779,18.804788274087887,520.9217088698203,56.459621147633364,3502.409428993036,1
-11.692734331669435,18.58937823834197,-26.132252252252254,-124.65723295230588,122.20229947987956,51.995237188035844,14.954545454545496,-6.430379746835451,35.56000000000002,31.58883248730964,17.462499999999988,-8.075144508670519,1.739726027397254,19.372881355932208,16.282051282051277,17.063939426024543,141.12581849117583,18.804788274087887,520.9217088698203,56.459621147633364,3502.409428993036,1
-11.692734331669435,18.58937823834197,-26.132252252252254,-124.65723295230588,122.20229947987956,51.995237188035844,14.954545454545496,-17.683544303797476,78.23200000000001,8.380710659898472,12.699999999999989,-16.884393063583815,1.739726027397254,15.067796610169495,16.282051282051277,20.871277743362224,565.6930087996501,18.804788274087887,520.9217088698203,56.459621147633364,3502.409428993036,1
-14.58069883527454,14.805699481865284,-25.514414414414414,-125.23791880173434,121.7155762387079,52.23718803581636,16.54545454545456,-17.683544303797476,78.23200000000001,8.380710659898472,12.699999999999989,-16.884393063583815,1.739726027397254,15.067796610169495,16.282051282051277,20.871277743362224,565.6930087996501,18.30027091051808,434.8030211713486,55.18601089933801,3709.1214944510125,1
-14.58069883527454,14.805699481865284,-25.514414414414414,-125.23791880173434,121.7155762387079,52.23718803581636,16.54545454545456,-32.15189873417722,9.144000000000013,12.248730964467,4.762499999999989,-15.416184971098264,3.479452054794514,10.762711864406782,9.769230769230766,12.216838669771818,79.58573574289723,18.30027091051808,434.8030211713486,55.18601089933801,3709.1214944510125,1
-14.58069883527454,14.805699481865284,-25.514414414414414,-125.23791880173434,121.7155762387079,52.23718803581636,16.54545454545456,-9.645569620253172,9.144000000000013,-17.406091370558382,9.524999999999988,-6.60693641618497,6.958904109589035,23.67796610169492,6.512820512820509,11.184661016387624,37.81644566379504,18.30027091051808,434.8030211713486,55.18601089933801,3709.1214944510125,1
-22.998058790904047,9.212435233160623,-25.033873873873873,-125.11777690185258,121.38182315904736,51.317774814250356,18.681818181818187,-9.645569620253172,9.144000000000013,-17.406091370558382,9.524999999999988,-6.60693641618497,6.958904109589035,23.67796610169492,6.512820512820509,11.184661016387624,37.81644566379504,19.081455965979515,369.0783592968179,53.12136200296235,3950.1922988853203,1
-22.998058790904047,9.212435233160623,-25.033873873873873,-125.11777690185258,121.38182315904736,51.317774814250356,18.681818181818187,-9.645569620253172,-35.55999999999999,-18.695431472081225,3.17499999999999,-3.670520231213871,3.479452054794514,19.372881355932208,6.512820512820509,12.513959405886933,129.66594636593598,19.081455965979515,369.0783592968179,53.12136200296235,3950.1922988853203,1
-22.998058790904047,9.212435233160623,-25.033873873873873,-125.11777690185258,121.38182315904736,51.317774814250356,18.681818181818187,-9.645569620253172,-21.335999999999988,-10.959390862944169,12.699999999999989,-6.60693641618497,5.219178082191775,2.152542372881358,9.769230769230766,9.798606015460773,33.21735082383126,19.081455965979515,369.0783592968179,53.12136200296235,3950.1922988853203,1
-29.44315030504714,2.5498704663212433,-24.50756756756757,-124.63720930232559,121.29838488913221,49.43055820156218,20.681818181818187,-9.645569620253172,-21.335999999999988,-10.959390862944169,12.699999999999989,-6.60693641618497,5.219178082191775,2.152542372881358,9.769230769230766,9.798606015460773,33.21735082383126,18.833529446311985,296.669717998908,50.5648824454048,4235.567319996402,1
-29.44315030504714,2.5498704663212433,-24.50756756756757,-124.63720930232559,121.29838488913221,49.43055820156218,20.681818181818187,-17.683544303797476,3.0480000000000125,23.852791878172585,19.04999999999999,-2.202312138728322,10.438356164383556,12.915254237288138,13.025641025641022,12.776987468501389,56.87507538277398,18.833529446311985,296.669717998908,50.5648824454048,4235.567319996402,1
-29.44315030504714,2.5498704663212433,-24.50756756756757,-124.63720930232559,121.29838488913221,49.43055820156218,20.681818181818187,-20.898734177215196,59.94400000000002,13.538071065989843,3.17499999999999,-15.416184971098264,-6.217248937900877e-15,6.457627118644071,13.025641025641022,16.556907294823553,354.1968310340102,18.833529446311985,296.669717998908,50.5648824454048,4235.567319996402,1
-31.20410427066001,-1.6450777202072544,-23.935495495495495,-123.99645250295625,121.40963591568574,47.349780910649656,22.227272727272748,-20.898734177215196,59.94400000000002,13.538071065989843,3.17499999999999,-15.416184971098264,-6.217248937900877e-15,6.457627118644071,13.025641025641022,16.556907294823553,354.1968310340102,18.928225828787586,237.2385747889426,49.85900857288633,4246.486125512416,1
-31.20410427066001,-1.6450777202072544,-23.935495495495495,-123.99645250295625,121.40963591568574,47.349780910649656,22.227272727272748,-12.860759493670894,11.176000000000013,-29.010152284263967,4.762499999999989,-13.947976878612716,3.479452054794514,17.22033898305085,9.769230769230766,12.778301307952963,63.846166878166756,18.928225828787586,237.2385747889426,49.85900857288633,4246.486125512416,1
-31.20410427066001,-1.6450777202072544,-23.935495495495495,-123.99645250295625,121.40963591568574,47.349780910649656,22.227272727272748,-14.468354430379755,19.304000000000013,8.380710659898472,9.524999999999988,-18.352601156069362,1.739726027397254,25.830508474576273,9.769230769230766,13.421266439693984,57.7705918639687,18.928225828787586,237.2385747889426,49.85900857288633,4246.486125512416,1
-31.20410427066001,-4.27720207253886,-24.255855855855856,-123.19550650374458,121.57651245551601,45.656124976185936,23.181818181818187,-14.468354430379755,19.304000000000013,8.380710659898472,9.524999999999988,-18.352601156069362,1.739726027397254,25.830508474576273,9.769230769230766,13.421266439693984,57.7705918639687,19.91238739968491,195.41380416910945,50.576188144046434,4054.960701018807,1
-31.20410427066001,-4.27720207253886,-24.255855855855856,-123.19550650374458,121.57651245551601,45.656124976185936,23.181818181818187,-14.468354430379755,9.144000000000013,-23.852791878172596,9.524999999999988,-12.479768786127167,-1.7397260273972668,10.762711864406782,16.282051282051277,12.281800533566855,40.79982325272983,19.91238739968491,195.41380416910945,50.576188144046434,4054.960701018807,1
-31.20410427066001,-4.27720207253886,-24.255855855855856,-123.19550650374458,121.57651245551601,45.656124976185936,23.181818181818187,-17.683544303797476,-21.335999999999988,-0.6446700507614267,4.762499999999989,-33.03468208092485,-3.4794520547945265,8.610169491525426,16.282051282051277,13.229133657981869,119.0838345080372,19.91238739968491,195.41380416910945,50.576188144046434,4054.960701018807,1
-30.67581808097615,-4.770725388601036,-23.683783783783785,-122.39456050453292,121.81292088694222,44.059249380834444,23.727272727272748,-17.683544303797476,-21.335999999999988,-0.6446700507614267,4.762499999999989,-33.03468208092485,-3.4794520547945265,8.610169491525426,16.282051282051277,13.229133657981869,119.0838345080372,19.71010908445366,179.61102481220888,50.28302322563925,3989.481301008853,1
-30.67581808097615,-4.770725388601036,-23.683783783783785,-122.39456050453292,121.81292088694222,44.059249380834444,23.727272727272748,-17.683544303797476,7.1120000000000125,-1.9340101522842694,22.224999999999987,6.606936416184972,12.178082191780817,23.67796610169492,19.538461538461533,13.869500088025498,65.20427065140379,19.71010908445366,179.61102481220888,50.28302322563925,3989.481301008853,1
-30.67581808097615,-4.770725388601036,-23.683783783783785,-122.39456050453292,121.81292088694222,44.059249380834444,23.727272727272748,-17.683544303797476,31.496000000000013,13.538071065989843,1.5874999999999897,-21.289017341040463,-6.217248937900877e-15,-6.457627118644066,-3.552713678800501e-15,11.506469978683981,132.31966799569756,19.71010908445366,179.61102481220888,50.28302322563925,3989.481301008853,1
-28.28092068774265,-4.030440414507773,-23.56936936936937,-121.73378005518329,122.06323569668764,42.94627548104404,23.909090909090935,-17.683544303797476,31.496000000000013,13.538071065989843,1.5874999999999897,-21.289017341040463,-6.217248937900877e-15,-6.457627118644066,-3.552713678800501e-15,11.506469978683981,132.31966799569756,18.6269101572066,165.342375668558,49.77786327968681,3978.6829054274135,1
-28.28092068774265,-4.030440414507773,-23.56936936936937,-121.73378005518329,122.06323569668764,42.94627548104404,23.909090909090935,-19.291139240506336,-21.335999999999988,3.2233502538071015,6.349999999999989,-18.352601156069362,5.219178082191775,4.305084745762715,13.025641025641022,11.387874312997287,56.124978992969226,18.6269101572066,165.342375668558,49.77786327968681,3978.6829054274135,1
-28.28092068774265,-4.030440414507773,-23.56936936936937,-121.73378005518329,122.06323569668764,42.94627548104404,23.909090909090935,-20.898734177215196,-23.367999999999988,-9.670050761421326,17.462499999999988,5.138728323699423,5.219178082191775,21.525423728813564,9.769230769230766,14.131480730321503,56.58677232895142,18.6269101572066,165.342375668558,49.77786327968681,3978.6829054274135,1
-25.60427066001109,-2.7966321243523318,-23.59225225225225,-121.35333070555774,122.31355050643306,42.075252429034094,23.681818181818187,-20.898734177215196,-23.367999999999988,-9.670050761421326,17.462499999999988,5.138728323699423,5.219178082191775,21.525423728813564,9.769230769230766,14.131480730321503,56.58677232895142,17.33105167887189,159.4490683583905,49.24740502738744,4007.562842555343,1
-25.60427066001109,-2.7966321243523318,-23.59225225225225,-121.35333070555774,122.31355050643306,42.075252429034094,23.681818181818187,-27.329113924050638,3.0480000000000125,1.9340101522842588,6.349999999999989,-9.543352601156068,3.479452054794514,6.457627118644071,-3.552713678800501e-15,7.267694481366195,74.65167371744074,17.33105167887189,159.4490683583905,49.24740502738744,4007.562842555343,1
-25.60427066001109,-2.7966321243523318,-23.59225225225225,-121.35333070555774,122.31355050643306,42.075252429034094,23.681818181818187,-17.683544303797476,-11.175999999999988,7.09137055837563,7.937499999999989,-11.011560693641616,5.219178082191775,15.067796610169495,-3.552713678800501e-15,9.398368781021997,31.40003646952466,17.33105167887189,159.4490683583905,49.24740502738744,4007.562842555343,1
-23.59678313921242,-1.1515544041450783,-23.386306306306306,-121.09302325581395,122.5360525595401,41.54296056391695,23.409090909090935,-17.683544303797476,-11.175999999999988,7.09137055837563,7.937499999999989,-11.011560693641616,5.219178082191775,15.067796610169495,-3.552713678800501e-15,9.398368781021997,31.40003646952466,16.04488128322127,166.36946426955757,48.543627988755105,4071.1571132496197,1
-23.59678313921242,-1.1515544041450783,-23.386306306306306,-121.09302325581395,122.5360525595401,41.54296056391695,23.409090909090935,-20.898734177215196,-13.207999999999988,-23.852791878172596,12.699999999999989,-6.60693641618497,-6.217248937900877e-15,10.762711864406782,3.256410256410252,11.410698074048723,67.13051050547604,16.04488128322127,166.36946426955757,48.543627988755105,4071.1571132496197,1
-23.59678313921242,-1.1515544041450783,-23.386306306306306,-121.09302325581395,122.5360525595401,41.54296056391695,23.409090909090935,-8.037974683544311,13.208000000000013,-9.670050761421326,6.349999999999989,-25.69364161849711,5.219178082191775,17.22033898305085,19.538461538461533,13.117205708395865,51.72837020361424,16.04488128322127,166.36946426955757,48.543627988755105,4071.1571132496197,1
-19.933998890737655,1.23380829015544,-22.676936936936936,-121.03295230587308,122.70292909937037,41.494570394360835,22.77272727272731,-8.037974683544311,13.208000000000013,-9.670050761421326,6.349999999999989,-25.69364161849711,5.219178082191775,17.22033898305085,19.538461538461533,13.117205708395865,51.72837020361424,14.614914705943344,171.22058454794626,48.31456584432181,4080.9247387192463,1
-19.933998890737655,1.23380829015544,-22.676936936936936,-121.03295230587308,122.70292909937037,41.494570394360835,22.77272727272731,-25.72151898734178,9.144000000000013,29.010152284263956,7.937499999999989,-12.479768786127167,-1.7397260273972668,6.457627118644071,3.256410256410252,11.968337932523063,102.13566360755779,14.614914705943344,171.22058454794626,48.31456584432181,4080.9247387192463,1
-19.933998890737655,1.23380829015544,-22.676936936936936,-121.03295230587308,122.70292909937037,41.494570394360835,22.77272727272731,16.075949367088597,88.39200000000001,-5.802030456852798,19.04999999999999,8.075144508670522,10.438356164383556,17.22033898305085,19.538461538461533,23.074035127313483,723.04541217929,14.614914705943344,171.22058454794626,48.31456584432181,4080.9247387192463,1
-18.17304492512479,-0.08225388601036299,-21.853153153153155,-121.11304690579425,122.89761839583902,41.44618022480472,22.136363636363683,16.075949367088597,88.39200000000001,-5.802030456852798,19.04999999999999,8.075144508670522,10.438356164383556,17.22033898305085,19.538461538461533,23.074035127313483,723.04541217929,13.369483988096102,135.79866198183055,47.68281798165259,4162.491903613908,1
-18.17304492512479,-0.08225388601036299,-21.853153153153155,-121.11304690579425,122.89761839583902,41.44618022480472,22.136363636363683,3.215189873417714,13.208000000000013,-7.09137055837564,12.699999999999989,-16.884393063583815,3.479452054794514,6.457627118644071,19.538461538461533,10.321811775909662,37.812800377209264,13.369483988096102,135.79866198183055,47.68281798165259,4162.491903613908,1
-18.17304492512479,-0.08225388601036299,-21.853153153153155,-121.11304690579425,122.89761839583902,41.44618022480472,22.136363636363683,-35.367088607594944,-51.81599999999999,17.40609137055837,15.87499999999999,-3.670520231213871,5.219178082191775,19.372881355932208,13.025641025641022,20.21905008414152,257.98927981696863,13.369483988096102,135.79866198183055,47.68281798165259,4162.491903613908,1
-19.19439822518025,-4.606217616580311,-20.663243243243244,-121.09302325581395,123.18965234054203,40.913888359687576,21.54545454545456,-35.367088607594944,-51.81599999999999,17.40609137055837,15.87499999999999,-3.670520231213871,5.219178082191775,19.372881355932208,13.025641025641022,20.21905008414152,257.98927981696863,14.821286361667935,78.80009852192165,48.7874947052125,3985.5241122302086,1
-19.19439822518025,-4.606217616580311,-20.663243243243244,-121.09302325581395,123.18965234054203,40.913888359687576,21.54545454545456,-33.75949367088609,13.208000000000013,17.40609137055837,7.937499999999989,-13.947976878612716,-5.219178082191787,2.152542372881358,-3.552713678800501e-15,11.70384779689129,115.81564163849191,14.821286361667935,78.80009852192165,48.7874947052125,3985.5241122302086,1
-19.19439822518025,-4.606217616580311,-20.663243243243244,-121.09302325581395,123.18965234054203,40.913888359687576,21.54545454545456,-27.329113924050638,-23.367999999999988,-3.223350253807112,17.462499999999988,-13.947976878612716,5.219178082191775,12.915254237288138,26.051282051282048,16.18958192840405,82.67303546279787,14.821286361667935,78.80009852192165,48.7874947052125,3985.5241122302086,1
-24.160288408208537,-10.857512953367877,-19.90810810810811,-120.55238470634607,123.57903093347933,39.5589636121166,21.227272727272748,-27.329113924050638,-23.367999999999988,-3.223350253807112,17.462499999999988,-13.947976878612716,5.219178082191775,12.915254237288138,26.051282051282048,16.18958192840405,82.67303546279787,18.30863648989484,46.15969079358011,50.439335255940684,3707.3580955899943,1
-24.160288408208537,-10.857512953367877,-19.90810810810811,-120.55238470634607,123.57903093347933,39.5589636121166,21.227272727272748,-28.936708860759502,-37.591999999999985,-1.9340101522842694,15.87499999999999,2.2023121387283258,10.438356164383556,6.457627118644071,-3.552713678800501e-15,12.929501804349961,189.1974106951921,18.30863648989484,46.15969079358011,50.439335255940684,3707.3580955899943,1
-24.160288408208537,-10.857512953367877,-19.90810810810811,-120.55238470634607,123.57903093347933,39.5589636121166,21.227272727272748,-56.26582278481013,37.59200000000001,4.512690355329944,15.87499999999999,9.543352601156073,1.739726027397254,2.152542372881358,3.256410256410252,16.367193049748128,402.5201546026371,18.30863648989484,46.15969079358011,50.439335255940684,3707.3580955899943,1
-28.492235163616193,-13.325129533678759,-20.182702702702702,-119.7714623571147,124.06575417465096,37.67174699942848,21.136363636363683,-56.26582278481013,37.59200000000001,4.512690355329944,15.87499999999999,9.543352601156073,1.739726027397254,2.152542372881358,3.256410256410252,16.367193049748128,402.5201546026371,20.66668913333255,57.68595544619532,51.093098197832056,3549.2948551384084,1
-28.492235163616193,-13.325129533678759,-20.182702702702702,-119.7714623571147,124.06575417465096,37.67174699942848,21.136363636363683,-6.430379746835451,5.0800000000000125,18.695431472081214,-1.587500000000011,-13.947976878612716,1.739726027397254,2.152542372881358,19.538461538461533,8.646502254533694,57.86530165403645,20.66668913333255,57.68595544619532,51.093098197832056,3549.2948551384084,1
-28.492235163616193,-13.325129533678759,-20.182702702702702,-119.7714623571147,124.06575417465096,37.67174699942848,21.136363636363683,-14.468354430379755,11.176000000000013,5.802030456852787,11.112499999999988,-8.075144508670519,6.958904109589035,12.915254237288138,22.794871794871792,11.662882442206502,29.035590301472077,20.66668913333255,57.68595544619532,51.093098197832056,3549.2948551384084,1
-29.76012201885746,-12.50259067357513,-20.091171171171172,-118.95049270792275,124.5524774158226,35.542579538959785,21.136363636363683,-14.468354430379755,11.176000000000013,5.802030456852787,11.112499999999988,-8.075144508670519,6.958904109589035,12.915254237288138,22.794871794871792,11.662882442206502,29.035590301472077,20.784627954534585,74.81625876614508,50.514751517556356,3526.984642698233,1
-29.76012201885746,-12.50259067357513,-20.091171171171172,-118.95049270792275,124.5524774158226,35.542579538959785,21.136363636363683,-17.683544303797476,43.68800000000002,9.670050761421315,25.399999999999988,-0.7341040462427735,6.958904109589035,21.525423728813564,13.025641025641022,17.335708496938146,176.82587116247478,20.784627954534585,74.81625876614508,50.514751517556356,3526.984642698233,1
-29.76012201885746,-12.50259067357513,-20.091171171171172,-118.95049270792275,124.5524774158226,35.542579538959785,21.136363636363683,4.822784810126574,-39.62399999999999,-27.720812182741124,7.937499999999989,-9.543352601156068,3.479452054794514,6.457627118644071,16.282051282051277,14.4834475061892,165.22775110795584,20.784627954534585,74.81625876614508,50.514751517556356,3526.984642698233,1
-30.464503605102607,-14.065414507772022,-19.45045045045045,-118.04942845880961,125.09482617027099,33.31663173937892,21.0,4.822784810126574,-39.62399999999999,-27.720812182741124,7.937499999999989,-9.543352601156068,3.479452054794514,6.457627118644071,16.282051282051277,14.4834475061892,165.22775110795584,21.326789521108356,69.87301703660475,50.52176447234404,3427.238705627735,1
-30.464503605102607,-14.065414507772022,-19.45045045045045,-118.04942845880961,125.09482617027099,33.31663173937892,21.0,-11.253164556962034,13.208000000000013,8.380710659898472,15.87499999999999,-11.011560693641616,6.958904109589035,15.067796610169495,9.769230769230766,11.440545924936426,9.77219486435644,21.326789521108356,69.87301703660475,50.52176447234404,3427.238705627735,1
-30.464503605102607,-14.065414507772022,-19.45045045045045,-118.04942845880961,125.09482617027099,33.31663173937892,21.0,-9.645569620253172,33.52800000000001,21.2741116751269,14.287499999999989,-21.289017341040463,-3.4794520547945265,4.305084745762715,13.025641025641022,15.104297057827349,100.32798413885476,21.326789521108356,69.87301703660475,50.52176447234404,3427.238705627735,1
-32.78896283971159,-16.697538860103627,-19.77081081081081,-116.8680331099724,125.66498768135777,30.897123261573654,20.909090909090935,-9.645569620253172,33.52800000000001,21.2741116751269,14.287499999999989,-21.289017341040463,-3.4794520547945265,4.305084745762715,13.025641025641022,15.104297057827349,100.32798413885476,23.08577083687534,72.97520140367982,51.11212759362895,3245.240582826467,1
-32.78896283971159,-16.697538860103627,-19.77081081081081,-116.8680331099724,125.66498768135777,30.897123261573654,20.909090909090935,-17.683544303797476,19.304000000000013,0.644670050761416,14.287499999999989,6.606936416184972,13.917808219178076,25.830508474576273,19.538461538461533,14.72667862536997,63.03193513824523,23.08577083687534,72.97520140367982,51.11212759362895,3245.240582826467,1
-32.78896283971159,-16.697538860103627,-19.77081081081081,-116.8680331099724,125.66498768135777,30.897123261573654,20.909090909090935,-33.75949367088609,-27.431999999999988,-1.9340101522842694,6.349999999999989,-19.820809248554912,-3.4794520547945265,15.067796610169495,9.769230769230766,14.701599063240003,133.51889177582785,23.08577083687534,72.97520140367982,51.11212759362895,3245.240582826467,1
-33.73987798114254,-14.558937823834196,-20.686126126126126,-115.62656681119432,126.17952367916781,28.526004953324446,21.0,-33.75949367088609,-27.431999999999988,-1.9340101522842694,6.349999999999989,-19.820809248554912,-3.4794520547945265,15.067796610169495,9.769230769230766,14.701599063240003,133.51889177582785,22.994980643700956,95.97522321705524,50.29054358705154,3210.9825571822294,1
-33.73987798114254,-14.558937823834196,-20.686126126126126,-115.62656681119432,126.17952367916781,28.526004953324446,21.0,-24.113924050632917,1.0160000000000124,7.09137055837563,4.762499999999989,-15.416184971098264,-5.219178082191787,-8.610169491525422,3.256410256410252,8.685717176279283,57.36955345471164,22.994980643700956,95.97522321705524,50.29054358705154,3210.9825571822294,1
-33.73987798114254,-14.558937823834196,-20.686126126126126,-115.62656681119432,126.17952367916781,28.526004953324446,21.0,-17.683544303797476,21.336000000000013,25.142131979695428,19.04999999999999,-9.543352601156068,8.698630136986296,17.22033898305085,16.282051282051277,16.869506160842175,30.672434930837444,22.994980643700956,95.97522321705524,50.29054358705154,3210.9825571822294,1
-32.01414309484193,-8.389896373056995,-23.134594594594596,-114.46519511233741,126.45765124555159,27.025909697085183,21.136363636363683,-17.683544303797476,21.336000000000013,25.142131979695428,19.04999999999999,-9.543352601156068,8.698630136986296,17.22033898305085,16.282051282051277,16.869506160842175,30.672434930837444,21.17954468749784,142.39292339737082,48.66322869332967,3301.7756198672205,1
-32.01414309484193,-8.389896373056995,-23.134594594594596,-114.46519511233741,126.45765124555159,27.025909697085183,21.136363636363683,-20.898734177215196,-15.239999999999988,0.644670050761416,14.287499999999989,-11.011560693641616,3.479452054794514,12.915254237288138,16.282051282051277,11.844902811969018,45.20274377297458,21.17954468749784,142.39292339737082,48.66322869332967,3301.7756198672205,1
-32.01414309484193,-8.389896373056995,-23.134594594594596,-114.46519511233741,126.45765124555159,27.025909697085183,21.136363636363683,-49.83544303797469,-61.975999999999985,-14.827411167512697,12.699999999999989,-8.075144508670519,5.219178082191775,3.552713678800501e-15,-6.512820512820518,19.893249663646273,524.9530904288796,21.17954468749784,142.39292339737082,48.66322869332967,3301.7756198672205,1
-27.189129229062672,-6.744818652849741,-24.873693693693696,-113.60417816318487,126.69405967697783,26.638788340636324,20.54545454545456,-49.83544303797469,-61.975999999999985,-14.827411167512697,12.699999999999989,-8.075144508670519,5.219178082191775,3.552713678800501e-15,-6.512820512820518,19.893249663646273,524.9530904288796,19.602547191868705,125.33119781693938,48.40756350324276,3270.112949899366,1
-27.189129229062672,-6.744818652849741,-24.873693693693696,-113.60417816318487,126.69405967697783,26.638788340636324,20.54545454545456,-22.506329113924057,-23.367999999999988,-31.588832487309652,3.17499999999999,-16.884393063583815,6.958904109589035,4.305084745762715,6.512820512820509,14.41242050412372,113.32142571807927,19.602547191868705,125.33119781693938,48.40756350324276,3270.112949899366,1
-27.189129229062672,-6.744818652849741,-24.873693693693696,-113.60417816318487,126.69405967697783,26.638788340636324,20.54545454545456,-9.645569620253172,64.00800000000001,9.670050761421315,11.112499999999988,-5.138728323699421,1.739726027397254,21.525423728813564,6.512820512820509,16.169102371800655,407.2476451959772,19.602547191868705,125.33119781693938,48.40756350324276,3270.112949899366,1
-24.54769828064337,-6.498056994818654,-25.583063063063065,-112.94339771383524,126.87484259512728,26.542008001524096,19.863636363636374,-9.645569620253172,64.00800000000001,9.670050761421315,11.112499999999988,-5.138728323699421,1.739726027397254,21.525423728813564,6.512820512820509,16.169102371800655,407.2476451959772,18.876272779508366,115.18316456742485,48.34150592390565,3221.1126812845605,1
-24.54769828064337,-6.498056994818654,-25.583063063063065,-112.94339771383524,126.87484259512728,26.542008001524096,19.863636363636374,-33.75949367088609,-11.175999999999988,-0.6446700507614267,7.937499999999989,-13.947976878612716,6.958904109589035,17.22033898305085,-3.256410256410259,11.862661743663795,107.48009047775356,18.876272779508366,115.18316456742485,48.34150592390565,3221.1126812845605,1
-24.54769828064337,-6.498056994818654,-25.583063063063065,-112.94339771383524,126.87484259512728,26.542008001524096,19.863636363636374,-9.645569620253172,13.208000000000013,-22.563451776649753,4.762499999999989,-9.543352601156068,-6.217248937900877e-15,-2.152542372881353,26.051282051282048,10.9908373027778,86.75275953568378,18.876272779508366,115.18316456742485,48.34150592390565,3221.1126812845605,1
-25.70992789794786,-0.7402849740932647,-25.05675675675676,-112.24256996452503,126.94437448672325,26.348447323299695,19.681818181818187,-9.645569620253172,13.208000000000013,-22.563451776649753,4.762499999999989,-9.543352601156068,-6.217248937900877e-15,-2.152542372881353,26.051282051282048,10.9908373027778,86.75275953568378,17.16898987626596,202.53341670692612,46.01320389845836,3437.569397124066,1
-25.70992789794786,-0.7402849740932647,-25.05675675675676,-112.24256996452503,126.94437448672325,26.348447323299695,19.681818181818187,-24.113924050632917,23.368000000000013,-1.9340101522842694,19.04999999999999,-0.7341040462427735,5.219178082191775,10.762711864406782,13.025641025641022,12.275946152674942,85.98269146446853,17.16898987626596,202.53341670692612,46.01320389845836,3437.569397124066,1
-25.70992789794786,-0.7402849740932647,-25.05675675675676,-112.24256996452503,126.94437448672325,26.348447323299695,19.681818181818187,-19.291139240506336,-25.399999999999988,-0.6446700507614267,1.5874999999999897,-28.63005780346821,-1.7397260273972668,10.762711864406782,6.512820512820509,11.821078187420063,126.18576385785094,17.16898987626596,202.53341670692612,46.01320389845836,3437.569397124066,1
-24.759012756516913,-0.9870466321243532,-25.23981981981982,-111.64186046511628,126.99999999999999,26.20327681463135,19.54545454545456,-19.291139240506336,-25.399999999999988,-0.6446700507614267,1.5874999999999897,-28.63005780346821,-1.7397260273972668,10.762711864406782,6.512820512820509,11.821078187420063,126.18576385785094,16.99529306948703,192.2557593575316,45.95624230568682,3382.9995765632266,1
-24.759012756516913,-0.9870466321243532,-25.23981981981982,-111.64186046511628,126.99999999999999,26.20327681463135,19.54545454545456,-30.54430379746836,17.272000000000013,0.644670050761416,7.937499999999989,-15.416184971098264,3.479452054794514,-10.762711864406779,3.256410256410252,11.16415412436745,96.25640082776707,16.99529306948703,192.2557593575316,45.95624230568682,3382.9995765632266,1
-24.759012756516913,-0.9870466321243532,-25.23981981981982,-111.64186046511628,126.99999999999999,26.20327681463135,19.54545454545456,-20.898734177215196,-23.367999999999988,5.802030456852787,15.87499999999999,6.606936416184972,1.739726027397254,6.457627118644071,-3.256410256410259,10.500558056588066,69.34133597905038,16.99529306948703,192.2557593575316,45.95624230568682,3382.9995765632266,1
-23.455906821963392,0.16450777202072508,-26.933153153153153,-111.04115096570753,126.95828086504243,26.638788340636324,19.227272727272748,-20.898734177215196,-23.367999999999988,5.802030456852787,15.87499999999999,6.606936416184972,1.739726027397254,6.457627118644071,-3.256410256410259,10.500558056588066,69.34133597905038,16.851189249045756,217.38307587586098,46.046270630293805,3347.390946246268,1
-23.455906821963392,0.16450777202072508,-26.933153153153153,-111.04115096570753,126.95828086504243,26.638788340636324,19.227272727272748,4.822784810126574,64.00800000000001,54.79695431472081,7.937499999999989,-12.479768786127167,-1.7397260273972668,10.762711864406782,16.282051282051277,21.603687135603735,570.2787827361676,16.851189249045756,217.38307587586098,46.046270630293805,3347.390946246268,1
-23.455906821963392,0.16450777202072508,-26.933153153153153,-111.04115096570753,126.95828086504243,26.638788340636324,19.227272727272748,-11.253164556962034,-23.367999999999988,8.380710659898472,17.462499999999988,-6.60693641618497,8.698630136986296,15.067796610169495,6.512820512820509,12.16881986162772,36.00057716404108,16.851189249045756,217.38307587586098,46.046270630293805,3347.390946246268,1
-25.252079866888515,1.5628238341968907,-26.75009009009009,-110.32029956641702,126.87484259512728,26.78395884930461,19.363636363636374,-11.253164556962034,-23.367999999999988,8.380710659898472,17.462499999999988,-6.60693641618497,8.698630136986296,15.067796610169495,6.512820512820509,12.16881986162772,36.00057716404108,17.854997930391832,253.8173650018973,46.211071163568,3241.0944701678122,1
-25.252079866888515,1.5628238341968907,-26.75009009009009,-110.32029956641702,126.87484259512728,26.78395884930461,19.363636363636374,-11.253164556962034,-3.0479999999999876,-23.852791878172596,17.462499999999988,-5.138728323699421,8.698630136986296,12.915254237288138,16.282051282051277,12.331390051894967,46.75640561338615,17.854997930391832,253.8173650018973,46.211071163568,3241.0944701678122,1
-25.252079866888515,1.5628238341968907,-26.75009009009009,-110.32029956641702,126.87484259512728,26.78395884930461,19.363636363636374,-28.936708860759502,-7.111999999999988,-8.380710659898483,12.699999999999989,-5.138728323699421,6.958904109589035,4.305084745762715,6.512820512820509,10.005619651566205,64.9034341220701,17.854997930391832,253.8173650018973,46.211071163568,3241.0944701678122,1
-25.075984470327228,-3.619170984455959,-26.086486486486486,-109.63949546708712,126.90265535176566,26.59039817108021,19.409090909090935,-28.936708860759502,-7.111999999999988,-8.380710659898483,12.699999999999989,-5.138728323699421,6.958904109589035,4.305084745762715,6.512820512820509,10.005619651566205,64.9034341220701,18.260547313756557,161.03270419331838,46.448384312676524,3121.0324631637513,1
-25.075984470327228,-3.619170984455959,-26.086486486486486,-109.63949546708712,126.90265535176566,26.59039817108021,19.409090909090935,-30.54430379746836,-23.367999999999988,-4.512690355329955,17.462499999999988,22.757225433526013,10.438356164383556,6.457627118644071,13.025641025641022,16.070792986874118,82.33956601836933,18.260547313756557,161.03270419331838,46.448384312676524,3121.0324631637513,1
-25.075984470327228,-3.619170984455959,-26.086486486486486,-109.63949546708712,126.90265535176566,26.59039817108021,19.409090909090935,-24.113924050632917,-3.0479999999999876,-9.670050761421326,19.04999999999999,-3.670520231213871,-6.217248937900877e-15,10.762711864406782,13.025641025641022,10.417605991664487,68.27827309150028,18.260547313756557,161.03270419331838,46.448384312676524,3121.0324631637513,1
-25.921242373821407,-2.9611398963730577,-25.01099099099099,-109.03878596767836,126.94437448672325,25.816155458182493,19.81818181818187,-24.113924050632917,-3.0479999999999876,-9.670050761421326,19.04999999999999,-3.670520231213871,-6.217248937900877e-15,10.762711864406782,13.025641025641022,10.417605991664487,68.27827309150028,17.964457753728485,169.03179944161636,45.67030561834747,3133.2222096613577,1
-25.921242373821407,-2.9611398963730577,-25.01099099099099,-109.03878596767836,126.94437448672325,25.816155458182493,19.81818181818187,-14.468354430379755,13.208000000000013,-12.248730964467011,-4.76250000000001,-31.566473988439306,-8.698630136986308,8.610169491525426,13.025641025641022,13.323562504679856,64.60994385837922,17.964457753728485,169.03179944161636,45.67030561834747,3133.2222096613577,1
-25.921242373821407,-2.9611398963730577,-25.01099099099099,-109.03878596767836,126.94437448672325,25.816155458182493,19.81818181818187,-49.83544303797469,-43.68799999999999,19.984771573604057,15.87499999999999,-5.138728323699421,5.219178082191775,4.305084745762715,-6.512820512820518,18.819878284506647,332.1019759757185,17.964457753728485,169.03179944161636,45.67030561834747,3133.2222096613577,1
-28.316139767054906,3.619170984455958,-24.782162162162162,-108.49814741821048,126.88874897344648,24.60640121927986,21.0,-49.83544303797469,-43.68799999999999,19.984771573604057,15.87499999999999,-5.138728323699421,5.219178082191775,4.305084745762715,-6.512820512820518,18.819878284506647,332.1019759757185,18.905824304557676,306.49813250210633,45.6331601882762,3075.9730134617676,1
-28.316139767054906,3.619170984455958,-24.782162162162162,-108.49814741821048,126.88874897344648,24.60640121927986,21.0,-7.105427357601002e-15,-39.62399999999999,-35.45685279187818,22.224999999999987,-5.138728323699421,12.178082191780817,21.525423728813564,26.051282051282048,20.27492113593175,192.76376746198304,18.905824304557676,306.49813250210633,45.6331601882762,3075.9730134617676,1
-28.316139767054906,3.619170984455958,-24.782162162162162,-108.49814741821048,126.88874897344648,24.60640121927986,21.0,-25.72151898734178,-45.719999999999985,-0.6446700507614267,-7.937500000000011,-30.098265895953755,-3.4794520547945265,17.22033898305085,16.282051282051277,18.3879746567442,227.15014487309574,18.905824304557676,306.49813250210633,45.6331601882762,3075.9730134617676,1
-24.195507487520796,3.4546632124352326,-26.49837837837838,-108.11769806858494,126.80531070353133,24.461230710611574,21.363636363636374,-25.72151898734178,-45.719999999999985,-0.6446700507614267,-7.937500000000011,-30.098265895953755,-3.4794520547945265,17.22033898305085,16.282051282051277,18.3879746567442,227.15014487309574,18.049516359444805,277.83664243627936,46.02357988646619,3024.512836773478,1
-24.195507487520796,3.4546632124352326,-26.49837837837838,-108.11769806858494,126.80531070353133,24.461230710611574,21.363636363636374,-14.468354430379755,55.88000000000001,1.9340101522842588,22.224999999999987,6.606936416184972,8.698630136986296,8.610169491525426,-3.552713678800501e-15,14.80288757842009,324.2925212368387,18.049516359444805,277.83664243627936,46.02357988646619,3024.512836773478,1
-24.195507487520796,3.4546632124352326,-26.49837837837838,-108.11769806858494,126.80531070353133,24.461230710611574,21.363636363636374,-22.506329113924057,25.400000000000013,9.670050761421315,15.87499999999999,3.6705202312138745,3.479452054794514,4.305084745762715,13.025641025641022,12.241509741594689,73.16632215009933,18.049516359444805,277.83664243627936,46.02357988646619,3024.512836773478,1
-20.81447587354409,-1.6450777202072544,-26.58990990990991,-107.85739061884115,126.8470298384889,24.848352067060375,20.863636363636374,-22.506329113924057,25.400000000000013,9.670050761421315,15.87499999999999,3.6705202312138745,3.479452054794514,4.305084745762715,13.025641025641022,12.241509741594689,73.16632215009933,16.349821167887086,170.51101947366539,45.364126082986104,3084.617247504375,1
-20.81447587354409,-1.6450777202072544,-26.58990990990991,-107.85739061884115,126.8470298384889,24.848352067060375,20.863636363636374,-14.468354430379755,19.304000000000013,-0.6446700507614267,9.524999999999988,-2.202312138728322,-6.217248937900877e-15,4.305084745762715,16.282051282051277,8.341434080960436,57.85312393675838,16.349821167887086,170.51101947366539,45.364126082986104,3084.617247504375,1
-20.81447587354409,-1.6450777202072544,-26.58990990990991,-107.85739061884115,126.8470298384889,24.848352067060375,20.863636363636374,-4.82278481012659,5.0800000000000125,-5.802030456852798,6.349999999999989,-11.011560693641616,13.917808219178076,10.762711864406782,6.512820512820509,8.032464569628296,11.442923784628004,16.349821167887086,170.51101947366539,45.364126082986104,3084.617247504375,1
-21.835829173599553,0.41126943005181316,-25.926306306306305,-107.61710681907765,126.87484259512728,24.945132406172604,20.636363636363683,-4.82278481012659,5.0800000000000125,-5.802030456852798,6.349999999999989,-11.011560693641616,13.917808219178076,10.762711864406782,6.512820512820509,8.032464569628296,11.442923784628004,16.057801636652556,200.88888252036386,44.65156085181192,3136.2492609160463,1
-21.835829173599553,0.41126943005181316,-25.926306306306305,-107.61710681907765,126.87484259512728,24.945132406172604,20.636363636363683,-22.506329113924057,1.0160000000000124,-57.37563451776651,4.762499999999989,-3.670520231213871,6.958904109589035,10.762711864406782,9.769230769230766,14.602728825766377,341.3524767360817,16.057801636652556,200.88888252036386,44.65156085181192,3136.2492609160463,1
-21.835829173599553,0.41126943005181316,-25.926306306306305,-107.61710681907765,126.87484259512728,24.945132406172604,20.636363636363683,-33.75949367088609,-55.87999999999999,-3.223350253807112,17.462499999999988,-22.75722543352601,-6.217248937900877e-15,15.067796610169495,19.538461538461533,20.96110343835628,312.76359008617743,16.057801636652556,200.88888252036386,44.65156085181192,3136.2492609160463,1
-21.835829173599553,0.41126943005181316,-25.926306306306305,-107.61710681907765,126.87484259512728,24.945132406172604,20.636363636363683,-16.075949367088615,-15.239999999999988,-12.248730964467011,6.349999999999989,0.734104046242777,10.438356164383556,17.22033898305085,19.538461538461533,12.230742632961789,38.8726968013503,16.057801636652556,200.88888252036386,44.65156085181192,3136.2492609160463,1
-21.835829173599553,0.41126943005181316,-25.926306306306305,-107.61710681907765,126.87484259512728,24.945132406172604,20.636363636363683,-4.82278481012659,-3.0479999999999876,-17.406091370558382,3.17499999999999,-13.947976878612716,8.698630136986296,30.135593220338986,32.56410256410256,14.224772372590687,137.9479980746276,16.057801636652556,200.88888252036386,44.65156085181192,3136.2492609160463,1
-21.835829173599553,0.41126943005181316,-25.926306306306305,-107.61710681907765,126.87484259512728,24.945132406172604,20.636363636363683,-24.113924050632917,25.400000000000013,4.512690355329944,15.87499999999999,-8.075144508670519,3.479452054794514,15.067796610169495,6.512820512820509,12.879603511552236,74.10253008566391,16.057801636652556,200.88888252036386,44.65156085181192,3136.2492609160463,1
-21.835829173599553,0.41126943005181316,-25.926306306306305,-107.61710681907765,126.87484259512728,24.945132406172604,20.636363636363683,-20.898734177215196,15.240000000000013,3.2233502538071015,17.462499999999988,-9.543352601156068,5.219178082191775,8.610169491525426,6.512820512820509,10.83876313983951,39.91150579070085,16.057801636652556,200.88888252036386,44.65156085181192,3136.2492609160463,1
-18.877426511369936,20.48121761658031,-21.18954954954955,-117.8491919590067,123.92669039145908,26.106496475519123,31.590909090909122,-20.898734177215196,15.240000000000013,3.2233502538071015,17.462499999999988,-9.543352601156068,5.219178082191775,8.610169491525426,6.512820512820509,10.83876313983951,39.91150579070085,20.182731225833265,548.4836027913533,53.17331970837885,3137.3517720664668,1
-18.877426511369936,20.48121761658031,-21.18954954954955,-117.8491919590067,123.92669039145908,26.106496475519123,31.590909090909122,-33.75949367088609,-7.111999999999988,12.248730964467,15.87499999999999,-15.416184971098264,-6.217248937900877e-15,6.457627118644071,6.512820512820509,12.17273215473949,104.10060933786276,20.182731225833265,548.4836027913533,53.17331970837885,3137.3517720664668,1
-18.877426511369936,20.48121761658031,-21.18954954954955,-117.8491919590067,123.92669039145908,26.106496475519123,31.590909090909122,-20.898734177215196,5.0800000000000125,23.852791878172585,4.762499999999989,-12.479768786127167,6.958904109589035,6.457627118644071,9.769230769230766,11.282444604872353,53.88027427639916,20.182731225833265,548.4836027913533,53.17331970837885,3137.3517720664668,1
-20.955352190793118,19.000647668393782,-21.166666666666668,-118.40985415845486,123.82934574322475,25.090302914840947,32.81818181818187,-20.898734177215196,5.0800000000000125,23.852791878172585,4.762499999999989,-12.479768786127167,6.958904109589035,6.457627118644071,9.769230769230766,11.282444604872353,53.88027427639916,20.374222175284526,534.9899532411017,52.8590561645051,3223.853247807926,1
-20.955352190793118,19.000647668393782,-21.166666666666668,-118.40985415845486,123.82934574322475,25.090302914840947,32.81818181818187,11.253164556962016,11.176000000000013,3.2233502538071015,-1.0658141036401503e-14,-8.075144508670519,3.479452054794514,4.305084745762715,9.769230769230766,6.410178361153457,17.78425033694199,20.374222175284526,534.9899532411017,52.8590561645051,3223.853247807926,1
-20.955352190793118,19.000647668393782,-21.166666666666668,-118.40985415845486,123.82934574322475,25.090302914840947,32.81818181818187,-22.506329113924057,-21.335999999999988,22.563451776649742,22.224999999999987,-2.202312138728322,5.219178082191775,10.762711864406782,6.512820512820509,14.165975436090147,78.53766330466672,20.374222175284526,534.9899532411017,52.8590561645051,3223.853247807926,1
-21.20188574597892,19.658678756476682,-22.173513513513512,-118.95049270792275,123.69028196003283,24.219279862831,34.04545454545456,-22.506329113924057,-21.335999999999988,22.563451776649742,22.224999999999987,-2.202312138728322,5.219178082191775,10.762711864406782,6.512820512820509,14.165975436090147,78.53766330466672,21.011359338656373,570.0770170152344,53.59422832597098,3205.1620689364836,1
-21.20188574597892,19.658678756476682,-22.173513513513512,-118.95049270792275,123.69028196003283,24.219279862831,34.04545454545456,-25.72151898734178,-64.00799999999998,-12.248730964467011,11.112499999999988,-6.60693641618497,17.3972602739726,38.74576271186441,26.051282051282048,25.236498925639097,351.9017634004594,21.011359338656373,570.0770170152344,53.59422832597098,3205.1620689364836,1
-21.20188574597892,19.658678756476682,-22.173513513513512,-118.95049270792275,123.69028196003283,24.219279862831,34.04545454545456,-22.506329113924057,-17.271999999999988,-5.802030456852798,9.524999999999988,-11.011560693641616,5.219178082191775,10.762711864406782,9.769230769230766,11.483505122530971,33.43528895358053,21.011359338656373,570.0770170152344,53.59422832597098,3205.1620689364836,1
-21.20188574597892,16.368523316062173,-22.1963963963964,-119.37098935750886,123.53731179852177,23.299866641264998,35.363636363636374,-22.506329113924057,-17.271999999999988,-5.802030456852798,9.524999999999988,-11.011560693641616,5.219178082191775,10.762711864406782,9.769230769230766,11.483505122530971,33.43528895358053,19.92226848614583,483.29628682521155,52.64530302332248,3347.728938736291,1
-21.20188574597892,16.368523316062173,-22.1963963963964,-119.37098935750886,123.53731179852177,23.299866641264998,35.363636363636374,-28.936708860759502,1.0160000000000124,-12.248730964467011,14.287499999999989,-9.543352601156068,-6.217248937900877e-15,8.610169491525426,6.512820512820509,10.144410303841067,82.41205535083414,19.92226848614583,483.29628682521155,52.64530302332248,3347.728938736291,1
-21.20188574597892,16.368523316062173,-22.1963963963964,-119.37098935750886,123.53731179852177,23.299866641264998,35.363636363636374,-17.683544303797476,9.144000000000013,-1.9340101522842694,11.112499999999988,-2.202312138728322,6.958904109589035,17.22033898305085,13.025641025641022,9.910156339136371,36.76326590248526,19.92226848614583,483.29628682521155,52.64530302332248,3347.728938736291,1
-21.307542983915692,14.97020725388601,-22.425225225225226,-119.7714623571147,123.39824801532986,22.33206325014288,36.63636363636368,-17.683544303797476,9.144000000000013,-1.9340101522842694,11.112499999999988,-2.202312138728322,6.958904109589035,17.22033898305085,13.025641025641022,9.910156339136371,36.76326590248526,19.56765848767564,452.6237910347713,52.388964945408645,3419.195041317177,1
-21.307542983915692,14.97020725388601,-22.425225225225226,-119.7714623571147,123.39824801532986,22.33206325014288,36.63636363636368,-27.329113924050638,1.0160000000000124,-7.09137055837564,-7.937500000000011,-34.50289017341041,-60.89041095890411,-38.7457627118644,-9.769230769230774,23.410284886979497,424.5194619446924,19.56765848767564,452.6237910347713,52.388964945408645,3419.195041317177,1
-21.307542983915692,14.97020725388601,-22.425225225225226,-119.7714623571147,123.39824801532986,22.33206325014288,36.63636363636368,-25.72151898734178,5.0800000000000125,-5.802030456852798,20.63749999999999,-3.670520231213871,5.219178082191775,6.457627118644071,-3.256410256410259,9.480598141581819,74.41952401342805,19.56765848767564,452.6237910347713,52.388964945408645,3419.195041317177,1
-23.526344980587908,12.50259067357513,-24.30162162162162,-119.87158060701616,123.18965234054203,21.315869689464648,38.27272727272731,-25.72151898734178,5.0800000000000125,-5.802030456852798,20.63749999999999,-3.670520231213871,5.219178082191775,6.457627118644071,-3.256410256410259,9.480598141581819,74.41952401342805,20.110185758594884,442.2058834853108,52.22526430073764,3466.822365185053,1
-23.526344980587908,12.50259067357513,-24.30162162162162,-119.87158060701616,123.18965234054203,21.315869689464648,38.27272727272731,-25.72151898734178,-11.175999999999988,-10.959390862944169,15.87499999999999,-5.138728323699421,12.178082191780817,21.525423728813564,6.512820512820509,13.635870575925031,50.228652798241235,20.110185758594884,442.2058834853108,52.22526430073764,3466.822365185053,1
-23.526344980587908,12.50259067357513,-24.30162162162162,-119.87158060701616,123.18965234054203,21.315869689464648,38.27272727272731,-12.860759493670894,5.0800000000000125,-5.802030456852798,-1.0658141036401503e-14,-16.884393063583815,3.479452054794514,12.915254237288138,16.282051282051277,9.162992573530182,40.32627580686961,20.110185758594884,442.2058834853108,52.22526430073764,3466.822365185053,1
-25.428175263449802,13.571891191709843,-26.567027027027027,-119.87158060701616,122.89761839583902,20.299676128786416,40.13636363636368,-12.860759493670894,5.0800000000000125,-5.802030456852798,-1.0658141036401503e-14,-16.884393063583815,3.479452054794514,12.915254237288138,16.282051282051277,9.162992573530182,40.32627580686961,21.85569782739556,522.2391537694531,53.33683294191767,3362.3728739883313,1
-25.428175263449802,13.571891191709843,-26.567027027027027,-119.87158060701616,122.89761839583902,20.299676128786416,40.13636363636368,-11.253164556962034,19.304000000000013,1.9340101522842588,11.112499999999988,-2.202312138728322,10.438356164383556,6.457627118644071,26.051282051282048,11.094156522785536,68.00620159121404,21.85569782739556,522.2391537694531,53.33683294191767,3362.3728739883313,1
-25.428175263449802,13.571891191709843,-26.567027027027027,-119.87158060701616,122.89761839583902,20.299676128786416,40.13636363636368,-24.113924050632917,-13.207999999999988,-0.6446700507614267,20.63749999999999,-12.479768786127167,15.657534246575336,17.22033898305085,9.769230769230766,14.216370860797305,51.18485019739518,21.85569782739556,522.2391537694531,53.33683294191767,3362.3728739883313,1
-22.364115363283414,14.06541450777202,-28.0772972972973,-120.21198265668112,122.5360525595401,19.525433415888756,42.09090909090912,-24.113924050632917,-13.207999999999988,-0.6446700507614267,20.63749999999999,-12.479768786127167,15.657534246575336,17.22033898305085,9.769230769230766,14.216370860797305,51.18485019739518,21.502275722784248,522.6265421203987,54.11823148725014,3325.371172561842,1
-22.364115363283414,14.06541450777202,-28.0772972972973,-120.21198265668112,122.5360525595401,19.525433415888756,42.09090909090912,-11.253164556962034,21.336000000000013,22.563451776649742,1.5874999999999897,-3.670520231213871,-1.7397260273972668,19.372881355932208,26.051282051282048,13.446815749929646,102.49006919106387,21.502275722784248,522.6265421203987,54.11823148725014,3325.371172561842,1
-22.364115363283414,14.06541450777202,-28.0772972972973,-120.21198265668112,122.5360525595401,19.525433415888756,42.09090909090912,-24.113924050632917,-1.0159999999999876,9.670050761421315,-6.3500000000000085,-22.75722543352601,-10.438356164383569,8.610169491525426,16.282051282051277,12.404722147942564,64.48853139684198,21.502275722784248,522.6265421203987,54.11823148725014,3325.371172561842,1
-18.94786466999445,4.523963730569948,-27.16198198198198,-120.55238470634607,122.35526964139062,19.138312059439897,43.04545454545456,-24.113924050632917,-1.0159999999999876,9.670050761421315,-6.3500000000000085,-22.75722543352601,-10.438356164383569,8.610169491525426,16.282051282051277,12.404722147942564,64.48853139684198,16.877936794182126,270.3996012299038,50.74611013963266,3782.80694425035,1
-18.94786466999445,4.523963730569948,-27.16198198198198,-120.55238470634607,122.35526964139062,19.138312059439897,43.04545454545456,-33.75949367088609,-9.143999999999988,34.16751269035532,12.699999999999989,-16.884393063583815,5.219178082191775,6.457627118644071,-3.552713678800501e-15,14.791525578207633,165.10496255667144,16.877936794182126,270.3996012299038,50.74611013963266,3782.80694425035,1
-18.94786466999445,4.523963730569948,-27.16198198198198,-120.55238470634607,122.35526964139062,19.138312059439897,43.04545454545456,-20.898734177215196,5.0800000000000125,3.2233502538071015,25.399999999999988,-2.202312138728322,24.356164383561637,19.372881355932208,3.256410256410252,12.973731570706839,107.93677887758908,16.877936794182126,270.3996012299038,50.74611013963266,3782.80694425035,1
-14.862451469772598,-4.27720207253886,-25.697477477477477,-120.95285770595191,122.52214618122092,19.670603924557042,42.0,-20.898734177215196,5.0800000000000125,3.2233502538071015,25.399999999999988,-2.202312138728322,24.356164383561637,19.372881355932208,3.256410256410252,12.973731570706839,107.93677887758908,14.945710339929645,114.71224863544941,50.30917908532275,3857.6040463969084,1
-14.862451469772598,-4.27720207253886,-25.697477477477477,-120.95285770595191,122.52214618122092,19.670603924557042,42.0,-14.468354430379755,27.432000000000013,21.2741116751269,3.17499999999999,-8.075144508670519,19.13698630136986,21.525423728813564,3.256410256410252,14.792928862596355,82.75009711656048,14.945710339929645,114.71224863544941,50.30917908532275,3857.6040463969084,1
-14.862451469772598,-4.27720207253886,-25.697477477477477,-120.95285770595191,122.52214618122092,19.670603924557042,42.0,-22.506329113924057,3.0480000000000125,-10.959390862944169,-1.0658141036401503e-14,-8.075144508670519,33.054794520547944,25.830508474576273,6.512820512820509,13.748373499185435,141.607230000735,14.945710339929645,114.71224863544941,50.30917908532275,3857.6040463969084,1
-14.54547975596228,-18.918393782383422,-27.093333333333334,-120.87276310603075,122.70292909937037,20.25128595923036,40.863636363636374,-22.506329113924057,3.0480000000000125,-10.959390862944169,-1.0658141036401503e-14,-8.075144508670519,33.054794520547944,25.830508474576273,6.512820512820509,13.748373499185435,141.607230000735,20.185735623893013,40.566773857216575,55.62816340724917,3209.3507515561078,1
-14.54547975596228,-18.918393782383422,-27.093333333333334,-120.87276310603075,122.70292909937037,20.25128595923036,40.863636363636374,-28.936708860759502,-15.239999999999988,-61.24365482233503,19.04999999999999,-18.352601156069362,-8.698630136986308,-2.152542372881353,-3.256410256410259,19.616318450680225,361.80009444294956,20.185735623893013,40.566773857216575,55.62816340724917,3209.3507515561078,1
-14.54547975596228,-18.918393782383422,-27.093333333333334,-120.87276310603075,122.70292909937037,20.25128595923036,40.863636363636374,-33.75949367088609,-13.207999999999988,-12.248730964467011,19.04999999999999,16.88439306358382,12.178082191780817,12.915254237288138,9.769230769230766,16.251648112154577,58.54144758510734,20.185735623893013,40.566773857216575,55.62816340724917,3209.3507515561078,1
-19.370493621741538,-17.026554404145077,-26.063603603603603,-120.35214820654316,122.89761839583902,20.396456467898645,40.09090909090912,-33.75949367088609,-13.207999999999988,-12.248730964467011,19.04999999999999,16.88439306358382,12.178082191780817,12.915254237288138,9.769230769230766,16.251648112154577,58.54144758510734,20.820217209830073,21.993338419753716,54.48076873809728,3274.696039365354,1
-19.370493621741538,-17.026554404145077,-26.063603603603603,-120.35214820654316,122.89761839583902,20.396456467898645,40.09090909090912,-30.54430379746836,-15.239999999999988,31.58883248730964,-15.87500000000001,-22.75722543352601,-15.657534246575349,8.610169491525426,6.512820512820509,18.34823574615316,85.91736503315164,20.820217209830073,21.993338419753716,54.48076873809728,3274.696039365354,1
-19.370493621741538,-17.026554404145077,-26.063603603603603,-120.35214820654316,122.89761839583902,20.396456467898645,40.09090909090912,-11.253164556962034,49.78400000000001,23.852791878172585,-1.0658141036401503e-14,-11.011560693641616,-6.217248937900877e-15,21.525423728813564,13.025641025641022,16.306572735403858,257.29531338184836,20.820217209830073,21.993338419753716,54.48076873809728,3274.696039365354,1
-22.39933444259567,-18.58937823834197,-25.514414414414414,-119.35096570752857,123.0784013139885,20.396456467898645,39.454545454545496,-11.253164556962034,49.78400000000001,23.852791878172585,-1.0658141036401503e-14,-11.011560693641616,-6.217248937900877e-15,21.525423728813564,13.025641025641022,16.306572735403858,257.29531338184836,22.167709031784018,12.029269258178271,54.48491945342832,3167.691998989283,1
-22.39933444259567,-18.58937823834197,-25.514414414414414,-119.35096570752857,123.0784013139885,20.396456467898645,39.454545454545496,-24.113924050632917,-11.175999999999988,-4.512690355329955,36.51249999999999,22.757225433526013,41.75342465753424,17.22033898305085,3.256410256410252,20.162814217060525,196.56896927330587,22.167709031784018,12.029269258178271,54.48491945342832,3167.691998989283,1
-22.39933444259567,-18.58937823834197,-25.514414414414414,-119.35096570752857,123.0784013139885,20.396456467898645,39.454545454545496,-12.860759493670894,3.0480000000000125,-14.827411167512697,-9.52500000000001,-18.352601156069362,-15.657534246575349,-2.152542372881353,9.769230769230766,10.774134900742554,34.09413988218705,22.167709031784018,12.029269258178271,54.48491945342832,3167.691998989283,1
-17.926511369938986,-21.139248704663213,-25.125405405405406,-118.77027985810012,123.41215439364906,20.92874833301579,37.77272727272731,-12.860759493670894,3.0480000000000125,-14.827411167512697,-9.52500000000001,-18.352601156069362,-15.657534246575349,-2.152542372881353,9.769230769230766,10.774134900742554,34.09413988218705,21.397055160002534,13.00586695977947,55.011644656056255,3052.845033431199,1
-17.926511369938986,-21.139248704663213,-25.125405405405406,-118.77027985810012,123.41215439364906,20.92874833301579,37.77272727272731,-14.468354430379755,5.0800000000000125,-4.512690355329955,34.92499999999998,16.88439306358382,78.2876712328767,23.67796610169492,19.538461538461533,24.671817090290833,566.0158521525119,21.397055160002534,13.00586695977947,55.011644656056255,3052.845033431199,1
-17.926511369938986,-21.139248704663213,-25.125405405405406,-118.77027985810012,123.41215439364906,20.92874833301579,37.77272727272731,-17.683544303797476,-3.0479999999999876,-8.380710659898483,14.287499999999989,-8.075144508670519,5.219178082191775,21.525423728813564,13.025641025641022,11.4056427886266,40.159497244097,21.397055160002534,13.00586695977947,55.011644656056255,3052.845033431199,1
-16.02468108707709,-18.260362694300518,-24.827927927927927,-118.59006700827749,123.85715849986313,21.654600876357392,35.59090909090912,-17.683544303797476,-3.0479999999999876,-8.380710659898483,14.287499999999989,-8.075144508670519,5.219178082191775,21.525423728813564,13.025641025641022,11.4056427886266,40.159497244097,19.704323903101848,20.9380567146298,53.89278587683531,3150.0868676251357,1
-16.02468108707709,-18.260362694300518,-24.827927927927927,-118.59006700827749,123.85715849986313,21.654600876357392,35.59090909090912,-16.075949367088615,7.1120000000000125,3.2233502538071015,4.762499999999989,-13.947976878612716,5.219178082191775,17.22033898305085,16.282051282051277,10.480418105850292,35.25798903955895,19.704323903101848,20.9380567146298,53.89278587683531,3150.0868676251357,1
-16.02468108707709,-18.260362694300518,-24.827927927927927,-118.59006700827749,123.85715849986313,21.654600876357392,35.59090909090912,-28.936708860759502,-41.65599999999999,-3.223350253807112,6.349999999999989,-41.84393063583815,-5.219178082191787,-2.152542372881353,6.512820512820509,16.9868163397873,305.7224468953554,19.704323903101848,20.9380567146298,53.89278587683531,3150.0868676251357,1
-18.877426511369936,-7.731865284974093,-23.40918918918919,-118.50997240835633,124.14919244456611,21.606210706801278,34.54545454545456,-28.936708860759502,-41.65599999999999,-3.223350253807112,6.349999999999989,-41.84393063583815,-5.219178082191787,-2.152542372881353,6.512820512820509,16.9868163397873,305.7224468953554,16.67282699517774,65.08981546951466,49.883675627506534,3593.6210785893745,1
-18.877426511369936,-7.731865284974093,-23.40918918918919,-118.50997240835633,124.14919244456611,21.606210706801278,34.54545454545456,51.443037974683534,127.00000000000001,-44.48223350253808,34.92499999999998,21.289017341040463,8.698630136986296,15.067796610169495,26.051282051282048,41.11962470208749,1411.6884014461373,16.67282699517774,65.08981546951466,49.883675627506534,3593.6210785893745,1
-18.877426511369936,-7.731865284974093,-23.40918918918919,-118.50997240835633,124.14919244456611,21.606210706801278,34.54545454545456,-38.582278481012665,-9.143999999999988,7.09137055837563,1.5874999999999897,-35.971098265895954,-41.753424657534254,2.152542372881358,3.256410256410252,17.442328074013762,320.5200285446595,16.67282699517774,65.08981546951466,49.883675627506534,3593.6210785893745,1
-23.385468663338877,4.935233160621761,-23.935495495495495,-118.26968860859283,124.1770052012045,21.267479519908534,34.72727272727275,-38.582278481012665,-9.143999999999988,7.09137055837563,1.5874999999999897,-35.971098265895954,-41.753424657534254,2.152542372881358,3.256410256410252,17.442328074013762,320.5200285446595,17.41873243981871,272.647275742155,49.04680575490337,3684.108125130217,1
-23.385468663338877,4.935233160621761,-23.935495495495495,-118.26968860859283,124.1770052012045,21.267479519908534,34.72727272727275,-40.18987341772153,-45.719999999999985,8.380710659898472,6.349999999999989,-11.011560693641616,-26.095890410958912,-2.152542372881353,13.025641025641022,19.115777322592862,267.050046195459,17.41873243981871,272.647275742155,49.04680575490337,3684.108125130217,1
-23.385468663338877,4.935233160621761,-23.935495495495495,-118.26968860859283,124.1770052012045,21.267479519908534,34.72727272727275,3.215189873417714,-15.239999999999988,62.53299492385787,28.57499999999999,-21.289017341040463,31.31506849315068,36.59322033898306,35.82051282051282,29.322625473870325,306.7141278860196,17.41873243981871,272.647275742155,49.04680575490337,3684.108125130217,1
-21.58929561841375,1.23380829015544,-22.92864864864865,-118.24966495861253,124.37169449767315,20.831967993903618,34.363636363636374,3.215189873417714,-15.239999999999988,62.53299492385787,28.57499999999999,-21.289017341040463,31.31506849315068,36.59322033898306,35.82051282051282,29.322625473870325,306.7141278860196,15.25058418573928,184.41871064675126,47.47070729913887,3874.9121600663007,1
-21.58929561841375,1.23380829015544,-22.92864864864865,-118.24966495861253,124.37169449767315,20.831967993903618,34.363636363636374,-38.582278481012665,-47.75199999999999,4.512690355329944,23.812499999999986,25.69364161849711,1.739726027397254,19.372881355932208,9.769230769230766,21.40436857592499,260.7150803329741,15.25058418573928,184.41871064675126,47.47070729913887,3874.9121600663007,1
-21.58929561841375,1.23380829015544,-22.92864864864865,-118.24966495861253,124.37169449767315,20.831967993903618,34.363636363636374,-38.582278481012665,-21.335999999999988,-16.11675126903554,52.38749999999999,41.843930635838156,29.57534246575342,15.067796610169495,6.512820512820509,27.67780249682872,244.94309525968404,15.25058418573928,184.41871064675126,47.47070729913887,3874.9121600663007,1
-13.805879090404876,-4.770725388601036,-20.61747747747748,-119.03058730784392,124.8445113605256,20.541626976566988,32.863636363636374,-38.582278481012665,-21.335999999999988,-16.11675126903554,52.38749999999999,41.843930635838156,29.57534246575342,15.067796610169495,6.512820512820509,27.67780249682872,244.94309525968404,13.064693985494463,63.19190446138326,48.13959672464082,3831.929297342421,1
-13.805879090404876,-4.770725388601036,-20.61747747747748,-119.03058730784392,124.8445113605256,20.541626976566988,32.863636363636374,-9.645569620253172,-11.175999999999988,-23.852791878172596,11.112499999999988,-12.479768786127167,-8.698630136986308,15.067796610169495,13.025641025641022,13.132337257168718,22.690526467710352,13.064693985494463,63.19190446138326,48.13959672464082,3831.929297342421,1
-15.07376594564614,-3.454663212435234,-21.235315315315315,-119.5512022073315,125.16435806186696,20.396456467898645,31.81818181818187,-9.645569620253172,-11.175999999999988,-23.852791878172596,11.112499999999988,-12.479768786127167,-8.698630136986308,15.067796610169495,13.025641025641022,13.132337257168718,22.690526467710352,13.254581491132228,81.51997136057227,48.080393578360685,3910.0952618601405,1
-15.07376594564614,-3.454663212435234,-21.235315315315315,-119.5512022073315,125.16435806186696,20.396456467898645,31.81818181818187,1.6075949367088533,45.72000000000001,25.142131979695428,30.162499999999987,15.416184971098268,5.219178082191775,6.457627118644071,16.282051282051277,18.25090854629871,220.2493409948034,13.254581491132228,81.51997136057227,48.080393578360685,3910.0952618601405,1
-15.07376594564614,-3.454663212435234,-21.235315315315315,-119.5512022073315,125.16435806186696,20.396456467898645,31.81818181818187,-22.506329113924057,17.272000000000013,3.2233502538071015,15.87499999999999,-8.075144508670519,3.479452054794514,-4.305084745762709,-3.552713678800501e-15,9.342045084619864,66.41718503487814,13.254581491132228,81.51997136057227,48.080393578360685,3910.0952618601405,1
-21.62451469772601,2.3031088082901547,-20.77765765765766,-119.79148600709499,125.42857924993156,19.235092398552126,31.77272727272731,-22.506329113924057,17.272000000000013,3.2233502538071015,15.87499999999999,-8.075144508670519,3.479452054794514,-4.305084745762709,-3.552713678800501e-15,9.342045084619864,66.41718503487814,14.901760387891274,184.32835235793198,47.62408415768093,3991.4276560680255,1
-21.62451469772601,2.3031088082901547,-20.77765765765766,-119.79148600709499,125.42857924993156,19.235092398552126,31.77272727272731,4.822784810126574,57.91200000000001,-13.538071065989854,15.87499999999999,-6.60693641618497,1.739726027397254,2.152542372881358,16.282051282051277,14.86613899682891,337.25059560065625,14.901760387891274,184.32835235793198,47.62408415768093,3991.4276560680255,1
-21.62451469772601,2.3031088082901547,-20.77765765765766,-119.79148600709499,125.42857924993156,19.235092398552126,31.77272727272731,-49.83544303797469,-33.52799999999999,16.11675126903553,3.17499999999999,-19.820809248554912,6.958904109589035,17.22033898305085,3.256410256410252,18.738957113076907,259.5393516995119,14.901760387891274,184.32835235793198,47.62408415768093,3991.4276560680255,1
-19.86356073211314,5.922279792746114,-20.93783783783784,-120.29207725660228,125.56764303312345,18.025338159649436,32.18181818181819,-49.83544303797469,-33.52799999999999,16.11675126903553,3.17499999999999,-19.820809248554912,6.958904109589035,17.22033898305085,3.256410256410252,18.738957113076907,259.5393516995119,15.574559454232364,231.2549270003608,49.05073162906208,3862.8637409683606,1
-19.86356073211314,5.922279792746114,-20.93783783783784,-120.29207725660228,125.56764303312345,18.025338159649436,32.18181818181819,-46.62025316455697,-11.175999999999988,-7.09137055837564,1.5874999999999897,9.543352601156073,-6.958904109589048,-2.152542372881353,-13.025641025641029,12.269445479025013,208.66386042054324,15.574559454232364,231.2549270003608,49.05073162906208,3862.8637409683606,1
-19.86356073211314,5.922279792746114,-20.93783783783784,-120.29207725660228,125.56764303312345,18.025338159649436,32.18181818181819,8.037974683544295,41.65600000000001,10.959390862944158,-7.937500000000011,-18.352601156069362,1.739726027397254,21.525423728813564,16.282051282051277,15.811333467602493,150.17872509439295,15.574559454232364,231.2549270003608,49.05073162906208,3862.8637409683606,1
-14.475041597337766,9.705958549222798,-21.73873873873874,-120.89278675601103,125.48420476320833,18.07372832920555,32.454545454545496,8.037974683544295,41.65600000000001,10.959390862944158,-7.937500000000011,-18.352601156069362,1.739726027397254,21.525423728813564,16.282051282051277,15.811333467602493,150.17872509439295,15.3065796284331,271.0418419635823,50.77916134799085,3723.1373006644317,1
-14.475041597337766,9.705958549222798,-21.73873873873874,-120.89278675601103,125.48420476320833,18.07372832920555,32.454545454545496,-35.367088607594944,-13.207999999999988,-18.695431472081225,14.287499999999989,9.543352601156073,8.698630136986296,2.152542372881358,-3.552713678800501e-15,12.744068148837485,121.5741478134532,15.3065796284331,271.0418419635823,50.77916134799085,3723.1373006644317,1
-14.475041597337766,9.705958549222798,-21.73873873873874,-120.89278675601103,125.48420476320833,18.07372832920555,32.454545454545496,-12.860759493670894,7.1120000000000125,9.670050761421315,22.224999999999987,-16.884393063583815,1.739726027397254,15.067796610169495,19.538461538461533,13.137273436838038,45.66227262855495,15.3065796284331,271.0418419635823,50.77916134799085,3723.1373006644317,1
-6.902939545202436,6.827072538860103,-22.63117117117117,-121.4734726054395,125.30342184505885,19.912554772337614,31.636363636363683,-12.860759493670894,7.1120000000000125,9.670050761421315,22.224999999999987,-16.884393063583815,1.739726027397254,15.067796610169495,19.538461538461533,13.137273436838038,45.66227262855495,12.120394418411237,217.2797707313706,50.31057210515692,3860.5611891047924,1
-6.902939545202436,6.827072538860103,-22.63117117117117,-121.4734726054395,125.30342184505885,19.912554772337614,31.636363636363683,-36.9746835443038,-47.75199999999999,-30.299492385786806,-1.0658141036401503e-14,-24.22543352601156,-3.4794520547945265,8.610169491525426,-3.552713678800501e-15,18.91765387530277,339.36173938133055,12.120394418411237,217.2797707313706,50.31057210515692,3860.5611891047924,1
-6.902939545202436,6.827072538860103,-22.63117117117117,-121.4734726054395,125.30342184505885,19.912554772337614,31.636363636363683,-22.506329113924057,-23.367999999999988,-10.959390862944169,-6.3500000000000085,-46.2485549132948,-3.4794520547945265,3.552713678800501e-15,22.794871794871792,16.963324842478666,225.94792898481683,12.120394418411237,217.2797707313706,50.31057210515692,3860.5611891047924,1
-12.714087631724897,6.744818652849741,-23.615135135135137,-121.37335435553804,125.03920065699425,21.55782053724522,31.27272727272731,-22.506329113924057,-23.367999999999988,-10.959390862944169,-6.3500000000000085,-46.2485549132948,-3.4794520547945265,3.552713678800501e-15,22.794871794871792,16.963324842478666,225.94792898481683,14.358013806569923,236.5347774120071,50.577769381174306,3830.1630334498846,1
-12.714087631724897,6.744818652849741,-23.615135135135137,-121.37335435553804,125.03920065699425,21.55782053724522,31.27272727272731,-20.898734177215196,35.56000000000002,-5.802030456852798,-17.46250000000001,-46.2485549132948,-8.698630136986308,2.152542372881358,-3.256410256410259,17.509925289205093,259.5608470095762,14.358013806569923,236.5347774120071,50.577769381174306,3830.1630334498846,1
-12.714087631724897,6.744818652849741,-23.615135135135137,-121.37335435553804,125.03920065699425,21.55782053724522,31.27272727272731,-11.253164556962034,11.176000000000013,22.563451776649742,20.63749999999999,-0.7341040462427735,1.739726027397254,15.067796610169495,13.025641025641022,12.024673005382791,61.440248285374764,14.358013806569923,236.5347774120071,50.577769381174306,3830.1630334498846,1
-22.82196339434276,5.346502590673575,-22.493873873873873,-120.67252660622783,124.88623049548316,21.606210706801278,31.77272727272731,-11.253164556962034,11.176000000000013,22.563451776649742,20.63749999999999,-0.7341040462427735,1.739726027397254,15.067796610169495,13.025641025641022,12.024673005382791,61.440248285374764,16.88744661963007,261.44278006169856,49.50430102359176,3872.1953349167115,1
-22.82196339434276,5.346502590673575,-22.493873873873873,-120.67252660622783,124.88623049548316,21.606210706801278,31.77272727272731,-33.75949367088609,-7.111999999999988,-13.538071065989854,4.762499999999989,-12.479768786127167,-6.217248937900877e-15,6.457627118644071,3.256410256410252,10.170733862257176,110.96341395630942,16.88744661963007,261.44278006169856,49.50430102359176,3872.1953349167115,1
-22.82196339434276,5.346502590673575,-22.493873873873873,-120.67252660622783,124.88623049548316,21.606210706801278,31.77272727272731,-7.105427357601002e-15,76.20000000000002,7.09137055837563,6.349999999999989,-5.138728323699421,12.178082191780817,15.067796610169495,13.025641025641022,16.8814523387083,598.3715150503452,16.88744661963007,261.44278006169856,49.50430102359176,3872.1953349167115,1
-29.76012201885746,2.220854922279792,-20.86918918918919,-119.93165155695704,124.98357514371749,19.815774433225386,32.909090909090935,-7.105427357601002e-15,76.20000000000002,7.09137055837563,6.349999999999989,-5.138728323699421,12.178082191780817,15.067796610169495,13.025641025641022,16.8814523387083,598.3715150503452,17.61672204344215,272.4969516268015,47.67389855614201,4002.827244277692,1
-29.76012201885746,2.220854922279792,-20.86918918918919,-119.93165155695704,124.98357514371749,19.815774433225386,32.909090909090935,-16.075949367088615,-19.303999999999988,-27.720812182741124,12.699999999999989,-21.289017341040463,1.739726027397254,10.762711864406782,9.769230769230766,14.920180943988122,63.92033420135529,17.61672204344215,272.4969516268015,47.67389855614201,4002.827244277692,1
-29.76012201885746,2.220854922279792,-20.86918918918919,-119.93165155695704,124.98357514371749,19.815774433225386,32.909090909090935,-35.367088607594944,-23.367999999999988,-25.14213197969544,14.287499999999989,-2.202312138728322,6.958904109589035,8.610169491525426,-6.512820512820518,15.306115854994207,132.68067880681585,17.61672204344215,272.4969516268015,47.67389855614201,4002.827244277692,1
-30.781475318912918,-3.5369170984455964,-20.434414414414416,-119.25084745762712,125.28951546673967,17.49304629453229,33.72727272727275,-35.367088607594944,-23.367999999999988,-25.14213197969544,14.287499999999989,-2.202312138728322,6.958904109589035,8.610169491525426,-6.512820512820518,15.306115854994207,132.68067880681585,18.250935610590975,189.14217292216804,47.740726323495714,3906.654422349403,1
-30.781475318912918,-3.5369170984455964,-20.434414414414416,-119.25084745762712,125.28951546673967,17.49304629453229,33.72727272727275,-17.683544303797476,-11.175999999999988,9.670050761421315,-6.3500000000000085,-40.3757225433526,-15.657534246575349,-4.305084745762709,9.769230769230766,14.373395921267527,129.71656978112978,18.250935610590975,189.14217292216804,47.740726323495714,3906.654422349403,1
-30.781475318912918,-3.5369170984455964,-20.434414414414416,-119.25084745762712,125.28951546673967,17.49304629453229,33.72727272727275,-6.430379746835451,-7.111999999999988,-13.538071065989854,25.399999999999988,-2.202312138728322,12.178082191780817,21.525423728813564,19.538461538461533,13.49059130132619,66.0932110317185,18.250935610590975,189.14217292216804,47.740726323495714,3906.654422349403,1
-29.76012201885746,-7.402849740932643,-21.555675675675676,-118.40985415845486,125.59545578976183,15.751000190512457,34.0,-6.430379746835451,-7.111999999999988,-13.538071065989854,25.399999999999988,-2.202312138728322,12.178082191780817,21.525423728813564,19.538461538461533,13.49059130132619,66.0932110317185,19.572882478488594,127.91050757442488,49.12279319168773,3650.5982335441636,1
-29.76012201885746,-7.402849740932643,-21.555675675675676,-118.40985415845486,125.59545578976183,15.751000190512457,34.0,-8.037974683544311,1.0160000000000124,19.984771573604057,26.98749999999999,24.225433526011564,20.87671232876712,17.22033898305085,19.538461538461533,17.23589907917993,73.96401553335009,19.572882478488594,127.91050757442488,49.12279319168773,3650.5982335441636,1
-29.76012201885746,-7.402849740932643,-21.555675675675676,-118.40985415845486,125.59545578976183,15.751000190512457,34.0,-57.87341772151899,-68.07199999999999,12.248730964467,9.524999999999988,-19.820809248554912,-6.217248937900877e-15,2.152542372881358,6.512820512820509,22.025665102530343,683.2517230436572,19.572882478488594,127.91050757442488,49.12279319168773,3650.5982335441636,1
-30.64059900166389,-5.099740932642488,-22.265045045045046,-117.46874260938115,125.81795784286886,14.105734425604908,34.454545454545496,-57.87341772151899,-68.07199999999999,12.248730964467,9.524999999999988,-19.820809248554912,-6.217248937900877e-15,2.152542372881358,6.512820512820509,22.025665102530343,683.2517230436572,19.335128326450473,169.5221667088989,48.27784286235623,3664.197372169957,1
-30.64059900166389,-5.099740932642488,-22.265045045045046,-117.46874260938115,125.81795784286886,14.105734425604908,34.454545454545496,16.075949367088597,92.45600000000002,-4.512690355329955,30.162499999999987,0.734104046242777,12.178082191780817,21.525423728813564,22.794871794871792,25.05495268551594,835.2111819184055,19.335128326450473,169.5221667088989,48.27784286235623,3664.197372169957,1
-30.64059900166389,-5.099740932642488,-22.265045045045046,-117.46874260938115,125.81795784286886,14.105734425604908,34.454545454545496,-4.82278481012659,7.1120000000000125,-9.670050761421326,4.762499999999989,-8.075144508670519,3.479452054794514,12.915254237288138,6.512820512820509,7.1687508606402,9.348334653049482,19.335128326450473,169.5221667088989,48.27784286235623,3664.197372169957,1
-29.090959511924567,-8.143134715025907,-22.013333333333335,-116.72786756011037,126.19343005748699,12.50885883025336,34.31818181818187,-4.82278481012659,7.1120000000000125,-9.670050761421326,4.762499999999989,-8.075144508670519,3.479452054794514,12.915254237288138,6.512820512820509,7.1687508606402,9.348334653049482,19.749142520094605,113.5477609594566,48.9614452028232,3492.3116017574966,1
-29.090959511924567,-8.143134715025907,-22.013333333333335,-116.72786756011037,126.19343005748699,12.50885883025336,34.31818181818187,-8.037974683544311,19.304000000000013,30.2994923857868,15.87499999999999,-3.670520231213871,1.739726027397254,8.610169491525426,22.794871794871792,13.791469326792432,99.4188387929129,19.749142520094605,113.5477609594566,48.9614452028232,3492.3116017574966,1
-29.090959511924567,-8.143134715025907,-22.013333333333335,-116.72786756011037,126.19343005748699,12.50885883025336,34.31818181818187,-6.430379746835451,-11.175999999999988,-0.6446700507614267,11.112499999999988,-11.011560693641616,8.698630136986296,19.372881355932208,26.051282051282048,11.812238004429876,60.688963677542084,19.749142520094605,113.5477609594566,48.9614452028232,3492.3116017574966,1
-26.90737659456461,-12.255829015544043,-22.676936936936936,-115.98699251083957,126.56890227210512,11.299104591350726,33.909090909090935,-6.430379746835451,-11.175999999999988,-0.6446700507614267,11.112499999999988,-11.011560693641616,8.698630136986296,19.372881355932208,26.051282051282048,11.812238004429876,60.688963677542084,20.613380849015197,56.86065941107502,50.306586154440176,3262.586706933642,1
-26.90737659456461,-12.255829015544043,-22.676936936936936,-115.98699251083957,126.56890227210512,11.299104591350726,33.909090909090935,-20.898734177215196,5.0800000000000125,0.644670050761416,11.112499999999988,-8.075144508670519,-6.217248937900877e-15,19.372881355932208,16.282051282051277,10.183247671828827,66.0714522265826,20.613380849015197,56.86065941107502,50.306586154440176,3262.586706933642,1
-26.90737659456461,-12.255829015544043,-22.676936936936936,-115.98699251083957,126.56890227210512,11.299104591350726,33.909090909090935,-20.898734177215196,31.496000000000013,19.984771573604057,12.699999999999989,-13.947976878612716,1.739726027397254,27.98305084745763,3.256410256410252,16.50083372008714,114.6348773630699,20.613380849015197,56.86065941107502,50.306586154440176,3262.586706933642,1
-26.449528563505268,-11.022020725388602,-24.27873873873874,-115.04588096176586,126.76359156857377,10.621642217565238,33.68181818181819,-20.898734177215196,31.496000000000013,19.984771573604057,12.699999999999989,-13.947976878612716,1.739726027397254,27.98305084745763,3.256410256410252,16.50083372008714,114.6348773630699,20.583429342544203,69.74348317399051,50.11554680863107,3205.8963630496773,1
-26.449528563505268,-11.022020725388602,-24.27873873873874,-115.04588096176586,126.76359156857377,10.621642217565238,33.68181818181819,-12.860759493670894,-3.0479999999999876,-7.09137055837564,11.112499999999988,-2.202312138728322,8.698630136986296,12.915254237288138,-3.552713678800501e-15,7.241103320631159,25.18802143286619,20.583429342544203,69.74348317399051,50.11554680863107,3205.8963630496773,1
-26.449528563505268,-11.022020725388602,-24.27873873873874,-115.04588096176586,126.76359156857377,10.621642217565238,33.68181818181819,-19.291139240506336,37.59200000000001,14.827411167512686,6.349999999999989,-18.352601156069362,-5.219178082191787,-10.762711864406779,-3.552713678800501e-15,14.049380188835869,135.1848893324408,20.583429342544203,69.74348317399051,50.11554680863107,3205.8963630496773,1
-25.99168053244592,-7.238341968911918,-26.246666666666666,-113.94458021284983,126.74968519025457,10.476471708896952,33.81818181818187,-19.291139240506336,37.59200000000001,14.827411167512686,6.349999999999989,-18.352601156069362,-5.219178082191787,-10.762711864406779,-3.552713678800501e-15,14.049380188835869,135.1848893324408,19.825563056008168,118.84485550374157,49.14319628280947,3239.743621390188,1
-25.99168053244592,-7.238341968911918,-26.246666666666666,-113.94458021284983,126.74968519025457,10.476471708896952,33.81818181818187,-7.105427357601002e-15,94.48800000000001,17.40609137055837,-1.587500000000011,-52.12138728323699,-3.4794520547945265,15.067796610169495,22.794871794871792,25.868137389203902,1050.7971907024669,19.825563056008168,118.84485550374157,49.14319628280947,3239.743621390188,1
-25.99168053244592,-7.238341968911918,-26.246666666666666,-113.94458021284983,126.74968519025457,10.476471708896952,33.81818181818187,12.860759493670876,37.59200000000001,-53.50761421319798,14.287499999999989,-6.60693641618497,13.917808219178076,21.525423728813564,22.794871794871792,22.88661423323966,239.38359808377024,19.825563056008168,118.84485550374157,49.14319628280947,3239.743621390188,1
-23.63200221852468,-5.264248704663213,-26.933153153153153,-113.10358691367757,126.69405967697783,10.766812726233582,33.68181818181819,12.860759493670876,37.59200000000001,-53.50761421319798,14.287499999999989,-6.60693641618497,13.917808219178076,21.525423728813564,22.794871794871792,22.88661423323966,239.38359808377024,18.60980135878035,136.3022311061593,48.433662923831314,3254.034656638817,1
-23.63200221852468,-5.264248704663213,-26.933153153153153,-113.10358691367757,126.69405967697783,10.766812726233582,33.68181818181819,-28.936708860759502,-15.239999999999988,-23.852791878172596,3.17499999999999,3.6705202312138745,10.438356164383556,4.305084745762715,9.769230769230766,12.423461581190374,92.89878092488948,18.60980135878035,136.3022311061593,48.433662923831314,3254.034656638817,1
-23.63200221852468,-5.264248704663213,-26.933153153153153,-113.10358691367757,126.69405967697783,10.766812726233582,33.68181818181819,-35.367088607594944,-11.175999999999988,14.827411167512686,20.63749999999999,-5.138728323699421,-5.219178082191787,-10.762711864406779,-22.794871794871796,15.740436230034675,104.07004207470742,18.60980135878035,136.3022311061593,48.433662923831314,3254.034656638817,1
-21.800610094287297,-8.060880829015545,-26.88738738738739,-112.40275916436737,126.73577881193539,11.250714421794612,33.09090909090912,-35.367088607594944,-11.175999999999988,14.827411167512686,20.63749999999999,-5.138728323699421,-5.219178082191787,-10.762711864406779,-22.794871794871796,15.740436230034675,104.07004207470742,18.916292770230076,94.84880211749696,49.11700912692343,3092.423955649481,1
-21.800610094287297,-8.060880829015545,-26.88738738738739,-112.40275916436737,126.73577881193539,11.250714421794612,33.09090909090912,-49.83544303797469,-39.62399999999999,-7.09137055837564,11.112499999999988,-18.352601156069362,-6.217248937900877e-15,10.762711864406782,-13.025641025641029,18.725533455308437,292.08062656418224,18.916292770230076,94.84880211749696,49.11700912692343,3092.423955649481,1
-21.800610094287297,-8.060880829015545,-26.88738738738739,-112.40275916436737,126.73577881193539,11.250714421794612,33.09090909090912,-33.75949367088609,-35.55999999999999,-4.512690355329955,7.937499999999989,-5.138728323699421,6.958904109589035,2.152542372881358,9.769230769230766,13.223636200202076,180.51043460658676,18.916292770230076,94.84880211749696,49.11700912692343,3092.423955649481,1
-21.20188574597892,-4.194948186528498,-28.054414414414413,-111.70193141505716,126.5967150287435,12.024957134692329,32.954545454545496,-33.75949367088609,-35.55999999999999,-4.512690355329955,7.937499999999989,-5.138728323699421,6.958904109589035,2.152542372881358,9.769230769230766,13.223636200202076,180.51043460658676,17.817082782307278,150.9112004970674,47.98376467200003,3187.3221119919313,1
-21.20188574597892,-4.194948186528498,-28.054414414414413,-111.70193141505716,126.5967150287435,12.024957134692329,32.954545454545496,-30.54430379746836,-7.111999999999988,8.380710659898472,20.63749999999999,-5.138728323699421,-1.7397260273972668,-2.152542372881353,-3.552713678800501e-15,9.463188897668108,113.90411672651825,17.817082782307278,150.9112004970674,47.98376467200003,3187.3221119919313,1
-21.20188574597892,-4.194948186528498,-28.054414414414413,-111.70193141505716,126.5967150287435,12.024957134692329,32.954545454545496,-8.037974683544311,43.68800000000002,8.380710659898472,25.399999999999988,5.138728323699423,20.87671232876712,36.59322033898306,22.794871794871792,21.363777266220524,194.03892298538312,17.817082782307278,150.9112004970674,47.98376467200003,3187.3221119919313,1
-20.110094287298942,-0.4935233160621766,-27.734054054054056,-111.10122191564841,126.40202573227485,12.992760525814447,32.863636363636374,-8.037974683544311,43.68800000000002,8.380710659898472,25.399999999999988,5.138728323699423,20.87671232876712,36.59322033898306,22.794871794871792,21.363777266220524,194.03892298538312,16.11255721913839,197.49685568035832,46.44293309525489,3321.03236360794,1
-20.110094287298942,-0.4935233160621766,-27.734054054054056,-111.10122191564841,126.40202573227485,12.992760525814447,32.863636363636374,-25.72151898734178,-9.143999999999988,4.512690355329944,11.112499999999988,-5.138728323699421,1.739726027397254,4.305084745762715,3.256410256410252,8.116332336992668,60.09051979065929,16.11255721913839,197.49685568035832,46.44293309525489,3321.03236360794,1
-20.110094287298942,-0.4935233160621766,-27.734054054054056,-111.10122191564841,126.40202573227485,12.992760525814447,32.863636363636374,-40.18987341772153,-29.463999999999984,0.644670050761416,-1.587500000000011,-37.4393063583815,-12.178082191780828,3.552713678800501e-15,-3.256410256410259,15.594980284381942,300.18189295990067,16.11255721913839,197.49685568035832,46.44293309525489,3321.03236360794,1
-20.215751525235714,-0.5757772020725391,-27.734054054054056,-110.46046511627907,126.19343005748699,13.960563916936565,32.77272727272731,-40.18987341772153,-29.463999999999984,0.644670050761416,-1.587500000000011,-37.4393063583815,-12.178082191780828,3.552713678800501e-15,-3.256410256410259,15.594980284381942,300.18189295990067,16.175194260454102,196.63757764970336,46.25676545746855,3275.979287801277,1
-20.215751525235714,-0.5757772020725391,-27.734054054054056,-110.46046511627907,126.19343005748699,13.960563916936565,32.77272727272731,-27.329113924050638,-33.52799999999999,-3.223350253807112,-1.0658141036401503e-14,0.734104046242777,8.698630136986296,25.830508474576273,22.794871794871792,15.26732232881686,182.81351617244738,16.175194260454102,196.63757764970336,46.25676545746855,3275.979287801277,1
-20.215751525235714,-0.5757772020725391,-27.734054054054056,-110.46046511627907,126.19343005748699,13.960563916936565,32.77272727272731,-25.72151898734178,7.1120000000000125,12.248730964467,26.98749999999999,-2.202312138728322,3.479452054794514,3.552713678800501e-15,9.769230769230766,10.940093114320298,106.49188369808255,16.175194260454102,196.63757764970336,46.25676545746855,3275.979287801277,1
-22.469772601220185,-3.125647668393783,-29.29009009009009,-109.43925896728419,125.91530249110319,14.928367308058682,32.909090909090935,-25.72151898734178,7.1120000000000125,12.248730964467,26.98749999999999,-2.202312138728322,3.479452054794514,3.552713678800501e-15,9.769230769230766,10.940093114320298,106.49188369808255,18.295170119901353,184.21499121734035,47.28499890858935,3068.508544392467,1
-22.469772601220185,-3.125647668393783,-29.29009009009009,-109.43925896728419,125.91530249110319,14.928367308058682,32.909090909090935,22.50632911392404,104.64800000000001,13.538071065989843,-4.76250000000001,-31.566473988439306,8.698630136986296,19.372881355932208,16.282051282051277,27.671867117915372,1035.7662660849724,18.295170119901353,184.21499121734035,47.28499890858935,3068.508544392467,1
-22.469772601220185,-3.125647668393783,-29.29009009009009,-109.43925896728419,125.91530249110319,14.928367308058682,32.909090909090935,-12.860759493670894,47.75200000000001,5.802030456852787,-7.937500000000011,-11.011560693641616,5.219178082191775,25.830508474576273,19.538461538461533,16.993999842424362,204.201827625746,18.295170119901353,184.21499121734035,47.28499890858935,3068.508544392467,1
-23.491125901275648,-3.783678756476684,-30.914774774774774,-108.41805281828931,125.60936216808103,15.8961706991808,33.13636363636368,-12.860759493670894,47.75200000000001,5.802030456852787,-7.937500000000011,-11.011560693641616,5.219178082191775,25.830508474576273,19.538461538461533,16.993999842424362,204.201827625746,19.39652647750904,196.59840111936,47.70550211651359,2948.534452325294,1
-23.491125901275648,-3.783678756476684,-30.914774774774774,-108.41805281828931,125.60936216808103,15.8961706991808,33.13636363636368,-17.683544303797476,25.400000000000013,10.959390862944158,20.63749999999999,8.075144508670522,15.657534246575336,8.610169491525426,26.051282051282048,16.634320683099368,50.49257849749837,19.39652647750904,196.59840111936,47.70550211651359,2948.534452325294,1
