Gyro 0,Gyro 1,Gyro 2,Orientation 0,Orientation 1,Orientation 2,Orientation 3,Sensor 0,Sensor 1,Sensor 2,Sensor 3,Sensor 4,Sensor 5,Sensor 6,Sensor 7,Sensor Mean,Sensor Variance,Gyro Mean,Gyro Variance,Orientation Mean,Orientation Variance,Label
-35.4985398414685,47.1758917589176,-20.3719409989943,-125.54428992836074,120.05407085146054,-32.65317286652089,2.9792689579923604,6.86486486486486,19.66108786610879,38.42564102564103,-6.20888888888889,-2.0819672131147615,0.7696969696969598,4.010526315789478,6.4141414141414135,10.554601819780775,159.9600758395191,34.348790866460135,1937.7642238798162,64.36404089542421,2986.880097884196,1
-35.4985398414685,47.1758917589176,-20.3719409989943,-125.54428992836074,120.05407085146054,-32.65317286652089,2.9792689579923604,-5.1486486486486545,-5.845188284518823,61.871794871794876,-16.36888888888889,-11.450819672131153,-10.006060606060615,4.440892098500626e-15,11.545454545454545,15.279606939687195,379.07760970417775,34.348790866460135,1937.7642238798162,64.36404089542421,2986.880097884196,1
-37.22048393825615,47.071750717507186,-19.946195105598388,-125.52288242730722,120.06842194474264,-32.931072210065736,3.0716493907983136,-5.1486486486486545,-5.845188284518823,61.871794871794876,-16.36888888888889,-11.450819672131153,-10.006060606060615,4.440892098500626e-15,11.545454545454545,15.279606939687195,379.07760970417775,34.746143253787245,1982.4978233808447,64.18027608347093,3006.135456604837,1
-37.22048393825615,47.071750717507186,-19.946195105598388,-125.52288242730722,120.06842194474264,-32.931072210065736,3.0716493907983136,-18.878378378378386,1.594142259414231,26.702564102564107,-19.755555555555556,-4.163934426229515,-5.3878787878787975,6.684210526315794,6.4141414141414135,11.197600681309726,84.4772492479495,34.746143253787245,1982.4978233808447,64.18027608347093,3006.135456604837,1
-37.22048393825615,47.071750717507186,-19.946195105598388,-125.52288242730722,120.06842194474264,-32.931072210065736,3.0716493907983136,1.7162162162162105,24.974895397489544,1.9538461538461576,-12.982222222222223,2.081967213114746,-2.3090909090909193,4.010526315789478,14.11111111111111,8.017484442360049,72.81145985588843,34.746143253787245,1982.4978233808447,64.18027608347093,3006.135456604837,1
-38.17417605340008,47.69659696596967,-20.286791820315116,-125.5014749262537,120.08277303802474,-33.48687089715543,3.348790689216173,1.7162162162162105,24.974895397489544,1.9538461538461576,-12.982222222222223,2.081967213114746,-2.3090909090909193,4.010526315789478,14.11111111111111,8.017484442360049,72.81145985588843,35.38585494656162,2052.581554085548,64.49495457084616,2979.1709989367537,1
-38.17417605340008,47.69659696596967,-20.286791820315116,-125.5014749262537,120.08277303802474,-33.48687089715543,3.348790689216173,-17.16216216216217,-11.158995815899576,22.7948717948718,-12.982222222222223,-2.0819672131147615,-13.084848484848495,12.031578947368425,-6.414141414141415,12.213848506828608,39.31863689780458,35.38585494656162,2052.581554085548,64.49495457084616,2979.1709989367537,1
-38.17417605340008,47.69659696596967,-20.286791820315116,-125.5014749262537,120.08277303802474,-33.48687089715543,3.348790689216173,-13.729729729729735,2.6569037656903816,13.67692307692308,-35.56,-16.65573770491804,-14.624242424242434,-5.347368421052627,-3.8484848484848495,13.262423746380144,110.66980307611159,35.38585494656162,2052.581554085548,64.49495457084616,2979.1709989367537,1
-36.53170629954109,47.332103321033216,-20.350653704324504,-125.52288242730722,120.08277303802474,-33.48687089715543,3.348790689216173,-13.729729729729735,2.6569037656903816,13.67692307692308,-35.56,-16.65573770491804,-14.624242424242434,-5.347368421052627,-3.8484848484848495,13.262423746380144,110.66980307611159,34.738154441632936,1979.3201042864512,64.40187981755498,2983.8323758707534,1
-36.53170629954109,47.332103321033216,-20.350653704324504,-125.52288242730722,120.08277303802474,-33.48687089715543,3.348790689216173,8.581081081081075,14.347280334728039,14.979487179487183,-22.013333333333335,-10.409836065573778,-3.8484848484848584,2.67368421052632,3.8484848484848477,10.087708987712428,45.6416072271153,34.738154441632936,1979.3201042864512,64.40187981755498,2983.8323758707534,1
-36.53170629954109,47.332103321033216,-20.350653704324504,-125.52288242730722,120.08277303802474,-33.48687089715543,3.348790689216173,-8.581081081081086,-7.970711297071125,21.492307692307694,-18.62666666666667,-27.06557377049181,-10.006060606060615,4.010526315789478,8.97979797979798,13.341590676158306,64.49178335110953,34.738154441632936,1979.3201042864512,64.40187981755498,2983.8323758707534,1
-36.05486024196912,47.64452644526446,-20.52095206168287,-125.62991993257481,120.08277303802474,-33.41739606126919,3.3026004728131966,-8.581081081081086,-7.970711297071125,21.492307692307694,-18.62666666666667,-27.06557377049181,-10.006060606060615,4.010526315789478,8.97979797979798,13.341590676158306,64.49178335110953,34.740112916305485,1982.2370158756196,64.59846614650738,2977.550835266084,1
-36.05486024196912,47.64452644526446,-20.52095206168287,-125.62991993257481,120.08277303802474,-33.41739606126919,3.3026004728131966,-5.329070518200751e-15,-14.347280334728028,-21.49230769230769,-20.884444444444444,-10.409836065573778,-2.3090909090909193,1.3368421052631625,19.242424242424242,11.252778224229033,82.38260655230441,34.740112916305485,1982.2370158756196,64.59846614650738,2977.550835266084,1
-36.05486024196912,47.64452644526446,-20.52095206168287,-125.62991993257481,120.08277303802474,-33.41739606126919,3.3026004728131966,-34.32432432432433,-17.53556485355648,7.164102564102567,-12.982222222222223,-2.0819672131147615,2.309090909090899,14.705263157894741,-3.8484848484848495,11.868877511598857,117.03968511757402,34.740112916305485,1982.2370158756196,64.59846614650738,2977.550835266084,1
-35.84292866082603,47.80073800738008,-20.733825008380823,-125.69414243573537,120.05407085146054,-33.000547045951976,3.1640298236042668,-34.32432432432433,-17.53556485355648,7.164102564102567,-12.982222222222223,-2.0819672131147615,2.309090909090899,14.705263157894741,-3.8484848484848495,11.868877511598857,117.03968511757402,34.79249722552898,1986.9223857739353,64.74290181716542,2969.444744530957,1
-35.84292866082603,47.80073800738008,-20.733825008380823,-125.69414243573537,120.05407085146054,-33.000547045951976,3.1640298236042668,-17.16216216216217,-20.723849372384933,48.846153846153854,-14.111111111111112,1.0409836065573694,0.7696969696969598,1.3368421052631625,14.11111111111111,14.762738785555085,252.59528250520785,34.79249722552898,1986.9223857739353,64.74290181716542,2969.444744530957,1
-35.84292866082603,47.80073800738008,-20.733825008380823,-125.69414243573537,120.05407085146054,-33.000547045951976,3.1640298236042668,-5.1486486486486545,-12.221757322175726,46.241025641025644,-7.337777777777779,2.081967213114746,-0.7696969696969798,2.67368421052632,6.4141414141414135,10.361087399638409,223.19359020224707,34.79249722552898,1986.9223857739353,64.74290181716542,2969.444744530957,1
-35.12765957446808,47.48831488314884,-20.71253771371103,-125.80117994100296,120.0253686648963,-32.375273522976045,2.9330787415893838,-5.1486486486486545,-12.221757322175726,46.241025641025644,-7.337777777777779,2.081967213114746,-0.7696969696969798,2.67368421052632,6.4141414141414135,10.361087399638409,223.19359020224707,34.44283739044265,1947.4252114634492,64.66734417928761,2982.2449669621365,1
-35.12765957446808,47.48831488314884,-20.71253771371103,-125.80117994100296,120.0253686648963,-32.375273522976045,2.9330787415893838,-15.445945945945951,3.719665271966532,41.03076923076924,-19.755555555555556,-6.24590163934427,-0.7696969696969798,-5.347368421052627,8.97979797979798,12.661837626766143,170.3538485267274,34.44283739044265,1947.4252114634492,64.66734417928761,2982.2449669621365,1
-35.12765957446808,47.48831488314884,-20.71253771371103,-125.80117994100296,120.0253686648963,-32.375273522976045,2.9330787415893838,-18.878378378378386,7.9707112970711345,55.358974358974365,-12.982222222222223,2.081967213114746,-6.927272727272737,6.684210526315794,3.8484848484848477,14.341527696479279,302.7793446051137,34.44283739044265,1947.4252114634492,64.66734417928761,2982.2449669621365,1
-35.81643721318314,48.06109061090612,-20.776399597720413,-125.86540244416352,119.9679642917679,-32.02789934354496,2.9792689579923604,-18.878378378378386,7.9707112970711345,55.358974358974365,-12.982222222222223,2.081967213114746,-6.927272727272737,6.684210526315794,3.8484848484848477,14.341527696479279,302.7793446051137,34.88464247393656,2000.0404105963594,64.9009642175967,2973.610637131917,1
-35.81643721318314,48.06109061090612,-20.776399597720413,-125.86540244416352,119.9679642917679,-32.02789934354496,2.9792689579923604,-8.581081081081086,-0.5313807531380703,24.0974358974359,-12.982222222222223,2.081967213114746,-2.3090909090909193,-8.021052631578943,3.8484848484848477,7.806589444518341,60.630532555924674,34.88464247393656,2000.0404105963594,64.9009642175967,2973.610637131917,1
-35.81643721318314,48.06109061090612,-20.776399597720413,-125.86540244416352,119.9679642917679,-32.02789934354496,2.9792689579923604,-20.5945945945946,-1.594142259414221,-3.2564102564102555,-25.4,-11.450819672131153,-14.624242424242434,4.010526315789478,6.4141414141414135,10.918109617090444,75.85959314107264,34.88464247393656,2000.0404105963594,64.9009642175967,2973.610637131917,1
-36.21380892782645,48.47765477654777,-20.669963124371435,-125.90821744627056,119.91055991863946,-31.750000000000114,3.025459174395337,-20.5945945945946,-1.594142259414221,-3.2564102564102555,-25.4,-11.450819672131153,-14.624242424242434,4.010526315789478,6.4141414141414135,10.918109617090444,75.85959314107264,35.12047560958189,2032.6080380204075,65.01861178239659,2973.974987182184,1
-36.21380892782645,48.47765477654777,-20.669963124371435,-125.90821744627056,119.91055991863946,-31.750000000000114,3.025459174395337,1.7162162162162105,5.845188284518834,-17.584615384615383,-28.78666666666667,-11.450819672131153,-8.466666666666676,2.67368421052632,14.11111111111111,11.329371026556544,79.60615385453288,35.12047560958189,2032.6080380204075,65.01861178239659,2973.974987182184,1
-36.21380892782645,48.47765477654777,-20.669963124371435,-125.90821744627056,119.91055991863946,-31.750000000000114,3.025459174395337,3.432432432432428,-0.5313807531380703,74.89743589743591,-17.497777777777777,-11.450819672131153,-8.466666666666676,6.684210526315794,6.4141414141414135,16.171858142504902,589.1793884110633,35.12047560958189,2032.6080380204075,65.01861178239659,2973.974987182184,1
-35.94889445139758,48.79007790077902,-20.776399597720413,-125.99384745048464,119.83880445222893,-31.33315098468279,3.025459174395337,3.432432432432428,-0.5313807531380703,74.89743589743591,-17.497777777777777,-11.450819672131153,-8.466666666666676,6.684210526315794,6.4141414141414135,16.171858142504902,589.1793884110633,35.17179064996567,2041.7321378228396,65.18677498299469,2969.3165895667444,1
-35.94889445139758,48.79007790077902,-20.776399597720413,-125.99384745048464,119.83880445222893,-31.33315098468279,3.025459174395337,-25.74324324324325,-2.6569037656903713,35.820512820512825,-19.755555555555556,-5.2049180327868925,-5.3878787878787975,4.440892098500626e-15,-8.97979797979798,12.94360127318321,162.80392775711184,35.17179064996567,2041.7321378228396,65.18677498299469,2969.3165895667444,1
-35.94889445139758,48.79007790077902,-20.776399597720413,-125.99384745048464,119.83880445222893,-31.33315098468279,3.025459174395337,-5.1486486486486545,19.66108786610879,7.164102564102567,-6.20888888888889,14.57377049180327,3.848484848484838,9.357894736842109,14.11111111111111,10.00924864449878,30.765775860448496,35.17179064996567,2041.7321378228396,65.18677498299469,2969.3165895667444,1
-36.08135168961201,48.52972529725298,-20.691250419041232,-126.05806995364519,119.78140007910052,-31.055251641137943,3.11783960720129,-5.1486486486486545,19.66108786610879,7.164102564102567,-6.20888888888889,14.57377049180327,3.848484848484838,9.357894736842109,14.11111111111111,10.00924864449878,30.765775860448496,35.100775801968744,2031.238840851902,65.09301522331315,2981.298594590494,1
-36.08135168961201,48.52972529725298,-20.691250419041232,-126.05806995364519,119.78140007910052,-31.055251641137943,3.11783960720129,6.86486486486486,26.037656903765694,21.492307692307694,-17.497777777777777,-12.491803278688531,-8.466666666666676,1.3368421052631625,16.676767676767675,13.858085870762759,66.3480617568723,35.100775801968744,2031.238840851902,65.09301522331315,2981.298594590494,1
-36.08135168961201,48.52972529725298,-20.691250419041232,-126.05806995364519,119.78140007910052,-31.055251641137943,3.11783960720129,-3.432432432432438,26.037656903765694,46.241025641025644,-18.62666666666667,-9.3688524590164,-0.7696969696969798,13.368421052631582,8.97979797979798,15.853068763129173,216.01247174870335,35.100775801968744,2031.238840851902,65.09301522331315,2981.298594590494,1
-35.657488527325825,48.37351373513736,-20.457090177673482,-126.16510745891279,119.72399570597209,-30.707877461706858,3.1640298236042668,-3.432432432432438,26.037656903765694,46.241025641025644,-18.62666666666667,-9.3688524590164,-0.7696969696969798,13.368421052631582,8.97979797979798,15.853068763129173,216.01247174870335,34.829364146712216,2004.9855810374095,64.9985704572412,3000.840612642575,1
-35.657488527325825,48.37351373513736,-20.457090177673482,-126.16510745891279,119.72399570597209,-30.707877461706858,3.1640298236042668,-25.74324324324325,-13.284518828451878,12.374358974358977,-12.982222222222223,-3.1229508196721385,-6.927272727272737,-2.673684210526311,-1.2828282828282838,9.798884913571975,65.60640965189465,34.829364146712216,2004.9855810374095,64.9985704572412,3000.840612642575,1
-35.657488527325825,48.37351373513736,-20.457090177673482,-126.16510745891279,119.72399570597209,-30.707877461706858,3.1640298236042668,5.148648648648644,-2.6569037656903713,26.702564102564107,-17.497777777777777,-6.24590163934427,-0.7696969696969798,5.347368421052636,3.8484848484848477,8.527168271657455,79.1535704067329,34.829364146712216,2004.9855810374095,64.9985704572412,3000.840612642575,1
-36.45223195661243,48.26937269372694,-20.222929936305732,-126.14369995785927,119.66659133284365,-30.568927789934378,3.25641025641022,5.148648648648644,-2.6569037656903713,26.702564102564107,-17.497777777777777,-6.24590163934427,-0.7696969696969798,5.347368421052636,3.8484848484848477,8.527168271657455,79.1535704067329,34.981511528881704,2022.0560096931194,64.87866752929732,3011.7038866908874,1
-36.45223195661243,48.26937269372694,-20.222929936305732,-126.14369995785927,119.66659133284365,-30.568927789934378,3.25641025641022,-13.729729729729735,7.9707112970711345,46.241025641025644,-23.142222222222223,-13.532786885245908,-10.006060606060615,8.021052631578952,11.545454545454545,16.773630444798595,165.12679543905045,34.981511528881704,2022.0560096931194,64.87866752929732,3011.7038866908874,1
-36.45223195661243,48.26937269372694,-20.222929936305732,-126.14369995785927,119.66659133284365,-30.568927789934378,3.25641025641022,-18.878378378378386,-7.970711297071125,-3.2564102564102555,-19.755555555555556,-9.3688524590164,-10.006060606060615,1.3368421052631625,3.8484848484848477,9.302661938280044,47.57000949088309,34.981511528881704,2022.0560096931194,64.87866752929732,3011.7038866908874,1
-37.24697538589904,47.85280852808529,-20.095206168286957,-126.12229245680574,119.65224023956155,-30.777352297593097,3.4411711220221832,-18.878378378378386,-7.970711297071125,-3.2564102564102555,-19.755555555555556,-9.3688524590164,-10.006060606060615,1.3368421052631625,3.8484848484848477,9.302661938280044,47.57000949088309,35.06499669409043,2025.5148517799116,64.69010238439266,3023.0566050109865,1
-37.24697538589904,47.85280852808529,-20.095206168286957,-126.12229245680574,119.65224023956155,-30.777352297593097,3.4411711220221832,10.297297297297291,4.782426778242683,11.071794871794875,-17.497777777777777,-9.3688524590164,2.309090909090899,8.021052631578952,16.676767676767675,10.003132550195819,27.531526073740803,35.06499669409043,2025.5148517799116,64.69010238439266,3023.0566050109865,1
-37.24697538589904,47.85280852808529,-20.095206168286957,-126.12229245680574,119.65224023956155,-30.777352297593097,3.4411711220221832,-1.7162162162162211,11.158995815899587,16.282051282051285,-11.853333333333335,2.081967213114746,14.624242424242414,14.705263157894741,16.676767676767675,11.13735463994,36.18747748907122,35.06499669409043,2025.5148517799116,64.69010238439266,3023.0566050109865,1
-37.40592407175636,48.06109061090612,-20.350653704324504,-126.03666245259167,119.63788914627945,-30.846827133479223,3.5335515548281364,-1.7162162162162211,11.158995815899587,16.282051282051285,-11.853333333333335,2.081967213114746,14.624242424242414,14.705263157894741,16.676767676767675,11.13735463994,36.18747748907122,35.27255612899566,2045.9432677208554,64.81613558927411,3002.9317604550515,1
-37.40592407175636,48.06109061090612,-20.350653704324504,-126.03666245259167,119.63788914627945,-30.846827133479223,3.5335515548281364,-10.297297297297302,-14.347280334728028,64.47692307692307,-12.982222222222223,-4.163934426229515,-6.927272727272737,-2.673684210526311,6.4141414141414135,15.285344463667574,411.73881423217284,35.27255612899566,2045.9432677208554,64.81613558927411,3002.9317604550515,1
-37.40592407175636,48.06109061090612,-20.350653704324504,-126.03666245259167,119.63788914627945,-30.846827133479223,3.5335515548281364,-8.581081081081086,4.782426778242683,20.189743589743593,-17.497777777777777,-11.450819672131153,-11.545454545454554,4.440892098500626e-15,8.97979797979798,10.378387678028604,41.953235572655146,35.27255612899566,2045.9432677208554,64.81613558927411,3002.9317604550515,1
-37.45890696704213,48.217302173021736,-20.308079114984913,-126.05806995364519,119.63788914627945,-31.124726477024183,3.6721222040370662,-8.581081081081086,4.782426778242683,20.189743589743593,-17.497777777777777,-11.450819672131153,-11.545454545454554,4.440892098500626e-15,8.97979797979798,10.378387678028604,41.953235572655146,35.328096085016256,2055.048598214926,64.86115041388395,3003.5284037928222,1
-37.45890696704213,48.217302173021736,-20.308079114984913,-126.05806995364519,119.63788914627945,-31.124726477024183,3.6721222040370662,-13.729729729729735,13.284518828451887,17.58461538461539,-24.27111111111111,-16.65573770491804,-2.3090909090909193,9.357894736842109,6.4141414141414135,12.950854977362575,47.564171128307244,35.328096085016256,2055.048598214926,64.86115041388395,3003.5284037928222,1
-37.45890696704213,48.217302173021736,-20.308079114984913,-126.05806995364519,119.63788914627945,-31.124726477024183,3.6721222040370662,1.7162162162162105,-27.100418410041836,3.256410256410259,-18.62666666666667,-3.1229508196721385,-3.8484848484848584,9.357894736842109,1.282828282828282,8.538983779645296,89.34293468815562,35.328096085016256,2055.048598214926,64.86115041388395,3003.5284037928222,1
-36.90258656654151,48.633866338663395,-20.41451558833389,-126.0794774546987,119.60918695971525,-31.124726477024183,3.810692853246053,1.7162162162162105,-27.100418410041836,3.256410256410259,-18.62666666666667,-3.1229508196721385,-3.8484848484848584,9.357894736842109,1.282828282828282,8.538983779645296,89.34293468815562,35.316989497846265,2059.336717820539,65.04261979389867,2993.206434021104,1
-36.90258656654151,48.633866338663395,-20.41451558833389,-126.0794774546987,119.60918695971525,-31.124726477024183,3.810692853246053,-17.16216216216217,-17.53556485355648,31.912820512820517,-8.466666666666669,2.081967213114746,-5.3878787878787975,4.010526315789478,1.282828282828282,10.980051849352144,111.24998406687294,35.316989497846265,2059.336717820539,65.04261979389867,2993.206434021104,1
-36.90258656654151,48.633866338663395,-20.41451558833389,-126.0794774546987,119.60918695971525,-31.124726477024183,3.810692853246053,-15.445945945945951,-4.782426778242673,59.26666666666667,-12.982222222222223,-3.1229508196721385,-6.927272727272737,4.010526315789478,8.97979797979798,14.439726181951233,346.9914583327405,35.316989497846265,2059.336717820539,65.04261979389867,2993.206434021104,1
-36.5052148518982,48.47765477654777,-20.32936640965471,-126.12229245680574,119.55178258658681,-30.985776805251703,3.9492635024549827,-15.445945945945951,-4.782426778242673,59.26666666666667,-12.982222222222223,-3.1229508196721385,-6.927272727272737,4.010526315789478,8.97979797979798,14.439726181951233,346.9914583327405,35.10407867936689,2036.358727938399,64.97643788100274,3002.193183350378,1
-36.5052148518982,48.47765477654777,-20.32936640965471,-126.12229245680574,119.55178258658681,-30.985776805251703,3.9492635024549827,13.729729729729726,15.410041841004189,20.189743589743593,-29.915555555555557,-44.76229508196722,-19.24242424242425,2.67368421052632,11.545454545454545,19.683616099550676,163.33759943192015,35.10407867936689,2036.358727938399,64.97643788100274,3002.193183350378,1
-36.5052148518982,48.47765477654777,-20.32936640965471,-126.12229245680574,119.55178258658681,-30.985776805251703,3.9492635024549827,-42.90540540540541,-28.163179916317986,12.374358974358977,-7.337777777777779,7.286885245901631,-3.8484848484848584,-2.673684210526311,1.282828282828282,13.234075582700154,216.65485348446734,35.10407867936689,2036.358727938399,64.97643788100274,3002.193183350378,1
-36.77012932832707,48.37351373513736,-20.244217230975526,-126.10088495575222,119.50872930674048,-30.985776805251703,4.134024368066889,-42.90540540540541,-28.163179916317986,12.374358974358977,-7.337777777777779,7.286885245901631,-3.8484848484848584,-2.673684210526311,1.282828282828282,13.234075582700154,216.65485348446734,35.129286764813315,2038.4897879509786,64.90620530728837,3006.40594341335,1
-36.77012932832707,48.37351373513736,-20.244217230975526,-126.10088495575222,119.50872930674048,-30.985776805251703,4.134024368066889,-10.297297297297302,5.845188284518834,0.6512820512820525,-17.497777777777777,9.368852459016384,5.387878787878778,4.010526315789478,11.545454545454545,8.075532189876895,27.32423831511481,35.129286764813315,2038.4897879509786,64.90620530728837,3006.40594341335,1
-36.77012932832707,48.37351373513736,-20.244217230975526,-126.10088495575222,119.50872930674048,-30.985776805251703,4.134024368066889,-18.878378378378386,-1.594142259414221,13.67692307692308,-20.884444444444444,1.0409836065573694,-0.7696969696969798,5.347368421052636,-3.8484848484848495,8.255052750618995,68.86668599648351,35.129286764813315,2038.4897879509786,64.90620530728837,3006.40594341335,1
-36.9290780141844,48.52972529725298,-20.308079114984913,-126.10088495575222,119.46567602689417,-30.985776805251703,4.272595017275876,-18.878378378378386,-1.594142259414221,13.67692307692308,-20.884444444444444,1.0409836065573694,-0.7696969696969798,5.347368421052636,-3.8484848484848495,8.255052750618995,68.86668599648351,35.25562747547409,2053.0179973546083,64.97956312266338,3000.977315277299,1
-36.9290780141844,48.52972529725298,-20.308079114984913,-126.10088495575222,119.46567602689417,-30.985776805251703,4.272595017275876,-12.01351351351352,-11.158995815899576,18.88717948717949,-26.52888888888889,4.163934426229501,5.387878787878778,10.694736842105268,1.282828282828282,11.264744505565412,68.08429589673916,35.25562747547409,2053.0179973546083,64.97956312266338,3000.977315277299,1
-36.9290780141844,48.52972529725298,-20.308079114984913,-126.10088495575222,119.46567602689417,-30.985776805251703,4.272595017275876,18.878378378378372,26.037656903765694,30.61025641025641,-10.724444444444446,-8.327868852459023,-16.16363636363637,4.010526315789478,19.242424242424242,16.749398988894256,79.85529623434094,35.25562747547409,2053.0179973546083,64.97956312266338,3000.977315277299,1
-37.75031289111389,49.050430504305055,-20.052631578947366,-126.0794774546987,119.43697384032997,-31.33315098468279,4.595926532096712,18.878378378378372,26.037656903765694,30.61025641025641,-10.724444444444446,-8.327868852459023,-16.16363636363637,4.010526315789478,19.242424242424242,16.749398988894256,79.85529623434094,35.61779165812211,2103.8016945177023,65.06084651265037,3002.673077160292,1
-37.75031289111389,49.050430504305055,-20.052631578947366,-126.0794774546987,119.43697384032997,-31.33315098468279,4.595926532096712,-13.729729729729735,-31.35146443514644,11.071794871794875,-18.62666666666667,-1.0409836065573845,-5.3878787878787975,-1.3368421052631536,11.545454545454545,11.76135184356145,99.93136116386823,35.61779165812211,2103.8016945177023,65.06084651265037,3002.673077160292,1
-37.75031289111389,49.050430504305055,-20.052631578947366,-126.0794774546987,119.43697384032997,-31.33315098468279,4.595926532096712,-22.310810810810814,-0.5313807531380703,25.400000000000002,-25.4,-18.737704918032794,-10.006060606060615,2.67368421052632,3.8484848484848477,13.613515768381681,111.27634418097831,35.61779165812211,2103.8016945177023,65.06084651265037,3002.673077160292,1
-38.88944513975803,49.310783107831085,-19.733322158900435,-126.10088495575222,119.42262274704784,-32.375273522976045,5.242589561738498,-22.310810810810814,-0.5313807531380703,25.400000000000002,-25.4,-18.737704918032794,-10.006060606060615,2.67368421052632,3.8484848484848477,13.613515768381681,111.27634418097831,35.97785013549652,2152.22096377801,65.04833007416124,3014.2673922236377,1
-38.88944513975803,49.310783107831085,-19.733322158900435,-126.10088495575222,119.42262274704784,-32.375273522976045,5.242589561738498,-12.01351351351352,-19.661087866108783,28.00512820512821,-15.24,2.081967213114746,0.7696969696969598,4.010526315789478,6.4141414141414135,11.024507687186638,91.03744045101152,35.97785013549652,2152.22096377801,65.04833007416124,3014.2673922236377,1
-38.88944513975803,49.310783107831085,-19.733322158900435,-126.10088495575222,119.42262274704784,-32.375273522976045,5.242589561738498,1.7162162162162105,-13.284518828451878,35.820512820512825,-16.36888888888889,-3.1229508196721385,-3.8484848484848584,6.684210526315794,8.97979797979798,11.228197616042571,124.53903238794003,35.97785013549652,2152.22096377801,65.04833007416124,3014.2673922236377,1
-37.3264497288277,48.99835998359985,-19.967482400268185,-126.1865149599663,119.40827165376574,-32.722647702407016,5.519730860156358,1.7162162162162105,-13.284518828451878,35.820512820512825,-16.36888888888889,-3.1229508196721385,-3.8484848484848584,6.684210526315794,8.97979797979798,11.228197616042571,124.53903238794003,35.43076403756524,2084.932322386225,65.05078578127811,3013.8809999720274,1
-37.3264497288277,48.99835998359985,-19.967482400268185,-126.1865149599663,119.40827165376574,-32.722647702407016,5.519730860156358,-17.16216216216217,3.719665271966532,46.241025641025644,-8.466666666666669,-5.2049180327868925,-6.927272727272737,2.67368421052632,3.8484848484848477,11.780484945111478,215.01310204442242,35.43076403756524,2084.932322386225,65.05078578127811,3013.8809999720274,1
-37.3264497288277,48.99835998359985,-19.967482400268185,-126.1865149599663,119.40827165376574,-32.722647702407016,5.519730860156358,-3.432432432432438,-0.5313807531380703,7.164102564102567,-17.497777777777777,-4.163934426229515,-8.466666666666676,5.347368421052636,8.97979797979798,6.947932627649708,25.946331909922606,35.43076403756524,2084.932322386225,65.05078578127811,3013.8809999720274,1
-36.5052148518982,48.425584255842566,-20.308079114984913,-126.2935524652339,119.37956946720153,-32.792122538293256,5.658301509365344,-3.432432432432438,-0.5313807531380703,7.164102564102567,-17.497777777777777,-4.163934426229515,-8.466666666666676,5.347368421052636,8.97979797979798,6.947932627649708,25.946331909922606,35.079626074241894,2033.3173872556076,65.0090719453538,3014.4891882802126,1
-36.5052148518982,48.425584255842566,-20.308079114984913,-126.2935524652339,119.37956946720153,-32.792122538293256,5.658301509365344,-18.878378378378386,-10.096234309623426,41.03076923076924,-1.6933333333333351,-10.409836065573778,-11.545454545454554,4.010526315789478,1.282828282828282,12.368420057718811,168.61259691302192,35.079626074241894,2033.3173872556076,65.0090719453538,3014.4891882802126,1
-36.5052148518982,48.425584255842566,-20.308079114984913,-126.2935524652339,119.37956946720153,-32.792122538293256,5.658301509365344,-10.297297297297302,7.9707112970711345,14.979487179487183,-19.755555555555556,-9.3688524590164,-5.3878787878787975,9.357894736842109,3.8484848484848477,10.120770270204167,26.282759792540734,35.079626074241894,2033.3173872556076,65.0090719453538,3014.4891882802126,1
-36.05486024196912,48.37351373513736,-20.3719409989943,-126.40058997050149,119.35086728063733,-32.58369803063465,5.704491725768321,-10.297297297297302,7.9707112970711345,14.979487179487183,-19.755555555555556,-9.3688524590164,-5.3878787878787975,9.357894736842109,3.8484848484848477,10.120770270204167,26.282759792540734,34.93343832536693,2016.673639167061,65.04868156821105,3019.0645173766543,1
-36.05486024196912,48.37351373513736,-20.3719409989943,-126.40058997050149,119.35086728063733,-32.58369803063465,5.704491725768321,6.86486486486486,17.53556485355649,9.769230769230772,-15.24,-7.105427357601002e-15,0.7696969696969598,6.684210526315794,16.676767676767675,9.19254195755407,47.09727670966365,34.93343832536693,2016.673639167061,65.04868156821105,3019.0645173766543,1
-36.05486024196912,48.37351373513736,-20.3719409989943,-126.40058997050149,119.35086728063733,-32.58369803063465,5.704491725768321,-8.581081081081086,-22.849372384937233,28.00512820512821,-22.013333333333335,-5.2049180327868925,3.848484848484838,-4.01052631578947,6.4141414141414135,12.615873201960309,98.63547238850018,34.93343832536693,2016.673639167061,65.04868156821105,3019.0645173766543,1
-36.24030037546933,48.11316113161133,-20.393228293664095,-126.421997471555,119.3221650940731,-32.305798687089805,5.612111292962311,-8.581081081081086,-22.849372384937233,28.00512820512821,-22.013333333333335,-5.2049180327868925,3.848484848484838,-4.01052631578947,6.4141414141414135,12.615873201960309,98.63547238850018,34.915563266914916,2009.9602589799927,64.97612896561014,3023.794736472476,1
-36.24030037546933,48.11316113161133,-20.393228293664095,-126.421997471555,119.3221650940731,-32.305798687089805,5.612111292962311,-3.432432432432438,9.033472803347285,20.189743589743593,-16.36888888888889,1.0409836065573694,-6.927272727272737,1.3368421052631625,14.11111111111111,9.055093408077074,51.85358826401009,34.915563266914916,2009.9602589799927,64.97612896561014,3023.794736472476,1
-36.24030037546933,48.11316113161133,-20.393228293664095,-126.421997471555,119.3221650940731,-32.305798687089805,5.612111292962311,-15.445945945945951,9.033472803347285,-24.097435897435894,-26.52888888888889,-11.450819672131153,-8.466666666666676,8.021052631578952,11.545454545454545,14.323717131431168,51.96268306596183,34.915563266914916,2009.9602589799927,64.97612896561014,3023.794736472476,1
-36.849603671255736,47.9048790487905,-20.393228293664095,-126.40058997050149,119.3221650940731,-32.236323851203565,5.612111292962311,-15.445945945945951,9.033472803347285,-24.097435897435894,-26.52888888888889,-11.450819672131153,-8.466666666666676,8.021052631578952,11.545454545454545,14.323717131431168,51.96268306596183,35.04923700457011,2019.7943497120452,64.89956577098536,3026.0047150101127,1
-36.849603671255736,47.9048790487905,-20.393228293664095,-126.40058997050149,119.3221650940731,-32.236323851203565,5.612111292962311,-8.581081081081086,-3.719665271966522,31.912820512820517,-23.142222222222223,-12.491803278688531,-11.545454545454554,2.67368421052632,1.282828282828282,11.918694925698503,114.73657433460828,35.04923700457011,2019.7943497120452,64.89956577098536,3026.0047150101127,1
-36.849603671255736,47.9048790487905,-20.393228293664095,-126.40058997050149,119.3221650940731,-32.236323851203565,5.612111292962311,-8.581081081081086,10.096234309623435,30.61025641025641,-15.24,-13.532786885245908,-5.3878787878787975,-2.673684210526311,6.4141414141414135,11.567007887344172,76.41489736886722,35.04923700457011,2019.7943497120452,64.89956577098536,3026.0047150101127,1
-36.45223195661243,48.00902009020091,-20.137780757626548,-126.50762747576908,119.3365161873552,-32.305798687089805,5.612111292962311,-8.581081081081086,10.096234309623435,30.61025641025641,-15.24,-13.532786885245908,-5.3878787878787975,-2.673684210526311,6.4141414141414135,11.567007887344172,76.41489736886722,34.86634426814663,2007.3084801721468,64.88480944119885,3042.230272374726,1
-36.45223195661243,48.00902009020091,-20.137780757626548,-126.50762747576908,119.3365161873552,-32.305798687089805,5.612111292962311,-5.329070518200751e-15,9.033472803347285,-18.887179487179488,-17.497777777777777,-5.2049180327868925,-0.7696969696969798,8.021052631578952,24.373737373737374,10.473479384513094,79.00731538904984,34.86634426814663,2007.3084801721468,64.88480944119885,3042.230272374726,1
-36.45223195661243,48.00902009020091,-20.137780757626548,-126.50762747576908,119.3365161873552,-32.305798687089805,5.612111292962311,10.297297297297291,11.158995815899587,0.6512820512820525,-14.111111111111112,2.081967213114746,-5.3878787878787975,2.67368421052632,11.545454545454545,7.238458879070556,26.39325457497244,34.86634426814663,2007.3084801721468,64.88480944119885,3042.230272374726,1
-36.24030037546933,48.32144321443215,-20.052631578947366,-126.67888748419723,119.3365161873552,-32.375273522976045,5.612111292962311,10.297297297297291,11.158995815899587,0.6512820512820525,-14.111111111111112,2.081967213114746,-5.3878787878787975,2.67368421052632,11.545454545454545,7.238458879070556,26.39325457497244,34.871458389616286,2014.6238673134653,65.01765409252559,3051.362205357282,1
-36.24030037546933,48.32144321443215,-20.052631578947366,-126.67888748419723,119.3365161873552,-32.375273522976045,5.612111292962311,-17.16216216216217,-4.782426778242673,44.93846153846154,-16.36888888888889,-7.286885245901646,-17.70303030303031,2.67368421052632,3.8484848484848477,14.3455029969623,192.41785948099,34.871458389616286,2014.6238673134653,65.01765409252559,3051.362205357282,1
-36.24030037546933,48.32144321443215,-20.052631578947366,-126.67888748419723,119.3365161873552,-32.375273522976045,5.612111292962311,25.743243243243235,20.723849372384944,69.68717948717949,-23.142222222222223,-12.491803278688531,-2.3090909090909193,9.357894736842109,16.676767676767675,22.51650636580239,422.16789891600257,34.871458389616286,2014.6238673134653,65.01765409252559,3051.362205357282,1
-36.21380892782645,48.11316113161133,-20.201642641635935,-126.76451748841131,119.307814000791,-32.305798687089805,5.658301509365344,25.743243243243235,20.723849372384944,69.68717948717949,-23.142222222222223,-12.491803278688531,-2.3090909090909193,9.357894736842109,16.676767676767675,22.51650636580239,422.16789891600257,34.8428709003579,2005.7232938598681,65.02644042055286,3053.455836131682,1
-36.21380892782645,48.11316113161133,-20.201642641635935,-126.76451748841131,119.307814000791,-32.305798687089805,5.658301509365344,-5.329070518200751e-15,3.719665271966532,28.00512820512821,-8.466666666666669,-1.0409836065573845,-0.7696969696969798,6.684210526315794,19.242424242424242,8.491096936094477,101.37762627431296,34.8428709003579,2005.7232938598681,65.02644042055286,3053.455836131682,1
-36.21380892782645,48.11316113161133,-20.201642641635935,-126.76451748841131,119.307814000791,-32.305798687089805,5.658301509365344,-15.445945945945951,-38.79079497907949,-26.702564102564104,-25.4,-13.532786885245908,-8.466666666666676,-1.3368421052631536,-6.414141414141415,17.011217762363337,154.88383358259676,34.8428709003579,2005.7232938598681,65.02644042055286,3053.455836131682,1
-36.37275761368377,47.59245592455925,-20.3719409989943,-126.76451748841131,119.2791118142268,-32.166849015317325,5.704491725768321,-15.445945945945951,-38.79079497907949,-26.702564102564104,-25.4,-13.532786885245908,-8.466666666666676,-1.3368421052631536,-6.414141414141415,17.011217762363337,154.88383358259676,34.779051512412444,1987.5570776736681,64.90963813732162,3054.7586828566223,1
-36.37275761368377,47.59245592455925,-20.3719409989943,-126.76451748841131,119.2791118142268,-32.166849015317325,5.704491725768321,-13.729729729729735,-12.221757322175726,57.96410256410257,-20.884444444444444,-11.450819672131153,-13.084848484848495,-5.347368421052627,1.282828282828282,16.99573736516413,307.9439794417404,34.779051512412444,1987.5570776736681,64.90963813732162,3054.7586828566223,1
-36.37275761368377,47.59245592455925,-20.3719409989943,-126.76451748841131,119.2791118142268,-32.166849015317325,5.704491725768321,-24.02702702702703,-6.907949790794974,59.26666666666667,-11.853333333333335,-11.450819672131153,-13.084848484848495,-5.347368421052627,-1.2828282828282838,16.652605209835322,341.736790461464,34.779051512412444,1987.5570776736681,64.90963813732162,3054.7586828566223,1
-36.87609511889862,47.59245592455925,-20.393228293664095,-126.72170248630427,119.2647607209447,-32.097374179431085,5.704491725768321,-24.02702702702703,-6.907949790794974,59.26666666666667,-11.853333333333335,-11.450819672131153,-13.084848484848495,-5.347368421052627,-1.2828282828282838,16.652605209835322,341.736790461464,34.95392644570732,2004.7790454632745,64.90246223484253,3051.1633448802722,1
-36.87609511889862,47.59245592455925,-20.393228293664095,-126.72170248630427,119.2647607209447,-32.097374179431085,5.704491725768321,-15.445945945945951,-19.661087866108783,-8.466666666666661,-9.595555555555556,3.1229508196721234,0.7696969696969598,9.357894736842109,-1.2828282828282838,8.462828355414555,45.07144863982224,34.95392644570732,2004.7790454632745,64.90246223484253,3051.1633448802722,1
-36.87609511889862,47.59245592455925,-20.393228293664095,-126.72170248630427,119.2647607209447,-32.097374179431085,5.704491725768321,-8.581081081081086,-0.5313807531380703,68.38461538461539,-18.62666666666667,-13.532786885245908,-2.3090909090909193,10.694736842105268,6.4141414141414135,16.13431249201059,479.8263088042008,34.95392644570732,2004.7790454632745,64.90246223484253,3051.1633448802722,1
-37.16750104297038,47.64452644526446,-20.052631578947366,-126.70029498525075,119.2647607209447,-32.305798687089805,5.843062374977251,-8.581081081081086,-0.5313807531380703,68.38461538461539,-18.62666666666667,-13.532786885245908,-2.3090909090909193,10.694736842105268,6.4141414141414135,16.13431249201059,479.8263088042008,34.9548863557274,2011.4839946651261,64.7991510031542,3064.1418852976603,1
-37.16750104297038,47.64452644526446,-20.052631578947366,-126.70029498525075,119.2647607209447,-32.305798687089805,5.843062374977251,-3.432432432432438,18.59832635983264,7.164102564102567,-15.24,-6.24590163934427,-2.3090909090909193,12.031578947368425,8.97979797979798,9.250153853996155,32.353911799684866,34.9548863557274,2011.4839946651261,64.7991510031542,3064.1418852976603,1
-37.16750104297038,47.64452644526446,-20.052631578947366,-126.70029498525075,119.2647607209447,-32.305798687089805,5.843062374977251,-25.74324324324325,10.096234309623435,17.58461538461539,-8.466666666666669,-2.0819672131147615,-3.8484848484848584,-18.715789473684204,3.8484848484848477,11.298185748489676,72.65666961195566,34.9548863557274,2011.4839946651261,64.7991510031542,3064.1418852976603,1
-36.66416353775553,47.1758917589176,-20.031344284277573,-126.82873999157187,119.2934629075089,-32.65317286652089,5.935442807783204,-25.74324324324325,10.096234309623435,17.58461538461539,-8.466666666666669,-2.0819672131147615,-3.8484848484848584,-18.715789473684204,3.8484848484848477,11.298185748489676,72.65666961195566,34.6237998603169,1970.4363541723042,64.67865867825567,3081.1810698396066,1
-36.66416353775553,47.1758917589176,-20.031344284277573,-126.82873999157187,119.2934629075089,-32.65317286652089,5.935442807783204,6.86486486486486,1.594142259414231,-0.651282051282049,-29.915555555555557,-11.450819672131153,-8.466666666666676,2.67368421052632,1.282828282828282,7.86248044540864,94.58335041392083,34.6237998603169,1970.4363541723042,64.67865867825567,3081.1810698396066,1
-36.66416353775553,47.1758917589176,-20.031344284277573,-126.82873999157187,119.2934629075089,-32.65317286652089,5.935442807783204,-20.5945945945946,-2.6569037656903713,42.333333333333336,-12.982222222222223,10.409836065573762,0.7696969696969598,22.726315789473688,24.373737373737374,17.10583001429029,181.49884693083496,34.6237998603169,1970.4363541723042,64.67865867825567,3081.1810698396066,1
-36.08135168961201,47.43624436244363,-20.350653704324504,-126.93577749683946,119.2791118142268,-32.65317286652089,6.027823240589157,-20.5945945945946,-2.6569037656903713,42.333333333333336,-12.982222222222223,10.409836065573762,0.7696969696969598,22.726315789473688,24.373737373737374,17.10583001429029,181.49884693083496,34.62274991879338,1969.6178764888468,64.90755852120255,3069.032267291972,1
-36.08135168961201,47.43624436244363,-20.350653704324504,-126.93577749683946,119.2791118142268,-32.65317286652089,6.027823240589157,-13.729729729729735,12.221757322175737,13.67692307692308,-18.62666666666667,-6.24590163934427,-6.927272727272737,4.010526315789478,-1.2828282828282838,9.590200720091248,34.40579030041395,34.62274991879338,1969.6178764888468,64.90755852120255,3069.032267291972,1
-36.08135168961201,47.43624436244363,-20.350653704324504,-126.93577749683946,119.2791118142268,-32.65317286652089,6.027823240589157,13.729729729729726,14.347280334728039,35.820512820512825,-19.755555555555556,2.081967213114746,-2.3090909090909193,8.021052631578952,14.11111111111111,13.772037538177734,117.64516175366641,34.62274991879338,1969.6178764888468,64.90755852120255,3069.032267291972,1
-36.584689194826865,47.64452644526446,-20.542239356352663,-126.89296249473242,119.23605853438046,-32.51422319474841,6.120203673395167,13.729729729729726,14.347280334728039,35.820512820512825,-19.755555555555556,2.081967213114746,-2.3090909090909193,8.021052631578952,14.11111111111111,13.772037538177734,117.64516175366641,34.923818332147995,2000.2259991082583,65.02657609878318,3054.220815632118,1
-36.584689194826865,47.64452644526446,-20.542239356352663,-126.89296249473242,119.23605853438046,-32.51422319474841,6.120203673395167,-5.1486486486486545,4.782426778242683,28.00512820512821,-11.853333333333335,-4.163934426229515,-3.8484848484848584,6.684210526315794,8.97979797979798,9.183245593272629,65.28250519077504,34.923818332147995,2000.2259991082583,65.02657609878318,3054.220815632118,1
-36.584689194826865,47.64452644526446,-20.542239356352663,-126.89296249473242,119.23605853438046,-32.51422319474841,6.120203673395167,-3.432432432432438,-0.5313807531380703,-25.4,-37.81777777777778,-16.65573770491804,-10.006060606060615,4.010526315789478,3.8484848484848477,12.71280005482516,171.84514234164945,34.923818332147995,2000.2259991082583,65.02657609878318,3054.220815632118,1
-37.008552357113054,47.28003280032801,-20.64867582970164,-126.89296249473242,119.23605853438046,-32.51422319474841,6.074013456992134,-3.432432432432438,-0.5313807531380703,-25.4,-37.81777777777778,-16.65573770491804,-10.006060606060615,4.010526315789478,3.8484848484848477,12.71280005482516,171.84514234164945,34.97908699571423,1997.7534339964675,64.94055704158735,3055.8826995973905,1
-37.008552357113054,47.28003280032801,-20.64867582970164,-126.89296249473242,119.23605853438046,-32.51422319474841,6.074013456992134,-25.74324324324325,-33.47698744769874,9.769230769230772,-9.595555555555556,1.0409836065573694,-0.7696969696969798,8.021052631578952,-1.2828282828282838,11.212447313298737,147.54900478349595,34.97908699571423,1997.7534339964675,64.94055704158735,3055.8826995973905,1
-37.008552357113054,47.28003280032801,-20.64867582970164,-126.89296249473242,119.23605853438046,-32.51422319474841,6.074013456992134,-5.1486486486486545,-9.033472803347275,-51.45128205128205,-16.36888888888889,-1.0409836065573845,-3.8484848484848584,6.684210526315794,8.97979797979798,12.819471169165361,264.25519401902187,34.97908699571423,1997.7534339964675,64.94055704158735,3055.8826995973905,1
-36.90258656654151,47.85280852808529,-20.75511230305062,-126.8715549936789,119.22170744109836,-32.375273522976045,6.120203673395167,-5.1486486486486545,-9.033472803347275,-51.45128205128205,-16.36888888888889,-1.0409836065573845,-3.8484848484848584,6.684210526315794,8.97979797979798,12.819471169165361,264.25519401902187,35.170169132559145,2025.2107872513006,65.15982527493827,3039.824473835236,1
-36.90258656654151,47.85280852808529,-20.75511230305062,-126.8715549936789,119.22170744109836,-32.375273522976045,6.120203673395167,-13.729729729729735,9.033472803347285,42.333333333333336,-12.982222222222223,-7.286885245901646,-0.7696969696969798,-1.3368421052631536,6.4141414141414135,11.735790477954472,175.07822514943499,35.170169132559145,2025.2107872513006,65.15982527493827,3039.824473835236,1
-36.90258656654151,47.85280852808529,-20.75511230305062,-126.8715549936789,119.22170744109836,-32.375273522976045,6.120203673395167,-12.01351351351352,19.66108786610879,28.00512820512821,-17.497777777777777,-9.3688524590164,-10.006060606060615,8.021052631578952,3.8484848484848477,13.552744738458639,59.85313751376998,35.170169132559145,2025.2107872513006,65.15982527493827,3039.824473835236,1
-36.63767209011264,48.37351373513736,-20.64867582970164,-126.89296249473242,119.16430306796993,-32.236323851203565,6.2125841062011204,-12.01351351351352,19.66108786610879,28.00512820512821,-17.497777777777777,-9.3688524590164,-10.006060606060615,8.021052631578952,3.8484848484848477,13.552744738458639,59.85313751376998,35.21995388498388,2041.1020615258653,65.3050506865238,3036.9698198924325,1
-36.63767209011264,48.37351373513736,-20.64867582970164,-126.89296249473242,119.16430306796993,-32.236323851203565,6.2125841062011204,-13.729729729729735,-14.347280334728028,-3.2564102564102555,-25.4,-9.3688524590164,-11.545454545454554,-2.673684210526311,6.4141414141414135,10.841944118750838,54.15640505971738,35.21995388498388,2041.1020615258653,65.3050506865238,3036.9698198924325,1
-36.63767209011264,48.37351373513736,-20.64867582970164,-126.89296249473242,119.16430306796993,-32.236323851203565,6.2125841062011204,-15.445945945945951,7.9707112970711345,34.51794871794872,-27.657777777777778,-22.9016393442623,-16.16363636363637,-1.3368421052631536,-6.414141414141415,16.55108037075585,127.96020436828562,35.21995388498388,2041.1020615258653,65.3050506865238,3036.9698198924325,1
-35.94889445139758,49.25871258712588,-20.41451558833389,-126.9785924989465,119.07819650827729,-31.95842450765872,6.35115475541005,-15.445945945945951,7.9707112970711345,34.51794871794872,-27.657777777777778,-22.9016393442623,-16.16363636363637,-1.3368421052631536,-6.414141414141415,16.55108037075585,127.96020436828562,35.20737420895245,2059.335324713719,65.55060689146876,3038.04498697065,1
-35.94889445139758,49.25871258712588,-20.41451558833389,-126.9785924989465,119.07819650827729,-31.95842450765872,6.35115475541005,-5.329070518200751e-15,13.284518828451887,51.45128205128206,-18.62666666666667,-3.1229508196721385,-2.3090909090909193,9.357894736842109,19.242424242424242,14.674353531803753,274.4140244291548,35.20737420895245,2059.335324713719,65.55060689146876,3038.04498697065,1
-35.94889445139758,49.25871258712588,-20.41451558833389,-126.9785924989465,119.07819650827729,-31.95842450765872,6.35115475541005,-8.581081081081086,-5.845188284518823,7.164102564102567,-15.24,-6.24590163934427,-0.7696969696969798,4.440892098500626e-15,14.11111111111111,7.244635206231854,30.033201069028546,35.20737420895245,2059.335324713719,65.55060689146876,3038.04498697065,1
-36.79662077596996,49.20664206642067,-20.3719409989943,-127.00000000000001,119.00644104186678,-31.95842450765872,6.674486270230943,-8.581081081081086,-5.845188284518823,7.164102564102567,-15.24,-6.24590163934427,-0.7696969696969798,4.440892098500626e-15,14.11111111111111,7.244635206231854,30.033201069028546,35.45840128046164,2084.5850911173957,65.52619435513832,3042.131581758631,1
-36.79662077596996,49.20664206642067,-20.3719409989943,-127.00000000000001,119.00644104186678,-31.95842450765872,6.674486270230943,-13.729729729729735,1.594142259414231,30.61025641025641,-23.142222222222223,-10.409836065573778,-5.3878787878787975,2.67368421052632,-3.8484848484848495,11.424529316760793,111.25591451920715,35.45840128046164,2084.5850911173957,65.52619435513832,3042.131581758631,1
-36.79662077596996,49.20664206642067,-20.3719409989943,-127.00000000000001,119.00644104186678,-31.95842450765872,6.674486270230943,-13.729729729729735,-13.284518828451878,16.282051282051285,-8.466666666666669,5.204918032786878,5.387878787878778,6.684210526315794,19.242424242424242,11.035299762038157,28.374400184692174,35.45840128046164,2084.5850911173957,65.52619435513832,3042.131581758631,1
-37.299958281184814,48.47765477654777,-20.75511230305062,-126.95718499789298,118.93468557545624,-32.02789934354496,6.951627568648803,-13.729729729729735,-13.284518828451878,16.282051282051285,-8.466666666666669,5.204918032786878,5.387878787878778,6.684210526315794,19.242424242424242,11.035299762038157,28.374400184692174,35.5109084535944,2070.7844779700335,65.39665069249712,3034.4093782730783,1
-37.299958281184814,48.47765477654777,-20.75511230305062,-126.95718499789298,118.93468557545624,-32.02789934354496,6.951627568648803,3.432432432432428,16.47280334728034,44.93846153846154,-15.24,-10.409836065573778,-2.3090909090909193,2.67368421052632,8.97979797979798,13.057013310395412,196.06499171665655,35.5109084535944,2070.7844779700335,65.39665069249712,3034.4093782730783,1
-37.299958281184814,48.47765477654777,-20.75511230305062,-126.95718499789298,118.93468557545624,-32.02789934354496,6.951627568648803,1.7162162162162105,-19.661087866108783,9.769230769230772,-9.595555555555556,3.1229508196721234,0.7696969696969598,6.684210526315794,-1.2828282828282838,6.5752221257030605,41.11679091625683,35.5109084535944,2070.7844779700335,65.39665069249712,3034.4093782730783,1
-36.77012932832707,48.425584255842566,-20.94669795507878,-126.95718499789298,118.87728120232781,-31.750000000000114,7.044008001454813,1.7162162162162105,-19.661087866108783,9.769230769230772,-9.595555555555556,3.1229508196721234,0.7696969696969598,6.684210526315794,-1.2828282828282838,6.5752221257030605,41.11679091625683,35.380803846416136,2053.5340221152464,65.44315573627144,3026.754145082299,1
-36.77012932832707,48.425584255842566,-20.94669795507878,-126.95718499789298,118.87728120232781,-31.750000000000114,7.044008001454813,-17.16216216216217,-15.41004184100418,-4.558974358974357,-24.27111111111111,-7.286885245901646,-8.466666666666676,9.357894736842109,6.4141414141414135,11.615984692100458,45.13228906806355,35.380803846416136,2053.5340221152464,65.44315573627144,3026.754145082299,1
-36.77012932832707,48.425584255842566,-20.94669795507878,-126.95718499789298,118.87728120232781,-31.750000000000114,7.044008001454813,-5.1486486486486545,-19.661087866108783,22.7948717948718,-27.657777777777778,-26.024590163934434,-11.545454545454554,9.357894736842109,21.80808080808081,17.999800792714865,68.48893977368888,35.380803846416136,2053.5340221152464,65.44315573627144,3026.754145082299,1
-36.74363788068418,48.6859368593686,-21.053134428427757,-126.93577749683946,118.81987682919937,-31.472100656455154,7.09019821785779,-5.1486486486486545,-19.661087866108783,22.7948717948718,-27.657777777777778,-26.024590163934434,-11.545454545454554,9.357894736842109,21.80808080808081,17.999800792714865,68.48893977368888,35.494236389493516,2067.99036715598,65.55828292821194,3016.2905721882785,1
-36.74363788068418,48.6859368593686,-21.053134428427757,-126.93577749683946,118.81987682919937,-31.472100656455154,7.09019821785779,-12.01351351351352,5.845188284518834,50.14871794871795,-12.982222222222223,-15.614754098360663,-10.006060606060615,4.010526315789478,3.8484848484848477,14.308683479708517,228.40747239018492,35.494236389493516,2067.99036715598,65.55828292821194,3016.2905721882785,1
-36.74363788068418,48.6859368593686,-21.053134428427757,-126.93577749683946,118.81987682919937,-31.472100656455154,7.09019821785779,12.013513513513509,19.66108786610879,54.05641025641026,-2.822222222222223,6.245901639344254,-3.8484848484848584,2.67368421052632,1.282828282828282,12.825516604929813,315.37266574439184,35.494236389493516,2067.99036715598,65.55828292821194,3016.2905721882785,1
-36.53170629954109,48.47765477654777,-20.56352665102246,-126.91436999578593,118.77682354935307,-31.124726477024183,7.09019821785779,12.013513513513509,19.66108786610879,54.05641025641026,-2.822222222222223,6.245901639344254,-3.8484848484848584,2.67368421052632,1.282828282828282,12.825516604929813,315.37266574439184,35.19096257570377,2041.3764941278143,65.31851714111873,3040.336453922422,1
-36.53170629954109,48.47765477654777,-20.56352665102246,-126.91436999578593,118.77682354935307,-31.124726477024183,7.09019821785779,-18.878378378378386,-3.719665271966522,31.912820512820517,-17.497777777777777,4.163934426229501,0.7696969696969598,-4.01052631578947,8.97979797979798,11.24157470405714,114.0710402828907,35.19096257570377,2041.3764941278143,65.31851714111873,3040.336453922422,1
-36.53170629954109,48.47765477654777,-20.56352665102246,-126.91436999578593,118.77682354935307,-31.124726477024183,7.09019821785779,-13.729729729729735,24.974895397489544,54.05641025641026,-9.595555555555556,2.081967213114746,-0.7696969696969798,6.684210526315794,3.8484848484848477,14.467618812099683,316.62023270700956,35.19096257570377,2041.3764941278143,65.31851714111873,3040.336453922422,1
-36.160826032540676,47.38417384173842,-20.776399597720413,-126.8715549936789,118.76247245607097,-30.638402625820618,6.85924713584285,-13.729729729729735,24.974895397489544,54.05641025641026,-9.595555555555556,2.081967213114746,-0.7696969696969798,6.684210526315794,3.8484848484848477,14.467618812099683,316.62023270700956,34.77379982399984,1977.0518920529255,65.01070947771258,3047.066568517845,1
-36.160826032540676,47.38417384173842,-20.776399597720413,-126.8715549936789,118.76247245607097,-30.638402625820618,6.85924713584285,5.148648648648644,22.849372384937244,21.492307692307694,-10.724444444444446,-4.163934426229515,-3.8484848484848584,9.357894736842109,14.11111111111111,11.462024786625703,56.19344834752711,34.77379982399984,1977.0518920529255,65.01070947771258,3047.066568517845,1
-36.160826032540676,47.38417384173842,-20.776399597720413,-126.8715549936789,118.76247245607097,-30.638402625820618,6.85924713584285,-12.01351351351352,-22.849372384937233,39.72820512820513,-19.755555555555556,-10.409836065573778,-11.545454545454554,4.010526315789478,1.282828282828282,15.199411473982192,149.46369820072297,34.77379982399984,1977.0518920529255,65.01070947771258,3047.066568517845,1
-36.47872340425532,46.96760967609677,-20.56352665102246,-126.8715549936789,118.76247245607097,-30.568927789934378,6.813056919439873,-12.01351351351352,-22.849372384937233,39.72820512820513,-19.755555555555556,-10.409836065573778,-11.545454545454554,4.010526315789478,1.282828282828282,15.199411473982192,149.46369820072297,34.66995324379152,1962.83972764719,64.80089710693271,3063.86882796887,1
-36.47872340425532,46.96760967609677,-20.56352665102246,-126.8715549936789,118.76247245607097,-30.568927789934378,6.813056919439873,-5.329070518200751e-15,-14.347280334728028,8.466666666666669,-19.755555555555556,-2.0819672131147615,-3.8484848484848584,1.3368421052631625,6.4141414141414135,7.031367267244306,47.76623536883908,34.66995324379152,1962.83972764719,64.80089710693271,3063.86882796887,1
-36.47872340425532,46.96760967609677,-20.56352665102246,-126.8715549936789,118.76247245607097,-30.568927789934378,6.813056919439873,-6.86486486486487,10.096234309623435,55.358974358974365,-12.982222222222223,-14.573770491803286,-2.3090909090909193,5.347368421052636,19.242424242424242,15.846868727506997,284.26005599254444,34.66995324379152,1962.83972764719,64.80089710693271,3063.86882796887,1
-37.088026700041716,46.96760967609677,-20.350653704324504,-126.82873999157187,118.77682354935307,-30.707877461706858,6.7668667030368965,-6.86486486486487,10.096234309623435,55.358974358974365,-12.982222222222223,-14.573770491803286,-2.3090909090909193,5.347368421052636,19.242424242424242,15.846868727506997,284.26005599254444,34.80209669348766,1979.5397076585245,64.71566779066438,3070.6408899771754,1
-37.088026700041716,46.96760967609677,-20.350653704324504,-126.82873999157187,118.77682354935307,-30.707877461706858,6.7668667030368965,-1.7162162162162211,-3.719665271966522,42.333333333333336,-18.62666666666667,-9.3688524590164,-11.545454545454554,1.3368421052631625,3.8484848484848477,11.561939430800216,189.15549747856494,34.80209669348766,1979.5397076585245,64.71566779066438,3070.6408899771754,1
-37.088026700041716,46.96760967609677,-20.350653704324504,-126.82873999157187,118.77682354935307,-30.707877461706858,6.7668667030368965,-18.878378378378386,1.594142259414231,11.071794871794875,-9.595555555555556,-2.0819672131147615,0.7696969696969598,1.3368421052631625,8.97979797979798,6.788521916626989,41.75321268816648,34.80209669348766,1979.5397076585245,64.71566779066438,3070.6408899771754,1
-37.564872757613685,47.071750717507186,-20.308079114984913,-126.74310998735778,118.79117464263517,-30.916301969365463,6.85924713584285,-18.878378378378386,1.594142259414231,11.071794871794875,-9.595555555555556,-2.0819672131147615,0.7696969696969598,1.3368421052631625,8.97979797979798,6.788521916626989,41.75321268816648,34.98156753003526,2000.1994047248743,64.70764660661662,3065.372567059372,1
-37.564872757613685,47.071750717507186,-20.308079114984913,-126.74310998735778,118.79117464263517,-30.916301969365463,6.85924713584285,-25.74324324324325,3.719665271966532,0.6512820512820525,-22.013333333333335,-9.3688524590164,-3.8484848484848584,5.347368421052636,11.545454545454545,10.279710521729202,82.9514299437275,34.98156753003526,2000.1994047248743,64.70764660661662,3065.372567059372,1
-37.564872757613685,47.071750717507186,-20.308079114984913,-126.74310998735778,118.79117464263517,-30.916301969365463,6.85924713584285,24.02702702702702,11.158995815899587,37.12307692307692,-15.24,-10.409836065573778,-2.3090909090909193,5.347368421052636,-1.2828282828282838,13.362277930568645,146.81920983365788,34.98156753003526,2000.1994047248743,64.70764660661662,3065.372567059372,1
-37.43241551939925,46.707257072570734,-20.435802883003685,-126.6360724820902,118.80552573591727,-31.055251641137943,6.905437352245826,24.02702702702702,11.158995815899587,37.12307692307692,-15.24,-10.409836065573778,-2.3090909090909193,5.347368421052636,-1.2828282828282838,13.362277930568645,146.81920983365788,34.858491824991226,1979.4266408655747,64.5930441458882,3059.5503501537023,1
-37.43241551939925,46.707257072570734,-20.435802883003685,-126.6360724820902,118.80552573591727,-31.055251641137943,6.905437352245826,-5.329070518200751e-15,14.347280334728039,33.21538461538462,-22.013333333333335,-10.409836065573778,-3.8484848484848584,6.684210526315794,8.97979797979798,12.4372909629523,114.95634075397155,34.858491824991226,1979.4266408655747,64.5930441458882,3059.5503501537023,1
-37.43241551939925,46.707257072570734,-20.435802883003685,-126.6360724820902,118.80552573591727,-31.055251641137943,6.905437352245826,-22.310810810810814,-7.970711297071125,0.6512820512820525,-19.755555555555556,-11.450819672131153,-8.466666666666676,12.031578947368425,8.97979797979798,11.452152872585472,47.28537103318941,34.858491824991226,1979.4266408655747,64.5930441458882,3059.5503501537023,1
-37.008552357113054,46.186551865518666,-20.478377472343276,-126.6360724820902,118.80552573591727,-31.055251641137943,6.905437352245826,-22.310810810810814,-7.970711297071125,0.6512820512820525,-19.755555555555556,-11.450819672131153,-8.466666666666676,12.031578947368425,8.97979797979798,11.452152872585472,47.28537103318941,34.55782723165834,1939.8141419929589,64.43366727331738,3067.0819679747556,1
-37.008552357113054,46.186551865518666,-20.478377472343276,-126.6360724820902,118.80552573591727,-31.055251641137943,6.905437352245826,-5.1486486486486545,-4.782426778242673,-0.651282051282049,-23.142222222222223,-11.450819672131153,-10.006060606060615,-8.021052631578943,1.282828282828282,8.060667611624325,51.82819449520213,34.55782723165834,1939.8141419929589,64.43366727331738,3067.0819679747556,1
-37.008552357113054,46.186551865518666,-20.478377472343276,-126.6360724820902,118.80552573591727,-31.055251641137943,6.905437352245826,-6.86486486486487,34.5397489539749,48.846153846153854,-10.724444444444446,6.245901639344254,-2.3090909090909193,-1.3368421052631536,14.11111111111111,15.62226973428094,290.55605430498116,34.55782723165834,1939.8141419929589,64.43366727331738,3067.0819679747556,1
-36.849603671255736,46.238622386223874,-20.79768689239021,-126.6360724820902,118.80552573591727,-31.055251641137943,6.85924713584285,-6.86486486486487,34.5397489539749,48.846153846153854,-10.724444444444446,6.245901639344254,-2.3090909090909193,-1.3368421052631536,14.11111111111111,15.62226973428094,290.55605430498116,34.6286376499566,1942.5306838920762,64.55746058690143,3052.125840825456,1
-36.849603671255736,46.238622386223874,-20.79768689239021,-126.6360724820902,118.80552573591727,-31.055251641137943,6.85924713584285,6.86486486486486,-3.719665271966522,17.58461538461539,-14.111111111111112,-8.327868852459023,-6.927272727272737,-1.3368421052631536,16.676767676767675,9.44362599929006,36.155727466947084,34.6286376499566,1942.5306838920762,64.55746058690143,3052.125840825456,1
-36.849603671255736,46.238622386223874,-20.79768689239021,-126.6360724820902,118.80552573591727,-31.055251641137943,6.85924713584285,-10.297297297297302,-31.35146443514644,-5.8615384615384585,-28.78666666666667,-13.532786885245908,-3.8484848484848584,2.67368421052632,6.4141414141414135,12.84575802738092,125.44391774794327,34.6286376499566,1942.5306838920762,64.55746058690143,3052.125840825456,1
-37.114518147684606,46.55104551045511,-20.435802883003685,-126.5290349768226,118.79117464263517,-31.055251641137943,6.951627568648803,-10.297297297297302,-31.35146443514644,-5.8615384615384585,-28.78666666666667,-13.532786885245908,-3.8484848484848584,2.67368421052632,6.4141414141414135,12.84575802738092,125.44391774794327,34.700455513714466,1960.8906571337936,64.50529445676047,3055.709765447662,1
-37.114518147684606,46.55104551045511,-20.435802883003685,-126.5290349768226,118.79117464263517,-31.055251641137943,6.951627568648803,-6.86486486486487,43.04184100418411,25.400000000000002,-10.724444444444446,4.163934426229501,3.848484848484838,5.347368421052636,1.282828282828282,12.584220786511086,207.91263368909804,34.700455513714466,1960.8906571337936,64.50529445676047,3055.709765447662,1
-37.114518147684606,46.55104551045511,-20.435802883003685,-126.5290349768226,118.79117464263517,-31.055251641137943,6.951627568648803,-27.459459459459467,-6.907949790794974,-9.769230769230766,-25.4,-2.0819672131147615,-5.3878787878787975,-5.347368421052627,1.282828282828282,10.45458534054496,104.50807707735443,34.700455513714466,1960.8906571337936,64.50529445676047,3055.709765447662,1
-36.9290780141844,46.55104551045511,-20.286791820315116,-126.50762747576908,118.79117464263517,-31.055251641137943,6.951627568648803,-27.459459459459467,-6.907949790794974,-9.769230769230766,-25.4,-2.0819672131147615,-5.3878787878787975,-5.347368421052627,1.282828282828282,10.45458534054496,104.50807707735443,34.588971781651544,1952.1988687503706,64.44848826884645,3060.9553248031607,1
-36.9290780141844,46.55104551045511,-20.286791820315116,-126.50762747576908,118.79117464263517,-31.055251641137943,6.951627568648803,-10.297297297297302,-23.912133891213383,46.241025641025644,-18.62666666666667,-10.409836065573778,-11.545454545454554,-2.673684210526311,8.97979797979798,16.585737037194452,184.5376891940733,34.588971781651544,1952.1988687503706,64.44848826884645,3060.9553248031607,1
-36.9290780141844,46.55104551045511,-20.286791820315116,-126.50762747576908,118.79117464263517,-31.055251641137943,6.951627568648803,3.432432432432428,-5.845188284518823,30.61025641025641,-12.982222222222223,-1.0409836065573845,-5.3878787878787975,-2.673684210526311,-1.2828282828282838,7.906934279652582,98.60342179348154,34.588971781651544,1952.1988687503706,64.44848826884645,3060.9553248031607,1
-37.538381309970795,46.498974989749904,-20.265504525645323,-126.44340497260853,118.80552573591727,-31.40262582056903,7.044008001454813,3.432432432432428,-5.845188284518823,30.61025641025641,-12.982222222222223,-1.0409836065573845,-5.3878787878787975,-2.673684210526311,-1.2828282828282838,7.906934279652582,98.60342179348154,34.767620275122006,1969.6875418690543,64.40262816266792,3058.8422335334103,1
-37.538381309970795,46.498974989749904,-20.265504525645323,-126.44340497260853,118.80552573591727,-31.40262582056903,7.044008001454813,-13.729729729729735,-17.53556485355648,21.492307692307694,-14.111111111111112,3.1229508196721234,0.7696969696969598,5.347368421052636,1.282828282828282,9.673944734994379,64.13540838725784,34.767620275122006,1969.6875418690543,64.40262816266792,3058.8422335334103,1
-37.538381309970795,46.498974989749904,-20.265504525645323,-126.44340497260853,118.80552573591727,-31.40262582056903,7.044008001454813,-27.459459459459467,-49.418410041841,3.256410256410259,-20.884444444444444,-10.409836065573778,-10.006060606060615,8.021052631578952,11.545454545454545,17.625141006352884,223.4173385962557,34.767620275122006,1969.6875418690543,64.40262816266792,3058.8422335334103,1
-37.88277012932833,46.60311603116032,-20.41451558833389,-126.35777496839445,118.8342279224815,-31.750000000000114,7.136388434260766,-27.459459459459467,-49.418410041841,3.256410256410259,-20.884444444444444,-10.409836065573778,-10.006060606060615,8.021052631578952,11.545454545454545,17.625141006352884,223.4173385962557,34.96680058294084,1989.0613041530414,64.45846886262956,3045.1037705698895,1
-37.88277012932833,46.60311603116032,-20.41451558833389,-126.35777496839445,118.8342279224815,-31.750000000000114,7.136388434260766,-5.329070518200751e-15,-10.096234309623426,68.38461538461539,-12.982222222222223,-12.491803278688531,-3.8484848484848584,4.010526315789478,6.4141414141414135,14.778503471695664,489.6822656647288,34.96680058294084,1989.0613041530414,64.45846886262956,3045.1037705698895,1
-37.88277012932833,46.60311603116032,-20.41451558833389,-126.35777496839445,118.8342279224815,-31.750000000000114,7.136388434260766,-6.86486486486487,18.59832635983264,38.42564102564103,-7.337777777777779,-1.0409836065573845,-2.3090909090909193,4.440892098500626e-15,3.8484848484848477,9.803146174031184,167.97285257091218,34.96680058294084,1989.0613041530414,64.45846886262956,3045.1037705698895,1
-36.98206090947017,46.60311603116032,-20.32936640965471,-126.35777496839445,118.8485790157636,-31.750000000000114,7.09019821785779,-6.86486486486487,18.59832635983264,38.42564102564103,-7.337777777777779,-1.0409836065573845,-2.3090909090909193,4.440892098500626e-15,3.8484848484848477,9.803146174031184,167.97285257091218,34.638181116761736,1957.2918739984505,64.43008580306983,3048.8564938111904,1
-36.98206090947017,46.60311603116032,-20.32936640965471,-126.35777496839445,118.8485790157636,-31.750000000000114,7.09019821785779,-30.8918918918919,-3.719665271966522,20.189743589743593,-17.497777777777777,6.245901639344254,-2.3090909090909193,-2.673684210526311,1.282828282828282,10.601322946646194,119.4251293998358,34.638181116761736,1957.2918739984505,64.43008580306983,3048.8564938111904,1
-36.98206090947017,46.60311603116032,-20.32936640965471,-126.35777496839445,118.8485790157636,-31.750000000000114,7.09019821785779,-20.5945945945946,24.974895397489544,89.22564102564102,-10.724444444444446,2.081967213114746,0.7696969696969598,5.347368421052636,3.8484848484848477,19.695886614314848,867.0028658684769,34.638181116761736,1957.2918739984505,64.43008580306983,3048.8564938111904,1
-36.21380892782645,46.34276342763428,-20.350653704324504,-126.35777496839445,118.8485790157636,-31.680525164113874,7.09019821785779,-20.5945945945946,24.974895397489544,89.22564102564102,-10.724444444444446,2.081967213114746,0.7696969696969598,5.347368421052636,3.8484848484848477,19.695886614314848,867.0028658684769,34.30240868659508,1919.2065369107988,64.3503973667844,3052.583599738631,1
-36.21380892782645,46.34276342763428,-20.350653704324504,-126.35777496839445,118.8485790157636,-31.680525164113874,7.09019821785779,6.86486486486486,20.723849372384944,0.6512820512820525,-28.78666666666667,-17.696721311475414,-11.545454545454554,9.357894736842109,6.4141414141414135,12.755109370389002,82.76299970416858,34.30240868659508,1919.2065369107988,64.3503973667844,3052.583599738631,1
-36.21380892782645,46.34276342763428,-20.350653704324504,-126.35777496839445,118.8485790157636,-31.680525164113874,7.09019821785779,1.7162162162162105,-26.037656903765686,-24.097435897435894,-27.657777777777778,-8.327868852459023,-8.466666666666676,5.347368421052636,8.97979797979798,13.828848589396486,106.702371709146,34.30240868659508,1919.2065369107988,64.3503973667844,3052.583599738631,1
-36.584689194826865,46.446904469044696,-20.18035534696614,-126.33636746734093,118.8485790157636,-31.680525164113874,7.044008001454813,1.7162162162162105,-26.037656903765686,-24.097435897435894,-27.657777777777778,-8.327868852459023,-8.466666666666676,5.347368421052636,8.97979797979798,13.828848589396486,106.702371709146,34.40398300361257,1933.7565776574263,64.3212090944506,3056.8928017066455,1
-36.584689194826865,46.446904469044696,-20.18035534696614,-126.33636746734093,118.8485790157636,-31.680525164113874,7.044008001454813,-13.729729729729735,-20.723849372384933,-0.651282051282049,-11.853333333333335,-3.1229508196721385,0.7696969696969598,5.347368421052636,11.545454545454545,8.467958155325793,51.07081329403544,34.40398300361257,1933.7565776574263,64.3212090944506,3056.8928017066455,1
-36.584689194826865,46.446904469044696,-20.18035534696614,-126.33636746734093,118.8485790157636,-31.680525164113874,7.044008001454813,-13.729729729729735,13.284518828451887,30.61025641025641,-16.36888888888889,-29.147540983606564,-6.927272727272737,6.684210526315794,1.282828282828282,14.754405797168786,110.32326972650053,34.40398300361257,1933.7565776574263,64.3212090944506,3056.8928017066455,1
-36.584689194826865,46.446904469044696,-20.18035534696614,-126.33636746734093,118.8485790157636,-31.680525164113874,7.044008001454813,8.581081081081075,28.163179916317997,4.5589743589743605,-12.982222222222223,-7.105427357601002e-15,5.387878787878778,12.031578947368425,11.545454545454545,10.406296232412176,70.9828052569992,34.40398300361257,1933.7565776574263,64.3212090944506,3056.8928017066455,1
-36.584689194826865,46.446904469044696,-20.18035534696614,-126.33636746734093,118.8485790157636,-31.680525164113874,7.044008001454813,-36.04054054054055,-21.786610878661083,30.61025641025641,-10.724444444444446,-6.24590163934427,-3.8484848484848584,4.440892098500626e-15,-1.2828282828282838,13.817383380569987,193.3836550873644,34.40398300361257,1933.7565776574263,64.3212090944506,3056.8928017066455,1
-40.134543178973715,32.439934399344,-17.43429433456252,-124.79502739148758,125.57924176507147,-48.146061269146685,-10.04637206764869,-36.04054054054055,-21.786610878661083,30.61025641025641,-10.724444444444446,-6.24590163934427,-3.8484848484848584,4.440892098500626e-15,-1.2828282828282838,13.817383380569987,193.3836550873644,30.00292397096008,1378.299130860993,58.223085375131355,3380.159906310264,1
-40.134543178973715,32.439934399344,-17.43429433456252,-124.79502739148758,125.57924176507147,-48.146061269146685,-10.04637206764869,-10.297297297297302,1.594142259414231,42.333333333333336,-18.62666666666667,-3.1229508196721385,-3.8484848484848584,12.031578947368425,3.8484848484848477,11.962867377590227,183.84160875582634,30.00292397096008,1378.299130860993,58.223085375131355,3380.159906310264,1
-40.134543178973715,32.439934399344,-17.43429433456252,-124.79502739148758,125.57924176507147,-48.146061269146685,-10.04637206764869,-8.581081081081086,-12.221757322175726,-47.54358974358975,-20.884444444444444,-6.24590163934427,-0.7696969696969798,4.010526315789478,1.282828282828282,12.69247822486875,241.15727322262157,30.00292397096008,1378.299130860993,58.223085375131355,3380.159906310264,1
-43.15456821026282,34.6789667896679,-17.774891049279248,-123.59620733249054,126.00977456353466,-50.09135667396072,-10.78541553009643,-8.581081081081086,-12.221757322175726,-47.54358974358975,-20.884444444444444,-6.24590163934427,-0.7696969696969798,4.010526315789478,1.282828282828282,12.69247822486875,241.15727322262157,31.869475349736657,1575.5990642616116,58.68335505714589,3231.6957370497357,1
-43.15456821026282,34.6789667896679,-17.774891049279248,-123.59620733249054,126.00977456353466,-50.09135667396072,-10.78541553009643,-8.581081081081086,-29.225941422594136,46.241025641025644,-15.24,-11.450819672131153,-13.084848484848495,2.67368421052632,-1.2828282828282838,15.97252859937939,224.0622949604274,31.869475349736657,1575.5990642616116,58.68335505714589,3231.6957370497357,1
-43.15456821026282,34.6789667896679,-17.774891049279248,-123.59620733249054,126.00977456353466,-50.09135667396072,-10.78541553009643,6.86486486486486,29.225941422594147,48.846153846153854,-27.657777777777778,-13.532786885245908,-13.084848484848495,1.3368421052631625,6.4141414141414135,18.3704196001112,249.95440659879503,31.869475349736657,1575.5990642616116,58.68335505714589,3231.6957370497357,1
-43.684397163120565,38.584255842558434,-18.605095541401273,-122.46160977665404,126.33984970902311,-51.82822757111603,-11.247317694126252,6.86486486486486,29.225941422594147,48.846153846153854,-27.657777777777778,-13.532786885245908,-13.084848484848495,1.3368421052631625,6.4141414141414135,18.3704196001112,249.95440659879503,33.62458284902676,1777.954091486667,59.883653720204585,3036.792149737023,1
-43.684397163120565,38.584255842558434,-18.605095541401273,-122.46160977665404,126.33984970902311,-51.82822757111603,-11.247317694126252,-12.01351351351352,-21.786610878661083,7.164102564102567,-15.24,-1.0409836065573845,0.7696969696969598,5.347368421052636,3.8484848484848477,8.401345100258624,54.71190786731427,33.62458284902676,1777.954091486667,59.883653720204585,3036.792149737023,1
-43.684397163120565,38.584255842558434,-18.605095541401273,-122.46160977665404,126.33984970902311,-51.82822757111603,-11.247317694126252,-13.729729729729735,-10.096234309623426,39.72820512820513,-17.497777777777777,-14.573770491803286,-14.624242424242434,-1.3368421052631536,3.8484848484848477,14.429410851891223,136.01999865260865,33.62458284902676,1777.954091486667,59.883653720204585,3036.792149737023,1
-43.949311639549435,42.17712177121772,-19.13727790814616,-121.54108723135273,126.62687157466523,-53.42614879649898,-11.616839425350065,-13.729729729729735,-10.096234309623426,39.72820512820513,-17.497777777777777,-14.573770491803286,-14.624242424242434,-1.3368421052631536,3.8484848484848477,14.429410851891223,136.01999865260865,35.08790377297111,1965.47585966473,60.95182897023887,2886.002263782645,1
-43.949311639549435,42.17712177121772,-19.13727790814616,-121.54108723135273,126.62687157466523,-53.42614879649898,-11.616839425350065,6.86486486486486,31.351464435146447,38.42564102564103,-15.24,-2.0819672131147615,-8.466666666666676,6.684210526315794,14.11111111111111,15.403240730357584,165.79581988070348,35.08790377297111,1965.47585966473,60.95182897023887,2886.002263782645,1
-43.949311639549435,42.17712177121772,-19.13727790814616,-121.54108723135273,126.62687157466523,-53.42614879649898,-11.616839425350065,-3.432432432432438,-1.594142259414221,18.88717948717949,-11.853333333333335,1.0409836065573694,-0.7696969696969798,8.021052631578952,11.545454545454545,7.143034408205915,43.239614836856944,35.08790377297111,1965.47585966473,60.95182897023887,2886.002263782645,1
-42.068418856904465,45.66584665846659,-19.56302380154207,-121.09152970922884,126.87084016046104,-54.67669584245084,-11.986361156573935,-3.432432432432438,-1.594142259414221,18.88717948717949,-11.853333333333335,1.0409836065573694,-0.7696969696969798,8.021052631578952,11.545454545454545,7.143034408205915,43.239614836856944,35.76576310563771,2076.4332822680244,62.1068000564125,2779.738089436869,1
-42.068418856904465,45.66584665846659,-19.56302380154207,-121.09152970922884,126.87084016046104,-54.67669584245084,-11.986361156573935,-18.878378378378386,6.907949790794984,35.820512820512825,-20.884444444444444,-6.24590163934427,-3.8484848484848584,-2.673684210526311,-6.414141414141415,12.709187193328438,133.32950090315333,35.76576310563771,2076.4332822680244,62.1068000564125,2779.738089436869,1
-42.068418856904465,45.66584665846659,-19.56302380154207,-121.09152970922884,126.87084016046104,-54.67669584245084,-11.986361156573935,-32.60810810810811,-3.719665271966522,38.42564102564103,-24.27111111111111,-10.409836065573778,-16.16363636363637,-5.347368421052627,3.8484848484848477,16.8492314019468,183.5145097573634,35.76576310563771,2076.4332822680244,62.1068000564125,2779.738089436869,1
-38.67751355861493,48.94628946289464,-20.073918873617163,-121.1771597134429,126.99999999999999,-55.16301969365429,-12.263502454991851,-32.60810810810811,-3.719665271966522,38.42564102564103,-24.27111111111111,-10.409836065573778,-16.16363636363637,-5.347368421052627,3.8484848484848477,16.8492314019468,183.5145097573634,35.89924063170891,2131.3022916619134,63.39912268331824,2712.129618151987,1
-38.67751355861493,48.94628946289464,-20.073918873617163,-121.1771597134429,126.99999999999999,-55.16301969365429,-12.263502454991851,-3.432432432432438,2.6569037656903816,9.769230769230772,-22.013333333333335,-3.1229508196721385,-3.8484848484848584,5.347368421052636,8.97979797979798,7.396312796211818,42.14523981351334,35.89924063170891,2131.3022916619134,63.39912268331824,2712.129618151987,1
-38.67751355861493,48.94628946289464,-20.073918873617163,-121.1771597134429,126.99999999999999,-55.16301969365429,-12.263502454991851,-5.1486486486486545,-2.6569037656903713,44.93846153846154,-5.080000000000002,15.614754098360649,-2.3090909090909193,9.357894736842109,3.8484848484848477,11.119279818197386,205.89512178310522,35.89924063170891,2131.3022916619134,63.39912268331824,2712.129618151987,1
-33.40571547768043,50.56047560475606,-21.755615152531007,-121.43404972608514,126.94259562687158,-53.2871991247265,-13.04873613384251,-5.1486486486486545,-2.6569037656903713,44.93846153846154,-5.080000000000002,15.614754098360649,-2.3090909090909193,9.357894736842109,3.8484848484848477,11.119279818197386,205.89512178310522,35.2406020783225,2069.2771774824105,64.58338016112407,2631.4289689063326,1
-33.40571547768043,50.56047560475606,-21.755615152531007,-121.43404972608514,126.94259562687158,-53.2871991247265,-13.04873613384251,6.86486486486486,9.033472803347285,16.282051282051285,-14.111111111111112,1.0409836065573694,-2.3090909090909193,4.010526315789478,16.676767676767675,8.791108571197498,39.3291973040823,35.2406020783225,2069.2771774824105,64.58338016112407,2631.4289689063326,1
-33.40571547768043,50.56047560475606,-21.755615152531007,-121.43404972608514,126.94259562687158,-53.2871991247265,-13.04873613384251,5.148648648648644,16.47280334728034,37.12307692307692,-14.111111111111112,6.245901639344254,3.848484848484838,2.67368421052632,3.8484848484848477,11.184024447119661,135.74720759800942,35.2406020783225,2069.2771774824105,64.58338016112407,2631.4289689063326,1
-32.081143095536085,54.101271012710136,-22.990278243379148,-121.45545722713865,126.64122266794733,-49.882932166302,-13.741589379887273,5.148648648648644,16.47280334728034,37.12307692307692,-14.111111111111112,6.245901639344254,3.848484848484838,2.67368421052632,3.8484848484848477,11.184024447119661,135.74720759800942,36.39089745054179,2242.193215331577,66.18233549440932,2533.3119573341787,1
-32.081143095536085,54.101271012710136,-22.990278243379148,-121.45545722713865,126.64122266794733,-49.882932166302,-13.741589379887273,-20.5945945945946,-11.158995815899576,29.30769230769231,-31.044444444444444,-16.65573770491804,-8.466666666666676,1.3368421052631625,-3.8484848484848495,15.301682310995457,123.41757805876838,36.39089745054179,2242.193215331577,66.18233549440932,2533.3119573341787,1
-32.081143095536085,54.101271012710136,-22.990278243379148,-121.45545722713865,126.64122266794733,-49.882932166302,-13.741589379887273,-8.581081081081086,1.594142259414231,-31.91282051282051,-23.142222222222223,-12.491803278688531,-11.545454545454554,18.715789473684215,3.8484848484848477,13.978974777731274,103.0438855578388,36.39089745054179,2242.193215331577,66.18233549440932,2533.3119573341787,1
-35.10116812682519,59.360393603936046,-23.288300368756286,-121.36982722292458,126.21068986948414,-46.96498905908106,-13.695399163484296,-8.581081081081086,1.594142259414231,-31.91282051282051,-23.142222222222223,-12.491803278688531,-11.545454545454554,18.715789473684215,3.8484848484848477,13.978974777731274,103.0438855578388,39.24995403317251,2648.889517445965,68.00617373187231,2461.0586130266975,1
-35.10116812682519,59.360393603936046,-23.288300368756286,-121.36982722292458,126.21068986948414,-46.96498905908106,-13.695399163484296,-24.02702702702703,-23.912133891213383,3.256410256410259,-17.497777777777777,-5.2049180327868925,5.387878787878778,10.694736842105268,11.545454545454545,12.69079214508174,68.74432772770692,39.24995403317251,2648.889517445965,68.00617373187231,2461.0586130266975,1
-35.10116812682519,59.360393603936046,-23.288300368756286,-121.36982722292458,126.21068986948414,-46.96498905908106,-13.695399163484296,-22.310810810810814,-5.845188284518823,38.42564102564103,-19.755555555555556,-16.65573770491804,-6.927272727272737,-4.01052631578947,-1.2828282828282838,14.401695088416844,154.65863899505828,39.24995403317251,2648.889517445965,68.00617373187231,2461.0586130266975,1
-38.01522736754276,61.91184911849119,-22.22393563526651,-121.43404972608514,125.82321035086729,-45.57549234135672,-12.863975268230604,-22.310810810810814,-5.845188284518823,38.42564102564103,-19.755555555555556,-16.65573770491804,-6.927272727272737,-4.01052631578947,-1.2828282828282838,14.401695088416844,154.65863899505828,40.71700404043349,2885.6026309583635,68.52327815994761,2493.444929955972,1
-38.01522736754276,61.91184911849119,-22.22393563526651,-121.43404972608514,125.82321035086729,-45.57549234135672,-12.863975268230604,-5.1486486486486545,4.782426778242683,30.61025641025641,-16.36888888888889,-14.573770491803286,-11.545454545454554,-5.347368421052627,16.676767676767675,13.13169773263935,75.31112331542036,40.71700404043349,2885.6026309583635,68.52327815994761,2493.444929955972,1
-38.01522736754276,61.91184911849119,-22.22393563526651,-121.43404972608514,125.82321035086729,-45.57549234135672,-12.863975268230604,-1.7162162162162211,-10.096234309623426,5.861538461538466,-14.111111111111112,-10.409836065573778,-2.3090909090909193,4.010526315789478,21.80808080808081,8.790329274628027,46.510660401538345,40.71700404043349,2885.6026309583635,68.52327815994761,2493.444929955972,1
-36.9290780141844,61.70356703567037,-21.542742205833054,-121.92642225031607,125.47878411209673,-44.95021881838079,-11.801600290962028,-1.7162162162162211,-10.096234309623426,5.861538461538466,-14.111111111111112,-10.409836065573778,-2.3090909090909193,4.010526315789478,21.80808080808081,8.790329274628027,46.510660401538345,40.058462418562605,2815.8476669116685,68.39091049727317,2552.7612267483655,1
-36.9290780141844,61.70356703567037,-21.542742205833054,-121.92642225031607,125.47878411209673,-44.95021881838079,-11.801600290962028,-5.1486486486486545,11.158995815899587,35.820512820512825,-16.36888888888889,-3.1229508196721385,-3.8484848484848584,-2.673684210526311,14.11111111111111,11.531659645468046,124.15482011076138,40.058462418562605,2815.8476669116685,68.39091049727317,2552.7612267483655,1
-36.9290780141844,61.70356703567037,-21.542742205833054,-121.92642225031607,125.47878411209673,-44.95021881838079,-11.801600290962028,-10.297297297297302,-5.845188284518823,28.00512820512821,-17.497777777777777,-15.614754098360663,-10.006060606060615,4.010526315789478,3.8484848484848477,11.890652179177215,67.77086686432509,40.058462418562605,2815.8476669116685,68.39091049727317,2552.7612267483655,1
-31.736754276178555,59.88109881098812,-23.416024136775057,-122.78272229245682,125.03390022035141,-42.72702407002191,-11.201127477723219,-10.297297297297302,-5.845188284518823,28.00512820512821,-17.497777777777777,-15.614754098360663,-10.006060606060615,4.010526315789478,3.8484848484848477,11.890652179177215,67.77086686432509,38.34462574131391,2566.912707621535,68.69328174674,2526.6761016604605,1
-31.736754276178555,59.88109881098812,-23.416024136775057,-122.78272229245682,125.03390022035141,-42.72702407002191,-11.201127477723219,-6.86486486486487,0.5313807531380803,-4.558974358974357,-15.24,-2.0819672131147615,-3.8484848484848584,1.3368421052631625,-3.8484848484848495,4.7888748740406175,21.81820105694734,38.34462574131391,2566.912707621535,68.69328174674,2526.6761016604605,1
-31.736754276178555,59.88109881098812,-23.416024136775057,-122.78272229245682,125.03390022035141,-42.72702407002191,-11.201127477723219,3.432432432432428,3.719665271966532,28.00512820512821,-5.080000000000002,7.286885245901631,6.927272727272717,8.021052631578952,14.11111111111111,9.572943453173949,66.73252617095231,38.34462574131391,2566.912707621535,68.69328174674,2526.6761016604605,1
-25.749687108886107,55.55924559245594,-24.799698290311767,-123.63902233459757,124.50290976891348,-38.21115973741803,-11.616839425350065,3.432432432432428,3.719665271966532,28.00512820512821,-5.080000000000002,7.286885245901631,6.927272727272717,8.021052631578952,14.11111111111111,9.572943453173949,66.73252617095231,35.369543663884606,2178.267479623433,67.99932207245509,2558.3696215040045,1
-25.749687108886107,55.55924559245594,-24.799698290311767,-123.63902233459757,124.50290976891348,-38.21115973741803,-11.616839425350065,-6.86486486486487,-2.6569037656903713,20.189743589743593,-22.013333333333335,-11.450819672131153,-8.466666666666676,5.347368421052636,6.4141414141414135,10.425480215953005,49.916324392914,35.369543663884606,2178.267479623433,67.99932207245509,2558.3696215040045,1
-25.749687108886107,55.55924559245594,-24.799698290311767,-123.63902233459757,124.50290976891348,-38.21115973741803,-11.616839425350065,-36.04054054054055,-38.79079497907949,4.5589743589743605,-22.013333333333335,-13.532786885245908,-8.466666666666676,6.684210526315794,1.282828282828282,16.42126694662305,207.5569211778259,35.369543663884606,2178.267479623433,67.99932207245509,2558.3696215040045,1
-28.13391739674593,55.35096350963511,-23.139289306067717,-123.93872734934683,123.92886603762925,-34.1816192560176,-11.663029641753042,-36.04054054054055,-38.79079497907949,4.5589743589743605,-22.013333333333335,-13.532786885245908,-8.466666666666676,6.684210526315794,1.282828282828282,16.42126694662305,207.5569211778259,35.54139007081625,2192.56523946496,67.47632672168322,2650.4000022282835,1
-28.13391739674593,55.35096350963511,-23.139289306067717,-123.93872734934683,123.92886603762925,-34.1816192560176,-11.663029641753042,-24.02702702702703,-0.5313807531380703,25.400000000000002,-15.24,-2.0819672131147615,-2.3090909090909193,5.347368421052636,1.282828282828282,9.527457825781463,109.81783686036627,35.54139007081625,2192.56523946496,67.47632672168322,2650.4000022282835,1
-28.13391739674593,55.35096350963511,-23.139289306067717,-123.93872734934683,123.92886603762925,-34.1816192560176,-11.663029641753042,-20.5945945945946,-7.970711297071125,-11.071794871794872,-22.013333333333335,-5.2049180327868925,-10.006060606060615,-9.3578947368421,6.4141414141414135,11.579181110828118,39.73505631603568,35.54139007081625,2192.56523946496,67.47632672168322,2650.4000022282835,1
-37.988735919899874,54.88232882328824,-19.669460274891048,-123.87450484618627,123.627493078705,-34.52899343544868,-10.231132933260596,-20.5945945945946,-7.970711297071125,-11.071794871794872,-22.013333333333335,-5.2049180327868925,-10.006060606060615,-9.3578947368421,6.4141414141414135,11.579181110828118,39.73505631603568,37.513508339359724,2419.7666307384425,66.14209798145518,2809.7596296478114,1
-37.988735919899874,54.88232882328824,-19.669460274891048,-123.87450484618627,123.627493078705,-34.52899343544868,-10.231132933260596,30.891891891891888,30.288702928870297,52.753846153846155,-8.466666666666669,-4.163934426229515,-3.8484848484848584,-13.368421052631575,21.80808080808081,20.69875359708772,283.61661285219617,37.513508339359724,2419.7666307384425,66.14209798145518,2809.7596296478114,1
-37.988735919899874,54.88232882328824,-19.669460274891048,-123.87450484618627,123.627493078705,-34.52899343544868,-10.231132933260596,-10.297297297297302,9.033472803347285,44.93846153846154,-22.013333333333335,-7.286885245901646,-6.927272727272737,8.021052631578952,3.8484848484848477,14.045782553209705,184.80742816030062,37.513508339359724,2419.7666307384425,66.14209798145518,2809.7596296478114,1
-42.54526491447643,51.081180811808125,-17.34914515588334,-123.91731984829332,123.627493078705,-37.933260393873184,-8.152573195126422,-10.297297297297302,9.033472803347285,44.93846153846154,-22.013333333333335,-7.286885245901646,-6.927272727272737,8.021052631578952,3.8484848484848477,14.045782553209705,184.80742816030062,36.99186362738929,2347.24421704513,64.1158819386616,2966.621539417799,1
-42.54526491447643,51.081180811808125,-17.34914515588334,-123.91731984829332,123.627493078705,-37.933260393873184,-8.152573195126422,-24.02702702702703,-11.158995815899576,30.61025641025641,-16.36888888888889,-18.737704918032794,-22.32121212121213,17.378947368421056,8.97979797979798,18.697853816191984,48.83918817563647,36.99186362738929,2347.24421704513,64.1158819386616,2966.621539417799,1
-42.54526491447643,51.081180811808125,-17.34914515588334,-123.91731984829332,123.627493078705,-37.933260393873184,-8.152573195126422,10.297297297297291,7.9707112970711345,26.702564102564107,-9.595555555555556,7.286885245901631,-0.7696969696969798,14.705263157894741,11.545454545454545,11.109178521429499,55.79868887567871,36.99186362738929,2347.24421704513,64.1158819386616,2966.621539417799,1
-36.39924906132666,48.217302173021736,-19.584311096211866,-124.49532237673832,123.6131419854229,-39.46170678336989,-7.1825786506638,10.297297297297291,7.9707112970711345,26.702564102564107,-9.595555555555556,7.286885245901631,-0.7696969696969798,14.705263157894741,11.545454545454545,11.109178521429499,55.79868887567871,34.73362077685342,2006.6269405794133,64.09897854865731,2940.750805351003,1
-36.39924906132666,48.217302173021736,-19.584311096211866,-124.49532237673832,123.6131419854229,-39.46170678336989,-7.1825786506638,-5.1486486486486545,14.347280334728039,-17.584615384615383,-19.755555555555556,-1.0409836065573845,-2.3090909090909193,13.368421052631582,11.545454545454545,10.637506254660257,49.28987781395407,34.73362077685342,2006.6269405794133,64.09897854865731,2940.750805351003,1
-36.39924906132666,48.217302173021736,-19.584311096211866,-124.49532237673832,123.6131419854229,-39.46170678336989,-7.1825786506638,-8.581081081081086,18.59832635983264,33.21538461538462,-20.884444444444444,-18.737704918032794,-6.927272727272737,2.67368421052632,6.4141414141414135,14.504004971339509,103.34338564433268,34.73362077685342,2006.6269405794133,64.09897854865731,2940.750805351003,1
-26.25302461410096,46.13448134481346,-21.45759302715387,-125.48006742520018,123.51268433244816,-36.96061269146617,-8.106382978723445,-8.581081081081086,18.59832635983264,33.21538461538462,-20.884444444444444,-18.737704918032794,-6.927272727272737,2.67368421052632,6.4141414141414135,14.504004971339509,103.34338564433268,31.28169966202276,1638.6059501604202,64.35738059905584,2954.22433789575,1
-26.25302461410096,46.13448134481346,-21.45759302715387,-125.48006742520018,123.51268433244816,-36.96061269146617,-8.106382978723445,-5.1486486486486545,-52.60669456066945,7.164102564102567,-17.497777777777777,-5.2049180327868925,-10.006060606060615,10.694736842105268,1.282828282828282,13.700720914372438,270.43241781905607,31.28169966202276,1638.6059501604202,64.35738059905584,2954.22433789575,1
-26.25302461410096,46.13448134481346,-21.45759302715387,-125.48006742520018,123.51268433244816,-36.96061269146617,-8.106382978723445,6.86486486486486,32.4142259414226,52.753846153846155,-19.755555555555556,-10.409836065573778,-3.8484848484848584,4.010526315789478,-1.2828282828282838,16.417521003545694,322.24059962655,31.28169966202276,1638.6059501604202,64.35738059905584,2954.22433789575,1
-24.266166040884436,44.051660516605175,-21.329869259135098,-126.20792246101982,123.38352449290919,-33.34792122538295,-9.67685033642482,6.86486486486486,32.4142259414226,52.753846153846155,-19.755555555555556,-10.409836065573778,-3.8484848484848584,4.010526315789478,-1.2828282828282838,16.417521003545694,322.24059962655,29.882565272208236,1491.7819500242927,63.8631507455867,3044.222869674113,1
-24.266166040884436,44.051660516605175,-21.329869259135098,-126.20792246101982,123.38352449290919,-33.34792122538295,-9.67685033642482,-1.7162162162162211,16.47280334728034,4.5589743589743605,-22.013333333333335,-9.3688524590164,-2.3090909090909193,-4.01052631578947,-8.97979797979798,8.67869936493738,52.41993554948231,29.882565272208236,1491.7819500242927,63.8631507455867,3044.222869674113,1
-24.266166040884436,44.051660516605175,-21.329869259135098,-126.20792246101982,123.38352449290919,-33.34792122538295,-9.67685033642482,-1.7162162162162211,6.907949790794984,37.12307692307692,-9.595555555555556,-1.0409836065573845,-2.3090909090909193,-1.3368421052631536,6.4141414141414135,8.30548206508707,145.4797629988714,29.882565272208236,1491.7819500242927,63.8631507455867,3044.222869674113,1
-29.299541093032957,42.64575645756459,-20.052631578947366,-126.25073746312685,123.35482230634499,-30.777352297593097,-11.154937261320242,-1.7162162162162211,6.907949790794984,37.12307692307692,-9.595555555555556,-1.0409836065573845,-2.3090909090909193,-1.3368421052631536,6.4141414141414135,8.30548206508707,145.4797629988714,30.665976376514973,1532.1198395971214,62.983041833212944,3129.7133056847697,1
-29.299541093032957,42.64575645756459,-20.052631578947366,-126.25073746312685,123.35482230634499,-30.777352297593097,-11.154937261320242,-34.32432432432433,-6.907949790794974,7.164102564102567,-19.755555555555556,-4.163934426229515,-2.3090909090909193,6.684210526315794,1.282828282828282,10.323999547405244,126.2571696783288,30.665976376514973,1532.1198395971214,62.983041833212944,3129.7133056847697,1
-29.299541093032957,42.64575645756459,-20.052631578947366,-126.25073746312685,123.35482230634499,-30.777352297593097,-11.154937261320242,-1.7162162162162211,2.6569037656903816,41.03076923076924,-15.24,-7.286885245901646,0.7696969696969598,9.357894736842109,8.97979797979798,10.879770518114317,171.53271469297826,30.665976376514973,1532.1198395971214,62.983041833212944,3129.7133056847697,1
-37.22048393825615,45.04100041000411,-19.265001676164932,-125.67273493468186,123.34047121306288,-30.49945295404825,-11.293507910529229,-1.7162162162162211,2.6569037656903816,41.03076923076924,-15.24,-7.286885245901646,0.7696969696969598,9.357894736842109,8.97979797979798,10.879770518114317,171.53271469297826,33.842162008141734,1870.7688424582864,63.32624567361697,3081.4140700667795,1
-37.22048393825615,45.04100041000411,-19.265001676164932,-125.67273493468186,123.34047121306288,-30.49945295404825,-11.293507910529229,-6.86486486486487,-0.5313807531380703,47.54358974358975,-6.20888888888889,4.163934426229501,14.624242424242414,8.021052631578952,19.242424242424242,13.400047246869587,225.09668924932157,33.842162008141734,1870.7688424582864,63.32624567361697,3081.4140700667795,1
-37.22048393825615,45.04100041000411,-19.265001676164932,-125.67273493468186,123.34047121306288,-30.49945295404825,-11.293507910529229,-20.5945945945946,-13.284518828451878,21.492307692307694,-14.111111111111112,-7.105427357601002e-15,-11.545454545454554,-1.3368421052631536,1.282828282828282,10.45595714500141,74.82464444058385,33.842162008141734,1870.7688424582864,63.32624567361697,3081.4140700667795,1
-42.54526491447643,50.35219352193523,-17.732316459939657,-125.24458491361148,123.26871574665235,-32.792122538293256,-9.67685033642482,-20.5945945945946,-13.284518828451878,21.492307692307694,-14.111111111111112,-7.105427357601002e-15,-11.545454545454554,-1.3368421052631536,1.282828282828282,10.45595714500141,74.82464444058385,36.876591632117105,2313.5201157373917,64.44303163182879,3038.6357559930207,1
-42.54526491447643,50.35219352193523,-17.732316459939657,-125.24458491361148,123.26871574665235,-32.792122538293256,-9.67685033642482,-17.16216216216217,-17.53556485355648,13.67692307692308,-12.982222222222223,-7.105427357601002e-15,-6.927272727272737,-1.3368421052631536,11.545454545454545,10.145805211606799,45.31500446735776,36.876591632117105,2313.5201157373917,64.44303163182879,3038.6357559930207,1
-42.54526491447643,50.35219352193523,-17.732316459939657,-125.24458491361148,123.26871574665235,-32.792122538293256,-9.67685033642482,-20.5945945945946,-22.849372384937233,-39.728205128205126,-15.24,-3.1229508196721385,-0.7696969696969798,4.010526315789478,11.545454545454545,14.732600094793764,168.59286863187035,36.876591632117105,2313.5201157373917,64.44303163182879,3038.6357559930207,1
-38.942428035043804,51.39360393603937,-17.796178343949045,-125.48006742520018,123.16825809367761,-35.084792122538374,-7.8754318967085055,-20.5945945945946,-22.849372384937233,-39.728205128205126,-15.24,-3.1229508196721385,-0.7696969696969798,4.010526315789478,11.545454545454545,14.732600094793764,168.59286863187035,36.04407010501074,2232.4980867051477,64.88994990172952,3035.568507735,1
-38.942428035043804,51.39360393603937,-17.796178343949045,-125.48006742520018,123.16825809367761,-35.084792122538374,-7.8754318967085055,-6.86486486486487,-17.53556485355648,-29.307692307692307,-23.142222222222223,-1.0409836065573845,-17.70303030303031,4.010526315789478,3.8484848484848477,12.931671165274738,108.09668783637538,36.04407010501074,2232.4980867051477,64.88994990172952,3035.568507735,1
-38.942428035043804,51.39360393603937,-17.796178343949045,-125.48006742520018,123.16825809367761,-35.084792122538374,-7.8754318967085055,-10.297297297297302,4.782426778242683,39.72820512820513,-36.68888888888889,-6.24590163934427,-0.7696969696969798,9.357894736842109,11.545454545454545,14.926970747996489,218.75236824518768,36.04407010501074,2232.4980867051477,64.88994990172952,3035.568507735,1
-31.392365456821025,48.06109061090612,-20.435802883003685,-126.05806995364519,122.9386406011639,-34.59846827133481,-7.228768867066776,-10.297297297297302,4.782426778242683,39.72820512820513,-36.68888888888889,-6.24590163934427,-0.7696969696969798,9.357894736842109,11.545454545454545,14.926970747996489,218.75236824518768,33.296419650243614,1854.1203938093745,64.85165448251833,3000.458101630497,1
-31.392365456821025,48.06109061090612,-20.435802883003685,-126.05806995364519,122.9386406011639,-34.59846827133481,-7.228768867066776,-17.16216216216217,16.47280334728034,63.17435897435898,-22.013333333333335,15.614754098360649,3.848484848484838,4.440892098500626e-15,-8.97979797979798,18.408211842972285,381.4070833367782,33.296419650243614,1854.1203938093745,64.85165448251833,3000.458101630497,1
-31.392365456821025,48.06109061090612,-20.435802883003685,-126.05806995364519,122.9386406011639,-34.59846827133481,-7.228768867066776,-6.86486486486487,-17.53556485355648,7.164102564102567,-1.6933333333333351,-8.327868852459023,-0.7696969696969798,5.347368421052636,1.282828282828282,6.123203517736772,29.864429656931627,33.296419650243614,1854.1203938093745,64.85165448251833,3000.458101630497,1
-27.97496871088861,46.446904469044696,-22.96899094870935,-126.421997471555,122.5081078027007,-31.95842450765872,-6.997817785051836,-6.86486486486487,-17.53556485355648,7.164102564102567,-1.6933333333333351,-8.327868852459023,-0.7696969696969798,5.347368421052636,1.282828282828282,6.123203517736772,29.864429656931627,32.46362137621421,1730.3735929356794,65.27929762976969,2941.6254137740775,1
-27.97496871088861,46.446904469044696,-22.96899094870935,-126.421997471555,122.5081078027007,-31.95842450765872,-6.997817785051836,10.297297297297291,-0.5313807531380703,14.979487179487183,-22.013333333333335,-13.532786885245908,-22.32121212121213,-1.3368421052631536,3.8484848484848477,11.10760306543274,75.17551782142336,32.46362137621421,1730.3735929356794,65.27929762976969,2941.6254137740775,1
-27.97496871088861,46.446904469044696,-22.96899094870935,-126.421997471555,122.5081078027007,-31.95842450765872,-6.997817785051836,5.148648648648644,7.9707112970711345,47.54358974358975,-7.337777777777779,3.1229508196721234,-0.7696969696969798,13.368421052631582,21.80808080808081,13.3837346396461,233.70489027072634,32.46362137621421,1730.3735929356794,65.27929762976969,2941.6254137740775,1
-30.57113057989153,48.11316113161133,-25.523466309084814,-126.01525495153815,121.73314876546696,-28.62363238512046,-5.935442807783261,5.148648648648644,7.9707112970711345,47.54358974358975,-7.337777777777779,3.1229508196721234,-0.7696969696969798,13.368421052631582,21.80808080808081,13.3837346396461,233.70489027072634,34.735919340195885,1939.8415962619235,66.5506274640781,2779.605019710513,1
-30.57113057989153,48.11316113161133,-25.523466309084814,-126.01525495153815,121.73314876546696,-28.62363238512046,-5.935442807783261,-3.432432432432438,28.163179916317997,65.77948717948718,8.466666666666665,13.532786885245894,6.927272727272717,-1.3368421052631536,24.373737373737374,19.001550660802927,448.86998600288837,34.735919340195885,1939.8415962619235,66.5506274640781,2779.605019710513,1
-30.57113057989153,48.11316113161133,-25.523466309084814,-126.01525495153815,121.73314876546696,-28.62363238512046,-5.935442807783261,15.44594594594594,28.163179916317997,-7.1641025641025635,-23.142222222222223,-26.024590163934434,-5.3878787878787975,-1.3368421052631536,11.545454545454545,14.776277031389956,101.90215133397253,34.735919340195885,1939.8415962619235,66.5506274640781,2779.605019710513,1
-34.09449311639549,50.30012300123002,-28.56754944686557,-124.85924989464814,120.6711678625911,-24.663566739606154,-4.226404800872899,15.44594594594594,28.163179916317997,-7.1641025641025635,-23.142222222222223,-26.024590163934434,-5.3878787878787975,-1.3368421052631536,11.545454545454545,14.776277031389956,101.90215133397253,37.65405518816369,2228.8513488912713,67.90897411424791,2550.5766219216966,1
-34.09449311639549,50.30012300123002,-28.56754944686557,-124.85924989464814,120.6711678625911,-24.663566739606154,-4.226404800872899,-18.878378378378386,-17.53556485355648,-17.584615384615383,-31.044444444444444,-27.06557377049181,-30.018181818181827,-6.684210526315784,8.97979797979798,19.72384589447276,83.36808919738999,37.65405518816369,2228.8513488912713,67.90897411424791,2550.5766219216966,1
-34.09449311639549,50.30012300123002,-28.56754944686557,-124.85924989464814,120.6711678625911,-24.663566739606154,-4.226404800872899,-15.445945945945951,-4.782426778242673,-12.37435897435897,-11.853333333333335,8.327868852459009,-26.93939393939395,-17.37894736842105,1.282828282828282,12.298137934372901,63.41133649314819,37.65405518816369,2228.8513488912713,67.90897411424791,2550.5766219216966,1
-35.207133917396746,51.02911029110292,-32.10124036205163,-123.14664981036664,119.3365161873552,-19.52242888402634,-2.240225495544678,-15.445945945945951,-4.782426778242673,-12.37435897435897,-11.853333333333335,8.327868852459009,-26.93939393939395,-17.37894736842105,1.282828282828282,12.298137934372901,63.41133649314819,39.44582819018377,2392.831931613593,68.75900015450706,2308.078391329163,1
-35.207133917396746,51.02911029110292,-32.10124036205163,-123.14664981036664,119.3365161873552,-19.52242888402634,-2.240225495544678,-22.310810810810814,-38.79079497907949,31.912820512820517,-3.9511111111111124,7.286885245901631,-8.466666666666676,-6.684210526315784,-1.2828282828282838,15.08576601694179,198.14317364171538,39.44582819018377,2392.831931613593,68.75900015450706,2308.078391329163,1
-35.207133917396746,51.02911029110292,-32.10124036205163,-123.14664981036664,119.3365161873552,-19.52242888402634,-2.240225495544678,-15.445945945945951,-12.221757322175726,33.21538461538462,-0.5644444444444456,19.778688524590155,11.545454545454534,40.10526315789474,16.676767676767675,18.69421327908223,158.11154905975738,39.44582819018377,2392.831931613593,68.75900015450706,2308.078391329163,1
-31.630788485607006,51.02911029110292,-43.06419711699631,-120.40648967551624,117.22690547488558,-8.892778993435513,-0.9468994362611625,-15.445945945945951,-12.221757322175726,33.21538461538462,-0.5644444444444456,19.778688524590155,11.545454545454534,40.10526315789474,16.676767676767675,18.69421327908223,158.11154905975738,41.90803196456874,2636.155366283887,71.49993236120515,1809.7484717212606,1
-31.630788485607006,51.02911029110292,-43.06419711699631,-120.40648967551624,117.22690547488558,-8.892778993435513,-0.9468994362611625,-20.5945945945946,1.594142259414231,68.38461538461539,-16.36888888888889,-8.327868852459023,2.309090909090899,32.08421052631579,19.242424242424242,21.113229457225383,468.4685503117881,41.90803196456874,2636.155366283887,71.49993236120515,1809.7484717212606,1
-31.630788485607006,51.02911029110292,-43.06419711699631,-120.40648967551624,117.22690547488558,-8.892778993435513,-0.9468994362611625,-5.1486486486486545,-29.225941422594136,37.12307692307692,-2.822222222222223,4.163934426229501,2.309090909090899,12.031578947368425,6.4141414141414135,12.404829364171523,177.75486197121126,41.90803196456874,2636.155366283887,71.49993236120515,1809.7484717212606,1
-25.723195661243217,47.28003280032801,-49.876131411330874,-117.0455120101138,114.65805977738854,6.11378555798683,-1.0392798690671157,-5.1486486486486545,-29.225941422594136,37.12307692307692,-2.822222222222223,4.163934426229501,2.309090909090899,12.031578947368425,6.4141414141414135,12.404829364171523,177.75486197121126,40.9597866243007,2558.692652580509,71.4005587405909,1564.2812512322098,1
-25.723195661243217,47.28003280032801,-49.876131411330874,-117.0455120101138,114.65805977738854,6.11378555798683,-1.0392798690671157,-46.337837837837846,-17.53556485355648,68.38461538461539,-15.24,-44.76229508196722,-0.7696969696969798,9.357894736842109,-3.8484848484848495,25.77954871412511,593.3371343220462,40.9597866243007,2558.692652580509,71.4005587405909,1564.2812512322098,1
-25.723195661243217,47.28003280032801,-49.876131411330874,-117.0455120101138,114.65805977738854,6.11378555798683,-1.0392798690671157,18.878378378378372,105.74476987447699,48.846153846153854,-23.142222222222223,12.491803278688515,6.927272727272717,-1.3368421052631536,34.63636363636364,31.500475758602434,1132.4451465940083,40.9597866243007,2558.692652580509,71.4005587405909,1564.2812512322098,1
-39.92261159783062,53.32021320213203,-48.44988266845458,-112.2502317741256,111.68738346799255,16.882385120350023,2.147845062738668,18.878378378378372,105.74476987447699,48.846153846153854,-23.142222222222223,12.491803278688515,6.927272727272717,-1.3368421052631536,34.63636363636364,31.500475758602434,1132.4451465940083,47.230902489472406,3187.348523682803,71.34010921490407,1261.1586257347121,1
-39.92261159783062,53.32021320213203,-48.44988266845458,-112.2502317741256,111.68738346799255,16.882385120350023,2.147845062738668,17.162162162162158,20.723849372384944,20.189743589743593,-16.36888888888889,-1.0409836065573845,-28.478787878787887,-13.368421052631575,16.676767676767675,16.751200528490514,60.53093241426707,47.230902489472406,3187.348523682803,71.34010921490407,1261.1586257347121,1
-39.92261159783062,53.32021320213203,-48.44988266845458,-112.2502317741256,111.68738346799255,16.882385120350023,2.147845062738668,-6.86486486486487,-24.974895397489533,-4.558974358974357,-10.724444444444446,-24.983606557377055,-17.70303030303031,-2.673684210526311,11.545454545454545,13.003619335270178,75.9915407836942,47.230902489472406,3187.348523682803,71.34010921490407,1261.1586257347121,1
-54.94326241134752,60.870438704387055,-53.51625879986591,-105.44264643910662,107.91304593479857,26.192013129102747,7.967812329514459,-6.86486486486487,-24.974895397489533,-4.558974358974357,-10.724444444444446,-24.983606557377055,-17.70303030303031,-2.673684210526311,11.545454545454545,13.003619335270178,75.9915407836942,56.44331997186683,4416.527711893559,73.27644798111986,789.519232945958,1
-54.94326241134752,60.870438704387055,-53.51625879986591,-105.44264643910662,107.91304593479857,26.192013129102747,7.967812329514459,-5.1486486486486545,13.284518828451887,-4.558974358974357,-0.5644444444444456,-2.0819672131147615,10.006060606060595,16.0421052631579,29.505050505050505,10.148971233487888,90.34713061007412,56.44331997186683,4416.527711893559,73.27644798111986,789.519232945958,1
-54.94326241134752,60.870438704387055,-53.51625879986591,-105.44264643910662,107.91304593479857,26.192013129102747,7.967812329514459,-36.04054054054055,-20.723849372384933,77.50256410256411,-23.142222222222223,-8.327868852459023,-0.7696969696969798,12.031578947368425,-6.414141414141415,23.11905780267221,607.2182361069018,56.44331997186683,4416.527711893559,73.27644798111986,789.519232945958,1
-66.67897371714643,59.360393603936046,-59.66828695943681,-98.65646860514119,104.45443245381095,32.93107221006562,13.41825786506638,-36.04054054054055,-20.723849372384933,77.50256410256411,-23.142222222222223,-8.327868852459023,-0.7696969696969798,12.031578947368425,-6.414141414141415,23.11905780267221,607.2182361069018,61.90255142683977,5017.149773361823,72.56171638950468,510.72576947619007,1
-66.67897371714643,59.360393603936046,-59.66828695943681,-98.65646860514119,104.45443245381095,32.93107221006562,13.41825786506638,-20.5945945945946,-29.225941422594136,72.2923076923077,24.27111111111111,38.51639344262294,22.32121212121211,16.0421052631579,1.282828282828282,28.0683117413036,433.0943480869038,61.90255142683977,5017.149773361823,72.56171638950468,510.72576947619007,1
-66.67897371714643,59.360393603936046,-59.66828695943681,-98.65646860514119,104.45443245381095,32.93107221006562,13.41825786506638,-37.75675675675676,-48.355648535564846,-4.558974358974357,-23.142222222222223,-19.77868852459017,-2.3090909090909193,8.021052631578952,1.282828282828282,18.150657777700815,306.7326364096815,61.90255142683977,5017.149773361823,72.56171638950468,510.72576947619007,1
-75.15623696287025,56.079950799508005,-67.94904458598725,-90.30754319426887,100.37872196169273,39.53118161925602,19.330605564648124,-37.75675675675676,-48.355648535564846,-4.558974358974357,-23.142222222222223,-19.77868852459017,-2.3090909090909193,8.021052631578952,1.282828282828282,18.150657777700815,306.7326364096815,66.39507744945517,5443.012049449134,71.44551285992138,302.05098807844394,1
-75.15623696287025,56.079950799508005,-67.94904458598725,-90.30754319426887,100.37872196169273,39.53118161925602,19.330605564648124,-6.86486486486487,40.91631799163181,30.61025641025641,-33.30222222222223,-24.983606557377055,-23.86060606060607,-9.3578947368421,-8.97979797979798,22.359445852949815,161.3506832991704,66.39507744945517,5443.012049449134,71.44551285992138,302.05098807844394,1
-75.15623696287025,56.079950799508005,-67.94904458598725,-90.30754319426887,100.37872196169273,39.53118161925602,19.330605564648124,-3.432432432432438,14.347280334728039,56.66153846153846,-23.142222222222223,-16.65573770491804,-2.3090909090909193,4.010526315789478,1.282828282828282,15.230207082943485,344.0743203367443,66.39507744945517,5443.012049449134,71.44551285992138,302.05098807844394,1
-83.3685857321652,70.71176711767119,-72.93027153871941,-81.53046776232618,95.39889259280186,45.15864332603928,27.182942353155113,-3.432432432432438,14.347280334728039,56.66153846153846,-23.142222222222223,-16.65573770491804,-2.3090909090909193,4.010526315789478,1.282828282828282,15.230207082943485,344.0743203367443,75.6702081295186,7413.791467815865,75.05750213957226,32.65490343156819,1
-83.3685857321652,70.71176711767119,-72.93027153871941,-81.53046776232618,95.39889259280186,45.15864332603928,27.182942353155113,-6.86486486486487,-3.719665271966522,13.67692307692308,-23.142222222222223,-10.409836065573778,-2.3090909090909193,6.684210526315794,8.97979797979798,9.473326364594396,43.52052630840351,75.6702081295186,7413.791467815865,75.05750213957226,32.65490343156819,1
-83.3685857321652,70.71176711767119,-72.93027153871941,-81.53046776232618,95.39889259280186,45.15864332603928,27.182942353155113,10.297297297297291,16.47280334728034,-63.17435897435897,-41.20444444444445,-24.983606557377055,-20.781818181818192,8.021052631578952,14.11111111111111,24.880811568158293,347.6114981266606,75.6702081295186,7413.791467815865,75.05750213957226,32.65490343156819,1
-88.71985815602837,81.59450594505947,-79.50804559168623,-72.23961230509903,89.45753997400982,51.06400437636751,35.77432260410984,10.297297297297291,16.47280334728034,-63.17435897435897,-41.20444444444445,-24.983606557377055,-20.781818181818192,8.021052631578952,14.11111111111111,24.880811568158293,347.6114981266606,83.27413656425803,9174.312036921381,77.78072128061491,24.116245710456568,1
-88.71985815602837,81.59450594505947,-79.50804559168623,-72.23961230509903,89.45753997400982,51.06400437636751,35.77432260410984,32.608108108108105,-10.096234309623426,-1.9538461538461505,-44.59111111111111,-14.573770491803286,-10.006060606060615,-1.3368421052631536,11.545454545454545,15.838928428908797,228.29069128685023,83.27413656425803,9174.312036921381,77.78072128061491,24.116245710456568,1
-88.71985815602837,81.59450594505947,-79.50804559168623,-72.23961230509903,89.45753997400982,51.06400437636751,35.77432260410984,-15.445945945945951,-26.037656903765686,59.26666666666667,-15.24,-1.0409836065573845,-3.8484848484848584,1.3368421052631625,11.545454545454545,16.720254327767282,367.96801609614505,83.27413656425803,9174.312036921381,77.78072128061491,24.116245710456568,1
-94.60095953274927,80.24067240672409,-91.23734495474355,-61.49304677623263,82.56901519859879,57.80306345733038,43.58046917621385,-15.445945945945951,-26.037656903765686,59.26666666666667,-15.24,-1.0409836065573845,-3.8484848484848584,1.3368421052631625,11.545454545454545,16.720254327767282,367.96801609614505,88.6929922980723,9997.603433417908,77.65702137923343,226.18725800693215,1
-94.60095953274927,80.24067240672409,-91.23734495474355,-61.49304677623263,82.56901519859879,57.80306345733038,43.58046917621385,-44.62162162162163,-11.158995815899576,47.54358974358975,-19.755555555555556,-14.573770491803286,-10.006060606060615,4.010526315789478,-11.545454545454547,20.401946836971803,271.18137200851004,88.6929922980723,9997.603433417908,77.65702137923343,226.18725800693215,1
-94.60095953274927,80.24067240672409,-91.23734495474355,-61.49304677623263,82.56901519859879,57.80306345733038,43.58046917621385,-5.329070518200751e-15,-1.594142259414221,28.00512820512821,-3.9511111111111124,-7.105427357601002e-15,-2.3090909090909193,5.347368421052636,14.11111111111111,6.914744002113528,93.28285772431202,88.6929922980723,9997.603433417908,77.65702137923343,226.18725800693215,1
-101.64768460575719,82.06314063140633,-96.87847804223937,-50.018626211546575,74.97728685236453,62.944201312910195,51.10947444989995,-5.329070518200751e-15,-1.594142259414221,28.00512820512821,-3.9511111111111124,-7.105427357601002e-15,-2.3090909090909193,5.347368421052636,14.11111111111111,6.914744002113528,93.28285772431202,93.52976775980096,10965.419255684927,76.32008162839742,573.6984734326518,1
-101.64768460575719,82.06314063140633,-96.87847804223937,-50.018626211546575,74.97728685236453,62.944201312910195,51.10947444989995,-5.1486486486486545,-9.033472803347275,20.189743589743593,-7.337777777777779,-13.532786885245908,-3.8484848484848584,13.368421052631582,6.4141414141414135,9.859184627502632,29.96511694425186,93.52976775980096,10965.419255684927,76.32008162839742,573.6984734326518,1
-101.64768460575719,82.06314063140633,-96.87847804223937,-50.018626211546575,74.97728685236453,62.944201312910195,51.10947444989995,3.432432432432428,14.347280334728039,16.282051282051285,-27.657777777777778,-9.3688524590164,-3.8484848484848584,-2.673684210526311,-1.2828282828282838,9.861673953480674,83.00621047619688,93.52976775980096,10965.419255684927,76.32008162839742,573.6984734326518,1
-102.81330830204422,89.19680196801968,-103.62655045256453,-38.39435313948589,66.5101418159218,68.50218818380733,57.57610474631747,3.432432432432428,14.347280334728039,16.282051282051285,-27.657777777777778,-9.3688524590164,-3.8484848484848584,-2.673684210526311,-1.2828282828282838,9.861673953480674,83.00621047619688,98.54555357420948,12341.564841238382,77.07256852002337,1174.0576690992407,1
-102.81330830204422,89.19680196801968,-103.62655045256453,-38.39435313948589,66.5101418159218,68.50218818380733,57.57610474631747,17.162162162162158,44.10460251046025,44.93846153846154,-17.497777777777777,-8.327868852459023,-2.3090909090909193,4.010526315789478,14.11111111111111,19.05770014716403,278.53127495236674,98.54555357420948,12341.564841238382,77.07256852002337,1174.0576690992407,1
-102.81330830204422,89.19680196801968,-103.62655045256453,-38.39435313948589,66.5101418159218,68.50218818380733,57.57610474631747,-8.581081081081086,-14.347280334728028,65.77948717948718,-11.853333333333335,-1.0409836065573845,-6.927272727272737,1.3368421052631625,-6.414141414141415,14.53505272273304,449.8255571731291,98.54555357420948,12341.564841238382,77.07256852002337,1174.0576690992407,1
-103.07822277847309,90.0820008200082,-111.63057324840764,-26.36333754740835,57.32544211537375,74.40754923413567,61.964175304600815,-8.581081081081086,-14.347280334728028,65.77948717948718,-11.853333333333335,-1.0409836065573845,-6.927272727272737,1.3368421052631625,-6.414141414141415,14.53505272273304,449.8255571731291,101.59693228229632,13011.996202747005,76.0253038719414,1965.818417839785,1
-103.07822277847309,90.0820008200082,-111.63057324840764,-26.36333754740835,57.32544211537375,74.40754923413567,61.964175304600815,25.743243243243235,13.284518828451887,22.7948717948718,-19.755555555555556,-7.286885245901646,0.7696969696969598,10.694736842105268,16.676767676767675,14.625784519574253,69.13652748746982,101.59693228229632,13011.996202747005,76.0253038719414,1965.818417839785,1
-103.07822277847309,90.0820008200082,-111.63057324840764,-26.36333754740835,57.32544211537375,74.40754923413567,61.964175304600815,-12.01351351351352,3.719665271966532,42.333333333333336,-41.20444444444445,-15.614754098360663,-13.084848484848495,-2.673684210526311,-3.8484848484848495,16.81159102568477,260.576322221791,101.59693228229632,13011.996202747005,76.0253038719414,1965.818417839785,1
-108.87984981226533,80.55309553095532,-113.63157894736842,-13.818541930046365,47.9398271088762,76.35284463894959,65.19749045280957,-12.01351351351352,3.719665271966532,42.333333333333336,-41.20444444444445,-15.614754098360663,-13.084848484848495,-2.673684210526311,-3.8484848484848495,16.81159102568477,260.576322221791,101.02150809686303,12269.18458557226,69.33440546945671,2585.054844677302,1
-108.87984981226533,80.55309553095532,-113.63157894736842,-13.818541930046365,47.9398271088762,76.35284463894959,65.19749045280957,-24.02702702702703,-0.5313807531380703,-11.071794871794872,-31.044444444444444,-7.286885245901646,-2.3090909090909193,6.684210526315794,1.282828282828282,10.529707757567632,125.95421690115349,101.02150809686303,12269.18458557226,69.33440546945671,2585.054844677302,1
-108.87984981226533,80.55309553095532,-113.63157894736842,-13.818541930046365,47.9398271088762,76.35284463894959,65.19749045280957,5.148648648648644,11.158995815899587,13.67692307692308,-19.755555555555556,-6.24590163934427,-0.7696969696969798,6.684210526315794,29.505050505050505,11.618122842179302,86.19373429409677,101.02150809686303,12269.18458557226,69.33440546945671,2585.054844677302,1
-110.17793074676679,72.63837638376384,-114.75980556486759,-1.0596713021491837,38.396350076275496,75.44967177242881,66.767957810511,5.148648648648644,11.158995815899587,13.67692307692308,-19.755555555555556,-6.24590163934427,-0.7696969696969798,6.684210526315794,29.505050505050505,11.618122842179302,86.19373429409677,99.19203756513274,11426.812387890937,62.81928441692687,3304.24105812995,1
