Gyro 0,Gyro 1,Gyro 2,Orientation 0,Orientation 1,Orientation 2,Orientation 3,Sensor 0,Sensor 1,Sensor 2,Sensor 3,Sensor 4,Sensor 5,Sensor 6,Sensor 7,Sensor Mean,Sensor Variance,Gyro Mean,Gyro Variance,Orientation Mean,Orientation Variance,Label
-19.571465696465694,25.939542483660137,1.7607382835757495,-120.50612369871402,114.39486941919046,73.24533429969199,-2.469104908565896,1.8676470588235379,-40.945355191256844,16.43529411764707,-15.184782608695663,5.468899521531101,-12.574257425742573,-13.194805194805198,-52.916666666666664,19.823463473146084,314.1780581910837,15.757248821233858,518.4882274605992,49.40213482198331,3937.986568773189,1
-19.571465696465694,25.939542483660137,1.7607382835757495,-120.50612369871402,114.39486941919046,73.24533429969199,-2.469104908565896,-11.205882352941169,-10.409836065573785,1.4210854715202004e-14,-16.56521739130436,11.545454545454547,-11.316831683168315,-1.6493506493506538,-55.03333333333333,14.715738252640772,295.5250900325689,15.757248821233858,518.4882274605992,49.40213482198331,3937.986568773189,1
-19.571465696465694,25.939542483660137,1.7607382835757495,-120.50612369871402,114.39486941919046,73.24533429969199,-2.469104908565896,-7.470588235294109,7.633879781420751,43.329411764705895,-24.84782608695653,-0.6076555023923431,-16.346534653465344,-3.298701298701303,-61.38333333333333,20.614741332033702,465.0815992119996,15.757248821233858,518.4882274605992,49.40213482198331,3937.986568773189,1
-18.746361746361746,18.57271241830066,1.7391341328570284,-121.47826086956522,115.27737564421795,69.33339373074836,-1.0512030798844876,-7.470588235294109,7.633879781420751,43.329411764705895,-24.84782608695653,-0.6076555023923431,-16.346534653465344,-3.298701298701303,-61.38333333333333,20.614741332033702,465.0815992119996,13.019402765839814,349.2896993028703,47.26336914024097,4201.72995526953,1
-18.746361746361746,18.57271241830066,1.7391341328570284,-121.47826086956522,115.27737564421795,69.33339373074836,-1.0512030798844876,-5.60294117647058,10.409836065573757,23.90588235294119,-11.043478260869575,-3.038277511961721,-13.83168316831683,-8.24675324675325,-69.85,18.241106472860864,474.1259379567611,13.019402765839814,349.2896993028703,47.26336914024097,4201.72995526953,1
-18.746361746361746,18.57271241830066,1.7391341328570284,-121.47826086956522,115.27737564421795,69.33339373074836,-1.0512030798844876,9.338235294117656,50.661202185792334,55.282352941176484,-9.66304347826088,5.468899521531101,-10.059405940594058,-6.597402597402602,-61.38333333333333,26.056734411526055,616.3122253926767,13.019402765839814,349.2896993028703,47.26336914024097,4201.72995526953,1
-15.974012474012472,11.413398692810464,0.8533639533894775,-122.31429883649724,116.17459030632926,66.20384127559345,-0.6600577478344576,9.338235294117656,50.661202185792334,55.282352941176484,-9.66304347826088,5.468899521531101,-10.059405940594058,-6.597402597402602,-61.38333333333333,26.056734411526055,616.3122253926767,9.41359170673747,190.79087025797975,44.860353827565724,4527.213781509386,1
-15.974012474012472,11.413398692810464,0.8533639533894775,-122.31429883649724,116.17459030632926,66.20384127559345,-0.6600577478344576,-14.941176470588227,46.497267759562824,13.447058823529424,-30.36956521739131,1.8229665071770347,-18.86138613861386,-11.54545454545455,-71.96666666666667,26.181442766122988,525.1712441612641,9.41359170673747,190.79087025797975,44.860353827565724,4527.213781509386,1
-15.974012474012472,11.413398692810464,0.8533639533894775,-122.31429883649724,116.17459030632926,66.20384127559345,-0.6600577478344576,5.602941176470598,0.6939890710382373,19.42352941176472,-17.945652173913054,7.899521531100479,-10.059405940594058,1.6493506493506445,-52.916666666666664,14.523882077612306,287.162478507567,9.41359170673747,190.79087025797975,44.860353827565724,4527.213781509386,1
-16.304054054054053,9.234477124183012,-0.054010376796794546,-122.81981016533987,117.01297122010538,63.48849429244427,-0.6111645813281825,5.602941176470598,0.6939890710382373,19.42352941176472,-17.945652173913054,7.899521531100479,-10.059405940594058,1.6493506493506445,-52.916666666666664,14.523882077612306,287.162478507567,8.530847185011288,167.09274905173558,44.03609922210655,4676.225074915172,1
-16.304054054054053,9.234477124183012,-0.054010376796794546,-122.81981016533987,117.01297122010538,63.48849429244427,-0.6111645813281825,-31.749999999999993,-13.185792349726789,32.87058823529413,-19.32608695652175,1.8229665071770347,-8.801980198019802,1.6493506493506445,-61.38333333333333,21.348762278677935,405.88223602737736,8.530847185011288,167.09274905173558,44.03609922210655,4676.225074915172,1
-16.304054054054053,9.234477124183012,-0.054010376796794546,-122.81981016533987,117.01297122010538,63.48849429244427,-0.6111645813281825,-22.411764705882344,-0.6939890710382652,-19.42352941176469,-24.84782608695653,-0.6076555023923431,-12.574257425742573,-8.24675324675325,-61.38333333333333,18.773638597982917,381.75206710012344,8.530847185011288,167.09274905173558,44.03609922210655,4676.225074915172,1
-18.449324324324323,6.329248366013079,-0.4644892404524894,-123.11145131659522,117.91018588221667,60.7271244790723,-0.7089509143406758,-22.411764705882344,-0.6939890710382652,-19.42352941176469,-24.84782608695653,-0.6076555023923431,-12.574257425742573,-8.24675324675325,-61.38333333333333,18.773638597982917,381.75206710012344,8.414353976929965,163.9311380383177,43.301729641020266,4785.792605349767,1
-18.449324324324323,6.329248366013079,-0.4644892404524894,-123.11145131659522,117.91018588221667,60.7271244790723,-0.7089509143406758,-7.470588235294109,25.677595628415286,1.494117647058836,-27.60869565217392,-9.114832535885165,-16.346534653465344,-4.948051948051953,-61.38333333333333,19.255468704209743,379.4460950529779,8.414353976929965,163.9311380383177,43.301729641020266,4785.792605349767,1
-18.449324324324323,6.329248366013079,-0.4644892404524894,-123.11145131659522,117.91018588221667,60.7271244790723,-0.7089509143406758,-1.867647058823521,20.125683060109274,41.835294117647074,-13.804347826086968,12.760765550239235,-8.801980198019802,-9.8961038961039,-59.266666666666666,21.044811046712056,379.5704491408836,8.414353976929965,163.9311380383177,43.301729641020266,4785.792605349767,1
-19.472453222453222,4.772875816993469,-0.7669473505145801,-123.30587875076547,118.80740054432798,57.87370900525457,-0.7089509143406758,-1.867647058823521,20.125683060109274,41.835294117647074,-13.804347826086968,12.760765550239235,-8.801980198019802,-9.8961038961039,-59.266666666666666,21.044811046712056,379.5704491408836,8.337425463320423,161.4035951472378,42.94856730609118,4846.984992681923,1
-19.472453222453222,4.772875816993469,-0.7669473505145801,-123.30587875076547,118.80740054432798,57.87370900525457,-0.7089509143406758,-3.7352941176470504,-49.273224043715864,-1.4941176470588111,-27.60869565217392,-9.114832535885165,-13.83168316831683,-6.597402597402602,-59.266666666666666,21.365239553608365,483.5638476766457,8.337425463320423,161.4035951472378,42.94856730609118,4846.984992681923,1
-19.472453222453222,4.772875816993469,-0.7669473505145801,-123.30587875076547,118.80740054432798,57.87370900525457,-0.7089509143406758,-1.867647058823521,-4.857923497267773,-19.42352941176469,-19.32608695652175,0.6076555023923458,-15.089108910891088,-13.194805194805198,-61.38333333333333,16.968761233224964,377.7735348507243,8.337425463320423,161.4035951472378,42.94856730609118,4846.984992681923,1
-17.921257796257795,5.706699346405234,-0.74534319979586,-123.59751990202082,119.67519833227169,55.15836202210545,-0.8556304138594442,-1.867647058823521,-4.857923497267773,-19.42352941176469,-19.32608695652175,0.6076555023923458,-15.089108910891088,-13.194805194805198,-61.38333333333333,16.968761233224964,377.7735348507243,8.124433447486297,149.153542329744,43.3498541494073,4835.91965776076,1
-17.921257796257795,5.706699346405234,-0.74534319979586,-123.59751990202082,119.67519833227169,55.15836202210545,-0.8556304138594442,-24.279411764705873,2.0819672131147398,16.43529411764707,-13.804347826086968,10.330143540669857,-8.801980198019802,-6.597402597402602,-61.38333333333333,17.96423507387253,352.63135050849496,8.124433447486297,149.153542329744,43.3498541494073,4835.91965776076,1
-17.921257796257795,5.706699346405234,-0.74534319979586,-123.59751990202082,119.67519833227169,55.15836202210545,-0.8556304138594442,1.8676470588235379,3.4699453551912427,4.482352941176483,-28.989130434782616,4.2535885167464125,-11.316831683168315,-4.948051948051953,-52.916666666666664,14.030526825575903,324.56640819135845,8.124433447486297,149.153542329744,43.3498541494073,4835.91965776076,1
-16.17203742203742,1.9714052287581758,-1.4798843242323656,-123.8308328230251,120.49887080896403,52.85722051096212,-1.3445620789220243,1.8676470588235379,3.4699453551912427,4.482352941176483,-28.989130434782616,4.2535885167464125,-11.316831683168315,-4.948051948051953,-52.916666666666664,14.030526825575903,324.56640819135845,6.541108991675987,92.82587890843884,42.42737412533855,4969.952714159366,1
-16.17203742203742,1.9714052287581758,-1.4798843242323656,-123.8308328230251,120.49887080896403,52.85722051096212,-1.3445620789220243,13.073529411764714,13.185792349726762,32.87058823529413,-22.08695652173914,4.2535885167464125,-13.83168316831683,-1.6493506493506538,-63.5,20.55643610661733,396.7048313367609,6.541108991675987,92.82587890843884,42.42737412533855,4969.952714159366,1
-16.17203742203742,1.9714052287581758,-1.4798843242323656,-123.8308328230251,120.49887080896403,52.85722051096212,-1.3445620789220243,3.735294117647067,28.45355191256829,-4.482352941176458,-22.08695652173914,7.899521531100479,-8.801980198019802,-6.597402597402602,-59.266666666666666,17.665465810790064,361.55335871544565,6.541108991675987,92.82587890843884,42.42737412533855,4969.952714159366,1
-16.865124740124738,0.31127450980392624,-2.603300161605845,-123.85027556644214,121.24900110023742,50.78619315093317,-1.8823869104908226,3.735294117647067,28.45355191256829,-4.482352941176458,-22.08695652173914,7.899521531100479,-8.801980198019802,-6.597402597402602,-59.266666666666666,17.665465810790064,361.55335871544565,6.59323313717817,84.48717950276983,42.254950079283965,4994.661201413592,1
-16.865124740124738,0.31127450980392624,-2.603300161605845,-123.85027556644214,121.24900110023742,50.78619315093317,-1.8823869104908226,-7.470588235294109,7.633879781420751,25.400000000000013,-20.706521739130444,-6.684210526315788,-15.089108910891088,-4.440892098500626e-15,-59.266666666666666,17.781371982464858,349.06942726627324,6.59323313717817,84.48717950276983,42.254950079283965,4994.661201413592,1
-16.865124740124738,0.31127450980392624,-2.603300161605845,-123.85027556644214,121.24900110023742,50.78619315093317,-1.8823869104908226,-13.073529411764698,-35.393442622950836,59.764705882352956,-20.706521739130444,1.8229665071770347,-13.83168316831683,-6.597402597402602,-63.5,26.836281491136923,561.8742023909316,6.59323313717817,84.48717950276983,42.254950079283965,4994.661201413592,1
-17.294178794178794,-3.112745098039209,-2.7761333673556114,-123.77250459277404,122.05796513984595,48.76118862112702,-2.6157844080846644,-13.073529411764698,-35.393442622950836,59.764705882352956,-20.706521739130444,1.8229665071770347,-13.83168316831683,-6.597402597402602,-63.5,26.836281491136923,561.8742023909316,7.7276857531912055,68.66666869175643,43.220461019389624,4866.502119750626,1
-17.294178794178794,-3.112745098039209,-2.7761333673556114,-123.77250459277404,122.05796513984595,48.76118862112702,-2.6157844080846644,18.676470588235304,10.409836065573757,17.929411764705897,-26.228260869565226,-9.114832535885165,-15.089108910891088,-4.440892098500626e-15,-52.916666666666664,18.79557342519039,250.18672327928124,7.7276857531912055,68.66666869175643,43.220461019389624,4866.502119750626,1
-17.294178794178794,-3.112745098039209,-2.7761333673556114,-123.77250459277404,122.05796513984595,48.76118862112702,-2.6157844080846644,-18.676470588235286,-18.7377049180328,-20.91764705882352,-22.08695652173914,-1.822966507177032,-13.83168316831683,-1.6493506493506538,-61.38333333333333,19.888264093126075,346.603141689483,7.7276857531912055,68.66666869175643,43.220461019389624,4866.502119750626,1
-18.911382536382536,-1.8676470588235254,-2.2360295993875923,-123.69473361910595,122.91105449070588,46.32197861931513,-3.1047160731472445,-18.676470588235286,-18.7377049180328,-20.91764705882352,-22.08695652173914,-1.822966507177032,-13.83168316831683,-1.6493506493506538,-61.38333333333333,19.888264093126075,346.603141689483,7.671686398197885,94.78200338309034,42.59947009243902,4932.365251268714,1
-18.911382536382536,-1.8676470588235254,-2.2360295993875923,-123.69473361910595,122.91105449070588,46.32197861931513,-3.1047160731472445,8.881784197001252e-15,14.573770491803264,32.87058823529413,-20.706521739130444,12.760765550239235,-16.346534653465344,-3.298701298701303,-55.03333333333333,19.448776912745885,309.31236474885475,7.671686398197885,94.78200338309034,42.59947009243902,4932.365251268714,1
-18.911382536382536,-1.8676470588235254,-2.2360295993875923,-123.69473361910595,122.91105449070588,46.32197861931513,-3.1047160731472445,-9.338235294117638,-9.021857923497281,2.9882352941176578,-17.945652173913054,11.545454545454547,-10.059405940594058,-3.298701298701303,-65.61666666666666,16.226776142132774,420.57485320376475,7.671686398197885,94.78200338309034,42.59947009243902,4932.365251268714,1
-20.198544698544698,3.216503267973863,-2.128008845793988,-123.71417636252296,123.73472696739822,43.69867729661172,-3.349181905678506,-9.338235294117638,-9.021857923497281,2.9882352941176578,-17.945652173913054,11.545454545454547,-10.059405940594058,-3.298701298701303,-65.61666666666666,16.226776142132774,420.57485320376475,8.51435227077085,150.56209116902085,43.01956282543028,4884.011695452337,1
-20.198544698544698,3.216503267973863,-2.128008845793988,-123.71417636252296,123.73472696739822,43.69867729661172,-3.349181905678506,-22.411764705882344,-43.72131147540985,-34.36470588235293,-23.467391304347835,7.899521531100479,-7.544554455445543,-4.948051948051953,-63.5,25.982162662823868,417.2807838151794,8.51435227077085,150.56209116902085,43.01956282543028,4884.011695452337,1
-20.198544698544698,3.216503267973863,-2.128008845793988,-123.71417636252296,123.73472696739822,43.69867729661172,-3.349181905678506,-14.941176470588227,53.43715846994534,25.400000000000013,-28.989130434782616,-7.899521531100476,-21.376237623762375,-14.844155844155848,-69.85,29.59217254679186,453.92033897325643,8.51435227077085,150.56209116902085,43.01956282543028,4884.011695452337,1
-18.97739085239085,2.2826797385620985,-2.8409458195117736,-123.73361910594,124.54369100700677,41.35151295524554,-3.8381135707410863,-14.941176470588227,53.43715846994534,25.400000000000013,-28.989130434782616,-7.899521531100476,-21.376237623762375,-14.844155844155848,-69.85,29.59217254679186,453.92033897325643,8.033672136821574,123.10449978179636,42.952414888004625,4894.280131429119,1
-18.97739085239085,2.2826797385620985,-2.8409458195117736,-123.73361910594,124.54369100700677,41.35151295524554,-3.8381135707410863,-5.60294117647058,7.633879781420751,35.85882352941178,-26.228260869565226,10.330143540669857,-12.574257425742573,3.2987012987012942,-61.38333333333333,20.363792619414426,398.5132030680496,8.033672136821574,123.10449978179636,42.952414888004625,4894.280131429119,1
-18.97739085239085,2.2826797385620985,-2.8409458195117736,-123.73361910594,124.54369100700677,41.35151295524554,-3.8381135707410863,-9.338235294117638,3.4699453551912427,43.329411764705895,-19.32608695652175,-7.899521531100476,-23.89108910891089,-21.441558441558445,-78.31666666666666,25.87656438984662,602.833332648364,8.033672136821574,123.10449978179636,42.952414888004625,4894.280131429119,1
-14.719854469854468,3.9428104575163445,-4.15879901335374,-123.88916105327618,125.17615380160981,39.970828048559554,-4.864870067372465,-9.338235294117638,3.4699453551912427,43.329411764705895,-19.32608695652175,-7.899521531100476,-23.89108910891089,-21.441558441558445,-78.31666666666666,25.87656438984662,602.833332648364,7.607154646908184,87.57783842751537,43.99692350804875,4787.088877751348,1
-14.719854469854468,3.9428104575163445,-4.15879901335374,-123.88916105327618,125.17615380160981,39.970828048559554,-4.864870067372465,-18.676470588235286,-4.857923497267773,17.929411764705897,-19.32608695652175,5.468899521531101,-16.346534653465344,-14.844155844155848,-67.73333333333333,20.647852019902043,394.5675053793332,7.607154646908184,87.57783842751537,43.99692350804875,4787.088877751348,1
-14.719854469854468,3.9428104575163445,-4.15879901335374,-123.88916105327618,125.17615380160981,39.970828048559554,-4.864870067372465,-1.867647058823521,-29.84153005464482,13.447058823529424,-26.228260869565226,1.8229665071770347,-16.346534653465344,-4.440892098500626e-15,-59.266666666666666,18.602583079234005,396.7673546952304,7.607154646908184,87.57783842751537,43.99692350804875,4787.088877751348,1
-9.769230769230768,11.932189542483666,-4.871735987071525,-124.3169014084507,125.64682378829116,39.60264540677662,-6.3805582290663665,-1.867647058823521,-29.84153005464482,13.447058823529424,-26.228260869565226,1.8229665071770347,-16.346534653465344,-4.440892098500626e-15,-59.266666666666666,18.602583079234005,396.7673546952304,8.857718766261987,129.55150198163426,47.040275646001966,4491.2201680242,1
-9.769230769230768,11.932189542483666,-4.871735987071525,-124.3169014084507,125.64682378829116,39.60264540677662,-6.3805582290663665,-9.338235294117638,0.6939890710382373,41.835294117647074,-12.423913043478272,-4.25358851674641,-17.603960396039604,-6.597402597402602,-63.5,19.53079787955873,477.768762841558,8.857718766261987,129.55150198163426,47.040275646001966,4491.2201680242,1
-9.769230769230768,11.932189542483666,-4.871735987071525,-124.3169014084507,125.64682378829116,39.60264540677662,-6.3805582290663665,8.881784197001252e-15,-0.6939890710382652,-11.952941176470574,-26.228260869565226,5.468899521531101,-8.801980198019802,21.44155844155844,-44.45,14.879703659772929,228.99401280075372,8.857718766261987,129.55150198163426,47.040275646001966,4491.2201680242,1
-9.571205821205819,25.732026143790858,-3.532278642510838,-124.76408450704226,125.97040940413456,39.464576916108,-7.602887391722788,8.881784197001252e-15,-0.6939890710382652,-11.952941176470574,-26.228260869565226,5.468899521531101,-8.801980198019802,21.44155844155844,-44.45,14.879703659772929,228.99401280075372,12.945170202502505,356.5310605449174,51.34279643111466,4166.22135432641,1
-9.571205821205819,25.732026143790858,-3.532278642510838,-124.76408450704226,125.97040940413456,39.464576916108,-7.602887391722788,-14.941176470588227,-4.857923497267773,47.81176470588237,-13.804347826086968,-4.25358851674641,-17.603960396039604,-13.194805194805198,-57.15,21.70219582592707,389.0997757019589,12.945170202502505,356.5310605449174,51.34279643111466,4166.22135432641,1
-9.571205821205819,25.732026143790858,-3.532278642510838,-124.76408450704226,125.97040940413456,39.464576916108,-7.602887391722788,-9.338235294117638,-4.857923497267773,38.84705882352942,-17.945652173913054,-0.6076555023923431,-10.059405940594058,-8.24675324675325,-52.916666666666664,17.852418893154276,337.4307187024879,12.945170202502505,356.5310605449174,51.34279643111466,4166.22135432641,1
-13.102650727650726,35.277777777777786,-2.7545292166368904,-125.01684017146357,126.17632752330766,38.912302953433596,-7.84735322425405,-9.338235294117638,-4.857923497267773,38.84705882352942,-17.945652173913054,-0.6076555023923431,-10.059405940594058,-8.24675324675325,-52.916666666666664,17.852418893154276,337.4307187024879,17.044985907355134,649.0343094154985,54.349715721959406,4009.82228271372,1
-13.102650727650726,35.277777777777786,-2.7545292166368904,-125.01684017146357,126.17632752330766,38.912302953433596,-7.84735322425405,24.27941176470589,35.3934426229508,23.90588235294119,-23.467391304347835,6.68421052631579,-17.603960396039604,-4.440892098500626e-15,-78.31666666666666,26.20637070424597,565.4689611292316,17.044985907355134,649.0343094154985,54.349715721959406,4009.82228271372,1
-13.102650727650726,35.277777777777786,-2.7545292166368904,-125.01684017146357,126.17632752330766,38.912302953433596,-7.84735322425405,-20.544117647058815,-14.573770491803291,-5.97647058823528,-22.08695652173914,1.8229665071770347,-12.574257425742573,11.545454545454541,-50.8,17.490499215901334,226.57708287341606,17.044985907355134,649.0343094154985,54.349715721959406,4009.82228271372,1
-13.135654885654885,27.703431372549026,-1.5230926256698067,-125.65845070422536,126.58816376165382,37.34752672585614,-7.84735322425405,-20.544117647058815,-14.573770491803291,-5.97647058823528,-22.08695652173914,1.8229665071770347,-12.574257425742573,11.545454545454541,-50.8,17.490499215901334,226.57708287341606,14.120726294624573,442.8120456109184,51.62832490081473,4281.69717907694,1
-13.135654885654885,27.703431372549026,-1.5230926256698067,-125.65845070422536,126.58816376165382,37.34752672585614,-7.84735322425405,-7.470588235294109,-21.513661202185805,34.36470588235295,-12.423913043478272,21.267942583732058,-1.2574257425742559,4.948051948051944,-59.266666666666666,20.314119413042008,363.3648356398645,14.120726294624573,442.8120456109184,51.62832490081473,4281.69717907694,1
-13.135654885654885,27.703431372549026,-1.5230926256698067,-125.65845070422536,126.58816376165382,37.34752672585614,-7.84735322425405,-37.35294117647058,-2.081967213114768,26.894117647058835,-19.32608695652175,-10.330143540669855,-13.83168316831683,-6.597402597402602,-84.66666666666666,25.135126120777734,707.4527103616017,14.120726294624573,442.8120456109184,51.62832490081473,4281.69717907694,1
-11.848492723492722,26.043300653594777,-1.4582801735136446,-126.45560318432334,126.9705831258324,35.552636347164366,-7.45620789220402,-37.35294117647058,-2.081967213114768,26.894117647058835,-19.32608695652175,-10.330143540669855,-13.83168316831683,-6.597402597402602,-84.66666666666666,25.135126120777734,707.4527103616017,13.116691183533712,383.3469116926021,51.31906133714392,4385.2307485662095,1
-11.848492723492722,26.043300653594777,-1.4582801735136446,-126.45560318432334,126.9705831258324,35.552636347164366,-7.45620789220402,9.338235294117656,7.633879781420751,44.82352941176472,-5.521739130434794,11.545454545454547,-11.316831683168315,1.6493506493506445,-57.15,18.62237756196393,420.14066285221895,13.116691183533712,383.3469116926021,51.31906133714392,4385.2307485662095,1
-11.848492723492722,26.043300653594777,-1.4582801735136446,-126.45560318432334,126.9705831258324,35.552636347164366,-7.45620789220402,-11.205882352941169,25.677595628415286,65.74117647058824,-11.043478260869575,7.899521531100479,-17.603960396039604,-18.142857142857146,-67.73333333333333,28.130975639518105,598.1752372495177,13.116691183533712,383.3469116926021,51.31906133714392,4385.2307485662095,1
-1.7492203742203714,17.742647058823536,-6.70808879816279,-127.0,127.0,36.84127559340459,-9.167468719922965,-11.205882352941169,25.677595628415286,65.74117647058824,-11.043478260869575,7.899521531100479,-17.603960396039604,-18.142857142857146,-67.73333333333333,28.130975639518105,598.1752372495177,8.733318743735566,167.06029267024127,50.48357861899544,4421.512424718568,1
-1.7492203742203714,17.742647058823536,-6.70808879816279,-127.0,127.0,36.84127559340459,-9.167468719922965,11.205882352941185,32.617486338797804,23.90588235294119,-19.32608695652175,-3.038277511961721,-16.346534653465344,-4.948051948051953,-46.56666666666666,19.74435859766845,212.1602112812047,8.733318743735566,167.06029267024127,50.48357861899544,4421.512424718568,1
-1.7492203742203714,17.742647058823536,-6.70808879816279,-127.0,127.0,36.84127559340459,-9.167468719922965,8.881784197001252e-15,15.961748633879767,28.38823529411766,-13.804347826086968,0.6076555023923458,-16.346534653465344,-11.54545454545455,-59.266666666666666,18.240080390257916,357.57697416426254,8.733318743735566,167.06029267024127,50.48357861899544,4421.512424718568,1
4.554573804573806,-0.726307189542478,-10.207961214595553,-126.88334353949786,126.86762406624587,40.33901069034249,-12.73666987487968,8.881784197001252e-15,15.961748633879767,28.38823529411766,-13.804347826086968,0.6076555023923458,-16.346534653465344,-11.54545454545455,-59.266666666666666,18.240080390257916,357.57697416426254,5.162947402903946,55.95365121950424,45.93920398121196,4936.440737386149,1
4.554573804573806,-0.726307189542478,-10.207961214595553,-126.88334353949786,126.86762406624587,40.33901069034249,-12.73666987487968,18.676470588235304,14.573770491803264,-25.39999999999999,-27.60869565217392,-9.114832535885165,-12.574257425742573,3.2987012987012942,-38.099999999999994,18.668340999067688,126.31904607995632,5.162947402903946,55.95365121950424,45.93920398121196,4936.440737386149,1
4.554573804573806,-0.726307189542478,-10.207961214595553,-126.88334353949786,126.86762406624587,40.33901069034249,-12.73666987487968,3.735294117647067,9.021857923497254,11.9529411764706,-27.60869565217392,1.8229665071770347,-16.346534653465344,-14.844155844155848,-69.85,19.397805734323384,480.02344960800826,5.162947402903946,55.95365121950424,45.93920398121196,4936.440737386149,1
-1.8152286902286878,-3.112745098039209,-10.704856681126131,-126.00842008573179,126.69112282124036,43.422540315274546,-15.474687199230004,3.735294117647067,9.021857923497254,11.9529411764706,-27.60869565217392,1.8229665071770347,-16.346534653465344,-14.844155844155848,-69.85,19.397805734323384,480.02344960800826,5.21094348979801,23.05819882252124,46.6086739549657,4742.649803795089,1
-1.8152286902286878,-3.112745098039209,-10.704856681126131,-126.00842008573179,126.69112282124036,43.422540315274546,-15.474687199230004,-7.470588235294109,-17.3497267759563,-4.482352941176458,-16.56521739130436,-9.114832535885165,-15.089108910891088,-3.298701298701303,-50.8,15.521316011151097,232.33048961256986,5.21094348979801,23.05819882252124,46.6086739549657,4742.649803795089,1
-1.8152286902286878,-3.112745098039209,-10.704856681126131,-126.00842008573179,126.69112282124036,43.422540315274546,-15.474687199230004,3.735294117647067,15.961748633879767,34.36470588235295,-12.423913043478272,0.6076555023923458,-10.059405940594058,-4.948051948051953,-55.03333333333333,17.14176355021622,344.00112790607125,5.21094348979801,23.05819882252124,46.6086739549657,4742.649803795089,1
-15.808991683991682,6.433006535947719,-10.229565365314274,-124.20024494794856,126.4704962649835,44.89527088240624,-16.061405197305078,3.735294117647067,15.961748633879767,34.36470588235295,-12.423913043478272,0.6076555023923458,-10.059405940594058,-4.948051948051953,-55.03333333333333,17.14176355021622,344.00112790607125,10.823854528417892,133.91296420434387,46.95427228307019,4478.808684443563,1
-15.808991683991682,6.433006535947719,-10.229565365314274,-124.20024494794856,126.4704962649835,44.89527088240624,-16.061405197305078,-18.676470588235286,34.0054644808743,40.34117647058825,-27.60869565217392,-7.899521531100476,-16.346534653465344,-16.493506493506498,-59.266666666666666,27.579754567076343,274.83929097482377,10.823854528417892,133.91296420434387,46.95427228307019,4478.808684443563,1
-15.808991683991682,6.433006535947719,-10.229565365314274,-124.20024494794856,126.4704962649835,44.89527088240624,-16.061405197305078,-5.60294117647058,-10.409836065573785,-23.905882352941163,-35.89130434782609,1.8229665071770347,-15.089108910891088,-8.24675324675325,-59.266666666666666,20.02943240928746,371.651486570853,10.823854528417892,133.91296420434387,46.95427228307019,4478.808684443563,1
-23.96101871101871,9.441993464052294,-7.226588415412088,-122.46984078383343,126.52933001331866,44.29697408950898,-15.376900866217511,-5.60294117647058,-10.409836065573785,-23.905882352941163,-35.89130434782609,1.8229665071770347,-15.089108910891088,-8.24675324675325,-59.266666666666666,20.02943240928746,371.651486570853,13.543200196827698,278.9406669264778,46.37947422109928,4343.534917620825,1
-23.96101871101871,9.441993464052294,-7.226588415412088,-122.46984078383343,126.52933001331866,44.29697408950898,-15.376900866217511,3.735294117647067,11.797814207650259,20.91764705882354,-20.706521739130444,-3.038277511961721,-13.83168316831683,1.6493506493506445,-52.916666666666664,16.074156889943396,279.40874909115024,13.543200196827698,278.9406669264778,46.37947422109928,4343.534917620825,1
-23.96101871101871,9.441993464052294,-7.226588415412088,-122.46984078383343,126.52933001331866,44.29697408950898,-15.376900866217511,1.8676470588235379,9.021857923497254,19.42352941176472,-17.945652173913054,-1.822966507177032,-12.574257425742573,-1.6493506493506538,-61.38333333333333,15.71107431045027,391.65260430681343,13.543200196827698,278.9406669264778,46.37947422109928,4343.534917620825,1
-24.060031185031185,12.55473856209151,-6.880922003912556,-121.01163502755665,126.6322890729052,43.33049465482878,-14.496823869104901,1.8676470588235379,9.021857923497254,19.42352941176472,-17.945652173913054,-1.822966507177032,-12.574257425742573,-1.6493506493506538,-61.38333333333333,15.71107431045027,391.65260430681343,14.49856391701175,335.5846762547552,46.81576519785357,4136.818373423649,1
-24.060031185031185,12.55473856209151,-6.880922003912556,-121.01163502755665,126.6322890729052,43.33049465482878,-14.496823869104901,-31.749999999999993,-7.633879781420779,7.47058823529413,-11.043478260869575,13.976076555023923,-13.83168316831683,-9.8961038961039,-69.85,20.681476237128642,455.13151341207646,14.49856391701175,335.5846762547552,46.81576519785357,4136.818373423649,1
-24.060031185031185,12.55473856209151,-6.880922003912556,-121.01163502755665,126.6322890729052,43.33049465482878,-14.496823869104901,24.27941176470589,15.961748633879767,19.42352941176472,-16.56521739130436,10.330143540669857,-10.059405940594058,-3.298701298701303,-44.45,18.046019747702495,155.03771299328167,14.49856391701175,335.5846762547552,46.81576519785357,4136.818373423649,1
-18.87837837837838,15.459967320261445,-8.436420855660451,-120.0006123698714,126.61758063582141,43.28447182460593,-14.25235803657364,24.27941176470589,15.961748633879767,19.42352941176472,-16.56521739130436,10.330143540669857,-10.059405940594058,-3.298701298701303,-44.45,18.046019747702495,155.03771299328167,14.258255518100093,309.86563834664696,47.96566684859777,3904.107583424748,1
-18.87837837837838,15.459967320261445,-8.436420855660451,-120.0006123698714,126.61758063582141,43.28447182460593,-14.25235803657364,-14.941176470588227,-3.469945355191271,-10.458823529411752,-17.945652173913054,18.83732057416268,-15.089108910891088,-9.8961038961039,-65.61666666666666,19.53184969711608,371.5390209770406,14.258255518100093,309.86563834664696,47.96566684859777,3904.107583424748,1
-18.87837837837838,15.459967320261445,-8.436420855660451,-120.0006123698714,126.61758063582141,43.28447182460593,-14.25235803657364,8.881784197001252e-15,7.633879781420751,28.38823529411766,-20.706521739130444,12.760765550239235,-12.574257425742573,3.2987012987012942,-65.61666666666666,18.87237846950233,440.138882190698,14.258255518100093,309.86563834664696,47.96566684859777,3904.107583424748,1
-15.313929313929313,20.959150326797392,-10.09994046100195,-119.37844458052665,126.45578782789968,43.790722957057426,-14.105678537054871,8.881784197001252e-15,7.633879781420751,28.38823529411766,-20.706521739130444,12.760765550239235,-12.574257425742573,3.2987012987012942,-65.61666666666666,18.87237846950233,440.138882190698,15.457673367242885,384.5981844909524,50.145845122775334,3624.3452304854186,1
-15.313929313929313,20.959150326797392,-10.09994046100195,-119.37844458052665,126.45578782789968,43.790722957057426,-14.105678537054871,7.470588235294127,2.0819672131147398,-1.4941176470588111,-27.60869565217392,-0.6076555023923431,-13.83168316831683,-6.597402597402602,-55.03333333333333,14.340680418635838,349.036289078305,15.457673367242885,384.5981844909524,50.145845122775334,3624.3452304854186,1
-15.313929313929313,20.959150326797392,-10.09994046100195,-119.37844458052665,126.45578782789968,43.790722957057426,-14.105678537054871,-46.691176470588225,-24.289617486338813,19.42352941176472,-13.804347826086968,-1.822966507177032,-17.603960396039604,-13.194805194805198,-71.96666666666667,26.099633744933406,507.84065176397246,15.457673367242885,384.5981844909524,50.145845122775334,3624.3452304854186,1
-12.739604989604988,26.043300653594777,-11.309772901250312,-119.0284751990202,126.17632752330766,44.89527088240624,-14.25235803657364,-46.691176470588225,-24.289617486338813,19.42352941176472,-13.804347826086968,-1.822966507177032,-17.603960396039604,-13.194805194805198,-71.96666666666667,26.099633744933406,507.84065176397246,16.697559514816692,483.56838232064877,52.1271829179551,3411.106391664653,1
-12.739604989604988,26.043300653594777,-11.309772901250312,-119.0284751990202,126.17632752330766,44.89527088240624,-14.25235803657364,-1.867647058823521,-0.6939890710382652,49.30588235294119,-24.84782608695653,-0.6076555023923431,-12.574257425742573,-3.298701298701303,-57.15,18.793244849574464,523.2072759549704,16.697559514816692,483.56838232064877,52.1271829179551,3411.106391664653,1
-12.739604989604988,26.043300653594777,-11.309772901250312,-119.0284751990202,126.17632752330766,44.89527088240624,-14.25235803657364,-16.808823529411757,-3.469945355191271,11.9529411764706,-24.84782608695653,-5.4688995215311,-17.603960396039604,-6.597402597402602,-69.85,19.574974832875434,464.54053145703125,16.697559514816692,483.56838232064877,52.1271829179551,3411.106391664653,1
-9.04313929313929,29.156045751633993,-11.374585353406474,-118.81460502143295,125.79390815912907,46.64413843087516,-14.790182868142438,-16.808823529411757,-3.469945355191271,11.9529411764706,-24.84782608695653,-5.4688995215311,-17.603960396039604,-6.597402597402602,-69.85,19.574974832875434,464.54053145703125,16.524590132726587,517.8909060982734,53.11507870882448,3316.3659017492832,1
-9.04313929313929,29.156045751633993,-11.374585353406474,-118.81460502143295,125.79390815912907,46.64413843087516,-14.790182868142438,8.881784197001252e-15,-18.7377049180328,38.84705882352942,-12.423913043478272,7.899521531100479,-10.059405940594058,-3.298701298701303,-61.38333333333333,19.08120486109621,434.88561117201516,16.524590132726587,517.8909060982734,53.11507870882448,3316.3659017492832,1
-9.04313929313929,29.156045751633993,-11.374585353406474,-118.81460502143295,125.79390815912907,46.64413843087516,-14.790182868142438,-5.60294117647058,25.677595628415286,28.38823529411766,-20.706521739130444,12.760765550239235,-12.574257425742573,-8.24675324675325,-55.03333333333333,21.123800424275295,253.32715170591328,16.524590132726587,517.8909060982734,53.11507870882448,3316.3659017492832,1
-10.89137214137214,33.5138888888889,-10.618440078251247,-118.46463563992651,125.36736348369911,48.11686899800691,-14.741289701636163,-5.60294117647058,25.677595628415286,28.38823529411766,-20.706521739130444,12.760765550239235,-12.574257425742573,-8.24675324675325,-55.03333333333333,21.123800424275295,253.32715170591328,18.341233702837428,653.2606931900962,54.198988202355544,3228.605474487761,1
-10.89137214137214,33.5138888888889,-10.618440078251247,-118.46463563992651,125.36736348369911,48.11686899800691,-14.741289701636163,-33.61764705882352,-7.633879781420779,13.447058823529424,-24.84782608695653,-0.6076555023923431,-15.089108910891088,3.2987012987012942,-65.61666666666666,20.519818016172707,451.8050775488513,18.341233702837428,653.2606931900962,54.198988202355544,3228.605474487761,1
-10.89137214137214,33.5138888888889,-10.618440078251247,-118.46463563992651,125.36736348369911,48.11686899800691,-14.741289701636163,-24.279411764705873,-36.781420765027335,20.91764705882354,-16.56521739130436,0.6076555023923458,-12.574257425742573,-1.6493506493506538,-65.61666666666666,22.373953403001664,445.18790068895305,18.341233702837428,653.2606931900962,54.198988202355544,3228.605474487761,1
-14.290800415800415,34.44771241830066,-10.94250233903206,-117.78413962033068,124.91140193410155,49.40550824424719,-14.399037536092408,-24.279411764705873,-36.781420765027335,20.91764705882354,-16.56521739130436,0.6076555023923458,-12.574257425742573,-1.6493506493506538,-65.61666666666666,22.373953403001664,445.18790068895305,19.89367172437771,741.1542215012519,54.39145145922114,3152.098409436396,1
-14.290800415800415,34.44771241830066,-10.94250233903206,-117.78413962033068,124.91140193410155,49.40550824424719,-14.399037536092408,-3.7352941176470504,24.289617486338784,28.38823529411766,-24.84782608695653,-3.038277511961721,-13.83168316831683,-1.6493506493506538,-63.5,20.410035539336153,418.6006922109993,19.89367172437771,741.1542215012519,54.39145145922114,3152.098409436396,1
-14.290800415800415,34.44771241830066,-10.94250233903206,-117.78413962033068,124.91140193410155,49.40550824424719,-14.399037536092408,-28.014705882352935,-52.04918032786887,-23.905882352941163,-23.467391304347835,-4.25358851674641,-12.574257425742573,-14.844155844155848,-71.96666666666667,28.884478540102787,502.48583126112356,19.89367172437771,741.1542215012519,54.39145145922114,3152.098409436396,1
-16.733108108108105,35.070261437908506,-11.352981202687754,-117.08420085731782,124.45544038450402,50.32596484870447,-13.61674687199229,-28.014705882352935,-52.04918032786887,-23.905882352941163,-23.467391304347835,-4.25358851674641,-12.574257425742573,-14.844155844155848,-71.96666666666667,28.884478540102787,502.48583126112356,21.05211691623479,811.2753865178775,54.50248116597135,3077.9810750836946,1
-16.733108108108105,35.070261437908506,-11.352981202687754,-117.08420085731782,124.45544038450402,50.32596484870447,-13.61674687199229,13.073529411764714,-13.185792349726789,28.38823529411766,-24.84782608695653,-17.622009569377987,-16.346534653465344,-4.948051948051953,-50.8,21.15149741418262,195.9813638793765,21.05211691623479,811.2753865178775,54.50248116597135,3077.9810750836946,1
-16.733108108108105,35.070261437908506,-11.352981202687754,-117.08420085731782,124.45544038450402,50.32596484870447,-13.61674687199229,8.881784197001252e-15,28.45355191256829,37.3529411764706,-12.423913043478272,5.468899521531101,-11.316831683168315,-1.6493506493506538,-59.266666666666666,19.49151933165424,427.58335944286426,21.05211691623479,811.2753865178775,54.50248116597135,3077.9810750836946,1
-15.974012474012472,34.86274509803923,-12.433188738623791,-116.59813227189223,123.99947883490648,51.29244428338467,-12.932242540904724,8.881784197001252e-15,28.45355191256829,37.3529411764706,-12.423913043478272,5.468899521531101,-11.316831683168315,-1.6493506493506538,-59.266666666666666,19.49151933165424,427.58335944286426,21.089982103558494,805.6364517744422,54.63135536951841,3005.6823293714747,1
-15.974012474012472,34.86274509803923,-12.433188738623791,-116.59813227189223,123.99947883490648,51.29244428338467,-12.932242540904724,-24.279411764705873,-24.289617486338813,-5.97647058823528,-24.84782608695653,-6.684210526315788,-17.603960396039604,-8.24675324675325,-67.73333333333333,22.457697928584807,401.17341724895635,21.089982103558494,805.6364517744422,54.63135536951841,3005.6823293714747,1
-15.974012474012472,34.86274509803923,-12.433188738623791,-116.59813227189223,123.99947883490648,51.29244428338467,-12.932242540904724,-1.867647058823521,21.513661202185776,20.91764705882354,-22.08695652173914,-1.822966507177032,-16.346534653465344,-6.597402597402602,-63.5,19.33160194995212,392.6183974591109,21.089982103558494,805.6364517744422,54.63135536951841,3005.6823293714747,1
-14.653846153846153,39.22058823529413,-12.044314025686818,-116.36481935088794,123.52880884822514,52.304946548287774,-12.149951876804607,-1.867647058823521,21.513661202185776,20.91764705882354,-22.08695652173914,-1.822966507177032,-16.346534653465344,-6.597402597402602,-63.5,19.33160194995212,392.6183974591109,21.972916138275703,922.8924237509344,55.87657387062296,2928.7583509395395,1
-14.653846153846153,39.22058823529413,-12.044314025686818,-116.36481935088794,123.52880884822514,52.304946548287774,-12.149951876804607,-3.7352941176470504,31.229508196721298,41.835294117647074,-17.945652173913054,9.114832535885167,-11.316831683168315,-3.298701298701303,-57.15,21.953264265460405,384.8658795284053,21.972916138275703,922.8924237509344,55.87657387062296,2928.7583509395395,1
-14.653846153846153,39.22058823529413,-12.044314025686818,-116.36481935088794,123.52880884822514,52.304946548287774,-12.149951876804607,-1.867647058823521,7.633879781420751,20.91764705882354,-16.56521739130436,3.0382775119617236,-8.801980198019802,-3.298701298701303,-59.266666666666666,15.173752120715209,363.1288254381115,21.972916138275703,922.8924237509344,55.87657387062296,2928.7583509395395,1
-14.851871101871101,44.61601307189544,-11.914689121374494,-116.05373545621556,122.91105449070588,53.363471643413675,-10.927622714148185,-1.867647058823521,7.633879781420751,20.91764705882354,-16.56521739130436,3.0382775119617236,-8.801980198019802,-3.298701298701303,-59.266666666666666,15.173752120715209,363.1288254381115,23.79419109838034,1123.4627627592067,57.528145883161834,2836.2776231843804,1
-14.851871101871101,44.61601307189544,-11.914689121374494,-116.05373545621556,122.91105449070588,53.363471643413675,-10.927622714148185,-20.544117647058815,-31.229508196721326,-5.97647058823528,-19.32608695652175,10.330143540669857,-12.574257425742573,-14.844155844155848,-59.266666666666666,21.761425858221514,287.9703003812047,23.79419109838034,1123.4627627592067,57.528145883161834,2836.2776231843804,1
-14.851871101871101,44.61601307189544,-11.914689121374494,-116.05373545621556,122.91105449070588,53.363471643413675,-10.927622714148185,-13.073529411764698,20.125683060109274,28.38823529411766,-16.56521739130436,-0.6076555023923431,-15.089108910891088,-3.298701298701303,-57.15,19.28726635866009,312.1891221035385,23.79419109838034,1123.4627627592067,57.528145883161834,2836.2776231843804,1
-15.874999999999998,47.31372549019609,-12.476397040061233,-115.72320881812615,122.24917482193524,54.468019568762486,-9.558614051973052,-13.073529411764698,20.125683060109274,28.38823529411766,-16.56521739130436,-0.6076555023923431,-15.089108910891088,-3.298701298701303,-57.15,19.28726635866009,312.1891221035385,25.221707510085775,1263.2040472229744,58.5044437827945,2758.9001675120135,1
-15.874999999999998,47.31372549019609,-12.476397040061233,-115.72320881812615,122.24917482193524,54.468019568762486,-9.558614051973052,-13.073529411764698,-38.16939890710384,-11.952941176470574,-26.228260869565226,7.899521531100479,-17.603960396039604,-9.8961038961039,-65.61666666666666,23.80504785685187,385.85055804236316,25.221707510085775,1263.2040472229744,58.5044437827945,2758.9001675120135,1
-15.874999999999998,47.31372549019609,-12.476397040061233,-115.72320881812615,122.24917482193524,54.468019568762486,-9.558614051973052,-5.60294117647058,-4.857923497267773,26.894117647058835,-17.945652173913054,-3.038277511961721,-15.089108910891088,-1.6493506493506538,-55.03333333333333,16.263838112530877,321.7904855135754,25.221707510085775,1263.2040472229744,58.5044437827945,2758.9001675120135,1
-15.67697505197505,47.72875816993465,-12.173938929999142,-115.52878138395592,121.6461289014998,55.43449900344268,-8.385178055822905,-5.60294117647058,-4.857923497267773,26.894117647058835,-17.945652173913054,-3.038277511961721,-15.089108910891088,-1.6493506493506538,-55.03333333333333,16.263838112530877,321.7904855135754,25.193224050636278,1270.148564554378,58.47715949462991,2757.201962948089,1
-15.67697505197505,47.72875816993465,-12.173938929999142,-115.52878138395592,121.6461289014998,55.43449900344268,-8.385178055822905,-29.882352941176464,-3.469945355191271,13.447058823529424,-24.84782608695653,-4.25358851674641,-13.83168316831683,-1.6493506493506538,-69.85,20.15397569265845,506.4175475230025,25.193224050636278,1270.148564554378,58.47715949462991,2757.201962948089,1
-15.67697505197505,47.72875816993465,-12.173938929999142,-115.52878138395592,121.6461289014998,55.43449900344268,-8.385178055822905,-14.941176470588227,-13.185792349726789,16.43529411764707,-16.56521739130436,-4.25358851674641,-17.603960396039604,-6.597402597402602,-63.5,19.135303979931884,345.1597835517537,25.193224050636278,1270.148564554378,58.47715949462991,2757.201962948089,1
-16.04002079002079,46.37990196078432,-11.763460066343448,-115.52878138395592,121.16075047773467,56.07881862656279,-7.211742059672758,-14.941176470588227,-13.185792349726789,16.43529411764707,-16.56521739130436,-4.25358851674641,-17.603960396039604,-6.597402597402602,-63.5,19.135303979931884,345.1597835517537,24.72779427238285,1215.8643792762368,57.890714470361225,2791.1845805098146,1
-16.04002079002079,46.37990196078432,-11.763460066343448,-115.52878138395592,121.16075047773467,56.07881862656279,-7.211742059672758,-3.7352941176470504,21.513661202185776,23.90588235294119,-15.184782608695663,4.2535885167464125,-7.544554455445543,-4.948051948051953,-59.266666666666666,17.544060233547533,346.93439880662874,24.72779427238285,1215.8643792762368,57.890714470361225,2791.1845805098146,1
-16.04002079002079,46.37990196078432,-11.763460066343448,-115.52878138395592,121.16075047773467,56.07881862656279,-7.211742059672758,-1.867647058823521,-32.617486338797825,-7.470588235294105,-23.467391304347835,3.0382775119617236,-12.574257425742573,-3.298701298701303,-55.03333333333333,17.420960313375275,350.4128694247834,24.72779427238285,1215.8643792762368,57.890714470361225,2791.1845805098146,1
-13.234667359667359,40.46568627450981,-10.856085736157176,-115.95652173913044,120.86658173605883,56.49302409856858,-6.527237728585135,-1.867647058823521,-32.617486338797825,-7.470588235294105,-23.467391304347835,3.0382775119617236,-12.574257425742573,-3.298701298701303,-55.03333333333333,17.420960313375275,350.4128694247834,21.518813123444783,920.5516522150442,55.759431249932476,2936.9493885337192,1
-13.234667359667359,40.46568627450981,-10.856085736157176,-115.95652173913044,120.86658173605883,56.49302409856858,-6.527237728585135,-11.205882352941169,-4.857923497267773,17.929411764705897,-13.804347826086968,-0.6076555023923431,-13.83168316831683,3.2987012987012942,-55.03333333333333,15.0711173429682,296.4743334193163,21.518813123444783,920.5516522150442,55.759431249932476,2936.9493885337192,1
-13.234667359667359,40.46568627450981,-10.856085736157176,-115.95652173913044,120.86658173605883,56.49302409856858,-6.527237728585135,-28.014705882352935,-3.469945355191271,10.458823529411777,-27.60869565217392,6.68421052631579,-12.574257425742573,-4.948051948051953,-65.61666666666666,19.92191962323836,432.32129465319406,21.518813123444783,920.5516522150442,55.759431249932476,2936.9493885337192,1
-9.010135135135133,35.79656862745099,-9.711065748064977,-116.59813227189223,120.66066361688573,57.09132089146584,-6.478344562078917,-28.014705882352935,-3.469945355191271,10.458823529411777,-27.60869565217392,6.68421052631579,-12.574257425742573,-4.948051948051953,-65.61666666666666,19.92191962323836,432.32129465319406,18.1725898368837,679.8461320413222,54.03525554913606,3105.6985229877027,1
-9.010135135135133,35.79656862745099,-9.711065748064977,-116.59813227189223,120.66066361688573,57.09132089146584,-6.478344562078917,24.27941176470589,34.0054644808743,19.42352941176472,-17.945652173913054,18.83732057416268,-7.544554455445543,-1.6493506493506538,-50.8,21.810660438777106,233.52391609446818,18.1725898368837,679.8461320413222,54.03525554913606,3105.6985229877027,1
-9.010135135135133,35.79656862745099,-9.711065748064977,-116.59813227189223,120.66066361688573,57.09132089146584,-6.478344562078917,14.941176470588243,0.6939890710382373,7.47058823529413,-26.228260869565226,-10.330143540669855,-16.346534653465344,-13.194805194805198,-61.38333333333333,18.823603921094946,349.8235387629898,18.1725898368837,679.8461320413222,54.03525554913606,3105.6985229877027,1
-10.627338877338875,31.438725490196084,-9.948711405970904,-116.77311696264545,120.39591174937749,57.78166334480886,-6.233878729547655,14.941176470588243,0.6939890710382373,7.47058823529413,-26.228260869565226,-10.330143540669855,-16.346534653465344,-13.194805194805198,-61.38333333333333,18.823603921094946,349.8235387629898,17.33825859116862,580.4890399087824,52.72018461960414,3192.5387826417186,1
-10.627338877338875,31.438725490196084,-9.948711405970904,-116.77311696264545,120.39591174937749,57.78166334480886,-6.233878729547655,-11.205882352941169,18.737704918032772,64.24705882352943,-16.56521739130436,-1.822966507177032,-15.089108910891088,-3.298701298701303,-61.38333333333333,24.04374669198881,609.1071136672078,17.33825859116862,580.4890399087824,52.72018461960414,3192.5387826417186,1
-10.627338877338875,31.438725490196084,-9.948711405970904,-116.77311696264545,120.39591174937749,57.78166334480886,-6.233878729547655,-26.147058823529402,-21.513661202185805,23.90588235294119,-27.60869565217392,0.6076555023923458,-17.603960396039604,-6.597402597402602,-61.38333333333333,23.170956232499776,329.5428410402081,17.33825859116862,580.4890399087824,52.72018461960414,3192.5387826417186,1
-13.597713097713097,26.8733660130719,-10.186357063876834,-116.63701775872627,120.16057675603682,58.10382315636895,-5.744947064485075,-26.147058823529402,-21.513661202185805,23.90588235294119,-27.60869565217392,0.6076555023923458,-17.603960396039604,-6.597402597402602,-61.38333333333333,23.170956232499776,329.5428410402081,16.885812058220612,503.82811148685596,51.232246945225,3277.9521007925996,1
-13.597713097713097,26.8733660130719,-10.186357063876834,-116.63701775872627,120.16057675603682,58.10382315636895,-5.744947064485075,-24.279411764705873,2.0819672131147398,16.43529411764707,-23.467391304347835,-0.6076555023923431,-13.83168316831683,-6.597402597402602,-61.38333333333333,18.58551737515758,379.20202261212944,16.885812058220612,503.82811148685596,51.232246945225,3277.9521007925996,1
-13.597713097713097,26.8733660130719,-10.186357063876834,-116.63701775872627,120.16057675603682,58.10382315636895,-5.744947064485075,-14.941176470588227,-4.857923497267773,22.411764705882366,-19.32608695652175,3.0382775119617236,-11.316831683168315,-3.298701298701303,-63.5,17.836345265511433,393.9963642445845,16.885812058220612,503.82811148685596,51.232246945225,3277.9521007925996,1
-12.574584199584198,22.515522875817002,-9.970315556689625,-116.50091855480711,120.02820082228268,58.56405145859759,-5.744947064485075,-14.941176470588227,-4.857923497267773,22.411764705882366,-19.32608695652175,3.0382775119617236,-11.316831683168315,-3.298701298701303,-63.5,17.836345265511433,393.9963642445845,15.020140877363609,382.2379213984017,49.66225232910458,3389.901033793123,1
-12.574584199584198,22.515522875817002,-9.970315556689625,-116.50091855480711,120.02820082228268,58.56405145859759,-5.744947064485075,3.735294117647067,0.6939890710382373,-40.34117647058822,-24.84782608695653,-4.25358851674641,-11.316831683168315,-9.8961038961039,-61.38333333333333,19.558517896947752,458.71203181451085,15.020140877363609,382.2379213984017,49.66225232910458,3389.901033793123,1
-12.574584199584198,22.515522875817002,-9.970315556689625,-116.50091855480711,120.02820082228268,58.56405145859759,-5.744947064485075,-7.470588235294109,34.0054644808743,44.82352941176472,-6.902173913043489,1.8229665071770347,-15.089108910891088,-3.298701298701303,-61.38333333333333,21.849483261384922,494.22431463691726,15.020140877363609,382.2379213984017,49.66225232910458,3389.901033793123,1
-11.38643451143451,20.33660130718955,-9.948711405970904,-116.3259338640539,119.88111645144477,59.25439391194061,-6.038306063522612,-7.470588235294109,34.0054644808743,44.82352941176472,-6.902173913043489,1.8229665071770347,-15.089108910891088,-3.298701298701303,-61.38333333333333,21.849483261384922,494.22431463691726,13.890582408198322,320.9363692352679,48.87041552573811,3439.662279868102,1
-11.38643451143451,20.33660130718955,-9.948711405970904,-116.3259338640539,119.88111645144477,59.25439391194061,-6.038306063522612,-3.7352941176470504,28.45355191256829,55.282352941176484,-19.32608695652175,6.68421052631579,-11.316831683168315,-1.6493506493506538,-63.5,23.74345984834354,564.4139778658518,13.890582408198322,320.9363692352679,48.87041552573811,3439.662279868102,1
-11.38643451143451,20.33660130718955,-9.948711405970904,-116.3259338640539,119.88111645144477,59.25439391194061,-6.038306063522612,-9.338235294117638,17.34972677595627,5.976470588235307,-23.467391304347835,11.545454545454547,-10.059405940594058,-19.792207792207797,-65.61666666666666,20.393194863447516,368.4801058995592,13.890582408198322,320.9363692352679,48.87041552573811,3439.662279868102,1
-13.399688149688147,22.20424836601308,-10.09994046100195,-116.01484996938152,119.73403208060685,59.85269070483787,-6.18498556304138,-9.338235294117638,17.34972677595627,5.976470588235307,-23.467391304347835,11.545454545454547,-10.059405940594058,-19.792207792207797,-65.61666666666666,20.393194863447516,368.4801058995592,15.23462565890106,387.0148743324193,49.43967959879885,3360.81854986891,1
-13.399688149688147,22.20424836601308,-10.09994046100195,-116.01484996938152,119.73403208060685,59.85269070483787,-6.18498556304138,-18.676470588235286,11.797814207650259,35.85882352941178,-13.804347826086968,13.976076555023923,-10.059405940594058,-3.298701298701303,-61.38333333333333,21.106871659879616,353.6759103591742,15.23462565890106,387.0148743324193,49.43967959879885,3360.81854986891,1
-13.399688149688147,22.20424836601308,-10.09994046100195,-116.01484996938152,119.73403208060685,59.85269070483787,-6.18498556304138,28.01470588235295,81.1967213114754,34.36470588235295,-28.989130434782616,-12.760765550239231,-17.603960396039604,-4.948051948051953,-57.15,33.128505175661836,626.0562038424151,15.23462565890106,387.0148743324193,49.43967959879885,3360.81854986891,1
-15.478950103950103,26.665849673202622,-9.495024240877768,-115.7620943049602,119.63107302102031,60.08280485595219,-6.038306063522612,28.01470588235295,81.1967213114754,34.36470588235295,-28.989130434782616,-12.760765550239231,-17.603960396039604,-4.948051948051953,-57.15,33.128505175661836,626.0562038424151,17.21327467267683,519.933386536843,50.64098940634687,3254.278038918995,1
-15.478950103950103,26.665849673202622,-9.495024240877768,-115.7620943049602,119.63107302102031,60.08280485595219,-6.038306063522612,1.8676470588235379,7.633879781420751,11.9529411764706,-19.32608695652175,-6.684210526315788,-20.118811881188115,-6.597402597402602,-61.38333333333333,16.94553916393456,363.1155542050393,17.21327467267683,519.933386536843,50.64098940634687,3254.278038918995,1
-15.478950103950103,26.665849673202622,-9.495024240877768,-115.7620943049602,119.63107302102031,60.08280485595219,-6.038306063522612,-22.411764705882344,-20.125683060109303,32.87058823529413,-13.804347826086968,21.267942583732058,-11.316831683168315,-4.440892098500626e-15,-52.916666666666664,21.839228095117473,249.04578679747175,17.21327467267683,519.933386536843,50.64098940634687,3254.278038918995,1
-14.52182952182952,30.29738562091504,-9.170961980096957,-115.82042253521128,119.54282239851756,60.174850516397896,-5.79384023099135,-22.411764705882344,-20.125683060109303,32.87058823529413,-13.804347826086968,21.267942583732058,-11.316831683168315,-4.440892098500626e-15,-52.916666666666664,21.839228095117473,249.04578679747175,17.996725707613837,599.1907153025167,51.7629233787411,3189.1038425987135,1
-14.52182952182952,30.29738562091504,-9.170961980096957,-115.82042253521128,119.54282239851756,60.174850516397896,-5.79384023099135,-20.544117647058815,-20.125683060109303,-4.482352941176458,-22.08695652173914,9.114832535885167,-15.089108910891088,-8.24675324675325,-65.61666666666666,20.663308941284985,371.93822814713866,17.996725707613837,599.1907153025167,51.7629233787411,3189.1038425987135,1
-14.52182952182952,30.29738562091504,-9.170961980096957,-115.82042253521128,119.54282239851756,60.174850516397896,-5.79384023099135,9.338235294117656,31.229508196721298,46.31764705882354,-23.467391304347835,3.0382775119617236,-12.574257425742573,-6.597402597402602,-59.266666666666666,23.978673256972986,411.73144483652396,17.996725707613837,599.1907153025167,51.7629233787411,3189.1038425987135,1
-12.079521829521829,32.68382352941177,-9.840690652377301,-116.13150642988366,119.39573802767964,60.635078818626596,-5.79384023099135,9.338235294117656,31.229508196721298,46.31764705882354,-23.467391304347835,3.0382775119617236,-12.574257425742573,-6.597402597402602,-59.266666666666666,23.978673256972986,411.73144483652396,18.201345337103632,636.1839598600161,52.885340203890905,3130.5103366238923,1
-12.079521829521829,32.68382352941177,-9.840690652377301,-116.13150642988366,119.39573802767964,60.635078818626596,-5.79384023099135,7.470588235294127,-2.081967213114768,31.376470588235307,-16.56521739130436,16.406698564593302,-13.83168316831683,1.6493506493506445,-55.03333333333333,18.051913642942836,314.8491818393801,18.201345337103632,636.1839598600161,52.885340203890905,3130.5103366238923,1
-12.079521829521829,32.68382352941177,-9.840690652377301,-116.13150642988366,119.39573802767964,60.635078818626596,-5.79384023099135,-22.411764705882344,-17.3497267759563,1.4210854715202004e-14,-24.84782608695653,-12.760765550239231,-21.376237623762375,-6.597402597402602,-67.73333333333333,21.634632084191594,418.1952960265048,18.201345337103632,636.1839598600161,52.885340203890905,3130.5103366238923,1
-11.122401247401246,35.79656862745099,-10.12154461172067,-116.53980404164116,119.17511147142278,61.233375611523854,-5.6960538979788,-22.411764705882344,-17.3497267759563,1.4210854715202004e-14,-24.84782608695653,-12.760765550239231,-21.376237623762375,-6.597402597402602,-67.73333333333333,21.634632084191594,418.1952960265048,19.013504828857638,718.4774285946447,54.15263909360428,3083.9204772422536,1
-11.122401247401246,35.79656862745099,-10.12154461172067,-116.53980404164116,119.17511147142278,61.233375611523854,-5.6960538979788,14.941176470588243,-4.857923497267773,-16.435294117647047,-20.706521739130444,-0.6076555023923431,-8.801980198019802,-3.298701298701303,-57.15,15.84990660296837,327.25840379837473,19.013504828857638,718.4774285946447,54.15263909360428,3083.9204772422536,1
-11.122401247401246,35.79656862745099,-10.12154461172067,-116.53980404164116,119.17511147142278,61.233375611523854,-5.6960538979788,3.735294117647067,-21.513661202185805,-4.482352941176458,-19.32608695652175,0.6076555023923458,-12.574257425742573,-4.440892098500626e-15,-55.03333333333333,14.659080184874917,334.0598690387921,19.013504828857638,718.4774285946447,54.15263909360428,3083.9204772422536,1
-10.924376299376299,37.352941176470594,-9.970315556689625,-116.9869871402327,118.9250680409983,61.83167240442111,-5.451588065447538,3.735294117647067,-21.513661202185805,-4.482352941176458,-19.32608695652175,0.6076555023923458,-12.574257425742573,-4.440892098500626e-15,-55.03333333333333,14.659080184874917,334.0598690387921,19.415877677512174,761.850040399507,54.77008129113097,3090.6595765352627,1
-10.924376299376299,37.352941176470594,-9.970315556689625,-116.9869871402327,118.9250680409983,61.83167240442111,-5.451588065447538,-18.676470588235286,-22.90163934426231,43.329411764705895,-17.945652173913054,-0.6076555023923431,-16.346534653465344,-13.194805194805198,-63.5,24.56277115272243,388.58192928823837,19.415877677512174,761.850040399507,54.77008129113097,3090.6595765352627,1
-10.924376299376299,37.352941176470594,-9.970315556689625,-116.9869871402327,118.9250680409983,61.83167240442111,-5.451588065447538,-11.205882352941169,-15.961748633879797,4.482352941176483,-30.36956521739131,5.468899521531101,-5.029702970297029,-8.24675324675325,-59.266666666666666,17.5039464438296,358.1999371586815,19.415877677512174,761.850040399507,54.77008129113097,3090.6595765352627,1
-10.363305613305611,35.79656862745099,-9.624649145190093,-117.57026944274342,118.73385835890903,62.2458778764269,-5.30490856592877,-11.205882352941169,-15.961748633879797,4.482352941176483,-30.36956521739131,5.468899521531101,-5.029702970297029,-8.24675324675325,-59.266666666666666,17.5039464438296,358.1999371586815,18.5948411286489,699.0611045416733,54.3304957384615,3170.694075973077,1
-10.363305613305611,35.79656862745099,-9.624649145190093,-117.57026944274342,118.73385835890903,62.2458778764269,-5.30490856592877,8.881784197001252e-15,-0.6939890710382652,1.494117647058836,-26.228260869565226,-3.038277511961721,-15.089108910891088,-11.54545454545455,-59.266666666666666,14.669484402829545,407.4047331229179,18.5948411286489,699.0611045416733,54.3304957384615,3170.694075973077,1
-10.363305613305611,35.79656862745099,-9.624649145190093,-117.57026944274342,118.73385835890903,62.2458778764269,-5.30490856592877,5.602941176470598,15.961748633879767,17.929411764705897,-19.32608695652175,4.2535885167464125,-8.801980198019802,1.6493506493506445,-59.266666666666666,16.59897182029519,341.1072706640509,18.5948411286489,699.0611045416733,54.3304957384615,3170.694075973077,1
-10.165280665280664,34.96650326797386,-9.170961980096957,-118.17299448867116,118.5720655509873,62.56803768798699,-5.011549566891233,5.602941176470598,15.961748633879767,17.929411764705897,-19.32608695652175,4.2535885167464125,-8.801980198019802,1.6493506493506445,-59.266666666666666,16.59897182029519,341.1072706640509,18.100915304450492,664.3304048617227,54.103486578913994,3245.0288704324676,1
-10.165280665280664,34.96650326797386,-9.170961980096957,-118.17299448867116,118.5720655509873,62.56803768798699,-5.011549566891233,-46.691176470588225,-31.229508196721326,31.376470588235307,-22.08695652173914,-1.822966507177032,-13.83168316831683,-4.440892098500626e-15,-65.61666666666666,26.581928514930567,496.4369884858127,18.100915304450492,664.3304048617227,54.103486578913994,3245.0288704324676,1
-10.165280665280664,34.96650326797386,-9.170961980096957,-118.17299448867116,118.5720655509873,62.56803768798699,-5.011549566891233,5.602941176470598,28.45355191256829,20.91764705882354,-15.184782608695663,1.8229665071770347,-18.86138613861386,-14.844155844155848,-61.38333333333333,20.88384557247977,338.1972526072117,18.100915304450492,664.3304048617227,54.103486578913994,3245.0288704324676,1
-10.429313929313928,33.41013071895426,-8.544441609254054,-118.83404776484997,118.48381492848455,62.61406051820984,-4.7670837343599715,5.602941176470598,28.45355191256829,20.91764705882354,-15.184782608695663,1.8229665071770347,-18.86138613861386,-14.844155844155848,-61.38333333333333,20.88384557247977,338.1972526072117,17.46129541917408,614.2726316623935,53.59620669768609,3346.5575540534664,1
-10.429313929313928,33.41013071895426,-8.544441609254054,-118.83404776484997,118.48381492848455,62.61406051820984,-4.7670837343599715,-18.676470588235286,9.021857923497254,16.43529411764707,-13.804347826086968,12.760765550239235,-6.287128712871286,1.6493506493506445,-67.73333333333333,18.296068587657636,429.4006152053293,17.46129541917408,614.2726316623935,53.59620669768609,3346.5575540534664,1
-10.429313929313928,33.41013071895426,-8.544441609254054,-118.83404776484997,118.48381492848455,62.61406051820984,-4.7670837343599715,1.8676470588235379,4.857923497267746,17.929411764705897,-28.989130434782616,-1.822966507177032,-13.83168316831683,-8.24675324675325,-48.68333333333333,15.77860612639503,261.41718217311916,17.46129541917408,614.2726316623935,53.59620669768609,3346.5575540534664,1
-11.089397089397089,31.646241830065367,-8.11235859487964,-119.45621555419474,118.45439805431698,62.475992027541224,-4.571511068334928,1.8676470588235379,4.857923497267746,17.929411764705897,-28.989130434782616,-1.822966507177032,-13.83168316831683,-8.24675324675325,-48.68333333333333,15.77860612639503,261.41718217311916,16.9493325047807,569.3239833004917,53.07160532637992,3443.6482713560113,1
-11.089397089397089,31.646241830065367,-8.11235859487964,-119.45621555419474,118.45439805431698,62.475992027541224,-4.571511068334928,-22.411764705882344,22.901639344262282,-1.4941176470588111,-33.1304347826087,-16.4066985645933,-11.316831683168315,3.2987012987012942,-59.266666666666666,21.278356836617718,346.4503237361959,16.9493325047807,569.3239833004917,53.07160532637992,3443.6482713560113,1
-11.089397089397089,31.646241830065367,-8.11235859487964,-119.45621555419474,118.45439805431698,62.475992027541224,-4.571511068334928,8.881784197001252e-15,36.781420765027306,35.85882352941178,2.76086956521738,18.83732057416268,-13.83168316831683,-16.493506493506498,-65.61666666666666,23.772536345288643,464.1464959196174,16.9493325047807,569.3239833004917,53.07160532637992,3443.6482713560113,1
-12.112525987525986,31.023692810457526,-7.7666921833801075,-120.05894060012248,118.48381492848455,62.1538322159812,-4.327045235803666,8.881784197001252e-15,36.781420765027306,35.85882352941178,2.76086956521738,18.83732057416268,-13.83168316831683,-16.493506493506498,-65.61666666666666,23.772536345288643,464.1464959196174,16.967636993787874,564.0522686018178,52.9497751979867,3512.9520802703823,1
-12.112525987525986,31.023692810457526,-7.7666921833801075,-120.05894060012248,118.48381492848455,62.1538322159812,-4.327045235803666,-16.808823529411757,0.6939890710382373,1.4210854715202004e-14,-24.84782608695653,-6.684210526315788,-21.376237623762375,-6.597402597402602,-71.96666666666667,18.621894512694247,550.0831465767084,16.967636993787874,564.0522686018178,52.9497751979867,3512.9520802703823,1
-12.112525987525986,31.023692810457526,-7.7666921833801075,-120.05894060012248,118.48381492848455,62.1538322159812,-4.327045235803666,-9.338235294117638,34.0054644808743,32.87058823529413,-17.945652173913054,9.114832535885167,-7.544554455445543,-3.298701298701303,-63.5,22.20225355927889,412.2439507588579,16.967636993787874,564.0522686018178,52.9497751979867,3512.9520802703823,1
-11.287422037422036,28.74101307189543,-7.7450880326613865,-120.60333741579915,118.52794023973593,61.96974089508973,-4.327045235803666,-9.338235294117638,34.0054644808743,32.87058823529413,-17.945652173913054,9.114832535885167,-7.544554455445543,-3.298701298701303,-63.5,22.20225355927889,412.2439507588579,15.924507713992952,491.0098868856775,52.36314617345199,3602.7499926573687,1
-11.287422037422036,28.74101307189543,-7.7450880326613865,-120.60333741579915,118.52794023973593,61.96974089508973,-4.327045235803666,29.882352941176478,56.21311475409835,38.84705882352942,-16.56521739130436,3.0382775119617236,-16.346534653465344,-18.142857142857146,-52.916666666666664,28.994009985632438,359.56085365380534,15.924507713992952,491.0098868856775,52.36314617345199,3602.7499926573687,1
-11.287422037422036,28.74101307189543,-7.7450880326613865,-120.60333741579915,118.52794023973593,61.96974089508973,-4.327045235803666,-16.808823529411757,-24.289617486338813,31.376470588235307,-19.32608695652175,5.468899521531101,-12.574257425742573,-4.948051948051953,-63.5,22.286525931979156,357.3918192332612,15.924507713992952,491.0098868856775,52.36314617345199,3602.7499926573687,1
-11.023388773388772,26.3545751633987,-7.939525389129874,-121.10884874464176,118.55735711390352,61.83167240442111,-4.278152069297391,-16.808823529411757,-24.289617486338813,31.376470588235307,-19.32608695652175,5.468899521531101,-12.574257425742573,-4.948051948051953,-63.5,22.286525931979156,357.3918192332612,15.105829775305784,430.4512890232497,51.80098309905677,3687.4636948070447,1
-11.023388773388772,26.3545751633987,-7.939525389129874,-121.10884874464176,118.55735711390352,61.83167240442111,-4.278152069297391,1.8676470588235379,6.245901639344249,1.494117647058836,-24.84782608695653,-1.822966507177032,-8.801980198019802,-4.440892098500626e-15,-65.61666666666666,13.83713822550583,502.3942991683734,15.105829775305784,430.4512890232497,51.80098309905677,3687.4636948070447,1
-11.023388773388772,26.3545751633987,-7.939525389129874,-121.10884874464176,118.55735711390352,61.83167240442111,-4.278152069297391,-16.808823529411757,6.245901639344249,28.38823529411766,-15.184782608695663,0.6076555023923458,-12.574257425742573,-1.6493506493506538,-59.266666666666666,17.590709164465196,365.1846144013037,15.105829775305784,430.4512890232497,51.80098309905677,3687.4636948070447,1
-10.56133056133056,25.835784313725497,-8.155566896317081,-121.57547458665034,118.54264867681974,61.73962674397535,-4.229258902791116,-16.808823529411757,6.245901639344249,28.38823529411766,-15.184782608695663,0.6076555023923458,-12.574257425742573,-1.6493506493506538,-59.266666666666666,17.590709164465196,365.1846144013037,14.850893923791048,414.32493785406484,51.855608598897646,3723.792306994355,1
-10.56133056133056,25.835784313725497,-8.155566896317081,-121.57547458665034,118.54264867681974,61.73962674397535,-4.229258902791116,1.8676470588235379,2.0819672131147398,13.447058823529424,-22.08695652173914,-4.25358851674641,-16.346534653465344,-9.8961038961039,-55.03333333333333,15.626648752106977,304.97791188323725,14.850893923791048,414.32493785406484,51.855608598897646,3723.792306994355,1
-10.56133056133056,25.835784313725497,-8.155566896317081,-121.57547458665034,118.54264867681974,61.73962674397535,-4.229258902791116,-41.08823529411764,11.797814207650259,8.964705882352954,-22.08695652173914,-0.6076555023923431,-13.83168316831683,-3.298701298701303,-65.61666666666666,20.911552317742142,486.48571658467824,14.850893923791048,414.32493785406484,51.855608598897646,3723.792306994355,1
-11.584459459459458,27.184640522875824,-8.069150293442197,-121.88655848132272,118.45439805431698,61.60155825330679,-3.740327237728593,-41.08823529411764,11.797814207650259,8.964705882352954,-22.08695652173914,-0.6076555023923431,-13.83168316831683,-3.298701298701303,-65.61666666666666,20.911552317742142,486.48571658467824,15.612750091925827,459.70504648228393,52.38011643254691,3714.7096063877652,1
-11.584459459459458,27.184640522875824,-8.069150293442197,-121.88655848132272,118.45439805431698,61.60155825330679,-3.740327237728593,-48.558823529411754,-7.633879781420779,46.31764705882354,-11.043478260869575,6.68421052631579,-26.405940594059405,-18.142857142857146,-48.68333333333333,26.683771278386416,346.930240844505,15.612750091925827,459.70504648228393,52.38011643254691,3714.7096063877652,1
-10.825363825363823,21.996732026143796,-8.177171047035802,-123.42253521126761,119.79286582894201,46.64413843087516,8.678537054860442,-48.558823529411754,-7.633879781420779,46.31764705882354,-11.043478260869575,6.68421052631579,-26.405940594059405,-18.142857142857146,-48.68333333333333,26.683771278386416,346.930240844505,13.666422299514474,332.4612212910633,51.19881276148241,3959.944629791528,1
-10.825363825363823,21.996732026143796,-8.177171047035802,-123.42253521126761,119.79286582894201,46.64413843087516,8.678537054860442,-37.35294117647058,-95.07650273224046,25.400000000000013,-23.467391304347835,-9.114832535885165,-20.118811881188115,-9.8961038961039,-52.916666666666664,34.167906274112845,811.0069621152804,13.666422299514474,332.4612212910633,51.19881276148241,3959.944629791528,1
-10.825363825363823,21.996732026143796,-8.177171047035802,-123.42253521126761,119.79286582894201,46.64413843087516,8.678537054860442,-14.941176470588227,20.125683060109274,32.87058823529413,-22.08695652173914,16.406698564593302,-20.118811881188115,4.948051948051944,-74.08333333333333,25.697662501862183,442.9145818528904,13.666422299514474,332.4612212910633,51.19881276148241,3959.944629791528,1
-13.894750519750518,20.64787581699347,-7.593858977630341,-123.20866503368035,119.89582488852858,46.87425258198948,8.04292589027915,-14.941176470588227,20.125683060109274,32.87058823529413,-22.08695652173914,16.406698564593302,-20.118811881188115,4.948051948051944,-74.08333333333333,25.697662501862183,442.9145818528904,14.045495104791442,338.41497544589106,50.483466609434714,4009.317703295018,1
-13.894750519750518,20.64787581699347,-7.593858977630341,-123.20866503368035,119.89582488852858,46.87425258198948,8.04292589027915,-9.338235294117638,-21.513661202185805,16.43529411764707,-8.282608695652184,26.129186602870814,-2.5148514851485135,-4.440892098500626e-15,-63.5,18.464229674702754,411.80677242117196,14.045495104791442,338.41497544589106,50.483466609434714,4009.317703295018,1
-13.894750519750518,20.64787581699347,-7.593858977630341,-123.20866503368035,119.89582488852858,46.87425258198948,8.04292589027915,-29.882352941176464,0.6939890710382373,46.31764705882354,-22.08695652173914,-6.684210526315788,-15.089108910891088,8.246753246753242,-61.38333333333333,23.798043951258855,443.4431395215861,14.045495104791442,338.41497544589106,50.483466609434714,4009.317703295018,1
-16.83212058212058,18.36519607843138,-7.26979671684953,-122.91702388242499,120.10174300770166,46.46004710998369,7.798460057747832,-29.882352941176464,0.6939890710382373,46.31764705882354,-22.08695652173914,-6.684210526315788,-15.089108910891088,8.246753246753242,-61.38333333333333,23.798043951258855,443.4431395215861,14.15570445913383,331.24033223693425,49.51733889256863,4071.412289205856,1
-16.83212058212058,18.36519607843138,-7.26979671684953,-122.91702388242499,120.10174300770166,46.46004710998369,7.798460057747832,18.676470588235304,39.55737704918031,61.25882352941178,-19.32608695652175,13.976076555023923,-1.2574257425742559,11.545454545454541,-57.15,27.843464370800234,490.5716457985497,14.15570445913383,331.24033223693425,49.51733889256863,4071.412289205856,1
-16.83212058212058,18.36519607843138,-7.26979671684953,-122.91702388242499,120.10174300770166,46.46004710998369,7.798460057747832,-16.808823529411757,-14.573770491803291,-52.29411764705881,-35.89130434782609,-26.12918660287081,-15.089108910891088,-14.844155844155848,-71.96666666666667,30.949641755085548,452.102125572481,14.15570445913383,331.24033223693425,49.51733889256863,4071.412289205856,1
-15.808991683991682,17.120098039215694,-7.680275580505224,-122.6837109614207,120.29295268979095,46.137887298423664,7.456207892204077,-16.808823529411757,-14.573770491803291,-52.29411764705881,-35.89130434782609,-26.12918660287081,-15.089108910891088,-14.844155844155848,-71.96666666666667,30.949641755085548,452.102125572481,13.536455101237534,294.2432511946452,49.161361527047205,4076.4294617755845,1
-15.808991683991682,17.120098039215694,-7.680275580505224,-122.6837109614207,120.29295268979095,46.137887298423664,7.456207892204077,-44.823529411764696,9.021857923497254,22.411764705882366,-27.60869565217392,-1.822966507177032,-17.603960396039604,-9.8961038961039,-74.08333333333333,25.90902647824651,554.9063623390508,13.536455101237534,294.2432511946452,49.161361527047205,4076.4294617755845,1
-15.808991683991682,17.120098039215694,-7.680275580505224,-122.6837109614207,120.29295268979095,46.137887298423664,7.456207892204077,1.8676470588235379,-22.90163934426231,19.42352941176472,-19.32608695652175,10.330143540669857,-10.059405940594058,6.597402597402592,-48.68333333333333,17.39864852292152,211.21953394051607,13.536455101237534,294.2432511946452,49.161361527047205,4076.4294617755845,1
-13.102650727650726,16.49754901960785,-8.782087267159984,-122.5087262706675,120.3812033122937,46.46004710998369,6.771703561116453,1.8676470588235379,-22.90163934426231,19.42352941176472,-19.32608695652175,10.330143540669857,-10.059405940594058,6.597402597402592,-48.68333333333333,17.39864852292152,211.21953394051607,12.794095671472853,255.64985074750058,49.262787519145114,4038.6077452071972,1
-13.102650727650726,16.49754901960785,-8.782087267159984,-122.5087262706675,120.3812033122937,46.46004710998369,6.771703561116453,14.941176470588243,82.58469945355189,31.376470588235307,-24.84782608695653,-6.684210526315788,-17.603960396039604,4.948051948051944,-55.03333333333333,29.752466100384076,710.2034116269423,12.794095671472853,255.64985074750058,49.262787519145114,4038.6077452071972,1
-13.102650727650726,16.49754901960785,-8.782087267159984,-122.5087262706675,120.3812033122937,46.46004710998369,6.771703561116453,-3.7352941176470504,64.54098360655736,25.400000000000013,-20.706521739130444,-4.25358851674641,-16.346534653465344,-4.948051948051953,-67.73333333333333,25.958038489366487,680.0632578326665,12.794095671472853,255.64985074750058,49.262787519145114,4038.6077452071972,1
-9.967255717255716,17.742647058823536,-9.970315556689625,-122.39206981016534,120.35178643812611,47.51857220510965,5.696053897978857,-3.7352941176470504,64.54098360655736,25.400000000000013,-20.706521739130444,-4.25358851674641,-16.346534653465344,-4.948051948051953,-67.73333333333333,25.958038489366487,680.0632578326665,12.560072777589626,255.974503025202,50.0350108085595,3941.7602747661676,1
-9.967255717255716,17.742647058823536,-9.970315556689625,-122.39206981016534,120.35178643812611,47.51857220510965,5.696053897978857,3.735294117647067,-20.125683060109303,5.976470588235307,-16.56521739130436,5.468899521531101,-12.574257425742573,-9.8961038961039,-57.15,16.4364907500842,302.84721819737337,12.560072777589626,255.974503025202,50.0350108085595,3941.7602747661676,1
-9.967255717255716,17.742647058823536,-9.970315556689625,-122.39206981016534,120.35178643812611,47.51857220510965,5.696053897978857,-11.205882352941169,-0.6939890710382652,37.3529411764706,-11.043478260869575,24.913875598086122,-10.059405940594058,4.948051948051944,-65.61666666666666,20.7292863768398,465.3643635635995,12.560072777589626,255.974503025202,50.0350108085595,3941.7602747661676,1
-9.538201663201662,19.714052287581705,-9.862294803096022,-122.25597060624618,120.26353581562336,48.66914296068131,4.718190567853696,-11.205882352941169,-0.6939890710382652,37.3529411764706,-11.043478260869575,24.913875598086122,-10.059405940594058,4.948051948051944,-65.61666666666666,20.7292863768398,465.3643635635995,13.038182917959796,288.4266174654481,50.610772565641305,3874.0400830913995,1
-9.538201663201662,19.714052287581705,-9.862294803096022,-122.25597060624618,120.26353581562336,48.66914296068131,4.718190567853696,35.485294117647065,50.661202185792334,-11.952941176470574,-24.84782608695653,-16.4066985645933,-8.801980198019802,1.6493506493506445,-33.86666666666667,22.958994955687114,266.4933223443864,13.038182917959796,288.4266174654481,50.610772565641305,3874.0400830913995,1
-9.538201663201662,19.714052287581705,-9.862294803096022,-122.25597060624618,120.26353581562336,48.66914296068131,4.718190567853696,1.8676470588235379,-34.00546448087433,14.941176470588248,-12.423913043478272,15.191387559808613,-8.801980198019802,-18.142857142857146,-52.916666666666664,19.786386577639576,263.2904753072881,13.038182917959796,288.4266174654481,50.610772565641305,3874.0400830913995,1
-10.330301455301454,18.78022875816994,-9.732669898783698,-122.06154317207594,120.1752851931206,49.68164522558436,3.8870067372473613,1.8676470588235379,-34.00546448087433,14.941176470588248,-12.423913043478272,15.191387559808613,-8.801980198019802,-18.142857142857146,-52.916666666666664,19.786386577639576,263.2904753072881,12.947733370751697,276.79425376808086,50.191480609676525,3894.44399987092,1
-10.330301455301454,18.78022875816994,-9.732669898783698,-122.06154317207594,120.1752851931206,49.68164522558436,3.8870067372473613,-35.48529411764705,-24.289617486338813,17.929411764705897,-28.989130434782616,-5.4688995215311,-16.346534653465344,-4.948051948051953,-69.85,25.413367490815347,434.99070047001584,12.947733370751697,276.79425376808086,50.191480609676525,3894.44399987092,1
-10.330301455301454,18.78022875816994,-9.732669898783698,-122.06154317207594,120.1752851931206,49.68164522558436,3.8870067372473613,7.470588235294127,57.60109289617485,26.894117647058835,-24.84782608695653,-16.4066985645933,-16.346534653465344,-9.8961038961039,-65.61666666666666,28.134953580789194,474.52392606636505,12.947733370751697,276.79425376808086,50.191480609676525,3894.44399987092,1
-11.782484407484406,17.431372549019613,-9.883898953814743,-121.69213104715249,120.11645144478544,50.602101830041704,3.0558229066410263,7.470588235294127,57.60109289617485,26.894117647058835,-24.84782608695653,-16.4066985645933,-16.346534653465344,-9.8961038961039,-65.61666666666666,28.134953580789194,474.52392606636505,13.032585303439587,267.19635371225314,49.66913418332894,3904.7251473523306,1
-11.782484407484406,17.431372549019613,-9.883898953814743,-121.69213104715249,120.11645144478544,50.602101830041704,3.0558229066410263,7.470588235294127,-6.245901639344277,-23.905882352941163,-22.08695652173914,23.698564593301434,-12.574257425742573,-29.688311688311693,-59.266666666666666,23.117141140417633,284.6565230799238,13.032585303439587,267.19635371225314,49.66913418332894,3904.7251473523306,1
-11.782484407484406,17.431372549019613,-9.883898953814743,-121.69213104715249,120.11645144478544,50.602101830041704,3.0558229066410263,13.073529411764714,58.98907103825135,26.894117647058835,-17.945652173913054,-5.4688995215311,-7.544554455445543,18.14285714285714,-52.916666666666664,25.12191850718605,409.03534195264234,13.032585303439587,267.19635371225314,49.66913418332894,3904.7251473523306,1
-13.03664241164241,16.49754901960785,-9.127753678659515,-121.32271892222903,120.11645144478544,51.15437579271611,2.469104908565953,13.073529411764714,58.98907103825135,26.894117647058835,-17.945652173913054,-5.4688995215311,-7.544554455445543,18.14285714285714,-52.916666666666664,25.12191850718605,409.03534195264234,12.887315036636592,257.3673355004009,48.98267387349879,3938.390059081106,1
-13.03664241164241,16.49754901960785,-9.127753678659515,-121.32271892222903,120.11645144478544,51.15437579271611,2.469104908565953,-5.60294117647058,-11.797814207650287,22.411764705882366,-23.467391304347835,-33.421052631578945,-21.376237623762375,-6.597402597402602,-65.61666666666666,23.786408864220206,374.31771542122755,12.887315036636592,257.3673355004009,48.98267387349879,3938.390059081106,1
-13.03664241164241,16.49754901960785,-9.127753678659515,-121.32271892222903,120.11645144478544,51.15437579271611,2.469104908565953,-20.544117647058815,-25.677595628415315,35.85882352941178,-23.467391304347835,-7.899521531100476,-16.346534653465344,-8.24675324675325,-67.73333333333333,25.721758859235766,372.9324793358052,12.887315036636592,257.3673355004009,48.98267387349879,3938.390059081106,1
-14.752858627858627,18.57271241830066,-8.803691417878705,-120.9727495407226,120.13115988186922,51.29244428338467,2.2735322425409095,-20.544117647058815,-25.677595628415315,35.85882352941178,-23.467391304347835,-7.899521531100476,-16.346534653465344,-8.24675324675325,-67.73333333333333,25.721758859235766,372.9324793358052,14.043087488012665,315.90896050774785,49.44971779230065,3860.5164956910007,1
-14.752858627858627,18.57271241830066,-8.803691417878705,-120.9727495407226,120.13115988186922,51.29244428338467,2.2735322425409095,8.881784197001252e-15,-9.021857923497281,22.411764705882366,-13.804347826086968,10.330143540669857,-3.772277227722771,14.84415584415584,-55.03333333333333,16.152235050168553,293.86317730815017,14.043087488012665,315.90896050774785,49.44971779230065,3860.5164956910007,1
-14.752858627858627,18.57271241830066,-8.803691417878705,-120.9727495407226,120.13115988186922,51.29244428338467,2.2735322425409095,26.14705882352942,36.781420765027306,34.36470588235295,-27.60869565217392,-20.052631578947366,-16.346534653465344,-14.844155844155848,-52.916666666666664,28.632733733289854,158.69813693327436,14.043087488012665,315.90896050774785,49.44971779230065,3860.5164956910007,1
-14.950883575883575,19.714052287581705,-8.306795951348127,-120.58389467238213,120.13115988186922,51.33846711360758,2.2246390760346912,26.14705882352942,36.781420765027306,34.36470588235295,-27.60869565217392,-20.052631578947366,-16.346534653465344,-14.844155844155848,-52.916666666666664,28.632733733289854,158.69813693327436,14.323910604937803,338.4949358016339,49.534914303770655,3818.499582844639,1
-14.950883575883575,19.714052287581705,-8.306795951348127,-120.58389467238213,120.13115988186922,51.33846711360758,2.2246390760346912,5.602941176470598,-27.065573770491817,56.776470588235306,-5.521739130434794,11.545454545454547,-12.574257425742573,-1.6493506493506538,-52.916666666666664,21.706556744105868,477.55743464273826,14.323910604937803,338.4949358016339,49.534914303770655,3818.499582844639,1
-14.950883575883575,19.714052287581705,-8.306795951348127,-120.58389467238213,120.13115988186922,51.33846711360758,2.2246390760346912,-20.544117647058815,-2.081967213114768,25.400000000000013,-38.652173913043484,-5.4688995215311,-20.118811881188115,-6.597402597402602,-65.61666666666666,23.060004930000698,442.169057938212,14.323910604937803,338.4949358016339,49.534914303770655,3818.499582844639,1
-17.16216216216216,17.431372549019613,-8.587649910691496,-120.0006123698714,120.16057675603682,51.246421453161815,2.2735322425409095,-20.544117647058815,-2.081967213114768,25.400000000000013,-38.652173913043484,-5.4688995215311,-20.118811881188115,-6.597402597402602,-65.61666666666666,23.060004930000698,442.169057938212,14.39372820729109,324.537405653885,48.673211609860836,3835.2514319102856,1
-17.16216216216216,17.431372549019613,-8.587649910691496,-120.0006123698714,120.16057675603682,51.246421453161815,2.2735322425409095,16.808823529411775,67.31693989071036,17.929411764705897,-19.32608695652175,10.330143540669857,-11.316831683168315,1.6493506493506445,-65.61666666666666,26.286781835150656,646.3084344151919,14.39372820729109,324.537405653885,48.673211609860836,3835.2514319102856,1
-17.16216216216216,17.431372549019613,-8.587649910691496,-120.0006123698714,120.16057675603682,51.246421453161815,2.2735322425409095,-11.205882352941169,-10.409836065573785,10.458823529411777,-17.945652173913054,3.0382775119617236,-10.059405940594058,3.2987012987012942,-61.38333333333333,15.974989025803774,358.99793318237636,14.39372820729109,324.537405653885,48.673211609860836,3835.2514319102856,1
-18.5483367983368,17.223856209150334,-8.13396274559836,-119.47565829761176,120.26353581562336,50.69414749048741,2.6157844080847212,-11.205882352941169,-10.409836065573785,10.458823529411777,-17.945652173913054,3.0382775119617236,-10.059405940594058,3.2987012987012942,-61.38333333333333,15.974989025803774,358.99793318237636,14.635385251028497,338.52132693617915,48.27782575078681,3822.5050603189743,1
-18.5483367983368,17.223856209150334,-8.13396274559836,-119.47565829761176,120.26353581562336,50.69414749048741,2.6157844080847212,-22.411764705882344,-24.289617486338813,10.458823529411777,-24.84782608695653,-1.822966507177032,-13.83168316831683,-9.8961038961039,-61.38333333333333,21.11776483919007,330.2684829847754,14.635385251028497,338.52132693617915,48.27782575078681,3822.5050603189743,1
-18.5483367983368,17.223856209150334,-8.13396274559836,-119.47565829761176,120.26353581562336,50.69414749048741,2.6157844080847212,-13.073529411764698,-7.633879781420779,26.894117647058835,-17.945652173913054,7.899521531100479,-15.089108910891088,-14.844155844155848,-63.5,20.859995662538097,333.7286494714495,14.635385251028497,338.52132693617915,48.27782575078681,3822.5050603189743,1
-18.152286902286903,16.082516339869287,-8.198775197754523,-118.9312614819351,120.3664948752099,50.23391918825877,2.7624639076034896,-13.073529411764698,-7.633879781420779,26.894117647058835,-17.945652173913054,7.899521531100479,-15.089108910891088,-14.844155844155848,-63.5,20.859995662538097,333.7286494714495,14.144526146636904,310.1125445027488,47.7375176731863,3816.9502117282855,1
-18.152286902286903,16.082516339869287,-8.198775197754523,-118.9312614819351,120.3664948752099,50.23391918825877,2.7624639076034896,-3.7352941176470504,10.409836065573757,19.42352941176472,-20.706521739130444,9.114832535885167,-15.089108910891088,-8.24675324675325,-57.15,17.984484503455683,283.67285750781673,14.144526146636904,310.1125445027488,47.7375176731863,3816.9502117282855,1
-18.152286902286903,16.082516339869287,-8.198775197754523,-118.9312614819351,120.3664948752099,50.23391918825877,2.7624639076034896,-11.205882352941169,-4.857923497267773,1.494117647058836,-24.84782608695653,0.6076555023923458,-15.089108910891088,-9.8961038961039,-65.61666666666666,16.701910570034787,452.6739721414119,14.144526146636904,310.1125445027488,47.7375176731863,3816.9502117282855,1
-18.383316008316008,16.39379084967321,-8.479629157097893,-118.38686466625842,120.46945393479643,49.81971371625298,2.958036573628533,-11.205882352941169,-4.857923497267773,1.494117647058836,-24.84782608695653,0.6076555023923458,-15.089108910891088,-9.8961038961039,-65.61666666666666,16.701910570034787,452.6739721414119,14.418912005029037,321.0361995820387,47.753428224343175,3757.4702465196174,1
-18.383316008316008,16.39379084967321,-8.479629157097893,-118.38686466625842,120.46945393479643,49.81971371625298,2.958036573628533,8.881784197001252e-15,34.0054644808743,17.929411764705897,-16.56521739130436,1.8229665071770347,-11.316831683168315,-6.597402597402602,-65.61666666666666,19.2317451364124,467.68974739746926,14.418912005029037,321.0361995820387,47.753428224343175,3757.4702465196174,1
-18.383316008316008,16.39379084967321,-8.479629157097893,-118.38686466625842,120.46945393479643,49.81971371625298,2.958036573628533,8.881784197001252e-15,-4.857923497267773,19.42352941176472,-23.467391304347835,1.8229665071770347,-15.089108910891088,-8.24675324675325,-63.5,17.050959109775214,422.4247244806318,14.418912005029037,321.0361995820387,47.753428224343175,3757.4702465196174,1
-19.83549896049896,17.431372549019613,-8.846899719316145,-117.70636864666258,120.51357924604781,49.26743975357857,3.349181905678563,8.881784197001252e-15,-4.857923497267773,19.42352941176472,-23.467391304347835,1.8229665071770347,-15.089108910891088,-8.24675324675325,-63.5,17.050959109775214,422.4247244806318,15.37125707627824,366.68610313317913,47.99488030499945,3663.1919985483564,1
-19.83549896049896,17.431372549019613,-8.846899719316145,-117.70636864666258,120.51357924604781,49.26743975357857,3.349181905678563,-26.147058823529402,-54.82513661202187,-17.92941176470587,-27.60869565217392,-0.6076555023923431,-13.83168316831683,-11.54545454545455,-71.96666666666667,28.057720341907682,568.4951630662375,15.37125707627824,366.68610313317913,47.99488030499945,3663.1919985483564,1
-19.83549896049896,17.431372549019613,-8.846899719316145,-117.70636864666258,120.51357924604781,49.26743975357857,3.349181905678563,-1.867647058823521,10.409836065573757,-14.941176470588225,-30.36956521739131,7.899521531100479,-12.574257425742573,3.2987012987012942,-50.8,16.520088133490145,269.4473376068651,15.37125707627824,366.68610313317913,47.99488030499945,3663.1919985483564,1
-21.98076923076923,11.828431372549026,-9.149357829378236,-116.69534598897735,120.572412994383,48.5310744700127,4.03368623676613,-1.867647058823521,10.409836065573757,-14.941176470588225,-30.36956521739131,7.899521531100479,-12.574257425742573,3.2987012987012942,-50.8,16.520088133490145,269.4473376068651,14.319519477565498,291.29580063127645,45.89104506363487,3761.73113090727,1
-21.98076923076923,11.828431372549026,-9.149357829378236,-116.69534598897735,120.572412994383,48.5310744700127,4.03368623676613,7.470588235294127,2.0819672131147398,23.90588235294119,-17.945652173913054,6.68421052631579,-5.029702970297029,3.2987012987012942,-57.15,15.445838096322152,341.7244450975342,14.319519477565498,291.29580063127645,45.89104506363487,3761.73113090727,1
-21.98076923076923,11.828431372549026,-9.149357829378236,-116.69534598897735,120.572412994383,48.5310744700127,4.03368623676613,-11.205882352941169,-11.797814207650287,4.482352941176483,-6.902173913043489,-5.4688995215311,-21.376237623762375,-4.948051948051953,-63.5,16.210176563519607,396.27410474889996,14.319519477565498,291.29580063127645,45.89104506363487,3761.73113090727,1
-23.928014553014552,3.527777777777782,-8.868503870034866,-115.56766687078996,120.7636226764723,47.15038956332671,4.91376323387874,-11.205882352941169,-11.797814207650287,4.482352941176483,-6.902173913043489,-5.4688995215311,-21.376237623762375,-4.948051948051953,-63.5,16.210176563519607,396.27410474889996,12.108098733609067,189.04619886904518,42.654649506200876,3994.3619147047816,1
-23.928014553014552,3.527777777777782,-8.868503870034866,-115.56766687078996,120.7636226764723,47.15038956332671,4.91376323387874,-18.676470588235286,-6.245901639344277,19.42352941176472,-16.56521739130436,-4.25358851674641,-16.346534653465344,-9.8961038961039,-69.85,20.157168262120535,435.89541242030697,12.108098733609067,189.04619886904518,42.654649506200876,3994.3619147047816,1
-23.928014553014552,3.527777777777782,-8.868503870034866,-115.56766687078996,120.7636226764723,47.15038956332671,4.91376323387874,-13.073529411764698,3.4699453551912427,19.42352941176472,-13.804347826086968,-6.684210526315788,-64.12871287128712,-31.33766233766234,-69.85,27.72149221750911,660.1691750450947,12.108098733609067,189.04619886904518,42.654649506200876,3994.3619147047816,1
-22.277806652806653,-6.433006535947708,-8.738878965722542,-114.3816595223515,121.11662516648329,46.0458416379779,4.864870067372465,-13.073529411764698,3.4699453551912427,19.42352941176472,-13.804347826086968,-6.684210526315788,-64.12871287128712,-31.33766233766234,-69.85,27.72149221750911,660.1691750450947,12.48323071815897,73.27955022028361,43.18451500800725,3803.1043021629134,1
-22.277806652806653,-6.433006535947708,-8.738878965722542,-114.3816595223515,121.11662516648329,46.0458416379779,4.864870067372465,-9.338235294117638,18.737704918032772,43.329411764705895,-13.804347826086968,-9.114832535885165,-18.86138613861386,-13.194805194805198,-69.85,24.52884045903094,454.9924994316912,12.48323071815897,73.27955022028361,43.18451500800725,3803.1043021629134,1
-22.277806652806653,-6.433006535947708,-8.738878965722542,-114.3816595223515,121.11662516648329,46.0458416379779,4.864870067372465,-11.205882352941169,-4.857923497267773,29.882352941176485,-12.423913043478272,7.899521531100479,21.37623762376238,9.896103896103892,-59.266666666666666,19.60107519406214,321.81132685544605,12.48323071815897,73.27955022028361,43.18451500800725,3803.1043021629134,1
-19.20841995841996,-9.026960784313722,-9.81908650165858,-113.33175137783222,121.4549192194105,45.44754484508064,4.278152069297391,-11.205882352941169,-4.857923497267773,29.882352941176485,-12.423913043478272,7.899521531100479,21.37623762376238,9.896103896103892,-59.266666666666666,19.60107519406214,321.81132685544605,12.684822414797422,32.074859471388294,44.05926622126817,3599.164765612809,1
-19.20841995841996,-9.026960784313722,-9.81908650165858,-113.33175137783222,121.4549192194105,45.44754484508064,4.278152069297391,-3.7352941176470504,-0.6939890710382652,-7.470588235294105,-30.36956521739131,5.468899521531101,-3.772277227722771,6.597402597402592,-57.15,14.4072519985034,383.68430005076,12.684822414797422,32.074859471388294,44.05926622126817,3599.164765612809,1
-19.20841995841996,-9.026960784313722,-9.81908650165858,-113.33175137783222,121.4549192194105,45.44754484508064,4.278152069297391,-9.338235294117638,0.6939890710382373,50.80000000000001,-15.184782608695663,3.0382775119617236,-31.435643564356436,-19.792207792207797,-61.38333333333333,23.958308646963854,494.85333903898675,12.684822414797422,32.074859471388294,44.05926622126817,3599.164765612809,1
-16.106029106029105,-4.461601307189536,-9.495024240877768,-112.4957134109002,121.69025421275117,45.263453524189174,3.4958614051973314,-9.338235294117638,0.6939890710382373,50.80000000000001,-15.184782608695663,3.0382775119617236,-31.435643564356436,-19.792207792207797,-61.38333333333333,23.958308646963854,494.85333903898675,10.020884884698804,34.105571753136836,42.150779652989165,3717.641115661013,1
-16.106029106029105,-4.461601307189536,-9.495024240877768,-112.4957134109002,121.69025421275117,45.263453524189174,3.4958614051973314,-3.7352941176470504,14.573770491803264,47.81176470588237,-6.902173913043489,1.8229665071770347,-40.23762376237624,-13.194805194805198,-55.03333333333333,22.913966503258496,454.9590578636417,10.020884884698804,34.105571753136836,42.150779652989165,3717.641115661013,1
-16.106029106029105,-4.461601307189536,-9.495024240877768,-112.4957134109002,121.69025421275117,45.263453524189174,3.4958614051973314,8.881784197001252e-15,3.4699453551912427,-22.41176470588234,-30.36956521739131,11.545454545454547,-20.118811881188115,-3.298701298701303,-52.916666666666664,18.016363708809443,312.7203532470488,10.020884884698804,34.105571753136836,42.150779652989165,3717.641115661013,1
-16.733108108108105,-2.2826797385620843,-9.948711405970904,-111.62078995713411,121.86675545775665,45.079362203297705,3.0069297401347512,8.881784197001252e-15,3.4699453551912427,-22.41176470588234,-30.36956521739131,11.545454545454547,-20.118811881188115,-3.298701298701303,-52.916666666666664,18.016363708809443,312.7203532470488,9.654833084213697,52.26849336684424,41.28406036722237,3725.1336574347033,1
-16.733108108108105,-2.2826797385620843,-9.948711405970904,-111.62078995713411,121.86675545775665,45.079362203297705,3.0069297401347512,-5.60294117647058,-4.857923497267773,5.976470588235307,-85.58695652173914,-13.976076555023923,-12.574257425742573,-8.24675324675325,-59.266666666666666,24.5110057097374,934.787410461073,9.654833084213697,52.26849336684424,41.28406036722237,3725.1336574347033,1
-16.733108108108105,-2.2826797385620843,-9.948711405970904,-111.62078995713411,121.86675545775665,45.079362203297705,3.0069297401347512,-7.470588235294109,2.0819672131147398,28.38823529411766,-20.706521739130444,0.6076555023923458,-8.801980198019802,-4.948051948051953,-63.5,17.063125016265133,442.8816654051522,9.654833084213697,52.26849336684424,41.28406036722237,3725.1336574347033,1
-13.465696465696464,-7.9893790849673145,-9.624649145190093,-110.88196570728721,122.1756326365163,45.30947635441203,1.4912415784408495,-7.470588235294109,2.0819672131147398,28.38823529411766,-20.706521739130444,0.6076555023923458,-8.801980198019802,-4.948051948051953,-63.5,17.063125016265133,442.8816654051522,10.35990823195129,7.902967457117726,42.831997979148206,3473.767107893035,1
-13.465696465696464,-7.9893790849673145,-9.624649145190093,-110.88196570728721,122.1756326365163,45.30947635441203,1.4912415784408495,-9.338235294117638,-10.409836065573785,34.36470588235295,-1.0658141036401503e-14,-15.19138755980861,-25.148514851485146,-1.6493506493506538,-59.266666666666666,19.421087121169432,391.07936093237004,10.35990823195129,7.902967457117726,42.831997979148206,3473.767107893035,1
-13.465696465696464,-7.9893790849673145,-9.624649145190093,-110.88196570728721,122.1756326365163,45.30947635441203,1.4912415784408495,-24.279411764705873,-13.185792349726789,-5.97647058823528,-19.32608695652175,13.976076555023923,15.089108910891092,6.597402597402592,-57.15,19.44754371531341,268.5107550614229,10.35990823195129,7.902967457117726,42.831997979148206,3473.767107893035,1
-5.9077442827442805,-20.232843137254896,-11.331377051969033,-110.02648499693815,122.48450981527591,47.28845805399533,-2.029066410009591,-24.279411764705873,-13.185792349726789,-5.97647058823528,-19.32608695652175,13.976076555023923,15.089108910891092,6.597402597402592,-57.15,19.44754371531341,268.5107550614229,12.490654823989404,52.31005801240073,47.1969017287207,2980.476424860277,1
-5.9077442827442805,-20.232843137254896,-11.331377051969033,-110.02648499693815,122.48450981527591,47.28845805399533,-2.029066410009591,-5.60294117647058,10.409836065573757,38.84705882352942,-1.0658141036401503e-14,22.483253588516746,-3.772277227722771,-3.298701298701303,-59.266666666666666,17.96009185589766,444.4969136633989,12.490654823989404,52.31005801240073,47.1969017287207,2980.476424860277,1
-5.9077442827442805,-20.232843137254896,-11.331377051969033,-110.02648499693815,122.48450981527591,47.28845805399533,-2.029066410009591,-13.073529411764698,-6.245901639344277,14.941176470588248,-27.60869565217392,-9.114832535885165,-16.346534653465344,4.948051948051944,-59.266666666666666,18.943173622242533,315.9952909487768,12.490654823989404,52.31005801240073,47.1969017287207,2980.476424860277,1
-5.709719334719333,-18.46895424836601,-13.383771370247505,-109.07379056950398,122.63159418611383,49.68164522558436,-5.5982675649663065,-13.073529411764698,-6.245901639344277,14.941176470588248,-27.60869565217392,-9.114832535885165,-16.346534653465344,4.948051948051944,-59.266666666666666,18.943173622242533,315.9952909487768,12.52081498444428,41.258039188254,46.97550539603916,2898.6125373396976,1
-5.709719334719333,-18.46895424836601,-13.383771370247505,-109.07379056950398,122.63159418611383,49.68164522558436,-5.5982675649663065,-11.205882352941169,9.021857923497254,11.9529411764706,-26.228260869565226,24.913875598086122,-11.316831683168315,-4.948051948051953,-61.38333333333333,20.121379360639246,334.28137679508484,12.52081498444428,41.258039188254,46.97550539603916,2898.6125373396976,1
-5.709719334719333,-18.46895424836601,-13.383771370247505,-109.07379056950398,122.63159418611383,49.68164522558436,-5.5982675649663065,13.073529411764714,11.797814207650259,26.894117647058835,-19.32608695652175,18.83732057416268,-12.574257425742573,-1.6493506493506538,-65.61666666666666,21.221142942364764,375.06077548753456,12.52081498444428,41.258039188254,46.97550539603916,2898.6125373396976,1
-6.072765072765071,-8.093137254901954,-11.677043463468564,-108.37385180649113,122.74926168278418,51.75267258561337,-8.629643888354167,13.073529411764714,11.797814207650259,26.894117647058835,-19.32608695652175,18.83732057416268,-12.574257425742573,-1.6493506493506538,-65.61666666666666,21.221142942364764,375.06077548753456,8.614315263711864,8.055703957776831,42.71467750828722,3236.556473069391,1
-6.072765072765071,-8.093137254901954,-11.677043463468564,-108.37385180649113,122.74926168278418,51.75267258561337,-8.629643888354167,13.073529411764714,39.55737704918031,82.1764705882353,-23.467391304347835,-4.25358851674641,-16.346534653465344,3.2987012987012942,-44.45,28.327949102805153,698.7997944282312,8.614315263711864,8.055703957776831,42.71467750828722,3236.556473069391,1
-6.072765072765071,-8.093137254901954,-11.677043463468564,-108.37385180649113,122.74926168278418,51.75267258561337,-8.629643888354167,-1.867647058823521,6.245901639344249,-2.9882352941176364,-22.08695652173914,9.114832535885167,-17.603960396039604,-8.24675324675325,-61.38333333333333,16.192202503254485,381.5236228780288,8.614315263711864,8.055703957776831,42.71467750828722,3236.556473069391,1
-5.2806652806652785,3.00898692810458,-10.68325253040741,-108.12109614206982,122.80809543111934,53.54756296430514,-10.97651588065446,-1.867647058823521,6.245901639344249,-2.9882352941176364,-22.08695652173914,9.114832535885167,-17.603960396039604,-8.24675324675325,-61.38333333333333,16.192202503254485,381.5236228780288,6.324301579725756,47.56395068711199,40.604445200193936,3433.597203939004,1
-5.2806652806652785,3.00898692810458,-10.68325253040741,-108.12109614206982,122.80809543111934,53.54756296430514,-10.97651588065446,-24.279411764705873,-27.065573770491817,-17.92941176470587,-1.0658141036401503e-14,30.99043062200957,6.28712871287129,1.6493506493506445,-61.38333333333333,21.19808007718355,402.7426971414828,6.324301579725756,47.56395068711199,40.604445200193936,3433.597203939004,1
-5.2806652806652785,3.00898692810458,-10.68325253040741,-108.12109614206982,122.80809543111934,53.54756296430514,-10.97651588065446,-29.882352941176464,-27.065573770491817,32.87058823529413,-20.706521739130444,23.698564593301434,-2.5148514851485135,-11.54545454545455,-67.73333333333333,27.002155080416333,370.1218984686167,6.324301579725756,47.56395068711199,40.604445200193936,3433.597203939004,1
-14.125779625779625,15.252450980392164,-10.748064982563573,-107.42115737905695,122.64630262319764,54.32995107809387,-11.416554379210766,-29.882352941176464,-27.065573770491817,32.87058823529413,-20.706521739130444,23.698564593301434,-2.5148514851485135,-11.54545454545455,-67.73333333333333,27.002155080416333,370.1218984686167,13.375431862911787,258.41937001672017,44.47389111400423,2976.841120986942,1
-14.125779625779625,15.252450980392164,-10.748064982563573,-107.42115737905695,122.64630262319764,54.32995107809387,-11.416554379210766,-5.60294117647058,-0.6939890710382652,-25.39999999999999,-8.282608695652184,13.976076555023923,-11.316831683168315,-8.24675324675325,-63.5,17.127400053513316,403.2162644354553,13.375431862911787,258.41937001672017,44.47389111400423,2976.841120986942,1
-14.125779625779625,15.252450980392164,-10.748064982563573,-107.42115737905695,122.64630262319764,54.32995107809387,-11.416554379210766,39.22058823529413,15.961748633879767,-19.42352941176469,-20.706521739130444,15.191387559808613,-13.83168316831683,4.948051948051944,-46.56666666666666,21.981272170364136,192.66946661164255,13.375431862911787,258.41937001672017,44.47389111400423,2976.841120986942,1
-16.83212058212058,15.771241830065367,-10.013523858127067,-106.7212186160441,122.60217731194626,54.606088059431045,-11.661020211742027,39.22058823529413,15.961748633879767,-19.42352941176469,-20.706521739130444,15.191387559808613,-13.83168316831683,4.948051948051944,-46.56666666666666,21.981272170364136,192.66946661164255,14.205628756771004,295.72110724329673,44.16866143474551,2942.904636500817,1
-16.83212058212058,15.771241830065367,-10.013523858127067,-106.7212186160441,122.60217731194626,54.606088059431045,-11.661020211742027,-13.073529411764698,-35.393442622950836,-2.9882352941176364,-37.271739130434796,-30.99043062200957,-15.089108910891088,-4.440892098500626e-15,-65.61666666666666,25.05289408235441,470.59713815114276,14.205628756771004,295.72110724329673,44.16866143474551,2942.904636500817,1
-16.83212058212058,15.771241830065367,-10.013523858127067,-106.7212186160441,122.60217731194626,54.606088059431045,-11.661020211742027,-24.279411764705873,-14.573770491803291,52.29411764705884,-26.228260869565226,20.05263157894737,-2.5148514851485135,-4.948051948051953,-63.5,26.048886973160133,465.8986656720699,14.205628756771004,295.72110724329673,44.16866143474551,2942.904636500817,1
-20.13253638253638,16.39379084967321,-8.155566896317081,-105.94350887936314,122.69042793444899,54.1458597572024,-11.514340712223259,-24.279411764705873,-14.573770491803291,52.29411764705884,-26.228260869565226,20.05263157894737,-2.5148514851485135,-4.948051948051953,-63.5,26.048886973160133,465.8986656720699,14.893964709508891,346.7152241481496,43.49762220845114,2941.5836550637005,1
-20.13253638253638,16.39379084967321,-8.155566896317081,-105.94350887936314,122.69042793444899,54.1458597572024,-11.514340712223259,7.470588235294127,27.06557377049179,46.31764705882354,-42.79347826086958,-17.622009569377987,-21.376237623762375,-1.6493506493506538,-55.03333333333333,27.41602731266292,364.38852078859566,14.893964709508891,346.7152241481496,43.49762220845114,2941.5836550637005,1
-20.13253638253638,16.39379084967321,-8.155566896317081,-105.94350887936314,122.69042793444899,54.1458597572024,-11.514340712223259,-13.073529411764698,-13.185792349726789,50.80000000000001,-23.467391304347835,-13.976076555023923,-11.316831683168315,8.246753246753242,-63.5,24.695796818848102,431.53457656986205,14.893964709508891,346.7152241481496,43.49762220845114,2941.5836550637005,1
-16.37006237006237,13.903594771241837,-8.630858212128938,-105.45744029393754,122.80809543111934,54.053814096756696,-11.954379210779564,-13.073529411764698,-13.185792349726789,50.80000000000001,-23.467391304347835,-13.976076555023923,-11.316831683168315,8.246753246753242,-63.5,24.695796818848102,431.53457656986205,12.968171784477713,247.36519482786022,42.66396442576944,2964.215896410109,1
-16.37006237006237,13.903594771241837,-8.630858212128938,-105.45744029393754,122.80809543111934,54.053814096756696,-11.954379210779564,-41.08823529411764,-9.021857923497281,14.941176470588248,-15.184782608695663,-0.6076555023923431,-11.316831683168315,-14.844155844155848,-76.2,22.900586915826917,597.5981736772491,12.968171784477713,247.36519482786022,42.66396442576944,2964.215896410109,1
-16.37006237006237,13.903594771241837,-8.630858212128938,-105.45744029393754,122.80809543111934,54.053814096756696,-11.954379210779564,-14.941176470588227,9.021857923497254,31.376470588235307,-5.521739130434794,1.8229665071770347,-18.86138613861386,-16.493506493506498,-61.38333333333333,19.92780457317329,363.0986407117066,12.968171784477713,247.36519482786022,42.66396442576944,2964.215896410109,1
-14.224792099792099,14.837418300653601,-9.732669898783698,-105.14635639926516,122.76397011986796,54.007791266533786,-11.807699711260796,-14.941176470588227,9.021857923497254,31.376470588235307,-5.521739130434794,1.8229665071770347,-18.86138613861386,-16.493506493506498,-61.38333333333333,19.92780457317329,363.0986407117066,12.9316267664098,244.74674489278243,43.23881486623415,2880.9223880595673,1
-14.224792099792099,14.837418300653601,-9.732669898783698,-105.14635639926516,122.76397011986796,54.007791266533786,-11.807699711260796,-13.073529411764698,3.4699453551912427,28.38823529411766,-13.804347826086968,-17.622009569377987,-15.089108910891088,-8.24675324675325,-61.38333333333333,20.13465786843953,330.0447162064411,12.9316267664098,244.74674489278243,43.23881486623415,2880.9223880595673,1
-14.224792099792099,14.837418300653601,-9.732669898783698,-105.14635639926516,122.76397011986796,54.007791266533786,-11.807699711260796,-5.60294117647058,13.185792349726762,20.91764705882354,-22.08695652173914,-24.913875598086122,-22.633663366336634,-3.298701298701303,-63.5,22.01744717123551,346.9444545768925,12.9316267664098,244.74674489278243,43.23881486623415,2880.9223880595673,1
-10.660343035343034,17.120098039215694,-12.217147231436584,-104.89360073484384,122.45509294110835,54.882225040768276,-11.612127045235809,-5.60294117647058,13.185792349726762,20.91764705882354,-22.08695652173914,-24.913875598086122,-22.633663366336634,-3.298701298701303,-63.5,22.01744717123551,346.9444545768925,13.332529435331772,272.4750842787356,44.74361533516537,2719.525289342025,1
-10.660343035343034,17.120098039215694,-12.217147231436584,-104.89360073484384,122.45509294110835,54.882225040768276,-11.612127045235809,-24.279411764705873,-27.065573770491817,-43.32941176470587,-12.423913043478272,46.78947368421052,-6.287128712871286,-4.440892098500626e-15,-63.5,27.959364092557955,480.15016710989994,13.332529435331772,272.4750842787356,44.74361533516537,2719.525289342025,1
-10.660343035343034,17.120098039215694,-12.217147231436584,-104.89360073484384,122.45509294110835,54.882225040768276,-11.612127045235809,-3.7352941176470504,17.34972677595627,20.91764705882354,-15.184782608695663,16.406698564593302,-11.316831683168315,4.948051948051944,-63.5,19.16987909461701,356.7429374134078,13.332529435331772,272.4750842787356,44.74361533516537,2719.525289342025,1
-6.5348232848232835,19.921568627450988,-13.988687590371686,-104.62140232700551,121.94029764317563,56.90722957057437,-12.101058710298332,-3.7352941176470504,17.34972677595627,20.91764705882354,-15.184782608695663,16.406698564593302,-11.316831683168315,4.948051948051944,-63.5,19.16987909461701,356.7429374134078,13.48169316754865,317.56770714329355,46.17721951494273,2570.5916477773953,1
-6.5348232848232835,19.921568627450988,-13.988687590371686,-104.62140232700551,121.94029764317563,56.90722957057437,-12.101058710298332,-13.073529411764698,29.841530054644796,23.90588235294119,-24.84782608695653,23.698564593301434,-7.544554455445543,-19.792207792207797,-59.266666666666666,25.24634517674108,239.16110487419408,13.48169316754865,317.56770714329355,46.17721951494273,2570.5916477773953,1
-6.5348232848232835,19.921568627450988,-13.988687590371686,-104.62140232700551,121.94029764317563,56.90722957057437,-12.101058710298332,-14.941176470588227,-4.857923497267773,-31.37647058823528,-53.83695652173914,-34.63636363636363,-20.118811881188115,-24.740259740259745,-74.08333333333333,32.323911958621906,496.56024313043014,13.48169316754865,317.56770714329355,46.17721951494273,2570.5916477773953,1
-5.412681912681911,21.789215686274517,-15.090499277026446,-104.27143294549909,121.30783484857258,59.530530893277785,-12.834456207892174,-14.941176470588227,-4.857923497267773,-31.37647058823528,-53.83695652173914,-34.63636363636363,-20.118811881188115,-24.740259740259745,-74.08333333333333,32.323911958621906,496.56024313043014,14.097465625327624,365.6194596160075,47.05038263626668,2466.904649251662,1
-5.412681912681911,21.789215686274517,-15.090499277026446,-104.27143294549909,121.30783484857258,59.530530893277785,-12.834456207892174,11.205882352941185,27.06557377049179,65.74117647058824,-1.380434782608706,44.358851674641144,-1.2574257425742559,-4.440892098500626e-15,-61.38333333333333,26.549084765897334,754.3280291439359,14.097465625327624,365.6194596160075,47.05038263626668,2466.904649251662,1
-5.412681912681911,21.789215686274517,-15.090499277026446,-104.27143294549909,121.30783484857258,59.530530893277785,-12.834456207892174,18.676470588235304,56.21311475409835,10.458823529411777,-26.228260869565226,-37.06698564593301,-25.148514851485146,-14.844155844155848,-50.8,29.92954076036058,278.1731982400094,14.097465625327624,365.6194596160075,47.05038263626668,2466.904649251662,1
-4.0265072765072745,18.987745098039223,-15.630603044994466,-103.97979179424372,120.66066361688573,62.1538322159812,-13.518960538979798,18.676470588235304,56.21311475409835,10.458823529411777,-26.228260869565226,-37.06698564593301,-25.148514851485146,-14.844155844155848,-50.8,29.92954076036058,278.1731982400094,12.88161847318032,310.45681318597093,46.19937997909247,2506.7495928374333,1
-4.0265072765072745,18.987745098039223,-15.630603044994466,-103.97979179424372,120.66066361688573,62.1538322159812,-13.518960538979798,13.073529411764714,2.0819672131147398,-7.470588235294105,-17.945652173913054,34.63636363636363,1.7763568394002505e-15,11.545454545454541,-59.266666666666666,18.25252773532143,390.4832448350099,12.88161847318032,310.45681318597093,46.19937997909247,2506.7495928374333,1
-4.0265072765072745,18.987745098039223,-15.630603044994466,-103.97979179424372,120.66066361688573,62.1538322159812,-13.518960538979798,-9.338235294117638,-13.185792349726789,28.38823529411766,-26.228260869565226,0.6076555023923458,-16.346534653465344,11.545454545454541,-46.56666666666666,19.025854396938275,204.04952155410567,12.88161847318032,310.45681318597093,46.19937997909247,2506.7495928374333,1
-3.5644490644490627,17.742647058823536,-16.797227183805386,-103.43539497856706,119.88111645144477,65.2833846711361,-14.399037536092408,-9.338235294117638,-13.185792349726789,28.38823529411766,-26.228260869565226,0.6076555023923458,-16.346534653465344,11.545454545454541,-46.56666666666666,19.025854396938275,204.04952155410567,12.70144110235933,303.6836124431858,45.99175640706533,2475.052163935011,1
-3.5644490644490627,17.742647058823536,-16.797227183805386,-103.43539497856706,119.88111645144477,65.2833846711361,-14.399037536092408,3.735294117647067,17.34972677595627,22.411764705882366,-28.989130434782616,11.545454545454547,-16.346534653465344,-14.844155844155848,-61.38333333333333,22.075674301334672,306.8154921068957,12.70144110235933,303.6836124431858,45.99175640706533,2475.052163935011,1
-3.5644490644490627,17.742647058823536,-16.797227183805386,-103.43539497856706,119.88111645144477,65.2833846711361,-14.399037536092408,-7.470588235294109,6.245901639344249,59.764705882352956,4.141304347826075,38.282296650717704,-1.2574257425742559,-4.948051948051953,-67.73333333333333,23.73045097243683,751.160005544291,12.70144110235933,303.6836124431858,45.99175640706533,2475.052163935011,1
-6.270790020790019,30.712418300653603,-18.87122565280258,-102.4049295774648,118.63089929932246,68.91918825874257,-14.203464870067364,-7.470588235294109,6.245901639344249,59.764705882352956,4.141304347826075,38.282296650717704,-1.2574257425742559,-4.948051948051953,-67.73333333333333,23.73045097243683,751.160005544291,18.618144658082066,664.1777372611501,50.662857843640325,2042.9849513120582,1
-6.270790020790019,30.712418300653603,-18.87122565280258,-102.4049295774648,118.63089929932246,68.91918825874257,-14.203464870067364,-35.48529411764705,-65.9289617486339,17.929411764705897,-12.423913043478272,-55.29665071770334,-26.405940594059405,1.6493506493506445,-69.85,35.621190329447316,652.4905786189336,18.618144658082066,664.1777372611501,50.662857843640325,2042.9849513120582,1
-6.270790020790019,30.712418300653603,-18.87122565280258,-102.4049295774648,118.63089929932246,68.91918825874257,-14.203464870067364,-31.749999999999993,-7.633879781420779,-10.458823529411752,-9.66304347826088,32.20574162679426,-5.029702970297029,-3.298701298701303,-59.266666666666666,19.913319918944083,383.24349308323923,18.618144658082066,664.1777372611501,50.662857843640325,2042.9849513120582,1
-9.505197505197504,45.5498366013072,-23.688951263077307,-100.63563992651562,116.6305518559268,73.47544845080631,-12.541097208854637,-31.749999999999993,-7.633879781420779,-10.458823529411752,-9.66304347826088,32.20574162679426,-5.029702970297029,-3.298701298701303,-59.266666666666666,19.913319918944083,383.24349308323923,26.247995123194006,1337.7075660103008,56.62480926363338,1572.1894886704808,1
-9.505197505197504,45.5498366013072,-23.688951263077307,-100.63563992651562,116.6305518559268,73.47544845080631,-12.541097208854637,-20.544117647058815,-58.98907103825138,-29.882352941176457,-33.1304347826087,-7.899521531100476,-17.603960396039604,-4.440892098500626e-15,-63.5,28.94368229202943,513.5728433011334,26.247995123194006,1337.7075660103008,56.62480926363338,1572.1894886704808,1
-9.505197505197504,45.5498366013072,-23.688951263077307,-100.63563992651562,116.6305518559268,73.47544845080631,-12.541097208854637,50.426470588235304,63.15300546448086,49.30588235294119,-17.945652173913054,-37.06698564593301,-6.287128712871286,11.545454545454541,-42.33333333333333,34.75798910214532,422.6004420619308,26.247995123194006,1337.7075660103008,56.62480926363338,1572.1894886704808,1
-17.393191268191266,42.644607843137265,-24.85557540188823,-98.30251071647275,114.51253691586078,76.97318354774416,-9.314148219441734,50.426470588235304,63.15300546448086,49.30588235294119,-17.945652173913054,-37.06698564593301,-6.287128712871286,11.545454545454541,-42.33333333333333,34.75798910214532,422.6004420619308,28.29779150440559,1369.4165395338523,55.26756465383276,1468.1173557597033,1
-17.393191268191266,42.644607843137265,-24.85557540188823,-98.30251071647275,114.51253691586078,76.97318354774416,-9.314148219441734,7.470588235294127,35.3934426229508,5.976470588235307,-9.66304347826088,-5.4688995215311,-23.89108910891089,-16.493506493506498,-65.61666666666666,21.246713339419536,429.2130227289703,28.29779150440559,1369.4165395338523,55.26756465383276,1468.1173557597033,1
-17.393191268191266,42.644607843137265,-24.85557540188823,-98.30251071647275,114.51253691586078,76.97318354774416,-9.314148219441734,-57.897058823529406,-28.45355191256832,11.9529411764706,-20.706521739130444,20.05263157894737,-10.059405940594058,-6.597402597402602,-80.43333333333334,29.519105887747017,682.6617851605014,28.29779150440559,1369.4165395338523,55.26756465383276,1468.1173557597033,1
-25.380197505197504,36.937908496732035,-26.25984519860508,-95.52219840783835,112.32097979037582,78.99818807755031,-4.42483156881616,-57.897058823529406,-28.45355191256832,11.9529411764706,-20.706521739130444,20.05263157894737,-10.059405940594058,-6.597402597402602,-80.43333333333334,29.519105887747017,682.6617851605014,29.525983733511538,1313.0460313114565,52.90665070105849,1390.5689387113239,1
-25.380197505197504,36.937908496732035,-26.25984519860508,-95.52219840783835,112.32097979037582,78.99818807755031,-4.42483156881616,-7.470588235294109,-31.229508196721326,83.67058823529413,-49.69565217391305,-33.421052631578945,-20.118811881188115,-1.6493506493506538,-48.68333333333333,34.49236066708421,696.8934498339586,29.525983733511538,1313.0460313114565,52.90665070105849,1390.5689387113239,1
-25.380197505197504,36.937908496732035,-26.25984519860508,-95.52219840783835,112.32097979037582,78.99818807755031,-4.42483156881616,-29.882352941176464,-25.677595628415315,31.376470588235307,-2.7608695652174013,67.44976076555024,15.089108910891092,-6.597402597402602,-71.96666666666667,31.350028457944386,668.811890653518,29.525983733511538,1313.0460313114565,52.90665070105849,1390.5689387113239,1
