,Gyro 0,Gyro 1,Gyro 2,Label,Orientation 0,Orientation 1,Orientation 2,Orientation 3,Sensor 0,Sensor 1,Sensor 2,Sensor 3,Sensor 4,Sensor 5,Sensor 6,Sensor 7,Timestamp
0,-36.0,13.0,21.0,1.0,-12386.0,-9672.0,4635.0,-111.0,-7.0,-14.0,-10.0,14.0,53.0,0.0,-1.0,-1.0,2.86102294921875e-06
1,-36.0,13.0,21.0,1.0,-12386.0,-9672.0,4635.0,-111.0,2.0,-4.0,-49.0,2.0,6.0,3.0,-3.0,5.0,0.002384662628173828
2,-36.0,13.0,21.0,1.0,-12386.0,-9672.0,4635.0,-111.0,5.0,6.0,-7.0,-6.0,-12.0,0.0,-1.0,3.0,0.004508495330810547
3,21.0,2.0,7.0,1.0,-12383.0,-9675.0,4636.0,-113.0,5.0,6.0,-7.0,-6.0,-12.0,0.0,-1.0,3.0,0.008098602294921875
4,21.0,2.0,7.0,1.0,-12383.0,-9675.0,4636.0,-113.0,1.0,5.0,3.0,-1.0,-9.0,7.0,4.0,1.0,0.011588096618652344
5,43.0,10.0,17.0,1.0,-12378.0,-9681.0,4637.0,-119.0,1.0,5.0,3.0,-1.0,-9.0,7.0,4.0,1.0,0.013460874557495117
6,43.0,10.0,17.0,1.0,-12378.0,-9681.0,4637.0,-119.0,1.0,-2.0,3.0,-6.0,-3.0,1.0,-2.0,-3.0,0.015380859375
7,43.0,10.0,17.0,1.0,-12378.0,-9681.0,4637.0,-119.0,3.0,-2.0,5.0,-4.0,4.0,2.0,0.0,-1.0,0.01717352867126465
8,41.0,8.0,24.0,1.0,-12372.0,-9689.0,4636.0,-122.0,3.0,-2.0,5.0,-4.0,4.0,2.0,0.0,-1.0,0.020633697509765625
9,41.0,8.0,24.0,1.0,-12372.0,-9689.0,4636.0,-122.0,-1.0,0.0,5.0,0.0,-1.0,-10.0,-32.0,4.0,0.02483844757080078
10,41.0,8.0,24.0,1.0,-12372.0,-9689.0,4636.0,-122.0,-6.0,-16.0,-1.0,-5.0,-1.0,-1.0,-12.0,-1.0,0.026855945587158203
11,-47.0,7.0,21.0,1.0,-12374.0,-9687.0,4636.0,-120.0,-6.0,-16.0,-1.0,-5.0,-1.0,-1.0,-12.0,-1.0,0.028682947158813477
12,-47.0,7.0,21.0,1.0,-12374.0,-9687.0,4636.0,-120.0,-1.0,-12.0,-15.0,7.0,9.0,4.0,2.0,-4.0,0.03059554100036621
13,-47.0,7.0,21.0,1.0,-12374.0,-9687.0,4636.0,-120.0,-1.0,-3.0,9.0,-1.0,-43.0,8.0,6.0,-1.0,0.03238797187805176
14,-63.0,-15.0,15.0,1.0,-12377.0,-9680.0,4641.0,-118.0,-1.0,-3.0,9.0,-1.0,-43.0,8.0,6.0,-1.0,0.03419613838195801
15,-63.0,-15.0,15.0,1.0,-12377.0,-9680.0,4641.0,-118.0,5.0,7.0,4.0,-6.0,3.0,0.0,6.0,4.0,0.036051034927368164
16,-63.0,-15.0,15.0,1.0,-12377.0,-9680.0,4641.0,-118.0,-2.0,15.0,-8.0,3.0,5.0,-3.0,3.0,-5.0,0.03784370422363281
17,39.0,-5.0,-5.0,1.0,-12372.0,-9685.0,4643.0,-121.0,-2.0,15.0,-8.0,3.0,5.0,-3.0,3.0,-5.0,0.04075264930725098
18,39.0,-5.0,-5.0,1.0,-12372.0,-9685.0,4643.0,-121.0,3.0,2.0,6.0,-6.0,-2.0,-7.0,7.0,-1.0,0.04279923439025879
19,39.0,-5.0,-5.0,1.0,-12372.0,-9685.0,4643.0,-121.0,2.0,0.0,0.0,0.0,0.0,-2.0,-5.0,-6.0,0.044603586196899414
20,73.0,17.0,8.0,1.0,-12364.0,-9697.0,4639.0,-124.0,2.0,0.0,0.0,0.0,0.0,-2.0,-5.0,-6.0,0.04643845558166504
21,73.0,17.0,8.0,1.0,-12364.0,-9697.0,4639.0,-124.0,-2.0,-2.0,13.0,8.0,6.0,3.0,6.0,-6.0,0.048284053802490234
22,73.0,17.0,8.0,1.0,-12364.0,-9697.0,4639.0,-124.0,-2.0,-3.0,-2.0,-1.0,11.0,-7.0,-4.0,4.0,0.05005979537963867
23,-28.0,20.0,5.0,1.0,-12366.0,-9698.0,4634.0,-122.0,-2.0,-3.0,-2.0,-1.0,11.0,-7.0,-4.0,4.0,0.0526881217956543
24,-28.0,20.0,5.0,1.0,-12366.0,-9698.0,4634.0,-122.0,0.0,0.0,39.0,-9.0,7.0,2.0,1.0,-8.0,0.056105852127075195
25,-28.0,20.0,5.0,1.0,-12366.0,-9698.0,4634.0,-122.0,-4.0,5.0,17.0,-2.0,-24.0,-1.0,-1.0,-4.0,0.058896780014038086
26,-96.0,7.0,1.0,1.0,-12374.0,-9688.0,4633.0,-116.0,-4.0,5.0,17.0,-2.0,-24.0,-1.0,-1.0,-4.0,0.060775041580200195
27,-96.0,7.0,1.0,1.0,-12374.0,-9688.0,4633.0,-116.0,-3.0,6.0,2.0,-4.0,-6.0,3.0,4.0,3.0,0.06268143653869629
28,-96.0,7.0,1.0,1.0,-12374.0,-9688.0,4633.0,-116.0,-4.0,-8.0,-25.0,-10.0,-27.0,-7.0,-4.0,0.0,0.0644831657409668
29,-30.0,0.0,12.0,1.0,-12374.0,-9686.0,4637.0,-118.0,-4.0,-8.0,-25.0,-10.0,-27.0,-7.0,-4.0,0.0,0.0662832260131836
30,-30.0,0.0,12.0,1.0,-12374.0,-9686.0,4637.0,-118.0,2.0,21.0,6.0,0.0,2.0,8.0,-10.0,-3.0,0.06835293769836426
31,-30.0,0.0,12.0,1.0,-12374.0,-9686.0,4637.0,-118.0,5.0,0.0,-8.0,9.0,3.0,2.0,0.0,3.0,0.07016944885253906
32,27.0,8.0,20.0,1.0,-12369.0,-9692.0,4639.0,-123.0,5.0,0.0,-8.0,9.0,3.0,2.0,0.0,3.0,0.07197427749633789
33,27.0,8.0,20.0,1.0,-12369.0,-9692.0,4639.0,-123.0,-1.0,-10.0,-17.0,14.0,21.0,11.0,-7.0,2.0,0.07382035255432129
34,27.0,8.0,20.0,1.0,-12369.0,-9692.0,4639.0,-123.0,-2.0,-4.0,9.0,6.0,7.0,-11.0,-11.0,5.0,0.07557415962219238
35,3.0,7.0,23.0,1.0,-12365.0,-9694.0,4643.0,-128.0,-2.0,-4.0,9.0,6.0,7.0,-11.0,-11.0,5.0,0.07735872268676758
36,3.0,7.0,23.0,1.0,-12365.0,-9694.0,4643.0,-128.0,-6.0,-4.0,8.0,-6.0,8.0,3.0,5.0,-2.0,0.07924699783325195
37,3.0,7.0,23.0,1.0,-12365.0,-9694.0,4643.0,-128.0,-3.0,-13.0,-14.0,-7.0,-7.0,-16.0,0.0,-1.0,0.08101987838745117
38,-4.0,4.0,9.0,1.0,-12365.0,-9694.0,4644.0,-128.0,-3.0,-13.0,-14.0,-7.0,-7.0,-16.0,0.0,-1.0,0.08389592170715332
39,-4.0,4.0,9.0,1.0,-12365.0,-9694.0,4644.0,-128.0,3.0,2.0,-12.0,0.0,1.0,-7.0,5.0,-2.0,0.08677268028259277
40,-4.0,4.0,9.0,1.0,-12365.0,-9694.0,4644.0,-128.0,4.0,17.0,48.0,-10.0,-19.0,-13.0,-6.0,2.0,0.08911395072937012
41,-14.0,-9.0,-1.0,1.0,-12365.0,-9695.0,4644.0,-128.0,4.0,17.0,48.0,-10.0,-19.0,-13.0,-6.0,2.0,0.09160113334655762
42,-14.0,-9.0,-1.0,1.0,-12365.0,-9695.0,4644.0,-128.0,-9.0,-5.0,-11.0,-3.0,-8.0,-7.0,7.0,-3.0,0.09357261657714844
43,-14.0,-9.0,-1.0,1.0,-12365.0,-9695.0,4644.0,-128.0,2.0,4.0,-13.0,3.0,8.0,4.0,1.0,-3.0,0.09538388252258301
44,44.0,2.0,-6.0,1.0,-12357.0,-9705.0,4644.0,-129.0,2.0,4.0,-13.0,3.0,8.0,4.0,1.0,-3.0,0.09715676307678223
45,44.0,2.0,-6.0,1.0,-12357.0,-9705.0,4644.0,-129.0,-2.0,2.0,11.0,-1.0,-22.0,-25.0,-2.0,0.0,0.09900927543640137
46,44.0,2.0,-6.0,1.0,-12357.0,-9705.0,4644.0,-129.0,-5.0,-4.0,-5.0,2.0,7.0,-7.0,3.0,0.0,0.1008005142211914
47,20.0,6.0,-17.0,1.0,-12352.0,-9711.0,4643.0,-129.0,-5.0,-4.0,-5.0,2.0,7.0,-7.0,3.0,0.0,0.10292744636535645
48,20.0,6.0,-17.0,1.0,-12352.0,-9711.0,4643.0,-129.0,3.0,-12.0,-31.0,-1.0,-33.0,-2.0,-1.0,-1.0,0.10477066040039062
49,20.0,6.0,-17.0,1.0,-12352.0,-9711.0,4643.0,-129.0,-1.0,-10.0,-18.0,-1.0,15.0,1.0,-2.0,3.0,0.10654401779174805
50,-23.0,15.0,7.0,1.0,-12353.0,-9710.0,4643.0,-131.0,-1.0,-10.0,-18.0,-1.0,15.0,1.0,-2.0,3.0,0.10834717750549316
51,-23.0,15.0,7.0,1.0,-12353.0,-9710.0,4643.0,-131.0,0.0,-2.0,-7.0,-21.0,-27.0,1.0,-2.0,-2.0,0.11021256446838379
52,-23.0,15.0,7.0,1.0,-12353.0,-9710.0,4643.0,-131.0,-1.0,4.0,0.0,-4.0,9.0,10.0,-44.0,-22.0,0.11200261116027832
53,-3.0,21.0,18.0,1.0,-12353.0,-9711.0,4641.0,-133.0,-1.0,4.0,0.0,-4.0,9.0,10.0,-44.0,-22.0,0.11515426635742188
54,-3.0,21.0,18.0,1.0,-12353.0,-9711.0,4641.0,-133.0,3.0,6.0,5.0,14.0,8.0,18.0,-1.0,7.0,0.11803126335144043
55,-3.0,21.0,18.0,1.0,-12353.0,-9711.0,4641.0,-133.0,1.0,0.0,-1.0,-5.0,-2.0,6.0,7.0,0.0,0.1198735237121582
56,-34.0,21.0,20.0,1.0,-12355.0,-9709.0,4640.0,-135.0,1.0,0.0,-1.0,-5.0,-2.0,6.0,7.0,0.0,0.12168264389038086
57,-34.0,21.0,20.0,1.0,-12355.0,-9709.0,4640.0,-135.0,-6.0,-13.0,-28.0,-7.0,8.0,14.0,-2.0,-4.0,0.12459707260131836
58,-34.0,21.0,20.0,1.0,-12355.0,-9709.0,4640.0,-135.0,-8.0,-4.0,14.0,9.0,-34.0,-6.0,4.0,-2.0,0.12650489807128906
59,-30.0,19.0,20.0,1.0,-12359.0,-9702.0,4641.0,-140.0,-8.0,-4.0,14.0,9.0,-34.0,-6.0,4.0,-2.0,0.12832045555114746
60,-30.0,19.0,20.0,1.0,-12359.0,-9702.0,4641.0,-140.0,2.0,10.0,6.0,6.0,23.0,4.0,7.0,3.0,0.13021135330200195
61,-30.0,19.0,20.0,1.0,-12359.0,-9702.0,4641.0,-140.0,3.0,6.0,-21.0,-19.0,-2.0,7.0,14.0,2.0,0.13199448585510254
62,49.0,20.0,23.0,1.0,-12354.0,-9709.0,4642.0,-149.0,3.0,6.0,-21.0,-19.0,-2.0,7.0,14.0,2.0,0.1337885856628418
63,49.0,20.0,23.0,1.0,-12354.0,-9709.0,4642.0,-149.0,2.0,2.0,1.0,-6.0,-23.0,-1.0,-3.0,0.0,0.13593077659606934
64,49.0,20.0,23.0,1.0,-12354.0,-9709.0,4642.0,-149.0,2.0,3.0,12.0,1.0,10.0,3.0,7.0,3.0,0.13774800300598145
65,40.0,22.0,27.0,1.0,-12349.0,-9715.0,4643.0,-157.0,2.0,3.0,12.0,1.0,10.0,3.0,7.0,3.0,0.1395876407623291
66,40.0,22.0,27.0,1.0,-12349.0,-9715.0,4643.0,-157.0,-3.0,-4.0,14.0,1.0,6.0,-5.0,-3.0,-2.0,0.14147329330444336
67,40.0,22.0,27.0,1.0,-12349.0,-9715.0,4643.0,-157.0,-2.0,-5.0,-33.0,-3.0,4.0,-8.0,6.0,10.0,0.14369463920593262
68,-12.0,6.0,15.0,1.0,-12348.0,-9715.0,4643.0,-157.0,-2.0,-5.0,-33.0,-3.0,4.0,-8.0,6.0,10.0,0.14705824851989746
69,-12.0,6.0,15.0,1.0,-12348.0,-9715.0,4643.0,-157.0,-3.0,-6.0,-7.0,-4.0,1.0,-1.0,-3.0,-4.0,0.1491093635559082
70,-12.0,6.0,15.0,1.0,-12348.0,-9715.0,4643.0,-157.0,-1.0,7.0,17.0,7.0,21.0,7.0,5.0,0.0,0.1509556770324707
71,-11.0,0.0,-3.0,1.0,-12348.0,-9716.0,4643.0,-156.0,-1.0,7.0,17.0,7.0,21.0,7.0,5.0,0.0,0.15279579162597656
72,-11.0,0.0,-3.0,1.0,-12348.0,-9716.0,4643.0,-156.0,7.0,15.0,18.0,-13.0,5.0,-3.0,6.0,3.0,0.15474963188171387
73,-11.0,0.0,-3.0,1.0,-12348.0,-9716.0,4643.0,-156.0,-1.0,-7.0,-8.0,-7.0,-50.0,-5.0,-5.0,-1.0,0.15750694274902344
74,52.0,2.0,2.0,1.0,-12341.0,-9725.0,4641.0,-158.0,-1.0,-7.0,-8.0,-7.0,-50.0,-5.0,-5.0,-1.0,0.15944933891296387
75,52.0,2.0,2.0,1.0,-12341.0,-9725.0,4641.0,-158.0,-2.0,0.0,-15.0,-1.0,22.0,-7.0,-25.0,-1.0,0.16135144233703613
76,52.0,2.0,2.0,1.0,-12341.0,-9725.0,4641.0,-158.0,-8.0,-15.0,7.0,0.0,5.0,5.0,0.0,2.0,0.16317224502563477
77,27.0,-1.0,16.0,1.0,-12336.0,-9732.0,4641.0,-158.0,-8.0,-15.0,7.0,0.0,5.0,5.0,0.0,2.0,0.16496968269348145
78,27.0,-1.0,16.0,1.0,-12336.0,-9732.0,4641.0,-158.0,-3.0,-5.0,1.0,7.0,-7.0,-7.0,-1.0,-6.0,0.16684532165527344
79,27.0,-1.0,16.0,1.0,-12336.0,-9732.0,4641.0,-158.0,4.0,-7.0,-7.0,0.0,7.0,5.0,-2.0,-7.0,0.16884469985961914
80,-23.0,-5.0,17.0,1.0,-12336.0,-9731.0,4644.0,-158.0,4.0,-7.0,-7.0,0.0,7.0,5.0,-2.0,-7.0,0.1706845760345459
81,-23.0,-5.0,17.0,1.0,-12336.0,-9731.0,4644.0,-158.0,-4.0,-8.0,3.0,-2.0,-2.0,7.0,-5.0,2.0,0.1725602149963379
82,-23.0,-5.0,17.0,1.0,-12336.0,-9731.0,4644.0,-158.0,-2.0,-7.0,-39.0,2.0,6.0,5.0,10.0,0.0,0.17445755004882812
83,-42.0,4.0,13.0,1.0,-12339.0,-9727.0,4645.0,-158.0,-2.0,-7.0,-39.0,2.0,6.0,5.0,10.0,0.0,0.1780402660369873
84,-42.0,4.0,13.0,1.0,-12339.0,-9727.0,4645.0,-158.0,-1.0,0.0,2.0,3.0,-42.0,5.0,10.0,0.0,0.180084228515625
85,-42.0,4.0,13.0,1.0,-12339.0,-9727.0,4645.0,-158.0,2.0,4.0,-14.0,-3.0,-3.0,-2.0,-2.0,-2.0,0.18191194534301758
86,-33.0,10.0,8.0,1.0,-12342.0,-9723.0,4645.0,-158.0,2.0,4.0,-14.0,-3.0,-3.0,-2.0,-2.0,-2.0,0.1837019920349121
87,-33.0,10.0,8.0,1.0,-12342.0,-9723.0,4645.0,-158.0,0.0,-8.0,-4.0,0.0,24.0,-4.0,3.0,1.0,0.18555593490600586
88,-33.0,10.0,8.0,1.0,-12342.0,-9723.0,4645.0,-158.0,-4.0,11.0,29.0,8.0,10.0,-4.0,-3.0,-3.0,0.18746423721313477
89,22.0,-2.0,4.0,1.0,-12337.0,-9728.0,4646.0,-159.0,-4.0,11.0,29.0,8.0,10.0,-4.0,-3.0,-3.0,0.190171480178833
90,22.0,-2.0,4.0,1.0,-12337.0,-9728.0,4646.0,-159.0,-3.0,-11.0,-10.0,-4.0,5.0,1.0,7.0,0.0,0.19219493865966797
91,22.0,-2.0,4.0,1.0,-12337.0,-9728.0,4646.0,-159.0,-1.0,-6.0,-12.0,-4.0,2.0,2.0,0.0,0.0,0.19402170181274414
92,51.0,-4.0,-4.0,1.0,-12329.0,-9738.0,4647.0,-161.0,-1.0,-6.0,-12.0,-4.0,2.0,2.0,0.0,0.0,0.19580316543579102
93,51.0,-4.0,-4.0,1.0,-12329.0,-9738.0,4647.0,-161.0,2.0,8.0,14.0,6.0,1.0,8.0,6.0,0.0,0.19764924049377441
94,51.0,-4.0,-4.0,1.0,-12329.0,-9738.0,4647.0,-161.0,1.0,-6.0,-4.0,7.0,-22.0,-8.0,-1.0,3.0,0.19949007034301758
95,7.0,-2.0,9.0,1.0,-12329.0,-9738.0,4647.0,-161.0,1.0,-6.0,-4.0,7.0,-22.0,-8.0,-1.0,3.0,0.20148181915283203
96,7.0,-2.0,9.0,1.0,-12329.0,-9738.0,4647.0,-161.0,0.0,0.0,-26.0,-1.0,-8.0,7.0,-4.0,-8.0,0.2033991813659668
97,7.0,-2.0,9.0,1.0,-12329.0,-9738.0,4647.0,-161.0,-4.0,11.0,32.0,11.0,23.0,1.0,3.0,0.0,0.2052936553955078
98,-37.0,2.0,22.0,1.0,-12333.0,-9732.0,4650.0,-163.0,-4.0,11.0,32.0,11.0,23.0,1.0,3.0,0.0,0.20865106582641602
99,-37.0,2.0,22.0,1.0,-12333.0,-9732.0,4650.0,-163.0,-3.0,-3.0,6.0,4.0,16.0,1.0,0.0,3.0,0.21067094802856445
100,-37.0,2.0,22.0,1.0,-12333.0,-9732.0,4650.0,-163.0,3.0,22.0,29.0,4.0,16.0,1.0,-2.0,-3.0,0.21251463890075684
101,-45.0,-7.0,35.0,1.0,-12339.0,-9721.0,4654.0,-166.0,3.0,22.0,29.0,4.0,16.0,1.0,-2.0,-3.0,0.21433568000793457
102,-45.0,-7.0,35.0,1.0,-12339.0,-9721.0,4654.0,-166.0,-2.0,-10.0,-6.0,-1.0,-22.0,-11.0,-1.0,-2.0,0.21618938446044922
103,-45.0,-7.0,35.0,1.0,-12339.0,-9721.0,4654.0,-166.0,0.0,-6.0,11.0,-7.0,-51.0,-2.0,-7.0,1.0,0.21797513961791992
104,25.0,2.0,22.0,1.0,-12337.0,-9724.0,4656.0,-170.0,0.0,-6.0,11.0,-7.0,-51.0,-2.0,-7.0,1.0,0.21976733207702637
105,25.0,2.0,22.0,1.0,-12337.0,-9724.0,4656.0,-170.0,-5.0,-10.0,4.0,7.0,20.0,-3.0,1.0,0.0,0.2217864990234375
106,25.0,2.0,22.0,1.0,-12337.0,-9724.0,4656.0,-170.0,3.0,1.0,16.0,-6.0,18.0,-9.0,-1.0,0.0,0.22436952590942383
107,50.0,8.0,3.0,1.0,-12330.0,-9733.0,4655.0,-173.0,3.0,1.0,16.0,-6.0,18.0,-9.0,-1.0,0.0,0.22623968124389648
108,50.0,8.0,3.0,1.0,-12330.0,-9733.0,4655.0,-173.0,3.0,24.0,41.0,0.0,4.0,-5.0,0.0,1.0,0.22812342643737793
109,50.0,8.0,3.0,1.0,-12330.0,-9733.0,4655.0,-173.0,3.0,8.0,-3.0,-1.0,-15.0,3.0,5.0,2.0,0.22993087768554688
110,26.0,17.0,11.0,1.0,-12326.0,-9738.0,4653.0,-176.0,3.0,8.0,-3.0,-1.0,-15.0,3.0,5.0,2.0,0.23172450065612793
111,26.0,17.0,11.0,1.0,-12326.0,-9738.0,4653.0,-176.0,0.0,3.0,8.0,-4.0,6.0,5.0,0.0,2.0,0.23358798027038574
112,26.0,17.0,11.0,1.0,-12326.0,-9738.0,4653.0,-176.0,-4.0,-15.0,-17.0,-4.0,-4.0,-10.0,21.0,-4.0,0.23581266403198242
113,-39.0,20.0,30.0,1.0,-12332.0,-9731.0,4653.0,-180.0,-4.0,-15.0,-17.0,-4.0,-4.0,-10.0,21.0,-4.0,0.23957562446594238
114,-39.0,20.0,30.0,1.0,-12332.0,-9731.0,4653.0,-180.0,4.0,0.0,-15.0,5.0,4.0,0.0,7.0,0.0,0.24228739738464355
115,-39.0,20.0,30.0,1.0,-12332.0,-9731.0,4653.0,-180.0,-3.0,-16.0,-32.0,-6.0,8.0,-1.0,-8.0,-1.0,0.24412178993225098
116,-44.0,11.0,44.0,1.0,-12338.0,-9722.0,4656.0,-185.0,-3.0,-16.0,-32.0,-6.0,8.0,-1.0,-8.0,-1.0,0.24593043327331543
117,-44.0,11.0,44.0,1.0,-12338.0,-9722.0,4656.0,-185.0,-2.0,11.0,14.0,-11.0,-13.0,-4.0,-13.0,2.0,0.24778056144714355
118,-44.0,11.0,44.0,1.0,-12338.0,-9722.0,4656.0,-185.0,-2.0,0.0,-5.0,-3.0,6.0,-17.0,-5.0,-3.0,0.249556303024292
119,7.0,9.0,51.0,1.0,-12339.0,-9719.0,4660.0,-194.0,-2.0,0.0,-5.0,-3.0,6.0,-17.0,-5.0,-3.0,0.25153446197509766
120,7.0,9.0,51.0,1.0,-12339.0,-9719.0,4660.0,-194.0,-2.0,-6.0,-10.0,1.0,0.0,-2.0,-3.0,-3.0,0.2534217834472656
121,7.0,9.0,51.0,1.0,-12339.0,-9719.0,4660.0,-194.0,0.0,4.0,0.0,-5.0,-15.0,9.0,2.0,-2.0,0.255202054977417
122,-5.0,-3.0,47.0,1.0,-12338.0,-9718.0,4664.0,-198.0,0.0,4.0,0.0,-5.0,-15.0,9.0,2.0,-2.0,0.25696349143981934
123,-5.0,-3.0,47.0,1.0,-12338.0,-9718.0,4664.0,-198.0,-4.0,-17.0,-23.0,3.0,1.0,-1.0,1.0,0.0,0.2588317394256592
124,-5.0,-3.0,47.0,1.0,-12338.0,-9718.0,4664.0,-198.0,-3.0,0.0,4.0,-2.0,3.0,8.0,-4.0,-1.0,0.2606358528137207
125,-15.0,10.0,21.0,1.0,-12338.0,-9719.0,4663.0,-198.0,-3.0,0.0,4.0,-2.0,3.0,8.0,-4.0,-1.0,0.2624027729034424
126,-15.0,10.0,21.0,1.0,-12338.0,-9719.0,4663.0,-198.0,1.0,5.0,1.0,-9.0,-6.0,-8.0,0.0,4.0,0.2642323970794678
127,-15.0,10.0,21.0,1.0,-12338.0,-9719.0,4663.0,-198.0,1.0,-5.0,28.0,6.0,38.0,5.0,-1.0,-3.0,0.2661304473876953
128,-40.0,14.0,12.0,1.0,-12342.0,-9713.0,4663.0,-200.0,1.0,-5.0,28.0,6.0,38.0,5.0,-1.0,-3.0,0.2695763111114502
129,-40.0,14.0,12.0,1.0,-12342.0,-9713.0,4663.0,-200.0,-3.0,-5.0,-6.0,-4.0,-4.0,3.0,3.0,1.0,0.27164387702941895
130,-40.0,14.0,12.0,1.0,-12342.0,-9713.0,4663.0,-200.0,0.0,0.0,-4.0,-4.0,-2.0,0.0,-5.0,-1.0,0.2745029926300049
131,42.0,3.0,11.0,1.0,-12336.0,-9720.0,4666.0,-205.0,0.0,0.0,-4.0,-4.0,-2.0,0.0,-5.0,-1.0,0.27642273902893066
132,42.0,3.0,11.0,1.0,-12336.0,-9720.0,4666.0,-205.0,1.0,12.0,16.0,6.0,-2.0,1.0,-2.0,-2.0,0.27831125259399414
133,42.0,3.0,11.0,1.0,-12336.0,-9720.0,4666.0,-205.0,1.0,-15.0,-31.0,8.0,0.0,9.0,-1.0,2.0,0.281935453414917
134,50.0,2.0,3.0,1.0,-12327.0,-9731.0,4665.0,-206.0,1.0,-15.0,-31.0,8.0,0.0,9.0,-1.0,2.0,0.29979777336120605
135,50.0,2.0,3.0,1.0,-12327.0,-9731.0,4665.0,-206.0,1.0,7.0,26.0,-5.0,19.0,-5.0,-2.0,-2.0,0.30408406257629395
136,50.0,2.0,3.0,1.0,-12327.0,-9731.0,4665.0,-206.0,-1.0,3.0,12.0,-3.0,11.0,8.0,-1.0,-1.0,0.3081350326538086
137,-23.0,1.0,-11.0,1.0,-12328.0,-9731.0,4663.0,-202.0,-1.0,3.0,12.0,-3.0,11.0,8.0,-1.0,-1.0,0.3207283020019531
138,-23.0,1.0,-11.0,1.0,-12328.0,-9731.0,4663.0,-202.0,-5.0,-10.0,-10.0,3.0,8.0,11.0,-5.0,-4.0,0.3226001262664795
139,-23.0,1.0,-11.0,1.0,-12328.0,-9731.0,4663.0,-202.0,-3.0,0.0,3.0,-3.0,-16.0,-3.0,0.0,-3.0,0.3243536949157715
140,-38.0,7.0,0.0,1.0,-12330.0,-9729.0,4663.0,-201.0,-3.0,0.0,3.0,-3.0,-16.0,-3.0,0.0,-3.0,0.3359541893005371
141,-38.0,7.0,0.0,1.0,-12330.0,-9729.0,4663.0,-201.0,-1.0,-9.0,-18.0,-4.0,-11.0,-19.0,-2.0,-2.0,0.3400390148162842
142,-38.0,7.0,0.0,1.0,-12330.0,-9729.0,4663.0,-201.0,1.0,-10.0,-22.0,3.0,5.0,-4.0,18.0,0.0,0.3421924114227295
143,-36.0,7.0,21.0,1.0,-12331.0,-9726.0,4664.0,-201.0,1.0,-10.0,-22.0,3.0,5.0,-4.0,18.0,0.0,0.3590877056121826
144,-36.0,7.0,21.0,1.0,-12331.0,-9726.0,4664.0,-201.0,4.0,9.0,21.0,0.0,0.0,-1.0,-5.0,-2.0,0.363109827041626
145,-36.0,7.0,21.0,1.0,-12331.0,-9726.0,4664.0,-201.0,-5.0,-4.0,-6.0,-2.0,3.0,-5.0,-13.0,-1.0,0.3662891387939453
146,-15.0,-1.0,31.0,1.0,-12331.0,-9725.0,4669.0,-205.0,-5.0,-4.0,-6.0,-2.0,3.0,-5.0,-13.0,-1.0,0.3807392120361328
147,-15.0,-1.0,31.0,1.0,-12331.0,-9725.0,4669.0,-205.0,-1.0,-5.0,-7.0,9.0,-16.0,3.0,9.0,2.0,0.3825969696044922
148,-15.0,-1.0,31.0,1.0,-12331.0,-9725.0,4669.0,-205.0,-1.0,7.0,1.0,-10.0,10.0,3.0,0.0,-3.0,0.384387731552124
149,30.0,-3.0,23.0,1.0,-12325.0,-9729.0,4673.0,-210.0,-1.0,7.0,1.0,-10.0,10.0,3.0,0.0,-3.0,0.40418148040771484
150,30.0,-3.0,23.0,1.0,-12325.0,-9729.0,4673.0,-210.0,-3.0,-6.0,-10.0,-3.0,-8.0,0.0,-2.0,-1.0,0.40775299072265625
151,30.0,-3.0,23.0,1.0,-12325.0,-9729.0,4673.0,-210.0,-3.0,2.0,-12.0,1.0,-37.0,-3.0,-6.0,4.0,0.40965747833251953
152,-4.0,5.0,5.0,1.0,-12325.0,-9730.0,4673.0,-210.0,-3.0,2.0,-12.0,1.0,-37.0,-3.0,-6.0,4.0,0.4268360137939453
153,-4.0,5.0,5.0,1.0,-12325.0,-9730.0,4673.0,-210.0,2.0,-6.0,-24.0,-8.0,-7.0,4.0,0.0,2.0,0.4301168918609619
154,-4.0,5.0,5.0,1.0,-12325.0,-9730.0,4673.0,-210.0,1.0,6.0,18.0,-3.0,19.0,11.0,4.0,6.0,0.433225154876709
155,-39.0,5.0,12.0,1.0,-12328.0,-9726.0,4672.0,-208.0,1.0,6.0,18.0,-3.0,19.0,11.0,4.0,6.0,0.44223856925964355
156,-39.0,5.0,12.0,1.0,-12328.0,-9726.0,4672.0,-208.0,2.0,-7.0,16.0,7.0,-9.0,-4.0,1.0,1.0,0.44418978691101074
157,-39.0,5.0,12.0,1.0,-12328.0,-9726.0,4672.0,-208.0,-3.0,-9.0,-22.0,2.0,1.0,-6.0,-7.0,-2.0,0.44596004486083984
158,-39.0,2.0,15.0,1.0,-12332.0,-9720.0,4676.0,-210.0,-3.0,-9.0,-22.0,2.0,1.0,-6.0,-7.0,-2.0,0.46349644660949707
159,-39.0,2.0,15.0,1.0,-12332.0,-9720.0,4676.0,-210.0,-1.0,3.0,0.0,3.0,4.0,1.0,0.0,-3.0,0.465395450592041
160,-39.0,2.0,15.0,1.0,-12332.0,-9720.0,4676.0,-210.0,0.0,7.0,-1.0,-1.0,9.0,-1.0,-3.0,-1.0,0.4671664237976074
161,53.0,2.0,2.0,1.0,-12324.0,-9729.0,4677.0,-214.0,0.0,7.0,-1.0,-1.0,9.0,-1.0,-3.0,-1.0,0.48709607124328613
162,53.0,2.0,2.0,1.0,-12324.0,-9729.0,4677.0,-214.0,-7.0,-2.0,8.0,0.0,-42.0,-3.0,4.0,-5.0,0.491534948348999
163,53.0,2.0,2.0,1.0,-12324.0,-9729.0,4677.0,-214.0,0.0,-7.0,-1.0,2.0,0.0,-9.0,-2.0,-6.0,0.49340319633483887
164,72.0,1.0,-13.0,1.0,-12314.0,-9743.0,4674.0,-213.0,0.0,-7.0,-1.0,2.0,0.0,-9.0,-2.0,-6.0,0.5010240077972412
165,72.0,1.0,-13.0,1.0,-12314.0,-9743.0,4674.0,-213.0,-2.0,6.0,20.0,-7.0,14.0,0.0,-1.0,2.0,0.5038535594940186
166,72.0,1.0,-13.0,1.0,-12314.0,-9743.0,4674.0,-213.0,0.0,0.0,-7.0,-2.0,-26.0,-17.0,-36.0,-2.0,0.5056357383728027
167,5.0,13.0,-27.0,1.0,-12311.0,-9749.0,4669.0,-210.0,0.0,0.0,-7.0,-2.0,-26.0,-17.0,-36.0,-2.0,0.5239500999450684
168,5.0,13.0,-27.0,1.0,-12311.0,-9749.0,4669.0,-210.0,-1.0,-9.0,-37.0,-2.0,6.0,0.0,-10.0,2.0,0.5259227752685547
169,5.0,13.0,-27.0,1.0,-12311.0,-9749.0,4669.0,-210.0,1.0,-7.0,43.0,1.0,17.0,-4.0,-1.0,-4.0,0.5276820659637451
170,-50.0,18.0,-17.0,1.0,-12318.0,-9743.0,4663.0,-206.0,1.0,-7.0,43.0,1.0,17.0,-4.0,-1.0,-4.0,0.5463335514068604
171,-50.0,18.0,-17.0,1.0,-12318.0,-9743.0,4663.0,-206.0,-3.0,6.0,-4.0,-6.0,2.0,-4.0,0.0,2.0,0.5500032901763916
172,-50.0,18.0,-17.0,1.0,-12318.0,-9743.0,4663.0,-206.0,-5.0,-12.0,-13.0,-5.0,-1.0,6.0,6.0,2.0,0.5531294345855713
173,-15.0,12.0,3.0,1.0,-12318.0,-9743.0,4663.0,-206.0,-5.0,-12.0,-13.0,-5.0,-1.0,6.0,6.0,2.0,0.5603525638580322
174,-15.0,12.0,3.0,1.0,-12318.0,-9743.0,4663.0,-206.0,-2.0,-2.0,16.0,-3.0,12.0,-2.0,6.0,-6.0,0.5622749328613281
175,-15.0,12.0,3.0,1.0,-12318.0,-9743.0,4663.0,-206.0,3.0,7.0,16.0,3.0,-39.0,-2.0,3.0,0.0,0.5671224594116211
176,27.0,-1.0,7.0,1.0,-12314.0,-9748.0,4663.0,-207.0,3.0,7.0,16.0,3.0,-39.0,-2.0,3.0,0.0,0.5842070579528809
177,27.0,-1.0,7.0,1.0,-12314.0,-9748.0,4663.0,-207.0,6.0,4.0,1.0,3.0,7.0,-4.0,1.0,8.0,0.5874679088592529
178,27.0,-1.0,7.0,1.0,-12314.0,-9748.0,4663.0,-207.0,-1.0,-8.0,-9.0,9.0,22.0,12.0,7.0,1.0,0.5912199020385742
179,18.0,6.0,8.0,1.0,-12311.0,-9752.0,4662.0,-208.0,-1.0,-8.0,-9.0,9.0,22.0,12.0,7.0,1.0,0.6062819957733154
180,18.0,6.0,8.0,1.0,-12311.0,-9752.0,4662.0,-208.0,-2.0,-4.0,-7.0,-3.0,17.0,-7.0,-7.0,-5.0,0.610745906829834
181,18.0,6.0,8.0,1.0,-12311.0,-9752.0,4662.0,-208.0,10.0,18.0,10.0,-5.0,-4.0,9.0,5.0,-1.0,0.6144871711730957
182,-50.0,10.0,23.0,1.0,-12317.0,-9745.0,4663.0,-209.0,10.0,18.0,10.0,-5.0,-4.0,9.0,5.0,-1.0,0.6215243339538574
183,-50.0,10.0,23.0,1.0,-12317.0,-9745.0,4663.0,-209.0,-1.0,-7.0,-52.0,7.0,54.0,2.0,1.0,-4.0,0.6249330043792725
184,-50.0,10.0,23.0,1.0,-12317.0,-9745.0,4663.0,-209.0,2.0,3.0,-16.0,-9.0,5.0,16.0,36.0,-8.0,0.6267578601837158
185,-37.0,7.0,20.0,1.0,-12323.0,-9736.0,4664.0,-212.0,2.0,3.0,-16.0,-9.0,5.0,16.0,36.0,-8.0,0.6515061855316162
186,-37.0,7.0,20.0,1.0,-12323.0,-9736.0,4664.0,-212.0,2.0,8.0,-22.0,-19.0,-53.0,-3.0,4.0,3.0,0.6547989845275879
187,-37.0,7.0,20.0,1.0,-12323.0,-9736.0,4664.0,-212.0,3.0,9.0,12.0,-3.0,10.0,-4.0,-8.0,4.0,0.6586530208587646
188,58.0,15.0,28.0,1.0,-12320.0,-9740.0,4666.0,-223.0,3.0,9.0,12.0,-3.0,10.0,-4.0,-8.0,4.0,0.6658036708831787
189,58.0,15.0,28.0,1.0,-12320.0,-9740.0,4666.0,-223.0,1.0,2.0,12.0,11.0,16.0,4.0,-1.0,-6.0,0.6676666736602783
190,58.0,15.0,28.0,1.0,-12320.0,-9740.0,4666.0,-223.0,-7.0,-2.0,-15.0,-2.0,-4.0,-19.0,-2.0,2.0,0.6702423095703125
191,82.0,17.0,34.0,1.0,-12313.0,-9748.0,4666.0,-233.0,-7.0,-2.0,-15.0,-2.0,-4.0,-19.0,-2.0,2.0,0.680295467376709
192,82.0,17.0,34.0,1.0,-12313.0,-9748.0,4666.0,-233.0,1.0,-2.0,17.0,-5.0,-6.0,20.0,-8.0,-1.0,0.6821990013122559
193,82.0,17.0,34.0,1.0,-12313.0,-9748.0,4666.0,-233.0,-5.0,-3.0,-62.0,8.0,1.0,-35.0,-2.0,-4.0,0.6871285438537598
194,29.0,19.0,36.0,1.0,-12316.0,-9746.0,4661.0,-238.0,-5.0,-3.0,-62.0,8.0,1.0,-35.0,-2.0,-4.0,0.7050502300262451
195,29.0,19.0,36.0,1.0,-12316.0,-9746.0,4661.0,-238.0,-5.0,-6.0,18.0,-2.0,6.0,-6.0,4.0,5.0,0.7082056999206543
196,29.0,19.0,36.0,1.0,-12316.0,-9746.0,4661.0,-238.0,-2.0,5.0,2.0,18.0,17.0,17.0,-13.0,-11.0,0.7099931240081787
197,22.0,53.0,49.0,1.0,-12326.0,-9739.0,4649.0,-247.0,-2.0,5.0,2.0,18.0,17.0,17.0,-13.0,-11.0,0.7266640663146973
198,22.0,53.0,49.0,1.0,-12326.0,-9739.0,4649.0,-247.0,0.0,-2.0,3.0,-3.0,-6.0,-27.0,-11.0,-7.0,0.7297589778900146
199,22.0,53.0,49.0,1.0,-12326.0,-9739.0,4649.0,-247.0,-12.0,-29.0,-20.0,1.0,-8.0,-16.0,-9.0,-3.0,0.733492374420166
200,107.0,60.0,-2.0,1.0,-12339.0,-9732.0,4628.0,-257.0,-12.0,-29.0,-20.0,1.0,-8.0,-16.0,-9.0,-3.0,0.7414400577545166
201,107.0,60.0,-2.0,1.0,-12339.0,-9732.0,4628.0,-257.0,5.0,7.0,57.0,1.0,3.0,3.0,-61.0,5.0,0.7433960437774658
202,107.0,60.0,-2.0,1.0,-12339.0,-9732.0,4628.0,-257.0,-17.0,-24.0,2.0,-1.0,-95.0,-35.0,-52.0,-10.0,0.7469556331634521
203,350.0,-25.0,-37.0,1.0,-12338.0,-9746.0,4602.0,-261.0,-17.0,-24.0,2.0,-1.0,-95.0,-35.0,-52.0,-10.0,0.764873743057251
204,350.0,-25.0,-37.0,1.0,-12338.0,-9746.0,4602.0,-261.0,-17.0,-49.0,8.0,16.0,46.0,-28.0,52.0,7.0,0.7682297229766846
205,350.0,-25.0,-37.0,1.0,-12338.0,-9746.0,4602.0,-261.0,16.0,7.0,-46.0,27.0,44.0,44.0,38.0,-5.0,0.7713587284088135
206,602.0,133.0,-161.0,1.0,-12309.0,-9811.0,4541.0,-274.0,16.0,7.0,-46.0,27.0,44.0,44.0,38.0,-5.0,0.786602258682251
207,602.0,133.0,-161.0,1.0,-12309.0,-9811.0,4541.0,-274.0,4.0,-5.0,-112.0,-11.0,-43.0,-17.0,75.0,-44.0,0.7885270118713379
208,602.0,133.0,-161.0,1.0,-12309.0,-9811.0,4541.0,-274.0,9.0,49.0,125.0,0.0,9.0,59.0,118.0,-3.0,0.7903099060058594
209,224.0,371.0,-390.0,1.0,-12325.0,-9846.0,4421.0,-256.0,9.0,49.0,125.0,0.0,9.0,59.0,118.0,-3.0,0.7994937896728516
210,224.0,371.0,-390.0,1.0,-12325.0,-9846.0,4421.0,-256.0,19.0,26.0,46.0,-25.0,-24.0,-14.0,-49.0,18.0,0.808150053024292
211,224.0,371.0,-390.0,1.0,-12325.0,-9846.0,4421.0,-256.0,1.0,10.0,36.0,-83.0,2.0,-43.0,4.0,-21.0,0.8099467754364014
212,-431.0,319.0,-678.0,1.0,-12425.0,-9795.0,4256.0,-148.0,1.0,10.0,36.0,-83.0,2.0,-43.0,4.0,-21.0,0.8247315883636475
213,-431.0,319.0,-678.0,1.0,-12425.0,-9795.0,4256.0,-148.0,-2.0,47.0,34.0,-56.0,-28.0,-19.0,-22.0,-11.0,0.8287863731384277
214,-431.0,319.0,-678.0,1.0,-12425.0,-9795.0,4256.0,-148.0,-17.0,-29.0,-12.0,26.0,3.0,-17.0,46.0,41.0,0.832406759262085
215,-736.0,323.0,-932.0,1.0,-12570.0,-9687.0,4074.0,-8.0,-17.0,-29.0,-12.0,26.0,3.0,-17.0,46.0,41.0,0.8460040092468262
216,-736.0,323.0,-932.0,1.0,-12570.0,-9687.0,4074.0,-8.0,-8.0,-63.0,-128.0,-47.0,-2.0,-1.0,70.0,-6.0,0.8478491306304932
217,-736.0,323.0,-932.0,1.0,-12570.0,-9687.0,4074.0,-8.0,5.0,6.0,20.0,78.0,77.0,-14.0,-70.0,5.0,0.8496098518371582
218,-815.0,503.0,-828.0,1.0,-12729.0,-9569.0,3854.0,124.0,5.0,6.0,20.0,78.0,77.0,-14.0,-70.0,5.0,0.8599851131439209
219,-815.0,503.0,-828.0,1.0,-12729.0,-9569.0,3854.0,124.0,-17.0,-22.0,-31.0,58.0,15.0,-20.0,-90.0,4.0,0.8675777912139893
220,-815.0,503.0,-828.0,1.0,-12729.0,-9569.0,3854.0,124.0,8.0,25.0,-1.0,16.0,0.0,38.0,12.0,4.0,0.8696129322052002
221,-1578.0,577.0,-1089.0,1.0,-12951.0,-9364.0,3597.0,317.0,8.0,25.0,-1.0,16.0,0.0,38.0,12.0,4.0,0.8840796947479248
222,-1578.0,577.0,-1089.0,1.0,-12951.0,-9364.0,3597.0,317.0,-6.0,-10.0,-65.0,8.0,-2.0,5.0,4.0,-6.0,0.8882644176483154
223,-1578.0,577.0,-1089.0,1.0,-12951.0,-9364.0,3597.0,317.0,5.0,20.0,32.0,-25.0,11.0,-38.0,-33.0,3.0,0.8918280601501465
224,-2166.0,659.0,-1378.0,1.0,-13195.0,-9104.0,3346.0,533.0,5.0,20.0,32.0,-25.0,11.0,-38.0,-33.0,3.0,0.9061832427978516
225,-2166.0,659.0,-1378.0,1.0,-13195.0,-9104.0,3346.0,533.0,2.0,-9.0,-15.0,24.0,13.0,38.0,19.0,7.0,0.9094374179840088
226,-2166.0,659.0,-1378.0,1.0,-13195.0,-9104.0,3346.0,533.0,5.0,30.0,-45.0,-57.0,-28.0,-14.0,-28.0,2.0,0.9125585556030273
227,-2623.0,861.0,-1723.0,1.0,-13471.0,-8784.0,3035.0,789.0,5.0,30.0,-45.0,-57.0,-28.0,-14.0,-28.0,2.0,0.9201102256774902
228,-2623.0,861.0,-1723.0,1.0,-13471.0,-8784.0,3035.0,789.0,-5.0,-25.0,1.0,77.0,-39.0,23.0,15.0,5.0,0.9278099536895752
229,-2623.0,861.0,-1723.0,1.0,-13471.0,-8784.0,3035.0,789.0,-10.0,-41.0,-31.0,-33.0,8.0,-27.0,-35.0,-8.0,0.9296519756317139
230,-2811.0,865.0,-2110.0,1.0,-13739.0,-8442.0,2686.0,1104.0,-10.0,-41.0,-31.0,-33.0,8.0,-27.0,-35.0,-8.0,0.9448592662811279
231,-2811.0,865.0,-2110.0,1.0,-13739.0,-8442.0,2686.0,1104.0,-3.0,12.0,-11.0,-3.0,40.0,12.0,-11.0,4.0,0.9490268230438232
232,-2811.0,865.0,-2110.0,1.0,-13739.0,-8442.0,2686.0,1104.0,11.0,17.0,42.0,-34.0,-28.0,38.0,9.0,5.0,0.9525661468505859
233,-3305.0,930.0,-2452.0,1.0,-14021.0,-8028.0,2286.0,1478.0,11.0,17.0,42.0,-34.0,-28.0,38.0,9.0,5.0,0.9661240577697754
234,-3305.0,930.0,-2452.0,1.0,-14021.0,-8028.0,2286.0,1478.0,-1.0,-12.0,4.0,38.0,-13.0,-1.0,-7.0,4.0,0.9688904285430908
235,-3305.0,930.0,-2452.0,1.0,-14021.0,-8028.0,2286.0,1478.0,-4.0,-22.0,-45.0,-9.0,-37.0,55.0,3.0,-3.0,0.9725525379180908
236,-4145.0,1031.0,-2520.0,1.0,-14340.0,-7477.0,1852.0,1867.0,-4.0,-22.0,-45.0,-9.0,-37.0,55.0,3.0,-3.0,0.9805974960327148
237,-4145.0,1031.0,-2520.0,1.0,-14340.0,-7477.0,1852.0,1867.0,-1.0,21.0,39.0,-18.0,19.0,-16.0,-6.0,1.0,0.987889289855957
238,-4145.0,1031.0,-2520.0,1.0,-14340.0,-7477.0,1852.0,1867.0,-12.0,-30.0,33.0,47.0,3.0,3.0,-13.0,-7.0,0.990687370300293
239,-4894.0,1323.0,-2401.0,1.0,-14679.0,-6796.0,1367.0,2220.0,-12.0,-30.0,33.0,47.0,3.0,3.0,-13.0,-7.0,1.003751277923584
240,-4894.0,1323.0,-2401.0,1.0,-14679.0,-6796.0,1367.0,2220.0,-3.0,-8.0,-55.0,-41.0,-34.0,14.0,6.0,-5.0,1.0068211555480957
241,-4894.0,1323.0,-2401.0,1.0,-14679.0,-6796.0,1367.0,2220.0,-5.0,-21.0,-16.0,45.0,-16.0,-17.0,-2.0,-1.0,1.0103037357330322
242,-5229.0,1690.0,-2190.0,1.0,-14998.0,-6045.0,832.0,2507.0,-5.0,-21.0,-16.0,45.0,-16.0,-17.0,-2.0,-1.0,1.0257248878479004
243,-5229.0,1690.0,-2190.0,1.0,-14998.0,-6045.0,832.0,2507.0,12.0,34.0,94.0,-40.0,-10.0,-2.0,9.0,8.0,1.027573585510254
244,-5229.0,1690.0,-2190.0,1.0,-14998.0,-6045.0,832.0,2507.0,-1.0,13.0,23.0,3.0,-1.0,-4.0,-5.0,-2.0,1.0293307304382324
245,-4956.0,2042.0,-2044.0,1.0,-15248.0,-5330.0,261.0,2734.0,-1.0,13.0,23.0,3.0,-1.0,-4.0,-5.0,-2.0,1.039776086807251
246,-4956.0,2042.0,-2044.0,1.0,-15248.0,-5330.0,261.0,2734.0,-1.0,-35.0,96.0,21.0,7.0,18.0,3.0,2.0,1.049112319946289
247,-4956.0,2042.0,-2044.0,1.0,-15248.0,-5330.0,261.0,2734.0,-5.0,-24.0,19.0,-27.0,1.0,-7.0,-1.0,-7.0,1.0525262355804443
248,-4820.0,2449.0,-1995.0,1.0,-15438.0,-4635.0,-369.0,2918.0,-5.0,-24.0,19.0,-27.0,1.0,-7.0,-1.0,-7.0,1.0633795261383057
249,-4820.0,2449.0,-1995.0,1.0,-15438.0,-4635.0,-369.0,2918.0,-1.0,7.0,35.0,27.0,21.0,5.0,-4.0,3.0,1.0654687881469727
250,-4820.0,2449.0,-1995.0,1.0,-15438.0,-4635.0,-369.0,2918.0,3.0,13.0,61.0,21.0,26.0,-9.0,5.0,18.0,1.0672893524169922
251,-4347.0,2851.0,-2059.0,1.0,-15547.0,-4014.0,-1056.0,3085.0,3.0,13.0,61.0,21.0,26.0,-9.0,5.0,18.0,1.0856103897094727
252,-4347.0,2851.0,-2059.0,1.0,-15547.0,-4014.0,-1056.0,3085.0,2.0,15.0,-38.0,2.0,3.0,-19.0,-19.0,-6.0,1.0895185470581055
253,-4347.0,2851.0,-2059.0,1.0,-15547.0,-4014.0,-1056.0,3085.0,17.0,67.0,-18.0,-18.0,13.0,0.0,-6.0,1.0,1.094714879989624
254,-3936.0,3340.0,-2270.0,1.0,-15572.0,-3460.0,-1828.0,3263.0,17.0,67.0,-18.0,-18.0,13.0,0.0,-6.0,1.0,1.0998353958129883
255,-3936.0,3340.0,-2270.0,1.0,-15572.0,-3460.0,-1828.0,3263.0,4.0,29.0,-12.0,-33.0,-10.0,12.0,-4.0,-17.0,1.1083269119262695
256,-3936.0,3340.0,-2270.0,1.0,-15572.0,-3460.0,-1828.0,3263.0,-10.0,-21.0,-34.0,2.0,-14.0,3.0,3.0,-7.0,1.11029052734375
257,-3388.0,3722.0,-2483.0,1.0,-15507.0,-2990.0,-2655.0,3462.0,-10.0,-21.0,-34.0,2.0,-14.0,3.0,3.0,-7.0,1.124108076095581
258,-3388.0,3722.0,-2483.0,1.0,-15507.0,-2990.0,-2655.0,3462.0,-1.0,-6.0,-46.0,-3.0,-8.0,-5.0,1.0,7.0,1.1274456977844238
259,-3388.0,3722.0,-2483.0,1.0,-15507.0,-2990.0,-2655.0,3462.0,-4.0,-13.0,-61.0,17.0,13.0,-1.0,4.0,1.0,1.1379094123840332
260,-3071.0,3949.0,-2626.0,1.0,-15364.0,-2564.0,-3509.0,3674.0,-4.0,-13.0,-61.0,17.0,13.0,-1.0,4.0,1.0,1.1456987857818604
261,-3071.0,3949.0,-2626.0,1.0,-15364.0,-2564.0,-3509.0,3674.0,-4.0,-3.0,-18.0,-5.0,-8.0,22.0,3.0,3.0,1.147597074508667
262,-3071.0,3949.0,-2626.0,1.0,-15364.0,-2564.0,-3509.0,3674.0,-1.0,14.0,34.0,-13.0,1.0,19.0,10.0,-6.0,1.149352788925171
263,-2983.0,4090.0,-2706.0,1.0,-15153.0,-2140.0,-4378.0,3885.0,-1.0,14.0,34.0,-13.0,1.0,19.0,10.0,-6.0,1.1591167449951172
264,-2983.0,4090.0,-2706.0,1.0,-15153.0,-2140.0,-4378.0,3885.0,-4.0,-10.0,22.0,2.0,9.0,6.0,-4.0,-6.0,1.1683769226074219
265,-2983.0,4090.0,-2706.0,1.0,-15153.0,-2140.0,-4378.0,3885.0,0.0,-19.0,-11.0,-15.0,11.0,-30.0,-11.0,-3.0,1.1704821586608887
266,-2734.0,4107.0,-2732.0,1.0,-14876.0,-1742.0,-5229.0,4098.0,0.0,-19.0,-11.0,-15.0,11.0,-30.0,-11.0,-3.0,1.1824345588684082
267,-2734.0,4107.0,-2732.0,1.0,-14876.0,-1742.0,-5229.0,4098.0,1.0,13.0,36.0,-2.0,10.0,-6.0,-24.0,-14.0,1.1843817234039307
268,-2734.0,4107.0,-2732.0,1.0,-14876.0,-1742.0,-5229.0,4098.0,-19.0,-74.0,-27.0,-9.0,-51.0,3.0,7.0,13.0,1.1898291110992432
269,-2681.0,4069.0,-2915.0,1.0,-14530.0,-1319.0,-6067.0,4333.0,-19.0,-74.0,-27.0,-9.0,-51.0,3.0,7.0,13.0,1.2071001529693604
270,-2681.0,4069.0,-2915.0,1.0,-14530.0,-1319.0,-6067.0,4333.0,2.0,-9.0,-26.0,7.0,-15.0,-9.0,-11.0,10.0,1.213395595550537
271,-2681.0,4069.0,-2915.0,1.0,-14530.0,-1319.0,-6067.0,4333.0,0.0,-3.0,-43.0,12.0,15.0,-5.0,5.0,-5.0,1.2163395881652832
272,-1961.0,4104.0,-3077.0,1.0,-14101.0,-973.0,-6871.0,4631.0,0.0,-3.0,-43.0,12.0,15.0,-5.0,5.0,-5.0,1.2197821140289307
273,-1961.0,4104.0,-3077.0,1.0,-14101.0,-973.0,-6871.0,4631.0,-10.0,-10.0,-7.0,-19.0,15.0,-18.0,3.0,-2.0,1.2281899452209473
274,-1961.0,4104.0,-3077.0,1.0,-14101.0,-973.0,-6871.0,4631.0,0.0,8.0,-15.0,-7.0,-7.0,-39.0,-18.0,-6.0,1.2300136089324951
275,-650.0,3890.0,-2856.0,1.0,-13629.0,-821.0,-7562.0,4986.0,0.0,8.0,-15.0,-7.0,-7.0,-39.0,-18.0,-6.0,1.243337631225586
276,-650.0,3890.0,-2856.0,1.0,-13629.0,-821.0,-7562.0,4986.0,3.0,16.0,13.0,18.0,35.0,-15.0,6.0,-3.0,1.2471644878387451
277,-650.0,3890.0,-2856.0,1.0,-13629.0,-821.0,-7562.0,4986.0,-1.0,-2.0,-40.0,-15.0,25.0,8.0,-3.0,-1.0,1.2507829666137695
278,318.0,3453.0,-2736.0,1.0,-13149.0,-794.0,-8113.0,5394.0,-1.0,-2.0,-40.0,-15.0,25.0,8.0,-3.0,-1.0,1.2667932510375977
279,318.0,3453.0,-2736.0,1.0,-13149.0,-794.0,-8113.0,5394.0,3.0,-4.0,-18.0,-2.0,-5.0,35.0,18.0,8.0,1.2700839042663574
280,318.0,3453.0,-2736.0,1.0,-13149.0,-794.0,-8113.0,5394.0,7.0,3.0,24.0,37.0,2.0,-35.0,-15.0,0.0,1.2739880084991455
281,436.0,2493.0,-2906.0,1.0,-12712.0,-707.0,-8502.0,5837.0,7.0,3.0,24.0,37.0,2.0,-35.0,-15.0,0.0,1.2792706489562988
282,436.0,2493.0,-2906.0,1.0,-12712.0,-707.0,-8502.0,5837.0,2.0,12.0,30.0,-4.0,-30.0,8.0,9.0,2.0,1.2903916835784912
283,436.0,2493.0,-2906.0,1.0,-12712.0,-707.0,-8502.0,5837.0,5.0,30.0,4.0,7.0,-7.0,31.0,3.0,1.0,1.2927305698394775
284,453.0,1707.0,-2737.0,1.0,-12335.0,-582.0,-8765.0,6256.0,5.0,30.0,4.0,7.0,-7.0,31.0,3.0,1.0,1.3033263683319092
285,453.0,1707.0,-2737.0,1.0,-12335.0,-582.0,-8765.0,6256.0,17.0,34.0,-45.0,9.0,-35.0,-70.0,-26.0,3.0,1.305281162261963
286,453.0,1707.0,-2737.0,1.0,-12335.0,-582.0,-8765.0,6256.0,1.0,-6.0,-12.0,-18.0,-16.0,11.0,-3.0,0.0,1.3090531826019287
287,211.0,1206.0,-1663.0,1.0,-12068.0,-489.0,-8957.0,6508.0,1.0,-6.0,-12.0,-18.0,-16.0,11.0,-3.0,0.0,1.3259501457214355
288,211.0,1206.0,-1663.0,1.0,-12068.0,-489.0,-8957.0,6508.0,-1.0,-11.0,1.0,-17.0,-47.0,23.0,-4.0,-1.0,1.3278768062591553
289,211.0,1206.0,-1663.0,1.0,-12068.0,-489.0,-8957.0,6508.0,5.0,8.0,14.0,-2.0,-46.0,-9.0,-9.0,-1.0,1.329636812210083
290,494.0,553.0,-578.0,1.0,-11831.0,-360.0,-9143.0,6691.0,5.0,8.0,14.0,-2.0,-46.0,-9.0,-9.0,-1.0,1.350433111190796
291,494.0,553.0,-578.0,1.0,-11831.0,-360.0,-9143.0,6691.0,3.0,2.0,12.0,4.0,60.0,12.0,14.0,6.0,1.3539390563964844
292,494.0,553.0,-578.0,1.0,-11831.0,-360.0,-9143.0,6691.0,-8.0,-3.0,0.0,-17.0,28.0,24.0,3.0,-2.0,1.3634843826293945
293,855.0,-46.0,312.0,1.0,-11713.0,-330.0,-9221.0,6791.0,-8.0,-3.0,0.0,-17.0,28.0,24.0,3.0,-2.0,1.365286111831665
294,855.0,-46.0,312.0,1.0,-11713.0,-330.0,-9221.0,6791.0,-14.0,-7.0,42.0,-3.0,1.0,-7.0,1.0,-8.0,1.3671464920043945
295,855.0,-46.0,312.0,1.0,-11713.0,-330.0,-9221.0,6791.0,5.0,-2.0,-13.0,7.0,-25.0,-5.0,2.0,2.0,1.3692667484283447
296,1188.0,-416.0,1268.0,1.0,-11723.0,-438.0,-9201.0,6795.0,5.0,-2.0,-13.0,7.0,-25.0,-5.0,2.0,2.0,1.3933541774749756
297,1188.0,-416.0,1268.0,1.0,-11723.0,-438.0,-9201.0,6795.0,-3.0,-5.0,-13.0,7.0,3.0,29.0,-12.0,-1.0,1.3952805995941162
298,1188.0,-416.0,1268.0,1.0,-11723.0,-438.0,-9201.0,6795.0,4.0,-2.0,-7.0,-7.0,-17.0,1.0,-1.0,-1.0,1.3970472812652588
299,1340.0,-753.0,1999.0,1.0,-11911.0,-724.0,-9020.0,6685.0,4.0,-2.0,-7.0,-7.0,-17.0,1.0,-1.0,-1.0,1.407625436782837
300,1340.0,-753.0,1999.0,1.0,-11911.0,-724.0,-9020.0,6685.0,-13.0,-32.0,32.0,15.0,-10.0,-12.0,5.0,-7.0,1.4152698516845703
301,1340.0,-753.0,1999.0,1.0,-11911.0,-724.0,-9020.0,6685.0,3.0,5.0,-30.0,-18.0,-16.0,-7.0,12.0,2.0,1.4172303676605225
302,1743.0,-1181.0,2398.0,1.0,-12160.0,-1073.0,-8739.0,6561.0,3.0,5.0,-30.0,-18.0,-16.0,-7.0,12.0,2.0,1.429995059967041
303,1743.0,-1181.0,2398.0,1.0,-12160.0,-1073.0,-8739.0,6561.0,-4.0,-12.0,-22.0,-2.0,7.0,-3.0,-2.0,1.0,1.4396493434906006
304,1743.0,-1181.0,2398.0,1.0,-12160.0,-1073.0,-8739.0,6561.0,1.0,0.0,12.0,13.0,-5.0,4.0,0.0,-3.0,1.4434106349945068
305,2285.0,-1435.0,2905.0,1.0,-12447.0,-1528.0,-8371.0,6411.0,1.0,0.0,12.0,13.0,-5.0,4.0,0.0,-3.0,1.453333854675293
306,2285.0,-1435.0,2905.0,1.0,-12447.0,-1528.0,-8371.0,6411.0,4.0,7.0,1.0,-1.0,3.0,1.0,-1.0,-1.0,1.4576597213745117
307,2285.0,-1435.0,2905.0,1.0,-12447.0,-1528.0,-8371.0,6411.0,-2.0,6.0,8.0,0.0,-28.0,8.0,-4.0,0.0,1.4598758220672607
308,2565.0,-1334.0,3383.0,1.0,-12735.0,-2078.0,-7966.0,6205.0,-2.0,6.0,8.0,0.0,-28.0,8.0,-4.0,0.0,1.4691753387451172
309,2565.0,-1334.0,3383.0,1.0,-12735.0,-2078.0,-7966.0,6205.0,2.0,13.0,-1.0,0.0,53.0,0.0,8.0,1.0,1.4718120098114014
310,2565.0,-1334.0,3383.0,1.0,-12735.0,-2078.0,-7966.0,6205.0,-12.0,-21.0,-16.0,-18.0,20.0,-40.0,37.0,-1.0,1.475606918334961
311,2266.0,-1305.0,3444.0,1.0,-13010.0,-2600.0,-7555.0,5947.0,-12.0,-21.0,-16.0,-18.0,20.0,-40.0,37.0,-1.0,1.482503890991211
312,2266.0,-1305.0,3444.0,1.0,-13010.0,-2600.0,-7555.0,5947.0,2.0,7.0,1.0,-5.0,-22.0,-36.0,7.0,3.0,1.4903693199157715
313,2266.0,-1305.0,3444.0,1.0,-13010.0,-2600.0,-7555.0,5947.0,9.0,14.0,-3.0,9.0,49.0,38.0,-51.0,1.0,1.4926238059997559
314,2717.0,-1657.0,3812.0,1.0,-13294.0,-3193.0,-7030.0,5666.0,9.0,14.0,-3.0,9.0,49.0,38.0,-51.0,1.0,1.5083777904510498
315,2717.0,-1657.0,3812.0,1.0,-13294.0,-3193.0,-7030.0,5666.0,-1.0,-6.0,-6.0,-5.0,-10.0,-1.0,21.0,1.0,1.510833501815796
316,2717.0,-1657.0,3812.0,1.0,-13294.0,-3193.0,-7030.0,5666.0,1.0,3.0,2.0,26.0,25.0,62.0,-5.0,0.0,1.5126044750213623
317,3569.0,-1802.0,4281.0,1.0,-13549.0,-3937.0,-6376.0,5361.0,1.0,3.0,2.0,26.0,25.0,62.0,-5.0,0.0,1.5284879207611084
318,3569.0,-1802.0,4281.0,1.0,-13549.0,-3937.0,-6376.0,5361.0,-3.0,4.0,-4.0,-2.0,-36.0,15.0,-2.0,-1.0,1.5312066078186035
319,3569.0,-1802.0,4281.0,1.0,-13549.0,-3937.0,-6376.0,5361.0,-2.0,4.0,12.0,1.0,-15.0,-18.0,3.0,3.0,1.5335867404937744
320,3951.0,-1813.0,5018.0,1.0,-13768.0,-4799.0,-5617.0,4931.0,-2.0,4.0,12.0,1.0,-15.0,-18.0,3.0,3.0,1.5427112579345703
321,3951.0,-1813.0,5018.0,1.0,-13768.0,-4799.0,-5617.0,4931.0,-3.0,-14.0,-13.0,-25.0,-8.0,39.0,-94.0,-7.0,1.5503129959106445
322,3951.0,-1813.0,5018.0,1.0,-13768.0,-4799.0,-5617.0,4931.0,9.0,-1.0,8.0,-9.0,-34.0,-128.0,-35.0,1.0,1.5524177551269531
323,3313.0,-1968.0,5763.0,1.0,-13985.0,-5528.0,-4828.0,4359.0,9.0,-1.0,8.0,-9.0,-34.0,-128.0,-35.0,1.0,1.5666477680206299
324,3313.0,-1968.0,5763.0,1.0,-13985.0,-5528.0,-4828.0,4359.0,30.0,14.0,20.0,17.0,44.0,82.0,-10.0,-15.0,1.5700323581695557
325,3313.0,-1968.0,5763.0,1.0,-13985.0,-5528.0,-4828.0,4359.0,-35.0,-4.0,-20.0,-18.0,-54.0,116.0,105.0,-53.0,1.5740845203399658
326,2568.0,-2244.0,6258.0,1.0,-14203.0,-6124.0,-3974.0,3663.0,-35.0,-4.0,-20.0,-18.0,-54.0,116.0,105.0,-53.0,1.5884099006652832
327,2568.0,-2244.0,6258.0,1.0,-14203.0,-6124.0,-3974.0,3663.0,-80.0,-23.0,-32.0,-54.0,10.0,-37.0,-59.0,-17.0,1.590372085571289
328,2568.0,-2244.0,6258.0,1.0,-14203.0,-6124.0,-3974.0,3663.0,-3.0,-3.0,4.0,87.0,-43.0,73.0,90.0,-1.0,1.5921404361724854
329,1889.0,-1869.0,6996.0,1.0,-14390.0,-6623.0,-3131.0,2777.0,-3.0,-3.0,4.0,87.0,-43.0,73.0,90.0,-1.0,1.6018998622894287
330,1889.0,-1869.0,6996.0,1.0,-14390.0,-6623.0,-3131.0,2777.0,3.0,2.0,23.0,16.0,10.0,27.0,127.0,-35.0,1.6101233959197998
331,1889.0,-1869.0,6996.0,1.0,-14390.0,-6623.0,-3131.0,2777.0,35.0,-3.0,-12.0,-22.0,71.0,-47.0,96.0,63.0,1.6119048595428467
332,2769.0,-1325.0,7621.0,1.0,-14408.0,-7249.0,-2280.0,1764.0,35.0,-3.0,-12.0,-22.0,71.0,-47.0,96.0,63.0,1.6262683868408203
333,2769.0,-1325.0,7621.0,1.0,-14408.0,-7249.0,-2280.0,1764.0,12.0,0.0,6.0,43.0,94.0,-128.0,-86.0,1.0,1.6285443305969238
334,2769.0,-1325.0,7621.0,1.0,-14408.0,-7249.0,-2280.0,1764.0,1.0,-12.0,-6.0,-12.0,4.0,-16.0,-87.0,-52.0,1.6303339004516602
335,5070.0,-1258.0,7277.0,1.0,-14111.0,-8164.0,-1402.0,841.0,1.0,-12.0,-6.0,-12.0,4.0,-16.0,-87.0,-52.0,1.6482059955596924
336,5070.0,-1258.0,7277.0,1.0,-14111.0,-8164.0,-1402.0,841.0,18.0,-3.0,20.0,4.0,-118.0,-71.0,69.0,27.0,1.6501069068908691
337,5070.0,-1258.0,7277.0,1.0,-14111.0,-8164.0,-1402.0,841.0,57.0,93.0,14.0,-89.0,85.0,-128.0,-115.0,63.0,1.6521587371826172
338,4205.0,-628.0,4674.0,1.0,-13757.0,-8856.0,-849.0,241.0,57.0,93.0,14.0,-89.0,85.0,-128.0,-115.0,63.0,1.6619226932525635
339,4205.0,-628.0,4674.0,1.0,-13757.0,-8856.0,-849.0,241.0,9.0,-60.0,109.0,62.0,-13.0,87.0,96.0,24.0,1.6704142093658447
340,4205.0,-628.0,4674.0,1.0,-13757.0,-8856.0,-849.0,241.0,11.0,53.0,112.0,-9.0,80.0,24.0,-127.0,-24.0,1.6725184917449951
341,2635.0,415.0,1361.0,1.0,-13495.0,-9260.0,-772.0,21.0,11.0,53.0,112.0,-9.0,80.0,24.0,-127.0,-24.0,1.686450719833374
342,2635.0,415.0,1361.0,1.0,-13495.0,-9260.0,-772.0,21.0,38.0,127.0,71.0,-55.0,-86.0,53.0,-128.0,-29.0,1.6924192905426025
343,2635.0,415.0,1361.0,1.0,-13495.0,-9260.0,-772.0,21.0,-89.0,-46.0,-2.0,34.0,-107.0,79.0,-11.0,-17.0,1.695098876953125
344,4806.0,-951.0,-2169.0,1.0,-12995.0,-9932.0,-849.0,476.0,-89.0,-46.0,-2.0,34.0,-107.0,79.0,-11.0,-17.0,1.708066463470459
345,4806.0,-951.0,-2169.0,1.0,-12995.0,-9932.0,-849.0,476.0,5.0,72.0,77.0,65.0,-24.0,31.0,-68.0,79.0,1.7099413871765137
346,4806.0,-951.0,-2169.0,1.0,-12995.0,-9932.0,-849.0,476.0,34.0,-2.0,-87.0,21.0,66.0,-83.0,77.0,-22.0,1.71170973777771
347,3355.0,-1129.0,-5561.0,1.0,-12554.0,-10355.0,-1278.0,1414.0,34.0,-2.0,-87.0,21.0,66.0,-83.0,77.0,-22.0,1.7231664657592773
348,3355.0,-1129.0,-5561.0,1.0,-12554.0,-10355.0,-1278.0,1414.0,17.0,16.0,-101.0,-63.0,127.0,-112.0,72.0,14.0,1.7303252220153809
349,3355.0,-1129.0,-5561.0,1.0,-12554.0,-10355.0,-1278.0,1414.0,-59.0,-28.0,-63.0,-47.0,67.0,-48.0,-52.0,-52.0,1.7321114540100098
350,4485.0,1796.0,1446.0,1.0,-12026.0,-11001.0,-1289.0,1073.0,-59.0,-28.0,-63.0,-47.0,67.0,-48.0,-52.0,-52.0,1.7466907501220703
351,4485.0,1796.0,1446.0,1.0,-12026.0,-11001.0,-1289.0,1073.0,-118.0,-95.0,-111.0,-16.0,72.0,92.0,77.0,-5.0,1.7503206729888916
352,4485.0,1796.0,1446.0,1.0,-12026.0,-11001.0,-1289.0,1073.0,-118.0,-95.0,-111.0,-16.0,72.0,92.0,77.0,-5.0,1.754225730895996
353,4485.0,1796.0,1446.0,1.0,-12026.0,-11001.0,-1289.0,1073.0,72.0,40.0,60.0,93.0,-44.0,34.0,-89.0,-1.0,1.769124984741211
354,-236.0,-174.0,2150.0,1.0,-12063.0,-11009.0,-1032.0,826.0,72.0,40.0,60.0,93.0,-44.0,34.0,-89.0,-1.0,1.771040678024292
355,-236.0,-174.0,2150.0,1.0,-12063.0,-11009.0,-1032.0,826.0,55.0,35.0,40.0,19.0,-65.0,-81.0,36.0,30.0,1.7731306552886963
356,-236.0,-174.0,2150.0,1.0,-12063.0,-11009.0,-1032.0,826.0,99.0,-73.0,11.0,-14.0,51.0,73.0,-56.0,51.0,1.7749359607696533
357,-2093.0,-1253.0,1291.0,1.0,-12365.0,-10699.0,-715.0,773.0,99.0,-73.0,11.0,-14.0,51.0,73.0,-56.0,51.0,1.7822551727294922
358,-2093.0,-1253.0,1291.0,1.0,-12365.0,-10699.0,-715.0,773.0,-35.0,-32.0,-30.0,31.0,-51.0,68.0,-49.0,-41.0,1.791738510131836
359,-2093.0,-1253.0,1291.0,1.0,-12365.0,-10699.0,-715.0,773.0,-98.0,-8.0,-3.0,-7.0,40.0,-28.0,-90.0,-98.0,1.7937169075012207
360,-403.0,-309.0,2098.0,1.0,-12450.0,-10631.0,-416.0,510.0,-98.0,-8.0,-3.0,-7.0,40.0,-28.0,-90.0,-98.0,1.8064777851104736
361,-403.0,-309.0,2098.0,1.0,-12450.0,-10631.0,-416.0,510.0,-2.0,-12.0,-61.0,-12.0,48.0,-69.0,123.0,72.0,1.8100361824035645
362,-403.0,-309.0,2098.0,1.0,-12450.0,-10631.0,-416.0,510.0,0.0,-21.0,7.0,-4.0,-79.0,26.0,-89.0,-69.0,1.8142478466033936
363,1152.0,-47.0,764.0,1.0,-12377.0,-10726.0,-276.0,387.0,0.0,-21.0,7.0,-4.0,-79.0,26.0,-89.0,-69.0,1.8283836841583252
364,1152.0,-47.0,764.0,1.0,-12377.0,-10726.0,-276.0,387.0,-21.0,-77.0,-32.0,-92.0,-113.0,-103.0,24.0,-13.0,1.83026123046875
365,1152.0,-47.0,764.0,1.0,-12377.0,-10726.0,-276.0,387.0,-33.0,-30.0,13.0,61.0,4.0,43.0,59.0,28.0,1.832108736038208
366,2372.0,789.0,798.0,1.0,-12101.0,-11041.0,-275.0,190.0,-33.0,-30.0,13.0,61.0,4.0,43.0,59.0,28.0,1.8514318466186523
367,2372.0,789.0,798.0,1.0,-12101.0,-11041.0,-275.0,190.0,-36.0,-39.0,-74.0,28.0,127.0,77.0,-109.0,-76.0,1.8549396991729736
368,2372.0,789.0,798.0,1.0,-12101.0,-11041.0,-275.0,190.0,-15.0,17.0,-44.0,15.0,-55.0,101.0,-42.0,25.0,1.8594982624053955
369,1121.0,849.0,484.0,1.0,-11963.0,-11191.0,-326.0,27.0,-15.0,17.0,-44.0,15.0,-55.0,101.0,-42.0,25.0,1.865535020828247
370,1121.0,849.0,484.0,1.0,-11963.0,-11191.0,-326.0,27.0,91.0,23.0,29.0,-16.0,-91.0,30.0,21.0,55.0,1.86751389503479
371,1121.0,849.0,484.0,1.0,-11963.0,-11191.0,-326.0,27.0,114.0,-9.0,13.0,-28.0,-75.0,-66.0,85.0,126.0,1.869480848312378
372,-1242.0,417.0,231.0,1.0,-12087.0,-11057.0,-302.0,-106.0,114.0,-9.0,13.0,-28.0,-75.0,-66.0,85.0,126.0,1.8894178867340088
373,-1242.0,417.0,231.0,1.0,-12087.0,-11057.0,-302.0,-106.0,-48.0,99.0,124.0,41.0,122.0,105.0,119.0,21.0,1.8916223049163818
374,-1242.0,417.0,231.0,1.0,-12087.0,-11057.0,-302.0,-106.0,-66.0,-23.0,6.0,-83.0,-68.0,-74.0,98.0,6.0,1.8934075832366943
375,-1199.0,332.0,341.0,1.0,-12209.0,-10921.0,-255.0,-238.0,-66.0,-23.0,6.0,-83.0,-68.0,-74.0,98.0,6.0,1.9021635055541992
376,-1199.0,332.0,341.0,1.0,-12209.0,-10921.0,-255.0,-238.0,-4.0,-21.0,0.0,1.0,-40.0,35.0,26.0,-60.0,1.927189826965332
377,-1199.0,332.0,341.0,1.0,-12209.0,-10921.0,-255.0,-238.0,-31.0,16.0,-7.0,-75.0,27.0,94.0,35.0,-78.0,1.928987741470337
378,-340.0,371.0,334.0,1.0,-12196.0,-10933.0,-269.0,-323.0,-31.0,16.0,-7.0,-75.0,27.0,94.0,35.0,-78.0,1.930849552154541
379,-340.0,371.0,334.0,1.0,-12196.0,-10933.0,-269.0,-323.0,-42.0,-4.0,57.0,-14.0,-74.0,-119.0,-128.0,6.0,1.9327166080474854
380,-340.0,371.0,334.0,1.0,-12196.0,-10933.0,-269.0,-323.0,-8.0,7.0,-43.0,33.0,-37.0,37.0,44.0,45.0,1.935619831085205
381,-511.0,132.0,-46.0,1.0,-12226.0,-10898.0,-252.0,-368.0,-8.0,7.0,-43.0,33.0,-37.0,37.0,44.0,45.0,1.9482660293579102
382,-511.0,132.0,-46.0,1.0,-12226.0,-10898.0,-252.0,-368.0,-4.0,-51.0,-62.0,29.0,-57.0,-54.0,-90.0,17.0,1.9501595497131348
383,-511.0,132.0,-46.0,1.0,-12226.0,-10898.0,-252.0,-368.0,-31.0,2.0,-13.0,-33.0,-7.0,-12.0,55.0,26.0,1.952300786972046
384,-389.0,36.0,-176.0,1.0,-12270.0,-10849.0,-236.0,-386.0,-31.0,2.0,-13.0,-33.0,-7.0,-12.0,55.0,26.0,1.961639642715454
385,-389.0,36.0,-176.0,1.0,-12270.0,-10849.0,-236.0,-386.0,-64.0,1.0,16.0,-40.0,55.0,14.0,-43.0,-128.0,1.9704601764678955
386,-389.0,36.0,-176.0,1.0,-12270.0,-10849.0,-236.0,-386.0,69.0,-11.0,14.0,64.0,127.0,-60.0,-111.0,28.0,1.9732654094696045
387,96.0,33.0,-204.0,1.0,-12238.0,-10885.0,-255.0,-371.0,69.0,-11.0,14.0,64.0,127.0,-60.0,-111.0,28.0,1.9863927364349365
388,96.0,33.0,-204.0,1.0,-12238.0,-10885.0,-255.0,-371.0,30.0,-8.0,-20.0,-51.0,-4.0,-73.0,-61.0,-11.0,1.9897499084472656
389,96.0,33.0,-204.0,1.0,-12238.0,-10885.0,-255.0,-371.0,-56.0,-40.0,-37.0,-1.0,-77.0,-61.0,95.0,72.0,1.9930119514465332
390,109.0,89.0,-80.0,1.0,-12206.0,-10920.0,-262.0,-383.0,-56.0,-40.0,-37.0,-1.0,-77.0,-61.0,95.0,72.0,2.0097851753234863
391,109.0,89.0,-80.0,1.0,-12206.0,-10920.0,-262.0,-383.0,41.0,-12.0,-97.0,57.0,-6.0,-53.0,9.0,32.0,2.0133464336395264
392,109.0,89.0,-80.0,1.0,-12206.0,-10920.0,-262.0,-383.0,-65.0,20.0,52.0,-30.0,-45.0,-60.0,-2.0,-128.0,2.016780138015747
393,24.0,100.0,35.0,1.0,-12199.0,-10927.0,-251.0,-419.0,-65.0,20.0,52.0,-30.0,-45.0,-60.0,-2.0,-128.0,2.022078037261963
394,24.0,100.0,35.0,1.0,-12199.0,-10927.0,-251.0,-419.0,24.0,31.0,45.0,30.0,13.0,-73.0,52.0,35.0,2.0308918952941895
395,24.0,100.0,35.0,1.0,-12199.0,-10927.0,-251.0,-419.0,9.0,-9.0,-71.0,26.0,61.0,25.0,64.0,89.0,2.0328752994537354
396,-9.0,0.0,31.0,1.0,-12204.0,-10921.0,-214.0,-452.0,9.0,-9.0,-71.0,26.0,61.0,25.0,64.0,89.0,2.044971227645874
397,-9.0,0.0,31.0,1.0,-12204.0,-10921.0,-214.0,-452.0,20.0,-3.0,-55.0,-48.0,31.0,127.0,-122.0,-5.0,2.0468640327453613
398,-9.0,0.0,31.0,1.0,-12204.0,-10921.0,-214.0,-452.0,-51.0,21.0,35.0,43.0,-27.0,45.0,-128.0,-20.0,2.0521152019500732
399,-40.0,14.0,121.0,1.0,-12207.0,-10917.0,-175.0,-494.0,-51.0,21.0,35.0,43.0,-27.0,45.0,-128.0,-20.0,2.0689830780029297
400,-40.0,14.0,121.0,1.0,-12207.0,-10917.0,-175.0,-494.0,3.0,-1.0,-16.0,-16.0,-3.0,-33.0,-90.0,-28.0,2.0721824169158936
401,-40.0,14.0,121.0,1.0,-12207.0,-10917.0,-175.0,-494.0,58.0,4.0,32.0,25.0,2.0,-4.0,24.0,2.0,2.076334238052368
402,-68.0,59.0,172.0,1.0,-12223.0,-10896.0,-139.0,-545.0,58.0,4.0,32.0,25.0,2.0,-4.0,24.0,2.0,2.0818283557891846
403,-68.0,59.0,172.0,1.0,-12223.0,-10896.0,-139.0,-545.0,-88.0,-25.0,-44.0,-34.0,9.0,38.0,-106.0,-102.0,2.0909981727600098
404,-68.0,59.0,172.0,1.0,-12223.0,-10896.0,-139.0,-545.0,-21.0,2.0,-3.0,-3.0,26.0,-77.0,-128.0,-92.0,2.0946874618530273
405,44.0,69.0,160.0,1.0,-12221.0,-10897.0,-106.0,-596.0,-21.0,2.0,-3.0,-3.0,26.0,-77.0,-128.0,-92.0,2.1071696281433105
406,44.0,69.0,160.0,1.0,-12221.0,-10897.0,-106.0,-596.0,-31.0,-28.0,23.0,13.0,65.0,-72.0,18.0,93.0,2.1105175018310547
407,44.0,69.0,160.0,1.0,-12221.0,-10897.0,-106.0,-596.0,57.0,-7.0,11.0,-50.0,65.0,125.0,-15.0,-39.0,2.1136274337768555
408,89.0,73.0,131.0,1.0,-12192.0,-10927.0,-84.0,-636.0,57.0,-7.0,11.0,-50.0,65.0,125.0,-15.0,-39.0,2.1292314529418945
409,89.0,73.0,131.0,1.0,-12192.0,-10927.0,-84.0,-636.0,39.0,12.0,-29.0,-19.0,-33.0,-28.0,127.0,55.0,2.1323347091674805
410,89.0,73.0,131.0,1.0,-12192.0,-10927.0,-84.0,-636.0,2.0,-5.0,-37.0,11.0,-13.0,-19.0,-26.0,44.0,2.135291814804077
411,99.0,110.0,107.0,1.0,-12168.0,-10952.0,-74.0,-674.0,2.0,-5.0,-37.0,11.0,-13.0,-19.0,-26.0,44.0,2.1426165103912354
412,99.0,110.0,107.0,1.0,-12168.0,-10952.0,-74.0,-674.0,-3.0,-24.0,-3.0,33.0,-12.0,47.0,44.0,-46.0,2.15027117729187
413,99.0,110.0,107.0,1.0,-12168.0,-10952.0,-74.0,-674.0,-58.0,-38.0,-69.0,19.0,28.0,10.0,127.0,32.0,2.152921199798584
414,64.0,87.0,-14.0,1.0,-12162.0,-10957.0,-76.0,-693.0,-58.0,-38.0,-69.0,19.0,28.0,10.0,127.0,32.0,2.165976047515869
415,64.0,87.0,-14.0,1.0,-12162.0,-10957.0,-76.0,-693.0,44.0,-11.0,-48.0,-8.0,-32.0,61.0,-44.0,108.0,2.169674873352051
416,64.0,87.0,-14.0,1.0,-12162.0,-10957.0,-76.0,-693.0,50.0,20.0,41.0,-30.0,-36.0,124.0,-45.0,-73.0,2.1730599403381348
417,-71.0,50.0,-39.0,1.0,-12173.0,-10945.0,-78.0,-703.0,50.0,20.0,41.0,-30.0,-36.0,124.0,-45.0,-73.0,2.190002202987671
418,-71.0,50.0,-39.0,1.0,-12173.0,-10945.0,-78.0,-703.0,11.0,11.0,12.0,21.0,25.0,-52.0,-59.0,-98.0,2.1934192180633545
419,-71.0,50.0,-39.0,1.0,-12173.0,-10945.0,-78.0,-703.0,-59.0,3.0,10.0,-66.0,-70.0,6.0,48.0,23.0,2.1966090202331543
420,-107.0,7.0,-47.0,1.0,-12176.0,-10941.0,-74.0,-706.0,-59.0,3.0,10.0,-66.0,-70.0,6.0,48.0,23.0,2.2029612064361572
421,-107.0,7.0,-47.0,1.0,-12176.0,-10941.0,-74.0,-706.0,26.0,27.0,77.0,5.0,-11.0,17.0,-49.0,10.0,2.2102785110473633
422,-107.0,7.0,-47.0,1.0,-12176.0,-10941.0,-74.0,-706.0,-18.0,13.0,1.0,22.0,34.0,-36.0,45.0,4.0,2.212202787399292
423,173.0,32.0,-32.0,1.0,-12137.0,-10983.0,-69.0,-717.0,-18.0,13.0,1.0,22.0,34.0,-36.0,45.0,4.0,2.226313591003418
424,173.0,32.0,-32.0,1.0,-12137.0,-10983.0,-69.0,-717.0,-34.0,-8.0,22.0,-20.0,-65.0,17.0,-13.0,11.0,2.228193998336792
425,234.0,49.0,18.0,1.0,-12102.0,-11021.0,-68.0,-731.0,-34.0,-8.0,22.0,-20.0,-65.0,17.0,-13.0,11.0,2.2299880981445312
426,234.0,49.0,18.0,1.0,-12102.0,-11021.0,-68.0,-731.0,36.0,6.0,6.0,19.0,-11.0,90.0,-91.0,104.0,2.2318241596221924
427,234.0,49.0,18.0,1.0,-12102.0,-11021.0,-68.0,-731.0,-5.0,1.0,32.0,26.0,58.0,60.0,44.0,-45.0,2.248135566711426
428,-5.0,-22.0,74.0,1.0,-12109.0,-11013.0,-45.0,-749.0,-5.0,1.0,32.0,26.0,58.0,60.0,44.0,-45.0,2.250131845474243
429,-5.0,-22.0,74.0,1.0,-12109.0,-11013.0,-45.0,-749.0,9.0,-8.0,4.0,18.0,16.0,1.0,103.0,-30.0,2.256009340286255
430,-5.0,-22.0,74.0,1.0,-12109.0,-11013.0,-45.0,-749.0,9.0,-26.0,73.0,-25.0,-100.0,-100.0,-32.0,-36.0,2.2709250450134277
431,-204.0,-58.0,72.0,1.0,-12134.0,-10983.0,-6.0,-771.0,9.0,-26.0,73.0,-25.0,-100.0,-100.0,-32.0,-36.0,2.274874448776245
432,-204.0,-58.0,72.0,1.0,-12134.0,-10983.0,-6.0,-771.0,-24.0,-9.0,42.0,30.0,85.0,-6.0,-128.0,-107.0,2.279381513595581
433,-204.0,-58.0,72.0,1.0,-12134.0,-10983.0,-6.0,-771.0,-11.0,-13.0,-9.0,42.0,67.0,121.0,69.0,4.0,2.2861669063568115
434,-87.0,-30.0,48.0,1.0,-12139.0,-10976.0,24.0,-791.0,-11.0,-13.0,-9.0,42.0,67.0,121.0,69.0,4.0,2.2928342819213867
435,-87.0,-30.0,48.0,1.0,-12139.0,-10976.0,24.0,-791.0,9.0,-6.0,-7.0,-76.0,-13.0,-94.0,67.0,49.0,2.2947580814361572
436,-87.0,-30.0,48.0,1.0,-12139.0,-10976.0,24.0,-791.0,-17.0,45.0,31.0,37.0,55.0,-24.0,20.0,23.0,2.309159278869629
437,145.0,-11.0,8.0,1.0,-12113.0,-11004.0,32.0,-796.0,-17.0,45.0,31.0,37.0,55.0,-24.0,20.0,23.0,2.312429904937744
438,145.0,-11.0,8.0,1.0,-12113.0,-11004.0,32.0,-796.0,-37.0,12.0,-10.0,-9.0,-11.0,-17.0,-80.0,-64.0,2.3152730464935303
439,145.0,-11.0,8.0,1.0,-12113.0,-11004.0,32.0,-796.0,33.0,13.0,-44.0,4.0,89.0,-59.0,95.0,39.0,2.330136299133301
440,35.0,-28.0,29.0,1.0,-12105.0,-11013.0,38.0,-796.0,33.0,13.0,-44.0,4.0,89.0,-59.0,95.0,39.0,2.3319125175476074
441,35.0,-28.0,29.0,1.0,-12105.0,-11013.0,38.0,-796.0,33.0,-6.0,-72.0,-24.0,4.0,105.0,-54.0,51.0,2.339980125427246
442,35.0,-28.0,29.0,1.0,-12105.0,-11013.0,38.0,-796.0,-12.0,-11.0,4.0,29.0,-32.0,88.0,-51.0,-25.0,2.3449063301086426
443,-196.0,-68.0,39.0,1.0,-12122.0,-10994.0,66.0,-805.0,-12.0,-11.0,4.0,29.0,-32.0,88.0,-51.0,-25.0,2.346708297729492
444,-196.0,-68.0,39.0,1.0,-12122.0,-10994.0,66.0,-805.0,-13.0,-8.0,-13.0,19.0,11.0,-1.0,-107.0,69.0,2.352278470993042
445,-196.0,-68.0,39.0,1.0,-12122.0,-10994.0,66.0,-805.0,2.0,-8.0,-12.0,-3.0,-59.0,-21.0,103.0,62.0,2.368412971496582
446,-162.0,-63.0,3.0,1.0,-12141.0,-10972.0,95.0,-814.0,2.0,-8.0,-12.0,-3.0,-59.0,-21.0,103.0,62.0,2.3728537559509277
447,-162.0,-63.0,3.0,1.0,-12141.0,-10972.0,95.0,-814.0,2.0,29.0,93.0,-23.0,-62.0,-101.0,-103.0,-47.0,2.3751723766326904
448,-162.0,-63.0,3.0,1.0,-12141.0,-10972.0,95.0,-814.0,27.0,-2.0,-34.0,-51.0,-5.0,-84.0,-85.0,-52.0,2.3914222717285156
449,57.0,-54.0,-75.0,1.0,-12128.0,-10987.0,98.0,-802.0,27.0,-2.0,-34.0,-51.0,-5.0,-84.0,-85.0,-52.0,2.394596815109253
450,57.0,-54.0,-75.0,1.0,-12128.0,-10987.0,98.0,-802.0,32.0,-11.0,-1.0,5.0,-22.0,-110.0,14.0,-10.0,2.3982090950012207
451,57.0,-54.0,-75.0,1.0,-12128.0,-10987.0,98.0,-802.0,7.0,9.0,-24.0,1.0,0.0,31.0,53.0,42.0,2.4067506790161133
452,35.0,-64.0,-86.0,1.0,-12116.0,-11002.0,100.0,-786.0,7.0,9.0,-24.0,1.0,0.0,31.0,53.0,42.0,2.4088590145111084
453,35.0,-64.0,-86.0,1.0,-12116.0,-11002.0,100.0,-786.0,22.0,2.0,-10.0,15.0,-14.0,-43.0,104.0,78.0,2.41159725189209
454,35.0,-64.0,-86.0,1.0,-12116.0,-11002.0,100.0,-786.0,-4.0,0.0,-7.0,8.0,34.0,11.0,-2.0,38.0,2.4281973838806152
455,-112.0,-64.0,-17.0,1.0,-12124.0,-10993.0,115.0,-783.0,-4.0,0.0,-7.0,8.0,34.0,11.0,-2.0,38.0,2.4320881366729736
456,-112.0,-64.0,-17.0,1.0,-12124.0,-10993.0,115.0,-783.0,-33.0,2.0,-12.0,24.0,10.0,87.0,88.0,-2.0,2.4353296756744385
457,-112.0,-64.0,-17.0,1.0,-12124.0,-10993.0,115.0,-783.0,-59.0,-15.0,10.0,-21.0,-19.0,-9.0,51.0,-123.0,2.4501407146453857
458,-122.0,-44.0,22.0,1.0,-12138.0,-10977.0,136.0,-791.0,-59.0,-15.0,10.0,-21.0,-19.0,-9.0,51.0,-123.0,2.45316743850708
459,-122.0,-44.0,22.0,1.0,-12138.0,-10977.0,136.0,-791.0,6.0,-4.0,0.0,8.0,22.0,91.0,74.0,-27.0,2.4577534198760986
460,-122.0,-44.0,22.0,1.0,-12138.0,-10977.0,136.0,-791.0,-32.0,-17.0,-7.0,-7.0,-73.0,-20.0,60.0,-2.0,2.4649009704589844
461,-51.0,-27.0,12.0,1.0,-12143.0,-10970.0,147.0,-795.0,-32.0,-17.0,-7.0,-7.0,-73.0,-20.0,60.0,-2.0,2.473665475845337
462,-51.0,-27.0,12.0,1.0,-12143.0,-10970.0,147.0,-795.0,-20.0,-6.0,-15.0,-13.0,30.0,85.0,-87.0,-9.0,2.475673198699951
463,-51.0,-27.0,12.0,1.0,-12143.0,-10970.0,147.0,-795.0,-9.0,2.0,10.0,18.0,23.0,13.0,-128.0,-15.0,2.487687587738037
464,-47.0,-21.0,-44.0,1.0,-12145.0,-10968.0,155.0,-795.0,-9.0,2.0,10.0,18.0,23.0,13.0,-128.0,-15.0,2.4902536869049072
465,-47.0,-21.0,-44.0,1.0,-12145.0,-10968.0,155.0,-795.0,13.0,20.0,47.0,29.0,11.0,-104.0,54.0,-15.0,2.495056390762329
466,-47.0,-21.0,-44.0,1.0,-12145.0,-10968.0,155.0,-795.0,11.0,-16.0,-41.0,-25.0,-61.0,30.0,-63.0,14.0,2.5098817348480225
467,-34.0,9.0,-45.0,1.0,-12148.0,-10964.0,162.0,-801.0,11.0,-16.0,-41.0,-25.0,-61.0,30.0,-63.0,14.0,2.5116734504699707
468,-34.0,9.0,-45.0,1.0,-12148.0,-10964.0,162.0,-801.0,24.0,-4.0,-10.0,-5.0,90.0,60.0,-88.0,-34.0,2.5171051025390625
469,-34.0,9.0,-45.0,1.0,-12148.0,-10964.0,162.0,-801.0,57.0,18.0,-11.0,-2.0,87.0,-32.0,3.0,56.0,2.5250325202941895
470,-35.0,17.0,-35.0,1.0,-12150.0,-10961.0,164.0,-806.0,57.0,18.0,-11.0,-2.0,87.0,-32.0,3.0,56.0,2.5268681049346924
471,-35.0,17.0,-35.0,1.0,-12150.0,-10961.0,164.0,-806.0,-27.0,4.0,12.0,-42.0,-33.0,-20.0,-62.0,8.0,2.5322635173797607
472,-35.0,17.0,-35.0,1.0,-12150.0,-10961.0,164.0,-806.0,1.0,1.0,-30.0,-19.0,-70.0,-26.0,-128.0,21.0,2.5477476119995117
473,-123.0,-1.0,7.0,1.0,-12162.0,-10948.0,173.0,-813.0,1.0,1.0,-30.0,-19.0,-70.0,-26.0,-128.0,21.0,2.549576759338379
474,-123.0,-1.0,7.0,1.0,-12162.0,-10948.0,173.0,-813.0,-23.0,12.0,-6.0,-8.0,-34.0,-54.0,1.0,-53.0,2.5557971000671387
475,-123.0,-1.0,7.0,1.0,-12162.0,-10948.0,173.0,-813.0,-35.0,-5.0,7.0,15.0,-10.0,33.0,-9.0,-90.0,2.5707719326019287
476,-135.0,-6.0,22.0,1.0,-12177.0,-10930.0,186.0,-823.0,-35.0,-5.0,7.0,15.0,-10.0,33.0,-9.0,-90.0,2.572563409805298
477,-135.0,-6.0,22.0,1.0,-12177.0,-10930.0,186.0,-823.0,-2.0,-13.0,18.0,50.0,-49.0,-82.0,-29.0,6.0,2.5769829750061035
478,-135.0,-6.0,22.0,1.0,-12177.0,-10930.0,186.0,-823.0,-8.0,11.0,35.0,29.0,25.0,89.0,7.0,32.0,2.585622787475586
479,-139.0,-30.0,-22.0,1.0,-12193.0,-10912.0,199.0,-825.0,-8.0,11.0,35.0,29.0,25.0,89.0,7.0,32.0,2.587740659713745
480,-139.0,-30.0,-22.0,1.0,-12193.0,-10912.0,199.0,-825.0,3.0,-2.0,15.0,14.0,17.0,43.0,28.0,-16.0,2.592041015625
481,-139.0,-30.0,-22.0,1.0,-12193.0,-10912.0,199.0,-825.0,8.0,31.0,64.0,21.0,75.0,-2.0,-16.0,3.0,2.6083829402923584
482,-170.0,-57.0,-71.0,1.0,-12212.0,-10891.0,209.0,-817.0,8.0,31.0,64.0,21.0,75.0,-2.0,-16.0,3.0,2.6115806102752686
483,-170.0,-57.0,-71.0,1.0,-12212.0,-10891.0,209.0,-817.0,7.0,-4.0,-25.0,-36.0,-22.0,-7.0,7.0,31.0,2.6158618927001953
484,-170.0,-57.0,-71.0,1.0,-12212.0,-10891.0,209.0,-817.0,8.0,4.0,19.0,8.0,-18.0,45.0,-45.0,-5.0,2.6302242279052734
485,-169.0,-87.0,-115.0,1.0,-12229.0,-10873.0,218.0,-800.0,8.0,4.0,19.0,8.0,-18.0,45.0,-45.0,-5.0,2.6320433616638184
486,-169.0,-87.0,-115.0,1.0,-12229.0,-10873.0,218.0,-800.0,-17.0,-17.0,-17.0,7.0,-52.0,-36.0,69.0,10.0,2.638582229614258
487,-169.0,-87.0,-115.0,1.0,-12229.0,-10873.0,218.0,-800.0,-6.0,2.0,-50.0,-30.0,39.0,16.0,15.0,-38.0,2.6460845470428467
488,-191.0,-116.0,-200.0,1.0,-12254.0,-10847.0,226.0,-771.0,-6.0,2.0,-50.0,-30.0,39.0,16.0,15.0,-38.0,2.647974967956543
489,-191.0,-116.0,-200.0,1.0,-12254.0,-10847.0,226.0,-771.0,-16.0,-12.0,-16.0,-15.0,81.0,7.0,-7.0,1.0,2.6521260738372803
490,-191.0,-116.0,-200.0,1.0,-12254.0,-10847.0,226.0,-771.0,32.0,0.0,-8.0,0.0,7.0,-22.0,-14.0,53.0,2.6683671474456787
491,-143.0,-177.0,-288.0,1.0,-12274.0,-10827.0,232.0,-725.0,32.0,0.0,-8.0,0.0,7.0,-22.0,-14.0,53.0,2.671802520751953
492,-143.0,-177.0,-288.0,1.0,-12274.0,-10827.0,232.0,-725.0,4.0,-1.0,-5.0,46.0,-32.0,-26.0,-50.0,11.0,2.6761887073516846
493,-143.0,-177.0,-288.0,1.0,-12274.0,-10827.0,232.0,-725.0,-14.0,-7.0,-10.0,-9.0,-49.0,-13.0,-51.0,-1.0,2.690889358520508
494,-202.0,-307.0,-354.0,1.0,-12303.0,-10798.0,250.0,-657.0,-14.0,-7.0,-10.0,-9.0,-49.0,-13.0,-51.0,-1.0,2.6926796436309814
495,-202.0,-307.0,-354.0,1.0,-12303.0,-10798.0,250.0,-657.0,-1.0,-7.0,3.0,6.0,-9.0,-2.0,44.0,-8.0,2.6970694065093994
496,-202.0,-307.0,-354.0,1.0,-12303.0,-10798.0,250.0,-657.0,9.0,-20.0,-52.0,-9.0,-21.0,13.0,44.0,-2.0,2.704496145248413
497,-281.0,-412.0,-345.0,1.0,-12333.0,-10768.0,281.0,-574.0,9.0,-20.0,-52.0,-9.0,-21.0,13.0,44.0,-2.0,2.712751865386963
498,-281.0,-412.0,-345.0,1.0,-12333.0,-10768.0,281.0,-574.0,-10.0,-11.0,-39.0,-13.0,-14.0,20.0,6.0,-21.0,2.7146811485290527
499,-281.0,-412.0,-345.0,1.0,-12333.0,-10768.0,281.0,-574.0,-2.0,-15.0,-5.0,-27.0,-43.0,-13.0,7.0,-4.0,2.7276082038879395
