,Gyro 0,Gyro 1,Gyro 2,Label,Orientation 0,Orientation 1,Orientation 2,Orientation 3,Sensor 0,Sensor 1,Sensor 2,Sensor 3,Sensor 4,Sensor 5,Sensor 6,Sensor 7,Timestamp
0,-55.0,-6.0,28.0,1.0,-10010.0,-10977.0,-724.0,-6873.0,0.0,5.0,2.0,0.0,8.0,7.0,4.0,0.0,2.1457672119140625e-06
1,-55.0,-6.0,28.0,1.0,-10010.0,-10977.0,-724.0,-6873.0,-2.0,-10.0,-24.0,-4.0,-4.0,-19.0,-2.0,0.0,0.0021698474884033203
2,-55.0,-6.0,28.0,1.0,-10010.0,-10977.0,-724.0,-6873.0,3.0,-7.0,-9.0,6.0,36.0,22.0,-11.0,-3.0,0.004118919372558594
3,-64.0,17.0,15.0,1.0,-10016.0,-10970.0,-721.0,-6876.0,3.0,-7.0,-9.0,6.0,36.0,22.0,-11.0,-3.0,0.007098197937011719
4,-64.0,17.0,15.0,1.0,-10016.0,-10970.0,-721.0,-6876.0,4.0,20.0,20.0,0.0,-3.0,-4.0,5.0,4.0,0.011230230331420898
5,-39.0,22.0,5.0,1.0,-10019.0,-10967.0,-722.0,-6876.0,4.0,20.0,20.0,0.0,-3.0,-4.0,5.0,4.0,0.013226747512817383
6,-39.0,22.0,5.0,1.0,-10019.0,-10967.0,-722.0,-6876.0,-3.0,-6.0,27.0,6.0,9.0,-8.0,-7.0,7.0,0.015156745910644531
7,-39.0,22.0,5.0,1.0,-10019.0,-10967.0,-722.0,-6876.0,-6.0,-15.0,-43.0,-5.0,7.0,-7.0,1.0,-3.0,0.016995668411254883
8,36.0,22.0,10.0,1.0,-10012.0,-10973.0,-728.0,-6877.0,-6.0,-15.0,-43.0,-5.0,7.0,-7.0,1.0,-3.0,0.018845319747924805
9,36.0,22.0,10.0,1.0,-10012.0,-10973.0,-728.0,-6877.0,-1.0,-3.0,1.0,1.0,12.0,6.0,-2.0,1.0,0.022092342376708984
10,36.0,22.0,10.0,1.0,-10012.0,-10973.0,-728.0,-6877.0,0.0,-9.0,-15.0,-3.0,-9.0,-7.0,3.0,4.0,0.024979114532470703
11,71.0,11.0,16.0,1.0,-9999.0,-10985.0,-735.0,-6874.0,0.0,-9.0,-15.0,-3.0,-9.0,-7.0,3.0,4.0,0.027646303176879883
12,71.0,11.0,16.0,1.0,-9999.0,-10985.0,-735.0,-6874.0,-1.0,4.0,10.0,9.0,3.0,14.0,0.0,-3.0,0.029737234115600586
13,71.0,11.0,16.0,1.0,-9999.0,-10985.0,-735.0,-6874.0,13.0,46.0,29.0,-2.0,-46.0,-3.0,19.0,0.0,0.03231215476989746
14,-12.0,20.0,22.0,1.0,-9999.0,-10984.0,-736.0,-6877.0,13.0,46.0,29.0,-2.0,-46.0,-3.0,19.0,0.0,0.0341801643371582
15,-12.0,20.0,22.0,1.0,-9999.0,-10984.0,-736.0,-6877.0,-2.0,-6.0,6.0,6.0,2.0,11.0,0.0,1.0,0.036069393157958984
16,-12.0,20.0,22.0,1.0,-9999.0,-10984.0,-736.0,-6877.0,-6.0,-22.0,-7.0,-4.0,-4.0,-6.0,-15.0,-2.0,0.03792142868041992
17,-10.0,-4.0,23.0,1.0,-9997.0,-10984.0,-731.0,-6880.0,-6.0,-22.0,-7.0,-4.0,-4.0,-6.0,-15.0,-2.0,0.03973388671875
18,-10.0,-4.0,23.0,1.0,-9997.0,-10984.0,-731.0,-6880.0,0.0,2.0,3.0,-10.0,-5.0,9.0,0.0,-10.0,0.04162263870239258
19,-10.0,-4.0,23.0,1.0,-9997.0,-10984.0,-731.0,-6880.0,-4.0,-11.0,-24.0,-7.0,-22.0,6.0,1.0,-2.0,0.043700218200683594
20,31.0,8.0,27.0,1.0,-9991.0,-10989.0,-734.0,-6881.0,-4.0,-11.0,-24.0,-7.0,-22.0,6.0,1.0,-2.0,0.045575618743896484
21,31.0,8.0,27.0,1.0,-9991.0,-10989.0,-734.0,-6881.0,1.0,8.0,20.0,6.0,29.0,-1.0,-4.0,2.0,0.047457218170166016
22,31.0,8.0,27.0,1.0,-9991.0,-10989.0,-734.0,-6881.0,2.0,9.0,43.0,3.0,7.0,-2.0,-2.0,0.0,0.04926776885986328
23,1.0,-6.0,11.0,1.0,-9991.0,-10990.0,-735.0,-6880.0,2.0,9.0,43.0,3.0,7.0,-2.0,-2.0,0.0,0.05145072937011719
24,1.0,-6.0,11.0,1.0,-9991.0,-10990.0,-735.0,-6880.0,2.0,6.0,7.0,-6.0,-20.0,-12.0,-7.0,-1.0,0.05465340614318848
25,1.0,-6.0,11.0,1.0,-9991.0,-10990.0,-735.0,-6880.0,-3.0,-13.0,14.0,4.0,-3.0,-1.0,-1.0,-1.0,0.05721282958984375
26,18.0,-8.0,13.0,1.0,-9986.0,-10995.0,-733.0,-6880.0,-3.0,-13.0,14.0,4.0,-3.0,-1.0,-1.0,-1.0,0.05909562110900879
27,18.0,-8.0,13.0,1.0,-9986.0,-10995.0,-733.0,-6880.0,-3.0,-2.0,3.0,-1.0,-3.0,-3.0,5.0,0.0,0.0610346794128418
28,18.0,-8.0,13.0,1.0,-9986.0,-10995.0,-733.0,-6880.0,-5.0,-10.0,-53.0,-3.0,10.0,-5.0,-5.0,-1.0,0.06287693977355957
29,40.0,-17.0,24.0,1.0,-9979.0,-11002.0,-734.0,-6877.0,-5.0,-10.0,-53.0,-3.0,10.0,-5.0,-5.0,-1.0,0.06598877906799316
30,40.0,-17.0,24.0,1.0,-9979.0,-11002.0,-734.0,-6877.0,6.0,20.0,-19.0,-1.0,8.0,19.0,3.0,-8.0,0.06796693801879883
31,40.0,-17.0,24.0,1.0,-9979.0,-11002.0,-734.0,-6877.0,-9.0,-20.0,-16.0,-2.0,-1.0,-21.0,-33.0,-6.0,0.06980395317077637
32,-20.0,-11.0,12.0,1.0,-9981.0,-11003.0,-733.0,-6874.0,-9.0,-20.0,-16.0,-2.0,-1.0,-21.0,-33.0,-6.0,0.07172632217407227
33,-20.0,-11.0,12.0,1.0,-9981.0,-11003.0,-733.0,-6874.0,0.0,1.0,17.0,-12.0,-6.0,-6.0,6.0,5.0,0.0736386775970459
34,-20.0,-11.0,12.0,1.0,-9981.0,-11003.0,-733.0,-6874.0,4.0,13.0,44.0,7.0,1.0,1.0,0.0,4.0,0.07543134689331055
35,-36.0,6.0,-1.0,1.0,-9984.0,-11000.0,-732.0,-6873.0,4.0,13.0,44.0,7.0,1.0,1.0,0.0,4.0,0.07752108573913574
36,-36.0,6.0,-1.0,1.0,-9984.0,-11000.0,-732.0,-6873.0,-5.0,-11.0,6.0,3.0,6.0,-1.0,1.0,-1.0,0.07938933372497559
37,-36.0,6.0,-1.0,1.0,-9984.0,-11000.0,-732.0,-6873.0,4.0,11.0,6.0,-11.0,-15.0,-10.0,-4.0,-7.0,0.08119416236877441
38,-19.0,10.0,-11.0,1.0,-9985.0,-10999.0,-731.0,-6874.0,4.0,11.0,6.0,-11.0,-15.0,-10.0,-4.0,-7.0,0.08310627937316895
39,-19.0,10.0,-11.0,1.0,-9985.0,-10999.0,-731.0,-6874.0,-2.0,-17.0,-49.0,1.0,5.0,-5.0,-6.0,1.0,0.08665084838867188
40,-19.0,10.0,-11.0,1.0,-9985.0,-10999.0,-731.0,-6874.0,-8.0,-20.0,-33.0,-3.0,4.0,6.0,10.0,-1.0,0.08869647979736328
41,49.0,11.0,2.0,1.0,-9976.0,-11006.0,-736.0,-6874.0,-8.0,-20.0,-33.0,-3.0,4.0,6.0,10.0,-1.0,0.09056663513183594
42,49.0,11.0,2.0,1.0,-9976.0,-11006.0,-736.0,-6874.0,-3.0,-11.0,-11.0,-5.0,-3.0,-12.0,-2.0,5.0,0.09246706962585449
43,49.0,11.0,2.0,1.0,-9976.0,-11006.0,-736.0,-6874.0,8.0,28.0,80.0,1.0,6.0,16.0,-22.0,1.0,0.09428262710571289
44,18.0,31.0,16.0,1.0,-9974.0,-11007.0,-743.0,-6876.0,8.0,28.0,80.0,1.0,6.0,16.0,-22.0,1.0,0.09607362747192383
45,18.0,31.0,16.0,1.0,-9974.0,-11007.0,-743.0,-6876.0,-3.0,-9.0,-22.0,6.0,-20.0,-5.0,-1.0,0.0,0.09901928901672363
46,18.0,31.0,16.0,1.0,-9974.0,-11007.0,-743.0,-6876.0,-2.0,-5.0,-18.0,-6.0,2.0,-1.0,9.0,-4.0,0.10091066360473633
47,-7.0,10.0,19.0,1.0,-9973.0,-11006.0,-743.0,-6878.0,-2.0,-5.0,-18.0,-6.0,2.0,-1.0,9.0,-4.0,0.10276937484741211
48,-7.0,10.0,19.0,1.0,-9973.0,-11006.0,-743.0,-6878.0,3.0,13.0,-9.0,-1.0,-13.0,1.0,-1.0,1.0,0.10471868515014648
49,-7.0,10.0,19.0,1.0,-9973.0,-11006.0,-743.0,-6878.0,-5.0,-4.0,3.0,0.0,0.0,-2.0,-4.0,-5.0,0.10650396347045898
50,3.0,-3.0,16.0,1.0,-9970.0,-11010.0,-742.0,-6877.0,-5.0,-4.0,3.0,0.0,0.0,-2.0,-4.0,-5.0,0.10831522941589355
51,3.0,-3.0,16.0,1.0,-9970.0,-11010.0,-742.0,-6877.0,-4.0,-12.0,-19.0,-2.0,-4.0,-11.0,8.0,-4.0,0.11040711402893066
52,3.0,-3.0,16.0,1.0,-9970.0,-11010.0,-742.0,-6877.0,5.0,10.0,-2.0,-2.0,-3.0,-8.0,5.0,1.0,0.1122591495513916
53,-22.0,8.0,11.0,1.0,-9971.0,-11008.0,-741.0,-6879.0,5.0,10.0,-2.0,-2.0,-3.0,-8.0,5.0,1.0,0.1141669750213623
54,-22.0,8.0,11.0,1.0,-9971.0,-11008.0,-741.0,-6879.0,1.0,12.0,11.0,-5.0,-4.0,3.0,-3.0,0.0,0.1175079345703125
55,-22.0,8.0,11.0,1.0,-9971.0,-11008.0,-741.0,-6879.0,-2.0,7.0,24.0,5.0,3.0,0.0,3.0,3.0,0.11945056915283203
56,-24.0,17.0,14.0,1.0,-9970.0,-11008.0,-740.0,-6880.0,-2.0,7.0,24.0,5.0,3.0,0.0,3.0,3.0,0.12129569053649902
57,-24.0,17.0,14.0,1.0,-9970.0,-11008.0,-740.0,-6880.0,-2.0,-11.0,8.0,-8.0,-13.0,4.0,-3.0,-3.0,0.12318086624145508
58,-24.0,17.0,14.0,1.0,-9970.0,-11008.0,-740.0,-6880.0,-2.0,-11.0,-6.0,-4.0,10.0,-5.0,6.0,-2.0,0.12498760223388672
59,-32.0,26.0,38.0,1.0,-9970.0,-11004.0,-737.0,-6886.0,-2.0,-11.0,-6.0,-4.0,10.0,-5.0,6.0,-2.0,0.1268618106842041
60,-32.0,26.0,38.0,1.0,-9970.0,-11004.0,-737.0,-6886.0,-6.0,-22.0,7.0,-1.0,11.0,-2.0,-1.0,-4.0,0.12874388694763184
61,-32.0,26.0,38.0,1.0,-9970.0,-11004.0,-737.0,-6886.0,1.0,-8.0,-6.0,-3.0,-9.0,0.0,0.0,7.0,0.1307370662689209
62,18.0,25.0,34.0,1.0,-9966.0,-11005.0,-738.0,-6892.0,1.0,-8.0,-6.0,-3.0,-9.0,0.0,0.0,7.0,0.13316917419433594
63,18.0,25.0,34.0,1.0,-9966.0,-11005.0,-738.0,-6892.0,0.0,4.0,25.0,3.0,-1.0,-10.0,-30.0,-9.0,0.13509845733642578
64,18.0,25.0,34.0,1.0,-9966.0,-11005.0,-738.0,-6892.0,-6.0,-15.0,-30.0,-5.0,-17.0,-2.0,-6.0,-2.0,0.1369163990020752
65,2.0,-4.0,28.0,1.0,-9963.0,-11008.0,-737.0,-6891.0,-6.0,-15.0,-30.0,-5.0,-17.0,-2.0,-6.0,-2.0,0.13871002197265625
66,2.0,-4.0,28.0,1.0,-9963.0,-11008.0,-737.0,-6891.0,2.0,3.0,9.0,-6.0,-12.0,-7.0,-3.0,1.0,0.14058399200439453
67,2.0,-4.0,28.0,1.0,-9963.0,-11008.0,-737.0,-6891.0,-6.0,-9.0,-8.0,6.0,6.0,0.0,12.0,1.0,0.1423656940460205
68,-22.0,18.0,27.0,1.0,-9964.0,-11005.0,-739.0,-6893.0,-6.0,-9.0,-8.0,6.0,6.0,0.0,12.0,1.0,0.1445298194885254
69,-22.0,18.0,27.0,1.0,-9964.0,-11005.0,-739.0,-6893.0,5.0,10.0,5.0,4.0,-2.0,-2.0,6.0,-1.0,0.14836525917053223
70,-22.0,18.0,27.0,1.0,-9964.0,-11005.0,-739.0,-6893.0,0.0,5.0,6.0,-1.0,20.0,6.0,2.0,1.0,0.15090608596801758
71,-63.0,9.0,40.0,1.0,-9970.0,-10999.0,-733.0,-6897.0,0.0,5.0,6.0,-1.0,20.0,6.0,2.0,1.0,0.1527700424194336
72,-63.0,9.0,40.0,1.0,-9970.0,-10999.0,-733.0,-6897.0,-1.0,4.0,16.0,1.0,-7.0,-3.0,5.0,2.0,0.15465593338012695
73,-63.0,9.0,40.0,1.0,-9970.0,-10999.0,-733.0,-6897.0,-3.0,-9.0,-4.0,-1.0,-16.0,-24.0,-3.0,3.0,0.15647125244140625
74,2.0,10.0,37.0,1.0,-9965.0,-11000.0,-731.0,-6900.0,-3.0,-9.0,-4.0,-1.0,-16.0,-24.0,-3.0,3.0,0.1582651138305664
75,2.0,10.0,37.0,1.0,-9965.0,-11000.0,-731.0,-6900.0,5.0,17.0,-4.0,0.0,4.0,-3.0,5.0,1.0,0.1603865623474121
76,2.0,10.0,37.0,1.0,-9965.0,-11000.0,-731.0,-6900.0,-6.0,-6.0,-33.0,0.0,3.0,9.0,27.0,1.0,0.1621990203857422
77,-24.0,0.0,15.0,1.0,-9964.0,-11002.0,-727.0,-6901.0,-6.0,-6.0,-33.0,0.0,3.0,9.0,27.0,1.0,0.16398239135742188
78,-24.0,0.0,15.0,1.0,-9964.0,-11002.0,-727.0,-6901.0,0.0,-8.0,-2.0,7.0,16.0,6.0,9.0,3.0,0.1658649444580078
79,-24.0,0.0,15.0,1.0,-9964.0,-11002.0,-727.0,-6901.0,1.0,14.0,40.0,6.0,19.0,6.0,-4.0,2.0,0.16772723197937012
80,-40.0,-6.0,7.0,1.0,-9966.0,-11000.0,-722.0,-6901.0,1.0,14.0,40.0,6.0,19.0,6.0,-4.0,2.0,0.16955232620239258
81,-40.0,-6.0,7.0,1.0,-9966.0,-11000.0,-722.0,-6901.0,-2.0,-8.0,4.0,-7.0,-24.0,7.0,-1.0,-2.0,0.17148160934448242
82,-40.0,-6.0,7.0,1.0,-9966.0,-11000.0,-722.0,-6901.0,-2.0,-10.0,-13.0,4.0,-5.0,-3.0,-6.0,-13.0,0.17332720756530762
83,11.0,1.0,6.0,1.0,-9966.0,-11000.0,-722.0,-6901.0,-2.0,-10.0,-13.0,4.0,-5.0,-3.0,-6.0,-13.0,0.17555499076843262
84,11.0,1.0,6.0,1.0,-9966.0,-11000.0,-722.0,-6901.0,1.0,4.0,-18.0,-5.0,8.0,-4.0,-3.0,-2.0,0.1788935661315918
85,11.0,1.0,6.0,1.0,-9966.0,-11000.0,-722.0,-6901.0,4.0,10.0,0.0,-1.0,4.0,3.0,-3.0,-3.0,0.18177580833435059
86,12.0,9.0,5.0,1.0,-9966.0,-11001.0,-723.0,-6900.0,4.0,10.0,0.0,-1.0,4.0,3.0,-3.0,-3.0,0.1837294101715088
87,12.0,9.0,5.0,1.0,-9966.0,-11001.0,-723.0,-6900.0,0.0,-8.0,-9.0,0.0,-7.0,10.0,0.0,-1.0,0.18566107749938965
88,12.0,9.0,5.0,1.0,-9966.0,-11001.0,-723.0,-6900.0,-1.0,-5.0,1.0,-4.0,0.0,-7.0,-4.0,1.0,0.18749117851257324
89,-44.0,4.0,1.0,1.0,-9973.0,-10995.0,-723.0,-6899.0,-1.0,-5.0,1.0,-4.0,0.0,-7.0,-4.0,1.0,0.1893141269683838
90,-44.0,4.0,1.0,1.0,-9973.0,-10995.0,-723.0,-6899.0,1.0,18.0,31.0,9.0,-4.0,4.0,1.0,3.0,0.19121599197387695
91,-44.0,4.0,1.0,1.0,-9973.0,-10995.0,-723.0,-6899.0,-1.0,0.0,-9.0,-3.0,2.0,8.0,-5.0,0.0,0.19327187538146973
92,-35.0,4.0,12.0,1.0,-9976.0,-10991.0,-719.0,-6901.0,-1.0,0.0,-9.0,-3.0,2.0,8.0,-5.0,0.0,0.19512414932250977
93,-35.0,4.0,12.0,1.0,-9976.0,-10991.0,-719.0,-6901.0,-2.0,17.0,72.0,3.0,-4.0,-8.0,-4.0,5.0,0.19702696800231934
94,-35.0,4.0,12.0,1.0,-9976.0,-10991.0,-719.0,-6901.0,5.0,4.0,32.0,-2.0,-16.0,-10.0,-16.0,-6.0,0.19887423515319824
95,-28.0,28.0,17.0,1.0,-9976.0,-10989.0,-719.0,-6904.0,5.0,4.0,32.0,-2.0,-16.0,-10.0,-16.0,-6.0,0.2006843090057373
96,-28.0,28.0,17.0,1.0,-9976.0,-10989.0,-719.0,-6904.0,-2.0,-12.0,-26.0,-3.0,4.0,4.0,-6.0,-6.0,0.20258069038391113
97,-28.0,28.0,17.0,1.0,-9976.0,-10989.0,-719.0,-6904.0,-7.0,-21.0,-46.0,1.0,-6.0,3.0,-7.0,-4.0,0.2043900489807129
98,-34.0,18.0,19.0,1.0,-9977.0,-10987.0,-718.0,-6906.0,-7.0,-21.0,-46.0,1.0,-6.0,3.0,-7.0,-4.0,0.20659661293029785
99,-34.0,18.0,19.0,1.0,-9977.0,-10987.0,-718.0,-6906.0,2.0,-3.0,-21.0,-5.0,-10.0,-18.0,2.0,-1.0,0.20983624458312988
100,-34.0,18.0,19.0,1.0,-9977.0,-10987.0,-718.0,-6906.0,10.0,23.0,15.0,10.0,12.0,1.0,4.0,2.0,0.21192216873168945
101,-25.0,2.0,10.0,1.0,-9978.0,-10985.0,-715.0,-6908.0,10.0,23.0,15.0,10.0,12.0,1.0,4.0,2.0,0.2139124870300293
102,-25.0,2.0,10.0,1.0,-9978.0,-10985.0,-715.0,-6908.0,-7.0,-6.0,-25.0,1.0,14.0,1.0,2.0,-3.0,0.21643424034118652
103,-25.0,2.0,10.0,1.0,-9978.0,-10985.0,-715.0,-6908.0,1.0,4.0,-30.0,-10.0,-6.0,1.0,2.0,1.0,0.2182931900024414
104,11.0,-10.0,5.0,1.0,-9978.0,-10985.0,-715.0,-6908.0,1.0,4.0,-30.0,-10.0,-6.0,1.0,2.0,1.0,0.22010326385498047
105,11.0,-10.0,5.0,1.0,-9978.0,-10985.0,-715.0,-6908.0,0.0,2.0,-17.0,-2.0,9.0,-2.0,-12.0,-1.0,0.2219865322113037
106,11.0,-10.0,5.0,1.0,-9978.0,-10985.0,-715.0,-6908.0,-6.0,-1.0,19.0,-1.0,12.0,7.0,33.0,0.0,0.22378301620483398
107,8.0,-3.0,-8.0,1.0,-9978.0,-10985.0,-714.0,-6908.0,-6.0,-1.0,19.0,-1.0,12.0,7.0,33.0,0.0,0.2257518768310547
108,8.0,-3.0,-8.0,1.0,-9978.0,-10985.0,-714.0,-6908.0,-8.0,-31.0,-15.0,4.0,4.0,4.0,5.0,-1.0,0.22791290283203125
109,8.0,-3.0,-8.0,1.0,-9978.0,-10985.0,-714.0,-6908.0,-5.0,-9.0,-13.0,3.0,7.0,5.0,-8.0,-1.0,0.2297346591949463
110,0.0,1.0,-8.0,1.0,-9978.0,-10986.0,-715.0,-6907.0,-5.0,-9.0,-13.0,3.0,7.0,5.0,-8.0,-1.0,0.23158693313598633
111,0.0,1.0,-8.0,1.0,-9978.0,-10986.0,-715.0,-6907.0,1.0,7.0,-24.0,-6.0,-2.0,-4.0,0.0,-1.0,0.23349404335021973
112,0.0,1.0,-8.0,1.0,-9978.0,-10986.0,-715.0,-6907.0,-1.0,5.0,-11.0,-4.0,-16.0,4.0,-6.0,0.0,0.23529577255249023
113,-22.0,-15.0,7.0,1.0,-9981.0,-10985.0,-715.0,-6903.0,-1.0,5.0,-11.0,-4.0,-16.0,4.0,-6.0,0.0,0.23720765113830566
114,-22.0,-15.0,7.0,1.0,-9981.0,-10985.0,-715.0,-6903.0,3.0,3.0,-26.0,-7.0,0.0,-2.0,-1.0,-4.0,0.24035239219665527
115,-22.0,-15.0,7.0,1.0,-9981.0,-10985.0,-715.0,-6903.0,2.0,11.0,-7.0,1.0,-1.0,2.0,-2.0,4.0,0.24229836463928223
116,9.0,-12.0,18.0,1.0,-9978.0,-10987.0,-710.0,-6905.0,2.0,11.0,-7.0,1.0,-1.0,2.0,-2.0,4.0,0.24426770210266113
117,9.0,-12.0,18.0,1.0,-9978.0,-10987.0,-710.0,-6905.0,-3.0,1.0,-3.0,-3.0,14.0,0.0,4.0,-5.0,0.24625897407531738
118,9.0,-12.0,18.0,1.0,-9978.0,-10987.0,-710.0,-6905.0,0.0,-8.0,-6.0,-3.0,-12.0,0.0,-4.0,-15.0,0.24891901016235352
119,20.0,-6.0,9.0,1.0,-9973.0,-10993.0,-711.0,-6903.0,0.0,-8.0,-6.0,-3.0,-12.0,0.0,-4.0,-15.0,0.25081419944763184
120,20.0,-6.0,9.0,1.0,-9973.0,-10993.0,-711.0,-6903.0,-1.0,2.0,11.0,-3.0,-19.0,-11.0,-5.0,-1.0,0.2527496814727783
121,20.0,-6.0,9.0,1.0,-9973.0,-10993.0,-711.0,-6903.0,2.0,17.0,-14.0,-10.0,-4.0,-8.0,-30.0,4.0,0.2545466423034668
122,-16.0,-12.0,6.0,1.0,-9973.0,-10993.0,-711.0,-6904.0,2.0,17.0,-14.0,-10.0,-4.0,-8.0,-30.0,4.0,0.25634050369262695
123,-16.0,-12.0,6.0,1.0,-9973.0,-10993.0,-711.0,-6904.0,-2.0,-12.0,-17.0,4.0,-2.0,9.0,0.0,1.0,0.25824689865112305
124,-16.0,-12.0,6.0,1.0,-9973.0,-10993.0,-711.0,-6904.0,1.0,-7.0,-10.0,-2.0,8.0,-3.0,-5.0,1.0,0.2602827548980713
125,-29.0,14.0,28.0,1.0,-9972.0,-10990.0,-705.0,-6909.0,1.0,-7.0,-10.0,-2.0,8.0,-3.0,-5.0,1.0,0.2620964050292969
126,-29.0,14.0,28.0,1.0,-9972.0,-10990.0,-705.0,-6909.0,1.0,5.0,10.0,-3.0,-3.0,8.0,0.0,2.0,0.26395320892333984
127,-29.0,14.0,28.0,1.0,-9972.0,-10990.0,-705.0,-6909.0,-3.0,-1.0,6.0,5.0,-11.0,0.0,2.0,-4.0,0.2657442092895508
128,18.0,13.0,20.0,1.0,-9968.0,-10991.0,-705.0,-6914.0,-3.0,-1.0,6.0,5.0,-11.0,0.0,2.0,-4.0,0.26764535903930664
129,18.0,13.0,20.0,1.0,-9968.0,-10991.0,-705.0,-6914.0,-5.0,-14.0,-23.0,-4.0,-13.0,-4.0,3.0,2.0,0.270923376083374
130,18.0,13.0,20.0,1.0,-9968.0,-10991.0,-705.0,-6914.0,3.0,-5.0,36.0,1.0,6.0,-11.0,5.0,5.0,0.272899866104126
131,68.0,6.0,0.0,1.0,-9960.0,-10998.0,-711.0,-6913.0,3.0,-5.0,36.0,1.0,6.0,-11.0,5.0,5.0,0.27472829818725586
132,68.0,6.0,0.0,1.0,-9960.0,-10998.0,-711.0,-6913.0,-5.0,-3.0,22.0,3.0,-4.0,7.0,0.0,2.0,0.2766244411468506
133,68.0,6.0,0.0,1.0,-9960.0,-10998.0,-711.0,-6913.0,-3.0,-8.0,-10.0,1.0,-4.0,-6.0,3.0,-1.0,0.27841973304748535
134,40.0,-2.0,5.0,1.0,-9955.0,-11004.0,-717.0,-6910.0,-3.0,-8.0,-10.0,1.0,-4.0,-6.0,3.0,-1.0,0.28075528144836426
135,40.0,-2.0,5.0,1.0,-9955.0,-11004.0,-717.0,-6910.0,7.0,15.0,5.0,7.0,21.0,4.0,2.0,3.0,0.2831916809082031
136,40.0,-2.0,5.0,1.0,-9955.0,-11004.0,-717.0,-6910.0,-2.0,-9.0,5.0,-2.0,-12.0,-2.0,2.0,-6.0,0.2850837707519531
137,-21.0,10.0,24.0,1.0,-9956.0,-11003.0,-716.0,-6911.0,-2.0,-9.0,5.0,-2.0,-12.0,-2.0,2.0,-6.0,0.28692150115966797
138,-21.0,10.0,24.0,1.0,-9956.0,-11003.0,-716.0,-6911.0,-1.0,3.0,3.0,0.0,4.0,1.0,3.0,1.0,0.28882861137390137
139,-21.0,10.0,24.0,1.0,-9956.0,-11003.0,-716.0,-6911.0,2.0,13.0,2.0,-6.0,8.0,3.0,37.0,5.0,0.29064035415649414
140,-13.0,-2.0,33.0,1.0,-9953.0,-11003.0,-709.0,-6916.0,2.0,13.0,2.0,-6.0,8.0,3.0,37.0,5.0,0.2925760746002197
141,-13.0,-2.0,33.0,1.0,-9953.0,-11003.0,-709.0,-6916.0,-1.0,-2.0,2.0,0.0,-15.0,1.0,3.0,-3.0,0.2946600914001465
142,-13.0,-2.0,33.0,1.0,-9953.0,-11003.0,-709.0,-6916.0,-9.0,-12.0,39.0,-7.0,-6.0,-7.0,-14.0,-5.0,0.2965118885040283
143,34.0,-9.0,32.0,1.0,-9943.0,-11012.0,-707.0,-6916.0,-9.0,-12.0,39.0,-7.0,-6.0,-7.0,-14.0,-5.0,0.29875683784484863
144,34.0,-9.0,32.0,1.0,-9943.0,-11012.0,-707.0,-6916.0,-2.0,-3.0,2.0,3.0,2.0,-4.0,-3.0,-2.0,0.30190420150756836
145,34.0,-9.0,32.0,1.0,-9943.0,-11012.0,-707.0,-6916.0,-3.0,-13.0,-31.0,0.0,-5.0,5.0,-4.0,-6.0,0.30390191078186035
146,12.0,-19.0,13.0,1.0,-9939.0,-11018.0,-707.0,-6912.0,-3.0,-13.0,-31.0,0.0,-5.0,5.0,-4.0,-6.0,0.30597352981567383
147,12.0,-19.0,13.0,1.0,-9939.0,-11018.0,-707.0,-6912.0,-3.0,-8.0,24.0,5.0,12.0,8.0,-9.0,-2.0,0.307858943939209
148,12.0,-19.0,13.0,1.0,-9939.0,-11018.0,-707.0,-6912.0,-5.0,-13.0,-27.0,-9.0,-10.0,-4.0,3.0,4.0,0.3096930980682373
149,-17.0,-1.0,6.0,1.0,-9939.0,-11019.0,-705.0,-6911.0,-5.0,-13.0,-27.0,-9.0,-10.0,-4.0,3.0,4.0,0.31150364875793457
150,-17.0,-1.0,6.0,1.0,-9939.0,-11019.0,-705.0,-6911.0,3.0,-2.0,2.0,3.0,9.0,13.0,3.0,0.0,0.3141448497772217
151,-17.0,-1.0,6.0,1.0,-9939.0,-11019.0,-705.0,-6911.0,5.0,24.0,58.0,9.0,-22.0,0.0,-8.0,5.0,0.31627678871154785
152,5.0,20.0,6.0,1.0,-9938.0,-11019.0,-710.0,-6911.0,5.0,24.0,58.0,9.0,-22.0,0.0,-8.0,5.0,0.3181266784667969
153,5.0,20.0,6.0,1.0,-9938.0,-11019.0,-710.0,-6911.0,-4.0,-6.0,0.0,-3.0,0.0,1.0,-1.0,-6.0,0.320021390914917
154,5.0,20.0,6.0,1.0,-9938.0,-11019.0,-710.0,-6911.0,-4.0,-13.0,-23.0,-10.0,-8.0,2.0,-4.0,0.0,0.32184362411499023
155,-43.0,19.0,9.0,1.0,-9941.0,-11017.0,-711.0,-6911.0,-4.0,-13.0,-23.0,-10.0,-8.0,2.0,-4.0,0.0,0.3236517906188965
156,-43.0,19.0,9.0,1.0,-9941.0,-11017.0,-711.0,-6911.0,1.0,6.0,-20.0,-10.0,-9.0,-10.0,0.0,1.0,0.32554054260253906
157,-43.0,19.0,9.0,1.0,-9941.0,-11017.0,-711.0,-6911.0,1.0,12.0,26.0,3.0,5.0,1.0,-3.0,4.0,0.327664852142334
158,-32.0,8.0,6.0,1.0,-9942.0,-11017.0,-710.0,-6910.0,1.0,12.0,26.0,3.0,5.0,1.0,-3.0,4.0,0.32964062690734863
159,-32.0,8.0,6.0,1.0,-9942.0,-11017.0,-710.0,-6910.0,2.0,8.0,3.0,-10.0,-8.0,-8.0,-2.0,-1.0,0.3327906131744385
160,-32.0,8.0,6.0,1.0,-9942.0,-11017.0,-710.0,-6910.0,-1.0,0.0,11.0,3.0,4.0,-2.0,-2.0,-5.0,0.3347158432006836
161,-6.0,16.0,-2.0,1.0,-9940.0,-11019.0,-712.0,-6909.0,-1.0,0.0,11.0,3.0,4.0,-2.0,-2.0,-5.0,0.33655810356140137
162,-6.0,16.0,-2.0,1.0,-9940.0,-11019.0,-712.0,-6909.0,0.0,4.0,-16.0,2.0,9.0,-11.0,-4.0,-3.0,0.3384420871734619
163,-6.0,16.0,-2.0,1.0,-9940.0,-11019.0,-712.0,-6909.0,1.0,-9.0,-24.0,13.0,49.0,15.0,2.0,1.0,0.340238094329834
164,-47.0,18.0,14.0,1.0,-9943.0,-11014.0,-710.0,-6912.0,1.0,-9.0,-24.0,13.0,49.0,15.0,2.0,1.0,0.3420274257659912
165,-47.0,18.0,14.0,1.0,-9943.0,-11014.0,-710.0,-6912.0,2.0,14.0,41.0,5.0,-19.0,-1.0,-2.0,-3.0,0.343904972076416
166,-47.0,18.0,14.0,1.0,-9943.0,-11014.0,-710.0,-6912.0,-3.0,-7.0,-31.0,-4.0,-20.0,-4.0,-4.0,-3.0,0.3456997871398926
167,-21.0,8.0,27.0,1.0,-9944.0,-11012.0,-706.0,-6916.0,-3.0,-7.0,-31.0,-4.0,-20.0,-4.0,-4.0,-3.0,0.3483312129974365
168,-21.0,8.0,27.0,1.0,-9944.0,-11012.0,-706.0,-6916.0,-4.0,-16.0,-34.0,-10.0,-12.0,-5.0,-7.0,-3.0,0.3503587245941162
169,-21.0,8.0,27.0,1.0,-9944.0,-11012.0,-706.0,-6916.0,-1.0,11.0,-13.0,-6.0,-18.0,-6.0,10.0,-1.0,0.352245569229126
170,49.0,-16.0,23.0,1.0,-9933.0,-11021.0,-703.0,-6916.0,-1.0,11.0,-13.0,-6.0,-18.0,-6.0,10.0,-1.0,0.35405421257019043
171,49.0,-16.0,23.0,1.0,-9933.0,-11021.0,-703.0,-6916.0,0.0,6.0,-13.0,-10.0,-13.0,-3.0,1.0,0.0,0.3559296131134033
172,49.0,-16.0,23.0,1.0,-9933.0,-11021.0,-703.0,-6916.0,-3.0,-11.0,-6.0,0.0,13.0,9.0,-15.0,-1.0,0.35772705078125
173,47.0,-10.0,11.0,1.0,-9924.0,-11030.0,-703.0,-6916.0,-3.0,-11.0,-6.0,0.0,13.0,9.0,-15.0,-1.0,0.3597605228424072
174,47.0,-10.0,11.0,1.0,-9924.0,-11030.0,-703.0,-6916.0,-4.0,-18.0,-33.0,-2.0,2.0,-3.0,1.0,-2.0,0.36284422874450684
175,47.0,-10.0,11.0,1.0,-9924.0,-11030.0,-703.0,-6916.0,2.0,2.0,8.0,5.0,14.0,1.0,2.0,5.0,0.3663444519042969
176,5.0,3.0,5.0,1.0,-9923.0,-11031.0,-704.0,-6915.0,2.0,2.0,8.0,5.0,14.0,1.0,2.0,5.0,0.3683314323425293
177,5.0,3.0,5.0,1.0,-9923.0,-11031.0,-704.0,-6915.0,1.0,-1.0,-1.0,3.0,14.0,2.0,-1.0,0.0,0.3747241497039795
178,5.0,3.0,5.0,1.0,-9923.0,-11031.0,-704.0,-6915.0,0.0,11.0,14.0,4.0,-10.0,-6.0,-3.0,-4.0,0.37679147720336914
179,-48.0,-1.0,9.0,1.0,-9927.0,-11029.0,-701.0,-6913.0,0.0,11.0,14.0,4.0,-10.0,-6.0,-3.0,-4.0,0.3910539150238037
180,-48.0,-1.0,9.0,1.0,-9927.0,-11029.0,-701.0,-6913.0,-5.0,-20.0,-11.0,6.0,7.0,-2.0,-2.0,0.0,0.39551711082458496
181,-48.0,-1.0,9.0,1.0,-9927.0,-11029.0,-701.0,-6913.0,0.0,-2.0,0.0,-8.0,3.0,-8.0,1.0,1.0,0.39906954765319824
182,-55.0,9.0,8.0,1.0,-9934.0,-11022.0,-699.0,-6915.0,0.0,-2.0,0.0,-8.0,3.0,-8.0,1.0,1.0,0.41344475746154785
183,-55.0,9.0,8.0,1.0,-9934.0,-11022.0,-699.0,-6915.0,4.0,14.0,38.0,10.0,9.0,-4.0,1.0,1.0,0.41673898696899414
184,-55.0,9.0,8.0,1.0,-9934.0,-11022.0,-699.0,-6915.0,-3.0,-7.0,-35.0,-5.0,-19.0,-3.0,-2.0,-4.0,0.41989707946777344
185,39.0,-2.0,6.0,1.0,-9927.0,-11029.0,-701.0,-6913.0,-3.0,-7.0,-35.0,-5.0,-19.0,-3.0,-2.0,-4.0,0.42841291427612305
186,39.0,-2.0,6.0,1.0,-9927.0,-11029.0,-701.0,-6913.0,-2.0,8.0,11.0,-1.0,4.0,8.0,2.0,0.0,0.43474483489990234
187,58.0,3.0,12.0,1.0,-9917.0,-11039.0,-708.0,-6910.0,-2.0,8.0,11.0,-1.0,4.0,8.0,2.0,0.0,0.4365835189819336
188,58.0,3.0,12.0,1.0,-9917.0,-11039.0,-708.0,-6910.0,-1.0,-7.0,-1.0,5.0,2.0,-4.0,-26.0,-4.0,0.4416685104370117
189,58.0,3.0,12.0,1.0,-9917.0,-11039.0,-708.0,-6910.0,2.0,-6.0,-11.0,-1.0,9.0,4.0,0.0,0.0,0.4497218132019043
190,-21.0,-8.0,4.0,1.0,-9919.0,-11040.0,-708.0,-6906.0,2.0,-6.0,-11.0,-1.0,9.0,4.0,0.0,0.0,0.45151519775390625
191,-21.0,-8.0,4.0,1.0,-9919.0,-11040.0,-708.0,-6906.0,0.0,4.0,0.0,-4.0,-4.0,-10.0,-6.0,-5.0,0.4570956230163574
192,-21.0,-8.0,4.0,1.0,-9919.0,-11040.0,-708.0,-6906.0,-3.0,5.0,33.0,8.0,-1.0,2.0,-3.0,-2.0,0.47217512130737305
193,-29.0,-12.0,-8.0,1.0,-9922.0,-11039.0,-706.0,-6903.0,-3.0,5.0,33.0,8.0,-1.0,2.0,-3.0,-2.0,0.4740269184112549
194,-29.0,-12.0,-8.0,1.0,-9922.0,-11039.0,-706.0,-6903.0,1.0,-9.0,-6.0,3.0,15.0,12.0,6.0,0.0,0.4803805351257324
195,-29.0,-12.0,-8.0,1.0,-9922.0,-11039.0,-706.0,-6903.0,7.0,25.0,12.0,-12.0,-9.0,-5.0,5.0,5.0,0.4958662986755371
196,26.0,16.0,-5.0,1.0,-9919.0,-11042.0,-711.0,-6903.0,7.0,25.0,12.0,-12.0,-9.0,-5.0,5.0,5.0,0.4994044303894043
197,26.0,16.0,-5.0,1.0,-9919.0,-11042.0,-711.0,-6903.0,2.0,4.0,3.0,6.0,3.0,-5.0,10.0,3.0,0.5013041496276855
198,26.0,16.0,-5.0,1.0,-9919.0,-11042.0,-711.0,-6903.0,-4.0,-13.0,-8.0,3.0,0.0,-5.0,-4.0,-7.0,0.5099804401397705
199,1.0,6.0,-5.0,1.0,-9919.0,-11042.0,-712.0,-6902.0,-4.0,-13.0,-8.0,3.0,0.0,-5.0,-4.0,-7.0,0.5118076801300049
200,1.0,6.0,-5.0,1.0,-9919.0,-11042.0,-712.0,-6902.0,3.0,13.0,-3.0,4.0,12.0,3.0,3.0,0.0,0.5168533325195312
201,1.0,6.0,-5.0,1.0,-9919.0,-11042.0,-712.0,-6902.0,-5.0,-9.0,-14.0,1.0,2.0,3.0,0.0,-13.0,0.5330469608306885
202,-32.0,14.0,-8.0,1.0,-9921.0,-11042.0,-715.0,-6900.0,-5.0,-9.0,-14.0,1.0,2.0,3.0,0.0,-13.0,0.5348548889160156
203,-32.0,14.0,-8.0,1.0,-9921.0,-11042.0,-715.0,-6900.0,-3.0,0.0,5.0,-3.0,3.0,-7.0,0.0,1.0,0.5388815402984619
204,-32.0,14.0,-8.0,1.0,-9921.0,-11042.0,-715.0,-6900.0,3.0,-9.0,-1.0,16.0,-11.0,9.0,-2.0,3.0,0.5548982620239258
205,-25.0,7.0,-7.0,1.0,-9924.0,-11040.0,-717.0,-6898.0,3.0,-9.0,-1.0,16.0,-11.0,9.0,-2.0,3.0,0.5567669868469238
206,-25.0,7.0,-7.0,1.0,-9924.0,-11040.0,-717.0,-6898.0,2.0,2.0,3.0,2.0,-3.0,-16.0,5.0,0.0,0.5614762306213379
207,-25.0,7.0,-7.0,1.0,-9924.0,-11040.0,-717.0,-6898.0,-6.0,-19.0,5.0,2.0,-10.0,-13.0,15.0,-5.0,0.5697977542877197
208,17.0,22.0,8.0,1.0,-9919.0,-11043.0,-719.0,-6900.0,-6.0,-19.0,5.0,2.0,-10.0,-13.0,15.0,-5.0,0.5716159343719482
209,17.0,22.0,8.0,1.0,-9919.0,-11043.0,-719.0,-6900.0,-5.0,-1.0,9.0,-2.0,-28.0,4.0,-5.0,-2.0,0.577216386795044
210,17.0,22.0,8.0,1.0,-9919.0,-11043.0,-719.0,-6900.0,-1.0,1.0,-19.0,-1.0,3.0,4.0,-10.0,2.0,0.592139720916748
211,51.0,21.0,9.0,1.0,-9910.0,-11051.0,-726.0,-6900.0,-1.0,1.0,-19.0,-1.0,3.0,4.0,-10.0,2.0,0.5943052768707275
212,51.0,21.0,9.0,1.0,-9910.0,-11051.0,-726.0,-6900.0,11.0,39.0,54.0,-12.0,-13.0,5.0,9.0,2.0,0.5992708206176758
213,51.0,21.0,9.0,1.0,-9910.0,-11051.0,-726.0,-6900.0,-3.0,-7.0,-25.0,1.0,23.0,-2.0,-1.0,0.0,0.6154615879058838
214,20.0,21.0,20.0,1.0,-9904.0,-11054.0,-728.0,-6903.0,-3.0,-7.0,-25.0,1.0,23.0,-2.0,-1.0,0.0,0.6172914505004883
215,20.0,21.0,20.0,1.0,-9904.0,-11054.0,-728.0,-6903.0,-1.0,-9.0,-3.0,2.0,1.0,-7.0,-6.0,1.0,0.621729850769043
216,20.0,21.0,20.0,1.0,-9904.0,-11054.0,-728.0,-6903.0,1.0,8.0,26.0,-5.0,-4.0,-7.0,-2.0,5.0,0.6297595500946045
217,18.0,26.0,16.0,1.0,-9900.0,-11055.0,-731.0,-6907.0,1.0,8.0,26.0,-5.0,-4.0,-7.0,-2.0,5.0,0.6315867900848389
218,18.0,26.0,16.0,1.0,-9900.0,-11055.0,-731.0,-6907.0,-4.0,-9.0,4.0,4.0,9.0,2.0,-4.0,-10.0,0.6368088722229004
219,18.0,26.0,16.0,1.0,-9900.0,-11055.0,-731.0,-6907.0,5.0,9.0,-19.0,-11.0,-41.0,-21.0,0.0,3.0,0.6522183418273926
220,18.0,31.0,11.0,1.0,-9899.0,-11053.0,-736.0,-6911.0,5.0,9.0,-19.0,-11.0,-41.0,-21.0,0.0,3.0,0.6540467739105225
221,18.0,31.0,11.0,1.0,-9899.0,-11053.0,-736.0,-6911.0,5.0,16.0,60.0,10.0,10.0,19.0,2.0,4.0,0.6595954895019531
222,18.0,31.0,11.0,1.0,-9899.0,-11053.0,-736.0,-6911.0,-3.0,5.0,-18.0,-6.0,-8.0,5.0,-2.0,0.0,0.6757082939147949
223,34.0,18.0,14.0,1.0,-9894.0,-11055.0,-740.0,-6914.0,-3.0,5.0,-18.0,-6.0,-8.0,5.0,-2.0,0.0,0.6791508197784424
224,34.0,18.0,14.0,1.0,-9894.0,-11055.0,-740.0,-6914.0,-7.0,-19.0,-53.0,-3.0,-17.0,-7.0,-2.0,0.0,0.6835789680480957
225,34.0,18.0,14.0,1.0,-9894.0,-11055.0,-740.0,-6914.0,0.0,5.0,6.0,-2.0,-1.0,-1.0,-2.0,1.0,0.6900050640106201
226,65.0,12.0,24.0,1.0,-9886.0,-11060.0,-744.0,-6918.0,0.0,5.0,6.0,-2.0,-1.0,-1.0,-2.0,1.0,0.6919019222259521
227,65.0,12.0,24.0,1.0,-9886.0,-11060.0,-744.0,-6918.0,1.0,0.0,-17.0,-3.0,15.0,1.0,5.0,2.0,0.6966211795806885
228,65.0,12.0,24.0,1.0,-9886.0,-11060.0,-744.0,-6918.0,7.0,11.0,46.0,10.0,4.0,0.0,0.0,3.0,0.7121045589447021
229,86.0,10.0,31.0,1.0,-9875.0,-11067.0,-749.0,-6922.0,7.0,11.0,46.0,10.0,4.0,0.0,0.0,3.0,0.7161722183227539
230,86.0,10.0,31.0,1.0,-9875.0,-11067.0,-749.0,-6922.0,-6.0,-17.0,-24.0,-1.0,10.0,21.0,6.0,3.0,0.7204351425170898
231,86.0,10.0,31.0,1.0,-9875.0,-11067.0,-749.0,-6922.0,0.0,3.0,-23.0,-5.0,7.0,-2.0,-2.0,-1.0,0.7347655296325684
232,70.0,25.0,32.0,1.0,-9870.0,-11066.0,-756.0,-6929.0,0.0,3.0,-23.0,-5.0,7.0,-2.0,-2.0,-1.0,0.7366070747375488
233,70.0,25.0,32.0,1.0,-9870.0,-11066.0,-756.0,-6929.0,-1.0,2.0,25.0,7.0,17.0,-15.0,-4.0,0.0,0.7412569522857666
234,70.0,25.0,32.0,1.0,-9870.0,-11066.0,-756.0,-6929.0,3.0,16.0,89.0,-1.0,13.0,8.0,-2.0,-2.0,0.7508244514465332
235,93.0,7.0,11.0,1.0,-9867.0,-11066.0,-765.0,-6933.0,3.0,16.0,89.0,-1.0,13.0,8.0,-2.0,-2.0,0.7576169967651367
236,93.0,7.0,11.0,1.0,-9867.0,-11066.0,-765.0,-6933.0,-3.0,-12.0,-13.0,0.0,0.0,8.0,-2.0,-3.0,0.7612206935882568
237,93.0,7.0,11.0,1.0,-9867.0,-11066.0,-765.0,-6933.0,-5.0,-7.0,-17.0,5.0,-12.0,-2.0,-1.0,-4.0,0.7721056938171387
238,123.0,25.0,-19.0,1.0,-9863.0,-11068.0,-784.0,-6933.0,-5.0,-7.0,-17.0,5.0,-12.0,-2.0,-1.0,-4.0,0.7739019393920898
239,123.0,25.0,-19.0,1.0,-9863.0,-11068.0,-784.0,-6933.0,-3.0,-6.0,7.0,-9.0,-13.0,-22.0,0.0,1.0,0.7792503833770752
240,123.0,25.0,-19.0,1.0,-9863.0,-11068.0,-784.0,-6933.0,-6.0,-18.0,-45.0,36.0,14.0,-5.0,6.0,-7.0,0.8028204441070557
241,53.0,71.0,-40.0,1.0,-9870.0,-11057.0,-806.0,-6939.0,-6.0,-18.0,-45.0,36.0,14.0,-5.0,6.0,-7.0,0.8046011924743652
242,53.0,71.0,-40.0,1.0,-9870.0,-11057.0,-806.0,-6939.0,3.0,-2.0,-4.0,-12.0,-7.0,0.0,0.0,-2.0,0.8064320087432861
243,53.0,71.0,-40.0,1.0,-9870.0,-11057.0,-806.0,-6939.0,-4.0,-3.0,32.0,-6.0,-35.0,-10.0,-32.0,-3.0,0.8096981048583984
244,94.0,106.0,-46.0,1.0,-9877.0,-11040.0,-833.0,-6952.0,-4.0,-3.0,32.0,-6.0,-35.0,-10.0,-32.0,-3.0,0.8115465641021729
245,94.0,106.0,-46.0,1.0,-9877.0,-11040.0,-833.0,-6952.0,6.0,31.0,83.0,65.0,21.0,4.0,31.0,3.0,0.8167340755462646
246,94.0,106.0,-46.0,1.0,-9877.0,-11040.0,-833.0,-6952.0,-10.0,-30.0,-36.0,-72.0,-2.0,37.0,-27.0,-11.0,0.8341214656829834
247,150.0,25.0,-34.0,1.0,-9883.0,-11028.0,-853.0,-6961.0,-10.0,-30.0,-36.0,-72.0,-2.0,37.0,-27.0,-11.0,0.8375389575958252
248,150.0,25.0,-34.0,1.0,-9883.0,-11028.0,-853.0,-6961.0,-7.0,-35.0,-29.0,38.0,-12.0,8.0,18.0,-3.0,0.8410687446594238
249,150.0,25.0,-34.0,1.0,-9883.0,-11028.0,-853.0,-6961.0,11.0,23.0,-32.0,56.0,44.0,27.0,58.0,-5.0,0.8551034927368164
250,-57.0,84.0,-100.0,1.0,-9929.0,-10977.0,-875.0,-6974.0,11.0,23.0,-32.0,56.0,44.0,27.0,58.0,-5.0,0.8582181930541992
251,-57.0,84.0,-100.0,1.0,-9929.0,-10977.0,-875.0,-6974.0,-7.0,-23.0,-30.0,-27.0,0.0,-76.0,-32.0,-16.0,0.8627381324768066
252,-57.0,84.0,-100.0,1.0,-9929.0,-10977.0,-875.0,-6974.0,12.0,51.0,100.0,-3.0,3.0,24.0,49.0,16.0,0.8696269989013672
253,-410.0,192.0,-192.0,1.0,-10035.0,-10866.0,-902.0,-6991.0,12.0,51.0,100.0,-3.0,3.0,24.0,49.0,16.0,0.8714463710784912
254,-410.0,192.0,-192.0,1.0,-10035.0,-10866.0,-902.0,-6991.0,2.0,8.0,-47.0,-2.0,25.0,-29.0,14.0,-4.0,0.8764119148254395
255,-410.0,192.0,-192.0,1.0,-10035.0,-10866.0,-902.0,-6991.0,-4.0,-11.0,-48.0,-24.0,12.0,-28.0,-66.0,11.0,0.8924858570098877
256,-587.0,457.0,-273.0,1.0,-10170.0,-10710.0,-961.0,-7028.0,-4.0,-11.0,-48.0,-24.0,12.0,-28.0,-66.0,11.0,0.8961031436920166
257,-587.0,457.0,-273.0,1.0,-10170.0,-10710.0,-961.0,-7028.0,-9.0,-9.0,-60.0,-44.0,-25.0,47.0,12.0,-7.0,0.901374101638794
258,-587.0,457.0,-273.0,1.0,-10170.0,-10710.0,-961.0,-7028.0,-6.0,15.0,16.0,-88.0,-4.0,28.0,40.0,-7.0,0.9150490760803223
259,-530.0,704.0,-300.0,1.0,-10301.0,-10537.0,-1060.0,-7086.0,-6.0,15.0,16.0,-88.0,-4.0,28.0,40.0,-7.0,0.9177279472351074
260,-530.0,704.0,-300.0,1.0,-10301.0,-10537.0,-1060.0,-7086.0,-5.0,-22.0,-49.0,-16.0,-6.0,-12.0,4.0,7.0,0.9217400550842285
261,-530.0,704.0,-300.0,1.0,-10301.0,-10537.0,-1060.0,-7086.0,-4.0,-31.0,31.0,1.0,-18.0,-31.0,-13.0,-2.0,0.9291479587554932
262,-914.0,701.0,-417.0,1.0,-10477.0,-10318.0,-1134.0,-7139.0,-4.0,-31.0,31.0,1.0,-18.0,-31.0,-13.0,-2.0,0.9372375011444092
263,-914.0,701.0,-417.0,1.0,-10477.0,-10318.0,-1134.0,-7139.0,5.0,34.0,70.0,-44.0,-23.0,-45.0,-10.0,6.0,0.9391419887542725
264,-914.0,701.0,-417.0,1.0,-10477.0,-10318.0,-1134.0,-7139.0,7.0,11.0,-27.0,88.0,43.0,24.0,43.0,0.0,0.952312707901001
265,-1427.0,641.0,-590.0,1.0,-10716.0,-10037.0,-1166.0,-7179.0,7.0,11.0,-27.0,88.0,43.0,24.0,43.0,0.0,0.9541091918945312
266,-1427.0,641.0,-590.0,1.0,-10716.0,-10037.0,-1166.0,-7179.0,0.0,3.0,-15.0,17.0,12.0,15.0,-41.0,-8.0,0.959080696105957
267,-1427.0,641.0,-590.0,1.0,-10716.0,-10037.0,-1166.0,-7179.0,-3.0,-13.0,-29.0,15.0,-23.0,-14.0,-37.0,-11.0,0.9744918346405029
268,-1748.0,881.0,-796.0,1.0,-10967.0,-9736.0,-1224.0,-7204.0,-3.0,-13.0,-29.0,15.0,-23.0,-14.0,-37.0,-11.0,0.9772424697875977
269,-1748.0,881.0,-796.0,1.0,-10967.0,-9736.0,-1224.0,-7204.0,-3.0,-15.0,-12.0,64.0,35.0,11.0,-14.0,2.0,0.9822399616241455
270,-1748.0,881.0,-796.0,1.0,-10967.0,-9736.0,-1224.0,-7204.0,-1.0,-8.0,1.0,61.0,13.0,-1.0,2.0,2.0,0.988884687423706
271,-2063.0,1118.0,-1021.0,1.0,-11257.0,-9371.0,-1311.0,-7225.0,-1.0,-8.0,1.0,61.0,13.0,-1.0,2.0,2.0,0.997368574142456
272,-2063.0,1118.0,-1021.0,1.0,-11257.0,-9371.0,-1311.0,-7225.0,-1.0,22.0,51.0,6.0,13.0,19.0,-7.0,2.0,0.999260425567627
273,-2063.0,1118.0,-1021.0,1.0,-11257.0,-9371.0,-1311.0,-7225.0,4.0,7.0,29.0,14.0,-15.0,-3.0,12.0,7.0,1.0121393203735352
274,-2354.0,1384.0,-1111.0,1.0,-11566.0,-8944.0,-1413.0,-7259.0,4.0,7.0,29.0,14.0,-15.0,-3.0,12.0,7.0,1.0146031379699707
275,-2354.0,1384.0,-1111.0,1.0,-11566.0,-8944.0,-1413.0,-7259.0,0.0,-16.0,-54.0,-64.0,-18.0,12.0,-1.0,3.0,1.0193545818328857
276,-2354.0,1384.0,-1111.0,1.0,-11566.0,-8944.0,-1413.0,-7259.0,2.0,22.0,-20.0,-5.0,-24.0,-11.0,-12.0,-1.0,1.0345711708068848
277,-2796.0,1692.0,-1140.0,1.0,-11896.0,-8433.0,-1519.0,-7316.0,2.0,22.0,-20.0,-5.0,-24.0,-11.0,-12.0,-1.0,1.0363638401031494
278,-2796.0,1692.0,-1140.0,1.0,-11896.0,-8433.0,-1519.0,-7316.0,13.0,23.0,-29.0,-33.0,-25.0,6.0,0.0,0.0,1.0418674945831299
279,-2796.0,1692.0,-1140.0,1.0,-11896.0,-8433.0,-1519.0,-7316.0,-6.0,-24.0,-36.0,-3.0,-9.0,-19.0,-14.0,-4.0,1.0492184162139893
280,-3317.0,1910.0,-1244.0,1.0,-12251.0,-7833.0,-1616.0,-7376.0,-6.0,-24.0,-36.0,-3.0,-9.0,-19.0,-14.0,-4.0,1.0573277473449707
281,-3317.0,1910.0,-1244.0,1.0,-12251.0,-7833.0,-1616.0,-7376.0,15.0,47.0,41.0,57.0,2.0,12.0,15.0,4.0,1.0594334602355957
282,-3317.0,1910.0,-1244.0,1.0,-12251.0,-7833.0,-1616.0,-7376.0,-3.0,-15.0,27.0,-11.0,0.0,-10.0,-10.0,0.0,1.0814313888549805
283,-3666.0,2035.0,-1456.0,1.0,-12619.0,-7167.0,-1707.0,-7412.0,-3.0,-15.0,27.0,-11.0,0.0,-10.0,-10.0,0.0,1.084709644317627
284,-3666.0,2035.0,-1456.0,1.0,-12619.0,-7167.0,-1707.0,-7412.0,-6.0,-25.0,-16.0,-29.0,8.0,7.0,-7.0,-4.0,1.0879929065704346
285,-3666.0,2035.0,-1456.0,1.0,-12619.0,-7167.0,-1707.0,-7412.0,-8.0,-19.0,-10.0,6.0,-2.0,-6.0,-3.0,-6.0,1.0952043533325195
286,-3838.0,2088.0,-1686.0,1.0,-12984.0,-6461.0,-1797.0,-7409.0,-8.0,-19.0,-10.0,6.0,-2.0,-6.0,-3.0,-6.0,1.097015380859375
287,-3838.0,2088.0,-1686.0,1.0,-12984.0,-6461.0,-1797.0,-7409.0,-6.0,-20.0,-1.0,-33.0,-28.0,2.0,-1.0,1.0,1.1024019718170166
288,-3838.0,2088.0,-1686.0,1.0,-12984.0,-6461.0,-1797.0,-7409.0,-1.0,-5.0,-7.0,-4.0,4.0,-2.0,0.0,2.0,1.1089634895324707
289,-3929.0,2187.0,-1852.0,1.0,-13333.0,-5723.0,-1904.0,-7370.0,-1.0,-5.0,-7.0,-4.0,4.0,-2.0,0.0,2.0,1.1174674034118652
290,-3929.0,2187.0,-1852.0,1.0,-13333.0,-5723.0,-1904.0,-7370.0,-8.0,-20.0,-19.0,35.0,13.0,3.0,-4.0,-1.0,1.1193897724151611
291,-3929.0,2187.0,-1852.0,1.0,-13333.0,-5723.0,-1904.0,-7370.0,12.0,28.0,-75.0,19.0,15.0,9.0,2.0,5.0,1.1345627307891846
292,-4065.0,2351.0,-1961.0,1.0,-13656.0,-4949.0,-2036.0,-7304.0,12.0,28.0,-75.0,19.0,15.0,9.0,2.0,5.0,1.138103723526001
293,-4065.0,2351.0,-1961.0,1.0,-13656.0,-4949.0,-2036.0,-7304.0,2.0,12.0,25.0,-12.0,-8.0,3.0,2.0,2.0,1.1416845321655273
294,-4065.0,2351.0,-1961.0,1.0,-13656.0,-4949.0,-2036.0,-7304.0,-10.0,-17.0,-41.0,-104.0,-35.0,-16.0,-10.0,-6.0,1.154651165008545
295,-4462.0,2691.0,-2146.0,1.0,-13965.0,-4070.0,-2192.0,-7216.0,-10.0,-17.0,-41.0,-104.0,-35.0,-16.0,-10.0,-6.0,1.156470775604248
296,-4462.0,2691.0,-2146.0,1.0,-13965.0,-4070.0,-2192.0,-7216.0,-9.0,-24.0,13.0,-35.0,-3.0,-2.0,-1.0,-1.0,1.1629199981689453
297,-4462.0,2691.0,-2146.0,1.0,-13965.0,-4070.0,-2192.0,-7216.0,4.0,6.0,-43.0,-22.0,0.0,1.0,-3.0,-4.0,1.1689791679382324
298,-4363.0,3136.0,-2204.0,1.0,-14218.0,-3145.0,-2412.0,-7113.0,4.0,6.0,-43.0,-22.0,0.0,1.0,-3.0,-4.0,1.1771562099456787
299,-4363.0,3136.0,-2204.0,1.0,-14218.0,-3145.0,-2412.0,-7113.0,-6.0,-25.0,65.0,-3.0,-22.0,-1.0,-6.0,-2.0,1.1790504455566406
300,-4363.0,3136.0,-2204.0,1.0,-14218.0,-3145.0,-2412.0,-7113.0,-8.0,-15.0,-8.0,-2.0,0.0,-2.0,-1.0,1.0,1.193049669265747
301,-3635.0,3656.0,-2293.0,1.0,-14391.0,-2266.0,-2765.0,-6970.0,-8.0,-15.0,-8.0,-2.0,0.0,-2.0,-1.0,1.0,1.1979045867919922
302,-3635.0,3656.0,-2293.0,1.0,-14391.0,-2266.0,-2765.0,-6970.0,-6.0,-10.0,58.0,34.0,11.0,2.0,1.0,-3.0,1.2015798091888428
303,-3635.0,3656.0,-2293.0,1.0,-14391.0,-2266.0,-2765.0,-6970.0,-5.0,-9.0,-11.0,-2.0,2.0,1.0,-2.0,-3.0,1.2146213054656982
304,-2927.0,4096.0,-2489.0,1.0,-14498.0,-1445.0,-3236.0,-6761.0,-5.0,-9.0,-11.0,-2.0,2.0,1.0,-2.0,-3.0,1.216407060623169
305,-2927.0,4096.0,-2489.0,1.0,-14498.0,-1445.0,-3236.0,-6761.0,-2.0,-4.0,6.0,5.0,-2.0,0.0,2.0,-4.0,1.221907138824463
306,-2927.0,4096.0,-2489.0,1.0,-14498.0,-1445.0,-3236.0,-6761.0,-1.0,5.0,39.0,18.0,16.0,-1.0,3.0,1.0,1.2390620708465576
307,-2779.0,4471.0,-2717.0,1.0,-14551.0,-605.0,-3771.0,-6492.0,-1.0,5.0,39.0,18.0,16.0,-1.0,3.0,1.0,1.242906093597412
308,-2779.0,4471.0,-2717.0,1.0,-14551.0,-605.0,-3771.0,-6492.0,-4.0,-19.0,-11.0,1.0,4.0,-4.0,-1.0,3.0,1.246769666671753
309,-2779.0,4471.0,-2717.0,1.0,-14551.0,-605.0,-3771.0,-6492.0,2.0,6.0,13.0,-4.0,6.0,-8.0,-23.0,-5.0,1.2521405220031738
310,-2739.0,4652.0,-2911.0,1.0,-14549.0,258.0,-4327.0,-6164.0,2.0,6.0,13.0,-4.0,6.0,-8.0,-23.0,-5.0,1.2545199394226074
311,-2739.0,4652.0,-2911.0,1.0,-14549.0,258.0,-4327.0,-6164.0,9.0,46.0,41.0,-8.0,-8.0,17.0,38.0,0.0,1.2592277526855469
312,-2739.0,4652.0,-2911.0,1.0,-14549.0,258.0,-4327.0,-6164.0,-2.0,-9.0,29.0,4.0,3.0,10.0,-29.0,-5.0,1.274700403213501
313,-2909.0,4895.0,-3091.0,1.0,-14480.0,1189.0,-4891.0,-5783.0,-2.0,-9.0,29.0,4.0,3.0,10.0,-29.0,-5.0,1.2771713733673096
314,-2909.0,4895.0,-3091.0,1.0,-14480.0,1189.0,-4891.0,-5783.0,-6.0,-8.0,-34.0,3.0,-17.0,-33.0,0.0,6.0,1.2826366424560547
315,-2909.0,4895.0,-3091.0,1.0,-14480.0,1189.0,-4891.0,-5783.0,-1.0,6.0,35.0,11.0,18.0,13.0,-26.0,2.0,1.289621353149414
316,-2415.0,4896.0,-2841.0,1.0,-14333.0,2033.0,-5468.0,-5385.0,-1.0,6.0,35.0,11.0,18.0,13.0,-26.0,2.0,1.2980515956878662
317,-2415.0,4896.0,-2841.0,1.0,-14333.0,2033.0,-5468.0,-5385.0,0.0,3.0,-27.0,8.0,-27.0,-28.0,10.0,5.0,1.2999815940856934
318,-2415.0,4896.0,-2841.0,1.0,-14333.0,2033.0,-5468.0,-5385.0,3.0,16.0,-3.0,2.0,-25.0,-24.0,7.0,-4.0,1.3121366500854492
319,-1677.0,4639.0,-2809.0,1.0,-14152.0,2748.0,-6029.0,-4926.0,3.0,16.0,-3.0,2.0,-25.0,-24.0,7.0,-4.0,1.3154668807983398
320,-1677.0,4639.0,-2809.0,1.0,-14152.0,2748.0,-6029.0,-4926.0,-3.0,1.0,24.0,9.0,-16.0,21.0,9.0,4.0,1.3197500705718994
321,-1677.0,4639.0,-2809.0,1.0,-14152.0,2748.0,-6029.0,-4926.0,-5.0,-37.0,-16.0,-6.0,-58.0,-39.0,13.0,4.0,1.3358995914459229
322,-865.0,4205.0,-2981.0,1.0,-13981.0,3323.0,-6541.0,-4378.0,-5.0,-37.0,-16.0,-6.0,-58.0,-39.0,13.0,4.0,1.339076280593872
323,-865.0,4205.0,-2981.0,1.0,-13981.0,3323.0,-6541.0,-4378.0,6.0,16.0,-20.0,7.0,50.0,30.0,-8.0,2.0,1.3424272537231445
324,-865.0,4205.0,-2981.0,1.0,-13981.0,3323.0,-6541.0,-4378.0,1.0,4.0,-10.0,26.0,10.0,64.0,40.0,7.0,1.3594601154327393
325,-523.0,3578.0,-2913.0,1.0,-13818.0,3822.0,-6954.0,-3813.0,1.0,4.0,-10.0,26.0,10.0,64.0,40.0,7.0,1.3636932373046875
326,-523.0,3578.0,-2913.0,1.0,-13818.0,3822.0,-6954.0,-3813.0,-4.0,-18.0,-53.0,-12.0,-26.0,-40.0,-27.0,-7.0,1.368424415588379
327,-523.0,3578.0,-2913.0,1.0,-13818.0,3822.0,-6954.0,-3813.0,8.0,24.0,20.0,0.0,38.0,16.0,3.0,-1.0,1.372194766998291
328,-96.0,2780.0,-2360.0,1.0,-13677.0,4182.0,-7274.0,-3316.0,8.0,24.0,20.0,0.0,38.0,16.0,3.0,-1.0,1.3739862442016602
329,-96.0,2780.0,-2360.0,1.0,-13677.0,4182.0,-7274.0,-3316.0,7.0,20.0,18.0,-12.0,32.0,18.0,-2.0,0.0,1.3803396224975586
330,-96.0,2780.0,-2360.0,1.0,-13677.0,4182.0,-7274.0,-3316.0,-7.0,-12.0,-45.0,8.0,20.0,2.0,10.0,-2.0,1.3963119983673096
331,282.0,2025.0,-1815.0,1.0,-13572.0,4414.0,-7510.0,-2897.0,-7.0,-12.0,-45.0,8.0,20.0,2.0,10.0,-2.0,1.3995864391326904
332,282.0,2025.0,-1815.0,1.0,-13572.0,4414.0,-7510.0,-2897.0,4.0,7.0,2.0,2.0,50.0,24.0,-19.0,-11.0,1.4030554294586182
333,282.0,2025.0,-1815.0,1.0,-13572.0,4414.0,-7510.0,-2897.0,-1.0,-8.0,-44.0,-20.0,22.0,21.0,16.0,4.0,1.4193391799926758
334,196.0,1223.0,-1480.0,1.0,-13525.0,4543.0,-7624.0,-2602.0,-1.0,-8.0,-44.0,-20.0,22.0,21.0,16.0,4.0,1.4230992794036865
335,196.0,1223.0,-1480.0,1.0,-13525.0,4543.0,-7624.0,-2602.0,0.0,6.0,-30.0,21.0,15.0,13.0,3.0,-3.0,1.4272263050079346
336,196.0,1223.0,-1480.0,1.0,-13525.0,4543.0,-7624.0,-2602.0,10.0,11.0,10.0,6.0,10.0,16.0,-11.0,-1.0,1.4327425956726074
337,385.0,572.0,-548.0,1.0,-13511.0,4548.0,-7692.0,-2461.0,10.0,11.0,10.0,6.0,10.0,16.0,-11.0,-1.0,1.440674066543579
338,385.0,572.0,-548.0,1.0,-13511.0,4548.0,-7692.0,-2461.0,-3.0,0.0,-18.0,-8.0,-34.0,-28.0,-9.0,-6.0,1.4473555088043213
339,385.0,572.0,-548.0,1.0,-13511.0,4548.0,-7692.0,-2461.0,-4.0,-14.0,20.0,-29.0,2.0,-19.0,-11.0,-1.0,1.454629898071289
340,575.0,-124.0,551.0,1.0,-13535.0,4413.0,-7716.0,-2500.0,-4.0,-14.0,20.0,-29.0,2.0,-19.0,-11.0,-1.0,1.456472396850586
341,575.0,-124.0,551.0,1.0,-13535.0,4413.0,-7716.0,-2500.0,1.0,-3.0,3.0,-2.0,22.0,20.0,-7.0,-3.0,1.461730718612671
342,575.0,-124.0,551.0,1.0,-13535.0,4413.0,-7716.0,-2500.0,-13.0,-31.0,57.0,-6.0,-5.0,-14.0,-7.0,-6.0,1.4787490367889404
343,1450.0,-503.0,1546.0,1.0,-13601.0,4054.0,-7754.0,-2630.0,-13.0,-31.0,57.0,-6.0,-5.0,-14.0,-7.0,-6.0,1.4829955101013184
344,1450.0,-503.0,1546.0,1.0,-13601.0,4054.0,-7754.0,-2630.0,0.0,-13.0,-24.0,-17.0,-49.0,-17.0,-18.0,0.0,1.4862794876098633
345,1450.0,-503.0,1546.0,1.0,-13601.0,4054.0,-7754.0,-2630.0,12.0,10.0,53.0,-1.0,-20.0,-28.0,-3.0,2.0,1.492518663406372
346,2012.0,-882.0,2584.0,1.0,-13664.0,3557.0,-7807.0,-2853.0,12.0,10.0,53.0,-1.0,-20.0,-28.0,-3.0,2.0,1.4944539070129395
347,2012.0,-882.0,2584.0,1.0,-13664.0,3557.0,-7807.0,-2853.0,1.0,3.0,2.0,-6.0,-20.0,-5.0,-22.0,-5.0,1.4995899200439453
348,2012.0,-882.0,2584.0,1.0,-13664.0,3557.0,-7807.0,-2853.0,-5.0,8.0,-18.0,6.0,-30.0,8.0,-6.0,0.0,1.5155835151672363
349,1728.0,-1370.0,3415.0,1.0,-13715.0,2999.0,-7800.0,-3246.0,-5.0,8.0,-18.0,6.0,-30.0,8.0,-6.0,0.0,1.5183377265930176
350,1728.0,-1370.0,3415.0,1.0,-13715.0,2999.0,-7800.0,-3246.0,-2.0,-1.0,-9.0,-4.0,-20.0,-17.0,8.0,-5.0,1.5226318836212158
351,1728.0,-1370.0,3415.0,1.0,-13715.0,2999.0,-7800.0,-3246.0,4.0,8.0,5.0,10.0,-62.0,-68.0,27.0,5.0,1.5483973026275635
352,1445.0,-2031.0,3900.0,1.0,-13769.0,2402.0,-7682.0,-3754.0,4.0,8.0,5.0,10.0,-62.0,-68.0,27.0,5.0,1.5528912544250488
353,1445.0,-2031.0,3900.0,1.0,-13769.0,2402.0,-7682.0,-3754.0,-4.0,-6.0,-13.0,11.0,5.0,0.0,-4.0,-2.0,1.5571248531341553
354,1445.0,-2031.0,3900.0,1.0,-13769.0,2402.0,-7682.0,-3754.0,8.0,28.0,-21.0,-1.0,13.0,23.0,7.0,2.0,1.559328317642212
355,1311.0,-2837.0,4222.0,1.0,-13839.0,1751.0,-7422.0,-4335.0,8.0,28.0,-21.0,-1.0,13.0,23.0,7.0,2.0,1.5613603591918945
356,1311.0,-2837.0,4222.0,1.0,-13839.0,1751.0,-7422.0,-4335.0,-33.0,-5.0,-8.0,1.0,42.0,-2.0,47.0,-19.0,1.5652015209197998
357,1311.0,-2837.0,4222.0,1.0,-13839.0,1751.0,-7422.0,-4335.0,78.0,-7.0,-19.0,-24.0,39.0,-54.0,-15.0,59.0,1.5762684345245361
358,2024.0,-3684.0,4477.0,1.0,-13925.0,908.0,-7049.0,-4904.0,78.0,-7.0,-19.0,-24.0,39.0,-54.0,-15.0,59.0,1.5822322368621826
359,2024.0,-3684.0,4477.0,1.0,-13925.0,908.0,-7049.0,-4904.0,-25.0,4.0,7.0,-4.0,83.0,96.0,-31.0,2.0,1.584099292755127
360,2024.0,-3684.0,4477.0,1.0,-13925.0,908.0,-7049.0,-4904.0,45.0,6.0,15.0,24.0,104.0,16.0,28.0,34.0,1.6000208854675293
361,2320.0,-4102.0,4932.0,1.0,-13945.0,-83.0,-6604.0,-5512.0,45.0,6.0,15.0,24.0,104.0,16.0,28.0,34.0,1.6035048961639404
362,2320.0,-4102.0,4932.0,1.0,-13945.0,-83.0,-6604.0,-5512.0,-59.0,-6.0,-6.0,4.0,22.0,31.0,101.0,6.0,1.6069700717926025
363,2320.0,-4102.0,4932.0,1.0,-13945.0,-83.0,-6604.0,-5512.0,43.0,-1.0,-15.0,31.0,9.0,-40.0,-42.0,85.0,1.6123344898223877
364,1615.0,-4310.0,5394.0,1.0,-13888.0,-973.0,-6023.0,-6194.0,43.0,-1.0,-15.0,31.0,9.0,-40.0,-42.0,85.0,1.6141605377197266
365,1615.0,-4310.0,5394.0,1.0,-13888.0,-973.0,-6023.0,-6194.0,-12.0,14.0,21.0,70.0,-23.0,-41.0,23.0,-30.0,1.619269609451294
366,1615.0,-4310.0,5394.0,1.0,-13888.0,-973.0,-6023.0,-6194.0,-48.0,5.0,15.0,-37.0,-4.0,87.0,46.0,-83.0,1.6356821060180664
367,789.0,-4281.0,6042.0,1.0,-13707.0,-1773.0,-5346.0,-6989.0,-48.0,5.0,15.0,-37.0,-4.0,87.0,46.0,-83.0,1.6388065814971924
368,789.0,-4281.0,6042.0,1.0,-13707.0,-1773.0,-5346.0,-6989.0,2.0,-1.0,10.0,-29.0,-116.0,-26.0,-12.0,-2.0,1.6417391300201416
369,789.0,-4281.0,6042.0,1.0,-13707.0,-1773.0,-5346.0,-6989.0,-128.0,-26.0,6.0,38.0,65.0,-73.0,-3.0,-104.0,1.6660127639770508
370,1106.0,-2515.0,7048.0,1.0,-13250.0,-2533.0,-4902.0,-7903.0,-128.0,-26.0,6.0,38.0,65.0,-73.0,-3.0,-104.0,1.6678502559661865
371,1106.0,-2515.0,7048.0,1.0,-13250.0,-2533.0,-4902.0,-7903.0,52.0,0.0,-41.0,-52.0,117.0,25.0,108.0,95.0,1.6697726249694824
372,1106.0,-2515.0,7048.0,1.0,-13250.0,-2533.0,-4902.0,-7903.0,-80.0,-36.0,79.0,67.0,-25.0,2.0,-106.0,-81.0,1.6715707778930664
373,4090.0,-1831.0,6925.0,1.0,-12587.0,-3637.0,-4779.0,-8600.0,-80.0,-36.0,79.0,67.0,-25.0,2.0,-106.0,-81.0,1.6733613014221191
374,4090.0,-1831.0,6925.0,1.0,-12587.0,-3637.0,-4779.0,-8600.0,40.0,-1.0,-26.0,15.0,-5.0,-71.0,18.0,74.0,1.6801657676696777
375,4090.0,-1831.0,6925.0,1.0,-12587.0,-3637.0,-4779.0,-8600.0,27.0,-52.0,23.0,-30.0,-39.0,0.0,-57.0,-14.0,1.6945340633392334
376,8030.0,-2676.0,3991.0,1.0,-11971.0,-5172.0,-4981.0,-8579.0,27.0,-52.0,23.0,-30.0,-39.0,0.0,-57.0,-14.0,1.6966290473937988
377,8030.0,-2676.0,3991.0,1.0,-11971.0,-5172.0,-4981.0,-8579.0,100.0,121.0,16.0,16.0,64.0,127.0,36.0,-10.0,1.7016756534576416
378,8030.0,-2676.0,3991.0,1.0,-11971.0,-5172.0,-4981.0,-8579.0,54.0,127.0,98.0,-18.0,94.0,57.0,87.0,40.0,1.7198350429534912
379,8905.0,-812.0,2155.0,1.0,-11255.0,-6495.0,-5559.0,-8289.0,54.0,127.0,98.0,-18.0,94.0,57.0,87.0,40.0,1.7246525287628174
380,8905.0,-812.0,2155.0,1.0,-11255.0,-6495.0,-5559.0,-8289.0,-47.0,-128.0,-87.0,-12.0,-128.0,-88.0,34.0,-31.0,1.7284977436065674
381,8905.0,-812.0,2155.0,1.0,-11255.0,-6495.0,-5559.0,-8289.0,-19.0,-90.0,-63.0,-32.0,-128.0,45.0,42.0,19.0,1.7332165241241455
382,6734.0,-885.0,-328.0,1.0,-10831.0,-7362.0,-6066.0,-7757.0,-19.0,-90.0,-63.0,-32.0,-128.0,45.0,42.0,19.0,1.7350306510925293
383,6734.0,-885.0,-328.0,1.0,-10831.0,-7362.0,-6066.0,-7757.0,-10.0,78.0,7.0,-12.0,115.0,51.0,-100.0,-38.0,1.7394018173217773
384,6734.0,-885.0,-328.0,1.0,-10831.0,-7362.0,-6066.0,-7757.0,-17.0,-48.0,-95.0,22.0,78.0,58.0,-13.0,71.0,1.7557735443115234
385,4237.0,-1960.0,-3157.0,1.0,-10867.0,-7805.0,-6434.0,-6933.0,-17.0,-48.0,-95.0,22.0,78.0,58.0,-13.0,71.0,1.759007453918457
386,4237.0,-1960.0,-3157.0,1.0,-10867.0,-7805.0,-6434.0,-6933.0,-22.0,57.0,100.0,-65.0,-128.0,-99.0,-99.0,-11.0,1.7623279094696045
387,4237.0,-1960.0,-3157.0,1.0,-10867.0,-7805.0,-6434.0,-6933.0,41.0,-7.0,-57.0,-12.0,69.0,-111.0,-61.0,27.0,1.7783756256103516
388,989.0,-908.0,-2814.0,1.0,-11054.0,-7786.0,-6642.0,-6445.0,41.0,-7.0,-57.0,-12.0,69.0,-111.0,-61.0,27.0,1.7828505039215088
389,989.0,-908.0,-2814.0,1.0,-11054.0,-7786.0,-6642.0,-6445.0,-7.0,-20.0,75.0,24.0,-6.0,-104.0,-128.0,-21.0,1.8015878200531006
390,989.0,-908.0,-2814.0,1.0,-11054.0,-7786.0,-6642.0,-6445.0,-95.0,-62.0,-76.0,59.0,16.0,26.0,-54.0,-19.0,1.8035366535186768
391,607.0,767.0,2119.0,1.0,-10794.0,-7957.0,-6595.0,-6719.0,-95.0,-62.0,-76.0,59.0,16.0,26.0,-54.0,-19.0,1.8054184913635254
392,607.0,767.0,2119.0,1.0,-10794.0,-7957.0,-6595.0,-6719.0,-29.0,-77.0,-76.0,17.0,76.0,-90.0,-71.0,-28.0,1.8072829246520996
393,607.0,767.0,2119.0,1.0,-10794.0,-7957.0,-6595.0,-6719.0,107.0,-8.0,-42.0,10.0,-41.0,22.0,-103.0,31.0,1.816429853439331
394,1186.0,-471.0,2589.0,1.0,-10554.0,-8283.0,-6409.0,-6884.0,107.0,-8.0,-42.0,10.0,-41.0,22.0,-103.0,31.0,1.8183414936065674
395,1186.0,-471.0,2589.0,1.0,-10554.0,-8283.0,-6409.0,-6884.0,-43.0,2.0,-2.0,-16.0,49.0,20.0,-42.0,13.0,1.8214635848999023
396,1186.0,-471.0,2589.0,1.0,-10554.0,-8283.0,-6409.0,-6884.0,-67.0,-9.0,-61.0,-76.0,-12.0,46.0,-44.0,-61.0,1.8377816677093506
397,-357.0,-1328.0,951.0,1.0,-10642.0,-8366.0,-6073.0,-6952.0,-67.0,-9.0,-61.0,-76.0,-12.0,46.0,-44.0,-61.0,1.8409991264343262
398,-357.0,-1328.0,951.0,1.0,-10642.0,-8366.0,-6073.0,-6952.0,20.0,9.0,87.0,48.0,61.0,55.0,-36.0,57.0,1.8449862003326416
399,-357.0,-1328.0,951.0,1.0,-10642.0,-8366.0,-6073.0,-6952.0,-20.0,51.0,13.0,20.0,-42.0,-16.0,-1.0,-51.0,1.852384328842163
400,-248.0,-427.0,1318.0,1.0,-10551.0,-8508.0,-5759.0,-7183.0,-20.0,51.0,13.0,20.0,-42.0,-16.0,-1.0,-51.0,1.8541841506958008
401,-248.0,-427.0,1318.0,1.0,-10551.0,-8508.0,-5759.0,-7183.0,81.0,4.0,-40.0,29.0,73.0,74.0,-19.0,69.0,1.8591129779815674
402,-248.0,-427.0,1318.0,1.0,-10551.0,-8508.0,-5759.0,-7183.0,-79.0,18.0,77.0,-1.0,-30.0,1.0,-41.0,-109.0,1.8749961853027344
403,1227.0,123.0,402.0,1.0,-10379.0,-8684.0,-5777.0,-7208.0,-79.0,18.0,77.0,-1.0,-30.0,1.0,-41.0,-109.0,1.8769488334655762
404,1227.0,123.0,402.0,1.0,-10379.0,-8684.0,-5777.0,-7208.0,62.0,14.0,-11.0,50.0,20.0,5.0,98.0,58.0,1.8824174404144287
405,1227.0,123.0,402.0,1.0,-10379.0,-8684.0,-5777.0,-7208.0,-66.0,-2.0,-9.0,-64.0,-94.0,-75.0,127.0,-6.0,1.8984243869781494
406,2171.0,632.0,999.0,1.0,-10058.0,-8932.0,-5924.0,-7240.0,-66.0,-2.0,-9.0,-64.0,-94.0,-75.0,127.0,-6.0,1.9021403789520264
407,2171.0,632.0,999.0,1.0,-10058.0,-8932.0,-5924.0,-7240.0,-16.0,-32.0,72.0,-4.0,-30.0,111.0,-102.0,-16.0,1.9059748649597168
408,2171.0,632.0,999.0,1.0,-10058.0,-8932.0,-5924.0,-7240.0,27.0,-3.0,-60.0,57.0,-32.0,4.0,-113.0,7.0,1.9123890399932861
409,679.0,482.0,600.0,1.0,-9928.0,-8993.0,-6048.0,-7242.0,27.0,-3.0,-60.0,57.0,-32.0,4.0,-113.0,7.0,1.915245771408081
410,679.0,482.0,600.0,1.0,-9928.0,-8993.0,-6048.0,-7242.0,-40.0,-57.0,-118.0,-61.0,-32.0,0.0,127.0,13.0,1.9190716743469238
411,679.0,482.0,600.0,1.0,-9928.0,-8993.0,-6048.0,-7242.0,-48.0,-31.0,11.0,-58.0,-45.0,-72.0,28.0,-70.0,1.937300443649292
412,-1081.0,68.0,309.0,1.0,-9961.0,-8942.0,-5948.0,-7343.0,-48.0,-31.0,11.0,-58.0,-45.0,-72.0,28.0,-70.0,1.941028356552124
413,-1081.0,68.0,309.0,1.0,-9961.0,-8942.0,-5948.0,-7343.0,-17.0,-2.0,-27.0,-26.0,5.0,44.0,99.0,61.0,1.944627046585083
414,-1081.0,68.0,309.0,1.0,-9961.0,-8942.0,-5948.0,-7343.0,41.0,22.0,5.0,-29.0,91.0,112.0,127.0,-66.0,1.9574506282806396
415,-829.0,-19.0,271.0,1.0,-9981.0,-8915.0,-5819.0,-7451.0,41.0,22.0,5.0,-29.0,91.0,112.0,127.0,-66.0,1.9594695568084717
416,-829.0,-19.0,271.0,1.0,-9981.0,-8915.0,-5819.0,-7451.0,66.0,39.0,-11.0,-29.0,-78.0,-97.0,-128.0,-128.0,1.9649391174316406
417,-829.0,-19.0,271.0,1.0,-9981.0,-8915.0,-5819.0,-7451.0,57.0,7.0,-17.0,-24.0,-82.0,-59.0,-87.0,69.0,1.972010612487793
418,33.0,22.0,210.0,1.0,-9936.0,-8959.0,-5836.0,-7445.0,57.0,7.0,-17.0,-24.0,-82.0,-59.0,-87.0,69.0,1.9738893508911133
419,33.0,22.0,210.0,1.0,-9936.0,-8959.0,-5836.0,-7445.0,10.0,80.0,108.0,-10.0,16.0,-5.0,-34.0,-26.0,1.979177713394165
420,33.0,22.0,210.0,1.0,-9936.0,-8959.0,-5836.0,-7445.0,27.0,12.0,-44.0,22.0,53.0,28.0,-44.0,74.0,1.997042179107666
421,-136.0,-45.0,-153.0,1.0,-9932.0,-8978.0,-5865.0,-7404.0,27.0,12.0,-44.0,22.0,53.0,28.0,-44.0,74.0,2.000892400741577
422,-136.0,-45.0,-153.0,1.0,-9932.0,-8978.0,-5865.0,-7404.0,-29.0,-7.0,-77.0,-44.0,-40.0,-110.0,-13.0,-18.0,2.0043671131134033
423,-136.0,-45.0,-153.0,1.0,-9932.0,-8978.0,-5865.0,-7404.0,-11.0,8.0,14.0,-53.0,11.0,26.0,32.0,16.0,2.018003225326538
424,-526.0,-105.0,-146.0,1.0,-9959.0,-8969.0,-5828.0,-7407.0,-11.0,8.0,14.0,-53.0,11.0,26.0,32.0,16.0,2.0215327739715576
425,-526.0,-105.0,-146.0,1.0,-9959.0,-8969.0,-5828.0,-7407.0,-105.0,-10.0,41.0,17.0,0.0,76.0,-27.0,-60.0,2.026458978652954
426,-526.0,-105.0,-146.0,1.0,-9959.0,-8969.0,-5828.0,-7407.0,43.0,-6.0,30.0,20.0,94.0,100.0,-53.0,35.0,2.032831907272339
427,-200.0,-66.0,-180.0,1.0,-9970.0,-8973.0,-5806.0,-7406.0,43.0,-6.0,30.0,20.0,94.0,100.0,-53.0,35.0,2.0397145748138428
428,-200.0,-66.0,-180.0,1.0,-9970.0,-8973.0,-5806.0,-7406.0,-20.0,-10.0,0.0,-21.0,-77.0,50.0,117.0,-16.0,2.0416226387023926
429,-200.0,-66.0,-180.0,1.0,-9970.0,-8973.0,-5806.0,-7406.0,-32.0,-45.0,112.0,18.0,-85.0,34.0,-50.0,10.0,2.0548300743103027
430,75.0,20.0,-203.0,1.0,-9974.0,-8968.0,-5803.0,-7408.0,-32.0,-45.0,112.0,18.0,-85.0,34.0,-50.0,10.0,2.0570974349975586
431,75.0,20.0,-203.0,1.0,-9974.0,-8968.0,-5803.0,-7408.0,-10.0,-23.0,-28.0,6.0,-110.0,-66.0,-128.0,-32.0,2.061809778213501
432,75.0,20.0,-203.0,1.0,-9974.0,-8968.0,-5803.0,-7408.0,26.0,44.0,64.0,69.0,-6.0,-70.0,-68.0,16.0,2.0781078338623047
433,-159.0,57.0,-90.0,1.0,-9979.0,-8957.0,-5797.0,-7420.0,26.0,44.0,64.0,69.0,-6.0,-70.0,-68.0,16.0,2.0813229084014893
434,-159.0,57.0,-90.0,1.0,-9979.0,-8957.0,-5797.0,-7420.0,-54.0,-42.0,-35.0,72.0,120.0,-29.0,105.0,48.0,2.0846688747406006
435,-159.0,57.0,-90.0,1.0,-9979.0,-8957.0,-5797.0,-7420.0,26.0,24.0,-25.0,-97.0,-73.0,-128.0,119.0,-11.0,2.0922060012817383
436,-452.0,-60.0,21.0,1.0,-10000.0,-8942.0,-5745.0,-7449.0,26.0,24.0,-25.0,-97.0,-73.0,-128.0,119.0,-11.0,2.1001291275024414
437,-452.0,-60.0,21.0,1.0,-10000.0,-8942.0,-5745.0,-7449.0,70.0,26.0,13.0,-26.0,35.0,115.0,-40.0,55.0,2.102036714553833
438,-452.0,-60.0,21.0,1.0,-10000.0,-8942.0,-5745.0,-7449.0,29.0,-7.0,-15.0,47.0,127.0,52.0,-38.0,-16.0,2.1148769855499268
439,-243.0,-53.0,11.0,1.0,-10006.0,-8943.0,-5693.0,-7480.0,29.0,-7.0,-15.0,47.0,127.0,52.0,-38.0,-16.0,2.11670184135437
440,-243.0,-53.0,11.0,1.0,-10006.0,-8943.0,-5693.0,-7480.0,-4.0,-43.0,-15.0,33.0,1.0,42.0,-53.0,14.0,2.122370481491089
441,-243.0,-53.0,11.0,1.0,-10006.0,-8943.0,-5693.0,-7480.0,19.0,-33.0,16.0,66.0,-17.0,60.0,126.0,57.0,2.1373796463012695
442,181.0,70.0,0.0,1.0,-9978.0,-8963.0,-5698.0,-7490.0,19.0,-33.0,16.0,66.0,-17.0,60.0,126.0,57.0,2.1393678188323975
443,181.0,70.0,0.0,1.0,-9978.0,-8963.0,-5698.0,-7490.0,-7.0,-38.0,-75.0,-7.0,-69.0,-10.0,-93.0,-115.0,2.1445422172546387
444,181.0,70.0,0.0,1.0,-9978.0,-8963.0,-5698.0,-7490.0,-2.0,58.0,22.0,-16.0,-1.0,10.0,116.0,42.0,2.1522610187530518
445,237.0,91.0,55.0,1.0,-9932.0,-9000.0,-5722.0,-7489.0,-2.0,58.0,22.0,-16.0,-1.0,10.0,116.0,42.0,2.1599111557006836
446,237.0,91.0,55.0,1.0,-9932.0,-9000.0,-5722.0,-7489.0,10.0,10.0,41.0,75.0,0.0,-14.0,28.0,-12.0,2.161797046661377
447,237.0,91.0,55.0,1.0,-9932.0,-9000.0,-5722.0,-7489.0,-14.0,-26.0,-3.0,23.0,-15.0,-68.0,-128.0,-36.0,2.1745762825012207
448,-82.0,0.0,155.0,1.0,-9917.0,-9013.0,-5707.0,-7505.0,-14.0,-26.0,-3.0,23.0,-15.0,-68.0,-128.0,-36.0,2.1769626140594482
449,-82.0,0.0,155.0,1.0,-9917.0,-9013.0,-5707.0,-7505.0,-17.0,-2.0,-6.0,-27.0,54.0,-81.0,38.0,-73.0,2.183410882949829
450,-82.0,0.0,155.0,1.0,-9917.0,-9013.0,-5707.0,-7505.0,-75.0,-24.0,-17.0,-27.0,-29.0,-55.0,41.0,-19.0,2.1997928619384766
451,-147.0,-1.0,200.0,1.0,-9908.0,-9019.0,-5688.0,-7524.0,-75.0,-24.0,-17.0,-27.0,-29.0,-55.0,41.0,-19.0,2.2016777992248535
452,-147.0,-1.0,200.0,1.0,-9908.0,-9019.0,-5688.0,-7524.0,6.0,-1.0,-12.0,-44.0,-112.0,-18.0,127.0,58.0,2.203659772872925
453,-147.0,-1.0,200.0,1.0,-9908.0,-9019.0,-5688.0,-7524.0,-6.0,-8.0,44.0,-4.0,36.0,7.0,88.0,-18.0,2.21374249458313
454,-66.0,3.0,95.0,1.0,-9906.0,-9017.0,-5673.0,-7540.0,-6.0,-8.0,44.0,-4.0,36.0,7.0,88.0,-18.0,2.2204136848449707
455,-66.0,3.0,95.0,1.0,-9906.0,-9017.0,-5673.0,-7540.0,10.0,-3.0,19.0,11.0,-17.0,11.0,1.0,21.0,2.223538398742676
456,-66.0,3.0,95.0,1.0,-9906.0,-9017.0,-5673.0,-7540.0,-26.0,-41.0,-77.0,-25.0,2.0,-2.0,-1.0,1.0,2.2418015003204346
457,-63.0,19.0,32.0,1.0,-9907.0,-9012.0,-5657.0,-7557.0,-26.0,-41.0,-77.0,-25.0,2.0,-2.0,-1.0,1.0,2.250201463699341
458,-63.0,19.0,32.0,1.0,-9907.0,-9012.0,-5657.0,-7557.0,3.0,-39.0,-106.0,-36.0,-28.0,-50.0,32.0,22.0,2.252112865447998
459,-63.0,19.0,32.0,1.0,-9907.0,-9012.0,-5657.0,-7557.0,-13.0,7.0,2.0,-7.0,45.0,-63.0,-66.0,36.0,2.2582573890686035
460,-2.0,-20.0,5.0,1.0,-9899.0,-9025.0,-5652.0,-7556.0,-13.0,7.0,2.0,-7.0,45.0,-63.0,-66.0,36.0,2.2604665756225586
461,-2.0,-20.0,5.0,1.0,-9899.0,-9025.0,-5652.0,-7556.0,28.0,16.0,44.0,65.0,127.0,-10.0,-110.0,68.0,2.2623579502105713
462,-2.0,-20.0,5.0,1.0,-9899.0,-9025.0,-5652.0,-7556.0,53.0,20.0,-1.0,-26.0,-63.0,-14.0,-121.0,-30.0,2.271369457244873
463,76.0,-23.0,-26.0,1.0,-9883.0,-9047.0,-5670.0,-7536.0,53.0,20.0,-1.0,-26.0,-63.0,-14.0,-121.0,-30.0,2.2807352542877197
464,76.0,-23.0,-26.0,1.0,-9883.0,-9047.0,-5670.0,-7536.0,-73.0,-15.0,39.0,-14.0,-85.0,-67.0,-85.0,-39.0,2.2829689979553223
465,76.0,-23.0,-26.0,1.0,-9883.0,-9047.0,-5670.0,-7536.0,22.0,25.0,-44.0,8.0,33.0,15.0,-11.0,41.0,2.295820951461792
466,122.0,26.0,-40.0,1.0,-9868.0,-9061.0,-5689.0,-7524.0,22.0,25.0,-44.0,8.0,33.0,15.0,-11.0,41.0,2.299055337905884
467,122.0,26.0,-40.0,1.0,-9868.0,-9061.0,-5689.0,-7524.0,29.0,40.0,-3.0,-16.0,17.0,-35.0,38.0,-12.0,2.302372455596924
468,122.0,26.0,-40.0,1.0,-9868.0,-9061.0,-5689.0,-7524.0,-12.0,1.0,-3.0,-3.0,-32.0,-19.0,-52.0,1.0,2.31816029548645
469,3.0,28.0,28.0,1.0,-9856.0,-9069.0,-5682.0,-7535.0,-12.0,1.0,-3.0,-3.0,-32.0,-19.0,-52.0,1.0,2.3200066089630127
470,3.0,28.0,28.0,1.0,-9856.0,-9069.0,-5682.0,-7535.0,-18.0,-24.0,-47.0,-61.0,-7.0,-5.0,100.0,-39.0,2.3218815326690674
471,3.0,28.0,28.0,1.0,-9856.0,-9069.0,-5682.0,-7535.0,2.0,14.0,45.0,3.0,-23.0,-41.0,27.0,12.0,2.3326025009155273
472,-54.0,20.0,82.0,1.0,-9842.0,-9080.0,-5667.0,-7553.0,2.0,14.0,45.0,3.0,-23.0,-41.0,27.0,12.0,2.340480327606201
473,-54.0,20.0,82.0,1.0,-9842.0,-9080.0,-5667.0,-7553.0,13.0,18.0,31.0,23.0,16.0,69.0,31.0,32.0,2.3424253463745117
474,-54.0,20.0,82.0,1.0,-9842.0,-9080.0,-5667.0,-7553.0,-25.0,-16.0,5.0,-25.0,-11.0,60.0,-39.0,-120.0,2.3550491333007812
475,-65.0,27.0,116.0,1.0,-9833.0,-9083.0,-5654.0,-7571.0,-25.0,-16.0,5.0,-25.0,-11.0,60.0,-39.0,-120.0,2.3569977283477783
476,-65.0,27.0,116.0,1.0,-9833.0,-9083.0,-5654.0,-7571.0,17.0,-3.0,-11.0,-15.0,-82.0,76.0,-20.0,-34.0,2.371572494506836
477,-65.0,27.0,116.0,1.0,-9833.0,-9083.0,-5654.0,-7571.0,-1.0,24.0,47.0,32.0,16.0,108.0,21.0,-38.0,2.3798909187316895
478,-13.0,11.0,81.0,1.0,-9825.0,-9088.0,-5656.0,-7572.0,-1.0,24.0,47.0,32.0,16.0,108.0,21.0,-38.0,2.3828561305999756
479,-13.0,11.0,81.0,1.0,-9825.0,-9088.0,-5656.0,-7572.0,22.0,71.0,106.0,33.0,69.0,-74.0,-89.0,22.0,2.384760856628418
480,-13.0,11.0,81.0,1.0,-9825.0,-9088.0,-5656.0,-7572.0,20.0,-1.0,-63.0,84.0,23.0,53.0,-34.0,27.0,2.391493320465088
481,-59.0,0.0,8.0,1.0,-9824.0,-9091.0,-5654.0,-7574.0,20.0,-1.0,-63.0,84.0,23.0,53.0,-34.0,27.0,2.400132179260254
482,-59.0,0.0,8.0,1.0,-9824.0,-9091.0,-5654.0,-7574.0,-6.0,-26.0,7.0,18.0,61.0,76.0,-57.0,24.0,2.4024999141693115
483,-59.0,0.0,8.0,1.0,-9824.0,-9091.0,-5654.0,-7574.0,13.0,4.0,-19.0,-17.0,51.0,-67.0,35.0,79.0,2.415445566177368
484,27.0,6.0,-10.0,1.0,-9810.0,-9105.0,-5654.0,-7574.0,13.0,4.0,-19.0,-17.0,51.0,-67.0,35.0,79.0,2.4181251525878906
485,27.0,6.0,-10.0,1.0,-9810.0,-9105.0,-5654.0,-7574.0,-46.0,-34.0,-37.0,-4.0,69.0,-48.0,-128.0,-16.0,2.422659397125244
486,27.0,6.0,-10.0,1.0,-9810.0,-9105.0,-5654.0,-7574.0,-11.0,-19.0,-14.0,-1.0,28.0,42.0,2.0,-44.0,2.4392638206481934
487,97.0,-8.0,-13.0,1.0,-9792.0,-9127.0,-5666.0,-7561.0,-11.0,-19.0,-14.0,-1.0,28.0,42.0,2.0,-44.0,2.4429585933685303
488,97.0,-8.0,-13.0,1.0,-9792.0,-9127.0,-5666.0,-7561.0,17.0,9.0,17.0,-18.0,-9.0,50.0,110.0,-10.0,2.4477040767669678
489,97.0,-8.0,-13.0,1.0,-9792.0,-9127.0,-5666.0,-7561.0,-43.0,-7.0,-26.0,-39.0,-8.0,-64.0,-35.0,-77.0,2.460897445678711
490,21.0,1.0,20.0,1.0,-9784.0,-9137.0,-5675.0,-7554.0,-43.0,-7.0,-26.0,-39.0,-8.0,-64.0,-35.0,-77.0,2.465885877609253
491,21.0,1.0,20.0,1.0,-9784.0,-9137.0,-5675.0,-7554.0,6.0,12.0,22.0,-61.0,-14.0,-71.0,57.0,-5.0,2.469909906387329
492,21.0,1.0,20.0,1.0,-9784.0,-9137.0,-5675.0,-7554.0,-5.0,-10.0,22.0,36.0,18.0,18.0,126.0,31.0,2.4762213230133057
493,-80.0,8.0,20.0,1.0,-9786.0,-9133.0,-5668.0,-7561.0,-5.0,-10.0,22.0,36.0,18.0,18.0,126.0,31.0,2.4787731170654297
494,-80.0,8.0,20.0,1.0,-9786.0,-9133.0,-5668.0,-7561.0,-7.0,-35.0,-28.0,-4.0,24.0,-10.0,-51.0,-24.0,2.480679750442505
495,-80.0,8.0,20.0,1.0,-9786.0,-9133.0,-5668.0,-7561.0,10.0,9.0,-3.0,18.0,71.0,101.0,16.0,40.0,2.498936176300049
496,-27.0,5.0,-72.0,1.0,-9790.0,-9129.0,-5663.0,-7564.0,10.0,9.0,-3.0,18.0,71.0,101.0,16.0,40.0,2.500999927520752
497,-27.0,5.0,-72.0,1.0,-9790.0,-9129.0,-5663.0,-7564.0,5.0,-6.0,4.0,24.0,2.0,58.0,32.0,-1.0,2.503723382949829
498,-27.0,5.0,-72.0,1.0,-9790.0,-9129.0,-5663.0,-7564.0,9.0,4.0,-8.0,-7.0,-5.0,-74.0,-80.0,28.0,2.5219013690948486
499,0.0,-33.0,-141.0,1.0,-9798.0,-9128.0,-5665.0,-7553.0,9.0,4.0,-8.0,-7.0,-5.0,-74.0,-80.0,28.0,2.5258405208587646
