,Gyro 0,Gyro 1,Gyro 2,Label,Orientation 0,Orientation 1,Orientation 2,Orientation 3,Sensor 0,Sensor 1,Sensor 2,Sensor 3,Sensor 4,Sensor 5,Sensor 6,Sensor 7,Timestamp
0,-120.0,113.0,87.0,1.0,-11769.0,-10288.0,4907.0,-197.0,3.0,6.0,2.0,-1.0,-21.0,2.0,-2.0,-24.0,2.384185791015625e-06
1,-120.0,113.0,87.0,1.0,-11769.0,-10288.0,4907.0,-197.0,-2.0,7.0,10.0,36.0,-15.0,2.0,-1.0,-4.0,0.0023674964904785156
2,-120.0,113.0,87.0,1.0,-11769.0,-10288.0,4907.0,-197.0,4.0,-4.0,-20.0,-2.0,17.0,4.0,0.0,12.0,0.004547119140625
3,-120.0,113.0,87.0,1.0,-11769.0,-10288.0,4907.0,-197.0,4.0,-4.0,-20.0,-2.0,17.0,4.0,0.0,12.0,0.009235858917236328
4,-79.0,140.0,130.0,1.0,-11798.0,-10261.0,4891.0,-218.0,4.0,-4.0,-20.0,-2.0,17.0,4.0,0.0,12.0,0.011504650115966797
5,-79.0,140.0,130.0,1.0,-11798.0,-10261.0,4891.0,-218.0,-6.0,-2.0,19.0,-15.0,-72.0,-9.0,-3.0,0.0,0.01346278190612793
6,-79.0,140.0,130.0,1.0,-11798.0,-10261.0,4891.0,-218.0,-8.0,-9.0,-9.0,-52.0,-12.0,-1.0,4.0,-5.0,0.015270709991455078
7,-168.0,111.0,195.0,1.0,-11825.0,-10234.0,4882.0,-229.0,-8.0,-9.0,-9.0,-52.0,-12.0,-1.0,4.0,-5.0,0.01709604263305664
8,-168.0,111.0,195.0,1.0,-11825.0,-10234.0,4882.0,-229.0,1.0,2.0,11.0,17.0,22.0,53.0,29.0,6.0,0.019085168838500977
9,-168.0,111.0,195.0,1.0,-11825.0,-10234.0,4882.0,-229.0,0.0,-4.0,5.0,-47.0,-18.0,-1.0,-23.0,-14.0,0.021503686904907227
10,-418.0,81.0,101.0,1.0,-11874.0,-10181.0,4873.0,-218.0,0.0,-4.0,5.0,-47.0,-18.0,-1.0,-23.0,-14.0,0.02489185333251953
11,-418.0,81.0,101.0,1.0,-11874.0,-10181.0,4873.0,-218.0,-4.0,-9.0,-32.0,-114.0,-2.0,-54.0,-5.0,-14.0,0.0269777774810791
12,-418.0,81.0,101.0,1.0,-11874.0,-10181.0,4873.0,-218.0,7.0,7.0,-1.0,-32.0,58.0,20.0,-1.0,0.0,0.029795408248901367
13,-505.0,31.0,49.0,1.0,-11931.0,-10116.0,4873.0,-197.0,7.0,7.0,-1.0,-32.0,58.0,20.0,-1.0,0.0,0.0318446159362793
14,-505.0,31.0,49.0,1.0,-11931.0,-10116.0,4873.0,-197.0,4.0,4.0,11.0,43.0,42.0,-9.0,-18.0,9.0,0.033759355545043945
15,-505.0,31.0,49.0,1.0,-11931.0,-10116.0,4873.0,-197.0,-2.0,-9.0,-26.0,-80.0,-51.0,-13.0,1.0,4.0,0.035552978515625
16,-242.0,46.0,108.0,1.0,-11958.0,-10080.0,4880.0,-204.0,-2.0,-9.0,-26.0,-80.0,-51.0,-13.0,1.0,4.0,0.03734135627746582
17,-242.0,46.0,108.0,1.0,-11958.0,-10080.0,4880.0,-204.0,-8.0,-7.0,-10.0,10.0,-24.0,-7.0,49.0,1.0,0.03919529914855957
18,-242.0,46.0,108.0,1.0,-11958.0,-10080.0,4880.0,-204.0,1.0,3.0,4.0,9.0,-37.0,8.0,13.0,12.0,0.04110431671142578
19,-138.0,37.0,197.0,1.0,-11969.0,-10055.0,4904.0,-231.0,1.0,3.0,4.0,9.0,-37.0,8.0,13.0,12.0,0.04358673095703125
20,-138.0,37.0,197.0,1.0,-11969.0,-10055.0,4904.0,-231.0,-8.0,-7.0,-48.0,1.0,-65.0,4.0,-28.0,-3.0,0.045649051666259766
21,-138.0,37.0,197.0,1.0,-11969.0,-10055.0,4904.0,-231.0,-1.0,1.0,20.0,23.0,-15.0,-8.0,-7.0,-13.0,0.047597646713256836
22,-20.0,48.0,204.0,1.0,-11978.0,-10037.0,4918.0,-262.0,-1.0,1.0,20.0,23.0,-15.0,-8.0,-7.0,-13.0,0.04938864707946777
23,-20.0,48.0,204.0,1.0,-11978.0,-10037.0,4918.0,-262.0,-2.0,-8.0,4.0,4.0,67.0,13.0,-80.0,14.0,0.0514068603515625
24,-20.0,48.0,204.0,1.0,-11978.0,-10037.0,4918.0,-262.0,-1.0,-11.0,-30.0,25.0,52.0,3.0,84.0,33.0,0.05437612533569336
25,25.0,-16.0,203.0,1.0,-11973.0,-10028.0,4945.0,-291.0,-1.0,-11.0,-30.0,25.0,52.0,3.0,84.0,33.0,0.05693674087524414
26,25.0,-16.0,203.0,1.0,-11973.0,-10028.0,4945.0,-291.0,0.0,2.0,22.0,68.0,30.0,31.0,-26.0,-4.0,0.05888700485229492
27,25.0,-16.0,203.0,1.0,-11973.0,-10028.0,4945.0,-291.0,13.0,27.0,15.0,25.0,-28.0,11.0,-16.0,4.0,0.06070256233215332
28,74.0,-2.0,174.0,1.0,-11964.0,-10030.0,4962.0,-316.0,13.0,27.0,15.0,25.0,-28.0,11.0,-16.0,4.0,0.06336832046508789
29,74.0,-2.0,174.0,1.0,-11964.0,-10030.0,4962.0,-316.0,27.0,86.0,81.0,6.0,-57.0,-18.0,90.0,10.0,0.06539511680603027
30,74.0,-2.0,174.0,1.0,-11964.0,-10030.0,4962.0,-316.0,-3.0,-12.0,-3.0,-3.0,-37.0,52.0,10.0,-5.0,0.06723284721374512
31,-23.0,9.0,125.0,1.0,-11966.0,-10022.0,4971.0,-328.0,-3.0,-12.0,-3.0,-3.0,-37.0,52.0,10.0,-5.0,0.0690619945526123
32,-23.0,9.0,125.0,1.0,-11966.0,-10022.0,4971.0,-328.0,12.0,42.0,57.0,-32.0,-44.0,-25.0,-58.0,11.0,0.07096552848815918
33,-23.0,9.0,125.0,1.0,-11966.0,-10022.0,4971.0,-328.0,-1.0,9.0,-6.0,-2.0,59.0,-8.0,21.0,5.0,0.07281923294067383
34,-55.0,72.0,166.0,1.0,-11970.0,-10010.0,4985.0,-357.0,-1.0,9.0,-6.0,-2.0,59.0,-8.0,21.0,5.0,0.07482290267944336
35,-55.0,72.0,166.0,1.0,-11970.0,-10010.0,4985.0,-357.0,-6.0,10.0,45.0,26.0,-13.0,-10.0,0.0,0.0,0.0768592357635498
36,-55.0,72.0,166.0,1.0,-11970.0,-10010.0,4985.0,-357.0,-13.0,-34.0,-35.0,-12.0,-68.0,-2.0,-38.0,-8.0,0.07866716384887695
37,21.0,58.0,209.0,1.0,-11951.0,-10015.0,5016.0,-398.0,-13.0,-34.0,-35.0,-12.0,-68.0,-2.0,-38.0,-8.0,0.08044815063476562
38,21.0,58.0,209.0,1.0,-11951.0,-10015.0,5016.0,-398.0,-1.0,9.0,-30.0,-2.0,70.0,16.0,5.0,-5.0,0.08243417739868164
39,21.0,58.0,209.0,1.0,-11951.0,-10015.0,5016.0,-398.0,4.0,10.0,15.0,14.0,62.0,-36.0,-43.0,-29.0,0.0859992504119873
40,95.0,55.0,76.0,1.0,-11928.0,-10033.0,5034.0,-429.0,4.0,10.0,15.0,14.0,62.0,-36.0,-43.0,-29.0,0.08799934387207031
41,95.0,55.0,76.0,1.0,-11928.0,-10033.0,5034.0,-429.0,0.0,-26.0,-32.0,-9.0,9.0,13.0,30.0,-1.0,0.08994317054748535
42,95.0,55.0,76.0,1.0,-11928.0,-10033.0,5034.0,-429.0,-5.0,2.0,39.0,10.0,116.0,-44.0,-13.0,2.0,0.09176945686340332
43,151.0,85.0,61.0,1.0,-11906.0,-10051.0,5044.0,-466.0,-5.0,2.0,39.0,10.0,116.0,-44.0,-13.0,2.0,0.09401464462280273
44,151.0,85.0,61.0,1.0,-11906.0,-10051.0,5044.0,-466.0,5.0,-9.0,-13.0,9.0,54.0,4.0,-5.0,5.0,0.09708261489868164
45,151.0,85.0,61.0,1.0,-11906.0,-10051.0,5044.0,-466.0,-6.0,-1.0,18.0,3.0,-39.0,5.0,-2.0,0.0,0.09905314445495605
46,300.0,118.0,60.0,1.0,-11875.0,-10090.0,5038.0,-505.0,-6.0,-1.0,18.0,3.0,-39.0,5.0,-2.0,0.0,0.10089778900146484
47,300.0,118.0,60.0,1.0,-11875.0,-10090.0,5038.0,-505.0,-9.0,-11.0,18.0,4.0,-50.0,-10.0,-1.0,-8.0,0.10276103019714355
48,300.0,118.0,60.0,1.0,-11875.0,-10090.0,5038.0,-505.0,-1.0,-4.0,-13.0,15.0,-34.0,4.0,12.0,1.0,0.10456991195678711
49,102.0,114.0,51.0,1.0,-11868.0,-10100.0,5030.0,-532.0,-1.0,-4.0,-13.0,15.0,-34.0,4.0,12.0,1.0,0.10641241073608398
50,102.0,114.0,51.0,1.0,-11868.0,-10100.0,5030.0,-532.0,-12.0,-21.0,-24.0,-7.0,-28.0,-16.0,-7.0,-10.0,0.10852479934692383
51,102.0,114.0,51.0,1.0,-11868.0,-10100.0,5030.0,-532.0,6.0,-10.0,-32.0,-6.0,-61.0,5.0,-11.0,4.0,0.11034321784973145
52,11.0,65.0,113.0,1.0,-11872.0,-10091.0,5037.0,-559.0,6.0,-10.0,-32.0,-6.0,-61.0,5.0,-11.0,4.0,0.11220574378967285
53,11.0,65.0,113.0,1.0,-11872.0,-10091.0,5037.0,-559.0,-4.0,-34.0,-25.0,15.0,-3.0,5.0,6.0,-3.0,0.11561179161071777
54,11.0,65.0,113.0,1.0,-11872.0,-10091.0,5037.0,-559.0,-5.0,-12.0,0.0,-5.0,-30.0,-6.0,0.0,-1.0,0.11829161643981934
55,-59.0,82.0,142.0,1.0,-11883.0,-10073.0,5043.0,-585.0,-5.0,-12.0,0.0,-5.0,-30.0,-6.0,0.0,-1.0,0.12012219429016113
56,-59.0,82.0,142.0,1.0,-11883.0,-10073.0,5043.0,-585.0,-1.0,-6.0,-10.0,-13.0,1.0,19.0,9.0,-1.0,0.12200713157653809
57,-59.0,82.0,142.0,1.0,-11883.0,-10073.0,5043.0,-585.0,-3.0,-10.0,-41.0,1.0,10.0,-6.0,-18.0,-3.0,0.12378907203674316
58,-183.0,161.0,154.0,1.0,-11916.0,-10034.0,5040.0,-615.0,-3.0,-10.0,-41.0,1.0,10.0,-6.0,-18.0,-3.0,0.12558913230895996
59,-183.0,161.0,154.0,1.0,-11916.0,-10034.0,5040.0,-615.0,3.0,-7.0,-28.0,-7.0,0.0,17.0,1.0,1.0,0.12743711471557617
60,-183.0,161.0,154.0,1.0,-11916.0,-10034.0,5040.0,-615.0,-9.0,-11.0,0.0,1.0,14.0,-1.0,-11.0,-6.0,0.13022828102111816
61,-231.0,160.0,176.0,1.0,-11952.0,-9988.0,5041.0,-646.0,-9.0,-11.0,0.0,1.0,14.0,-1.0,-11.0,-6.0,0.1322803497314453
62,-231.0,160.0,176.0,1.0,-11952.0,-9988.0,5041.0,-646.0,5.0,17.0,10.0,-4.0,-31.0,10.0,-6.0,8.0,0.13425564765930176
63,-231.0,160.0,176.0,1.0,-11952.0,-9988.0,5041.0,-646.0,-3.0,-2.0,20.0,10.0,17.0,-8.0,2.0,-5.0,0.13607048988342285
64,-120.0,117.0,88.0,1.0,-11978.0,-9957.0,5038.0,-670.0,-3.0,-2.0,20.0,10.0,17.0,-8.0,2.0,-5.0,0.13789772987365723
65,-120.0,117.0,88.0,1.0,-11978.0,-9957.0,5038.0,-670.0,-7.0,-8.0,-24.0,-11.0,36.0,-4.0,5.0,1.0,0.13978195190429688
66,-120.0,117.0,88.0,1.0,-11978.0,-9957.0,5038.0,-670.0,-4.0,-13.0,-54.0,-1.0,33.0,-5.0,13.0,-4.0,0.14182400703430176
67,-39.0,84.0,34.0,1.0,-11991.0,-9943.0,5032.0,-686.0,-4.0,-13.0,-54.0,-1.0,33.0,-5.0,13.0,-4.0,0.14382004737854004
68,-39.0,84.0,34.0,1.0,-11991.0,-9943.0,5032.0,-686.0,-1.0,0.0,-8.0,-1.0,3.0,-9.0,-10.0,-2.0,0.14748001098632812
69,-39.0,84.0,34.0,1.0,-11991.0,-9943.0,5032.0,-686.0,3.0,-2.0,-21.0,-3.0,13.0,19.0,22.0,9.0,0.14949846267700195
70,-90.0,114.0,21.0,1.0,-12010.0,-9927.0,5019.0,-696.0,3.0,-2.0,-21.0,-3.0,13.0,19.0,22.0,9.0,0.15136480331420898
71,-90.0,114.0,21.0,1.0,-12010.0,-9927.0,5019.0,-696.0,3.0,13.0,4.0,-5.0,-30.0,-16.0,-3.0,-6.0,0.15329217910766602
72,-90.0,114.0,21.0,1.0,-12010.0,-9927.0,5019.0,-696.0,5.0,10.0,8.0,-4.0,-24.0,0.0,-1.0,-5.0,0.1551353931427002
73,-153.0,156.0,2.0,1.0,-12031.0,-9909.0,5002.0,-705.0,5.0,10.0,8.0,-4.0,-24.0,0.0,-1.0,-5.0,0.15701866149902344
74,-153.0,156.0,2.0,1.0,-12031.0,-9909.0,5002.0,-705.0,-3.0,-25.0,-72.0,-2.0,26.0,4.0,-1.0,-2.0,0.15889978408813477
75,-153.0,156.0,2.0,1.0,-12031.0,-9909.0,5002.0,-705.0,7.0,10.0,4.0,0.0,48.0,1.0,-2.0,6.0,0.16069793701171875
76,-140.0,120.0,-35.0,1.0,-12054.0,-9888.0,4986.0,-710.0,7.0,10.0,4.0,0.0,48.0,1.0,-2.0,6.0,0.16321563720703125
77,-140.0,120.0,-35.0,1.0,-12054.0,-9888.0,4986.0,-710.0,-5.0,-19.0,-25.0,2.0,-24.0,-4.0,-5.0,-18.0,0.16547036170959473
78,-140.0,120.0,-35.0,1.0,-12054.0,-9888.0,4986.0,-710.0,1.0,14.0,38.0,-5.0,-42.0,-7.0,-2.0,-6.0,0.16730308532714844
79,1.0,111.0,-48.0,1.0,-12061.0,-9889.0,4969.0,-718.0,1.0,14.0,38.0,-5.0,-42.0,-7.0,-2.0,-6.0,0.169158935546875
80,1.0,111.0,-48.0,1.0,-12061.0,-9889.0,4969.0,-718.0,-5.0,-7.0,20.0,7.0,43.0,-31.0,25.0,4.0,0.17106318473815918
81,1.0,111.0,-48.0,1.0,-12061.0,-9889.0,4969.0,-718.0,1.0,2.0,44.0,4.0,-3.0,-3.0,-26.0,-2.0,0.1728682518005371
82,51.0,119.0,-42.0,1.0,-12062.0,-9897.0,4949.0,-729.0,1.0,2.0,44.0,4.0,-3.0,-3.0,-26.0,-2.0,0.1751697063446045
83,51.0,119.0,-42.0,1.0,-12062.0,-9897.0,4949.0,-729.0,2.0,1.0,31.0,7.0,21.0,7.0,-1.0,13.0,0.17923712730407715
84,51.0,119.0,-42.0,1.0,-12062.0,-9897.0,4949.0,-729.0,-5.0,4.0,-1.0,3.0,8.0,2.0,5.0,2.0,0.18190646171569824
85,-51.0,110.0,-48.0,1.0,-12074.0,-9891.0,4929.0,-731.0,-5.0,4.0,-1.0,3.0,8.0,2.0,5.0,2.0,0.1837613582611084
86,-51.0,110.0,-48.0,1.0,-12074.0,-9891.0,4929.0,-731.0,0.0,1.0,21.0,1.0,-6.0,-4.0,-4.0,-5.0,0.1856677532196045
87,-51.0,110.0,-48.0,1.0,-12074.0,-9891.0,4929.0,-731.0,0.0,-1.0,5.0,-9.0,-4.0,15.0,-3.0,3.0,0.1874701976776123
88,-113.0,68.0,-46.0,1.0,-12091.0,-9878.0,4916.0,-728.0,0.0,-1.0,5.0,-9.0,-4.0,15.0,-3.0,3.0,0.1892702579498291
89,-113.0,68.0,-46.0,1.0,-12091.0,-9878.0,4916.0,-728.0,-8.0,-9.0,-4.0,-7.0,-19.0,-6.0,-6.0,-11.0,0.19136524200439453
90,-113.0,68.0,-46.0,1.0,-12091.0,-9878.0,4916.0,-728.0,11.0,19.0,-10.0,0.0,30.0,-8.0,12.0,18.0,0.19327855110168457
91,-116.0,40.0,-40.0,1.0,-12105.0,-9863.0,4910.0,-723.0,11.0,19.0,-10.0,0.0,30.0,-8.0,12.0,18.0,0.19508147239685059
92,-116.0,40.0,-40.0,1.0,-12105.0,-9863.0,4910.0,-723.0,1.0,-10.0,-27.0,-4.0,-14.0,-8.0,-4.0,-1.0,0.19693493843078613
93,-116.0,40.0,-40.0,1.0,-12105.0,-9863.0,4910.0,-723.0,1.0,-11.0,-34.0,2.0,-36.0,6.0,6.0,-6.0,0.19869422912597656
94,-95.0,-11.0,-34.0,1.0,-12114.0,-9853.0,4911.0,-714.0,1.0,-11.0,-34.0,2.0,-36.0,6.0,6.0,-6.0,0.20048952102661133
95,-95.0,-11.0,-34.0,1.0,-12114.0,-9853.0,4911.0,-714.0,-2.0,-4.0,-4.0,-3.0,-2.0,1.0,-4.0,-2.0,0.20232582092285156
96,-95.0,-11.0,-34.0,1.0,-12114.0,-9853.0,4911.0,-714.0,3.0,19.0,4.0,-8.0,-8.0,-1.0,2.0,-2.0,0.20408272743225098
97,-96.0,-5.0,-16.0,1.0,-12121.0,-9845.0,4911.0,-705.0,3.0,19.0,4.0,-8.0,-8.0,-1.0,2.0,-2.0,0.20598983764648438
98,-96.0,-5.0,-16.0,1.0,-12121.0,-9845.0,4911.0,-705.0,-5.0,0.0,13.0,-2.0,-1.0,8.0,0.0,-4.0,0.2095503807067871
99,-96.0,-5.0,-16.0,1.0,-12121.0,-9845.0,4911.0,-705.0,5.0,6.0,-11.0,-15.0,-7.0,-15.0,-5.0,-2.0,0.21201157569885254
100,-144.0,-51.0,-22.0,1.0,-12131.0,-9829.0,4919.0,-690.0,5.0,6.0,-11.0,-15.0,-7.0,-15.0,-5.0,-2.0,0.21445536613464355
101,-144.0,-51.0,-22.0,1.0,-12131.0,-9829.0,4919.0,-690.0,-4.0,-12.0,-1.0,2.0,11.0,0.0,-1.0,2.0,0.21645569801330566
102,-144.0,-51.0,-22.0,1.0,-12131.0,-9829.0,4919.0,-690.0,-3.0,-15.0,-27.0,-4.0,-10.0,2.0,-2.0,-4.0,0.21825075149536133
103,-125.0,-46.0,-26.0,1.0,-12141.0,-9813.0,4928.0,-680.0,-3.0,-15.0,-27.0,-4.0,-10.0,2.0,-2.0,-4.0,0.22005748748779297
104,-125.0,-46.0,-26.0,1.0,-12141.0,-9813.0,4928.0,-680.0,-4.0,-4.0,-19.0,-6.0,9.0,1.0,31.0,3.0,0.22191071510314941
105,-125.0,-46.0,-26.0,1.0,-12141.0,-9813.0,4928.0,-680.0,-3.0,-3.0,12.0,6.0,-24.0,-13.0,5.0,6.0,0.22367119789123535
106,-59.0,-63.0,-5.0,1.0,-12142.0,-9807.0,4940.0,-672.0,-3.0,-3.0,12.0,6.0,-24.0,-13.0,5.0,6.0,0.2257082462310791
107,-59.0,-63.0,-5.0,1.0,-12142.0,-9807.0,4940.0,-672.0,7.0,4.0,6.0,1.0,19.0,5.0,-16.0,-6.0,0.22757863998413086
108,-59.0,-63.0,-5.0,1.0,-12142.0,-9807.0,4940.0,-672.0,-6.0,-2.0,31.0,3.0,3.0,-9.0,4.0,-4.0,0.22935867309570312
109,-6.0,-40.0,-8.0,1.0,-12136.0,-9811.0,4946.0,-666.0,-6.0,-2.0,31.0,3.0,3.0,-9.0,4.0,-4.0,0.23117280006408691
110,-6.0,-40.0,-8.0,1.0,-12136.0,-9811.0,4946.0,-666.0,2.0,20.0,33.0,4.0,-3.0,-3.0,-10.0,-4.0,0.23305940628051758
111,-6.0,-40.0,-8.0,1.0,-12136.0,-9811.0,4946.0,-666.0,-11.0,-11.0,56.0,-8.0,-7.0,3.0,-9.0,-5.0,0.23482298851013184
112,-64.0,-43.0,-25.0,1.0,-12137.0,-9808.0,4953.0,-655.0,-11.0,-11.0,56.0,-8.0,-7.0,3.0,-9.0,-5.0,0.2367382049560547
113,-64.0,-43.0,-25.0,1.0,-12137.0,-9808.0,4953.0,-655.0,1.0,1.0,11.0,-10.0,-25.0,-6.0,-5.0,0.0,0.24012017250061035
114,-64.0,-43.0,-25.0,1.0,-12137.0,-9808.0,4953.0,-655.0,-9.0,-45.0,-60.0,4.0,14.0,-2.0,-1.0,-6.0,0.24210143089294434
115,-75.0,-52.0,-43.0,1.0,-12141.0,-9802.0,4956.0,-640.0,-9.0,-45.0,-60.0,4.0,14.0,-2.0,-1.0,-6.0,0.24393463134765625
116,-75.0,-52.0,-43.0,1.0,-12141.0,-9802.0,4956.0,-640.0,6.0,1.0,19.0,-5.0,5.0,23.0,4.0,9.0,0.24674677848815918
117,-75.0,-52.0,-43.0,1.0,-12141.0,-9802.0,4956.0,-640.0,-5.0,-1.0,-23.0,-3.0,-8.0,4.0,17.0,9.0,0.24869489669799805
118,-6.0,-46.0,-26.0,1.0,-12136.0,-9806.0,4961.0,-631.0,-5.0,-1.0,-23.0,-3.0,-8.0,4.0,17.0,9.0,0.25050950050354004
119,-6.0,-46.0,-26.0,1.0,-12136.0,-9806.0,4961.0,-631.0,7.0,35.0,31.0,9.0,-6.0,-6.0,-6.0,-1.0,0.2523951530456543
120,-6.0,-46.0,-26.0,1.0,-12136.0,-9806.0,4961.0,-631.0,7.0,6.0,41.0,7.0,17.0,-3.0,-6.0,-6.0,0.25422096252441406
121,9.0,-26.0,-11.0,1.0,-12130.0,-9814.0,4963.0,-625.0,7.0,6.0,41.0,7.0,17.0,-3.0,-6.0,-6.0,0.25599145889282227
122,9.0,-26.0,-11.0,1.0,-12130.0,-9814.0,4963.0,-625.0,0.0,-4.0,-19.0,-6.0,-13.0,-1.0,0.0,-1.0,0.2580544948577881
123,9.0,-26.0,-11.0,1.0,-12130.0,-9814.0,4963.0,-625.0,3.0,15.0,-15.0,-6.0,16.0,-6.0,-3.0,-1.0,0.25988101959228516
124,-30.0,-35.0,1.0,1.0,-12125.0,-9818.0,4967.0,-616.0,3.0,15.0,-15.0,-6.0,16.0,-6.0,-3.0,-1.0,0.26166391372680664
125,-30.0,-35.0,1.0,1.0,-12125.0,-9818.0,4967.0,-616.0,-8.0,-4.0,15.0,2.0,8.0,5.0,-3.0,-2.0,0.2635061740875244
126,-30.0,-35.0,1.0,1.0,-12125.0,-9818.0,4967.0,-616.0,-4.0,-11.0,-28.0,-3.0,-6.0,8.0,-3.0,6.0,0.2652730941772461
127,-87.0,-10.0,7.0,1.0,-12129.0,-9812.0,4971.0,-610.0,-4.0,-11.0,-28.0,-3.0,-6.0,8.0,-3.0,6.0,0.2671842575073242
128,-87.0,-10.0,7.0,1.0,-12129.0,-9812.0,4971.0,-610.0,2.0,16.0,66.0,-9.0,-55.0,-14.0,-6.0,-2.0,0.2705073356628418
129,-87.0,-10.0,7.0,1.0,-12129.0,-9812.0,4971.0,-610.0,4.0,18.0,-13.0,-13.0,-12.0,3.0,-3.0,-4.0,0.2724616527557373
130,-64.0,-10.0,14.0,1.0,-12133.0,-9803.0,4977.0,-609.0,4.0,18.0,-13.0,-13.0,-12.0,3.0,-3.0,-4.0,0.2742881774902344
131,-64.0,-10.0,14.0,1.0,-12133.0,-9803.0,4977.0,-609.0,-3.0,-14.0,-30.0,6.0,17.0,-5.0,2.0,2.0,0.2762179374694824
132,-64.0,-10.0,14.0,1.0,-12133.0,-9803.0,4977.0,-609.0,3.0,12.0,25.0,4.0,0.0,20.0,-2.0,0.0,0.27807116508483887
133,32.0,-25.0,-6.0,1.0,-12124.0,-9810.0,4986.0,-612.0,3.0,12.0,25.0,4.0,0.0,20.0,-2.0,0.0,0.2808370590209961
134,32.0,-25.0,-6.0,1.0,-12124.0,-9810.0,4986.0,-612.0,-8.0,-17.0,-26.0,2.0,-7.0,-4.0,-3.0,-7.0,0.2827780246734619
135,32.0,-25.0,-6.0,1.0,-12124.0,-9810.0,4986.0,-612.0,-2.0,9.0,37.0,11.0,9.0,-2.0,1.0,-8.0,0.28459906578063965
136,60.0,-27.0,-39.0,1.0,-12113.0,-9820.0,4993.0,-613.0,-2.0,9.0,37.0,11.0,9.0,-2.0,1.0,-8.0,0.2863919734954834
137,60.0,-27.0,-39.0,1.0,-12113.0,-9820.0,4993.0,-613.0,9.0,35.0,84.0,1.0,9.0,-1.0,-2.0,2.0,0.28824663162231445
138,60.0,-27.0,-39.0,1.0,-12113.0,-9820.0,4993.0,-613.0,-6.0,-11.0,2.0,-1.0,0.0,4.0,-4.0,-8.0,0.290069580078125
139,35.0,-62.0,-78.0,1.0,-12105.0,-9828.0,4997.0,-603.0,-6.0,-11.0,2.0,-1.0,0.0,4.0,-4.0,-8.0,0.2920684814453125
140,35.0,-62.0,-78.0,1.0,-12105.0,-9828.0,4997.0,-603.0,-1.0,13.0,-39.0,-3.0,-44.0,-6.0,-2.0,1.0,0.29395198822021484
141,17.0,-72.0,-52.0,1.0,-12099.0,-9834.0,5001.0,-589.0,-1.0,13.0,-39.0,-3.0,-44.0,-6.0,-2.0,1.0,0.29572057723999023
142,17.0,-72.0,-52.0,1.0,-12099.0,-9834.0,5001.0,-589.0,-1.0,5.0,15.0,-3.0,-30.0,2.0,2.0,3.0,0.2977283000946045
143,17.0,-72.0,-52.0,1.0,-12099.0,-9834.0,5001.0,-589.0,4.0,6.0,3.0,7.0,17.0,5.0,1.0,5.0,0.301074743270874
144,44.0,-80.0,-5.0,1.0,-12086.0,-9848.0,5006.0,-575.0,4.0,6.0,3.0,7.0,17.0,5.0,1.0,5.0,0.3031790256500244
145,44.0,-80.0,-5.0,1.0,-12086.0,-9848.0,5006.0,-575.0,2.0,7.0,50.0,-5.0,-46.0,-6.0,-1.0,3.0,0.3050849437713623
146,44.0,-80.0,-5.0,1.0,-12086.0,-9848.0,5006.0,-575.0,-6.0,-26.0,-18.0,6.0,0.0,-20.0,-10.0,-7.0,0.3068842887878418
147,5.0,-90.0,24.0,1.0,-12078.0,-9853.0,5018.0,-565.0,-6.0,-26.0,-18.0,6.0,0.0,-20.0,-10.0,-7.0,0.30869531631469727
148,5.0,-90.0,24.0,1.0,-12078.0,-9853.0,5018.0,-565.0,8.0,15.0,7.0,8.0,39.0,-6.0,-5.0,2.0,0.31055140495300293
149,5.0,-90.0,24.0,1.0,-12078.0,-9853.0,5018.0,-565.0,0.0,13.0,-12.0,5.0,13.0,11.0,3.0,1.0,0.31319737434387207
150,45.0,-89.0,42.0,1.0,-12067.0,-9860.0,5030.0,-560.0,0.0,13.0,-12.0,5.0,13.0,11.0,3.0,1.0,0.3152594566345215
151,45.0,-89.0,42.0,1.0,-12067.0,-9860.0,5030.0,-560.0,-4.0,3.0,63.0,-4.0,3.0,-8.0,-6.0,-5.0,0.31717467308044434
152,45.0,-89.0,42.0,1.0,-12067.0,-9860.0,5030.0,-560.0,-7.0,-27.0,-65.0,5.0,29.0,5.0,3.0,-1.0,0.31899094581604004
153,55.0,-91.0,55.0,1.0,-12056.0,-9867.0,5045.0,-557.0,-7.0,-27.0,-65.0,5.0,29.0,5.0,3.0,-1.0,0.32079172134399414
154,55.0,-91.0,55.0,1.0,-12056.0,-9867.0,5045.0,-557.0,-7.0,-14.0,-84.0,2.0,14.0,6.0,-3.0,-1.0,0.3226594924926758
155,55.0,-91.0,55.0,1.0,-12056.0,-9867.0,5045.0,-557.0,2.0,-13.0,-35.0,-19.0,3.0,3.0,3.0,-2.0,0.32470273971557617
156,27.0,-78.0,54.0,1.0,-12047.0,-9871.0,5057.0,-553.0,2.0,-13.0,-35.0,-19.0,3.0,3.0,3.0,-2.0,0.32653117179870605
157,27.0,-78.0,54.0,1.0,-12047.0,-9871.0,5057.0,-553.0,-1.0,-8.0,-52.0,-7.0,3.0,4.0,-1.0,2.0,0.3285806179046631
158,27.0,-78.0,54.0,1.0,-12047.0,-9871.0,5057.0,-553.0,-3.0,1.0,-9.0,8.0,41.0,-3.0,1.0,4.0,0.33180761337280273
159,42.0,-72.0,43.0,1.0,-12036.0,-9879.0,5068.0,-549.0,-3.0,1.0,-9.0,8.0,41.0,-3.0,1.0,4.0,0.3338446617126465
160,42.0,-72.0,43.0,1.0,-12036.0,-9879.0,5068.0,-549.0,1.0,-7.0,-34.0,-5.0,6.0,-13.0,-3.0,-4.0,0.33579301834106445
161,42.0,-72.0,43.0,1.0,-12036.0,-9879.0,5068.0,-549.0,6.0,12.0,33.0,1.0,16.0,1.0,1.0,-2.0,0.33762311935424805
162,66.0,-54.0,8.0,1.0,-12023.0,-9891.0,5076.0,-547.0,6.0,12.0,33.0,1.0,16.0,1.0,1.0,-2.0,0.339400053024292
163,66.0,-54.0,8.0,1.0,-12023.0,-9891.0,5076.0,-547.0,-4.0,-13.0,2.0,9.0,4.0,0.0,-2.0,6.0,0.3412604331970215
164,66.0,-54.0,8.0,1.0,-12023.0,-9891.0,5076.0,-547.0,3.0,21.0,24.0,-7.0,2.0,-10.0,1.0,2.0,0.3430314064025879
165,82.0,-37.0,-19.0,1.0,-12011.0,-9906.0,5077.0,-543.0,3.0,21.0,24.0,-7.0,2.0,-10.0,1.0,2.0,0.3452160358428955
166,82.0,-37.0,-19.0,1.0,-12011.0,-9906.0,5077.0,-543.0,4.0,-1.0,-12.0,3.0,-5.0,-1.0,2.0,-3.0,0.34786486625671387
167,82.0,-37.0,-19.0,1.0,-12011.0,-9906.0,5077.0,-543.0,-6.0,-26.0,-37.0,-12.0,-5.0,-21.0,-13.0,0.0,0.34976911544799805
168,22.0,-46.0,-44.0,1.0,-12006.0,-9912.0,5076.0,-532.0,-6.0,-26.0,-37.0,-12.0,-5.0,-21.0,-13.0,0.0,0.35157060623168945
169,22.0,-46.0,-44.0,1.0,-12006.0,-9912.0,5076.0,-532.0,-7.0,-13.0,13.0,8.0,13.0,-1.0,-2.0,-1.0,0.3534371852874756
170,22.0,-46.0,-44.0,1.0,-12006.0,-9912.0,5076.0,-532.0,2.0,1.0,24.0,4.0,-12.0,13.0,4.0,-2.0,0.3552098274230957
171,28.0,-74.0,-42.0,1.0,-11999.0,-9919.0,5081.0,-520.0,2.0,1.0,24.0,4.0,-12.0,13.0,4.0,-2.0,0.3570125102996826
172,28.0,-74.0,-42.0,1.0,-11999.0,-9919.0,5081.0,-520.0,-10.0,-24.0,-30.0,-2.0,-21.0,0.0,-5.0,-8.0,0.35921669006347656
173,28.0,-74.0,-42.0,1.0,-11999.0,-9919.0,5081.0,-520.0,-5.0,-11.0,-1.0,-5.0,-1.0,1.0,1.0,-2.0,0.3632380962371826
174,86.0,-55.0,-21.0,1.0,-11984.0,-9935.0,5086.0,-515.0,-5.0,-11.0,-1.0,-5.0,-1.0,1.0,1.0,-2.0,0.3659672737121582
175,86.0,-55.0,-21.0,1.0,-11984.0,-9935.0,5086.0,-515.0,7.0,31.0,19.0,3.0,-33.0,1.0,2.0,0.0,0.3678739070892334
176,86.0,-55.0,-21.0,1.0,-11984.0,-9935.0,5086.0,-515.0,-7.0,-9.0,-9.0,3.0,-14.0,13.0,1.0,-3.0,0.36968064308166504
177,91.0,-60.0,-8.0,1.0,-11969.0,-9950.0,5092.0,-511.0,-7.0,-9.0,-9.0,3.0,-14.0,13.0,1.0,-3.0,0.3714587688446045
178,91.0,-60.0,-8.0,1.0,-11969.0,-9950.0,5092.0,-511.0,-1.0,-6.0,16.0,-12.0,1.0,-7.0,-1.0,-4.0,0.37343668937683105
179,91.0,-60.0,-8.0,1.0,-11969.0,-9950.0,5092.0,-511.0,-8.0,-23.0,-30.0,5.0,-21.0,2.0,-2.0,-3.0,0.37548303604125977
180,21.0,-37.0,-7.0,1.0,-11962.0,-9956.0,5099.0,-508.0,-8.0,-23.0,-30.0,5.0,-21.0,2.0,-2.0,-3.0,0.3773360252380371
181,21.0,-37.0,-7.0,1.0,-11962.0,-9956.0,5099.0,-508.0,3.0,8.0,15.0,1.0,-18.0,0.0,2.0,1.0,0.37919187545776367
182,21.0,-37.0,-7.0,1.0,-11962.0,-9956.0,5099.0,-508.0,-3.0,-11.0,-12.0,7.0,10.0,10.0,2.0,-2.0,0.3810310363769531
183,-15.0,-32.0,-21.0,1.0,-11959.0,-9956.0,5104.0,-504.0,-3.0,-11.0,-12.0,7.0,10.0,10.0,2.0,-2.0,0.3828308582305908
184,-15.0,-32.0,-21.0,1.0,-11959.0,-9956.0,5104.0,-504.0,3.0,6.0,16.0,-1.0,9.0,-5.0,-4.0,4.0,0.38468003273010254
185,-15.0,-32.0,-21.0,1.0,-11959.0,-9956.0,5104.0,-504.0,9.0,7.0,-40.0,-3.0,-25.0,2.0,3.0,1.0,0.3864412307739258
186,-20.0,-43.0,7.0,1.0,-11959.0,-9954.0,5109.0,-498.0,9.0,7.0,-40.0,-3.0,-25.0,2.0,3.0,1.0,0.3882026672363281
187,-20.0,-43.0,7.0,1.0,-11959.0,-9954.0,5109.0,-498.0,3.0,16.0,26.0,2.0,30.0,1.0,3.0,4.0,0.39018869400024414
188,-20.0,-43.0,7.0,1.0,-11959.0,-9954.0,5109.0,-498.0,-3.0,3.0,27.0,20.0,9.0,2.0,1.0,-4.0,0.39372897148132324
189,47.0,-86.0,6.0,1.0,-11948.0,-9960.0,5123.0,-495.0,-3.0,3.0,27.0,20.0,9.0,2.0,1.0,-4.0,0.39784741401672363
190,47.0,-86.0,6.0,1.0,-11948.0,-9960.0,5123.0,-495.0,-4.0,-11.0,10.0,-28.0,-5.0,-4.0,-2.0,-2.0,0.39983344078063965
191,47.0,-86.0,6.0,1.0,-11948.0,-9960.0,5123.0,-495.0,1.0,-4.0,4.0,-18.0,12.0,5.0,-4.0,1.0,0.4016556739807129
192,85.0,-79.0,3.0,1.0,-11932.0,-9974.0,5135.0,-491.0,1.0,-4.0,4.0,-18.0,12.0,5.0,-4.0,1.0,0.41152167320251465
193,85.0,-79.0,3.0,1.0,-11932.0,-9974.0,5135.0,-491.0,2.0,6.0,-12.0,3.0,9.0,1.0,3.0,2.0,0.41344523429870605
194,85.0,-79.0,3.0,1.0,-11932.0,-9974.0,5135.0,-491.0,-4.0,-13.0,-2.0,10.0,-35.0,-2.0,-3.0,0.0,0.4184088706970215
195,-33.0,-67.0,0.0,1.0,-11929.0,-9974.0,5143.0,-479.0,-4.0,-13.0,-2.0,10.0,-35.0,-2.0,-3.0,0.0,0.43474674224853516
196,-33.0,-67.0,0.0,1.0,-11929.0,-9974.0,5143.0,-479.0,1.0,-1.0,56.0,12.0,1.0,-2.0,1.0,-1.0,0.43683338165283203
197,-33.0,-67.0,0.0,1.0,-11929.0,-9974.0,5143.0,-479.0,-3.0,5.0,1.0,-5.0,12.0,-1.0,-1.0,0.0,0.4397115707397461
198,-81.0,-34.0,13.0,1.0,-11935.0,-9964.0,5148.0,-472.0,-3.0,5.0,1.0,-5.0,12.0,-1.0,-1.0,0.0,0.46015143394470215
199,-81.0,-34.0,13.0,1.0,-11935.0,-9964.0,5148.0,-472.0,-6.0,-7.0,1.0,-7.0,-13.0,-7.0,-1.0,-5.0,0.46525073051452637
200,-81.0,-34.0,13.0,1.0,-11935.0,-9964.0,5148.0,-472.0,-2.0,11.0,50.0,7.0,12.0,-14.0,-2.0,-4.0,0.4690518379211426
201,2.0,-21.0,20.0,1.0,-11933.0,-9966.0,5149.0,-468.0,-2.0,11.0,50.0,7.0,12.0,-14.0,-2.0,-4.0,0.4722576141357422
202,2.0,-21.0,20.0,1.0,-11933.0,-9966.0,5149.0,-468.0,4.0,4.0,-18.0,3.0,38.0,12.0,1.0,1.0,0.47408390045166016
203,2.0,-21.0,20.0,1.0,-11933.0,-9966.0,5149.0,-468.0,2.0,23.0,70.0,-3.0,4.0,-11.0,-5.0,1.0,0.4783785343170166
204,48.0,-20.0,14.0,1.0,-11923.0,-9976.0,5153.0,-468.0,2.0,23.0,70.0,-3.0,4.0,-11.0,-5.0,1.0,0.4948904514312744
205,48.0,-20.0,14.0,1.0,-11923.0,-9976.0,5153.0,-468.0,5.0,27.0,15.0,1.0,-5.0,12.0,0.0,-3.0,0.49808740615844727
206,48.0,-20.0,14.0,1.0,-11923.0,-9976.0,5153.0,-468.0,-1.0,-8.0,-39.0,-1.0,28.0,1.0,1.0,2.0,0.5012681484222412
207,35.0,-12.0,18.0,1.0,-11915.0,-9984.0,5157.0,-470.0,-1.0,-8.0,-39.0,-1.0,28.0,1.0,1.0,2.0,0.51979660987854
208,35.0,-12.0,18.0,1.0,-11915.0,-9984.0,5157.0,-470.0,4.0,3.0,-44.0,-8.0,-41.0,-5.0,-1.0,1.0,0.5237345695495605
209,35.0,-12.0,18.0,1.0,-11915.0,-9984.0,5157.0,-470.0,-3.0,-9.0,-43.0,-20.0,-12.0,0.0,2.0,-4.0,0.5274550914764404
210,-25.0,4.0,1.0,1.0,-11913.0,-9985.0,5159.0,-469.0,-3.0,-9.0,-43.0,-20.0,-12.0,0.0,2.0,-4.0,0.531937837600708
211,-25.0,4.0,1.0,1.0,-11913.0,-9985.0,5159.0,-469.0,-1.0,11.0,0.0,-11.0,1.0,-1.0,-2.0,-7.0,0.533890962600708
212,-25.0,4.0,1.0,1.0,-11913.0,-9985.0,5159.0,-469.0,-1.0,-2.0,31.0,9.0,-2.0,-6.0,-6.0,1.0,0.5384383201599121
213,-18.0,2.0,-1.0,1.0,-11912.0,-9984.0,5162.0,-470.0,-1.0,-2.0,31.0,9.0,-2.0,-6.0,-6.0,1.0,0.5548028945922852
214,-18.0,2.0,-1.0,1.0,-11912.0,-9984.0,5162.0,-470.0,-1.0,-13.0,-22.0,4.0,7.0,-3.0,-1.0,0.0,0.5570054054260254
215,-18.0,2.0,-1.0,1.0,-11912.0,-9984.0,5162.0,-470.0,6.0,24.0,35.0,-7.0,16.0,9.0,-2.0,3.0,0.5601322650909424
216,41.0,5.0,6.0,1.0,-11909.0,-9988.0,5163.0,-476.0,6.0,24.0,35.0,-7.0,16.0,9.0,-2.0,3.0,0.5793123245239258
217,41.0,5.0,6.0,1.0,-11909.0,-9988.0,5163.0,-476.0,-2.0,-11.0,-24.0,-6.0,1.0,-5.0,-2.0,1.0,0.5841708183288574
218,41.0,5.0,6.0,1.0,-11909.0,-9988.0,5163.0,-476.0,-3.0,-1.0,10.0,6.0,17.0,4.0,2.0,-5.0,0.5881800651550293
219,41.0,25.0,2.0,1.0,-11904.0,-9994.0,5161.0,-482.0,-3.0,-1.0,10.0,6.0,17.0,4.0,2.0,-5.0,0.5921850204467773
220,41.0,25.0,2.0,1.0,-11904.0,-9994.0,5161.0,-482.0,-7.0,0.0,9.0,3.0,17.0,-3.0,1.0,1.0,0.5940437316894531
221,41.0,25.0,2.0,1.0,-11904.0,-9994.0,5161.0,-482.0,4.0,-5.0,-22.0,-14.0,-16.0,4.0,2.0,2.0,0.5983998775482178
222,-5.0,35.0,-2.0,1.0,-11906.0,-9992.0,5158.0,-487.0,4.0,-5.0,-22.0,-14.0,-16.0,4.0,2.0,2.0,0.6153738498687744
223,-5.0,35.0,-2.0,1.0,-11906.0,-9992.0,5158.0,-487.0,-5.0,3.0,35.0,15.0,52.0,0.0,-4.0,-1.0,0.6172575950622559
224,-5.0,35.0,-2.0,1.0,-11906.0,-9992.0,5158.0,-487.0,1.0,-10.0,-22.0,2.0,-13.0,-11.0,-6.0,-2.0,0.6190166473388672
225,1.0,29.0,10.0,1.0,-11907.0,-9992.0,5156.0,-492.0,1.0,-10.0,-22.0,2.0,-13.0,-11.0,-6.0,-2.0,0.6382043361663818
226,1.0,29.0,10.0,1.0,-11907.0,-9992.0,5156.0,-492.0,-3.0,-21.0,-20.0,-2.0,-11.0,10.0,3.0,1.0,0.6430826187133789
227,1.0,29.0,10.0,1.0,-11907.0,-9992.0,5156.0,-492.0,-5.0,-34.0,-51.0,-2.0,-13.0,-6.0,-1.0,-2.0,0.6480650901794434
228,-17.0,28.0,7.0,1.0,-11911.0,-9990.0,5151.0,-493.0,-5.0,-34.0,-51.0,-2.0,-13.0,-6.0,-1.0,-2.0,0.6508393287658691
229,-17.0,28.0,7.0,1.0,-11911.0,-9990.0,5151.0,-493.0,-6.0,-28.0,-24.0,-1.0,-8.0,-12.0,-4.0,-2.0,0.6597776412963867
230,-17.0,28.0,7.0,1.0,-11911.0,-9990.0,5151.0,-493.0,1.0,2.0,5.0,-7.0,13.0,2.0,-2.0,-2.0,0.6616251468658447
231,-44.0,30.0,28.0,1.0,-11916.0,-9984.0,5151.0,-497.0,1.0,2.0,5.0,-7.0,13.0,2.0,-2.0,-2.0,0.67500901222229
232,-44.0,30.0,28.0,1.0,-11916.0,-9984.0,5151.0,-497.0,-1.0,-10.0,-35.0,-10.0,15.0,8.0,2.0,-2.0,0.6768767833709717
233,-44.0,30.0,28.0,1.0,-11916.0,-9984.0,5151.0,-497.0,-5.0,-10.0,-34.0,4.0,14.0,1.0,4.0,0.0,0.679671049118042
234,21.0,23.0,20.0,1.0,-11912.0,-9989.0,5150.0,-502.0,-5.0,-10.0,-34.0,4.0,14.0,1.0,4.0,0.0,0.6978888511657715
235,21.0,23.0,20.0,1.0,-11912.0,-9989.0,5150.0,-502.0,4.0,8.0,-57.0,-3.0,-24.0,6.0,2.0,2.0,0.7009670734405518
236,21.0,23.0,20.0,1.0,-11912.0,-9989.0,5150.0,-502.0,2.0,5.0,8.0,-2.0,-5.0,1.0,-2.0,1.0,0.7046587467193604
237,40.0,0.0,12.0,1.0,-11904.0,-9997.0,5152.0,-505.0,2.0,5.0,8.0,-2.0,-5.0,1.0,-2.0,1.0,0.7120819091796875
238,40.0,0.0,12.0,1.0,-11904.0,-9997.0,5152.0,-505.0,-2.0,-8.0,14.0,-1.0,-20.0,-14.0,-5.0,0.0,0.7195084095001221
239,40.0,0.0,12.0,1.0,-11904.0,-9997.0,5152.0,-505.0,-1.0,4.0,15.0,8.0,-18.0,0.0,1.0,-3.0,0.7213230133056641
240,8.0,19.0,25.0,1.0,-11903.0,-9998.0,5153.0,-511.0,-1.0,4.0,15.0,8.0,-18.0,0.0,1.0,-3.0,0.7355737686157227
241,8.0,19.0,25.0,1.0,-11903.0,-9998.0,5153.0,-511.0,-3.0,5.0,33.0,-1.0,-5.0,6.0,-4.0,0.0,0.7384731769561768
242,8.0,19.0,25.0,1.0,-11903.0,-9998.0,5153.0,-511.0,3.0,-5.0,5.0,-1.0,-9.0,-2.0,0.0,-5.0,0.7414171695709229
243,-38.0,33.0,23.0,1.0,-11907.0,-9994.0,5150.0,-513.0,3.0,-5.0,5.0,-1.0,-9.0,-2.0,0.0,-5.0,0.7586483955383301
244,-38.0,33.0,23.0,1.0,-11907.0,-9994.0,5150.0,-513.0,-2.0,-3.0,16.0,7.0,-7.0,-4.0,2.0,7.0,0.7617685794830322
245,-38.0,33.0,23.0,1.0,-11907.0,-9994.0,5150.0,-513.0,5.0,22.0,16.0,-7.0,-22.0,-3.0,-2.0,-4.0,0.7640900611877441
246,-52.0,37.0,-4.0,1.0,-11912.0,-9992.0,5144.0,-511.0,5.0,22.0,16.0,-7.0,-22.0,-3.0,-2.0,-4.0,0.77128005027771
247,-52.0,37.0,-4.0,1.0,-11912.0,-9992.0,5144.0,-511.0,0.0,1.0,-3.0,-8.0,4.0,-1.0,2.0,0.0,0.7799956798553467
248,-52.0,37.0,-4.0,1.0,-11912.0,-9992.0,5144.0,-511.0,6.0,31.0,21.0,-8.0,20.0,-1.0,1.0,4.0,0.7818324565887451
249,-81.0,31.0,3.0,1.0,-11923.0,-9981.0,5139.0,-509.0,6.0,31.0,21.0,-8.0,20.0,-1.0,1.0,4.0,0.7955532073974609
250,-81.0,31.0,3.0,1.0,-11923.0,-9981.0,5139.0,-509.0,-2.0,-4.0,-7.0,-2.0,-8.0,-8.0,-5.0,-6.0,0.7988288402557373
251,-81.0,31.0,3.0,1.0,-11923.0,-9981.0,5139.0,-509.0,1.0,29.0,22.0,-3.0,6.0,15.0,2.0,1.0,0.8019976615905762
252,1.0,13.0,3.0,1.0,-11923.0,-9981.0,5140.0,-509.0,1.0,29.0,22.0,-3.0,6.0,15.0,2.0,1.0,0.8186519145965576
253,1.0,13.0,3.0,1.0,-11923.0,-9981.0,5140.0,-509.0,0.0,15.0,32.0,-2.0,-9.0,7.0,0.0,-2.0,0.82240891456604
254,1.0,13.0,3.0,1.0,-11923.0,-9981.0,5140.0,-509.0,-5.0,-27.0,-33.0,4.0,0.0,4.0,-3.0,1.0,0.8267436027526855
255,66.0,11.0,8.0,1.0,-11914.0,-9993.0,5138.0,-513.0,-5.0,-27.0,-33.0,4.0,0.0,4.0,-3.0,1.0,0.8314180374145508
256,66.0,11.0,8.0,1.0,-11914.0,-9993.0,5138.0,-513.0,0.0,-7.0,-6.0,8.0,10.0,-3.0,-2.0,0.0,0.8395459651947021
257,66.0,11.0,8.0,1.0,-11914.0,-9993.0,5138.0,-513.0,1.0,1.0,18.0,18.0,-12.0,-2.0,-1.0,-3.0,0.841463565826416
258,12.0,2.0,-8.0,1.0,-11913.0,-9993.0,5138.0,-513.0,1.0,1.0,18.0,18.0,-12.0,-2.0,-1.0,-3.0,0.854698896408081
259,12.0,2.0,-8.0,1.0,-11913.0,-9993.0,5138.0,-513.0,-3.0,-7.0,6.0,-1.0,-13.0,-10.0,6.0,5.0,0.8577604293823242
260,12.0,2.0,-8.0,1.0,-11913.0,-9993.0,5138.0,-513.0,-3.0,-7.0,6.0,-1.0,-13.0,-10.0,6.0,5.0,0.8610038757324219
261,12.0,2.0,-8.0,1.0,-11913.0,-9993.0,5138.0,-513.0,-9.0,-39.0,-47.0,2.0,-9.0,-24.0,-3.0,-8.0,0.8787486553192139
262,15.0,8.0,2.0,1.0,-11913.0,-9993.0,5139.0,-514.0,-9.0,-39.0,-47.0,2.0,-9.0,-24.0,-3.0,-8.0,0.8823771476745605
263,15.0,8.0,2.0,1.0,-11913.0,-9993.0,5139.0,-514.0,2.0,3.0,-13.0,1.0,-1.0,9.0,2.0,0.0,0.8861172199249268
264,15.0,8.0,2.0,1.0,-11913.0,-9993.0,5139.0,-514.0,-2.0,-4.0,-39.0,0.0,-19.0,17.0,4.0,4.0,0.8900678157806396
265,27.0,16.0,46.0,1.0,-11908.0,-9995.0,5145.0,-525.0,-2.0,-4.0,-39.0,0.0,-19.0,17.0,4.0,4.0,0.8920392990112305
266,27.0,16.0,46.0,1.0,-11908.0,-9995.0,5145.0,-525.0,-5.0,13.0,13.0,13.0,23.0,7.0,0.0,2.0,0.8993346691131592
267,27.0,16.0,46.0,1.0,-11908.0,-9995.0,5145.0,-525.0,0.0,17.0,54.0,31.0,-3.0,8.0,-4.0,-4.0,0.9011318683624268
268,87.0,60.0,67.0,1.0,-11898.0,-10007.0,5143.0,-543.0,0.0,17.0,54.0,31.0,-3.0,8.0,-4.0,-4.0,0.9156613349914551
269,87.0,60.0,67.0,1.0,-11898.0,-10007.0,5143.0,-543.0,-3.0,-21.0,7.0,-20.0,10.0,10.0,-3.0,-9.0,0.9187676906585693
270,87.0,60.0,67.0,1.0,-11898.0,-10007.0,5143.0,-543.0,1.0,10.0,29.0,-28.0,-13.0,-20.0,-10.0,-6.0,0.9224750995635986
271,43.0,19.0,73.0,1.0,-11897.0,-10005.0,5147.0,-557.0,1.0,10.0,29.0,-28.0,-13.0,-20.0,-10.0,-6.0,0.9381182193756104
272,43.0,19.0,73.0,1.0,-11897.0,-10005.0,5147.0,-557.0,8.0,2.0,-32.0,1.0,-9.0,-17.0,-6.0,-13.0,0.9414467811584473
273,43.0,19.0,73.0,1.0,-11897.0,-10005.0,5147.0,-557.0,-2.0,18.0,60.0,24.0,49.0,0.0,28.0,-8.0,0.9446346759796143
274,26.0,20.0,60.0,1.0,-11913.0,-9986.0,5147.0,-574.0,-2.0,18.0,60.0,24.0,49.0,0.0,28.0,-8.0,0.9527246952056885
275,26.0,20.0,60.0,1.0,-11913.0,-9986.0,5147.0,-574.0,-4.0,0.0,18.0,-54.0,-109.0,-7.0,-1.0,-5.0,0.9595458507537842
276,26.0,20.0,60.0,1.0,-11913.0,-9986.0,5147.0,-574.0,-9.0,-26.0,-16.0,-13.0,-99.0,-29.0,37.0,-61.0,0.9615647792816162
277,152.0,-41.0,-12.0,1.0,-11923.0,-9982.0,5131.0,-573.0,-9.0,-26.0,-16.0,-13.0,-99.0,-29.0,37.0,-61.0,0.9752368927001953
278,152.0,-41.0,-12.0,1.0,-11923.0,-9982.0,5131.0,-573.0,-5.0,-17.0,-22.0,-37.0,59.0,-33.0,5.0,-14.0,0.978085994720459
279,152.0,-41.0,-12.0,1.0,-11923.0,-9982.0,5131.0,-573.0,-2.0,-28.0,-18.0,-80.0,45.0,10.0,-31.0,20.0,0.9812536239624023
280,163.0,111.0,34.0,1.0,-11940.0,-9983.0,5087.0,-581.0,-2.0,-28.0,-18.0,-80.0,45.0,10.0,-31.0,20.0,0.9991586208343506
281,163.0,111.0,34.0,1.0,-11940.0,-9983.0,5087.0,-581.0,1.0,-3.0,6.0,6.0,14.0,35.0,-15.0,-4.0,1.0029618740081787
282,163.0,111.0,34.0,1.0,-11940.0,-9983.0,5087.0,-581.0,-3.0,-35.0,-11.0,125.0,33.0,-7.0,15.0,13.0,1.0065760612487793
283,25.0,243.0,111.0,1.0,-11982.0,-9964.0,5025.0,-596.0,-3.0,-35.0,-11.0,125.0,33.0,-7.0,15.0,13.0,1.0112659931182861
284,25.0,243.0,111.0,1.0,-11982.0,-9964.0,5025.0,-596.0,2.0,-16.0,-94.0,62.0,5.0,6.0,-80.0,17.0,1.0195815563201904
285,25.0,243.0,111.0,1.0,-11982.0,-9964.0,5025.0,-596.0,-8.0,-11.0,0.0,74.0,25.0,45.0,48.0,8.0,1.0214595794677734
286,-349.0,295.0,-1.0,1.0,-12070.0,-9887.0,4964.0,-603.0,-8.0,-11.0,0.0,74.0,25.0,45.0,48.0,8.0,1.0343139171600342
287,-349.0,295.0,-1.0,1.0,-12070.0,-9887.0,4964.0,-603.0,2.0,27.0,-25.0,10.0,-26.0,-12.0,24.0,15.0,1.0361921787261963
288,-349.0,295.0,-1.0,1.0,-12070.0,-9887.0,4964.0,-603.0,0.0,12.0,-3.0,-124.0,16.0,-21.0,-52.0,1.0,1.0412991046905518
289,-559.0,337.0,-423.0,1.0,-12186.0,-9793.0,4872.0,-567.0,0.0,12.0,-3.0,-124.0,16.0,-21.0,-52.0,1.0,1.0575740337371826
290,-559.0,337.0,-423.0,1.0,-12186.0,-9793.0,4872.0,-567.0,-7.0,-11.0,-44.0,-15.0,18.0,6.0,-19.0,-8.0,1.0609347820281982
291,-559.0,337.0,-423.0,1.0,-12186.0,-9793.0,4872.0,-567.0,1.0,13.0,63.0,75.0,12.0,-10.0,-5.0,12.0,1.0638868808746338
292,-742.0,367.0,-728.0,1.0,-12328.0,-9692.0,4726.0,-467.0,1.0,13.0,63.0,75.0,12.0,-10.0,-5.0,12.0,1.0808842182159424
293,-742.0,367.0,-728.0,1.0,-12328.0,-9692.0,4726.0,-467.0,12.0,23.0,18.0,32.0,32.0,4.0,32.0,12.0,1.082913875579834
294,-742.0,367.0,-728.0,1.0,-12328.0,-9692.0,4726.0,-467.0,-16.0,-66.0,-76.0,38.0,7.0,37.0,-28.0,-1.0,1.0846943855285645
295,-954.0,560.0,-832.0,1.0,-12504.0,-9575.0,4508.0,-332.0,-16.0,-66.0,-76.0,38.0,7.0,37.0,-28.0,-1.0,1.0960724353790283
296,-954.0,560.0,-832.0,1.0,-12504.0,-9575.0,4508.0,-332.0,-2.0,-7.0,36.0,-50.0,20.0,-9.0,46.0,-6.0,1.0986809730529785
297,-954.0,560.0,-832.0,1.0,-12504.0,-9575.0,4508.0,-332.0,0.0,10.0,-81.0,-51.0,-24.0,-16.0,-16.0,-9.0,1.1004610061645508
298,-1260.0,714.0,-899.0,1.0,-12718.0,-9412.0,4253.0,-183.0,0.0,10.0,-81.0,-51.0,-24.0,-16.0,-16.0,-9.0,1.1175851821899414
299,-1260.0,714.0,-899.0,1.0,-12718.0,-9412.0,4253.0,-183.0,4.0,8.0,39.0,1.0,-36.0,3.0,43.0,5.0,1.119462490081787
300,-1260.0,714.0,-899.0,1.0,-12718.0,-9412.0,4253.0,-183.0,1.0,8.0,-62.0,-106.0,25.0,-16.0,3.0,10.0,1.1212353706359863
301,-1711.0,863.0,-1001.0,1.0,-12941.0,-9209.0,4022.0,-48.0,1.0,8.0,-62.0,-106.0,25.0,-16.0,3.0,10.0,1.1399908065795898
302,-1711.0,863.0,-1001.0,1.0,-12941.0,-9209.0,4022.0,-48.0,10.0,26.0,56.0,37.0,6.0,4.0,-17.0,-4.0,1.1419003009796143
303,-1711.0,863.0,-1001.0,1.0,-12941.0,-9209.0,4022.0,-48.0,14.0,70.0,30.0,-16.0,-71.0,-35.0,-18.0,19.0,1.143662929534912
304,-2229.0,895.0,-1234.0,1.0,-13206.0,-8936.0,3767.0,135.0,14.0,70.0,30.0,-16.0,-71.0,-35.0,-18.0,19.0,1.1543982028961182
305,-2229.0,895.0,-1234.0,1.0,-13206.0,-8936.0,3767.0,135.0,-17.0,-26.0,-72.0,10.0,9.0,-14.0,-18.0,-11.0,1.156306505203247
306,-2229.0,895.0,-1234.0,1.0,-13206.0,-8936.0,3767.0,135.0,5.0,29.0,77.0,-18.0,13.0,-18.0,-83.0,-6.0,1.1611073017120361
307,-2289.0,1025.0,-1488.0,1.0,-13465.0,-8661.0,3469.0,342.0,5.0,29.0,77.0,-18.0,13.0,-18.0,-83.0,-6.0,1.1790242195129395
308,-2289.0,1025.0,-1488.0,1.0,-13465.0,-8661.0,3469.0,342.0,2.0,11.0,16.0,-16.0,-12.0,19.0,2.0,12.0,1.1816513538360596
309,-2289.0,1025.0,-1488.0,1.0,-13465.0,-8661.0,3469.0,342.0,4.0,10.0,-9.0,27.0,-1.0,14.0,9.0,-24.0,1.1834182739257812
310,-2639.0,1191.0,-1699.0,1.0,-13745.0,-8334.0,3124.0,576.0,4.0,10.0,-9.0,27.0,-1.0,14.0,9.0,-24.0,1.2006592750549316
311,-2639.0,1191.0,-1699.0,1.0,-13745.0,-8334.0,3124.0,576.0,-5.0,-14.0,32.0,47.0,-25.0,-2.0,-5.0,-9.0,1.2039811611175537
312,-2639.0,1191.0,-1699.0,1.0,-13745.0,-8334.0,3124.0,576.0,1.0,-12.0,-49.0,-9.0,-35.0,3.0,33.0,12.0,1.2071120738983154
313,-3129.0,1413.0,-1784.0,1.0,-14052.0,-7929.0,2731.0,820.0,1.0,-12.0,-49.0,-9.0,-35.0,3.0,33.0,12.0,1.2147369384765625
314,-3129.0,1413.0,-1784.0,1.0,-14052.0,-7929.0,2731.0,820.0,6.0,34.0,26.0,-46.0,3.0,-9.0,-7.0,6.0,1.2216691970825195
315,-3129.0,1413.0,-1784.0,1.0,-14052.0,-7929.0,2731.0,820.0,-5.0,-27.0,7.0,-45.0,17.0,47.0,22.0,-10.0,1.2234318256378174
316,-3597.0,1717.0,-1693.0,1.0,-14376.0,-7446.0,2295.0,1033.0,-5.0,-27.0,7.0,-45.0,17.0,47.0,22.0,-10.0,1.2381749153137207
317,-3597.0,1717.0,-1693.0,1.0,-14376.0,-7446.0,2295.0,1033.0,-11.0,-38.0,-26.0,69.0,33.0,0.0,-7.0,-6.0,1.2414491176605225
318,-3597.0,1717.0,-1693.0,1.0,-14376.0,-7446.0,2295.0,1033.0,15.0,36.0,62.0,17.0,6.0,3.0,4.0,5.0,1.2445874214172363
319,-3916.0,1900.0,-1545.0,1.0,-14694.0,-6906.0,1839.0,1213.0,15.0,36.0,62.0,17.0,6.0,3.0,4.0,5.0,1.262653112411499
320,-3916.0,1900.0,-1545.0,1.0,-14694.0,-6906.0,1839.0,1213.0,-2.0,17.0,17.0,-30.0,-13.0,16.0,-39.0,-19.0,1.2664175033569336
321,-3916.0,1900.0,-1545.0,1.0,-14694.0,-6906.0,1839.0,1213.0,-15.0,-50.0,-43.0,49.0,-6.0,-7.0,-12.0,-1.0,1.2695491313934326
322,-4111.0,2057.0,-1506.0,1.0,-14994.0,-6317.0,1362.0,1371.0,-15.0,-50.0,-43.0,49.0,-6.0,-7.0,-12.0,-1.0,1.2739715576171875
323,-4111.0,2057.0,-1506.0,1.0,-14994.0,-6317.0,1362.0,1371.0,2.0,-20.0,-56.0,5.0,-13.0,0.0,6.0,9.0,1.2817256450653076
324,-4111.0,2057.0,-1506.0,1.0,-14994.0,-6317.0,1362.0,1371.0,-16.0,-47.0,-40.0,-5.0,-12.0,-17.0,-34.0,-10.0,1.2834954261779785
325,-4040.0,2151.0,-1396.0,1.0,-15254.0,-5722.0,878.0,1500.0,-16.0,-47.0,-40.0,-5.0,-12.0,-17.0,-34.0,-10.0,1.2991750240325928
326,-4040.0,2151.0,-1396.0,1.0,-15254.0,-5722.0,878.0,1500.0,4.0,18.0,52.0,-5.0,4.0,-7.0,6.0,-3.0,1.3024866580963135
327,-4040.0,2151.0,-1396.0,1.0,-15254.0,-5722.0,878.0,1500.0,10.0,56.0,35.0,-3.0,-29.0,-5.0,20.0,9.0,1.3056182861328125
328,-4017.0,2273.0,-1393.0,1.0,-15473.0,-5127.0,379.0,1615.0,10.0,56.0,35.0,-3.0,-29.0,-5.0,20.0,9.0,1.3199307918548584
329,-4017.0,2273.0,-1393.0,1.0,-15473.0,-5127.0,379.0,1615.0,15.0,41.0,21.0,8.0,-5.0,-5.0,16.0,14.0,1.3238937854766846
330,-4017.0,2273.0,-1393.0,1.0,-15473.0,-5127.0,379.0,1615.0,5.0,10.0,-38.0,17.0,26.0,0.0,2.0,-4.0,1.327693223953247
331,-4077.0,2573.0,-1533.0,1.0,-15652.0,-4520.0,-178.0,1733.0,5.0,10.0,-38.0,17.0,26.0,0.0,2.0,-4.0,1.3339507579803467
332,-4077.0,2573.0,-1533.0,1.0,-15652.0,-4520.0,-178.0,1733.0,10.0,32.0,-54.0,4.0,15.0,-25.0,11.0,11.0,1.3420395851135254
333,-4077.0,2573.0,-1533.0,1.0,-15652.0,-4520.0,-178.0,1733.0,3.0,-19.0,-20.0,4.0,18.0,-24.0,-12.0,6.0,1.3438448905944824
334,-4206.0,2899.0,-1640.0,1.0,-15790.0,-3883.0,-803.0,1849.0,3.0,-19.0,-20.0,4.0,18.0,-24.0,-12.0,6.0,1.358278751373291
335,-4206.0,2899.0,-1640.0,1.0,-15790.0,-3883.0,-803.0,1849.0,-17.0,-49.0,-32.0,-22.0,-11.0,2.0,2.0,-16.0,1.3619492053985596
336,-4206.0,2899.0,-1640.0,1.0,-15790.0,-3883.0,-803.0,1849.0,-8.0,-14.0,-37.0,21.0,0.0,-2.0,16.0,8.0,1.3656792640686035
337,-3908.0,3033.0,-1846.0,1.0,-15863.0,-3274.0,-1457.0,1993.0,-8.0,-14.0,-37.0,21.0,0.0,-2.0,16.0,8.0,1.3808529376983643
338,-3908.0,3033.0,-1846.0,1.0,-15863.0,-3274.0,-1457.0,1993.0,-5.0,-13.0,-28.0,8.0,-2.0,1.0,-2.0,5.0,1.3844163417816162
339,-3908.0,3033.0,-1846.0,1.0,-15863.0,-3274.0,-1457.0,1993.0,-5.0,-2.0,-4.0,4.0,12.0,7.0,62.0,1.0,1.3879904747009277
340,-3327.0,3157.0,-2025.0,1.0,-15862.0,-2755.0,-2131.0,2169.0,-5.0,-2.0,-4.0,4.0,12.0,7.0,62.0,1.0,1.3934929370880127
341,-3327.0,3157.0,-2025.0,1.0,-15862.0,-2755.0,-2131.0,2169.0,-10.0,-4.0,18.0,-10.0,-8.0,9.0,-41.0,-14.0,1.4028327465057373
342,-3327.0,3157.0,-2025.0,1.0,-15862.0,-2755.0,-2131.0,2169.0,8.0,28.0,25.0,7.0,10.0,11.0,-24.0,13.0,1.4061944484710693
343,-3279.0,3421.0,-2143.0,1.0,-15805.0,-2243.0,-2847.0,2350.0,8.0,28.0,25.0,7.0,10.0,11.0,-24.0,13.0,1.4263834953308105
344,-3279.0,3421.0,-2143.0,1.0,-15805.0,-2243.0,-2847.0,2350.0,10.0,-11.0,29.0,9.0,7.0,-5.0,37.0,10.0,1.431494951248169
345,-3279.0,3421.0,-2143.0,1.0,-15805.0,-2243.0,-2847.0,2350.0,6.0,25.0,27.0,-20.0,-3.0,0.0,25.0,-10.0,1.4354467391967773
346,-3483.0,3894.0,-2309.0,1.0,-15681.0,-1693.0,-3643.0,2533.0,6.0,25.0,27.0,-20.0,-3.0,0.0,25.0,-10.0,1.4401311874389648
347,-3483.0,3894.0,-2309.0,1.0,-15681.0,-1693.0,-3643.0,2533.0,-21.0,-33.0,13.0,-9.0,-24.0,3.0,28.0,-20.0,1.4423527717590332
348,-3483.0,3894.0,-2309.0,1.0,-15681.0,-1693.0,-3643.0,2533.0,-9.0,-31.0,2.0,0.0,-11.0,5.0,-14.0,-9.0,1.4442756175994873
349,-3725.0,4216.0,-2300.0,1.0,-15488.0,-1086.0,-4491.0,2692.0,-9.0,-31.0,2.0,0.0,-11.0,5.0,-14.0,-9.0,1.453462839126587
350,-3725.0,4216.0,-2300.0,1.0,-15488.0,-1086.0,-4491.0,2692.0,3.0,-6.0,8.0,12.0,14.0,35.0,-3.0,3.0,1.4701342582702637
351,-3725.0,4216.0,-2300.0,1.0,-15488.0,-1086.0,-4491.0,2692.0,0.0,-15.0,6.0,-1.0,20.0,15.0,-3.0,4.0,1.4734838008880615
352,-3022.0,4317.0,-2268.0,1.0,-15213.0,-592.0,-5332.0,2869.0,0.0,-15.0,6.0,-1.0,20.0,15.0,-3.0,4.0,1.4797654151916504
353,-3022.0,4317.0,-2268.0,1.0,-15213.0,-592.0,-5332.0,2869.0,-3.0,-8.0,-2.0,-6.0,-13.0,-26.0,-5.0,-4.0,1.48264741897583
354,-3022.0,4317.0,-2268.0,1.0,-15213.0,-592.0,-5332.0,2869.0,5.0,19.0,1.0,18.0,-20.0,22.0,-33.0,-8.0,1.4844281673431396
355,-1917.0,4607.0,-2519.0,1.0,-14838.0,-246.0,-6190.0,3148.0,5.0,19.0,1.0,18.0,-20.0,22.0,-33.0,-8.0,1.500067949295044
356,-1917.0,4607.0,-2519.0,1.0,-14838.0,-246.0,-6190.0,3148.0,8.0,16.0,-7.0,-5.0,39.0,-24.0,19.0,8.0,1.5031077861785889
357,-1917.0,4607.0,-2519.0,1.0,-14838.0,-246.0,-6190.0,3148.0,-1.0,-19.0,68.0,3.0,36.0,36.0,2.0,5.0,1.5060629844665527
358,-477.0,4468.0,-2365.0,1.0,-14413.0,-132.0,-6966.0,3491.0,-1.0,-19.0,68.0,3.0,36.0,36.0,2.0,5.0,1.514620065689087
359,-477.0,4468.0,-2365.0,1.0,-14413.0,-132.0,-6966.0,3491.0,-2.0,1.0,112.0,8.0,3.0,-21.0,-7.0,7.0,1.522002935409546
360,-477.0,4468.0,-2365.0,1.0,-14413.0,-132.0,-6966.0,3491.0,-3.0,6.0,44.0,0.0,12.0,-23.0,1.0,-2.0,1.5237975120544434
361,634.0,3797.0,-2593.0,1.0,-13978.0,-144.0,-7581.0,3948.0,-3.0,6.0,44.0,0.0,12.0,-23.0,1.0,-2.0,1.5374276638031006
362,634.0,3797.0,-2593.0,1.0,-13978.0,-144.0,-7581.0,3948.0,2.0,6.0,14.0,3.0,-2.0,4.0,-2.0,3.0,1.541194200515747
363,634.0,3797.0,-2593.0,1.0,-13978.0,-144.0,-7581.0,3948.0,0.0,13.0,23.0,19.0,-19.0,-24.0,-19.0,-4.0,1.5441772937774658
364,1016.0,3158.0,-2663.0,1.0,-13557.0,-177.0,-8057.0,4442.0,0.0,13.0,23.0,19.0,-19.0,-24.0,-19.0,-4.0,1.5600557327270508
365,1016.0,3158.0,-2663.0,1.0,-13557.0,-177.0,-8057.0,4442.0,1.0,-2.0,10.0,9.0,27.0,-5.0,-14.0,-1.0,1.5619359016418457
366,1016.0,3158.0,-2663.0,1.0,-13557.0,-177.0,-8057.0,4442.0,-13.0,-22.0,-45.0,-23.0,-13.0,-77.0,4.0,-2.0,1.5636999607086182
367,743.0,2455.0,-2512.0,1.0,-13176.0,-146.0,-8424.0,4884.0,-13.0,-22.0,-45.0,-23.0,-13.0,-77.0,4.0,-2.0,1.5735466480255127
368,743.0,2455.0,-2512.0,1.0,-13176.0,-146.0,-8424.0,4884.0,7.0,9.0,-15.0,38.0,-28.0,-25.0,-33.0,0.0,1.5822978019714355
369,743.0,2455.0,-2512.0,1.0,-13176.0,-146.0,-8424.0,4884.0,3.0,18.0,1.0,-13.0,29.0,54.0,38.0,14.0,1.5841023921966553
370,420.0,1440.0,-2219.0,1.0,-12920.0,-79.0,-8608.0,5237.0,3.0,18.0,1.0,-13.0,29.0,54.0,38.0,14.0,1.5972521305084229
371,420.0,1440.0,-2219.0,1.0,-12920.0,-79.0,-8608.0,5237.0,10.0,30.0,-23.0,4.0,-5.0,54.0,7.0,-3.0,1.599663257598877
372,420.0,1440.0,-2219.0,1.0,-12920.0,-79.0,-8608.0,5237.0,1.0,-22.0,-45.0,-5.0,36.0,11.0,-9.0,1.0,1.6020019054412842
373,730.0,657.0,-1388.0,1.0,-12776.0,-90.0,-8659.0,5500.0,1.0,-22.0,-45.0,-5.0,36.0,11.0,-9.0,1.0,1.6200602054595947
374,730.0,657.0,-1388.0,1.0,-12776.0,-90.0,-8659.0,5500.0,-7.0,-14.0,-44.0,-6.0,18.0,110.0,8.0,-4.0,1.6232695579528809
375,730.0,657.0,-1388.0,1.0,-12776.0,-90.0,-8659.0,5500.0,2.0,26.0,-5.0,-22.0,60.0,18.0,9.0,2.0,1.6266767978668213
376,1044.0,62.0,-381.0,1.0,-12745.0,-203.0,-8605.0,5651.0,2.0,26.0,-5.0,-22.0,60.0,18.0,9.0,2.0,1.6340532302856445
377,1044.0,62.0,-381.0,1.0,-12745.0,-203.0,-8605.0,5651.0,-6.0,-16.0,-55.0,-41.0,33.0,-44.0,-2.0,3.0,1.6418285369873047
378,1044.0,62.0,-381.0,1.0,-12745.0,-203.0,-8605.0,5651.0,35.0,76.0,0.0,53.0,24.0,0.0,48.0,23.0,1.6436057090759277
379,1119.0,-510.0,686.0,1.0,-12724.0,-257.0,-8598.0,5707.0,35.0,76.0,0.0,53.0,24.0,0.0,48.0,23.0,1.6590001583099365
380,1119.0,-510.0,686.0,1.0,-12724.0,-257.0,-8598.0,5707.0,-7.0,-9.0,7.0,31.0,-51.0,-87.0,0.0,-4.0,1.662989616394043
381,1119.0,-510.0,686.0,1.0,-12724.0,-257.0,-8598.0,5707.0,1.0,-7.0,69.0,105.0,-86.0,3.0,-30.0,-12.0,1.6660394668579102
382,1727.0,-963.0,1756.0,1.0,-12885.0,-567.0,-8386.0,5637.0,1.0,-7.0,69.0,105.0,-86.0,3.0,-30.0,-12.0,1.6810572147369385
383,1727.0,-963.0,1756.0,1.0,-12885.0,-567.0,-8386.0,5637.0,21.0,28.0,-12.0,5.0,-47.0,53.0,14.0,7.0,1.6878113746643066
384,1727.0,-963.0,1756.0,1.0,-12885.0,-567.0,-8386.0,5637.0,-30.0,-50.0,-87.0,-11.0,18.0,-64.0,25.0,-12.0,1.6911535263061523
385,2311.0,-1237.0,2578.0,1.0,-13108.0,-1022.0,-8083.0,5500.0,-30.0,-50.0,-87.0,-11.0,18.0,-64.0,25.0,-12.0,1.7027618885040283
386,2311.0,-1237.0,2578.0,1.0,-13108.0,-1022.0,-8083.0,5500.0,-5.0,-16.0,-43.0,-35.0,44.0,-87.0,-51.0,-12.0,1.7049295902252197
387,2311.0,-1237.0,2578.0,1.0,-13108.0,-1022.0,-8083.0,5500.0,3.0,-25.0,-38.0,-66.0,-61.0,53.0,33.0,15.0,1.7095489501953125
388,2294.0,-1508.0,3136.0,1.0,-13370.0,-1506.0,-7719.0,5277.0,3.0,-25.0,-38.0,-66.0,-61.0,53.0,33.0,15.0,1.7173454761505127
389,2294.0,-1508.0,3136.0,1.0,-13370.0,-1506.0,-7719.0,5277.0,-27.0,-7.0,63.0,12.0,0.0,-27.0,-5.0,-12.0,1.7192749977111816
390,2294.0,-1508.0,3136.0,1.0,-13370.0,-1506.0,-7719.0,5277.0,16.0,3.0,-22.0,-26.0,-16.0,60.0,-6.0,11.0,1.7238667011260986
391,2460.0,-1769.0,3015.0,1.0,-13624.0,-1990.0,-7285.0,5079.0,16.0,3.0,-22.0,-26.0,-16.0,60.0,-6.0,11.0,1.7413253784179688
392,2460.0,-1769.0,3015.0,1.0,-13624.0,-1990.0,-7285.0,5079.0,-1.0,-30.0,-21.0,-24.0,-61.0,34.0,-9.0,-2.0,1.7453510761260986
393,2460.0,-1769.0,3015.0,1.0,-13624.0,-1990.0,-7285.0,5079.0,-10.0,-7.0,16.0,-34.0,-24.0,-8.0,-6.0,-11.0,1.7501840591430664
394,3489.0,-2176.0,3177.0,1.0,-13868.0,-2635.0,-6704.0,4925.0,-10.0,-7.0,16.0,-34.0,-24.0,-8.0,-6.0,-11.0,1.7538478374481201
395,3489.0,-2176.0,3177.0,1.0,-13868.0,-2635.0,-6704.0,4925.0,2.0,-12.0,-35.0,-4.0,-21.0,26.0,16.0,4.0,1.761941909790039
396,3489.0,-2176.0,3177.0,1.0,-13868.0,-2635.0,-6704.0,4925.0,5.0,-1.0,-21.0,-18.0,-6.0,15.0,1.0,-5.0,1.7644476890563965
397,3954.0,-2229.0,3456.0,1.0,-14076.0,-3381.0,-6039.0,4736.0,5.0,-1.0,-21.0,-18.0,-6.0,15.0,1.0,-5.0,1.7873029708862305
398,3954.0,-2229.0,3456.0,1.0,-14076.0,-3381.0,-6039.0,4736.0,5.0,15.0,7.0,2.0,-13.0,36.0,-12.0,-1.0,1.7908973693847656
399,3954.0,-2229.0,3456.0,1.0,-14076.0,-3381.0,-6039.0,4736.0,-8.0,-6.0,0.0,-17.0,-85.0,-109.0,66.0,-8.0,1.7943115234375
400,4519.0,-2211.0,4227.0,1.0,-14243.0,-4267.0,-5267.0,4433.0,-8.0,-6.0,0.0,-17.0,-85.0,-109.0,66.0,-8.0,1.8014516830444336
401,4519.0,-2211.0,4227.0,1.0,-14243.0,-4267.0,-5267.0,4433.0,-7.0,-7.0,-16.0,-19.0,-110.0,-68.0,2.0,-8.0,1.8036141395568848
402,4519.0,-2211.0,4227.0,1.0,-14243.0,-4267.0,-5267.0,4433.0,-12.0,-2.0,2.0,6.0,60.0,-61.0,-67.0,-29.0,1.805429458618164
403,4640.0,-1928.0,5417.0,1.0,-14353.0,-5189.0,-4476.0,3935.0,-12.0,-2.0,2.0,6.0,60.0,-61.0,-67.0,-29.0,1.813518762588501
404,4640.0,-1928.0,5417.0,1.0,-14353.0,-5189.0,-4476.0,3935.0,-13.0,-11.0,-35.0,-53.0,127.0,-117.0,-47.0,-63.0,1.8216443061828613
405,4640.0,-1928.0,5417.0,1.0,-14353.0,-5189.0,-4476.0,3935.0,-25.0,0.0,3.0,30.0,56.0,75.0,-62.0,-34.0,1.8234260082244873
406,3883.0,-1525.0,6517.0,1.0,-14436.0,-6028.0,-3689.0,3179.0,-25.0,0.0,3.0,30.0,56.0,75.0,-62.0,-34.0,1.8370919227600098
407,3883.0,-1525.0,6517.0,1.0,-14436.0,-6028.0,-3689.0,3179.0,90.0,18.0,32.0,34.0,-49.0,127.0,-69.0,76.0,1.8406543731689453
408,3883.0,-1525.0,6517.0,1.0,-14436.0,-6028.0,-3689.0,3179.0,-61.0,-7.0,-24.0,5.0,-98.0,17.0,-79.0,-12.0,1.8444509506225586
409,2816.0,-1666.0,6842.0,1.0,-14506.0,-6666.0,-2869.0,2317.0,-61.0,-7.0,-24.0,5.0,-98.0,17.0,-79.0,-12.0,1.8610765933990479
410,2816.0,-1666.0,6842.0,1.0,-14506.0,-6666.0,-2869.0,2317.0,80.0,7.0,23.0,83.0,87.0,115.0,44.0,78.0,1.8644764423370361
411,2816.0,-1666.0,6842.0,1.0,-14506.0,-6666.0,-2869.0,2317.0,-85.0,-19.0,17.0,25.0,-45.0,54.0,0.0,-34.0,1.8663222789764404
412,4585.0,-1183.0,7250.0,1.0,-14329.0,-7555.0,-2030.0,1393.0,-85.0,-19.0,17.0,25.0,-45.0,54.0,0.0,-34.0,1.8733651638031006
413,4585.0,-1183.0,7250.0,1.0,-14329.0,-7555.0,-2030.0,1393.0,-95.0,1.0,-33.0,-3.0,95.0,50.0,127.0,-45.0,1.881775140762329
414,4585.0,-1183.0,7250.0,1.0,-14329.0,-7555.0,-2030.0,1393.0,58.0,60.0,57.0,-64.0,-40.0,-102.0,6.0,10.0,1.8837776184082031
415,5312.0,-462.0,6579.0,1.0,-13942.0,-8488.0,-1329.0,518.0,58.0,60.0,57.0,-64.0,-40.0,-102.0,6.0,10.0,1.8994834423065186
416,5312.0,-462.0,6579.0,1.0,-13942.0,-8488.0,-1329.0,518.0,70.0,85.0,62.0,11.0,54.0,5.0,55.0,6.0,1.9032506942749023
417,5312.0,-462.0,6579.0,1.0,-13942.0,-8488.0,-1329.0,518.0,33.0,63.0,81.0,2.0,127.0,-66.0,-94.0,-14.0,1.9066224098205566
418,2728.0,369.0,5172.0,1.0,-13685.0,-8962.0,-889.0,-263.0,33.0,63.0,81.0,2.0,127.0,-66.0,-94.0,-14.0,1.9201242923736572
419,2728.0,369.0,5172.0,1.0,-13685.0,-8962.0,-889.0,-263.0,-43.0,-35.0,62.0,-10.0,-72.0,-37.0,-128.0,-6.0,1.9238605499267578
420,2728.0,369.0,5172.0,1.0,-13685.0,-8962.0,-889.0,-263.0,14.0,-57.0,48.0,-78.0,-85.0,-49.0,-29.0,-2.0,1.9277195930480957
421,2934.0,1150.0,2060.0,1.0,-13370.0,-9409.0,-867.0,-654.0,14.0,-57.0,48.0,-78.0,-85.0,-49.0,-29.0,-2.0,1.934248685836792
422,2934.0,1150.0,2060.0,1.0,-13370.0,-9409.0,-867.0,-654.0,-19.0,10.0,71.0,48.0,8.0,35.0,-69.0,24.0,1.9428775310516357
423,2934.0,1150.0,2060.0,1.0,-13370.0,-9409.0,-867.0,-654.0,64.0,25.0,82.0,-83.0,-31.0,-16.0,127.0,34.0,1.9471192359924316
424,3783.0,-426.0,-1160.0,1.0,-12979.0,-9949.0,-914.0,-433.0,64.0,25.0,82.0,-83.0,-31.0,-16.0,127.0,34.0,1.9566566944122314
425,3783.0,-426.0,-1160.0,1.0,-12979.0,-9949.0,-914.0,-433.0,-41.0,-60.0,-55.0,-9.0,26.0,-41.0,-52.0,19.0,1.9588227272033691
426,3783.0,-426.0,-1160.0,1.0,-12979.0,-9949.0,-914.0,-433.0,-38.0,-76.0,-128.0,37.0,-33.0,42.0,-72.0,6.0,1.963805913925171
427,3362.0,-2067.0,-5605.0,1.0,-12626.0,-10350.0,-1242.0,616.0,-38.0,-76.0,-128.0,37.0,-33.0,42.0,-72.0,6.0,1.9816186428070068
428,3362.0,-2067.0,-5605.0,1.0,-12626.0,-10350.0,-1242.0,616.0,-27.0,4.0,-108.0,18.0,-4.0,38.0,-30.0,-1.0,1.9854252338409424
429,3362.0,-2067.0,-5605.0,1.0,-12626.0,-10350.0,-1242.0,616.0,27.0,27.0,-74.0,90.0,55.0,15.0,-12.0,-10.0,1.9890367984771729
430,4349.0,1503.0,-534.0,1.0,-12095.0,-10938.0,-1478.0,578.0,27.0,27.0,-74.0,90.0,55.0,15.0,-12.0,-10.0,2.004836082458496
431,4349.0,1503.0,-534.0,1.0,-12095.0,-10938.0,-1478.0,578.0,-118.0,69.0,-22.0,-95.0,127.0,64.0,-34.0,23.0,2.0071640014648438
432,4349.0,1503.0,-534.0,1.0,-12095.0,-10938.0,-1478.0,578.0,-98.0,48.0,-27.0,44.0,60.0,72.0,-8.0,59.0,2.009016275405884
433,613.0,243.0,3301.0,1.0,-12031.0,-11066.0,-1112.0,123.0,-98.0,48.0,-27.0,44.0,60.0,72.0,-8.0,59.0,2.0168495178222656
434,613.0,243.0,3301.0,1.0,-12031.0,-11066.0,-1112.0,123.0,-77.0,14.0,-29.0,-43.0,49.0,-47.0,83.0,-9.0,2.0187771320343018
435,613.0,243.0,3301.0,1.0,-12031.0,-11066.0,-1112.0,123.0,-26.0,-96.0,-96.0,8.0,12.0,-36.0,127.0,115.0,2.0235517024993896
436,-2500.0,-1279.0,1050.0,1.0,-12362.0,-10725.0,-780.0,76.0,-26.0,-96.0,-96.0,8.0,12.0,-36.0,127.0,115.0,2.042656660079956
437,-2500.0,-1279.0,1050.0,1.0,-12362.0,-10725.0,-780.0,76.0,11.0,-23.0,-22.0,-24.0,-21.0,46.0,111.0,0.0,2.0468742847442627
438,-2500.0,-1279.0,1050.0,1.0,-12362.0,-10725.0,-780.0,76.0,30.0,-40.0,22.0,127.0,27.0,37.0,44.0,80.0,2.04998779296875
439,-1348.0,-253.0,1940.0,1.0,-12547.0,-10524.0,-497.0,-186.0,30.0,-40.0,22.0,127.0,27.0,37.0,44.0,80.0,2.06335711479187
440,-1348.0,-253.0,1940.0,1.0,-12547.0,-10524.0,-497.0,-186.0,51.0,-27.0,-21.0,-10.0,-85.0,15.0,89.0,-125.0,2.0661704540252686
441,-1348.0,-253.0,1940.0,1.0,-12547.0,-10524.0,-497.0,-186.0,-44.0,42.0,52.0,30.0,127.0,70.0,-128.0,-128.0,2.068169593811035
442,1406.0,172.0,598.0,1.0,-12482.0,-10601.0,-416.0,-312.0,-44.0,42.0,52.0,30.0,127.0,70.0,-128.0,-128.0,2.0770323276519775
443,1406.0,172.0,598.0,1.0,-12482.0,-10601.0,-416.0,-312.0,-27.0,-31.0,-21.0,3.0,-91.0,-7.0,-128.0,-103.0,2.079728841781616
444,1406.0,172.0,598.0,1.0,-12482.0,-10601.0,-416.0,-312.0,-17.0,-7.0,-84.0,-73.0,71.0,67.0,-113.0,-69.0,2.0833988189697266
445,2158.0,713.0,589.0,1.0,-12224.0,-10892.0,-452.0,-465.0,-17.0,-7.0,-84.0,-73.0,71.0,67.0,-113.0,-69.0,2.115621328353882
446,2158.0,713.0,589.0,1.0,-12224.0,-10892.0,-452.0,-465.0,-29.0,-29.0,-32.0,-25.0,-40.0,21.0,124.0,-58.0,2.1175413131713867
447,2158.0,713.0,589.0,1.0,-12224.0,-10892.0,-452.0,-465.0,-6.0,-43.0,-64.0,27.0,-46.0,49.0,88.0,-45.0,2.119307041168213
448,926.0,772.0,696.0,1.0,-12105.0,-11013.0,-477.0,-645.0,-6.0,-43.0,-64.0,27.0,-46.0,49.0,88.0,-45.0,2.1217904090881348
449,926.0,772.0,696.0,1.0,-12105.0,-11013.0,-477.0,-645.0,18.0,-60.0,-24.0,40.0,-15.0,39.0,-113.0,-62.0,2.124498128890991
450,926.0,772.0,696.0,1.0,-12105.0,-11013.0,-477.0,-645.0,-30.0,25.0,-36.0,-98.0,-26.0,16.0,35.0,-46.0,2.1268067359924316
451,-1387.0,260.0,212.0,1.0,-12259.0,-10837.0,-457.0,-728.0,-30.0,25.0,-36.0,-98.0,-26.0,16.0,35.0,-46.0,2.136120557785034
452,-1387.0,260.0,212.0,1.0,-12259.0,-10837.0,-457.0,-728.0,-31.0,29.0,45.0,-25.0,45.0,-105.0,74.0,79.0,2.1450326442718506
453,-1387.0,260.0,212.0,1.0,-12259.0,-10837.0,-457.0,-728.0,17.0,-7.0,37.0,53.0,-23.0,-68.0,97.0,-58.0,2.1481244564056396
454,-1165.0,-38.0,106.0,1.0,-12383.0,-10694.0,-396.0,-772.0,17.0,-7.0,37.0,53.0,-23.0,-68.0,97.0,-58.0,2.163738250732422
455,-1165.0,-38.0,106.0,1.0,-12383.0,-10694.0,-396.0,-772.0,44.0,-1.0,10.0,13.0,-56.0,64.0,79.0,5.0,2.1672990322113037
456,-1165.0,-38.0,106.0,1.0,-12383.0,-10694.0,-396.0,-772.0,54.0,-34.0,59.0,-27.0,-56.0,-30.0,18.0,76.0,2.1692609786987305
457,-214.0,-16.0,-329.0,1.0,-12350.0,-10735.0,-417.0,-738.0,54.0,-34.0,59.0,-27.0,-56.0,-30.0,18.0,76.0,2.18320631980896
458,-214.0,-16.0,-329.0,1.0,-12350.0,-10735.0,-417.0,-738.0,-8.0,-51.0,-75.0,71.0,1.0,-29.0,-86.0,77.0,2.1877150535583496
459,-214.0,-16.0,-329.0,1.0,-12350.0,-10735.0,-417.0,-738.0,2.0,56.0,-45.0,5.0,-19.0,127.0,-111.0,-13.0,2.191527843475342
460,47.0,21.0,-350.0,1.0,-12304.0,-10788.0,-445.0,-706.0,2.0,56.0,-45.0,5.0,-19.0,127.0,-111.0,-13.0,2.1965386867523193
461,47.0,21.0,-350.0,1.0,-12304.0,-10788.0,-445.0,-706.0,8.0,-11.0,40.0,-1.0,109.0,-9.0,0.0,83.0,2.2046358585357666
462,47.0,21.0,-350.0,1.0,-12304.0,-10788.0,-445.0,-706.0,44.0,40.0,111.0,29.0,26.0,1.0,-128.0,32.0,2.206467390060425
463,-89.0,-96.0,-322.0,1.0,-12333.0,-10757.0,-437.0,-681.0,44.0,40.0,111.0,29.0,26.0,1.0,-128.0,32.0,2.221463680267334
464,-89.0,-96.0,-322.0,1.0,-12333.0,-10757.0,-437.0,-681.0,94.0,39.0,-41.0,-44.0,9.0,-9.0,-94.0,-2.0,2.2250099182128906
465,-89.0,-96.0,-322.0,1.0,-12333.0,-10757.0,-437.0,-681.0,63.0,-18.0,-27.0,-8.0,-28.0,57.0,127.0,100.0,2.2283644676208496
466,-93.0,-134.0,-268.0,1.0,-12331.0,-10761.0,-431.0,-646.0,63.0,-18.0,-27.0,-8.0,-28.0,57.0,127.0,100.0,2.2425894737243652
467,-93.0,-134.0,-268.0,1.0,-12331.0,-10761.0,-431.0,-646.0,63.0,1.0,39.0,29.0,-20.0,-84.0,-106.0,10.0,2.244915008544922
468,-93.0,-134.0,-268.0,1.0,-12331.0,-10761.0,-431.0,-646.0,0.0,67.0,93.0,-44.0,-46.0,-24.0,-104.0,-64.0,2.248509645462036
469,-366.0,-19.0,-68.0,1.0,-12354.0,-10735.0,-408.0,-658.0,0.0,67.0,93.0,-44.0,-46.0,-24.0,-104.0,-64.0,2.256632089614868
470,-366.0,-19.0,-68.0,1.0,-12354.0,-10735.0,-408.0,-658.0,6.0,-11.0,-40.0,-88.0,-14.0,-77.0,24.0,15.0,2.2646942138671875
471,-366.0,-19.0,-68.0,1.0,-12354.0,-10735.0,-408.0,-658.0,-36.0,-42.0,-128.0,94.0,37.0,-90.0,84.0,-106.0,2.266601085662842
472,-118.0,71.0,92.0,1.0,-12363.0,-10723.0,-376.0,-705.0,-36.0,-42.0,-128.0,94.0,37.0,-90.0,84.0,-106.0,2.2820441722869873
473,-118.0,71.0,92.0,1.0,-12363.0,-10723.0,-376.0,-705.0,8.0,14.0,16.0,-1.0,-105.0,-5.0,107.0,-2.0,2.2861263751983643
474,-118.0,71.0,92.0,1.0,-12363.0,-10723.0,-376.0,-705.0,64.0,-27.0,-4.0,-3.0,-71.0,46.0,-3.0,-5.0,2.2891697883605957
475,117.0,16.0,95.0,1.0,-12366.0,-10719.0,-364.0,-724.0,64.0,-27.0,-4.0,-3.0,-71.0,46.0,-3.0,-5.0,2.3024096488952637
476,117.0,16.0,95.0,1.0,-12366.0,-10719.0,-364.0,-724.0,-70.0,3.0,52.0,108.0,65.0,-17.0,-107.0,-128.0,2.3042571544647217
477,117.0,16.0,95.0,1.0,-12366.0,-10719.0,-364.0,-724.0,24.0,-22.0,20.0,0.0,81.0,62.0,-93.0,60.0,2.3060004711151123
478,-244.0,-98.0,30.0,1.0,-12381.0,-10703.0,-363.0,-702.0,24.0,-22.0,20.0,0.0,81.0,62.0,-93.0,60.0,2.316410779953003
479,-244.0,-98.0,30.0,1.0,-12381.0,-10703.0,-363.0,-702.0,-42.0,71.0,68.0,-24.0,-13.0,-34.0,126.0,-59.0,2.3245105743408203
480,-244.0,-98.0,30.0,1.0,-12381.0,-10703.0,-363.0,-702.0,-29.0,5.0,25.0,-23.0,38.0,-2.0,-113.0,-13.0,2.3263120651245117
481,-539.0,-89.0,-22.0,1.0,-12424.0,-10654.0,-344.0,-694.0,-29.0,5.0,25.0,-23.0,38.0,-2.0,-113.0,-13.0,2.33992338180542
482,-539.0,-89.0,-22.0,1.0,-12424.0,-10654.0,-344.0,-694.0,-44.0,-12.0,0.0,10.0,-38.0,99.0,-71.0,61.0,2.3441739082336426
483,-539.0,-89.0,-22.0,1.0,-12424.0,-10654.0,-344.0,-694.0,-39.0,-14.0,-47.0,-14.0,44.0,-36.0,-45.0,-51.0,2.348923921585083
484,-29.0,-68.0,-76.0,1.0,-12416.0,-10663.0,-325.0,-692.0,-39.0,-14.0,-47.0,-14.0,44.0,-36.0,-45.0,-51.0,2.363396644592285
485,-29.0,-68.0,-76.0,1.0,-12416.0,-10663.0,-325.0,-692.0,-4.0,-17.0,-4.0,-1.0,76.0,48.0,-93.0,-13.0,2.366694927215576
486,-29.0,-68.0,-76.0,1.0,-12416.0,-10663.0,-325.0,-692.0,-23.0,3.0,-28.0,-102.0,17.0,9.0,13.0,33.0,2.3698298931121826
487,299.0,-27.0,-52.0,1.0,-12370.0,-10718.0,-332.0,-679.0,-23.0,3.0,-28.0,-102.0,17.0,9.0,13.0,33.0,2.3783130645751953
488,299.0,-27.0,-52.0,1.0,-12370.0,-10718.0,-332.0,-679.0,-45.0,1.0,57.0,27.0,61.0,24.0,-88.0,-61.0,2.384246349334717
489,299.0,-27.0,-52.0,1.0,-12370.0,-10718.0,-332.0,-679.0,-22.0,-58.0,-113.0,39.0,49.0,71.0,15.0,-47.0,2.385996103286743
490,95.0,4.0,89.0,1.0,-12346.0,-10745.0,-325.0,-689.0,-22.0,-58.0,-113.0,39.0,49.0,71.0,15.0,-47.0,2.4002058506011963
491,95.0,4.0,89.0,1.0,-12346.0,-10745.0,-325.0,-689.0,28.0,-20.0,-33.0,7.0,-42.0,-25.0,6.0,-37.0,2.4021105766296387
492,95.0,4.0,89.0,1.0,-12346.0,-10745.0,-325.0,-689.0,23.0,-27.0,-53.0,-7.0,45.0,10.0,54.0,96.0,2.4040188789367676
493,-136.0,-34.0,114.0,1.0,-12362.0,-10726.0,-291.0,-714.0,23.0,-27.0,-53.0,-7.0,45.0,10.0,54.0,96.0,2.42311692237854
494,-136.0,-34.0,114.0,1.0,-12362.0,-10726.0,-291.0,-714.0,12.0,-28.0,-29.0,31.0,-1.0,-55.0,-111.0,-30.0,2.4264578819274902
495,-136.0,-34.0,114.0,1.0,-12362.0,-10726.0,-291.0,-714.0,-27.0,7.0,-24.0,-77.0,-51.0,-104.0,-77.0,-32.0,2.4294068813323975
496,-7.0,-23.0,62.0,1.0,-12365.0,-10722.0,-270.0,-729.0,-27.0,7.0,-24.0,-77.0,-51.0,-104.0,-77.0,-32.0,2.438183069229126
497,-7.0,-23.0,62.0,1.0,-12365.0,-10722.0,-270.0,-729.0,-14.0,13.0,24.0,38.0,28.0,-15.0,127.0,18.0,2.440243721008301
498,-7.0,-23.0,62.0,1.0,-12365.0,-10722.0,-270.0,-729.0,24.0,13.0,48.0,9.0,-21.0,-4.0,86.0,106.0,2.443441867828369
499,-64.0,-25.0,46.0,1.0,-12359.0,-10729.0,-266.0,-727.0,24.0,13.0,48.0,9.0,-21.0,-4.0,86.0,106.0,2.460026502609253
