,Gyro 0,Gyro 1,Gyro 2,Label,Orientation 0,Orientation 1,Orientation 2,Orientation 3,Sensor 0,Sensor 1,Sensor 2,Sensor 3,Sensor 4,Sensor 5,Sensor 6,Sensor 7,Timestamp
0,-34.0,31.0,-25.0,1.0,-11025.0,-10574.0,728.0,-5881.0,-2.0,-3.0,-22.0,0.0,15.0,-2.0,1.0,0.0,2.384185791015625e-06
1,-34.0,31.0,-25.0,1.0,-11025.0,-10574.0,728.0,-5881.0,-2.0,-13.0,-24.0,3.0,32.0,6.0,-4.0,-2.0,0.002348661422729492
2,-34.0,31.0,-25.0,1.0,-11025.0,-10574.0,728.0,-5881.0,2.0,0.0,2.0,0.0,-12.0,-11.0,1.0,-3.0,0.0044710636138916016
3,-27.0,19.0,10.0,1.0,-11028.0,-10568.0,728.0,-5884.0,2.0,0.0,2.0,0.0,-12.0,-11.0,1.0,-3.0,0.0075380802154541016
4,-27.0,19.0,10.0,1.0,-11028.0,-10568.0,728.0,-5884.0,0.0,3.0,22.0,2.0,-10.0,4.0,-2.0,2.0,0.011096477508544922
5,-20.0,-3.0,29.0,1.0,-11030.0,-10564.0,732.0,-5888.0,0.0,3.0,22.0,2.0,-10.0,4.0,-2.0,2.0,0.013288259506225586
6,-20.0,-3.0,29.0,1.0,-11030.0,-10564.0,732.0,-5888.0,-3.0,-7.0,-13.0,4.0,5.0,-4.0,1.0,0.0,0.015201091766357422
7,-20.0,-3.0,29.0,1.0,-11030.0,-10564.0,732.0,-5888.0,-2.0,-1.0,17.0,-4.0,-18.0,-5.0,1.0,-6.0,0.017077207565307617
8,-1.0,-7.0,44.0,1.0,-11026.0,-10566.0,739.0,-5892.0,-2.0,-1.0,17.0,-4.0,-18.0,-5.0,1.0,-6.0,0.018994569778442383
9,-1.0,-7.0,44.0,1.0,-11026.0,-10566.0,739.0,-5892.0,1.0,-8.0,2.0,9.0,-8.0,3.0,0.0,0.0,0.021903514862060547
10,-1.0,-7.0,44.0,1.0,-11026.0,-10566.0,739.0,-5892.0,1.0,6.0,-30.0,-11.0,0.0,-11.0,-2.0,3.0,0.02463388442993164
11,42.0,1.0,48.0,1.0,-11017.0,-10572.0,740.0,-5897.0,1.0,6.0,-30.0,-11.0,0.0,-11.0,-2.0,3.0,0.026500940322875977
12,42.0,1.0,48.0,1.0,-11017.0,-10572.0,740.0,-5897.0,-1.0,14.0,2.0,-14.0,-5.0,-4.0,0.0,0.0,0.028395891189575195
13,42.0,1.0,48.0,1.0,-11017.0,-10572.0,740.0,-5897.0,-1.0,-3.0,14.0,-6.0,-6.0,4.0,-2.0,1.0,0.030192136764526367
14,8.0,22.0,68.0,1.0,-11012.0,-10573.0,742.0,-5905.0,-1.0,-3.0,14.0,-6.0,-6.0,4.0,-2.0,1.0,0.0319669246673584
15,8.0,22.0,68.0,1.0,-11012.0,-10573.0,742.0,-5905.0,-1.0,-9.0,-23.0,1.0,-19.0,2.0,2.0,-1.0,0.034845829010009766
16,8.0,22.0,68.0,1.0,-11012.0,-10573.0,742.0,-5905.0,6.0,15.0,25.0,-3.0,10.0,2.0,-5.0,1.0,0.03677630424499512
17,-57.0,7.0,60.0,1.0,-11014.0,-10565.0,753.0,-5913.0,6.0,15.0,25.0,-3.0,10.0,2.0,-5.0,1.0,0.03856515884399414
18,-57.0,7.0,60.0,1.0,-11014.0,-10565.0,753.0,-5913.0,-1.0,5.0,-15.0,-7.0,33.0,-24.0,4.0,1.0,0.040435075759887695
19,-57.0,7.0,60.0,1.0,-11014.0,-10565.0,753.0,-5913.0,1.0,0.0,-3.0,-3.0,10.0,-3.0,-1.0,-2.0,0.042200565338134766
20,2.0,18.0,44.0,1.0,-11009.0,-10564.0,761.0,-5924.0,1.0,0.0,-3.0,-3.0,10.0,-3.0,-1.0,-2.0,0.044007301330566406
21,2.0,18.0,44.0,1.0,-11009.0,-10564.0,761.0,-5924.0,2.0,3.0,7.0,7.0,9.0,-1.0,-3.0,-1.0,0.046098947525024414
22,2.0,18.0,44.0,1.0,-11009.0,-10564.0,761.0,-5924.0,-2.0,-9.0,14.0,23.0,13.0,15.0,1.0,-1.0,0.04790663719177246
23,70.0,1.0,22.0,1.0,-10996.0,-10574.0,762.0,-5929.0,-2.0,-9.0,14.0,23.0,13.0,15.0,1.0,-1.0,0.04967546463012695
24,70.0,1.0,22.0,1.0,-10996.0,-10574.0,762.0,-5929.0,-5.0,8.0,12.0,11.0,-22.0,6.0,2.0,-1.0,0.05192232131958008
25,70.0,1.0,22.0,1.0,-10996.0,-10574.0,762.0,-5929.0,-3.0,6.0,32.0,-9.0,22.0,12.0,-2.0,-4.0,0.055243730545043945
26,54.0,24.0,18.0,1.0,-10985.0,-10586.0,756.0,-5930.0,-3.0,6.0,32.0,-9.0,22.0,12.0,-2.0,-4.0,0.057202816009521484
27,54.0,24.0,18.0,1.0,-10985.0,-10586.0,756.0,-5930.0,-2.0,-9.0,-24.0,-12.0,-31.0,-13.0,-5.0,0.0,0.059111595153808594
28,54.0,24.0,18.0,1.0,-10985.0,-10586.0,756.0,-5930.0,-2.0,0.0,-11.0,1.0,-13.0,-2.0,-3.0,0.0,0.060909271240234375
29,-48.0,35.0,24.0,1.0,-10988.0,-10579.0,757.0,-5936.0,-2.0,0.0,-11.0,1.0,-13.0,-2.0,-3.0,0.0,0.06269216537475586
30,-48.0,35.0,24.0,1.0,-10988.0,-10579.0,757.0,-5936.0,5.0,17.0,-4.0,-15.0,-1.0,14.0,1.0,-1.0,0.0645456314086914
31,-48.0,35.0,24.0,1.0,-10988.0,-10579.0,757.0,-5936.0,-3.0,-10.0,-34.0,-13.0,-1.0,3.0,2.0,-2.0,0.0664832592010498
32,2.0,35.0,30.0,1.0,-10986.0,-10575.0,759.0,-5947.0,-3.0,-10.0,-34.0,-13.0,-1.0,3.0,2.0,-2.0,0.06910085678100586
33,2.0,35.0,30.0,1.0,-10986.0,-10575.0,759.0,-5947.0,2.0,-7.0,-12.0,-1.0,-3.0,-3.0,1.0,-1.0,0.07100534439086914
34,2.0,35.0,30.0,1.0,-10986.0,-10575.0,759.0,-5947.0,-2.0,-13.0,-44.0,-5.0,-20.0,-8.0,0.0,2.0,0.07280278205871582
35,110.0,29.0,19.0,1.0,-10971.0,-10588.0,750.0,-5952.0,-2.0,-13.0,-44.0,-5.0,-20.0,-8.0,0.0,2.0,0.07460188865661621
36,110.0,29.0,19.0,1.0,-10971.0,-10588.0,750.0,-5952.0,-6.0,-10.0,29.0,7.0,8.0,1.0,-3.0,-1.0,0.07645297050476074
37,110.0,29.0,19.0,1.0,-10971.0,-10588.0,750.0,-5952.0,-1.0,-7.0,-21.0,6.0,-2.0,-7.0,-2.0,0.0,0.07821416854858398
38,79.0,23.0,5.0,1.0,-10962.0,-10599.0,737.0,-5950.0,-1.0,-7.0,-21.0,6.0,-2.0,-7.0,-2.0,0.0,0.08024716377258301
39,79.0,23.0,5.0,1.0,-10962.0,-10599.0,737.0,-5950.0,0.0,-9.0,-33.0,4.0,0.0,21.0,2.0,-1.0,0.08230113983154297
40,79.0,23.0,5.0,1.0,-10962.0,-10599.0,737.0,-5950.0,-1.0,15.0,40.0,11.0,-2.0,-4.0,-1.0,-2.0,0.08546710014343262
41,-7.0,27.0,10.0,1.0,-10960.0,-10601.0,732.0,-5950.0,-1.0,15.0,40.0,11.0,-2.0,-4.0,-1.0,-2.0,0.08763861656188965
42,-7.0,27.0,10.0,1.0,-10960.0,-10601.0,732.0,-5950.0,1.0,2.0,-1.0,-8.0,0.0,6.0,3.0,-1.0,0.08959388732910156
43,-7.0,27.0,10.0,1.0,-10960.0,-10601.0,732.0,-5950.0,-2.0,-7.0,-43.0,0.0,13.0,-3.0,-4.0,-1.0,0.09138679504394531
44,-23.0,30.0,23.0,1.0,-10962.0,-10597.0,732.0,-5956.0,-2.0,-7.0,-43.0,0.0,13.0,-3.0,-4.0,-1.0,0.09317731857299805
45,-23.0,30.0,23.0,1.0,-10962.0,-10597.0,732.0,-5956.0,-3.0,-6.0,-38.0,-22.0,-13.0,-3.0,-4.0,-1.0,0.09504508972167969
46,-23.0,30.0,23.0,1.0,-10962.0,-10597.0,732.0,-5956.0,-3.0,2.0,-9.0,-4.0,18.0,3.0,-4.0,0.0,0.09682965278625488
47,-17.0,7.0,25.0,1.0,-10963.0,-10594.0,733.0,-5958.0,-3.0,2.0,-9.0,-4.0,18.0,3.0,-4.0,0.0,0.09858942031860352
48,-17.0,7.0,25.0,1.0,-10963.0,-10594.0,733.0,-5958.0,-4.0,-15.0,-14.0,4.0,2.0,1.0,-1.0,-3.0,0.1013331413269043
49,-17.0,7.0,25.0,1.0,-10963.0,-10594.0,733.0,-5958.0,3.0,20.0,59.0,1.0,-22.0,3.0,5.0,1.0,0.10326719284057617
50,-18.0,7.0,41.0,1.0,-10963.0,-10591.0,737.0,-5963.0,3.0,20.0,59.0,1.0,-22.0,3.0,5.0,1.0,0.10513639450073242
51,-18.0,7.0,41.0,1.0,-10963.0,-10591.0,737.0,-5963.0,0.0,16.0,21.0,-6.0,-22.0,-9.0,-6.0,-2.0,0.10701513290405273
52,-18.0,7.0,41.0,1.0,-10963.0,-10591.0,737.0,-5963.0,-1.0,-10.0,4.0,8.0,26.0,10.0,2.0,-2.0,0.10885286331176758
53,6.0,24.0,40.0,1.0,-10959.0,-10592.0,737.0,-5969.0,-1.0,-10.0,4.0,8.0,26.0,10.0,2.0,-2.0,0.1106414794921875
54,6.0,24.0,40.0,1.0,-10959.0,-10592.0,737.0,-5969.0,1.0,1.0,22.0,5.0,28.0,-6.0,-4.0,-2.0,0.11270952224731445
55,6.0,24.0,40.0,1.0,-10959.0,-10592.0,737.0,-5969.0,-2.0,-17.0,-24.0,-1.0,-3.0,-5.0,-4.0,-1.0,0.11539697647094727
56,21.0,19.0,-3.0,1.0,-10955.0,-10596.0,732.0,-5969.0,-2.0,-17.0,-24.0,-1.0,-3.0,-5.0,-4.0,-1.0,0.11874222755432129
57,21.0,19.0,-3.0,1.0,-10955.0,-10596.0,732.0,-5969.0,-2.0,5.0,-12.0,3.0,-6.0,-3.0,1.0,0.0,0.12089323997497559
58,21.0,19.0,-3.0,1.0,-10955.0,-10596.0,732.0,-5969.0,1.0,25.0,68.0,11.0,6.0,4.0,2.0,0.0,0.12272167205810547
59,-22.0,8.0,-10.0,1.0,-10958.0,-10595.0,728.0,-5965.0,1.0,25.0,68.0,11.0,6.0,4.0,2.0,0.0,0.12453985214233398
60,-22.0,8.0,-10.0,1.0,-10958.0,-10595.0,728.0,-5965.0,3.0,5.0,28.0,-2.0,-23.0,-1.0,1.0,3.0,0.12641072273254395
61,-22.0,8.0,-10.0,1.0,-10958.0,-10595.0,728.0,-5965.0,0.0,-9.0,-32.0,-11.0,-12.0,-3.0,1.0,0.0,0.12821149826049805
62,-23.0,13.0,1.0,1.0,-10960.0,-10594.0,726.0,-5964.0,0.0,-9.0,-32.0,-11.0,-12.0,-3.0,1.0,0.0,0.13026142120361328
63,-23.0,13.0,1.0,1.0,-10960.0,-10594.0,726.0,-5964.0,-3.0,-4.0,12.0,3.0,4.0,-3.0,-1.0,-1.0,0.13221502304077148
64,-23.0,13.0,1.0,1.0,-10960.0,-10594.0,726.0,-5964.0,2.0,23.0,-3.0,-17.0,10.0,-3.0,0.0,-2.0,0.1344466209411621
65,-71.0,10.0,23.0,1.0,-10968.0,-10584.0,731.0,-5967.0,2.0,23.0,-3.0,-17.0,10.0,-3.0,0.0,-2.0,0.13637781143188477
66,-71.0,10.0,23.0,1.0,-10968.0,-10584.0,731.0,-5967.0,-2.0,-7.0,1.0,3.0,-9.0,-11.0,-5.0,-4.0,0.13828086853027344
67,-71.0,10.0,23.0,1.0,-10968.0,-10584.0,731.0,-5967.0,-3.0,-15.0,-10.0,7.0,2.0,-9.0,-5.0,-1.0,0.14009428024291992
68,3.0,-3.0,30.0,1.0,-10964.0,-10586.0,735.0,-5970.0,-3.0,-15.0,-10.0,7.0,2.0,-9.0,-5.0,-1.0,0.1419382095336914
69,3.0,-3.0,30.0,1.0,-10964.0,-10586.0,735.0,-5970.0,-1.0,-2.0,-5.0,-10.0,3.0,10.0,2.0,0.0,0.14435601234436035
70,3.0,-3.0,30.0,1.0,-10964.0,-10586.0,735.0,-5970.0,-2.0,-3.0,-21.0,-1.0,-5.0,-8.0,-2.0,-2.0,0.14735126495361328
71,40.0,-7.0,6.0,1.0,-10958.0,-10594.0,731.0,-5967.0,-2.0,-3.0,-21.0,-1.0,-5.0,-8.0,-2.0,-2.0,0.15004801750183105
72,40.0,-7.0,6.0,1.0,-10958.0,-10594.0,731.0,-5967.0,4.0,2.0,4.0,-8.0,-11.0,0.0,1.0,1.0,0.15276646614074707
73,40.0,-7.0,6.0,1.0,-10958.0,-10594.0,731.0,-5967.0,1.0,-4.0,1.0,-1.0,1.0,-5.0,-1.0,1.0,0.15474724769592285
74,6.0,-4.0,-3.0,1.0,-10958.0,-10595.0,730.0,-5966.0,1.0,-4.0,1.0,-1.0,1.0,-5.0,-1.0,1.0,0.15654611587524414
75,6.0,-4.0,-3.0,1.0,-10958.0,-10595.0,730.0,-5966.0,0.0,6.0,1.0,5.0,3.0,-1.0,0.0,-2.0,0.1584019660949707
76,6.0,-4.0,-3.0,1.0,-10958.0,-10595.0,730.0,-5966.0,-2.0,-2.0,-10.0,6.0,-7.0,2.0,2.0,-2.0,0.16017627716064453
77,-40.0,3.0,12.0,1.0,-10960.0,-10592.0,734.0,-5967.0,-2.0,-2.0,-10.0,6.0,-7.0,2.0,2.0,-2.0,0.16194581985473633
78,-40.0,3.0,12.0,1.0,-10960.0,-10592.0,734.0,-5967.0,0.0,-4.0,23.0,-5.0,24.0,-5.0,-2.0,-3.0,0.16412711143493652
79,-40.0,3.0,12.0,1.0,-10960.0,-10592.0,734.0,-5967.0,-2.0,-9.0,13.0,0.0,-9.0,0.0,0.0,-1.0,0.16590571403503418
80,-16.0,6.0,15.0,1.0,-10961.0,-10592.0,733.0,-5967.0,-2.0,-9.0,13.0,0.0,-9.0,0.0,0.0,-1.0,0.1676630973815918
81,-16.0,6.0,15.0,1.0,-10961.0,-10592.0,733.0,-5967.0,-1.0,-1.0,-12.0,5.0,4.0,14.0,0.0,1.0,0.16953587532043457
82,-16.0,6.0,15.0,1.0,-10961.0,-10592.0,733.0,-5967.0,1.0,11.0,0.0,2.0,-5.0,-5.0,-1.0,2.0,0.17158055305480957
83,62.0,-22.0,9.0,1.0,-10952.0,-10600.0,735.0,-5968.0,1.0,11.0,0.0,2.0,-5.0,-5.0,-1.0,2.0,0.17505311965942383
84,62.0,-22.0,9.0,1.0,-10952.0,-10600.0,735.0,-5968.0,-2.0,-1.0,-12.0,6.0,12.0,-2.0,-2.0,-2.0,0.18064212799072266
85,62.0,-22.0,9.0,1.0,-10952.0,-10600.0,735.0,-5968.0,-1.0,-3.0,-3.0,-2.0,-33.0,-20.0,-4.0,-2.0,0.18300843238830566
86,85.0,-38.0,-5.0,1.0,-10941.0,-10616.0,731.0,-5960.0,-1.0,-3.0,-3.0,-2.0,-33.0,-20.0,-4.0,-2.0,0.1853961944580078
87,85.0,-38.0,-5.0,1.0,-10941.0,-10616.0,731.0,-5960.0,-1.0,-5.0,7.0,-3.0,-5.0,-8.0,-2.0,1.0,0.1880202293395996
88,85.0,-38.0,-5.0,1.0,-10941.0,-10616.0,731.0,-5960.0,0.0,-4.0,-2.0,2.0,12.0,13.0,2.0,-2.0,0.19078421592712402
89,2.0,-21.0,-18.0,1.0,-10938.0,-10625.0,728.0,-5950.0,0.0,-4.0,-2.0,2.0,12.0,13.0,2.0,-2.0,0.19275546073913574
90,2.0,-21.0,-18.0,1.0,-10938.0,-10625.0,728.0,-5950.0,-1.0,-3.0,-10.0,-12.0,-2.0,-2.0,-1.0,0.0,0.19463515281677246
91,2.0,-21.0,-18.0,1.0,-10938.0,-10625.0,728.0,-5950.0,0.0,7.0,0.0,-5.0,5.0,-1.0,-2.0,-2.0,0.19658279418945312
92,-98.0,-11.0,20.0,1.0,-10947.0,-10615.0,738.0,-5950.0,0.0,7.0,0.0,-5.0,5.0,-1.0,-2.0,-2.0,0.19836974143981934
93,-98.0,-11.0,20.0,1.0,-10947.0,-10615.0,738.0,-5950.0,1.0,-3.0,-34.0,8.0,11.0,3.0,1.0,2.0,0.20028233528137207
94,-98.0,-11.0,20.0,1.0,-10947.0,-10615.0,738.0,-5950.0,-7.0,-14.0,-42.0,-11.0,-10.0,-8.0,-4.0,-2.0,0.20211386680603027
95,-5.0,-21.0,40.0,1.0,-10945.0,-10615.0,746.0,-5953.0,-7.0,-14.0,-42.0,-11.0,-10.0,-8.0,-4.0,-2.0,0.2039027214050293
96,-5.0,-21.0,40.0,1.0,-10945.0,-10615.0,746.0,-5953.0,-6.0,-12.0,-18.0,-20.0,-28.0,-14.0,-5.0,-4.0,0.20589327812194824
97,-5.0,-21.0,40.0,1.0,-10945.0,-10615.0,746.0,-5953.0,0.0,1.0,3.0,-6.0,-3.0,20.0,-2.0,-3.0,0.2091212272644043
98,53.0,-10.0,22.0,1.0,-10936.0,-10623.0,746.0,-5954.0,0.0,1.0,3.0,-6.0,-3.0,20.0,-2.0,-3.0,0.21124672889709473
99,53.0,-10.0,22.0,1.0,-10936.0,-10623.0,746.0,-5954.0,3.0,11.0,45.0,1.0,-8.0,-1.0,0.0,0.0,0.21322345733642578
100,53.0,-10.0,22.0,1.0,-10936.0,-10623.0,746.0,-5954.0,0.0,-7.0,-1.0,-4.0,3.0,10.0,3.0,0.0,0.21507906913757324
101,57.0,-17.0,-1.0,1.0,-10928.0,-10633.0,746.0,-5953.0,0.0,-7.0,-1.0,-4.0,3.0,10.0,3.0,0.0,0.21795868873596191
102,57.0,-17.0,-1.0,1.0,-10928.0,-10633.0,746.0,-5953.0,2.0,8.0,29.0,-1.0,-11.0,-10.0,-1.0,-2.0,0.2200613021850586
103,57.0,-17.0,-1.0,1.0,-10928.0,-10633.0,746.0,-5953.0,-2.0,-8.0,12.0,16.0,6.0,1.0,0.0,0.0,0.22187280654907227
104,24.0,-7.0,1.0,1.0,-10923.0,-10639.0,744.0,-5951.0,-2.0,-8.0,12.0,16.0,6.0,1.0,0.0,0.0,0.2237074375152588
105,24.0,-7.0,1.0,1.0,-10923.0,-10639.0,744.0,-5951.0,-2.0,0.0,24.0,9.0,2.0,1.0,-1.0,1.0,0.22559332847595215
106,24.0,-7.0,1.0,1.0,-10923.0,-10639.0,744.0,-5951.0,0.0,4.0,21.0,-4.0,5.0,6.0,2.0,1.0,0.22736620903015137
107,-81.0,2.0,6.0,1.0,-10931.0,-10631.0,749.0,-5950.0,0.0,4.0,21.0,-4.0,5.0,6.0,2.0,1.0,0.22934174537658691
108,-81.0,2.0,6.0,1.0,-10931.0,-10631.0,749.0,-5950.0,6.0,24.0,48.0,12.0,-6.0,-4.0,-2.0,1.0,0.23145246505737305
109,-81.0,2.0,6.0,1.0,-10931.0,-10631.0,749.0,-5950.0,0.0,-7.0,-13.0,5.0,-6.0,-1.0,-1.0,3.0,0.23327064514160156
110,-9.0,22.0,25.0,1.0,-10929.0,-10628.0,752.0,-5957.0,0.0,-7.0,-13.0,5.0,-6.0,-1.0,-1.0,3.0,0.23508548736572266
111,-9.0,22.0,25.0,1.0,-10929.0,-10628.0,752.0,-5957.0,-4.0,-16.0,-47.0,10.0,7.0,7.0,1.0,-3.0,0.23711895942687988
112,-9.0,22.0,25.0,1.0,-10929.0,-10628.0,752.0,-5957.0,-3.0,-1.0,9.0,-2.0,4.0,-2.0,-4.0,0.0,0.24030017852783203
113,80.0,23.0,26.0,1.0,-10916.0,-10638.0,750.0,-5964.0,-3.0,-1.0,9.0,-2.0,4.0,-2.0,-4.0,0.0,0.24234318733215332
114,80.0,23.0,26.0,1.0,-10916.0,-10638.0,750.0,-5964.0,-7.0,-13.0,-21.0,-3.0,-8.0,7.0,1.0,0.0,0.24422788619995117
115,80.0,23.0,26.0,1.0,-10916.0,-10638.0,750.0,-5964.0,5.0,0.0,5.0,-5.0,2.0,4.0,-1.0,-1.0,0.24605154991149902
116,72.0,8.0,4.0,1.0,-10906.0,-10649.0,742.0,-5963.0,5.0,0.0,5.0,-5.0,2.0,4.0,-1.0,-1.0,0.24782514572143555
117,72.0,8.0,4.0,1.0,-10906.0,-10649.0,742.0,-5963.0,-1.0,5.0,-5.0,2.0,9.0,8.0,2.0,-4.0,0.24968647956848145
118,72.0,8.0,4.0,1.0,-10906.0,-10649.0,742.0,-5963.0,-4.0,-6.0,-21.0,-6.0,-19.0,-8.0,-5.0,-2.0,0.25243687629699707
119,-15.0,7.0,-9.0,1.0,-10906.0,-10650.0,742.0,-5962.0,-4.0,-6.0,-21.0,-6.0,-19.0,-8.0,-5.0,-2.0,0.25429415702819824
120,-15.0,7.0,-9.0,1.0,-10906.0,-10650.0,742.0,-5962.0,2.0,-4.0,-22.0,-2.0,14.0,10.0,1.0,4.0,0.25617074966430664
121,-15.0,7.0,-9.0,1.0,-10906.0,-10650.0,742.0,-5962.0,-4.0,-10.0,-3.0,6.0,7.0,-3.0,1.0,0.0,0.25794196128845215
122,-70.0,-2.0,13.0,1.0,-10914.0,-10642.0,746.0,-5962.0,-4.0,-10.0,-3.0,6.0,7.0,-3.0,1.0,0.0,0.2636392116546631
123,-70.0,-2.0,13.0,1.0,-10914.0,-10642.0,746.0,-5962.0,0.0,1.0,20.0,-5.0,10.0,3.0,1.0,2.0,0.2655177116394043
124,-70.0,-2.0,13.0,1.0,-10914.0,-10642.0,746.0,-5962.0,2.0,4.0,17.0,-9.0,-4.0,0.0,-3.0,-1.0,0.2673816680908203
125,41.0,-8.0,34.0,1.0,-10906.0,-10649.0,748.0,-5965.0,2.0,4.0,17.0,-9.0,-4.0,0.0,-3.0,-1.0,0.27717065811157227
126,41.0,-8.0,34.0,1.0,-10906.0,-10649.0,748.0,-5965.0,-3.0,-3.0,-11.0,-2.0,-1.0,2.0,1.0,-5.0,0.28672099113464355
127,41.0,-8.0,34.0,1.0,-10906.0,-10649.0,748.0,-5965.0,-3.0,-4.0,-19.0,-1.0,1.0,-6.0,0.0,-2.0,0.28972482681274414
128,47.0,-14.0,40.0,1.0,-10894.0,-10660.0,749.0,-5964.0,-3.0,-4.0,-19.0,-1.0,1.0,-6.0,0.0,-2.0,0.3030221462249756
129,47.0,-14.0,40.0,1.0,-10894.0,-10660.0,749.0,-5964.0,2.0,-1.0,3.0,-4.0,-21.0,-7.0,-4.0,0.0,0.30625200271606445
130,47.0,-14.0,40.0,1.0,-10894.0,-10660.0,749.0,-5964.0,-6.0,-15.0,8.0,-9.0,-15.0,-7.0,-6.0,-5.0,0.3090245723724365
131,-38.0,-11.0,43.0,1.0,-10893.0,-10661.0,755.0,-5964.0,-6.0,-15.0,8.0,-9.0,-15.0,-7.0,-6.0,-5.0,0.3234593868255615
132,-38.0,-11.0,43.0,1.0,-10893.0,-10661.0,755.0,-5964.0,-2.0,-6.0,-23.0,-5.0,9.0,2.0,-1.0,-2.0,0.3265373706817627
133,-38.0,-11.0,43.0,1.0,-10893.0,-10661.0,755.0,-5964.0,2.0,7.0,16.0,6.0,-4.0,6.0,5.0,3.0,0.33042478561401367
134,-100.0,10.0,48.0,1.0,-10902.0,-10650.0,763.0,-5967.0,2.0,7.0,16.0,6.0,-4.0,6.0,5.0,3.0,0.3478069305419922
135,-100.0,10.0,48.0,1.0,-10902.0,-10650.0,763.0,-5967.0,2.0,-1.0,-25.0,5.0,-22.0,-8.0,-5.0,0.0,0.35192394256591797
136,-100.0,10.0,48.0,1.0,-10902.0,-10650.0,763.0,-5967.0,-3.0,-7.0,13.0,5.0,29.0,10.0,-2.0,-3.0,0.3558330535888672
137,-48.0,-9.0,52.0,1.0,-10902.0,-10646.0,776.0,-5973.0,-3.0,-7.0,13.0,5.0,29.0,10.0,-2.0,-3.0,0.36141467094421387
138,-48.0,-9.0,52.0,1.0,-10902.0,-10646.0,776.0,-5973.0,4.0,16.0,37.0,-5.0,-5.0,-7.0,-1.0,-2.0,0.36411380767822266
139,-48.0,-9.0,52.0,1.0,-10902.0,-10646.0,776.0,-5973.0,2.0,7.0,-1.0,2.0,-5.0,-4.0,-3.0,0.0,0.3660557270050049
140,77.0,-1.0,46.0,1.0,-10888.0,-10657.0,778.0,-5979.0,2.0,7.0,-1.0,2.0,-5.0,-4.0,-3.0,0.0,0.3834266662597656
141,77.0,-1.0,46.0,1.0,-10888.0,-10657.0,778.0,-5979.0,-4.0,-11.0,31.0,5.0,-5.0,2.0,0.0,-2.0,0.3862617015838623
142,77.0,-1.0,46.0,1.0,-10888.0,-10657.0,778.0,-5979.0,-4.0,-2.0,-1.0,0.0,-4.0,-20.0,-1.0,-1.0,0.3892815113067627
143,34.0,8.0,35.0,1.0,-10879.0,-10664.0,776.0,-5981.0,-4.0,-2.0,-1.0,0.0,-4.0,-20.0,-1.0,-1.0,0.407437801361084
144,34.0,8.0,35.0,1.0,-10879.0,-10664.0,776.0,-5981.0,0.0,-3.0,-2.0,-5.0,-3.0,1.0,0.0,2.0,0.41115593910217285
145,34.0,8.0,35.0,1.0,-10879.0,-10664.0,776.0,-5981.0,6.0,18.0,-9.0,-16.0,-3.0,2.0,3.0,2.0,0.4140138626098633
146,-41.0,17.0,22.0,1.0,-10881.0,-10662.0,777.0,-5982.0,6.0,18.0,-9.0,-16.0,-3.0,2.0,3.0,2.0,0.42920780181884766
147,-41.0,17.0,22.0,1.0,-10881.0,-10662.0,777.0,-5982.0,7.0,33.0,61.0,-12.0,-20.0,-5.0,-2.0,1.0,0.4329640865325928
148,-41.0,17.0,22.0,1.0,-10881.0,-10662.0,777.0,-5982.0,-1.0,2.0,0.0,5.0,4.0,0.0,1.0,-1.0,0.43729138374328613
149,-81.0,8.0,23.0,1.0,-10888.0,-10652.0,786.0,-5986.0,-1.0,2.0,0.0,5.0,4.0,0.0,1.0,-1.0,0.45236849784851074
150,-81.0,8.0,23.0,1.0,-10888.0,-10652.0,786.0,-5986.0,0.0,5.0,5.0,-3.0,-15.0,-11.0,-3.0,-1.0,0.45564842224121094
151,-81.0,8.0,23.0,1.0,-10888.0,-10652.0,786.0,-5986.0,1.0,2.0,0.0,1.0,-7.0,-19.0,-1.0,-2.0,0.45766210556030273
152,49.0,12.0,25.0,1.0,-10879.0,-10658.0,785.0,-5991.0,1.0,2.0,0.0,1.0,-7.0,-19.0,-1.0,-2.0,0.47360825538635254
153,49.0,12.0,25.0,1.0,-10879.0,-10658.0,785.0,-5991.0,0.0,-5.0,27.0,8.0,32.0,-9.0,1.0,-1.0,0.47542452812194824
154,49.0,12.0,25.0,1.0,-10879.0,-10658.0,785.0,-5991.0,-4.0,-14.0,-6.0,3.0,-2.0,5.0,-1.0,-2.0,0.47716689109802246
155,113.0,-7.0,32.0,1.0,-10863.0,-10675.0,779.0,-5992.0,-4.0,-14.0,-6.0,3.0,-2.0,5.0,-1.0,-2.0,0.48905301094055176
156,113.0,-7.0,32.0,1.0,-10863.0,-10675.0,779.0,-5992.0,-4.0,-11.0,-40.0,0.0,13.0,12.0,-1.0,-3.0,0.491030216217041
157,113.0,-7.0,32.0,1.0,-10863.0,-10675.0,779.0,-5992.0,-4.0,3.0,33.0,-1.0,-19.0,-11.0,-8.0,-4.0,0.49285149574279785
158,43.0,-24.0,34.0,1.0,-10855.0,-10684.0,780.0,-5989.0,-4.0,3.0,33.0,-1.0,-19.0,-11.0,-8.0,-4.0,0.5029077529907227
159,43.0,-24.0,34.0,1.0,-10855.0,-10684.0,780.0,-5989.0,0.0,2.0,38.0,-9.0,-10.0,-2.0,6.0,1.0,0.5104403495788574
160,43.0,-24.0,34.0,1.0,-10855.0,-10684.0,780.0,-5989.0,-6.0,-23.0,-33.0,-17.0,3.0,24.0,5.0,2.0,0.5122442245483398
161,-6.0,-8.0,45.0,1.0,-10854.0,-10680.0,788.0,-5997.0,-6.0,-23.0,-33.0,-17.0,3.0,24.0,5.0,2.0,0.5259006023406982
162,-6.0,-8.0,45.0,1.0,-10854.0,-10680.0,788.0,-5997.0,-1.0,0.0,-41.0,-7.0,-24.0,13.0,-6.0,-4.0,0.5277411937713623
163,-6.0,-8.0,45.0,1.0,-10854.0,-10680.0,788.0,-5997.0,8.0,44.0,55.0,15.0,-5.0,-7.0,0.0,2.0,0.5295314788818359
164,111.0,15.0,72.0,1.0,-10838.0,-10689.0,791.0,-6012.0,8.0,44.0,55.0,15.0,-5.0,-7.0,0.0,2.0,0.5568366050720215
165,111.0,15.0,72.0,1.0,-10838.0,-10689.0,791.0,-6012.0,0.0,5.0,22.0,-33.0,17.0,39.0,-6.0,-2.0,0.5587050914764404
166,315.0,-23.0,43.0,1.0,-10804.0,-10717.0,779.0,-6023.0,0.0,5.0,22.0,-33.0,17.0,39.0,-6.0,-2.0,0.5604794025421143
167,315.0,-23.0,43.0,1.0,-10804.0,-10717.0,779.0,-6023.0,-12.0,-31.0,-66.0,-21.0,13.0,23.0,12.0,7.0,0.5625410079956055
168,315.0,-23.0,43.0,1.0,-10804.0,-10717.0,779.0,-6023.0,-5.0,4.0,-4.0,-44.0,-8.0,-25.0,20.0,3.0,0.5801887512207031
169,470.0,-89.0,-53.0,1.0,-10763.0,-10758.0,760.0,-6025.0,-5.0,4.0,-4.0,-44.0,-8.0,-25.0,20.0,3.0,0.5824522972106934
170,470.0,-89.0,-53.0,1.0,-10763.0,-10758.0,760.0,-6025.0,7.0,18.0,3.0,-34.0,-10.0,-9.0,-10.0,-1.0,0.5854251384735107
171,470.0,-89.0,-53.0,1.0,-10763.0,-10758.0,760.0,-6025.0,-3.0,-10.0,27.0,21.0,24.0,-40.0,-39.0,-2.0,0.587273120880127
172,475.0,-14.0,-183.0,1.0,-10730.0,-10804.0,704.0,-6009.0,-3.0,-10.0,27.0,21.0,24.0,-40.0,-39.0,-2.0,0.5890402793884277
173,475.0,-14.0,-183.0,1.0,-10730.0,-10804.0,704.0,-6009.0,8.0,14.0,54.0,96.0,18.0,-3.0,21.0,4.0,0.5919008255004883
174,475.0,-14.0,-183.0,1.0,-10730.0,-10804.0,704.0,-6009.0,3.0,2.0,-36.0,10.0,-1.0,10.0,19.0,-1.0,0.6086878776550293
175,83.0,97.0,-216.0,1.0,-10759.0,-10788.0,643.0,-5992.0,3.0,2.0,-36.0,10.0,-1.0,10.0,19.0,-1.0,0.6123025417327881
176,83.0,97.0,-216.0,1.0,-10759.0,-10788.0,643.0,-5992.0,-3.0,7.0,-29.0,47.0,-8.0,-1.0,18.0,-26.0,0.6157402992248535
177,83.0,97.0,-216.0,1.0,-10759.0,-10788.0,643.0,-5992.0,-2.0,-19.0,-28.0,-11.0,3.0,59.0,18.0,0.0,0.6313350200653076
178,-284.0,273.0,-262.0,1.0,-10847.0,-10701.0,581.0,-5995.0,-2.0,-19.0,-28.0,-11.0,3.0,59.0,18.0,0.0,0.6346895694732666
179,-284.0,273.0,-262.0,1.0,-10847.0,-10701.0,581.0,-5995.0,3.0,-5.0,-19.0,-71.0,-20.0,-20.0,-25.0,3.0,0.6381206512451172
180,-284.0,273.0,-262.0,1.0,-10847.0,-10701.0,581.0,-5995.0,1.0,11.0,-46.0,-83.0,16.0,-10.0,-11.0,0.0,0.645331621170044
181,-479.0,423.0,-130.0,1.0,-10959.0,-10561.0,539.0,-6045.0,1.0,11.0,-46.0,-83.0,16.0,-10.0,-11.0,0.0,0.6471681594848633
182,-479.0,423.0,-130.0,1.0,-10959.0,-10561.0,539.0,-6045.0,-1.0,-4.0,11.0,7.0,15.0,34.0,20.0,9.0,0.6524527072906494
183,-479.0,423.0,-130.0,1.0,-10959.0,-10561.0,539.0,-6045.0,4.0,19.0,74.0,78.0,-5.0,10.0,-17.0,3.0,0.6759214401245117
184,-552.0,431.0,-260.0,1.0,-11098.0,-10393.0,484.0,-6086.0,4.0,19.0,74.0,78.0,-5.0,10.0,-17.0,3.0,0.679131031036377
185,-552.0,431.0,-260.0,1.0,-11098.0,-10393.0,484.0,-6086.0,-6.0,-13.0,-34.0,-60.0,47.0,27.0,-16.0,-2.0,0.6824615001678467
186,-552.0,431.0,-260.0,1.0,-11098.0,-10393.0,484.0,-6086.0,-3.0,-16.0,-43.0,1.0,-7.0,-20.0,1.0,1.0,0.6901602745056152
187,-1084.0,335.0,-451.0,1.0,-11305.0,-10178.0,440.0,-6072.0,-3.0,-16.0,-43.0,1.0,-7.0,-20.0,1.0,1.0,0.6919732093811035
188,-1084.0,335.0,-451.0,1.0,-11305.0,-10178.0,440.0,-6072.0,1.0,-12.0,-16.0,-19.0,14.0,7.0,-11.0,-4.0,0.697502613067627
189,-1084.0,335.0,-451.0,1.0,-11305.0,-10178.0,440.0,-6072.0,-1.0,1.0,48.0,40.0,5.0,-12.0,0.0,-2.0,0.7052466869354248
190,-1576.0,420.0,-780.0,1.0,-11575.0,-9905.0,384.0,-6019.0,-1.0,1.0,48.0,40.0,5.0,-12.0,0.0,-2.0,0.7134203910827637
191,-1576.0,420.0,-780.0,1.0,-11575.0,-9905.0,384.0,-6019.0,6.0,0.0,15.0,-49.0,-42.0,-8.0,-11.0,4.0,0.7171425819396973
192,-1576.0,420.0,-780.0,1.0,-11575.0,-9905.0,384.0,-6019.0,-3.0,-9.0,-57.0,48.0,23.0,-20.0,-1.0,-6.0,0.727698802947998
193,-1967.0,704.0,-877.0,1.0,-11855.0,-9597.0,324.0,-5977.0,-3.0,-9.0,-57.0,48.0,23.0,-20.0,-1.0,-6.0,0.7310435771942139
194,-1967.0,704.0,-877.0,1.0,-11855.0,-9597.0,324.0,-5977.0,-2.0,3.0,26.0,-19.0,32.0,12.0,-6.0,-2.0,0.7368967533111572
195,-1967.0,704.0,-877.0,1.0,-11855.0,-9597.0,324.0,-5977.0,6.0,32.0,-13.0,-17.0,-23.0,-27.0,-12.0,4.0,0.7513003349304199
196,-1670.0,1035.0,-933.0,1.0,-12100.0,-9302.0,194.0,-5956.0,6.0,32.0,-13.0,-17.0,-23.0,-27.0,-12.0,4.0,0.7544310092926025
197,-1670.0,1035.0,-933.0,1.0,-12100.0,-9302.0,194.0,-5956.0,-5.0,-2.0,-73.0,21.0,16.0,-13.0,1.0,-4.0,0.7687313556671143
198,-1670.0,1035.0,-933.0,1.0,-12100.0,-9302.0,194.0,-5956.0,-8.0,-1.0,5.0,-34.0,-51.0,-28.0,-15.0,-7.0,0.7721970081329346
199,-1662.0,1286.0,-1171.0,1.0,-12347.0,-8996.0,6.0,-5923.0,-8.0,-1.0,5.0,-34.0,-51.0,-28.0,-15.0,-7.0,0.7755191326141357
200,-1662.0,1286.0,-1171.0,1.0,-12347.0,-8996.0,6.0,-5923.0,3.0,19.0,39.0,52.0,-44.0,-30.0,-3.0,1.0,0.7782068252563477
201,-1662.0,1286.0,-1171.0,1.0,-12347.0,-8996.0,6.0,-5923.0,-5.0,-17.0,-46.0,29.0,28.0,25.0,7.0,-1.0,0.7878167629241943
202,-2238.0,1373.0,-1531.0,1.0,-12658.0,-8603.0,-187.0,-5847.0,-5.0,-17.0,-46.0,29.0,28.0,25.0,7.0,-1.0,0.7895863056182861
203,-2238.0,1373.0,-1531.0,1.0,-12658.0,-8603.0,-187.0,-5847.0,-2.0,-7.0,25.0,81.0,0.0,3.0,-1.0,3.0,0.7954146862030029
204,-2238.0,1373.0,-1531.0,1.0,-12658.0,-8603.0,-187.0,-5847.0,3.0,-8.0,-2.0,-9.0,-19.0,5.0,8.0,3.0,0.8102209568023682
205,-2889.0,1557.0,-1798.0,1.0,-13027.0,-8100.0,-385.0,-5745.0,3.0,-8.0,-2.0,-9.0,-19.0,5.0,8.0,3.0,0.8119845390319824
206,-2889.0,1557.0,-1798.0,1.0,-13027.0,-8100.0,-385.0,-5745.0,-5.0,-23.0,-57.0,-22.0,-3.0,0.0,-8.0,-3.0,0.8173251152038574
207,-2889.0,1557.0,-1798.0,1.0,-13027.0,-8100.0,-385.0,-5745.0,8.0,26.0,5.0,-9.0,32.0,-3.0,4.0,4.0,0.8254804611206055
208,-3325.0,1768.0,-1880.0,1.0,-13411.0,-7511.0,-588.0,-5644.0,8.0,26.0,5.0,-9.0,32.0,-3.0,4.0,4.0,0.8344540596008301
209,-3325.0,1768.0,-1880.0,1.0,-13411.0,-7511.0,-588.0,-5644.0,2.0,22.0,0.0,43.0,0.0,-4.0,2.0,-3.0,0.8373169898986816
210,-3325.0,1768.0,-1880.0,1.0,-13411.0,-7511.0,-588.0,-5644.0,-6.0,-10.0,-17.0,-53.0,-41.0,-4.0,-1.0,-3.0,0.8480703830718994
211,-3797.0,2024.0,-1835.0,1.0,-13795.0,-6829.0,-795.0,-5558.0,-6.0,-10.0,-17.0,-53.0,-41.0,-4.0,-1.0,-3.0,0.8510036468505859
212,-3797.0,2024.0,-1835.0,1.0,-13795.0,-6829.0,-795.0,-5558.0,-4.0,-18.0,-4.0,3.0,-9.0,-4.0,3.0,1.0,0.8558492660522461
213,-3797.0,2024.0,-1835.0,1.0,-13795.0,-6829.0,-795.0,-5558.0,-4.0,-28.0,41.0,5.0,19.0,8.0,-1.0,-2.0,0.8716087341308594
214,-4115.0,2303.0,-1685.0,1.0,-14151.0,-6076.0,-1015.0,-5501.0,-4.0,-28.0,41.0,5.0,19.0,8.0,-1.0,-2.0,0.8749804496765137
215,-4115.0,2303.0,-1685.0,1.0,-14151.0,-6076.0,-1015.0,-5501.0,-9.0,-26.0,-21.0,19.0,-29.0,-9.0,-7.0,-13.0,0.8784685134887695
216,-4115.0,2303.0,-1685.0,1.0,-14151.0,-6076.0,-1015.0,-5501.0,-4.0,-23.0,-107.0,-50.0,-57.0,13.0,-1.0,-1.0,0.8848509788513184
217,-4202.0,2461.0,-1541.0,1.0,-14458.0,-5296.0,-1242.0,-5463.0,-4.0,-23.0,-107.0,-50.0,-57.0,13.0,-1.0,-1.0,0.8933658599853516
218,-4202.0,2461.0,-1541.0,1.0,-14458.0,-5296.0,-1242.0,-5463.0,9.0,28.0,19.0,-8.0,5.0,-5.0,1.0,-1.0,0.896625280380249
219,-4202.0,2461.0,-1541.0,1.0,-14458.0,-5296.0,-1242.0,-5463.0,-2.0,-14.0,-20.0,27.0,13.0,7.0,-5.0,-1.0,0.9088099002838135
220,-4307.0,2656.0,-1460.0,1.0,-14719.0,-4480.0,-1480.0,-5437.0,-2.0,-14.0,-20.0,27.0,13.0,7.0,-5.0,-1.0,0.9118900299072266
221,-4307.0,2656.0,-1460.0,1.0,-14719.0,-4480.0,-1480.0,-5437.0,-4.0,-8.0,12.0,-15.0,-2.0,-3.0,-2.0,3.0,0.9155175685882568
222,-4307.0,2656.0,-1460.0,1.0,-14719.0,-4480.0,-1480.0,-5437.0,0.0,11.0,22.0,30.0,-4.0,-6.0,3.0,1.0,0.931793212890625
223,-4185.0,2875.0,-1494.0,1.0,-14930.0,-3650.0,-1751.0,-5401.0,0.0,11.0,22.0,30.0,-4.0,-6.0,3.0,1.0,0.936406135559082
224,-4185.0,2875.0,-1494.0,1.0,-14930.0,-3650.0,-1751.0,-5401.0,1.0,-9.0,-11.0,13.0,5.0,2.0,2.0,-2.0,0.9401655197143555
225,-4185.0,2875.0,-1494.0,1.0,-14930.0,-3650.0,-1751.0,-5401.0,0.0,-3.0,-13.0,14.0,15.0,0.0,0.0,-2.0,0.9445879459381104
226,-3669.0,3329.0,-1418.0,1.0,-15064.0,-2867.0,-2119.0,-5369.0,0.0,-3.0,-13.0,14.0,15.0,0.0,0.0,-2.0,0.9531545639038086
227,-3669.0,3329.0,-1418.0,1.0,-15064.0,-2867.0,-2119.0,-5369.0,0.0,-3.0,-13.0,14.0,15.0,0.0,0.0,-2.0,0.9550032615661621
228,-3669.0,3329.0,-1418.0,1.0,-15064.0,-2867.0,-2119.0,-5369.0,-7.0,-20.0,27.0,-15.0,-3.0,-1.0,2.0,1.0,0.9683032035827637
229,-3669.0,3329.0,-1418.0,1.0,-15064.0,-2867.0,-2119.0,-5369.0,4.0,4.0,39.0,12.0,13.0,-6.0,-3.0,-1.0,0.9701118469238281
230,-3470.0,3768.0,-1505.0,1.0,-15143.0,-2074.0,-2563.0,-5318.0,4.0,4.0,39.0,12.0,13.0,-6.0,-3.0,-1.0,0.9718849658966064
231,-3470.0,3768.0,-1505.0,1.0,-15143.0,-2074.0,-2563.0,-5318.0,-1.0,9.0,-20.0,-21.0,-7.0,3.0,2.0,-6.0,0.9744210243225098
232,-3470.0,3768.0,-1505.0,1.0,-15143.0,-2074.0,-2563.0,-5318.0,9.0,25.0,-36.0,6.0,10.0,4.0,6.0,3.0,0.990307092666626
233,-3279.0,4253.0,-1652.0,1.0,-15164.0,-1264.0,-3096.0,-5228.0,9.0,25.0,-36.0,6.0,10.0,4.0,6.0,3.0,0.9921681880950928
234,-3279.0,4253.0,-1652.0,1.0,-15164.0,-1264.0,-3096.0,-5228.0,1.0,-4.0,-29.0,-21.0,-7.0,-8.0,-4.0,1.0,0.9986281394958496
235,-3279.0,4253.0,-1652.0,1.0,-15164.0,-1264.0,-3096.0,-5228.0,-16.0,-51.0,-62.0,23.0,5.0,2.0,1.0,-4.0,1.0052754878997803
236,-2669.0,4615.0,-1844.0,1.0,-15122.0,-515.0,-3714.0,-5073.0,-16.0,-51.0,-62.0,23.0,5.0,2.0,1.0,-4.0,1.0130841732025146
237,-2669.0,4615.0,-1844.0,1.0,-15122.0,-515.0,-3714.0,-5073.0,2.0,5.0,-1.0,16.0,9.0,-35.0,3.0,3.0,1.0149364471435547
238,-2669.0,4615.0,-1844.0,1.0,-15122.0,-515.0,-3714.0,-5073.0,-3.0,-5.0,10.0,13.0,10.0,-6.0,-3.0,-4.0,1.0292303562164307
239,-2040.0,4932.0,-2135.0,1.0,-15023.0,157.0,-4408.0,-4828.0,-3.0,-5.0,10.0,13.0,10.0,-6.0,-3.0,-4.0,1.0326647758483887
240,-2040.0,4932.0,-2135.0,1.0,-15023.0,157.0,-4408.0,-4828.0,8.0,29.0,53.0,-20.0,-3.0,7.0,-1.0,5.0,1.0361461639404297
241,-2040.0,4932.0,-2135.0,1.0,-15023.0,157.0,-4408.0,-4828.0,4.0,25.0,50.0,13.0,-11.0,1.0,-1.0,2.0,1.0517034530639648
242,-2172.0,4986.0,-2454.0,1.0,-14877.0,871.0,-5094.0,-4520.0,4.0,25.0,50.0,13.0,-11.0,1.0,-1.0,2.0,1.0554113388061523
243,-2172.0,4986.0,-2454.0,1.0,-14877.0,871.0,-5094.0,-4520.0,10.0,41.0,0.0,1.0,15.0,10.0,3.0,-3.0,1.059171199798584
244,-2172.0,4986.0,-2454.0,1.0,-14877.0,871.0,-5094.0,-4520.0,0.0,8.0,83.0,3.0,13.0,26.0,10.0,-1.0,1.065706491470337
245,-2151.0,4662.0,-2692.0,1.0,-14700.0,1587.0,-5709.0,-4153.0,0.0,8.0,83.0,3.0,13.0,26.0,10.0,-1.0,1.073303461074829
246,-2151.0,4662.0,-2692.0,1.0,-14700.0,1587.0,-5709.0,-4153.0,-9.0,-26.0,47.0,14.0,-11.0,-17.0,-11.0,0.0,1.075225830078125
247,-2151.0,4662.0,-2692.0,1.0,-14700.0,1587.0,-5709.0,-4153.0,-10.0,-25.0,16.0,0.0,1.0,1.0,17.0,-8.0,1.0878431797027588
248,-1638.0,4518.0,-2866.0,1.0,-14489.0,2235.0,-6306.0,-3708.0,-10.0,-25.0,16.0,0.0,1.0,1.0,17.0,-8.0,1.091496467590332
249,-1638.0,4518.0,-2866.0,1.0,-14489.0,2235.0,-6306.0,-3708.0,-7.0,-15.0,6.0,5.0,5.0,5.0,0.0,2.0,1.0983917713165283
250,-1638.0,4518.0,-2866.0,1.0,-14489.0,2235.0,-6306.0,-3708.0,-7.0,-24.0,-63.0,20.0,-1.0,1.0,-7.0,-10.0,1.1105153560638428
251,-871.0,4400.0,-2852.0,1.0,-14252.0,2764.0,-6891.0,-3194.0,-7.0,-24.0,-63.0,20.0,-1.0,1.0,-7.0,-10.0,1.11238694190979
252,-871.0,4400.0,-2852.0,1.0,-14252.0,2764.0,-6891.0,-3194.0,0.0,-7.0,-50.0,6.0,1.0,13.0,-11.0,0.0,1.1179819107055664
253,-871.0,4400.0,-2852.0,1.0,-14252.0,2764.0,-6891.0,-3194.0,2.0,31.0,49.0,-25.0,13.0,25.0,2.0,8.0,1.1248152256011963
254,-66.0,4216.0,-2959.0,1.0,-14001.0,3175.0,-7459.0,-2589.0,2.0,31.0,49.0,-25.0,13.0,25.0,2.0,8.0,1.1340587139129639
255,-66.0,4216.0,-2959.0,1.0,-14001.0,3175.0,-7459.0,-2589.0,0.0,-6.0,-27.0,-6.0,-4.0,-8.0,-9.0,2.0,1.1363928318023682
256,-66.0,4216.0,-2959.0,1.0,-14001.0,3175.0,-7459.0,-2589.0,-4.0,-10.0,-7.0,1.0,-17.0,-46.0,-23.0,-6.0,1.148228406906128
257,532.0,3423.0,-3255.0,1.0,-13791.0,3495.0,-7900.0,-1906.0,-4.0,-10.0,-7.0,1.0,-17.0,-46.0,-23.0,-6.0,1.1541523933410645
258,532.0,3423.0,-3255.0,1.0,-13791.0,3495.0,-7900.0,-1906.0,-2.0,2.0,-10.0,-13.0,-22.0,-5.0,14.0,3.0,1.1577773094177246
259,532.0,3423.0,-3255.0,1.0,-13791.0,3495.0,-7900.0,-1906.0,4.0,9.0,81.0,13.0,0.0,-111.0,-2.0,9.0,1.180405855178833
260,305.0,2392.0,-3138.0,1.0,-13649.0,3765.0,-8139.0,-1315.0,4.0,9.0,81.0,13.0,0.0,-111.0,-2.0,9.0,1.1842975616455078
261,305.0,2392.0,-3138.0,1.0,-13649.0,3765.0,-8139.0,-1315.0,2.0,-3.0,-15.0,7.0,-3.0,32.0,-9.0,-14.0,1.1867914199829102
262,305.0,2392.0,-3138.0,1.0,-13649.0,3765.0,-8139.0,-1315.0,15.0,33.0,29.0,17.0,37.0,25.0,11.0,3.0,1.1885936260223389
263,46.0,1476.0,-2428.0,1.0,-13548.0,3993.0,-8256.0,-889.0,15.0,33.0,29.0,17.0,37.0,25.0,11.0,3.0,1.1931040287017822
264,46.0,1476.0,-2428.0,1.0,-13548.0,3993.0,-8256.0,-889.0,-4.0,-10.0,-37.0,-31.0,-10.0,-38.0,-12.0,4.0,1.1957595348358154
265,46.0,1476.0,-2428.0,1.0,-13548.0,3993.0,-8256.0,-889.0,-2.0,5.0,-71.0,10.0,-3.0,6.0,1.0,-3.0,1.2080323696136475
266,280.0,641.0,-1353.0,1.0,-13514.0,4079.0,-8293.0,-636.0,-2.0,5.0,-71.0,10.0,-3.0,6.0,1.0,-3.0,1.2116303443908691
267,280.0,641.0,-1353.0,1.0,-13514.0,4079.0,-8293.0,-636.0,-2.0,-2.0,11.0,36.0,76.0,64.0,7.0,1.0,1.2166845798492432
268,280.0,641.0,-1353.0,1.0,-13514.0,4079.0,-8293.0,-636.0,-8.0,-25.0,-37.0,-37.0,10.0,26.0,-22.0,-3.0,1.231569528579712
269,506.0,-195.0,-317.0,1.0,-13556.0,4032.0,-8254.0,-552.0,-8.0,-25.0,-37.0,-37.0,10.0,26.0,-22.0,-3.0,1.2350952625274658
270,506.0,-195.0,-317.0,1.0,-13556.0,4032.0,-8254.0,-552.0,6.0,11.0,-30.0,16.0,19.0,36.0,9.0,-1.0,1.2370061874389648
271,506.0,-195.0,-317.0,1.0,-13556.0,4032.0,-8254.0,-552.0,-3.0,-10.0,5.0,39.0,9.0,18.0,3.0,-2.0,1.2446718215942383
272,644.0,-863.0,949.0,1.0,-13655.0,3845.0,-8171.0,-672.0,-3.0,-10.0,5.0,39.0,9.0,18.0,3.0,-2.0,1.253086805343628
273,644.0,-863.0,949.0,1.0,-13655.0,3845.0,-8171.0,-672.0,-1.0,-7.0,3.0,-13.0,-29.0,-8.0,5.0,2.0,1.2551729679107666
274,644.0,-863.0,949.0,1.0,-13655.0,3845.0,-8171.0,-672.0,6.0,13.0,11.0,40.0,0.0,20.0,10.0,5.0,1.2687654495239258
275,1073.0,-1484.0,2330.0,1.0,-13808.0,3465.0,-8051.0,-985.0,6.0,13.0,11.0,40.0,0.0,20.0,10.0,5.0,1.2719793319702148
276,1073.0,-1484.0,2330.0,1.0,-13808.0,3465.0,-8051.0,-985.0,-27.0,-88.0,-37.0,29.0,15.0,-83.0,-7.0,-8.0,1.2752749919891357
277,1073.0,-1484.0,2330.0,1.0,-13808.0,3465.0,-8051.0,-985.0,14.0,5.0,-1.0,-6.0,3.0,47.0,13.0,11.0,1.2904231548309326
278,1589.0,-2275.0,3363.0,1.0,-14016.0,2902.0,-7844.0,-1436.0,14.0,5.0,-1.0,-6.0,3.0,47.0,13.0,11.0,1.2924349308013916
279,1589.0,-2275.0,3363.0,1.0,-14016.0,2902.0,-7844.0,-1436.0,-5.0,-22.0,-12.0,-14.0,-9.0,-27.0,-1.0,4.0,1.2965824604034424
280,1589.0,-2275.0,3363.0,1.0,-14016.0,2902.0,-7844.0,-1436.0,-2.0,3.0,-14.0,-31.0,-75.0,-32.0,4.0,-7.0,1.304734230041504
281,2075.0,-2868.0,3967.0,1.0,-14241.0,2197.0,-7551.0,-1953.0,-2.0,3.0,-14.0,-31.0,-75.0,-32.0,4.0,-7.0,1.3132028579711914
282,2075.0,-2868.0,3967.0,1.0,-14241.0,2197.0,-7551.0,-1953.0,5.0,30.0,35.0,-4.0,-5.0,31.0,-2.0,3.0,1.315093755722046
283,2075.0,-2868.0,3967.0,1.0,-14241.0,2197.0,-7551.0,-1953.0,6.0,17.0,10.0,-42.0,-39.0,-1.0,-2.0,2.0,1.3279407024383545
284,2224.0,-3252.0,4388.0,1.0,-14421.0,1456.0,-7218.0,-2505.0,6.0,17.0,10.0,-42.0,-39.0,-1.0,-2.0,2.0,1.3309152126312256
285,2224.0,-3252.0,4388.0,1.0,-14421.0,1456.0,-7218.0,-2505.0,19.0,28.0,27.0,-14.0,-26.0,-8.0,-25.0,-1.0,1.3360579013824463
286,2224.0,-3252.0,4388.0,1.0,-14421.0,1456.0,-7218.0,-2505.0,-4.0,-45.0,-58.0,-2.0,40.0,-27.0,-73.0,-33.0,1.3520169258117676
287,2682.0,-3689.0,4300.0,1.0,-14597.0,610.0,-6776.0,-3014.0,-4.0,-45.0,-58.0,-2.0,40.0,-27.0,-73.0,-33.0,1.3553547859191895
288,2682.0,-3689.0,4300.0,1.0,-14597.0,610.0,-6776.0,-3014.0,7.0,14.0,34.0,27.0,17.0,-20.0,112.0,-11.0,1.3583004474639893
289,2682.0,-3689.0,4300.0,1.0,-14597.0,610.0,-6776.0,-3014.0,-31.0,-13.0,-26.0,5.0,-22.0,-34.0,-34.0,-22.0,1.3645191192626953
290,3735.0,-3992.0,3904.0,1.0,-14748.0,-424.0,-6270.0,-3386.0,-31.0,-13.0,-26.0,5.0,-22.0,-34.0,-34.0,-22.0,1.3735473155975342
291,3735.0,-3992.0,3904.0,1.0,-14748.0,-424.0,-6270.0,-3386.0,-33.0,14.0,16.0,1.0,20.0,23.0,84.0,13.0,1.376582145690918
292,3735.0,-3992.0,3904.0,1.0,-14748.0,-424.0,-6270.0,-3386.0,79.0,6.0,-4.0,-3.0,30.0,75.0,41.0,98.0,1.3884613513946533
293,4656.0,-3859.0,4132.0,1.0,-14791.0,-1593.0,-5783.0,-3703.0,79.0,6.0,-4.0,-3.0,30.0,75.0,41.0,98.0,1.390404462814331
294,4656.0,-3859.0,4132.0,1.0,-14791.0,-1593.0,-5783.0,-3703.0,-3.0,3.0,-4.0,-14.0,52.0,28.0,-101.0,-33.0,1.3947749137878418
295,4656.0,-3859.0,4132.0,1.0,-14791.0,-1593.0,-5783.0,-3703.0,-128.0,4.0,3.0,16.0,-16.0,2.0,-93.0,-128.0,1.4113945960998535
296,4698.0,-3793.0,5260.0,1.0,-14680.0,-2826.0,-5250.0,-4173.0,-128.0,4.0,3.0,16.0,-16.0,2.0,-93.0,-128.0,1.4149460792541504
297,4698.0,-3793.0,5260.0,1.0,-14680.0,-2826.0,-5250.0,-4173.0,-128.0,4.0,3.0,16.0,-16.0,2.0,-93.0,-128.0,1.4184341430664062
298,4698.0,-3793.0,5260.0,1.0,-14680.0,-2826.0,-5250.0,-4173.0,101.0,20.0,6.0,-46.0,-117.0,-34.0,79.0,111.0,1.4347095489501953
299,4698.0,-3793.0,5260.0,1.0,-14680.0,-2826.0,-5250.0,-4173.0,-17.0,12.0,36.0,72.0,115.0,98.0,-53.0,-32.0,1.4378714561462402
300,4233.0,-2634.0,6172.0,1.0,-14366.0,-3962.0,-4813.0,-4820.0,-17.0,12.0,36.0,72.0,115.0,98.0,-53.0,-32.0,1.4408154487609863
301,4233.0,-2634.0,6172.0,1.0,-14366.0,-3962.0,-4813.0,-4820.0,-99.0,-37.0,-29.0,-49.0,-76.0,-94.0,-24.0,-80.0,1.4435665607452393
302,4233.0,-2634.0,6172.0,1.0,-14366.0,-3962.0,-4813.0,-4820.0,71.0,15.0,1.0,14.0,-112.0,-60.0,6.0,13.0,1.4475655555725098
303,3534.0,-1803.0,6307.0,1.0,-13930.0,-4925.0,-4429.0,-5527.0,71.0,15.0,1.0,14.0,-112.0,-60.0,6.0,13.0,1.4497981071472168
304,3534.0,-1803.0,6307.0,1.0,-13930.0,-4925.0,-4429.0,-5527.0,57.0,23.0,29.0,3.0,102.0,-53.0,-97.0,85.0,1.4548146724700928
305,3534.0,-1803.0,6307.0,1.0,-13930.0,-4925.0,-4429.0,-5527.0,2.0,-11.0,23.0,15.0,27.0,-87.0,-100.0,76.0,1.4712796211242676
306,3996.0,-1501.0,5548.0,1.0,-13414.0,-5874.0,-4132.0,-6078.0,2.0,-11.0,23.0,15.0,27.0,-87.0,-100.0,76.0,1.475203275680542
307,3996.0,-1501.0,5548.0,1.0,-13414.0,-5874.0,-4132.0,-6078.0,-33.0,-34.0,2.0,-1.0,69.0,10.0,93.0,-26.0,1.4785521030426025
308,3996.0,-1501.0,5548.0,1.0,-13414.0,-5874.0,-4132.0,-6078.0,-45.0,0.0,8.0,-120.0,-78.0,-46.0,127.0,3.0,1.4854493141174316
309,5973.0,-1763.0,3461.0,1.0,-12843.0,-7000.0,-4036.0,-6184.0,-45.0,0.0,8.0,-120.0,-78.0,-46.0,127.0,3.0,1.4927287101745605
310,5973.0,-1763.0,3461.0,1.0,-12843.0,-7000.0,-4036.0,-6184.0,15.0,72.0,22.0,39.0,40.0,82.0,-85.0,-6.0,1.4945573806762695
311,5973.0,-1763.0,3461.0,1.0,-12843.0,-7000.0,-4036.0,-6184.0,10.0,-99.0,-92.0,-32.0,37.0,7.0,82.0,1.0,1.5079460144042969
312,5491.0,-846.0,2285.0,1.0,-12280.0,-7910.0,-4104.0,-6185.0,10.0,-99.0,-92.0,-32.0,37.0,7.0,82.0,1.0,1.509730339050293
313,5491.0,-846.0,2285.0,1.0,-12280.0,-7910.0,-4104.0,-6185.0,3.0,-22.0,65.0,49.0,-74.0,38.0,62.0,-70.0,1.5147292613983154
314,5491.0,-846.0,2285.0,1.0,-12280.0,-7910.0,-4104.0,-6185.0,16.0,-22.0,-56.0,7.0,114.0,-59.0,-64.0,16.0,1.5304896831512451
315,5122.0,-127.0,-12.0,1.0,-11826.0,-8590.0,-4427.0,-5934.0,16.0,-22.0,-56.0,7.0,114.0,-59.0,-64.0,16.0,1.5325448513031006
316,5122.0,-127.0,-12.0,1.0,-11826.0,-8590.0,-4427.0,-5934.0,-8.0,22.0,24.0,31.0,-33.0,-69.0,-116.0,25.0,1.538593053817749
317,5122.0,-127.0,-12.0,1.0,-11826.0,-8590.0,-4427.0,-5934.0,10.0,64.0,-5.0,106.0,100.0,93.0,73.0,15.0,1.5453572273254395
318,5073.0,-1109.0,-3312.0,1.0,-11593.0,-9136.0,-4912.0,-5146.0,10.0,64.0,-5.0,106.0,100.0,93.0,73.0,15.0,1.5528576374053955
319,5073.0,-1109.0,-3312.0,1.0,-11593.0,-9136.0,-4912.0,-5146.0,-1.0,35.0,98.0,56.0,121.0,30.0,-110.0,5.0,1.5547547340393066
320,5073.0,-1109.0,-3312.0,1.0,-11593.0,-9136.0,-4912.0,-5146.0,-15.0,-32.0,-87.0,-35.0,-75.0,12.0,-65.0,-15.0,1.5686657428741455
321,2839.0,-230.0,-4472.0,1.0,-11586.0,-9214.0,-5485.0,-4387.0,-15.0,-32.0,-87.0,-35.0,-75.0,12.0,-65.0,-15.0,1.5718605518341064
322,2839.0,-230.0,-4472.0,1.0,-11586.0,-9214.0,-5485.0,-4387.0,0.0,-1.0,-20.0,-128.0,-36.0,-64.0,102.0,15.0,1.5753307342529297
323,2839.0,-230.0,-4472.0,1.0,-11586.0,-9214.0,-5485.0,-4387.0,-77.0,-70.0,-57.0,-66.0,-95.0,69.0,76.0,-44.0,1.59126877784729
324,3493.0,1342.0,2408.0,1.0,-11027.0,-9724.0,-5573.0,-4612.0,-77.0,-70.0,-57.0,-66.0,-95.0,69.0,76.0,-44.0,1.5943763256072998
325,3493.0,1342.0,2408.0,1.0,-11027.0,-9724.0,-5573.0,-4612.0,27.0,-56.0,-87.0,9.0,-107.0,1.0,-57.0,-34.0,1.598609209060669
326,3493.0,1342.0,2408.0,1.0,-11027.0,-9724.0,-5573.0,-4612.0,116.0,62.0,58.0,60.0,-4.0,4.0,23.0,61.0,1.6052956581115723
327,343.0,-989.0,1296.0,1.0,-10981.0,-9886.0,-5418.0,-4561.0,116.0,62.0,58.0,60.0,-4.0,4.0,23.0,61.0,1.613112449645996
328,343.0,-989.0,1296.0,1.0,-10981.0,-9886.0,-5418.0,-4561.0,-15.0,56.0,-70.0,-6.0,10.0,-22.0,126.0,14.0,1.6149866580963135
329,343.0,-989.0,1296.0,1.0,-10981.0,-9886.0,-5418.0,-4561.0,107.0,53.0,74.0,14.0,101.0,80.0,-73.0,61.0,1.6294538974761963
330,-2212.0,-1246.0,1456.0,1.0,-11215.0,-9764.0,-4999.0,-4729.0,107.0,53.0,74.0,14.0,101.0,80.0,-73.0,61.0,1.6330769062042236
331,-2212.0,-1246.0,1456.0,1.0,-11215.0,-9764.0,-4999.0,-4729.0,-24.0,-30.0,-42.0,-45.0,10.0,11.0,-128.0,96.0,1.6369898319244385
332,-2212.0,-1246.0,1456.0,1.0,-11215.0,-9764.0,-4999.0,-4729.0,-77.0,-17.0,35.0,-54.0,4.0,-52.0,-82.0,-128.0,1.6502907276153564
333,-767.0,-410.0,1527.0,1.0,-11286.0,-9721.0,-4653.0,-4994.0,-77.0,-17.0,35.0,-54.0,4.0,-52.0,-82.0,-128.0,1.6522040367126465
334,-767.0,-410.0,1527.0,1.0,-11286.0,-9721.0,-4653.0,-4994.0,-38.0,-28.0,-76.0,90.0,-19.0,-55.0,55.0,-115.0,1.658998727798462
335,-767.0,-410.0,1527.0,1.0,-11286.0,-9721.0,-4653.0,-4994.0,-58.0,-13.0,-44.0,-38.0,14.0,-47.0,-69.0,16.0,1.6651084423065186
336,1595.0,-17.0,131.0,1.0,-11086.0,-9950.0,-4670.0,-4975.0,-58.0,-13.0,-44.0,-38.0,14.0,-47.0,-69.0,16.0,1.6729145050048828
337,1595.0,-17.0,131.0,1.0,-11086.0,-9950.0,-4670.0,-4975.0,93.0,37.0,118.0,-4.0,86.0,15.0,127.0,62.0,1.6748054027557373
338,1595.0,-17.0,131.0,1.0,-11086.0,-9950.0,-4670.0,-4975.0,-68.0,53.0,72.0,79.0,71.0,-68.0,127.0,-44.0,1.6883621215820312
339,1919.0,759.0,1035.0,1.0,-10782.0,-10188.0,-4744.0,-5091.0,-68.0,53.0,72.0,79.0,71.0,-68.0,127.0,-44.0,1.6929419040679932
340,1919.0,759.0,1035.0,1.0,-10782.0,-10188.0,-4744.0,-5091.0,-29.0,-47.0,-45.0,-19.0,-71.0,127.0,101.0,19.0,1.6965670585632324
341,1919.0,759.0,1035.0,1.0,-10782.0,-10188.0,-4744.0,-5091.0,-42.0,-35.0,-2.0,-89.0,-35.0,-37.0,81.0,-51.0,1.7115302085876465
342,533.0,908.0,1487.0,1.0,-10621.0,-10242.0,-4693.0,-5359.0,-42.0,-35.0,-2.0,-89.0,-35.0,-37.0,81.0,-51.0,1.7151598930358887
343,533.0,908.0,1487.0,1.0,-10621.0,-10242.0,-4693.0,-5359.0,-22.0,-33.0,-69.0,-6.0,12.0,86.0,-65.0,-77.0,1.7189412117004395
344,533.0,908.0,1487.0,1.0,-10621.0,-10242.0,-4693.0,-5359.0,23.0,-48.0,-97.0,-51.0,-102.0,8.0,127.0,12.0,1.7249534130096436
345,-704.0,674.0,969.0,1.0,-10622.0,-10151.0,-4563.0,-5637.0,23.0,-48.0,-97.0,-51.0,-102.0,8.0,127.0,12.0,1.7335641384124756
346,-704.0,674.0,969.0,1.0,-10622.0,-10151.0,-4563.0,-5637.0,30.0,-10.0,21.0,-7.0,-35.0,31.0,-57.0,77.0,1.7372071743011475
347,-704.0,674.0,969.0,1.0,-10622.0,-10151.0,-4563.0,-5637.0,63.0,6.0,35.0,67.0,-28.0,72.0,-128.0,80.0,1.7489652633666992
348,-988.0,494.0,685.0,1.0,-10656.0,-10050.0,-4528.0,-5780.0,63.0,6.0,35.0,67.0,-28.0,72.0,-128.0,80.0,1.753002643585205
349,-988.0,494.0,685.0,1.0,-10656.0,-10050.0,-4528.0,-5780.0,-80.0,-65.0,-41.0,14.0,55.0,22.0,-128.0,-128.0,1.7567367553710938
350,-988.0,494.0,685.0,1.0,-10656.0,-10050.0,-4528.0,-5780.0,-23.0,44.0,17.0,-2.0,-62.0,55.0,-112.0,-29.0,1.7709507942199707
351,-1181.0,453.0,630.0,1.0,-10650.0,-10006.0,-4559.0,-5844.0,-23.0,44.0,17.0,-2.0,-62.0,55.0,-112.0,-29.0,1.7735018730163574
352,-1181.0,453.0,630.0,1.0,-10650.0,-10006.0,-4559.0,-5844.0,6.0,19.0,54.0,68.0,21.0,49.0,-100.0,85.0,1.7773847579956055
353,-1181.0,453.0,630.0,1.0,-10650.0,-10006.0,-4559.0,-5844.0,9.0,25.0,36.0,-30.0,74.0,-68.0,89.0,-41.0,1.7856826782226562
354,-791.0,288.0,87.0,1.0,-10643.0,-9982.0,-4548.0,-5905.0,9.0,25.0,36.0,-30.0,74.0,-68.0,89.0,-41.0,1.7928168773651123
355,-791.0,288.0,87.0,1.0,-10643.0,-9982.0,-4548.0,-5905.0,-100.0,8.0,-12.0,-57.0,127.0,42.0,-60.0,-95.0,1.7946789264678955
356,-791.0,288.0,87.0,1.0,-10643.0,-9982.0,-4548.0,-5905.0,29.0,16.0,-40.0,-51.0,13.0,-64.0,-75.0,-21.0,1.807893991470337
357,-5.0,167.0,-321.0,1.0,-10631.0,-9980.0,-4575.0,-5909.0,29.0,16.0,-40.0,-51.0,13.0,-64.0,-75.0,-21.0,1.8113243579864502
358,-5.0,167.0,-321.0,1.0,-10631.0,-9980.0,-4575.0,-5909.0,18.0,4.0,28.0,71.0,81.0,73.0,127.0,89.0,1.8177621364593506
359,-5.0,167.0,-321.0,1.0,-10631.0,-9980.0,-4575.0,-5909.0,-29.0,-79.0,-104.0,-7.0,-47.0,-26.0,121.0,76.0,1.832610845565796
360,-28.0,-53.0,-439.0,1.0,-10660.0,-9964.0,-4620.0,-5848.0,-29.0,-79.0,-104.0,-7.0,-47.0,-26.0,121.0,76.0,1.836592197418213
361,-28.0,-53.0,-439.0,1.0,-10660.0,-9964.0,-4620.0,-5848.0,3.0,-26.0,-105.0,-30.0,-41.0,-97.0,-114.0,-49.0,1.8406834602355957
362,-28.0,-53.0,-439.0,1.0,-10660.0,-9964.0,-4620.0,-5848.0,7.0,8.0,98.0,-13.0,-5.0,-89.0,70.0,43.0,1.8546340465545654
363,-554.0,-131.0,-220.0,1.0,-10704.0,-9939.0,-4607.0,-5822.0,7.0,8.0,98.0,-13.0,-5.0,-89.0,70.0,43.0,1.8575899600982666
364,-554.0,-131.0,-220.0,1.0,-10704.0,-9939.0,-4607.0,-5822.0,20.0,16.0,-61.0,-29.0,-38.0,13.0,-54.0,2.0,1.8606479167938232
365,-554.0,-131.0,-220.0,1.0,-10704.0,-9939.0,-4607.0,-5822.0,-102.0,-49.0,-30.0,64.0,46.0,8.0,-90.0,-128.0,1.868478536605835
366,-382.0,-85.0,47.0,1.0,-10705.0,-9948.0,-4557.0,-5844.0,-102.0,-49.0,-30.0,64.0,46.0,8.0,-90.0,-128.0,1.870361089706421
367,-382.0,-85.0,47.0,1.0,-10705.0,-9948.0,-4557.0,-5844.0,-57.0,21.0,87.0,28.0,-58.0,-114.0,66.0,-38.0,1.8749356269836426
368,-382.0,-85.0,47.0,1.0,-10705.0,-9948.0,-4557.0,-5844.0,53.0,51.0,38.0,-10.0,33.0,127.0,-119.0,-88.0,1.8904547691345215
369,192.0,81.0,273.0,1.0,-10670.0,-9969.0,-4533.0,-5891.0,53.0,51.0,38.0,-10.0,33.0,127.0,-119.0,-88.0,1.892223596572876
370,192.0,81.0,273.0,1.0,-10670.0,-9969.0,-4533.0,-5891.0,111.0,7.0,8.0,-32.0,-66.0,61.0,38.0,-1.0,1.8974344730377197
371,192.0,81.0,273.0,1.0,-10670.0,-9969.0,-4533.0,-5891.0,-31.0,-13.0,-29.0,-27.0,-56.0,-32.0,-33.0,-16.0,1.9143908023834229
372,47.0,101.0,331.0,1.0,-10656.0,-9964.0,-4507.0,-5944.0,-31.0,-13.0,-29.0,-27.0,-56.0,-32.0,-33.0,-16.0,1.9182713031768799
373,47.0,101.0,331.0,1.0,-10656.0,-9964.0,-4507.0,-5944.0,-20.0,29.0,89.0,-29.0,8.0,-27.0,74.0,-25.0,1.9218528270721436
374,47.0,101.0,331.0,1.0,-10656.0,-9964.0,-4507.0,-5944.0,44.0,-6.0,52.0,-28.0,-59.0,112.0,36.0,66.0,1.9290165901184082
375,-328.0,44.0,237.0,1.0,-10662.0,-9946.0,-4441.0,-6013.0,44.0,-6.0,52.0,-28.0,-59.0,112.0,36.0,66.0,1.930919885635376
376,-328.0,44.0,237.0,1.0,-10662.0,-9946.0,-4441.0,-6013.0,-3.0,-20.0,-67.0,-93.0,85.0,-85.0,37.0,32.0,1.9348821640014648
377,-328.0,44.0,237.0,1.0,-10662.0,-9946.0,-4441.0,-6013.0,1.0,5.0,-26.0,6.0,-10.0,23.0,-84.0,9.0,1.9510927200317383
378,-142.0,117.0,141.0,1.0,-10638.0,-9953.0,-4411.0,-6064.0,1.0,5.0,-26.0,6.0,-10.0,23.0,-84.0,9.0,1.95294189453125
379,-142.0,117.0,141.0,1.0,-10638.0,-9953.0,-4411.0,-6064.0,96.0,42.0,45.0,82.0,-16.0,127.0,100.0,54.0,1.957437515258789
380,-142.0,117.0,141.0,1.0,-10638.0,-9953.0,-4411.0,-6064.0,72.0,-10.0,-4.0,68.0,58.0,15.0,-69.0,58.0,1.974621057510376
381,121.0,182.0,38.0,1.0,-10607.0,-9967.0,-4453.0,-6066.0,72.0,-10.0,-4.0,68.0,58.0,15.0,-69.0,58.0,1.9780762195587158
382,121.0,182.0,38.0,1.0,-10607.0,-9967.0,-4453.0,-6066.0,4.0,4.0,-14.0,-14.0,-75.0,44.0,-81.0,75.0,1.9816579818725586
383,121.0,182.0,38.0,1.0,-10607.0,-9967.0,-4453.0,-6066.0,-40.0,-33.0,-12.0,29.0,-2.0,47.0,4.0,-1.0,1.9888417720794678
384,-101.0,126.0,-8.0,1.0,-10608.0,-9952.0,-4476.0,-6071.0,-40.0,-33.0,-12.0,29.0,-2.0,47.0,4.0,-1.0,1.9907844066619873
385,-101.0,126.0,-8.0,1.0,-10608.0,-9952.0,-4476.0,-6071.0,-9.0,-1.0,-68.0,-51.0,-46.0,-100.0,-107.0,8.0,1.9950473308563232
386,-101.0,126.0,-8.0,1.0,-10608.0,-9952.0,-4476.0,-6071.0,-24.0,-43.0,-2.0,75.0,107.0,2.0,60.0,-40.0,2.0114777088165283
387,-261.0,105.0,17.0,1.0,-10616.0,-9930.0,-4450.0,-6112.0,-24.0,-43.0,-2.0,75.0,107.0,2.0,60.0,-40.0,2.0148580074310303
388,-261.0,105.0,17.0,1.0,-10616.0,-9930.0,-4450.0,-6112.0,-46.0,-24.0,-30.0,19.0,-37.0,-88.0,-83.0,-35.0,2.0190207958221436
389,-261.0,105.0,17.0,1.0,-10616.0,-9930.0,-4450.0,-6112.0,-65.0,36.0,-6.0,-26.0,8.0,-62.0,-91.0,-15.0,2.0363941192626953
390,-119.0,101.0,48.0,1.0,-10601.0,-9933.0,-4444.0,-6136.0,-65.0,36.0,-6.0,-26.0,8.0,-62.0,-91.0,-15.0,2.0402743816375732
391,-119.0,101.0,48.0,1.0,-10601.0,-9933.0,-4444.0,-6136.0,85.0,8.0,-7.0,-17.0,36.0,90.0,53.0,60.0,2.0441269874572754
392,-119.0,101.0,48.0,1.0,-10601.0,-9933.0,-4444.0,-6136.0,-7.0,19.0,38.0,4.0,-27.0,-52.0,-65.0,-14.0,2.047922372817993
393,73.0,61.0,112.0,1.0,-10577.0,-9951.0,-4457.0,-6140.0,-7.0,19.0,38.0,4.0,-27.0,-52.0,-65.0,-14.0,2.0497283935546875
394,73.0,61.0,112.0,1.0,-10577.0,-9951.0,-4457.0,-6140.0,5.0,3.0,24.0,-1.0,-35.0,-56.0,-35.0,-35.0,2.054818630218506
395,73.0,61.0,112.0,1.0,-10577.0,-9951.0,-4457.0,-6140.0,24.0,17.0,103.0,45.0,19.0,38.0,76.0,27.0,2.0719449520111084
396,7.0,3.0,73.0,1.0,-10567.0,-9961.0,-4460.0,-6139.0,24.0,17.0,103.0,45.0,19.0,38.0,76.0,27.0,2.075939178466797
397,7.0,3.0,73.0,1.0,-10567.0,-9961.0,-4460.0,-6139.0,71.0,49.0,80.0,54.0,26.0,38.0,62.0,39.0,2.08024001121521
398,7.0,3.0,73.0,1.0,-10567.0,-9961.0,-4460.0,-6139.0,8.0,11.0,-42.0,-35.0,-51.0,-10.0,-29.0,-11.0,2.095689535140991
399,-113.0,3.0,94.0,1.0,-10562.0,-9963.0,-4431.0,-6165.0,8.0,11.0,-42.0,-35.0,-51.0,-10.0,-29.0,-11.0,2.1004741191864014
400,-113.0,3.0,94.0,1.0,-10562.0,-9963.0,-4431.0,-6165.0,-20.0,36.0,92.0,13.0,77.0,16.0,-2.0,-65.0,2.104679584503174
401,-113.0,3.0,94.0,1.0,-10562.0,-9963.0,-4431.0,-6165.0,-8.0,24.0,8.0,-40.0,27.0,-6.0,-76.0,-19.0,2.108327627182007
402,55.0,25.0,133.0,1.0,-10540.0,-9980.0,-4417.0,-6186.0,-8.0,24.0,8.0,-40.0,27.0,-6.0,-76.0,-19.0,2.1151998043060303
403,55.0,25.0,133.0,1.0,-10540.0,-9980.0,-4417.0,-6186.0,-89.0,-27.0,-55.0,-11.0,25.0,27.0,12.0,-51.0,2.117063283920288
404,55.0,25.0,133.0,1.0,-10540.0,-9980.0,-4417.0,-6186.0,7.0,3.0,-27.0,-18.0,13.0,-25.0,127.0,-41.0,2.1303627490997314
405,167.0,4.0,72.0,1.0,-10511.0,-10010.0,-4430.0,-6178.0,7.0,3.0,-27.0,-18.0,13.0,-25.0,127.0,-41.0,2.1323673725128174
406,167.0,4.0,72.0,1.0,-10511.0,-10010.0,-4430.0,-6178.0,-78.0,-72.0,-56.0,-4.0,-81.0,8.0,103.0,-33.0,2.137207269668579
407,167.0,4.0,72.0,1.0,-10511.0,-10010.0,-4430.0,-6178.0,24.0,8.0,-2.0,42.0,55.0,16.0,-50.0,-10.0,2.1548354625701904
408,-15.0,-11.0,15.0,1.0,-10509.0,-10011.0,-4428.0,-6179.0,24.0,8.0,-2.0,42.0,55.0,16.0,-50.0,-10.0,2.158377170562744
409,-15.0,-11.0,15.0,1.0,-10509.0,-10011.0,-4428.0,-6179.0,-8.0,-8.0,1.0,7.0,33.0,16.0,-20.0,14.0,2.161515951156616
410,-15.0,-11.0,15.0,1.0,-10509.0,-10011.0,-4428.0,-6179.0,20.0,5.0,19.0,-1.0,-24.0,-7.0,127.0,22.0,2.1690025329589844
411,-5.0,-8.0,16.0,1.0,-10502.0,-10019.0,-4413.0,-6191.0,20.0,5.0,19.0,-1.0,-24.0,-7.0,127.0,22.0,2.170959949493408
412,-5.0,-8.0,16.0,1.0,-10502.0,-10019.0,-4413.0,-6191.0,-74.0,-22.0,-58.0,13.0,-9.0,37.0,59.0,-37.0,2.174582004547119
413,-5.0,-8.0,16.0,1.0,-10502.0,-10019.0,-4413.0,-6191.0,47.0,-7.0,3.0,13.0,25.0,-33.0,-17.0,-1.0,2.1912267208099365
414,157.0,-7.0,38.0,1.0,-10477.0,-10045.0,-4420.0,-6185.0,47.0,-7.0,3.0,13.0,25.0,-33.0,-17.0,-1.0,2.19442081451416
415,157.0,-7.0,38.0,1.0,-10477.0,-10045.0,-4420.0,-6185.0,54.0,-1.0,-9.0,-20.0,35.0,-23.0,-11.0,69.0,2.197749614715576
416,157.0,-7.0,38.0,1.0,-10477.0,-10045.0,-4420.0,-6185.0,75.0,50.0,54.0,38.0,9.0,8.0,99.0,88.0,2.2159790992736816
417,-45.0,-1.0,70.0,1.0,-10476.0,-10045.0,-4413.0,-6191.0,75.0,50.0,54.0,38.0,9.0,8.0,99.0,88.0,2.2213006019592285
418,-45.0,-1.0,70.0,1.0,-10476.0,-10045.0,-4413.0,-6191.0,2.0,-5.0,12.0,-7.0,75.0,-9.0,9.0,-39.0,2.225064754486084
419,-45.0,-1.0,70.0,1.0,-10476.0,-10045.0,-4413.0,-6191.0,-27.0,25.0,48.0,2.0,-62.0,-32.0,-25.0,9.0,2.227153778076172
420,-217.0,17.0,79.0,1.0,-10490.0,-10026.0,-4384.0,-6220.0,-27.0,25.0,48.0,2.0,-62.0,-32.0,-25.0,9.0,2.2289533615112305
421,-217.0,17.0,79.0,1.0,-10490.0,-10026.0,-4384.0,-6220.0,3.0,-24.0,-40.0,25.0,53.0,-27.0,-46.0,-25.0,2.235112428665161
422,-217.0,17.0,79.0,1.0,-10490.0,-10026.0,-4384.0,-6220.0,-59.0,-21.0,-20.0,7.0,28.0,-43.0,-7.0,-58.0,2.2526016235351562
423,-143.0,59.0,48.0,1.0,-10495.0,-10012.0,-4361.0,-6251.0,-59.0,-21.0,-20.0,7.0,28.0,-43.0,-7.0,-58.0,2.256061553955078
424,-143.0,59.0,48.0,1.0,-10495.0,-10012.0,-4361.0,-6251.0,13.0,-5.0,-26.0,11.0,-19.0,4.0,-81.0,34.0,2.2595553398132324
425,-143.0,59.0,48.0,1.0,-10495.0,-10012.0,-4361.0,-6251.0,-10.0,-22.0,-91.0,-27.0,-31.0,4.0,-15.0,31.0,2.2749106884002686
426,-6.0,38.0,-25.0,1.0,-10493.0,-10009.0,-4359.0,-6261.0,-10.0,-22.0,-91.0,-27.0,-31.0,4.0,-15.0,31.0,2.279428243637085
427,-6.0,38.0,-25.0,1.0,-10493.0,-10009.0,-4359.0,-6261.0,-2.0,-2.0,6.0,-9.0,18.0,-18.0,66.0,-8.0,2.2841522693634033
428,-6.0,38.0,-25.0,1.0,-10493.0,-10009.0,-4359.0,-6261.0,6.0,5.0,9.0,-35.0,-21.0,35.0,-32.0,37.0,2.2878782749176025
429,-64.0,20.0,-51.0,1.0,-10498.0,-10003.0,-4366.0,-6256.0,6.0,5.0,9.0,-35.0,-21.0,35.0,-32.0,37.0,2.289677143096924
430,-64.0,20.0,-51.0,1.0,-10498.0,-10003.0,-4366.0,-6256.0,2.0,10.0,40.0,67.0,-12.0,59.0,9.0,-6.0,2.294882297515869
431,-64.0,20.0,-51.0,1.0,-10498.0,-10003.0,-4366.0,-6256.0,-15.0,-7.0,-7.0,51.0,-21.0,-6.0,5.0,-9.0,2.312225818634033
432,-217.0,1.0,14.0,1.0,-10513.0,-9987.0,-4353.0,-6264.0,-15.0,-7.0,-7.0,51.0,-21.0,-6.0,5.0,-9.0,2.315939426422119
433,-217.0,1.0,14.0,1.0,-10513.0,-9987.0,-4353.0,-6264.0,14.0,23.0,33.0,-4.0,-16.0,-17.0,-73.0,2.0,2.325624465942383
434,-217.0,1.0,14.0,1.0,-10513.0,-9987.0,-4353.0,-6264.0,-1.0,10.0,-6.0,-72.0,7.0,-37.0,-27.0,-1.0,2.3330984115600586
435,-317.0,-11.0,50.0,1.0,-10536.0,-9964.0,-4326.0,-6282.0,-1.0,10.0,-6.0,-72.0,7.0,-37.0,-27.0,-1.0,2.3349413871765137
436,-317.0,-11.0,50.0,1.0,-10536.0,-9964.0,-4326.0,-6282.0,-17.0,2.0,8.0,-14.0,-2.0,-33.0,-24.0,-28.0,2.3401339054107666
437,-317.0,-11.0,50.0,1.0,-10536.0,-9964.0,-4326.0,-6282.0,7.0,-18.0,-15.0,21.0,-18.0,21.0,37.0,71.0,2.347630739212036
438,-399.0,-83.0,19.0,1.0,-10579.0,-9927.0,-4276.0,-6303.0,7.0,-18.0,-15.0,21.0,-18.0,21.0,37.0,71.0,2.349716901779175
439,-399.0,-83.0,19.0,1.0,-10579.0,-9927.0,-4276.0,-6303.0,-17.0,-8.0,-4.0,-26.0,-14.0,-17.0,-15.0,-10.0,2.354642391204834
440,-399.0,-83.0,19.0,1.0,-10579.0,-9927.0,-4276.0,-6303.0,-5.0,-11.0,-10.0,-14.0,-8.0,10.0,-15.0,-10.0,2.371159315109253
441,-441.0,-195.0,-89.0,1.0,-10640.0,-9884.0,-4210.0,-6312.0,-5.0,-11.0,-10.0,-14.0,-8.0,10.0,-15.0,-10.0,2.3736674785614014
442,-441.0,-195.0,-89.0,1.0,-10640.0,-9884.0,-4210.0,-6312.0,-8.0,-7.0,-19.0,2.0,-13.0,-5.0,-6.0,-11.0,2.3771119117736816
443,-441.0,-195.0,-89.0,1.0,-10640.0,-9884.0,-4210.0,-6312.0,-8.0,5.0,0.0,-15.0,10.0,31.0,0.0,-10.0,2.3933730125427246
444,-523.0,-346.0,-131.0,1.0,-10714.0,-9845.0,-4119.0,-6308.0,-8.0,5.0,0.0,-15.0,10.0,31.0,0.0,-10.0,2.39518404006958
445,-523.0,-346.0,-131.0,1.0,-10714.0,-9845.0,-4119.0,-6308.0,1.0,-5.0,-7.0,5.0,-17.0,-7.0,-13.0,-12.0,2.397285223007202
446,-523.0,-346.0,-131.0,1.0,-10714.0,-9845.0,-4119.0,-6308.0,2.0,-8.0,-9.0,39.0,42.0,25.0,-27.0,-7.0,2.4074223041534424
447,-624.0,-413.0,-72.0,1.0,-10797.0,-9803.0,-4013.0,-6300.0,2.0,-8.0,-9.0,39.0,42.0,25.0,-27.0,-7.0,2.4167966842651367
448,-624.0,-413.0,-72.0,1.0,-10797.0,-9803.0,-4013.0,-6300.0,-1.0,-2.0,7.0,15.0,19.0,-42.0,-11.0,23.0,2.4201767444610596
449,-624.0,-413.0,-72.0,1.0,-10797.0,-9803.0,-4013.0,-6300.0,-7.0,-9.0,-36.0,-97.0,54.0,17.0,-10.0,-10.0,2.4307713508605957
450,-613.0,-482.0,21.0,1.0,-10873.0,-9774.0,-3909.0,-6280.0,-7.0,-9.0,-36.0,-97.0,54.0,17.0,-10.0,-10.0,2.4352781772613525
451,-613.0,-482.0,21.0,1.0,-10873.0,-9774.0,-3909.0,-6280.0,0.0,6.0,18.0,41.0,83.0,31.0,18.0,-9.0,2.4385855197906494
452,-613.0,-482.0,21.0,1.0,-10873.0,-9774.0,-3909.0,-6280.0,-3.0,-1.0,-2.0,26.0,-30.0,-22.0,-1.0,-9.0,2.4545986652374268
453,-950.0,-550.0,-78.0,1.0,-10991.0,-9708.0,-3781.0,-6255.0,-3.0,-1.0,-2.0,26.0,-30.0,-22.0,-1.0,-9.0,2.457979202270508
454,-950.0,-550.0,-78.0,1.0,-10991.0,-9708.0,-3781.0,-6255.0,1.0,-6.0,-21.0,-65.0,-63.0,17.0,5.0,-4.0,2.461481809616089
455,-950.0,-550.0,-78.0,1.0,-10991.0,-9708.0,-3781.0,-6255.0,1.0,-5.0,-1.0,33.0,-12.0,6.0,-6.0,-4.0,2.469046115875244
456,-1141.0,-554.0,-92.0,1.0,-11126.0,-9619.0,-3627.0,-6245.0,1.0,-5.0,-1.0,33.0,-12.0,6.0,-6.0,-4.0,2.4756011962890625
457,-1141.0,-554.0,-92.0,1.0,-11126.0,-9619.0,-3627.0,-6245.0,-3.0,0.0,6.0,46.0,-28.0,-13.0,15.0,-4.0,2.4775407314300537
458,-1141.0,-554.0,-92.0,1.0,-11126.0,-9619.0,-3627.0,-6245.0,-1.0,-1.0,-15.0,-50.0,-22.0,4.0,5.0,2.0,2.490492820739746
459,-1086.0,-545.0,1.0,1.0,-11250.0,-9535.0,-3473.0,-6240.0,-1.0,-1.0,-15.0,-50.0,-22.0,4.0,5.0,2.0,2.4924144744873047
460,-1086.0,-545.0,1.0,1.0,-11250.0,-9535.0,-3473.0,-6240.0,2.0,1.0,-5.0,-25.0,-17.0,-21.0,24.0,-3.0,2.49735951423645
461,-1086.0,-545.0,1.0,1.0,-11250.0,-9535.0,-3473.0,-6240.0,-4.0,-3.0,0.0,39.0,12.0,23.0,3.0,-5.0,2.521731376647949
462,-785.0,-528.0,230.0,1.0,-11324.0,-9498.0,-3335.0,-6238.0,-4.0,-3.0,0.0,39.0,12.0,23.0,3.0,-5.0,2.525195837020874
463,-785.0,-528.0,230.0,1.0,-11324.0,-9498.0,-3335.0,-6238.0,13.0,0.0,-3.0,-24.0,-2.0,-2.0,-4.0,2.0,2.5289306640625
464,-785.0,-528.0,230.0,1.0,-11324.0,-9498.0,-3335.0,-6238.0,-2.0,-3.0,9.0,-4.0,-15.0,18.0,16.0,2.0,2.532102346420288
465,-567.0,-616.0,352.0,1.0,-11371.0,-9494.0,-3183.0,-6236.0,-2.0,-3.0,9.0,-4.0,-15.0,18.0,16.0,2.0,2.5352659225463867
466,-567.0,-616.0,352.0,1.0,-11371.0,-9494.0,-3183.0,-6236.0,10.0,2.0,-25.0,-82.0,-23.0,6.0,-8.0,15.0,2.5371763706207275
467,-567.0,-616.0,352.0,1.0,-11371.0,-9494.0,-3183.0,-6236.0,-2.0,-11.0,-7.0,-4.0,-27.0,-51.0,-18.0,-5.0,2.5503814220428467
468,-581.0,-652.0,184.0,1.0,-11430.0,-9483.0,-3023.0,-6225.0,-2.0,-11.0,-7.0,-4.0,-27.0,-51.0,-18.0,-5.0,2.5521631240844727
469,-581.0,-652.0,184.0,1.0,-11430.0,-9483.0,-3023.0,-6225.0,-12.0,-4.0,-6.0,7.0,11.0,-4.0,-15.0,-17.0,2.5578866004943848
470,-581.0,-652.0,184.0,1.0,-11430.0,-9483.0,-3023.0,-6225.0,3.0,5.0,-1.0,-5.0,-13.0,-2.0,30.0,1.0,2.5744540691375732
471,-307.0,-761.0,47.0,1.0,-11470.0,-9509.0,-2874.0,-6182.0,3.0,5.0,-1.0,-5.0,-13.0,-2.0,30.0,1.0,2.5778167247772217
472,-307.0,-761.0,47.0,1.0,-11470.0,-9509.0,-2874.0,-6182.0,-3.0,0.0,17.0,34.0,4.0,-9.0,-51.0,-14.0,2.5816378593444824
473,-307.0,-761.0,47.0,1.0,-11470.0,-9509.0,-2874.0,-6182.0,-1.0,-4.0,5.0,5.0,-2.0,-12.0,-6.0,7.0,2.597254991531372
474,-402.0,-760.0,128.0,1.0,-11517.0,-9523.0,-2723.0,-6142.0,-1.0,-4.0,5.0,5.0,-2.0,-12.0,-6.0,7.0,2.6009767055511475
475,-402.0,-760.0,128.0,1.0,-11517.0,-9523.0,-2723.0,-6142.0,-1.0,-1.0,6.0,22.0,-5.0,7.0,-5.0,1.0,2.6042778491973877
476,-402.0,-760.0,128.0,1.0,-11517.0,-9523.0,-2723.0,-6142.0,-1.0,1.0,21.0,63.0,11.0,-20.0,-8.0,-4.0,2.6110332012176514
477,-274.0,-687.0,144.0,1.0,-11548.0,-9548.0,-2597.0,-6100.0,-1.0,1.0,21.0,63.0,11.0,-20.0,-8.0,-4.0,2.613771677017212
478,-274.0,-687.0,144.0,1.0,-11548.0,-9548.0,-2597.0,-6100.0,-1.0,-2.0,-6.0,-42.0,-1.0,-13.0,2.0,-2.0,2.6177783012390137
479,-274.0,-687.0,144.0,1.0,-11548.0,-9548.0,-2597.0,-6100.0,1.0,3.0,2.0,-38.0,25.0,16.0,7.0,-2.0,2.6343307495117188
480,-26.0,-644.0,237.0,1.0,-11549.0,-9594.0,-2473.0,-6075.0,1.0,3.0,2.0,-38.0,25.0,16.0,7.0,-2.0,2.637885093688965
481,-26.0,-644.0,237.0,1.0,-11549.0,-9594.0,-2473.0,-6075.0,-2.0,-2.0,-14.0,-24.0,-16.0,-14.0,-4.0,17.0,2.6412079334259033
482,-26.0,-644.0,237.0,1.0,-11549.0,-9594.0,-2473.0,-6075.0,6.0,5.0,-7.0,-35.0,22.0,28.0,43.0,21.0,2.6569104194641113
483,327.0,-685.0,290.0,1.0,-11507.0,-9691.0,-2351.0,-6051.0,6.0,5.0,-7.0,-35.0,22.0,28.0,43.0,21.0,2.659860134124756
484,327.0,-685.0,290.0,1.0,-11507.0,-9691.0,-2351.0,-6051.0,-3.0,-1.0,-3.0,-11.0,-9.0,9.0,-11.0,-8.0,2.6631059646606445
485,327.0,-685.0,290.0,1.0,-11507.0,-9691.0,-2351.0,-6051.0,-2.0,0.0,-10.0,19.0,-1.0,4.0,-20.0,-14.0,2.6710100173950195
486,600.0,-768.0,256.0,1.0,-11426.0,-9842.0,-2243.0,-6001.0,-2.0,0.0,-10.0,19.0,-1.0,4.0,-20.0,-14.0,2.673555850982666
487,600.0,-768.0,256.0,1.0,-11426.0,-9842.0,-2243.0,-6001.0,4.0,0.0,-23.0,26.0,-42.0,-22.0,29.0,1.0,2.677513360977173
488,600.0,-768.0,256.0,1.0,-11426.0,-9842.0,-2243.0,-6001.0,-1.0,0.0,8.0,16.0,-5.0,7.0,-32.0,-8.0,2.6945180892944336
489,445.0,-751.0,166.0,1.0,-11363.0,-9975.0,-2143.0,-5938.0,-1.0,0.0,8.0,16.0,-5.0,7.0,-32.0,-8.0,2.6979804039001465
490,445.0,-751.0,166.0,1.0,-11363.0,-9975.0,-2143.0,-5938.0,1.0,1.0,-5.0,1.0,48.0,-12.0,-3.0,-11.0,2.7012503147125244
491,445.0,-751.0,166.0,1.0,-11363.0,-9975.0,-2143.0,-5938.0,0.0,-3.0,-4.0,-7.0,-1.0,1.0,13.0,4.0,2.7173938751220703
492,313.0,-704.0,185.0,1.0,-11316.0,-10084.0,-2052.0,-5875.0,0.0,-3.0,-4.0,-7.0,-1.0,1.0,13.0,4.0,2.7212142944335938
493,313.0,-704.0,185.0,1.0,-11316.0,-10084.0,-2052.0,-5875.0,-1.0,4.0,30.0,27.0,-30.0,0.0,4.0,2.0,2.725050449371338
494,313.0,-704.0,185.0,1.0,-11316.0,-10084.0,-2052.0,-5875.0,-6.0,-7.0,-3.0,6.0,-22.0,-14.0,9.0,-16.0,2.7321200370788574
495,550.0,-569.0,223.0,1.0,-11255.0,-10191.0,-1995.0,-5826.0,-6.0,-7.0,-3.0,6.0,-22.0,-14.0,9.0,-16.0,2.7343955039978027
496,550.0,-569.0,223.0,1.0,-11255.0,-10191.0,-1995.0,-5826.0,0.0,1.0,21.0,1.0,4.0,5.0,10.0,-1.0,2.736496925354004
497,550.0,-569.0,223.0,1.0,-11255.0,-10191.0,-1995.0,-5826.0,-3.0,-12.0,8.0,-5.0,21.0,0.0,0.0,12.0,2.7543702125549316
498,1033.0,-525.0,295.0,1.0,-11137.0,-10351.0,-1963.0,-5783.0,-3.0,-12.0,8.0,-5.0,21.0,0.0,0.0,12.0,2.7575228214263916
499,1033.0,-525.0,295.0,1.0,-11137.0,-10351.0,-1963.0,-5783.0,0.0,3.0,-4.0,-5.0,20.0,10.0,2.0,0.0,2.760796308517456
