,Gyro 0,Gyro 1,Gyro 2,Label,Orientation 0,Orientation 1,Orientation 2,Orientation 3,Sensor 0,Sensor 1,Sensor 2,Sensor 3,Sensor 4,Sensor 5,Sensor 6,Sensor 7,Timestamp
0,30.0,25.0,45.0,0.0,-462.0,-6852.0,-11163.0,-9833.0,-2.0,1.0,2.0,1.0,-3.0,-2.0,-12.0,0.0,1.9073486328125e-06
1,30.0,25.0,45.0,0.0,-462.0,-6852.0,-11163.0,-9833.0,1.0,-8.0,-2.0,-4.0,1.0,2.0,-8.0,-3.0,0.0024001598358154297
2,30.0,25.0,45.0,0.0,-462.0,-6852.0,-11163.0,-9833.0,-2.0,-8.0,-12.0,-4.0,8.0,-6.0,-31.0,-3.0,0.005067348480224609
3,30.0,25.0,45.0,0.0,-462.0,-6852.0,-11163.0,-9833.0,-1.0,7.0,21.0,7.0,6.0,0.0,8.0,0.0,0.009310245513916016
4,-55.0,14.0,19.0,0.0,-464.0,-6855.0,-11154.0,-9841.0,-1.0,7.0,21.0,7.0,6.0,0.0,8.0,0.0,0.011300802230834961
5,-55.0,14.0,19.0,0.0,-464.0,-6855.0,-11154.0,-9841.0,-3.0,8.0,17.0,-7.0,-7.0,-15.0,-5.0,-3.0,0.013254642486572266
6,-55.0,14.0,19.0,0.0,-464.0,-6855.0,-11154.0,-9841.0,-2.0,-5.0,-17.0,-1.0,-11.0,4.0,21.0,0.0,0.015128374099731445
7,7.0,12.0,21.0,0.0,-461.0,-6855.0,-11154.0,-9841.0,-2.0,-5.0,-17.0,-1.0,-11.0,4.0,21.0,0.0,0.016964435577392578
8,7.0,12.0,21.0,0.0,-461.0,-6855.0,-11154.0,-9841.0,0.0,4.0,22.0,8.0,15.0,4.0,16.0,1.0,0.019154071807861328
9,7.0,12.0,21.0,0.0,-461.0,-6855.0,-11154.0,-9841.0,3.0,4.0,5.0,2.0,-1.0,4.0,4.0,-2.0,0.02207326889038086
10,23.0,11.0,18.0,0.0,-460.0,-6854.0,-11156.0,-9839.0,3.0,4.0,5.0,2.0,-1.0,4.0,4.0,-2.0,0.025196552276611328
11,23.0,11.0,18.0,0.0,-460.0,-6854.0,-11156.0,-9839.0,1.0,3.0,21.0,13.0,34.0,11.0,-6.0,-2.0,0.0274355411529541
12,23.0,11.0,18.0,0.0,-460.0,-6854.0,-11156.0,-9839.0,1.0,-5.0,1.0,29.0,-4.0,-7.0,2.0,1.0,0.029270648956298828
13,-9.0,-3.0,3.0,0.0,-460.0,-6854.0,-11157.0,-9839.0,1.0,-5.0,1.0,29.0,-4.0,-7.0,2.0,1.0,0.031121253967285156
14,-9.0,-3.0,3.0,0.0,-460.0,-6854.0,-11157.0,-9839.0,2.0,6.0,-21.0,-8.0,-28.0,-9.0,2.0,3.0,0.033029794692993164
15,-9.0,-3.0,3.0,0.0,-460.0,-6854.0,-11157.0,-9839.0,-1.0,7.0,9.0,-7.0,13.0,5.0,-5.0,-1.0,0.0348055362701416
16,-54.0,-8.0,-18.0,0.0,-470.0,-6850.0,-11154.0,-9844.0,-1.0,7.0,9.0,-7.0,13.0,5.0,-5.0,-1.0,0.03676176071166992
17,-54.0,-8.0,-18.0,0.0,-470.0,-6850.0,-11154.0,-9844.0,8.0,-1.0,-5.0,-4.0,5.0,-3.0,-7.0,-2.0,0.03872203826904297
18,-54.0,-8.0,-18.0,0.0,-470.0,-6850.0,-11154.0,-9844.0,-4.0,-12.0,-9.0,-6.0,8.0,3.0,-7.0,1.0,0.04051852226257324
19,-91.0,-11.0,-3.0,0.0,-479.0,-6850.0,-11145.0,-9854.0,-4.0,-12.0,-9.0,-6.0,8.0,3.0,-7.0,1.0,0.042299747467041016
20,-91.0,-11.0,-3.0,0.0,-479.0,-6850.0,-11145.0,-9854.0,-4.0,-4.0,0.0,0.0,2.0,0.0,11.0,1.0,0.044176340103149414
21,-91.0,-11.0,-3.0,0.0,-479.0,-6850.0,-11145.0,-9854.0,-6.0,3.0,2.0,-11.0,-4.0,-4.0,-12.0,-3.0,0.0459752082824707
22,-7.0,-17.0,11.0,0.0,-481.0,-6854.0,-11145.0,-9851.0,-6.0,3.0,2.0,-11.0,-4.0,-4.0,-12.0,-3.0,0.04777193069458008
23,-7.0,-17.0,11.0,0.0,-481.0,-6854.0,-11145.0,-9851.0,14.0,0.0,-15.0,-16.0,-8.0,4.0,-7.0,1.0,0.04974651336669922
24,-7.0,-17.0,11.0,0.0,-481.0,-6854.0,-11145.0,-9851.0,-11.0,-10.0,-9.0,9.0,11.0,-13.0,-20.0,-4.0,0.05231499671936035
25,-18.0,6.0,11.0,0.0,-483.0,-6853.0,-11144.0,-9853.0,-11.0,-10.0,-9.0,9.0,11.0,-13.0,-20.0,-4.0,0.054915428161621094
26,-18.0,6.0,11.0,0.0,-483.0,-6853.0,-11144.0,-9853.0,-8.0,-5.0,13.0,9.0,11.0,-1.0,11.0,2.0,0.056923627853393555
27,-18.0,6.0,11.0,0.0,-483.0,-6853.0,-11144.0,-9853.0,17.0,-7.0,-4.0,-15.0,-34.0,-4.0,1.0,-1.0,0.059433937072753906
28,-56.0,31.0,5.0,0.0,-484.0,-6850.0,-11139.0,-9860.0,17.0,-7.0,-4.0,-15.0,-34.0,-4.0,1.0,-1.0,0.06125593185424805
29,-56.0,31.0,5.0,0.0,-484.0,-6850.0,-11139.0,-9860.0,-3.0,5.0,2.0,7.0,-2.0,5.0,-2.0,-3.0,0.06311559677124023
30,-56.0,31.0,5.0,0.0,-484.0,-6850.0,-11139.0,-9860.0,-12.0,9.0,7.0,-4.0,-8.0,-6.0,-2.0,0.0,0.06491374969482422
31,-71.0,31.0,18.0,0.0,-484.0,-6849.0,-11132.0,-9869.0,-12.0,9.0,7.0,-4.0,-8.0,-6.0,-2.0,0.0,0.0666971206665039
32,-71.0,31.0,18.0,0.0,-484.0,-6849.0,-11132.0,-9869.0,-6.0,7.0,11.0,4.0,-1.0,0.0,1.0,1.0,0.06860518455505371
33,-71.0,31.0,18.0,0.0,-484.0,-6849.0,-11132.0,-9869.0,10.0,11.0,14.0,-12.0,1.0,2.0,1.0,-2.0,0.0706021785736084
34,-36.0,13.0,39.0,0.0,-481.0,-6854.0,-11128.0,-9870.0,10.0,11.0,14.0,-12.0,1.0,2.0,1.0,-2.0,0.07242751121520996
35,-36.0,13.0,39.0,0.0,-481.0,-6854.0,-11128.0,-9870.0,-8.0,-6.0,-3.0,-7.0,3.0,5.0,-10.0,-3.0,0.07432794570922852
36,-36.0,13.0,39.0,0.0,-481.0,-6854.0,-11128.0,-9870.0,-5.0,-8.0,-18.0,-5.0,23.0,15.0,6.0,-2.0,0.07613086700439453
37,5.0,10.0,42.0,0.0,-472.0,-6861.0,-11129.0,-9865.0,-5.0,-8.0,-18.0,-5.0,23.0,15.0,6.0,-2.0,0.0779111385345459
38,5.0,10.0,42.0,0.0,-472.0,-6861.0,-11129.0,-9865.0,15.0,-11.0,-19.0,2.0,-41.0,-20.0,-8.0,0.0,0.07982420921325684
39,5.0,10.0,42.0,0.0,-472.0,-6861.0,-11129.0,-9865.0,14.0,11.0,-6.0,-7.0,38.0,1.0,15.0,7.0,0.0823221206665039
40,14.0,24.0,45.0,0.0,-463.0,-6866.0,-11130.0,-9861.0,14.0,11.0,-6.0,-7.0,38.0,1.0,15.0,7.0,0.08474159240722656
41,14.0,24.0,45.0,0.0,-463.0,-6866.0,-11130.0,-9861.0,-3.0,5.0,1.0,-10.0,-8.0,1.0,4.0,-4.0,0.08667683601379395
42,14.0,24.0,45.0,0.0,-463.0,-6866.0,-11130.0,-9861.0,-6.0,-10.0,-2.0,9.0,-18.0,-14.0,-15.0,-4.0,0.08848166465759277
43,21.0,33.0,42.0,0.0,-453.0,-6869.0,-11131.0,-9858.0,-6.0,-10.0,-2.0,9.0,-18.0,-14.0,-15.0,-4.0,0.09046316146850586
44,21.0,33.0,42.0,0.0,-453.0,-6869.0,-11131.0,-9858.0,-1.0,1.0,15.0,-1.0,9.0,21.0,13.0,0.0,0.0929415225982666
45,21.0,33.0,42.0,0.0,-453.0,-6869.0,-11131.0,-9858.0,-8.0,-3.0,-2.0,0.0,-28.0,0.0,1.0,-4.0,0.09475517272949219
46,28.0,26.0,28.0,0.0,-446.0,-6869.0,-11135.0,-9854.0,-8.0,-3.0,-2.0,0.0,-28.0,0.0,1.0,-4.0,0.09657597541809082
47,28.0,26.0,28.0,0.0,-446.0,-6869.0,-11135.0,-9854.0,7.0,15.0,9.0,21.0,7.0,3.0,-1.0,3.0,0.0984499454498291
48,28.0,26.0,28.0,0.0,-446.0,-6869.0,-11135.0,-9854.0,2.0,6.0,0.0,-9.0,-19.0,0.0,5.0,-3.0,0.1002950668334961
49,23.0,0.0,20.0,0.0,-444.0,-6872.0,-11137.0,-9850.0,2.0,6.0,0.0,-9.0,-19.0,0.0,5.0,-3.0,0.10212206840515137
50,23.0,0.0,20.0,0.0,-444.0,-6872.0,-11137.0,-9850.0,-15.0,-11.0,-8.0,-5.0,15.0,-1.0,-8.0,-3.0,0.10425782203674316
51,23.0,0.0,20.0,0.0,-444.0,-6872.0,-11137.0,-9850.0,-3.0,-6.0,-2.0,-2.0,-27.0,-10.0,-11.0,-1.0,0.10608434677124023
52,37.0,-19.0,17.0,0.0,-445.0,-6873.0,-11140.0,-9845.0,-3.0,-6.0,-2.0,-2.0,-27.0,-10.0,-11.0,-1.0,0.10805797576904297
53,37.0,-19.0,17.0,0.0,-445.0,-6873.0,-11140.0,-9845.0,-8.0,-12.0,-15.0,-1.0,10.0,7.0,10.0,-6.0,0.10997557640075684
54,37.0,-19.0,17.0,0.0,-445.0,-6873.0,-11140.0,-9845.0,0.0,7.0,29.0,17.0,38.0,20.0,17.0,7.0,0.11223101615905762
55,10.0,-9.0,22.0,0.0,-448.0,-6872.0,-11138.0,-9848.0,0.0,7.0,29.0,17.0,38.0,20.0,17.0,7.0,0.11513543128967285
56,10.0,-9.0,22.0,0.0,-448.0,-6872.0,-11138.0,-9848.0,0.0,-1.0,-3.0,-14.0,-5.0,10.0,16.0,-1.0,0.11728882789611816
57,10.0,-9.0,22.0,0.0,-448.0,-6872.0,-11138.0,-9848.0,3.0,-1.0,-5.0,11.0,12.0,16.0,8.0,-2.0,0.11909127235412598
58,-20.0,9.0,33.0,0.0,-449.0,-6871.0,-11133.0,-9854.0,3.0,-1.0,-5.0,11.0,12.0,16.0,8.0,-2.0,0.1209254264831543
59,-20.0,9.0,33.0,0.0,-449.0,-6871.0,-11133.0,-9854.0,6.0,22.0,23.0,0.0,-1.0,-5.0,-16.0,6.0,0.1228029727935791
60,-20.0,9.0,33.0,0.0,-449.0,-6871.0,-11133.0,-9854.0,-5.0,-8.0,2.0,-24.0,-33.0,-8.0,-8.0,-1.0,0.12540030479431152
61,-42.0,-6.0,39.0,0.0,-452.0,-6873.0,-11127.0,-9860.0,-5.0,-8.0,2.0,-24.0,-33.0,-8.0,-8.0,-1.0,0.12726116180419922
62,-42.0,-6.0,39.0,0.0,-452.0,-6873.0,-11127.0,-9860.0,8.0,-3.0,-18.0,-4.0,-9.0,-5.0,-4.0,-2.0,0.1291825771331787
63,-42.0,-6.0,39.0,0.0,-452.0,-6873.0,-11127.0,-9860.0,-2.0,-2.0,-14.0,-5.0,-4.0,5.0,-10.0,-3.0,0.13098788261413574
64,-47.0,-11.0,45.0,0.0,-452.0,-6879.0,-11118.0,-9866.0,-2.0,-2.0,-14.0,-5.0,-4.0,5.0,-10.0,-3.0,0.13279247283935547
65,-47.0,-11.0,45.0,0.0,-452.0,-6879.0,-11118.0,-9866.0,-10.0,-5.0,-12.0,-7.0,-11.0,-4.0,-7.0,-4.0,0.13466167449951172
66,-47.0,-11.0,45.0,0.0,-452.0,-6879.0,-11118.0,-9866.0,-1.0,-6.0,-5.0,1.0,4.0,-8.0,-2.0,0.0,0.13661646842956543
67,10.0,-7.0,47.0,0.0,-446.0,-6887.0,-11117.0,-9861.0,-1.0,-6.0,-5.0,1.0,4.0,-8.0,-2.0,0.0,0.13852500915527344
68,10.0,-7.0,47.0,0.0,-446.0,-6887.0,-11117.0,-9861.0,-4.0,-8.0,-6.0,3.0,-2.0,-13.0,29.0,-5.0,0.1404263973236084
69,10.0,-7.0,47.0,0.0,-446.0,-6887.0,-11117.0,-9861.0,5.0,7.0,0.0,5.0,14.0,-2.0,-22.0,-2.0,0.14261913299560547
70,-14.0,-5.0,52.0,0.0,-443.0,-6894.0,-11115.0,-9858.0,5.0,7.0,0.0,5.0,14.0,-2.0,-22.0,-2.0,0.14541172981262207
71,-14.0,-5.0,52.0,0.0,-443.0,-6894.0,-11115.0,-9858.0,-2.0,-6.0,-13.0,0.0,2.0,4.0,-17.0,1.0,0.1476433277130127
72,-14.0,-5.0,52.0,0.0,-443.0,-6894.0,-11115.0,-9858.0,-8.0,0.0,-5.0,-1.0,-17.0,-15.0,3.0,-4.0,0.1494770050048828
73,-46.0,21.0,50.0,0.0,-438.0,-6899.0,-11108.0,-9863.0,-8.0,0.0,-5.0,-1.0,-17.0,-15.0,3.0,-4.0,0.15128254890441895
74,-46.0,21.0,50.0,0.0,-438.0,-6899.0,-11108.0,-9863.0,8.0,26.0,16.0,5.0,-32.0,-28.0,-31.0,-1.0,0.15317964553833008
75,-46.0,21.0,50.0,0.0,-438.0,-6899.0,-11108.0,-9863.0,3.0,5.0,7.0,-5.0,-4.0,3.0,-4.0,4.0,0.15498757362365723
76,-38.0,31.0,42.0,0.0,-434.0,-6901.0,-11103.0,-9868.0,3.0,5.0,7.0,-5.0,-4.0,3.0,-4.0,4.0,0.15688467025756836
77,-38.0,31.0,42.0,0.0,-434.0,-6901.0,-11103.0,-9868.0,-7.0,-9.0,12.0,11.0,20.0,11.0,-4.0,-2.0,0.15950417518615723
78,-38.0,31.0,42.0,0.0,-434.0,-6901.0,-11103.0,-9868.0,-1.0,-6.0,-12.0,-8.0,-10.0,-2.0,17.0,-1.0,0.16132831573486328
79,-56.0,36.0,22.0,0.0,-429.0,-6902.0,-11096.0,-9876.0,-1.0,-6.0,-12.0,-8.0,-10.0,-2.0,17.0,-1.0,0.1631326675415039
80,-56.0,36.0,22.0,0.0,-429.0,-6902.0,-11096.0,-9876.0,-9.0,-15.0,0.0,-12.0,-1.0,-6.0,-3.0,-1.0,0.16504240036010742
81,-56.0,36.0,22.0,0.0,-429.0,-6902.0,-11096.0,-9876.0,4.0,4.0,15.0,5.0,6.0,-4.0,-19.0,-4.0,0.16690444946289062
82,-52.0,43.0,15.0,0.0,-425.0,-6900.0,-11090.0,-9884.0,4.0,4.0,15.0,5.0,6.0,-4.0,-19.0,-4.0,0.1687483787536621
83,-52.0,43.0,15.0,0.0,-425.0,-6900.0,-11090.0,-9884.0,0.0,-5.0,-5.0,3.0,-2.0,9.0,28.0,10.0,0.1708991527557373
84,-52.0,43.0,15.0,0.0,-425.0,-6900.0,-11090.0,-9884.0,-1.0,-2.0,-3.0,-7.0,-5.0,-8.0,8.0,0.0,0.17324137687683105
85,-7.0,31.0,16.0,0.0,-421.0,-6897.0,-11089.0,-9887.0,-1.0,-2.0,-3.0,-7.0,-5.0,-8.0,8.0,0.0,0.1764068603515625
86,-7.0,31.0,16.0,0.0,-421.0,-6897.0,-11089.0,-9887.0,4.0,1.0,-5.0,3.0,8.0,-18.0,0.0,-2.0,0.17848515510559082
87,-7.0,31.0,16.0,0.0,-421.0,-6897.0,-11089.0,-9887.0,-2.0,-3.0,-7.0,8.0,14.0,3.0,19.0,1.0,0.18032526969909668
88,16.0,31.0,11.0,0.0,-418.0,-6893.0,-11090.0,-9888.0,-2.0,-3.0,-7.0,8.0,14.0,3.0,19.0,1.0,0.18213438987731934
89,16.0,31.0,11.0,0.0,-418.0,-6893.0,-11090.0,-9888.0,0.0,3.0,-3.0,3.0,8.0,12.0,14.0,-3.0,0.18401861190795898
90,16.0,31.0,11.0,0.0,-418.0,-6893.0,-11090.0,-9888.0,-2.0,-6.0,-11.0,0.0,-11.0,1.0,-3.0,1.0,0.1858212947845459
91,-11.0,23.0,6.0,0.0,-419.0,-6889.0,-11090.0,-9892.0,-2.0,-6.0,-11.0,0.0,-11.0,1.0,-3.0,1.0,0.1876518726348877
92,-11.0,23.0,6.0,0.0,-419.0,-6889.0,-11090.0,-9892.0,0.0,-1.0,-4.0,-11.0,-26.0,-7.0,-12.0,3.0,0.18954133987426758
93,-11.0,23.0,6.0,0.0,-419.0,-6889.0,-11090.0,-9892.0,-1.0,0.0,-9.0,-5.0,7.0,6.0,-2.0,-5.0,0.19225573539733887
94,-58.0,23.0,13.0,0.0,-423.0,-6884.0,-11083.0,-9902.0,-1.0,0.0,-9.0,-5.0,7.0,6.0,-2.0,-5.0,0.19419407844543457
95,-58.0,23.0,13.0,0.0,-423.0,-6884.0,-11083.0,-9902.0,3.0,0.0,-2.0,-6.0,5.0,-14.0,-13.0,-3.0,0.19613885879516602
96,-58.0,23.0,13.0,0.0,-423.0,-6884.0,-11083.0,-9902.0,-1.0,3.0,2.0,-1.0,-2.0,9.0,39.0,5.0,0.19796490669250488
97,-60.0,9.0,21.0,0.0,-429.0,-6882.0,-11076.0,-9911.0,-1.0,3.0,2.0,-1.0,-2.0,9.0,39.0,5.0,0.19975805282592773
98,-60.0,9.0,21.0,0.0,-429.0,-6882.0,-11076.0,-9911.0,-3.0,-7.0,-7.0,-8.0,0.0,1.0,2.0,-5.0,0.20162582397460938
99,-60.0,9.0,21.0,0.0,-429.0,-6882.0,-11076.0,-9911.0,-2.0,-3.0,-14.0,5.0,8.0,-7.0,-10.0,-3.0,0.2037062644958496
100,-31.0,0.0,25.0,0.0,-431.0,-6883.0,-11072.0,-9915.0,-2.0,-3.0,-14.0,5.0,8.0,-7.0,-10.0,-3.0,0.2063617706298828
101,-31.0,0.0,25.0,0.0,-431.0,-6883.0,-11072.0,-9915.0,-1.0,-5.0,6.0,7.0,10.0,5.0,-6.0,-2.0,0.20974230766296387
102,-31.0,0.0,25.0,0.0,-431.0,-6883.0,-11072.0,-9915.0,2.0,-3.0,7.0,-2.0,2.0,-5.0,-36.0,-2.0,0.21161890029907227
103,-24.0,16.0,29.0,0.0,-430.0,-6884.0,-11069.0,-9918.0,2.0,-3.0,7.0,-2.0,2.0,-5.0,-36.0,-2.0,0.2134101390838623
104,-24.0,16.0,29.0,0.0,-430.0,-6884.0,-11069.0,-9918.0,-5.0,-3.0,5.0,5.0,-4.0,1.0,3.0,-1.0,0.21526741981506348
105,-24.0,16.0,29.0,0.0,-430.0,-6884.0,-11069.0,-9918.0,1.0,8.0,17.0,20.0,-4.0,4.0,0.0,2.0,0.21709871292114258
106,-18.0,18.0,13.0,0.0,-430.0,-6882.0,-11068.0,-9920.0,1.0,8.0,17.0,20.0,-4.0,4.0,0.0,2.0,0.2189178466796875
107,-18.0,18.0,13.0,0.0,-430.0,-6882.0,-11068.0,-9920.0,11.0,13.0,-2.0,-5.0,-11.0,-1.0,-2.0,2.0,0.2212836742401123
108,-18.0,18.0,13.0,0.0,-430.0,-6882.0,-11068.0,-9920.0,-3.0,-6.0,-8.0,-3.0,-14.0,-4.0,-8.0,-3.0,0.22310209274291992
109,-61.0,22.0,12.0,0.0,-432.0,-6880.0,-11062.0,-9929.0,-3.0,-6.0,-8.0,-3.0,-14.0,-4.0,-8.0,-3.0,0.2248997688293457
110,-61.0,22.0,12.0,0.0,-432.0,-6880.0,-11062.0,-9929.0,-18.0,3.0,1.0,-8.0,-28.0,1.0,-4.0,-1.0,0.22676372528076172
111,-61.0,22.0,12.0,0.0,-432.0,-6880.0,-11062.0,-9929.0,1.0,3.0,7.0,-1.0,20.0,8.0,12.0,5.0,0.2285785675048828
112,-26.0,27.0,25.0,0.0,-429.0,-6881.0,-11059.0,-9932.0,1.0,3.0,7.0,-1.0,20.0,8.0,12.0,5.0,0.23036789894104004
113,-26.0,27.0,25.0,0.0,-429.0,-6881.0,-11059.0,-9932.0,-6.0,-14.0,-24.0,-12.0,0.0,6.0,27.0,-5.0,0.23223304748535156
114,-26.0,27.0,25.0,0.0,-429.0,-6881.0,-11059.0,-9932.0,-1.0,-5.0,-1.0,-9.0,0.0,-2.0,-7.0,0.0,0.23423433303833008
115,10.0,25.0,11.0,0.0,-426.0,-6879.0,-11061.0,-9931.0,-1.0,-5.0,-1.0,-9.0,0.0,-2.0,-7.0,0.0,0.2373511791229248
116,10.0,25.0,11.0,0.0,-426.0,-6879.0,-11061.0,-9931.0,-1.0,2.0,-3.0,4.0,-5.0,-2.0,-24.0,-4.0,0.2393360137939453
117,10.0,25.0,11.0,0.0,-426.0,-6879.0,-11061.0,-9931.0,6.0,-7.0,-6.0,-7.0,-2.0,-14.0,9.0,0.0,0.24197030067443848
118,-41.0,35.0,14.0,0.0,-426.0,-6875.0,-11058.0,-9936.0,6.0,-7.0,-6.0,-7.0,-2.0,-14.0,9.0,0.0,0.24385881423950195
119,-41.0,35.0,14.0,0.0,-426.0,-6875.0,-11058.0,-9936.0,1.0,-11.0,-7.0,3.0,8.0,8.0,-8.0,-1.0,0.24571943283081055
120,-41.0,35.0,14.0,0.0,-426.0,-6875.0,-11058.0,-9936.0,-11.0,0.0,3.0,3.0,21.0,3.0,-20.0,-7.0,0.2475113868713379
121,-44.0,31.0,20.0,0.0,-424.0,-6874.0,-11053.0,-9943.0,-11.0,0.0,3.0,3.0,21.0,3.0,-20.0,-7.0,0.24928855895996094
122,-44.0,31.0,20.0,0.0,-424.0,-6874.0,-11053.0,-9943.0,4.0,1.0,-4.0,-7.0,8.0,1.0,5.0,3.0,0.2511467933654785
123,-44.0,31.0,20.0,0.0,-424.0,-6874.0,-11053.0,-9943.0,-3.0,-12.0,0.0,-25.0,-13.0,-8.0,20.0,-4.0,0.2529330253601074
124,4.0,33.0,19.0,0.0,-421.0,-6870.0,-11053.0,-9946.0,-3.0,-12.0,0.0,-25.0,-13.0,-8.0,20.0,-4.0,0.25501465797424316
125,4.0,33.0,19.0,0.0,-421.0,-6870.0,-11053.0,-9946.0,-1.0,9.0,10.0,11.0,10.0,-3.0,-1.0,2.0,0.2569437026977539
126,4.0,33.0,19.0,0.0,-421.0,-6870.0,-11053.0,-9946.0,1.0,3.0,1.0,8.0,-4.0,-7.0,-13.0,-3.0,0.2587263584136963
127,-18.0,21.0,9.0,0.0,-422.0,-6867.0,-11053.0,-9948.0,1.0,3.0,1.0,8.0,-4.0,-7.0,-13.0,-3.0,0.26058387756347656
128,-18.0,21.0,9.0,0.0,-422.0,-6867.0,-11053.0,-9948.0,-2.0,-3.0,3.0,9.0,21.0,0.0,0.0,-1.0,0.2624526023864746
129,-18.0,21.0,9.0,0.0,-422.0,-6867.0,-11053.0,-9948.0,-2.0,0.0,13.0,23.0,6.0,1.0,3.0,-4.0,0.26424145698547363
130,-45.0,16.0,11.0,0.0,-425.0,-6865.0,-11049.0,-9953.0,-2.0,0.0,13.0,23.0,6.0,1.0,3.0,-4.0,0.2668490409851074
131,-45.0,16.0,11.0,0.0,-425.0,-6865.0,-11049.0,-9953.0,4.0,6.0,1.0,14.0,6.0,-2.0,-3.0,-5.0,0.2692723274230957
132,-45.0,16.0,11.0,0.0,-425.0,-6865.0,-11049.0,-9953.0,-3.0,-3.0,-6.0,1.0,-6.0,18.0,6.0,5.0,0.27109837532043457
133,-48.0,14.0,9.0,0.0,-428.0,-6863.0,-11045.0,-9959.0,-3.0,-3.0,-6.0,1.0,-6.0,18.0,6.0,5.0,0.2728917598724365
134,-48.0,14.0,9.0,0.0,-428.0,-6863.0,-11045.0,-9959.0,1.0,1.0,3.0,-2.0,16.0,9.0,-13.0,1.0,0.27544140815734863
135,-48.0,14.0,9.0,0.0,-428.0,-6863.0,-11045.0,-9959.0,4.0,5.0,8.0,-13.0,-12.0,-6.0,-4.0,-2.0,0.2774806022644043
136,-40.0,11.0,-3.0,0.0,-434.0,-6859.0,-11042.0,-9965.0,4.0,5.0,8.0,-13.0,-12.0,-6.0,-4.0,-2.0,0.27929210662841797
137,-40.0,11.0,-3.0,0.0,-434.0,-6859.0,-11042.0,-9965.0,-13.0,-8.0,-17.0,-7.0,-9.0,-5.0,28.0,1.0,0.28116321563720703
138,-40.0,11.0,-3.0,0.0,-434.0,-6859.0,-11042.0,-9965.0,14.0,15.0,7.0,13.0,0.0,2.0,14.0,7.0,0.2829406261444092
139,-39.0,3.0,-23.0,0.0,-444.0,-6853.0,-11043.0,-9967.0,14.0,15.0,7.0,13.0,0.0,2.0,14.0,7.0,0.28477025032043457
140,-39.0,3.0,-23.0,0.0,-444.0,-6853.0,-11043.0,-9967.0,0.0,-5.0,0.0,0.0,5.0,-3.0,-9.0,-3.0,0.2868797779083252
141,-39.0,3.0,-23.0,0.0,-444.0,-6853.0,-11043.0,-9967.0,-9.0,-9.0,-10.0,-5.0,-7.0,-9.0,-21.0,-7.0,0.2893540859222412
142,-67.0,-14.0,-21.0,0.0,-456.0,-6851.0,-11041.0,-9971.0,-9.0,-9.0,-10.0,-5.0,-7.0,-9.0,-21.0,-7.0,0.2913539409637451
143,-67.0,-14.0,-21.0,0.0,-456.0,-6851.0,-11041.0,-9971.0,0.0,-4.0,5.0,5.0,-4.0,8.0,-3.0,2.0,0.2934420108795166
144,-67.0,-14.0,-21.0,0.0,-456.0,-6851.0,-11041.0,-9971.0,-5.0,-10.0,-10.0,-9.0,1.0,1.0,6.0,1.0,0.2960071563720703
145,-65.0,-23.0,-21.0,0.0,-468.0,-6850.0,-11038.0,-9974.0,-5.0,-10.0,-10.0,-9.0,1.0,1.0,6.0,1.0,0.2987213134765625
146,-65.0,-23.0,-21.0,0.0,-468.0,-6850.0,-11038.0,-9974.0,4.0,-1.0,-2.0,-14.0,-11.0,-5.0,2.0,1.0,0.3008270263671875
147,-65.0,-23.0,-21.0,0.0,-468.0,-6850.0,-11038.0,-9974.0,2.0,-10.0,-20.0,-1.0,12.0,12.0,-1.0,2.0,0.30263519287109375
148,-12.0,-17.0,-2.0,0.0,-472.0,-6853.0,-11041.0,-9968.0,2.0,-10.0,-20.0,-1.0,12.0,12.0,-1.0,2.0,0.3044626712799072
149,-12.0,-17.0,-2.0,0.0,-472.0,-6853.0,-11041.0,-9968.0,2.0,-5.0,-22.0,16.0,4.0,-9.0,-14.0,-2.0,0.30634474754333496
150,-12.0,-17.0,-2.0,0.0,-472.0,-6853.0,-11041.0,-9968.0,-7.0,-2.0,-3.0,-10.0,-10.0,5.0,-4.0,-3.0,0.30916738510131836
151,-39.0,-10.0,6.0,0.0,-478.0,-6855.0,-11041.0,-9968.0,-7.0,-2.0,-3.0,-10.0,-10.0,5.0,-4.0,-3.0,0.31115221977233887
152,-39.0,-10.0,6.0,0.0,-478.0,-6855.0,-11041.0,-9968.0,8.0,10.0,18.0,-1.0,-1.0,1.0,-8.0,3.0,0.31309008598327637
153,-39.0,-10.0,6.0,0.0,-478.0,-6855.0,-11041.0,-9968.0,-3.0,-1.0,-4.0,-1.0,7.0,-5.0,35.0,-2.0,0.31493616104125977
154,-69.0,-2.0,18.0,0.0,-481.0,-6858.0,-11034.0,-9972.0,-3.0,-1.0,-4.0,-1.0,7.0,-5.0,35.0,-2.0,0.3168158531188965
155,-69.0,-2.0,18.0,0.0,-481.0,-6858.0,-11034.0,-9972.0,2.0,8.0,-1.0,-12.0,-12.0,-6.0,-2.0,3.0,0.3187110424041748
156,-69.0,-2.0,18.0,0.0,-481.0,-6858.0,-11034.0,-9972.0,0.0,-1.0,-19.0,16.0,1.0,2.0,-2.0,3.0,0.3207697868347168
157,-38.0,-3.0,36.0,0.0,-479.0,-6865.0,-11030.0,-9973.0,0.0,-1.0,-19.0,16.0,1.0,2.0,-2.0,3.0,0.32262134552001953
158,-38.0,-3.0,36.0,0.0,-479.0,-6865.0,-11030.0,-9973.0,-3.0,4.0,9.0,0.0,-2.0,-3.0,9.0,-5.0,0.3245372772216797
159,-38.0,-3.0,36.0,0.0,-479.0,-6865.0,-11030.0,-9973.0,2.0,-7.0,24.0,14.0,-3.0,-5.0,2.0,-3.0,0.3267648220062256
160,-28.0,-20.0,26.0,0.0,-479.0,-6872.0,-11026.0,-9972.0,2.0,-7.0,24.0,14.0,-3.0,-5.0,2.0,-3.0,0.3301076889038086
161,-28.0,-20.0,26.0,0.0,-479.0,-6872.0,-11026.0,-9972.0,-1.0,-1.0,4.0,-4.0,-2.0,-3.0,-11.0,-4.0,0.3322024345397949
162,-28.0,-20.0,26.0,0.0,-479.0,-6872.0,-11026.0,-9972.0,-7.0,-1.0,-7.0,-12.0,-7.0,-4.0,-27.0,-4.0,0.33407092094421387
163,-34.0,-11.0,-1.0,0.0,-482.0,-6874.0,-11022.0,-9975.0,-7.0,-1.0,-7.0,-12.0,-7.0,-4.0,-27.0,-4.0,0.3359200954437256
164,-34.0,-11.0,-1.0,0.0,-482.0,-6874.0,-11022.0,-9975.0,3.0,1.0,15.0,-5.0,2.0,3.0,20.0,4.0,0.33786845207214355
165,-34.0,-11.0,-1.0,0.0,-482.0,-6874.0,-11022.0,-9975.0,1.0,1.0,2.0,-7.0,1.0,1.0,-2.0,-3.0,0.33976078033447266
166,-18.0,8.0,-13.0,0.0,-487.0,-6869.0,-11022.0,-9978.0,1.0,1.0,2.0,-7.0,1.0,1.0,-2.0,-3.0,0.3424396514892578
167,-18.0,8.0,-13.0,0.0,-487.0,-6869.0,-11022.0,-9978.0,-9.0,-14.0,-26.0,-3.0,-17.0,-5.0,-14.0,-1.0,0.344646692276001
168,-18.0,8.0,-13.0,0.0,-487.0,-6869.0,-11022.0,-9978.0,6.0,11.0,3.0,-4.0,8.0,-3.0,-6.0,1.0,0.34650635719299316
169,-38.0,10.0,-16.0,0.0,-494.0,-6862.0,-11019.0,-9985.0,6.0,11.0,3.0,-4.0,8.0,-3.0,-6.0,1.0,0.3483595848083496
170,-38.0,10.0,-16.0,0.0,-494.0,-6862.0,-11019.0,-9985.0,1.0,-7.0,0.0,2.0,3.0,-1.0,30.0,-3.0,0.3502616882324219
171,-38.0,10.0,-16.0,0.0,-494.0,-6862.0,-11019.0,-9985.0,-12.0,0.0,5.0,-2.0,0.0,3.0,15.0,6.0,0.35209035873413086
172,-50.0,10.0,-27.0,0.0,-503.0,-6855.0,-11017.0,-9993.0,-12.0,0.0,5.0,-2.0,0.0,3.0,15.0,6.0,0.3542020320892334
173,-50.0,10.0,-27.0,0.0,-503.0,-6855.0,-11017.0,-9993.0,17.0,1.0,1.0,2.0,-15.0,-1.0,-13.0,0.0,0.3561360836029053
174,-50.0,10.0,-27.0,0.0,-503.0,-6855.0,-11017.0,-9993.0,7.0,3.0,-4.0,-4.0,-3.0,1.0,-6.0,-6.0,0.3593168258666992
175,-37.0,15.0,-35.0,0.0,-512.0,-6847.0,-11018.0,-9997.0,7.0,3.0,-4.0,-4.0,-3.0,1.0,-6.0,-6.0,0.36198973655700684
176,-37.0,15.0,-35.0,0.0,-512.0,-6847.0,-11018.0,-9997.0,-8.0,-2.0,0.0,-27.0,4.0,0.0,-23.0,-6.0,0.36395883560180664
177,-37.0,15.0,-35.0,0.0,-512.0,-6847.0,-11018.0,-9997.0,-8.0,-7.0,-3.0,-15.0,-12.0,-6.0,-2.0,-2.0,0.3658432960510254
178,-51.0,6.0,-34.0,0.0,-522.0,-6840.0,-11018.0,-10001.0,-8.0,-7.0,-3.0,-15.0,-12.0,-6.0,-2.0,-2.0,0.3676917552947998
179,-51.0,6.0,-34.0,0.0,-522.0,-6840.0,-11018.0,-10001.0,0.0,4.0,3.0,3.0,2.0,-5.0,-10.0,-1.0,0.36959099769592285
180,-51.0,6.0,-34.0,0.0,-522.0,-6840.0,-11018.0,-10001.0,-5.0,-10.0,-13.0,3.0,-4.0,-3.0,4.0,-3.0,0.3714320659637451
181,-34.0,0.0,-15.0,0.0,-527.0,-6838.0,-11018.0,-10001.0,-5.0,-10.0,-13.0,3.0,-4.0,-3.0,4.0,-3.0,0.37760448455810547
182,-34.0,0.0,-15.0,0.0,-527.0,-6838.0,-11018.0,-10001.0,-1.0,-7.0,4.0,6.0,-1.0,1.0,8.0,3.0,0.3795788288116455
183,-34.0,0.0,-15.0,0.0,-527.0,-6838.0,-11018.0,-10001.0,0.0,8.0,7.0,7.0,-2.0,-8.0,2.0,2.0,0.3814268112182617
184,-31.0,5.0,-3.0,0.0,-529.0,-6838.0,-11017.0,-10003.0,0.0,8.0,7.0,7.0,-2.0,-8.0,2.0,2.0,0.40018749237060547
185,-31.0,5.0,-3.0,0.0,-529.0,-6838.0,-11017.0,-10003.0,-8.0,-2.0,14.0,30.0,7.0,-1.0,-6.0,-3.0,0.4020826816558838
186,-31.0,5.0,-3.0,0.0,-529.0,-6838.0,-11017.0,-10003.0,1.0,6.0,-4.0,25.0,-15.0,-1.0,3.0,0.0,0.4047200679779053
187,-45.0,27.0,2.0,0.0,-530.0,-6836.0,-11015.0,-10005.0,1.0,6.0,-4.0,25.0,-15.0,-1.0,3.0,0.0,0.4154956340789795
188,-45.0,27.0,2.0,0.0,-530.0,-6836.0,-11015.0,-10005.0,2.0,1.0,-9.0,-3.0,1.0,5.0,-9.0,-1.0,0.4176967144012451
189,-45.0,27.0,2.0,0.0,-530.0,-6836.0,-11015.0,-10005.0,1.0,2.0,9.0,1.0,8.0,2.0,3.0,-1.0,0.420182466506958
190,-57.0,20.0,-16.0,0.0,-533.0,-6834.0,-11013.0,-10009.0,1.0,2.0,9.0,1.0,8.0,2.0,3.0,-1.0,0.43795013427734375
191,-57.0,20.0,-16.0,0.0,-533.0,-6834.0,-11013.0,-10009.0,-3.0,1.0,-3.0,-5.0,14.0,4.0,-5.0,-5.0,0.4398829936981201
192,-57.0,20.0,-16.0,0.0,-533.0,-6834.0,-11013.0,-10009.0,10.0,19.0,25.0,-1.0,8.0,25.0,11.0,7.0,0.44169187545776367
193,-51.0,13.0,-19.0,0.0,-535.0,-6833.0,-11012.0,-10012.0,10.0,19.0,25.0,-1.0,8.0,25.0,11.0,7.0,0.46033549308776855
194,-51.0,13.0,-19.0,0.0,-535.0,-6833.0,-11012.0,-10012.0,0.0,0.0,26.0,-8.0,14.0,-6.0,-1.0,1.0,0.4622321128845215
195,-51.0,13.0,-19.0,0.0,-535.0,-6833.0,-11012.0,-10012.0,-2.0,0.0,-3.0,-4.0,-5.0,-13.0,-14.0,0.0,0.4640316963195801
196,8.0,2.0,1.0,0.0,-535.0,-6834.0,-11012.0,-10011.0,-2.0,0.0,-3.0,-4.0,-5.0,-13.0,-14.0,0.0,0.4745631217956543
197,8.0,2.0,1.0,0.0,-535.0,-6834.0,-11012.0,-10011.0,-4.0,-1.0,-12.0,-10.0,-2.0,7.0,-4.0,-3.0,0.47649192810058594
198,8.0,2.0,1.0,0.0,-535.0,-6834.0,-11012.0,-10011.0,2.0,-4.0,-2.0,-4.0,0.0,-4.0,10.0,-1.0,0.48218798637390137
199,33.0,5.0,8.0,0.0,-530.0,-6836.0,-11017.0,-10004.0,2.0,-4.0,-2.0,-4.0,0.0,-4.0,10.0,-1.0,0.49776172637939453
200,33.0,5.0,8.0,0.0,-530.0,-6836.0,-11017.0,-10004.0,-1.0,5.0,-18.0,-2.0,-28.0,-10.0,24.0,1.0,0.4996917247772217
201,33.0,5.0,8.0,0.0,-530.0,-6836.0,-11017.0,-10004.0,2.0,-8.0,-1.0,-11.0,-4.0,-7.0,-23.0,-9.0,0.5014972686767578
202,7.0,19.0,2.0,0.0,-528.0,-6834.0,-11019.0,-10003.0,2.0,-8.0,-1.0,-11.0,-4.0,-7.0,-23.0,-9.0,0.5212290287017822
203,7.0,19.0,2.0,0.0,-528.0,-6834.0,-11019.0,-10003.0,3.0,5.0,3.0,6.0,21.0,14.0,2.0,5.0,0.524665117263794
204,7.0,19.0,2.0,0.0,-528.0,-6834.0,-11019.0,-10003.0,24.0,0.0,-18.0,13.0,4.0,14.0,14.0,6.0,0.5269467830657959
205,10.0,40.0,6.0,0.0,-523.0,-6829.0,-11020.0,-10005.0,24.0,0.0,-18.0,13.0,4.0,14.0,14.0,6.0,0.5345768928527832
206,10.0,40.0,6.0,0.0,-523.0,-6829.0,-11020.0,-10005.0,-8.0,-12.0,-2.0,-16.0,-17.0,-7.0,-1.0,-6.0,0.5366148948669434
207,10.0,40.0,6.0,0.0,-523.0,-6829.0,-11020.0,-10005.0,-17.0,-22.0,-15.0,-16.0,0.0,-6.0,-20.0,-6.0,0.5415091514587402
208,27.0,44.0,5.0,0.0,-520.0,-6822.0,-11025.0,-10006.0,-17.0,-22.0,-15.0,-16.0,0.0,-6.0,-20.0,-6.0,0.5592234134674072
209,27.0,44.0,5.0,0.0,-520.0,-6822.0,-11025.0,-10006.0,15.0,28.0,7.0,-1.0,2.0,7.0,3.0,1.0,0.5626273155212402
210,27.0,44.0,5.0,0.0,-520.0,-6822.0,-11025.0,-10006.0,-3.0,-5.0,-1.0,-1.0,11.0,1.0,7.0,2.0,0.5657978057861328
211,20.0,14.0,12.0,0.0,-518.0,-6820.0,-11028.0,-10003.0,-3.0,-5.0,-1.0,-1.0,11.0,1.0,7.0,2.0,0.5811138153076172
212,20.0,14.0,12.0,0.0,-518.0,-6820.0,-11028.0,-10003.0,-2.0,0.0,16.0,3.0,-12.0,-6.0,-15.0,-3.0,0.5849523544311523
213,20.0,14.0,12.0,0.0,-518.0,-6820.0,-11028.0,-10003.0,-4.0,5.0,5.0,10.0,13.0,3.0,2.0,0.0,0.588625431060791
214,17.0,12.0,15.0,0.0,-517.0,-6820.0,-11031.0,-10000.0,-4.0,5.0,5.0,10.0,13.0,3.0,2.0,0.0,0.5946972370147705
215,17.0,12.0,15.0,0.0,-517.0,-6820.0,-11031.0,-10000.0,-7.0,-6.0,3.0,9.0,-5.0,-3.0,-22.0,-5.0,0.5966150760650635
216,17.0,12.0,15.0,0.0,-517.0,-6820.0,-11031.0,-10000.0,2.0,9.0,3.0,-23.0,2.0,-1.0,-11.0,-3.0,0.6014046669006348
217,11.0,31.0,30.0,0.0,-511.0,-6819.0,-11032.0,-10000.0,2.0,9.0,3.0,-23.0,2.0,-1.0,-11.0,-3.0,0.6178059577941895
218,11.0,31.0,30.0,0.0,-511.0,-6819.0,-11032.0,-10000.0,5.0,17.0,13.0,2.0,5.0,5.0,5.0,5.0,0.6197402477264404
219,11.0,31.0,30.0,0.0,-511.0,-6819.0,-11032.0,-10000.0,-12.0,2.0,-17.0,-6.0,2.0,7.0,-19.0,-7.0,0.6217195987701416
220,-24.0,32.0,19.0,0.0,-508.0,-6818.0,-11031.0,-10002.0,-12.0,2.0,-17.0,-6.0,2.0,7.0,-19.0,-7.0,0.6420145034790039
221,-24.0,32.0,19.0,0.0,-508.0,-6818.0,-11031.0,-10002.0,10.0,6.0,14.0,-9.0,-15.0,-11.0,-10.0,3.0,0.6455118656158447
222,-24.0,32.0,19.0,0.0,-508.0,-6818.0,-11031.0,-10002.0,4.0,18.0,42.0,4.0,-13.0,-4.0,0.0,3.0,0.6487295627593994
223,-10.0,24.0,11.0,0.0,-505.0,-6817.0,-11031.0,-10003.0,4.0,18.0,42.0,4.0,-13.0,-4.0,0.0,3.0,0.6552550792694092
224,-10.0,24.0,11.0,0.0,-505.0,-6817.0,-11031.0,-10003.0,-4.0,-3.0,3.0,16.0,-3.0,0.0,31.0,3.0,0.6572153568267822
225,-10.0,24.0,11.0,0.0,-505.0,-6817.0,-11031.0,-10003.0,-7.0,-17.0,-14.0,-1.0,-11.0,-5.0,-5.0,-2.0,0.661482572555542
226,30.0,16.0,9.0,0.0,-502.0,-6816.0,-11037.0,-9997.0,-7.0,-17.0,-14.0,-1.0,-11.0,-5.0,-5.0,-2.0,0.6778209209442139
227,30.0,16.0,9.0,0.0,-502.0,-6816.0,-11037.0,-9997.0,17.0,-1.0,-6.0,-2.0,-1.0,-9.0,3.0,-1.0,0.6799905300140381
228,30.0,16.0,9.0,0.0,-502.0,-6816.0,-11037.0,-9997.0,-4.0,-13.0,-23.0,-10.0,-3.0,-9.0,-11.0,-8.0,0.6824772357940674
229,15.0,9.0,13.0,0.0,-502.0,-6816.0,-11037.0,-9997.0,-4.0,-13.0,-23.0,-10.0,-3.0,-9.0,-11.0,-8.0,0.7016034126281738
230,15.0,9.0,13.0,0.0,-502.0,-6816.0,-11037.0,-9997.0,-2.0,-11.0,-30.0,-1.0,-4.0,-7.0,-2.0,0.0,0.7048439979553223
231,15.0,9.0,13.0,0.0,-502.0,-6816.0,-11037.0,-9997.0,6.0,6.0,-3.0,7.0,6.0,5.0,13.0,11.0,0.7081284523010254
232,-3.0,-5.0,2.0,0.0,-503.0,-6815.0,-11037.0,-9997.0,6.0,6.0,-3.0,7.0,6.0,5.0,13.0,11.0,0.7148206233978271
233,-3.0,-5.0,2.0,0.0,-503.0,-6815.0,-11037.0,-9997.0,-9.0,1.0,-1.0,-10.0,12.0,3.0,29.0,-5.0,0.7167782783508301
234,-3.0,-5.0,2.0,0.0,-503.0,-6815.0,-11037.0,-9997.0,-7.0,-6.0,-3.0,-2.0,-1.0,-4.0,4.0,-1.0,0.7215578556060791
235,23.0,-5.0,-10.0,0.0,-504.0,-6814.0,-11040.0,-9995.0,-7.0,-6.0,-3.0,-2.0,-1.0,-4.0,4.0,-1.0,0.7376010417938232
236,23.0,-5.0,-10.0,0.0,-504.0,-6814.0,-11040.0,-9995.0,-5.0,-21.0,-7.0,-9.0,-1.0,4.0,-5.0,-5.0,0.7394962310791016
237,23.0,-5.0,-10.0,0.0,-504.0,-6814.0,-11040.0,-9995.0,-3.0,-4.0,-3.0,4.0,4.0,-5.0,-11.0,-6.0,0.7423586845397949
238,39.0,13.0,-21.0,0.0,-505.0,-6807.0,-11047.0,-9992.0,-3.0,-4.0,-3.0,4.0,4.0,-5.0,-11.0,-6.0,0.7607131004333496
239,39.0,13.0,-21.0,0.0,-505.0,-6807.0,-11047.0,-9992.0,-8.0,7.0,-17.0,5.0,6.0,6.0,-1.0,3.0,0.7632524967193604
240,39.0,13.0,-21.0,0.0,-505.0,-6807.0,-11047.0,-9992.0,7.0,9.0,24.0,28.0,-18.0,6.0,4.0,3.0,0.765113115310669
241,26.0,-2.0,-33.0,0.0,-513.0,-6799.0,-11054.0,-9990.0,7.0,9.0,24.0,28.0,-18.0,6.0,4.0,3.0,0.782768726348877
242,26.0,-2.0,-33.0,0.0,-513.0,-6799.0,-11054.0,-9990.0,-10.0,-13.0,-31.0,-2.0,6.0,1.0,-7.0,-5.0,0.7846512794494629
243,26.0,-2.0,-33.0,0.0,-513.0,-6799.0,-11054.0,-9990.0,-7.0,-17.0,-24.0,4.0,-12.0,-16.0,15.0,-2.0,0.7866344451904297
244,3.0,-10.0,-15.0,0.0,-513.0,-6799.0,-11054.0,-9989.0,-7.0,-17.0,-24.0,4.0,-12.0,-16.0,15.0,-2.0,0.7976577281951904
245,3.0,-10.0,-15.0,0.0,-513.0,-6799.0,-11054.0,-9989.0,19.0,36.0,-2.0,2.0,-12.0,-1.0,-18.0,15.0,0.7995221614837646
246,3.0,-10.0,-15.0,0.0,-513.0,-6799.0,-11054.0,-9989.0,-15.0,-16.0,-9.0,-41.0,38.0,27.0,17.0,-7.0,0.801293134689331
247,93.0,9.0,-61.0,0.0,-509.0,-6795.0,-11070.0,-9975.0,-15.0,-16.0,-9.0,-41.0,38.0,27.0,17.0,-7.0,0.821195125579834
248,93.0,9.0,-61.0,0.0,-509.0,-6795.0,-11070.0,-9975.0,0.0,-27.0,-22.0,69.0,30.0,12.0,34.0,5.0,0.8268651962280273
249,93.0,9.0,-61.0,0.0,-509.0,-6795.0,-11070.0,-9975.0,-40.0,-78.0,-99.0,17.0,-103.0,-53.0,-19.0,-11.0,0.8306903839111328
250,193.0,39.0,-188.0,0.0,-514.0,-6766.0,-11107.0,-9952.0,-40.0,-78.0,-99.0,17.0,-103.0,-53.0,-19.0,-11.0,0.833916425704956
251,193.0,39.0,-188.0,0.0,-514.0,-6766.0,-11107.0,-9952.0,-59.0,-89.0,-99.0,-24.0,20.0,-42.0,-64.0,-25.0,0.842221736907959
252,193.0,39.0,-188.0,0.0,-514.0,-6766.0,-11107.0,-9952.0,-59.0,-89.0,-99.0,-24.0,20.0,-42.0,-64.0,-25.0,0.8440232276916504
253,193.0,39.0,-188.0,0.0,-514.0,-6766.0,-11107.0,-9952.0,-5.0,7.0,61.0,9.0,88.0,3.0,47.0,-14.0,0.859036922454834
254,24.0,198.0,-270.0,0.0,-519.0,-6708.0,-11125.0,-9971.0,-5.0,7.0,61.0,9.0,88.0,3.0,47.0,-14.0,0.8621773719787598
255,24.0,198.0,-270.0,0.0,-519.0,-6708.0,-11125.0,-9971.0,25.0,23.0,122.0,62.0,61.0,18.0,24.0,14.0,0.8652923107147217
256,24.0,198.0,-270.0,0.0,-519.0,-6708.0,-11125.0,-9971.0,81.0,105.0,127.0,-2.0,71.0,-31.0,-25.0,13.0,0.8682777881622314
257,-122.0,324.0,-333.0,0.0,-531.0,-6620.0,-11127.0,-10027.0,81.0,105.0,127.0,-2.0,71.0,-31.0,-25.0,13.0,0.8801820278167725
258,-122.0,324.0,-333.0,0.0,-531.0,-6620.0,-11127.0,-10027.0,-30.0,-83.0,-79.0,-30.0,-34.0,-43.0,-46.0,-33.0,0.8820436000823975
259,-122.0,324.0,-333.0,0.0,-531.0,-6620.0,-11127.0,-10027.0,-27.0,-69.0,-115.0,-2.0,11.0,24.0,65.0,15.0,0.8844680786132812
260,-327.0,178.0,-646.0,0.0,-611.0,-6503.0,-11119.0,-10108.0,-27.0,-69.0,-115.0,-2.0,11.0,24.0,65.0,15.0,0.893787145614624
261,-327.0,178.0,-646.0,0.0,-611.0,-6503.0,-11119.0,-10108.0,-16.0,-79.0,-128.0,-74.0,-71.0,2.0,29.0,1.0,0.9022469520568848
262,-327.0,178.0,-646.0,0.0,-611.0,-6503.0,-11119.0,-10108.0,6.0,3.0,15.0,20.0,-18.0,2.0,-42.0,-3.0,0.9043521881103516
263,-396.0,173.0,-888.0,0.0,-719.0,-6357.0,-11110.0,-10203.0,6.0,3.0,15.0,20.0,-18.0,2.0,-42.0,-3.0,0.9179966449737549
264,-396.0,173.0,-888.0,0.0,-719.0,-6357.0,-11110.0,-10203.0,-17.0,-11.0,71.0,-45.0,-33.0,-4.0,-11.0,-4.0,0.920302152633667
265,-396.0,173.0,-888.0,0.0,-719.0,-6357.0,-11110.0,-10203.0,-13.0,-9.0,-30.0,-2.0,-26.0,10.0,4.0,5.0,0.9232730865478516
266,-350.0,252.0,-935.0,0.0,-851.0,-6170.0,-11110.0,-10308.0,-13.0,-9.0,-30.0,-2.0,-26.0,10.0,4.0,5.0,0.9413735866546631
267,-350.0,252.0,-935.0,0.0,-851.0,-6170.0,-11110.0,-10308.0,-1.0,-10.0,64.0,-5.0,22.0,-16.0,-6.0,0.0,0.9449462890625
268,-350.0,252.0,-935.0,0.0,-851.0,-6170.0,-11110.0,-10308.0,5.0,62.0,29.0,32.0,-18.0,26.0,12.0,5.0,0.9489166736602783
269,-581.0,294.0,-1104.0,0.0,-1025.0,-5935.0,-11075.0,-10466.0,5.0,62.0,29.0,32.0,-18.0,26.0,12.0,5.0,0.9540798664093018
270,-581.0,294.0,-1104.0,0.0,-1025.0,-5935.0,-11075.0,-10466.0,17.0,39.0,-33.0,-2.0,-1.0,17.0,8.0,4.0,0.9620101451873779
271,-581.0,294.0,-1104.0,0.0,-1025.0,-5935.0,-11075.0,-10466.0,7.0,-67.0,-41.0,-12.0,1.0,-24.0,-102.0,-21.0,0.963813304901123
272,-699.0,482.0,-1417.0,0.0,-1248.0,-5611.0,-11036.0,-10660.0,7.0,-67.0,-41.0,-12.0,1.0,-24.0,-102.0,-21.0,0.976616621017456
273,-699.0,482.0,-1417.0,0.0,-1248.0,-5611.0,-11036.0,-10660.0,33.0,42.0,-27.0,3.0,23.0,26.0,25.0,24.0,0.9854545593261719
274,-699.0,482.0,-1417.0,0.0,-1248.0,-5611.0,-11036.0,-10660.0,-15.0,-16.0,-60.0,-39.0,-39.0,-14.0,27.0,2.0,0.9886453151702881
275,-988.0,651.0,-1819.0,0.0,-1464.0,-5277.0,-11025.0,-10813.0,-15.0,-16.0,-60.0,-39.0,-39.0,-14.0,27.0,2.0,1.0002410411834717
276,-988.0,651.0,-1819.0,0.0,-1464.0,-5277.0,-11025.0,-10813.0,39.0,55.0,63.0,24.0,26.0,29.0,15.0,8.0,1.002108097076416
277,-988.0,651.0,-1819.0,0.0,-1464.0,-5277.0,-11025.0,-10813.0,-3.0,-20.0,-40.0,-4.0,-14.0,1.0,-23.0,-3.0,1.0041835308074951
278,-1363.0,649.0,-2414.0,0.0,-1770.0,-4862.0,-10997.0,-10989.0,-3.0,-20.0,-40.0,-4.0,-14.0,1.0,-23.0,-3.0,1.0140106678009033
279,-1363.0,649.0,-2414.0,0.0,-1770.0,-4862.0,-10997.0,-10989.0,-40.0,6.0,56.0,9.0,-28.0,-7.0,-9.0,-17.0,1.022970199584961
280,-1363.0,649.0,-2414.0,0.0,-1770.0,-4862.0,-10997.0,-10989.0,-4.0,-8.0,14.0,-29.0,3.0,-1.0,4.0,-1.0,1.0270330905914307
281,-1918.0,688.0,-2975.0,0.0,-2165.0,-4359.0,-10920.0,-11204.0,-4.0,-8.0,14.0,-29.0,3.0,-1.0,4.0,-1.0,1.0374064445495605
282,-1918.0,688.0,-2975.0,0.0,-2165.0,-4359.0,-10920.0,-11204.0,8.0,54.0,75.0,22.0,-11.0,-2.0,-12.0,-1.0,1.0400381088256836
283,-1918.0,688.0,-2975.0,0.0,-2165.0,-4359.0,-10920.0,-11204.0,2.0,-5.0,-20.0,-43.0,-18.0,-14.0,-81.0,0.0,1.0435051918029785
284,-2651.0,646.0,-3356.0,0.0,-2639.0,-3795.0,-10754.0,-11465.0,2.0,-5.0,-20.0,-43.0,-18.0,-14.0,-81.0,0.0,1.060270071029663
285,-2651.0,646.0,-3356.0,0.0,-2639.0,-3795.0,-10754.0,-11465.0,-7.0,9.0,-16.0,13.0,14.0,-9.0,6.0,-2.0,1.0621652603149414
286,-2651.0,646.0,-3356.0,0.0,-2639.0,-3795.0,-10754.0,-11465.0,-9.0,-6.0,-4.0,26.0,20.0,7.0,-3.0,-8.0,1.0639595985412598
287,-3271.0,628.0,-3641.0,0.0,-3161.0,-3180.0,-10498.0,-11754.0,-9.0,-6.0,-4.0,26.0,20.0,7.0,-3.0,-8.0,1.0749993324279785
288,-3271.0,628.0,-3641.0,0.0,-3161.0,-3180.0,-10498.0,-11754.0,14.0,6.0,25.0,3.0,-3.0,12.0,-9.0,9.0,1.08204984664917
289,-3271.0,628.0,-3641.0,0.0,-3161.0,-3180.0,-10498.0,-11754.0,7.0,24.0,37.0,26.0,99.0,27.0,-47.0,-5.0,1.0838475227355957
290,-3650.0,696.0,-3842.0,0.0,-3696.0,-2518.0,-10176.0,-12038.0,7.0,24.0,37.0,26.0,99.0,27.0,-47.0,-5.0,1.0970427989959717
291,-3650.0,696.0,-3842.0,0.0,-3696.0,-2518.0,-10176.0,-12038.0,-5.0,-28.0,-69.0,-9.0,-30.0,-7.0,35.0,8.0,1.0990231037139893
292,-3650.0,696.0,-3842.0,0.0,-3696.0,-2518.0,-10176.0,-12038.0,2.0,27.0,24.0,6.0,26.0,-8.0,33.0,6.0,1.1040894985198975
293,-3814.0,841.0,-3799.0,0.0,-4192.0,-1835.0,-9816.0,-12295.0,2.0,27.0,24.0,6.0,26.0,-8.0,33.0,6.0,1.12123441696167
294,-3814.0,841.0,-3799.0,0.0,-4192.0,-1835.0,-9816.0,-12295.0,3.0,15.0,-9.0,5.0,37.0,8.0,-42.0,-4.0,1.1246144771575928
295,-3814.0,841.0,-3799.0,0.0,-4192.0,-1835.0,-9816.0,-12295.0,6.0,7.0,-6.0,-13.0,-72.0,8.0,78.0,11.0,1.1277811527252197
296,-4062.0,946.0,-3755.0,0.0,-4649.0,-1137.0,-9400.0,-12538.0,6.0,7.0,-6.0,-13.0,-72.0,8.0,78.0,11.0,1.1343116760253906
297,-4062.0,946.0,-3755.0,0.0,-4649.0,-1137.0,-9400.0,-12538.0,-15.0,-42.0,-49.0,16.0,-6.0,-11.0,-22.0,-10.0,1.1431396007537842
298,-4062.0,946.0,-3755.0,0.0,-4649.0,-1137.0,-9400.0,-12538.0,2.0,-2.0,-6.0,14.0,-41.0,-3.0,9.0,2.0,1.1449906826019287
299,-3919.0,1164.0,-3706.0,0.0,-5053.0,-425.0,-8985.0,-12729.0,2.0,-2.0,-6.0,14.0,-41.0,-3.0,9.0,2.0,1.1578879356384277
300,-3919.0,1164.0,-3706.0,0.0,-5053.0,-425.0,-8985.0,-12729.0,-1.0,9.0,10.0,11.0,-25.0,-2.0,-26.0,-11.0,1.1612193584442139
301,-3919.0,1164.0,-3706.0,0.0,-5053.0,-425.0,-8985.0,-12729.0,4.0,24.0,38.0,32.0,-61.0,-13.0,87.0,10.0,1.1652603149414062
302,-3638.0,1373.0,-3618.0,0.0,-5404.0,295.0,-8596.0,-12856.0,4.0,24.0,38.0,32.0,-61.0,-13.0,87.0,10.0,1.180307149887085
303,-3638.0,1373.0,-3618.0,0.0,-5404.0,295.0,-8596.0,-12856.0,-10.0,-33.0,-44.0,-65.0,1.0,-65.0,6.0,-11.0,1.1821651458740234
304,-3638.0,1373.0,-3618.0,0.0,-5404.0,295.0,-8596.0,-12856.0,2.0,10.0,2.0,-33.0,77.0,-40.0,-53.0,-12.0,1.1839518547058105
305,-3262.0,1543.0,-3544.0,0.0,-5714.0,1011.0,-8242.0,-12917.0,2.0,10.0,2.0,-33.0,77.0,-40.0,-53.0,-12.0,1.1945137977600098
306,-3262.0,1543.0,-3544.0,0.0,-5714.0,1011.0,-8242.0,-12917.0,-4.0,1.0,27.0,-21.0,20.0,46.0,21.0,4.0,1.2021100521087646
307,-3262.0,1543.0,-3544.0,0.0,-5714.0,1011.0,-8242.0,-12917.0,-6.0,3.0,7.0,-18.0,-37.0,40.0,14.0,9.0,1.203925371170044
308,-3048.0,1647.0,-3398.0,0.0,-5981.0,1714.0,-7901.0,-12935.0,-6.0,3.0,7.0,-18.0,-37.0,40.0,14.0,9.0,1.2180836200714111
309,-3048.0,1647.0,-3398.0,0.0,-5981.0,1714.0,-7901.0,-12935.0,6.0,-5.0,-21.0,-4.0,37.0,-48.0,-19.0,4.0,1.2219700813293457
310,-3048.0,1647.0,-3398.0,0.0,-5981.0,1714.0,-7901.0,-12935.0,-5.0,-19.0,-7.0,-3.0,33.0,18.0,-59.0,-20.0,1.2263915538787842
311,-2945.0,1854.0,-3122.0,0.0,-6180.0,2415.0,-7569.0,-12929.0,-5.0,-19.0,-7.0,-3.0,33.0,18.0,-59.0,-20.0,1.2407915592193604
312,-2945.0,1854.0,-3122.0,0.0,-6180.0,2415.0,-7569.0,-12929.0,12.0,20.0,33.0,35.0,-2.0,-64.0,-104.0,6.0,1.244811773300171
313,-2945.0,1854.0,-3122.0,0.0,-6180.0,2415.0,-7569.0,-12929.0,13.0,5.0,-2.0,39.0,85.0,6.0,100.0,17.0,1.2482385635375977
314,-2491.0,2030.0,-2888.0,0.0,-6333.0,3090.0,-7292.0,-12870.0,13.0,5.0,-2.0,39.0,85.0,6.0,100.0,17.0,1.2625668048858643
315,-2491.0,2030.0,-2888.0,0.0,-6333.0,3090.0,-7292.0,-12870.0,12.0,41.0,53.0,-14.0,81.0,73.0,32.0,2.0,1.2644598484039307
316,-2491.0,2030.0,-2888.0,0.0,-6333.0,3090.0,-7292.0,-12870.0,12.0,41.0,53.0,-14.0,81.0,73.0,32.0,2.0,1.2662556171417236
317,-2491.0,2030.0,-2888.0,0.0,-6333.0,3090.0,-7292.0,-12870.0,12.0,25.0,-17.0,12.0,0.0,114.0,-46.0,1.0,1.2765634059906006
318,-1895.0,1770.0,-2866.0,0.0,-6518.0,3686.0,-7054.0,-12753.0,12.0,25.0,-17.0,12.0,0.0,114.0,-46.0,1.0,1.2784082889556885
319,-1895.0,1770.0,-2866.0,0.0,-6518.0,3686.0,-7054.0,-12753.0,-10.0,-22.0,-10.0,-26.0,-38.0,-19.0,8.0,-4.0,1.2851591110229492
320,-1895.0,1770.0,-2866.0,0.0,-6518.0,3686.0,-7054.0,-12753.0,-9.0,7.0,11.0,-17.0,7.0,5.0,-91.0,-17.0,1.2883381843566895
321,-1439.0,1349.0,-2781.0,0.0,-6739.0,4186.0,-6832.0,-12603.0,-9.0,7.0,11.0,-17.0,7.0,5.0,-91.0,-17.0,1.3003759384155273
322,-1439.0,1349.0,-2781.0,0.0,-6739.0,4186.0,-6832.0,-12603.0,23.0,2.0,3.0,-9.0,-5.0,108.0,60.0,64.0,1.3039960861206055
323,-1439.0,1349.0,-2781.0,0.0,-6739.0,4186.0,-6832.0,-12603.0,6.0,-2.0,32.0,33.0,-13.0,-78.0,16.0,17.0,1.3072223663330078
324,-1070.0,1058.0,-2385.0,0.0,-6940.0,4592.0,-6646.0,-12452.0,6.0,-2.0,32.0,33.0,-13.0,-78.0,16.0,17.0,1.3239858150482178
325,-1070.0,1058.0,-2385.0,0.0,-6940.0,4592.0,-6646.0,-12452.0,-11.0,-15.0,-34.0,-26.0,-68.0,25.0,89.0,-18.0,1.3277819156646729
326,-1070.0,1058.0,-2385.0,0.0,-6940.0,4592.0,-6646.0,-12452.0,-8.0,-7.0,-68.0,-29.0,105.0,3.0,43.0,-8.0,1.330993890762329
327,-908.0,716.0,-1910.0,0.0,-7106.0,4905.0,-6472.0,-12330.0,-8.0,-7.0,-68.0,-29.0,105.0,3.0,43.0,-8.0,1.3374664783477783
328,-908.0,716.0,-1910.0,0.0,-7106.0,4905.0,-6472.0,-12330.0,10.0,45.0,29.0,23.0,44.0,-49.0,-94.0,-11.0,1.3393747806549072
329,-908.0,716.0,-1910.0,0.0,-7106.0,4905.0,-6472.0,-12330.0,8.0,18.0,-2.0,1.0,53.0,65.0,108.0,58.0,1.3440968990325928
330,-794.0,413.0,-1357.0,0.0,-7249.0,5146.0,-6271.0,-12251.0,8.0,18.0,-2.0,1.0,53.0,65.0,108.0,58.0,1.361567497253418
331,-794.0,413.0,-1357.0,0.0,-7249.0,5146.0,-6271.0,-12251.0,-10.0,-22.0,-62.0,11.0,65.0,-11.0,53.0,-18.0,1.3651504516601562
332,-794.0,413.0,-1357.0,0.0,-7249.0,5146.0,-6271.0,-12251.0,-14.0,-37.0,-80.0,2.0,80.0,-20.0,-64.0,-19.0,1.368361234664917
333,-686.0,210.0,-828.0,0.0,-7352.0,5331.0,-6080.0,-12207.0,-14.0,-37.0,-80.0,2.0,80.0,-20.0,-64.0,-19.0,1.3832459449768066
334,-686.0,210.0,-828.0,0.0,-7352.0,5331.0,-6080.0,-12207.0,6.0,4.0,40.0,27.0,-25.0,-11.0,-9.0,10.0,1.3867771625518799
335,-686.0,210.0,-828.0,0.0,-7352.0,5331.0,-6080.0,-12207.0,-6.0,-8.0,-23.0,-32.0,-95.0,-77.0,-72.0,-17.0,1.3902127742767334
336,-447.0,76.0,-311.0,0.0,-7408.0,5458.0,-5942.0,-12185.0,-6.0,-8.0,-23.0,-32.0,-95.0,-77.0,-72.0,-17.0,1.3971092700958252
337,-447.0,76.0,-311.0,0.0,-7408.0,5458.0,-5942.0,-12185.0,-16.0,-26.0,-61.0,-22.0,-53.0,50.0,25.0,-18.0,1.405130386352539
338,-447.0,76.0,-311.0,0.0,-7408.0,5458.0,-5942.0,-12185.0,11.0,44.0,101.0,-7.0,-21.0,-35.0,-32.0,-9.0,1.4069499969482422
339,-169.0,-39.0,254.0,0.0,-7415.0,5523.0,-5863.0,-12190.0,11.0,44.0,101.0,-7.0,-21.0,-35.0,-32.0,-9.0,1.4209611415863037
340,-169.0,-39.0,254.0,0.0,-7415.0,5523.0,-5863.0,-12190.0,-58.0,-54.0,-69.0,-104.0,-109.0,-106.0,69.0,-61.0,1.4249470233917236
341,-169.0,-39.0,254.0,0.0,-7415.0,5523.0,-5863.0,-12190.0,-2.0,0.0,51.0,1.0,-103.0,-33.0,-70.0,-7.0,1.428656816482544
342,213.0,-96.0,837.0,0.0,-7371.0,5520.0,-5867.0,-12216.0,-2.0,0.0,51.0,1.0,-103.0,-33.0,-70.0,-7.0,1.4433543682098389
343,213.0,-96.0,837.0,0.0,-7371.0,5520.0,-5867.0,-12216.0,-8.0,17.0,13.0,19.0,-81.0,-84.0,-37.0,-28.0,1.4452996253967285
344,213.0,-96.0,837.0,0.0,-7371.0,5520.0,-5867.0,-12216.0,-5.0,-2.0,-21.0,-11.0,-25.0,-113.0,-4.0,-17.0,1.447117567062378
345,526.0,-75.0,1283.0,0.0,-7278.0,5455.0,-5952.0,-12260.0,-5.0,-2.0,-21.0,-11.0,-25.0,-113.0,-4.0,-17.0,1.4564564228057861
346,526.0,-75.0,1283.0,0.0,-7278.0,5455.0,-5952.0,-12260.0,-1.0,-9.0,-15.0,19.0,127.0,115.0,13.0,1.0,1.4656915664672852
347,526.0,-75.0,1283.0,0.0,-7278.0,5455.0,-5952.0,-12260.0,13.0,-4.0,-1.0,-11.0,-91.0,-54.0,40.0,16.0,1.46885347366333
348,675.0,-81.0,1740.0,0.0,-7095.0,5294.0,-6132.0,-12348.0,13.0,-4.0,-1.0,-11.0,-91.0,-54.0,40.0,16.0,1.4808874130249023
349,675.0,-81.0,1740.0,0.0,-7095.0,5294.0,-6132.0,-12348.0,9.0,19.0,86.0,125.0,119.0,47.0,12.0,18.0,1.4841878414154053
350,675.0,-81.0,1740.0,0.0,-7095.0,5294.0,-6132.0,-12348.0,13.0,6.0,32.0,12.0,-68.0,40.0,-63.0,4.0,1.4876995086669922
351,821.0,-76.0,2268.0,0.0,-6843.0,5082.0,-6366.0,-12461.0,13.0,6.0,32.0,12.0,-68.0,40.0,-63.0,4.0,1.5049793720245361
352,821.0,-76.0,2268.0,0.0,-6843.0,5082.0,-6366.0,-12461.0,38.0,38.0,56.0,-1.0,-17.0,75.0,26.0,45.0,1.509186029434204
353,821.0,-76.0,2268.0,0.0,-6843.0,5082.0,-6366.0,-12461.0,-23.0,-9.0,57.0,-10.0,-19.0,18.0,-100.0,-43.0,1.5122802257537842
354,1303.0,-90.0,2897.0,0.0,-6526.0,4782.0,-6697.0,-12576.0,-23.0,-9.0,57.0,-10.0,-19.0,18.0,-100.0,-43.0,1.516751766204834
355,1303.0,-90.0,2897.0,0.0,-6526.0,4782.0,-6697.0,-12576.0,8.0,7.0,-10.0,-97.0,-97.0,-10.0,76.0,27.0,1.5248377323150635
356,1303.0,-90.0,2897.0,0.0,-6526.0,4782.0,-6697.0,-12576.0,-9.0,-14.0,5.0,13.0,127.0,104.0,45.0,3.0,1.5266528129577637
357,1855.0,-46.0,3564.0,0.0,-6127.0,4386.0,-7140.0,-12677.0,-9.0,-14.0,5.0,13.0,127.0,104.0,45.0,3.0,1.5426437854766846
358,1855.0,-46.0,3564.0,0.0,-6127.0,4386.0,-7140.0,-12677.0,-14.0,-17.0,-20.0,-12.0,106.0,-37.0,-128.0,-56.0,1.5465607643127441
359,1855.0,-46.0,3564.0,0.0,-6127.0,4386.0,-7140.0,-12677.0,-14.0,-17.0,-20.0,-12.0,106.0,-37.0,-128.0,-56.0,1.550217866897583
360,1855.0,-46.0,3564.0,0.0,-6127.0,4386.0,-7140.0,-12677.0,13.0,9.0,3.0,22.0,29.0,41.0,-69.0,3.0,1.5633583068847656
361,2025.0,-95.0,4054.0,0.0,-5656.0,3915.0,-7612.0,-12775.0,13.0,9.0,3.0,22.0,29.0,41.0,-69.0,3.0,1.5672953128814697
362,2025.0,-95.0,4054.0,0.0,-5656.0,3915.0,-7612.0,-12775.0,-4.0,-3.0,-3.0,12.0,-52.0,49.0,-79.0,-14.0,1.5709047317504883
363,2025.0,-95.0,4054.0,0.0,-5656.0,3915.0,-7612.0,-12775.0,-2.0,-7.0,-26.0,17.0,-11.0,-21.0,-50.0,-28.0,1.5751891136169434
364,2026.0,-153.0,4440.0,0.0,-5118.0,3388.0,-8080.0,-12864.0,-2.0,-7.0,-26.0,17.0,-11.0,-21.0,-50.0,-28.0,1.5778372287750244
365,2026.0,-153.0,4440.0,0.0,-5118.0,3388.0,-8080.0,-12864.0,40.0,31.0,15.0,11.0,-85.0,75.0,28.0,78.0,1.5846271514892578
366,2026.0,-153.0,4440.0,0.0,-5118.0,3388.0,-8080.0,-12864.0,-12.0,-16.0,-35.0,-87.0,-49.0,4.0,-34.0,-27.0,1.5867908000946045
367,1767.0,-326.0,4661.0,0.0,-4536.0,2813.0,-8490.0,-12957.0,-12.0,-16.0,-35.0,-87.0,-49.0,4.0,-34.0,-27.0,1.6007914543151855
368,1767.0,-326.0,4661.0,0.0,-4536.0,2813.0,-8490.0,-12957.0,-3.0,-1.0,-2.0,58.0,43.0,-68.0,-47.0,9.0,1.6043572425842285
369,1767.0,-326.0,4661.0,0.0,-4536.0,2813.0,-8490.0,-12957.0,8.0,-1.0,-27.0,-48.0,113.0,25.0,127.0,86.0,1.6083297729492188
370,1232.0,-616.0,4477.0,0.0,-3972.0,2223.0,-8778.0,-13065.0,8.0,-1.0,-27.0,-48.0,113.0,25.0,127.0,86.0,1.6238503456115723
371,1232.0,-616.0,4477.0,0.0,-3972.0,2223.0,-8778.0,-13065.0,14.0,3.0,10.0,6.0,114.0,-57.0,23.0,53.0,1.6282715797424316
372,1232.0,-616.0,4477.0,0.0,-3972.0,2223.0,-8778.0,-13065.0,-10.0,-15.0,5.0,58.0,64.0,28.0,-58.0,13.0,1.6317138671875
373,619.0,-688.0,4025.0,0.0,-3456.0,1681.0,-8932.0,-13188.0,-10.0,-15.0,5.0,58.0,64.0,28.0,-58.0,13.0,1.636458396911621
374,619.0,-688.0,4025.0,0.0,-3456.0,1681.0,-8932.0,-13188.0,-17.0,-6.0,-20.0,40.0,39.0,-3.0,-108.0,-76.0,1.6454763412475586
375,619.0,-688.0,4025.0,0.0,-3456.0,1681.0,-8932.0,-13188.0,-2.0,-7.0,-10.0,-12.0,-93.0,-91.0,0.0,9.0,1.6486480236053467
376,643.0,-597.0,3256.0,0.0,-3039.0,1228.0,-9061.0,-13252.0,-2.0,-7.0,-10.0,-12.0,-93.0,-91.0,0.0,9.0,1.6613118648529053
377,643.0,-597.0,3256.0,0.0,-3039.0,1228.0,-9061.0,-13252.0,2.0,7.0,8.0,-7.0,21.0,-10.0,-26.0,-24.0,1.6646504402160645
378,643.0,-597.0,3256.0,0.0,-3039.0,1228.0,-9061.0,-13252.0,1.0,-4.0,1.0,34.0,37.0,88.0,12.0,-4.0,1.6677539348602295
379,645.0,-439.0,2172.0,0.0,-2764.0,909.0,-9162.0,-13268.0,1.0,-4.0,1.0,34.0,37.0,88.0,12.0,-4.0,1.6854884624481201
380,645.0,-439.0,2172.0,0.0,-2764.0,909.0,-9162.0,-13268.0,-15.0,-8.0,-13.0,-56.0,12.0,32.0,-93.0,-60.0,1.6916065216064453
381,645.0,-439.0,2172.0,0.0,-2764.0,909.0,-9162.0,-13268.0,-8.0,0.0,7.0,14.0,30.0,22.0,83.0,-7.0,1.6943726539611816
382,1469.0,-6.0,1219.0,0.0,-2576.0,696.0,-9356.0,-13183.0,-8.0,0.0,7.0,14.0,30.0,22.0,83.0,-7.0,1.6962487697601318
383,1469.0,-6.0,1219.0,0.0,-2576.0,696.0,-9356.0,-13183.0,19.0,49.0,47.0,44.0,31.0,-5.0,65.0,44.0,1.7051174640655518
384,1469.0,-6.0,1219.0,0.0,-2576.0,696.0,-9356.0,-13183.0,13.0,20.0,-18.0,-60.0,-7.0,-22.0,-12.0,-20.0,1.7069294452667236
385,2795.0,466.0,1017.0,0.0,-2402.0,580.0,-9774.0,-12916.0,13.0,20.0,-18.0,-60.0,-7.0,-22.0,-12.0,-20.0,1.7217471599578857
386,2795.0,466.0,1017.0,0.0,-2402.0,580.0,-9774.0,-12916.0,-10.0,-35.0,-28.0,-7.0,-47.0,-10.0,28.0,-2.0,1.7256450653076172
387,2795.0,466.0,1017.0,0.0,-2402.0,580.0,-9774.0,-12916.0,-7.0,-19.0,-8.0,-21.0,-25.0,-4.0,33.0,3.0,1.7287712097167969
388,3573.0,-273.0,920.0,0.0,-2338.0,371.0,-10274.0,-12542.0,-7.0,-19.0,-8.0,-21.0,-25.0,-4.0,33.0,3.0,1.7427473068237305
389,3573.0,-273.0,920.0,0.0,-2338.0,371.0,-10274.0,-12542.0,-47.0,-115.0,-128.0,45.0,-38.0,-24.0,10.0,-12.0,1.7458481788635254
390,3573.0,-273.0,920.0,0.0,-2338.0,371.0,-10274.0,-12542.0,-12.0,-21.0,-48.0,80.0,37.0,-8.0,4.0,-5.0,1.7504997253417969
391,3658.0,992.0,-169.0,0.0,-2249.0,417.0,-10797.0,-12110.0,-12.0,-21.0,-48.0,80.0,37.0,-8.0,4.0,-5.0,1.7576353549957275
392,3658.0,992.0,-169.0,0.0,-2249.0,417.0,-10797.0,-12110.0,-5.0,9.0,45.0,-6.0,28.0,-47.0,-30.0,-15.0,1.764786958694458
393,3658.0,992.0,-169.0,0.0,-2249.0,417.0,-10797.0,-12110.0,0.0,12.0,-7.0,-35.0,-80.0,-6.0,46.0,-9.0,1.7666740417480469
394,1783.0,581.0,-305.0,0.0,-2213.0,472.0,-11054.0,-11881.0,0.0,12.0,-7.0,-35.0,-80.0,-6.0,46.0,-9.0,1.7824018001556396
395,1783.0,581.0,-305.0,0.0,-2213.0,472.0,-11054.0,-11881.0,-28.0,-44.0,-54.0,-45.0,-33.0,11.0,33.0,-9.0,1.7863683700561523
396,1783.0,581.0,-305.0,0.0,-2213.0,472.0,-11054.0,-11881.0,-12.0,-34.0,-87.0,-53.0,42.0,-7.0,-17.0,1.0,1.7898492813110352
397,1380.0,522.0,-117.0,0.0,-2111.0,458.0,-11264.0,-11701.0,-12.0,-34.0,-87.0,-53.0,42.0,-7.0,-17.0,1.0,1.8027679920196533
398,1380.0,522.0,-117.0,0.0,-2111.0,458.0,-11264.0,-11701.0,-4.0,-15.0,-61.0,-47.0,-86.0,-40.0,-60.0,-12.0,1.8061964511871338
399,1380.0,522.0,-117.0,0.0,-2111.0,458.0,-11264.0,-11701.0,31.0,44.0,36.0,36.0,26.0,79.0,-31.0,3.0,1.809628963470459
400,1251.0,610.0,483.0,0.0,-1942.0,404.0,-11417.0,-11584.0,31.0,44.0,36.0,36.0,26.0,79.0,-31.0,3.0,1.816967248916626
401,1251.0,610.0,483.0,0.0,-1942.0,404.0,-11417.0,-11584.0,-6.0,-14.0,11.0,11.0,60.0,11.0,13.0,-1.0,1.8253495693206787
402,1251.0,610.0,483.0,0.0,-1942.0,404.0,-11417.0,-11584.0,-21.0,-12.0,39.0,-27.0,-3.0,-17.0,-22.0,-42.0,1.8272242546081543
403,602.0,462.0,411.0,0.0,-1855.0,406.0,-11440.0,-11575.0,-21.0,-12.0,39.0,-27.0,-3.0,-17.0,-22.0,-42.0,1.841785192489624
404,602.0,462.0,411.0,0.0,-1855.0,406.0,-11440.0,-11575.0,47.0,114.0,127.0,-18.0,13.0,15.0,17.0,14.0,1.8463199138641357
405,602.0,462.0,411.0,0.0,-1855.0,406.0,-11440.0,-11575.0,36.0,100.0,127.0,103.0,66.0,15.0,4.0,25.0,1.8498437404632568
406,57.0,204.0,776.0,0.0,-1775.0,368.0,-11389.0,-11639.0,36.0,100.0,127.0,103.0,66.0,15.0,4.0,25.0,1.8627557754516602
407,57.0,204.0,776.0,0.0,-1775.0,368.0,-11389.0,-11639.0,20.0,-8.0,-48.0,-9.0,-71.0,-71.0,7.0,2.0,1.8658673763275146
408,57.0,204.0,776.0,0.0,-1775.0,368.0,-11389.0,-11639.0,4.0,-13.0,-39.0,-37.0,-14.0,22.0,77.0,56.0,1.8693609237670898
409,-415.0,-98.0,970.0,0.0,-1686.0,264.0,-11311.0,-11731.0,4.0,-13.0,-39.0,-37.0,-14.0,22.0,77.0,56.0,1.8772187232971191
410,-415.0,-98.0,970.0,0.0,-1686.0,264.0,-11311.0,-11731.0,-19.0,-25.0,-17.0,-61.0,-58.0,-76.0,-50.0,-36.0,1.8845508098602295
411,-415.0,-98.0,970.0,0.0,-1686.0,264.0,-11311.0,-11731.0,-6.0,-24.0,-31.0,1.0,-61.0,53.0,39.0,1.0,1.8864350318908691
412,-302.0,-67.0,968.0,0.0,-1548.0,120.0,-11283.0,-11779.0,-6.0,-24.0,-31.0,1.0,-61.0,53.0,39.0,1.0,1.9011433124542236
413,-302.0,-67.0,968.0,0.0,-1548.0,120.0,-11283.0,-11779.0,-22.0,-52.0,-72.0,11.0,125.0,75.0,18.0,9.0,1.9064688682556152
414,-302.0,-67.0,968.0,0.0,-1548.0,120.0,-11283.0,-11779.0,3.0,53.0,71.0,-62.0,-75.0,-69.0,-47.0,-23.0,1.9111158847808838
415,-436.0,-12.0,1025.0,0.0,-1401.0,-17.0,-11231.0,-11848.0,3.0,53.0,71.0,-62.0,-75.0,-69.0,-47.0,-23.0,1.9225168228149414
416,-436.0,-12.0,1025.0,0.0,-1401.0,-17.0,-11231.0,-11848.0,9.0,19.0,11.0,13.0,-5.0,51.0,25.0,21.0,1.9251642227172852
417,-436.0,-12.0,1025.0,0.0,-1401.0,-17.0,-11231.0,-11848.0,-21.0,-52.0,-72.0,17.0,20.0,-67.0,-6.0,-36.0,1.928206443786621
418,-292.0,-61.0,983.0,0.0,-1276.0,-149.0,-11176.0,-11912.0,-21.0,-52.0,-72.0,17.0,20.0,-67.0,-6.0,-36.0,1.9380650520324707
419,-292.0,-61.0,983.0,0.0,-1276.0,-149.0,-11176.0,-11912.0,-16.0,-7.0,-3.0,-32.0,31.0,2.0,57.0,10.0,1.9445431232452393
420,-292.0,-61.0,983.0,0.0,-1276.0,-149.0,-11176.0,-11912.0,1.0,8.0,29.0,20.0,-14.0,5.0,-3.0,16.0,1.9463860988616943
421,323.0,102.0,839.0,0.0,-1127.0,-273.0,-11196.0,-11906.0,1.0,8.0,29.0,20.0,-14.0,5.0,-3.0,16.0,1.9608421325683594
422,323.0,102.0,839.0,0.0,-1127.0,-273.0,-11196.0,-11906.0,4.0,9.0,35.0,0.0,61.0,15.0,-31.0,1.0,1.9651856422424316
423,323.0,102.0,839.0,0.0,-1127.0,-273.0,-11196.0,-11906.0,-6.0,-7.0,-23.0,91.0,56.0,-45.0,40.0,-2.0,1.970379114151001
424,272.0,238.0,743.0,0.0,-996.0,-340.0,-11229.0,-11886.0,-6.0,-7.0,-23.0,91.0,56.0,-45.0,40.0,-2.0,1.9828205108642578
425,272.0,238.0,743.0,0.0,-996.0,-340.0,-11229.0,-11886.0,17.0,26.0,25.0,22.0,0.0,32.0,32.0,10.0,1.9861037731170654
426,272.0,238.0,743.0,0.0,-996.0,-340.0,-11229.0,-11886.0,-11.0,-30.0,-15.0,-35.0,-30.0,-29.0,-44.0,-9.0,1.9896903038024902
427,10.0,119.0,572.0,0.0,-906.0,-397.0,-11227.0,-11892.0,-11.0,-30.0,-15.0,-35.0,-30.0,-29.0,-44.0,-9.0,1.9977428913116455
428,10.0,119.0,572.0,0.0,-906.0,-397.0,-11227.0,-11892.0,10.0,63.0,92.0,17.0,-49.0,19.0,21.0,-60.0,2.004908561706543
429,10.0,119.0,572.0,0.0,-906.0,-397.0,-11227.0,-11892.0,10.0,-9.0,5.0,4.0,17.0,28.0,-2.0,11.0,2.006772994995117
430,124.0,104.0,341.0,0.0,-834.0,-441.0,-11253.0,-11871.0,10.0,-9.0,5.0,4.0,17.0,28.0,-2.0,11.0,2.0199735164642334
431,124.0,104.0,341.0,0.0,-834.0,-441.0,-11253.0,-11871.0,-5.0,-16.0,-31.0,-18.0,-30.0,7.0,-3.0,34.0,2.0236451625823975
432,124.0,104.0,341.0,0.0,-834.0,-441.0,-11253.0,-11871.0,-8.0,2.0,11.0,-3.0,46.0,14.0,-39.0,-27.0,2.0279171466827393
433,-57.0,202.0,323.0,0.0,-772.0,-449.0,-11267.0,-11862.0,-8.0,2.0,11.0,-3.0,46.0,14.0,-39.0,-27.0,2.0431933403015137
434,-57.0,202.0,323.0,0.0,-772.0,-449.0,-11267.0,-11862.0,17.0,26.0,11.0,34.0,14.0,-30.0,0.0,7.0,2.045224189758301
435,-57.0,202.0,323.0,0.0,-772.0,-449.0,-11267.0,-11862.0,-29.0,-60.0,-63.0,27.0,-74.0,-24.0,1.0,1.0,2.0473039150238037
436,-423.0,158.0,284.0,0.0,-716.0,-461.0,-11233.0,-11897.0,-29.0,-60.0,-63.0,27.0,-74.0,-24.0,1.0,1.0,2.0564565658569336
437,-423.0,158.0,284.0,0.0,-716.0,-461.0,-11233.0,-11897.0,-7.0,-7.0,1.0,0.0,-2.0,-4.0,-46.0,-9.0,2.064639091491699
438,-423.0,158.0,284.0,0.0,-716.0,-461.0,-11233.0,-11897.0,1.0,4.0,4.0,-7.0,34.0,-2.0,9.0,-7.0,2.0664560794830322
439,-356.0,102.0,141.0,0.0,-676.0,-473.0,-11203.0,-11927.0,1.0,4.0,4.0,-7.0,34.0,-2.0,9.0,-7.0,2.079730987548828
440,-356.0,102.0,141.0,0.0,-676.0,-473.0,-11203.0,-11927.0,-8.0,17.0,29.0,33.0,36.0,11.0,-11.0,-17.0,2.0816564559936523
441,-356.0,102.0,141.0,0.0,-676.0,-473.0,-11203.0,-11927.0,0.0,-4.0,-12.0,-18.0,-27.0,-5.0,-17.0,12.0,2.0866825580596924
442,-239.0,33.0,-2.0,0.0,-669.0,-472.0,-11187.0,-11943.0,0.0,-4.0,-12.0,-18.0,-27.0,-5.0,-17.0,12.0,2.1027143001556396
443,-239.0,33.0,-2.0,0.0,-669.0,-472.0,-11187.0,-11943.0,-1.0,-24.0,-3.0,9.0,60.0,26.0,20.0,18.0,2.104832887649536
444,-239.0,33.0,-2.0,0.0,-669.0,-472.0,-11187.0,-11943.0,14.0,8.0,16.0,11.0,51.0,98.0,86.0,25.0,2.1066648960113525
445,-323.0,-55.0,-47.0,0.0,-675.0,-479.0,-11158.0,-11969.0,14.0,8.0,16.0,11.0,51.0,98.0,86.0,25.0,2.1166024208068848
446,-323.0,-55.0,-47.0,0.0,-675.0,-479.0,-11158.0,-11969.0,3.0,-19.0,-32.0,21.0,10.0,8.0,34.0,26.0,2.125563859939575
447,-323.0,-55.0,-47.0,0.0,-675.0,-479.0,-11158.0,-11969.0,0.0,29.0,36.0,-15.0,34.0,11.0,-28.0,-73.0,2.1275088787078857
448,-370.0,-105.0,-107.0,0.0,-696.0,-486.0,-11124.0,-12000.0,0.0,29.0,36.0,-15.0,34.0,11.0,-28.0,-73.0,2.139371395111084
449,-370.0,-105.0,-107.0,0.0,-696.0,-486.0,-11124.0,-12000.0,1.0,-15.0,-12.0,39.0,-6.0,44.0,75.0,43.0,2.1427323818206787
450,-370.0,-105.0,-107.0,0.0,-696.0,-486.0,-11124.0,-12000.0,1.0,22.0,21.0,10.0,-86.0,-25.0,-16.0,3.0,2.147244453430176
451,-248.0,-93.0,-151.0,0.0,-719.0,-487.0,-11106.0,-12015.0,1.0,22.0,21.0,10.0,-86.0,-25.0,-16.0,3.0,2.1628897190093994
452,-248.0,-93.0,-151.0,0.0,-719.0,-487.0,-11106.0,-12015.0,0.0,5.0,-1.0,-57.0,-39.0,-47.0,-35.0,-8.0,2.164849042892456
453,-248.0,-93.0,-151.0,0.0,-719.0,-487.0,-11106.0,-12015.0,0.0,-11.0,-16.0,-3.0,23.0,6.0,38.0,-2.0,2.166773796081543
454,-200.0,-95.0,-116.0,0.0,-743.0,-487.0,-11097.0,-12022.0,0.0,-11.0,-16.0,-3.0,23.0,6.0,38.0,-2.0,2.1863608360290527
455,-200.0,-95.0,-116.0,0.0,-743.0,-487.0,-11097.0,-12022.0,1.0,-4.0,-15.0,-4.0,-62.0,-25.0,3.0,9.0,2.18985915184021
456,-200.0,-95.0,-116.0,0.0,-743.0,-487.0,-11097.0,-12022.0,-6.0,-10.0,-11.0,-28.0,19.0,-21.0,-51.0,-3.0,2.193552017211914
457,-206.0,-143.0,-127.0,0.0,-772.0,-496.0,-11081.0,-12034.0,-6.0,-10.0,-11.0,-28.0,19.0,-21.0,-51.0,-3.0,2.1995413303375244
458,-206.0,-143.0,-127.0,0.0,-772.0,-496.0,-11081.0,-12034.0,3.0,-9.0,1.0,-3.0,63.0,40.0,-3.0,-1.0,2.2014708518981934
459,-206.0,-143.0,-127.0,0.0,-772.0,-496.0,-11081.0,-12034.0,17.0,45.0,34.0,-17.0,79.0,25.0,0.0,23.0,2.2066152095794678
460,-60.0,-107.0,-145.0,0.0,-801.0,-495.0,-11080.0,-12033.0,17.0,45.0,34.0,-17.0,79.0,25.0,0.0,23.0,2.2228446006774902
461,-60.0,-107.0,-145.0,0.0,-801.0,-495.0,-11080.0,-12033.0,5.0,11.0,9.0,0.0,-17.0,23.0,34.0,-16.0,2.2269272804260254
462,-60.0,-107.0,-145.0,0.0,-801.0,-495.0,-11080.0,-12033.0,-3.0,-21.0,-27.0,25.0,64.0,3.0,10.0,22.0,2.2302732467651367
463,9.0,-88.0,-134.0,0.0,-827.0,-492.0,-11088.0,-12025.0,-3.0,-21.0,-27.0,25.0,64.0,3.0,10.0,22.0,2.2461867332458496
464,9.0,-88.0,-134.0,0.0,-827.0,-492.0,-11088.0,-12025.0,1.0,15.0,24.0,3.0,5.0,0.0,-37.0,-24.0,2.2534990310668945
465,9.0,-88.0,-134.0,0.0,-827.0,-492.0,-11088.0,-12025.0,0.0,5.0,-2.0,1.0,-83.0,-23.0,-9.0,-7.0,2.257300615310669
466,-155.0,-124.0,-102.0,0.0,-853.0,-498.0,-11073.0,-12036.0,0.0,5.0,-2.0,1.0,-83.0,-23.0,-9.0,-7.0,2.259493112564087
467,-155.0,-124.0,-102.0,0.0,-853.0,-498.0,-11073.0,-12036.0,3.0,-4.0,-2.0,6.0,41.0,9.0,-11.0,5.0,2.2672321796417236
468,-155.0,-124.0,-102.0,0.0,-853.0,-498.0,-11073.0,-12036.0,-16.0,-41.0,-39.0,26.0,31.0,33.0,16.0,-7.0,2.2690844535827637
469,-219.0,-156.0,-62.0,0.0,-878.0,-512.0,-11049.0,-12056.0,-16.0,-41.0,-39.0,26.0,31.0,33.0,16.0,-7.0,2.2829344272613525
470,-219.0,-156.0,-62.0,0.0,-878.0,-512.0,-11049.0,-12056.0,6.0,1.0,9.0,9.0,-19.0,5.0,21.0,18.0,2.2860958576202393
471,-219.0,-156.0,-62.0,0.0,-878.0,-512.0,-11049.0,-12056.0,-1.0,-14.0,10.0,-2.0,-4.0,16.0,-12.0,-7.0,2.2897610664367676
472,-153.0,-151.0,-22.0,0.0,-898.0,-529.0,-11034.0,-12067.0,-1.0,-14.0,10.0,-2.0,-4.0,16.0,-12.0,-7.0,2.3082635402679443
473,-153.0,-151.0,-22.0,0.0,-898.0,-529.0,-11034.0,-12067.0,-5.0,-5.0,-29.0,16.0,-41.0,-18.0,-11.0,-8.0,2.3127059936523438
474,-153.0,-151.0,-22.0,0.0,-898.0,-529.0,-11034.0,-12067.0,7.0,26.0,25.0,-1.0,56.0,34.0,-25.0,11.0,2.3161892890930176
475,-38.0,-117.0,7.0,0.0,-908.0,-549.0,-11034.0,-12066.0,7.0,26.0,25.0,-1.0,56.0,34.0,-25.0,11.0,2.3203020095825195
476,-38.0,-117.0,7.0,0.0,-908.0,-549.0,-11034.0,-12066.0,2.0,8.0,6.0,-1.0,-45.0,-21.0,-5.0,10.0,2.3222320079803467
477,-38.0,-117.0,7.0,0.0,-908.0,-549.0,-11034.0,-12066.0,-3.0,9.0,0.0,-35.0,17.0,-12.0,-18.0,-2.0,2.324044704437256
478,-5.0,-92.0,27.0,0.0,-917.0,-562.0,-11044.0,-12056.0,-3.0,9.0,0.0,-35.0,17.0,-12.0,-18.0,-2.0,2.34315824508667
479,-5.0,-92.0,27.0,0.0,-917.0,-562.0,-11044.0,-12056.0,-5.0,-18.0,-19.0,5.0,0.0,-1.0,1.0,-8.0,2.345109701156616
480,-5.0,-92.0,27.0,0.0,-917.0,-562.0,-11044.0,-12056.0,-3.0,-9.0,3.0,-2.0,-5.0,-10.0,-8.0,2.0,2.346909284591675
481,-23.0,-44.0,46.0,0.0,-919.0,-570.0,-11050.0,-12050.0,-3.0,-9.0,3.0,-2.0,-5.0,-10.0,-8.0,2.0,2.367088794708252
482,-23.0,-44.0,46.0,0.0,-919.0,-570.0,-11050.0,-12050.0,-7.0,-12.0,-29.0,-6.0,76.0,4.0,14.0,-1.0,2.3720176219940186
483,-23.0,-44.0,46.0,0.0,-919.0,-570.0,-11050.0,-12050.0,10.0,11.0,5.0,-10.0,7.0,12.0,2.0,-14.0,2.3767433166503906
484,-40.0,-21.0,97.0,0.0,-910.0,-583.0,-11051.0,-12048.0,10.0,11.0,5.0,-10.0,7.0,12.0,2.0,-14.0,2.388472557067871
485,-40.0,-21.0,97.0,0.0,-910.0,-583.0,-11051.0,-12048.0,-3.0,2.0,6.0,37.0,-29.0,-18.0,-12.0,2.0,2.392406940460205
486,-40.0,-21.0,97.0,0.0,-910.0,-583.0,-11051.0,-12048.0,-3.0,-2.0,-2.0,-4.0,-42.0,-29.0,33.0,8.0,2.395864963531494
487,3.0,-39.0,70.0,0.0,-902.0,-599.0,-11060.0,-12040.0,-3.0,-2.0,-2.0,-4.0,-42.0,-29.0,33.0,8.0,2.4038596153259277
488,3.0,-39.0,70.0,0.0,-902.0,-599.0,-11060.0,-12040.0,7.0,16.0,31.0,-32.0,-33.0,-7.0,20.0,6.0,2.406405210494995
489,3.0,-39.0,70.0,0.0,-902.0,-599.0,-11060.0,-12040.0,-2.0,20.0,9.0,-25.0,7.0,-6.0,-28.0,-10.0,2.4083170890808105
490,33.0,-6.0,65.0,0.0,-891.0,-611.0,-11072.0,-12029.0,-2.0,20.0,9.0,-25.0,7.0,-6.0,-28.0,-10.0,2.4284985065460205
491,33.0,-6.0,65.0,0.0,-891.0,-611.0,-11072.0,-12029.0,13.0,21.0,12.0,-24.0,20.0,9.0,2.0,30.0,2.4328041076660156
492,33.0,-6.0,65.0,0.0,-891.0,-611.0,-11072.0,-12029.0,-10.0,-43.0,-58.0,14.0,-23.0,-22.0,23.0,5.0,2.4359657764434814
493,19.0,68.0,89.0,0.0,-872.0,-612.0,-11076.0,-12027.0,-10.0,-43.0,-58.0,14.0,-23.0,-22.0,23.0,5.0,2.439577341079712
494,19.0,68.0,89.0,0.0,-872.0,-612.0,-11076.0,-12027.0,-4.0,-4.0,-10.0,-4.0,-65.0,-41.0,-12.0,-11.0,2.4430437088012695
495,19.0,68.0,89.0,0.0,-872.0,-612.0,-11076.0,-12027.0,-3.0,-9.0,-17.0,-6.0,-45.0,-13.0,-46.0,-13.0,2.445998430252075
496,2.0,28.0,76.0,0.0,-859.0,-618.0,-11081.0,-12023.0,-3.0,-9.0,-17.0,-6.0,-45.0,-13.0,-46.0,-13.0,2.46308970451355
497,2.0,28.0,76.0,0.0,-859.0,-618.0,-11081.0,-12023.0,-12.0,-20.0,-26.0,-30.0,-112.0,-15.0,-13.0,-12.0,2.4664902687072754
498,2.0,28.0,76.0,0.0,-859.0,-618.0,-11081.0,-12023.0,-13.0,-2.0,3.0,2.0,23.0,4.0,14.0,23.0,2.469923257827759
499,-5.0,-18.0,33.0,0.0,-853.0,-628.0,-11086.0,-12018.0,-13.0,-2.0,3.0,2.0,23.0,4.0,14.0,23.0,2.486876964569092
