,Gyro 0,Gyro 1,Gyro 2,Label,Orientation 0,Orientation 1,Orientation 2,Orientation 3,Sensor 0,Sensor 1,Sensor 2,Sensor 3,Sensor 4,Sensor 5,Sensor 6,Sensor 7,Timestamp
0,26.0,3.0,-8.0,0.0,9512.0,5124.0,-11452.0,-4535.0,-2.0,-1.0,32.0,1.0,-3.0,-1.0,-3.0,2.0,1.6689300537109375e-06
1,26.0,3.0,-8.0,0.0,9512.0,5124.0,-11452.0,-4535.0,5.0,0.0,0.0,0.0,5.0,4.0,-6.0,-5.0,0.0028982162475585938
2,26.0,3.0,-8.0,0.0,9512.0,5124.0,-11452.0,-4535.0,4.0,6.0,8.0,-4.0,8.0,-5.0,2.0,-6.0,0.0053675174713134766
3,27.0,-1.0,-15.0,0.0,9507.0,5130.0,-11453.0,-4534.0,4.0,6.0,8.0,-4.0,8.0,-5.0,2.0,-6.0,0.007824182510375977
4,27.0,-1.0,-15.0,0.0,9507.0,5130.0,-11453.0,-4534.0,0.0,-3.0,-6.0,-8.0,6.0,-1.0,-5.0,1.0,0.01019740104675293
5,27.0,-1.0,-15.0,0.0,9507.0,5130.0,-11453.0,-4534.0,-2.0,1.0,-8.0,-4.0,-11.0,-1.0,2.0,4.0,0.012454748153686523
6,42.0,2.0,-28.0,0.0,9499.0,5143.0,-11454.0,-4535.0,-2.0,1.0,-8.0,-4.0,-11.0,-1.0,2.0,4.0,0.014718294143676758
7,42.0,2.0,-28.0,0.0,9499.0,5143.0,-11454.0,-4535.0,-3.0,3.0,11.0,3.0,-13.0,-1.0,7.0,-1.0,0.01712346076965332
8,42.0,2.0,-28.0,0.0,9499.0,5143.0,-11454.0,-4535.0,-3.0,-8.0,-3.0,5.0,6.0,8.0,-5.0,4.0,0.01941514015197754
9,9.0,12.0,-2.0,0.0,9497.0,5145.0,-11454.0,-4536.0,-3.0,-8.0,-3.0,5.0,6.0,8.0,-5.0,4.0,0.021986722946166992
10,9.0,12.0,-2.0,0.0,9497.0,5145.0,-11454.0,-4536.0,-6.0,-7.0,-10.0,10.0,1.0,-11.0,-1.0,7.0,0.024815797805786133
11,9.0,12.0,-2.0,0.0,9497.0,5145.0,-11454.0,-4536.0,-4.0,5.0,24.0,0.0,11.0,0.0,0.0,-3.0,0.027125120162963867
12,-86.0,-7.0,53.0,0.0,9496.0,5135.0,-11456.0,-4544.0,-4.0,5.0,24.0,0.0,11.0,0.0,0.0,-3.0,0.029371023178100586
13,-86.0,-7.0,53.0,0.0,9496.0,5135.0,-11456.0,-4544.0,-1.0,2.0,-7.0,-2.0,6.0,0.0,-6.0,-1.0,0.03169989585876465
14,-86.0,-7.0,53.0,0.0,9496.0,5135.0,-11456.0,-4544.0,5.0,-6.0,-39.0,-7.0,-6.0,1.0,2.0,-12.0,0.034102678298950195
15,-72.0,-34.0,72.0,0.0,9495.0,5120.0,-11462.0,-4548.0,5.0,-6.0,-39.0,-7.0,-6.0,1.0,2.0,-12.0,0.03633427619934082
16,-72.0,-34.0,72.0,0.0,9495.0,5120.0,-11462.0,-4548.0,0.0,4.0,20.0,6.0,-8.0,-2.0,-1.0,-1.0,0.0427396297454834
17,-72.0,-34.0,72.0,0.0,9495.0,5120.0,-11462.0,-4548.0,-8.0,-6.0,-13.0,2.0,-1.0,-4.0,-6.0,0.0,0.04642009735107422
18,-45.0,-53.0,63.0,0.0,9492.0,5106.0,-11472.0,-4548.0,-8.0,-6.0,-13.0,2.0,-1.0,-4.0,-6.0,0.0,0.050104618072509766
19,-45.0,-53.0,63.0,0.0,9492.0,5106.0,-11472.0,-4548.0,0.0,3.0,4.0,2.0,8.0,2.0,2.0,2.0,0.05410146713256836
20,-45.0,-53.0,63.0,0.0,9492.0,5106.0,-11472.0,-4548.0,-13.0,-22.0,-4.0,10.0,3.0,6.0,4.0,-2.0,0.05834603309631348
21,12.0,-71.0,54.0,0.0,9486.0,5093.0,-11485.0,-4540.0,-13.0,-22.0,-4.0,10.0,3.0,6.0,4.0,-2.0,0.062052011489868164
22,12.0,-71.0,54.0,0.0,9486.0,5093.0,-11485.0,-4540.0,14.0,9.0,7.0,6.0,-11.0,-5.0,-5.0,3.0,0.06585907936096191
23,12.0,-71.0,54.0,0.0,9486.0,5093.0,-11485.0,-4540.0,6.0,-3.0,-4.0,-9.0,-20.0,4.0,0.0,5.0,0.06953740119934082
24,86.0,-92.0,43.0,0.0,9468.0,5093.0,-11505.0,-4526.0,6.0,-3.0,-4.0,-9.0,-20.0,4.0,0.0,5.0,0.07321977615356445
25,86.0,-92.0,43.0,0.0,9468.0,5093.0,-11505.0,-4526.0,-12.0,-16.0,1.0,-14.0,9.0,4.0,5.0,-5.0,0.07705354690551758
26,86.0,-92.0,43.0,0.0,9468.0,5093.0,-11505.0,-4526.0,3.0,5.0,27.0,3.0,4.0,-3.0,-2.0,3.0,0.08077573776245117
27,44.0,-97.0,44.0,0.0,9449.0,5091.0,-11523.0,-4522.0,3.0,5.0,27.0,3.0,4.0,-3.0,-2.0,3.0,0.08449363708496094
28,44.0,-97.0,44.0,0.0,9449.0,5091.0,-11523.0,-4522.0,4.0,21.0,15.0,-7.0,-1.0,9.0,9.0,-5.0,0.0888986587524414
29,44.0,-97.0,44.0,0.0,9449.0,5091.0,-11523.0,-4522.0,1.0,1.0,-11.0,-5.0,15.0,-6.0,4.0,1.0,0.09265756607055664
30,49.0,-114.0,50.0,0.0,9429.0,5088.0,-11544.0,-4515.0,1.0,1.0,-11.0,-5.0,15.0,-6.0,4.0,1.0,0.0963599681854248
31,49.0,-114.0,50.0,0.0,9429.0,5088.0,-11544.0,-4515.0,-11.0,-6.0,-5.0,-3.0,-15.0,-10.0,-9.0,-8.0,0.10018348693847656
32,49.0,-114.0,50.0,0.0,9429.0,5088.0,-11544.0,-4515.0,6.0,12.0,5.0,-8.0,-3.0,5.0,-4.0,0.0,0.10389184951782227
33,44.0,-114.0,53.0,0.0,9413.0,5080.0,-11563.0,-4509.0,6.0,12.0,5.0,-8.0,-3.0,5.0,-4.0,0.0,0.10758566856384277
34,44.0,-114.0,53.0,0.0,9413.0,5080.0,-11563.0,-4509.0,0.0,-8.0,-18.0,0.0,-4.0,-1.0,-1.0,2.0,0.11146116256713867
35,44.0,-114.0,53.0,0.0,9413.0,5080.0,-11563.0,-4509.0,-5.0,-9.0,-22.0,7.0,-10.0,-6.0,1.0,-2.0,0.11536073684692383
36,14.0,-73.0,76.0,0.0,9409.0,5066.0,-11575.0,-4502.0,-5.0,-9.0,-22.0,7.0,-10.0,-6.0,1.0,-2.0,0.1196291446685791
37,14.0,-73.0,76.0,0.0,9409.0,5066.0,-11575.0,-4502.0,5.0,6.0,-3.0,-1.0,8.0,1.0,0.0,4.0,0.12354421615600586
38,14.0,-73.0,76.0,0.0,9409.0,5066.0,-11575.0,-4502.0,-1.0,1.0,-11.0,8.0,2.0,-19.0,-4.0,-3.0,0.12722563743591309
39,24.0,-63.0,87.0,0.0,9407.0,5052.0,-11587.0,-4491.0,-1.0,1.0,-11.0,8.0,2.0,-19.0,-4.0,-3.0,0.13090038299560547
40,24.0,-63.0,87.0,0.0,9407.0,5052.0,-11587.0,-4491.0,0.0,-9.0,-12.0,-1.0,20.0,8.0,1.0,4.0,0.13472723960876465
41,24.0,-63.0,87.0,0.0,9407.0,5052.0,-11587.0,-4491.0,-2.0,-1.0,7.0,1.0,-13.0,-7.0,0.0,-3.0,0.13846588134765625
42,12.0,-45.0,96.0,0.0,9404.0,5038.0,-11599.0,-4480.0,-2.0,-1.0,7.0,1.0,-13.0,-7.0,0.0,-3.0,0.14216113090515137
43,12.0,-45.0,96.0,0.0,9404.0,5038.0,-11599.0,-4480.0,-2.0,-6.0,-1.0,-7.0,-16.0,-4.0,4.0,-7.0,0.1459522247314453
44,12.0,-45.0,96.0,0.0,9404.0,5038.0,-11599.0,-4480.0,-2.0,5.0,4.0,-5.0,10.0,-9.0,-3.0,-4.0,0.15011191368103027
45,3.0,-34.0,89.0,0.0,9406.0,5023.0,-11608.0,-4470.0,-2.0,5.0,4.0,-5.0,10.0,-9.0,-3.0,-4.0,0.15400338172912598
46,3.0,-34.0,89.0,0.0,9406.0,5023.0,-11608.0,-4470.0,1.0,13.0,27.0,-5.0,15.0,6.0,3.0,6.0,0.15782618522644043
47,3.0,-34.0,89.0,0.0,9406.0,5023.0,-11608.0,-4470.0,3.0,-3.0,-21.0,-10.0,-14.0,10.0,-1.0,0.0,0.1615145206451416
48,43.0,0.0,72.0,0.0,9411.0,5015.0,-11614.0,-4455.0,3.0,-3.0,-21.0,-10.0,-14.0,10.0,-1.0,0.0,0.16520023345947266
49,43.0,0.0,72.0,0.0,9411.0,5015.0,-11614.0,-4455.0,5.0,-2.0,-11.0,-5.0,-9.0,-16.0,-2.0,-3.0,0.16901612281799316
50,43.0,0.0,72.0,0.0,9411.0,5015.0,-11614.0,-4455.0,-4.0,5.0,12.0,2.0,-10.0,-5.0,4.0,-1.0,0.17270421981811523
51,61.0,29.0,66.0,0.0,9416.0,5013.0,-11616.0,-4439.0,-4.0,5.0,12.0,2.0,-10.0,-5.0,4.0,-1.0,0.1764369010925293
52,61.0,29.0,66.0,0.0,9416.0,5013.0,-11616.0,-4439.0,-10.0,-15.0,-7.0,-1.0,-5.0,-1.0,-11.0,-7.0,0.1803741455078125
53,61.0,29.0,66.0,0.0,9416.0,5013.0,-11616.0,-4439.0,-3.0,-3.0,-3.0,-8.0,8.0,3.0,-5.0,0.0,0.1844801902770996
54,32.0,35.0,62.0,0.0,9424.0,5009.0,-11616.0,-4427.0,-3.0,-3.0,-3.0,-8.0,8.0,3.0,-5.0,0.0,0.18816566467285156
55,32.0,35.0,62.0,0.0,9424.0,5009.0,-11616.0,-4427.0,-3.0,5.0,1.0,-1.0,0.0,-9.0,-5.0,8.0,0.19197654724121094
56,32.0,35.0,62.0,0.0,9424.0,5009.0,-11616.0,-4427.0,3.0,9.0,8.0,6.0,-1.0,7.0,-5.0,5.0,0.19568800926208496
57,35.0,31.0,41.0,0.0,9432.0,5006.0,-11616.0,-4415.0,3.0,9.0,8.0,6.0,-1.0,7.0,-5.0,5.0,0.19936227798461914
58,35.0,31.0,41.0,0.0,9432.0,5006.0,-11616.0,-4415.0,1.0,-2.0,-12.0,6.0,6.0,13.0,10.0,-10.0,0.20315289497375488
59,35.0,31.0,41.0,0.0,9432.0,5006.0,-11616.0,-4415.0,-2.0,-4.0,1.0,-2.0,9.0,3.0,-6.0,-7.0,0.20682549476623535
60,76.0,48.0,31.0,0.0,9436.0,5010.0,-11617.0,-4397.0,-2.0,-4.0,1.0,-2.0,9.0,3.0,-6.0,-7.0,0.2108747959136963
61,76.0,48.0,31.0,0.0,9436.0,5010.0,-11617.0,-4397.0,-2.0,-5.0,-9.0,-3.0,-3.0,7.0,1.0,-2.0,0.21520328521728516
62,76.0,48.0,31.0,0.0,9436.0,5010.0,-11617.0,-4397.0,2.0,6.0,-2.0,-1.0,-1.0,-16.0,1.0,-2.0,0.21894574165344238
63,43.0,73.0,31.0,0.0,9441.0,5019.0,-11614.0,-4387.0,2.0,6.0,-2.0,-1.0,-1.0,-16.0,1.0,-2.0,0.22265052795410156
64,43.0,73.0,31.0,0.0,9441.0,5019.0,-11614.0,-4387.0,-3.0,-5.0,8.0,1.0,-23.0,-10.0,-8.0,-11.0,0.2264397144317627
65,43.0,73.0,31.0,0.0,9441.0,5019.0,-11614.0,-4387.0,2.0,-6.0,-16.0,3.0,5.0,5.0,2.0,1.0,0.23012399673461914
66,-7.0,81.0,21.0,0.0,9447.0,5025.0,-11606.0,-4387.0,2.0,-6.0,-16.0,3.0,5.0,5.0,2.0,1.0,0.23379254341125488
67,-7.0,81.0,21.0,0.0,9447.0,5025.0,-11606.0,-4387.0,3.0,0.0,-9.0,10.0,-3.0,-4.0,-2.0,13.0,0.23778724670410156
68,-7.0,81.0,21.0,0.0,9447.0,5025.0,-11606.0,-4387.0,-3.0,1.0,-7.0,3.0,4.0,2.0,-5.0,-1.0,0.2414546012878418
69,-26.0,74.0,22.0,0.0,9452.0,5030.0,-11600.0,-4387.0,-3.0,1.0,-7.0,3.0,4.0,2.0,-5.0,-1.0,0.24615097045898438
70,-26.0,74.0,22.0,0.0,9452.0,5030.0,-11600.0,-4387.0,-2.0,-8.0,-10.0,-9.0,-2.0,-17.0,0.0,-2.0,0.24999451637268066
71,-26.0,74.0,22.0,0.0,9452.0,5030.0,-11600.0,-4387.0,4.0,7.0,11.0,7.0,3.0,21.0,13.0,11.0,0.2536909580230713
72,-76.0,58.0,11.0,0.0,9462.0,5025.0,-11591.0,-4393.0,4.0,7.0,11.0,7.0,3.0,21.0,13.0,11.0,0.25741052627563477
73,-76.0,58.0,11.0,0.0,9462.0,5025.0,-11591.0,-4393.0,-6.0,0.0,4.0,-2.0,6.0,-8.0,-4.0,2.0,0.26122212409973145
74,-76.0,58.0,11.0,0.0,9462.0,5025.0,-11591.0,-4393.0,-8.0,-3.0,-3.0,-3.0,6.0,12.0,0.0,-4.0,0.2648940086364746
75,-47.0,41.0,-3.0,0.0,9471.0,5021.0,-11585.0,-4395.0,-8.0,-3.0,-3.0,-3.0,6.0,12.0,0.0,-4.0,0.26856303215026855
76,-47.0,41.0,-3.0,0.0,9471.0,5021.0,-11585.0,-4395.0,0.0,4.0,-8.0,-5.0,-22.0,-1.0,-4.0,-4.0,0.2723524570465088
77,-47.0,41.0,-3.0,0.0,9471.0,5021.0,-11585.0,-4395.0,-1.0,-15.0,-16.0,1.0,-9.0,-14.0,-9.0,-4.0,0.2772495746612549
78,10.0,32.0,-16.0,0.0,9472.0,5026.0,-11582.0,-4394.0,-1.0,-15.0,-16.0,1.0,-9.0,-14.0,-9.0,-4.0,0.281085729598999
79,10.0,32.0,-16.0,0.0,9472.0,5026.0,-11582.0,-4394.0,5.0,3.0,16.0,-2.0,37.0,11.0,2.0,-4.0,0.28490138053894043
80,10.0,32.0,-16.0,0.0,9472.0,5026.0,-11582.0,-4394.0,5.0,-11.0,-29.0,-4.0,-11.0,-5.0,5.0,-3.0,0.28859615325927734
81,-19.0,33.0,-4.0,0.0,9471.0,5032.0,-11579.0,-4397.0,5.0,-11.0,-29.0,-4.0,-11.0,-5.0,5.0,-3.0,0.2923121452331543
82,-19.0,33.0,-4.0,0.0,9471.0,5032.0,-11579.0,-4397.0,0.0,-1.0,-1.0,0.0,-12.0,-1.0,-1.0,4.0,0.2962160110473633
83,-19.0,33.0,-4.0,0.0,9471.0,5032.0,-11579.0,-4397.0,-2.0,-2.0,6.0,4.0,3.0,-4.0,1.0,1.0,0.29990458488464355
84,-65.0,22.0,13.0,0.0,9472.0,5029.0,-11577.0,-4404.0,-2.0,-2.0,6.0,4.0,3.0,-4.0,1.0,1.0,0.3038935661315918
85,-65.0,22.0,13.0,0.0,9472.0,5029.0,-11577.0,-4404.0,7.0,12.0,4.0,-8.0,-2.0,7.0,-1.0,-1.0,0.3088834285736084
86,-65.0,22.0,13.0,0.0,9472.0,5029.0,-11577.0,-4404.0,6.0,5.0,-57.0,-5.0,-13.0,-1.0,-7.0,-3.0,0.312699556350708
87,-54.0,7.0,13.0,0.0,9474.0,5022.0,-11578.0,-4406.0,6.0,5.0,-57.0,-5.0,-13.0,-1.0,-7.0,-3.0,0.3164060115814209
88,-54.0,7.0,13.0,0.0,9474.0,5022.0,-11578.0,-4406.0,-9.0,-5.0,-3.0,3.0,2.0,3.0,1.0,1.0,0.3202662467956543
89,-54.0,7.0,13.0,0.0,9474.0,5022.0,-11578.0,-4406.0,5.0,0.0,38.0,-4.0,2.0,-1.0,4.0,0.0,0.3239622116088867
90,0.0,-1.0,4.0,0.0,9474.0,5021.0,-11578.0,-4405.0,5.0,0.0,38.0,-4.0,2.0,-1.0,4.0,0.0,0.32765769958496094
91,0.0,-1.0,4.0,0.0,9474.0,5021.0,-11578.0,-4405.0,-4.0,-9.0,21.0,0.0,-1.0,-6.0,9.0,0.0,0.3315107822418213
92,0.0,-1.0,4.0,0.0,9474.0,5021.0,-11578.0,-4405.0,1.0,13.0,26.0,1.0,1.0,2.0,1.0,9.0,0.3352217674255371
93,53.0,-2.0,-4.0,0.0,9470.0,5029.0,-11581.0,-4400.0,1.0,13.0,26.0,1.0,1.0,2.0,1.0,9.0,0.339871883392334
94,53.0,-2.0,-4.0,0.0,9470.0,5029.0,-11581.0,-4400.0,1.0,1.0,-2.0,1.0,18.0,15.0,2.0,-3.0,0.3438296318054199
95,53.0,-2.0,-4.0,0.0,9470.0,5029.0,-11581.0,-4400.0,-3.0,-4.0,5.0,-8.0,-21.0,-9.0,-7.0,-4.0,0.3475360870361328
96,6.0,-2.0,14.0,0.0,9468.0,5030.0,-11581.0,-4401.0,-3.0,-4.0,5.0,-8.0,-21.0,-9.0,-7.0,-4.0,0.35123109817504883
97,6.0,-2.0,14.0,0.0,9468.0,5030.0,-11581.0,-4401.0,-5.0,-5.0,-7.0,10.0,-6.0,2.0,0.0,0.0,0.3550698757171631
98,6.0,-2.0,14.0,0.0,9468.0,5030.0,-11581.0,-4401.0,-6.0,-6.0,21.0,1.0,6.0,-12.0,1.0,-1.0,0.3588073253631592
99,-74.0,-15.0,23.0,0.0,9470.0,5019.0,-11582.0,-4407.0,-6.0,-6.0,21.0,1.0,6.0,-12.0,1.0,-1.0,0.362701416015625
100,-74.0,-15.0,23.0,0.0,9470.0,5019.0,-11582.0,-4407.0,3.0,9.0,-5.0,-9.0,-4.0,1.0,-7.0,-4.0,0.36649560928344727
101,-74.0,-15.0,23.0,0.0,9470.0,5019.0,-11582.0,-4407.0,-5.0,-7.0,9.0,-8.0,-5.0,-1.0,1.0,-1.0,0.3710634708404541
102,-38.0,-11.0,34.0,0.0,9472.0,5009.0,-11585.0,-4406.0,-5.0,-7.0,9.0,-8.0,-5.0,-1.0,1.0,-1.0,0.3748767375946045
103,-38.0,-11.0,34.0,0.0,9472.0,5009.0,-11585.0,-4406.0,-6.0,-3.0,-10.0,5.0,-6.0,-1.0,-1.0,-10.0,0.37873244285583496
104,-38.0,-11.0,34.0,0.0,9472.0,5009.0,-11585.0,-4406.0,20.0,13.0,20.0,0.0,-8.0,0.0,1.0,1.0,0.38243746757507324
105,17.0,1.0,33.0,0.0,9470.0,5009.0,-11588.0,-4402.0,20.0,13.0,20.0,0.0,-8.0,0.0,1.0,1.0,0.3861238956451416
106,17.0,1.0,33.0,0.0,9470.0,5009.0,-11588.0,-4402.0,2.0,1.0,1.0,-5.0,7.0,-6.0,9.0,6.0,0.38993310928344727
107,17.0,1.0,33.0,0.0,9470.0,5009.0,-11588.0,-4402.0,-6.0,-1.0,-11.0,6.0,16.0,10.0,-2.0,-4.0,0.39365458488464355
108,6.0,-7.0,32.0,0.0,9466.0,5009.0,-11592.0,-4400.0,-6.0,-1.0,-11.0,6.0,16.0,10.0,-2.0,-4.0,0.39736366271972656
109,6.0,-7.0,32.0,0.0,9466.0,5009.0,-11592.0,-4400.0,3.0,1.0,1.0,8.0,4.0,2.0,-2.0,-2.0,0.4016745090484619
110,6.0,-7.0,32.0,0.0,9466.0,5009.0,-11592.0,-4400.0,1.0,2.0,-4.0,-1.0,4.0,-1.0,-5.0,-1.0,0.40573906898498535
111,-24.0,-13.0,16.0,0.0,9466.0,5005.0,-11593.0,-4402.0,1.0,2.0,-4.0,-1.0,4.0,-1.0,-5.0,-1.0,0.409421443939209
112,-24.0,-13.0,16.0,0.0,9466.0,5005.0,-11593.0,-4402.0,-4.0,3.0,-1.0,-1.0,-5.0,-2.0,-1.0,4.0,0.413238525390625
113,-24.0,-13.0,16.0,0.0,9466.0,5005.0,-11593.0,-4402.0,-11.0,-8.0,-18.0,-2.0,-8.0,-4.0,1.0,-3.0,0.41692042350769043
114,9.0,-22.0,-2.0,0.0,9462.0,5005.0,-11597.0,-4401.0,-11.0,-8.0,-18.0,-2.0,-8.0,-4.0,1.0,-3.0,0.4206070899963379
115,9.0,-22.0,-2.0,0.0,9462.0,5005.0,-11597.0,-4401.0,1.0,10.0,2.0,-5.0,-6.0,2.0,-4.0,-5.0,0.4244072437286377
116,9.0,-22.0,-2.0,0.0,9462.0,5005.0,-11597.0,-4401.0,-2.0,9.0,7.0,-3.0,2.0,4.0,-1.0,-1.0,0.42809033393859863
117,53.0,-25.0,-10.0,0.0,9454.0,5011.0,-11603.0,-4396.0,-2.0,9.0,7.0,-3.0,2.0,4.0,-1.0,-1.0,0.4321455955505371
118,53.0,-25.0,-10.0,0.0,9454.0,5011.0,-11603.0,-4396.0,5.0,-8.0,-12.0,8.0,4.0,-9.0,0.0,-2.0,0.4365077018737793
119,53.0,-25.0,-10.0,0.0,9454.0,5011.0,-11603.0,-4396.0,-5.0,-11.0,-3.0,0.0,4.0,-10.0,-4.0,-3.0,0.4402127265930176
120,37.0,-26.0,-3.0,0.0,9444.0,5018.0,-11609.0,-4395.0,-5.0,-11.0,-3.0,0.0,4.0,-10.0,-4.0,-3.0,0.44394826889038086
121,37.0,-26.0,-3.0,0.0,9444.0,5018.0,-11609.0,-4395.0,-4.0,-1.0,31.0,6.0,-7.0,6.0,-4.0,3.0,0.4477682113647461
122,37.0,-26.0,-3.0,0.0,9444.0,5018.0,-11609.0,-4395.0,-5.0,-12.0,-1.0,-1.0,2.0,5.0,2.0,2.0,0.4514498710632324
123,-21.0,-16.0,1.0,0.0,9438.0,5019.0,-11610.0,-4401.0,-5.0,-12.0,-1.0,-1.0,2.0,5.0,2.0,2.0,0.4551382064819336
124,-21.0,-16.0,1.0,0.0,9438.0,5019.0,-11610.0,-4401.0,1.0,-3.0,2.0,-8.0,-2.0,-2.0,-1.0,-1.0,0.4589376449584961
125,-21.0,-16.0,1.0,0.0,9438.0,5019.0,-11610.0,-4401.0,-5.0,0.0,-6.0,8.0,-7.0,-3.0,-4.0,3.0,0.46261072158813477
126,-20.0,-13.0,9.0,0.0,9434.0,5018.0,-11614.0,-4403.0,-5.0,0.0,-6.0,8.0,-7.0,-3.0,-4.0,3.0,0.46747875213623047
127,-20.0,-13.0,9.0,0.0,9434.0,5018.0,-11614.0,-4403.0,0.0,-3.0,-4.0,-2.0,4.0,-6.0,-2.0,-3.0,0.47144269943237305
128,-20.0,-13.0,9.0,0.0,9434.0,5018.0,-11614.0,-4403.0,2.0,13.0,22.0,2.0,0.0,2.0,2.0,-2.0,0.47514963150024414
129,3.0,-11.0,18.0,0.0,9431.0,5016.0,-11618.0,-4400.0,2.0,13.0,22.0,2.0,0.0,2.0,2.0,-2.0,0.47884607315063477
130,3.0,-11.0,18.0,0.0,9431.0,5016.0,-11618.0,-4400.0,5.0,2.0,-16.0,-4.0,-9.0,-13.0,-3.0,-2.0,0.4827141761779785
131,3.0,-11.0,18.0,0.0,9431.0,5016.0,-11618.0,-4400.0,-2.0,1.0,-2.0,-16.0,12.0,-3.0,-1.0,1.0,0.48641228675842285
132,13.0,1.0,23.0,0.0,9432.0,5014.0,-11620.0,-4394.0,-2.0,1.0,-2.0,-16.0,12.0,-3.0,-1.0,1.0,0.490081787109375
133,13.0,1.0,23.0,0.0,9432.0,5014.0,-11620.0,-4394.0,-7.0,-1.0,10.0,-1.0,9.0,5.0,1.0,1.0,0.4939103126525879
134,13.0,1.0,23.0,0.0,9432.0,5014.0,-11620.0,-4394.0,1.0,-12.0,-16.0,-3.0,-8.0,-2.0,-7.0,-3.0,0.49854493141174316
135,29.0,-14.0,10.0,0.0,9428.0,5014.0,-11626.0,-4387.0,1.0,-12.0,-16.0,-3.0,-8.0,-2.0,-7.0,-3.0,0.5023820400238037
136,29.0,-14.0,10.0,0.0,9428.0,5014.0,-11626.0,-4387.0,-1.0,-15.0,-13.0,3.0,3.0,14.0,-3.0,-5.0,0.5062108039855957
137,29.0,-14.0,10.0,0.0,9428.0,5014.0,-11626.0,-4387.0,-3.0,-4.0,-4.0,12.0,-4.0,5.0,3.0,0.0,0.5098917484283447
138,44.0,-15.0,3.0,0.0,9423.0,5019.0,-11629.0,-4384.0,-3.0,-4.0,-4.0,12.0,-4.0,5.0,3.0,0.0,0.5135703086853027
139,44.0,-15.0,3.0,0.0,9423.0,5019.0,-11629.0,-4384.0,-6.0,0.0,6.0,-1.0,-2.0,2.0,-2.0,3.0,0.517385721206665
140,44.0,-15.0,3.0,0.0,9423.0,5019.0,-11629.0,-4384.0,6.0,3.0,-6.0,3.0,7.0,-1.0,2.0,-3.0,0.5210757255554199
141,48.0,2.0,4.0,0.0,9419.0,5026.0,-11631.0,-4380.0,6.0,3.0,-6.0,3.0,7.0,-1.0,2.0,-3.0,0.5247550010681152
142,48.0,2.0,4.0,0.0,9419.0,5026.0,-11631.0,-4380.0,-3.0,-7.0,-6.0,3.0,-20.0,-11.0,7.0,-4.0,0.5292072296142578
143,48.0,2.0,4.0,0.0,9419.0,5026.0,-11631.0,-4380.0,3.0,19.0,35.0,2.0,2.0,2.0,-2.0,5.0,0.5333142280578613
144,14.0,10.0,13.0,0.0,9418.0,5027.0,-11631.0,-4380.0,3.0,19.0,35.0,2.0,2.0,2.0,-2.0,5.0,0.5373938083648682
145,14.0,10.0,13.0,0.0,9418.0,5027.0,-11631.0,-4380.0,11.0,14.0,-29.0,-10.0,-3.0,6.0,5.0,0.0,0.541226863861084
146,14.0,10.0,13.0,0.0,9418.0,5027.0,-11631.0,-4380.0,-2.0,-1.0,-8.0,-5.0,5.0,-5.0,-7.0,-4.0,0.5449457168579102
147,-22.0,8.0,27.0,0.0,9420.0,5022.0,-11632.0,-4378.0,-2.0,-1.0,-8.0,-5.0,5.0,-5.0,-7.0,-4.0,0.5602195262908936
148,-22.0,8.0,27.0,0.0,9420.0,5022.0,-11632.0,-4378.0,1.0,1.0,0.0,7.0,-1.0,-3.0,-4.0,11.0,0.5662539005279541
149,-22.0,8.0,27.0,0.0,9420.0,5022.0,-11632.0,-4378.0,-6.0,-13.0,-26.0,2.0,10.0,3.0,0.0,-2.0,0.5715060234069824
150,-9.0,5.0,11.0,0.0,9421.0,5021.0,-11632.0,-4378.0,-6.0,-13.0,-26.0,2.0,10.0,3.0,0.0,-2.0,0.582165002822876
151,-9.0,5.0,11.0,0.0,9421.0,5021.0,-11632.0,-4378.0,-1.0,-4.0,-6.0,1.0,1.0,-4.0,-1.0,1.0,0.5866212844848633
152,-9.0,5.0,11.0,0.0,9421.0,5021.0,-11632.0,-4378.0,3.0,-3.0,-8.0,-3.0,1.0,-5.0,1.0,-1.0,0.5925159454345703
153,19.0,11.0,4.0,0.0,9420.0,5024.0,-11632.0,-4375.0,3.0,-3.0,-8.0,-3.0,1.0,-5.0,1.0,-1.0,0.6069095134735107
154,19.0,11.0,4.0,0.0,9420.0,5024.0,-11632.0,-4375.0,-17.0,-13.0,6.0,4.0,2.0,-6.0,-5.0,-10.0,0.6127121448516846
155,19.0,11.0,4.0,0.0,9420.0,5024.0,-11632.0,-4375.0,1.0,1.0,7.0,-3.0,-13.0,2.0,7.0,3.0,0.6176769733428955
156,35.0,12.0,-2.0,0.0,9416.0,5032.0,-11634.0,-4372.0,1.0,1.0,7.0,-3.0,-13.0,2.0,7.0,3.0,0.6216330528259277
157,35.0,12.0,-2.0,0.0,9416.0,5032.0,-11634.0,-4372.0,7.0,14.0,4.0,-5.0,-1.0,-6.0,-6.0,2.0,0.6268267631530762
158,35.0,12.0,-2.0,0.0,9416.0,5032.0,-11634.0,-4372.0,3.0,4.0,3.0,-8.0,-10.0,-1.0,3.0,-5.0,0.6306619644165039
159,13.0,14.0,3.0,0.0,9414.0,5033.0,-11634.0,-4372.0,3.0,4.0,3.0,-8.0,-10.0,-1.0,3.0,-5.0,0.6436116695404053
160,13.0,14.0,3.0,0.0,9414.0,5033.0,-11634.0,-4372.0,-3.0,-3.0,-11.0,1.0,-24.0,-4.0,10.0,2.0,0.649010419845581
161,13.0,14.0,3.0,0.0,9414.0,5033.0,-11634.0,-4372.0,0.0,-5.0,-3.0,1.0,3.0,0.0,-13.0,-12.0,0.6541914939880371
162,6.0,26.0,3.0,0.0,9414.0,5037.0,-11633.0,-4370.0,0.0,-5.0,-3.0,1.0,3.0,0.0,-13.0,-12.0,0.6658241748809814
163,6.0,26.0,3.0,0.0,9414.0,5037.0,-11633.0,-4370.0,-1.0,-1.0,12.0,4.0,8.0,9.0,-8.0,-3.0,0.6717305183410645
164,6.0,26.0,3.0,0.0,9414.0,5037.0,-11633.0,-4370.0,-3.0,-1.0,-9.0,0.0,-6.0,-1.0,1.0,8.0,0.6770908832550049
165,28.0,23.0,-5.0,0.0,9414.0,5043.0,-11632.0,-4367.0,-3.0,-1.0,-9.0,0.0,-6.0,-1.0,1.0,8.0,0.6808161735534668
166,28.0,23.0,-5.0,0.0,9414.0,5043.0,-11632.0,-4367.0,-4.0,-2.0,3.0,-11.0,4.0,4.0,6.0,3.0,0.684734582901001
167,28.0,23.0,-5.0,0.0,9414.0,5043.0,-11632.0,-4367.0,7.0,-1.0,-12.0,-7.0,2.0,5.0,7.0,0.0,0.6896626949310303
168,31.0,24.0,-5.0,0.0,9415.0,5048.0,-11631.0,-4362.0,7.0,-1.0,-12.0,-7.0,2.0,5.0,7.0,0.0,0.7036831378936768
169,31.0,24.0,-5.0,0.0,9415.0,5048.0,-11631.0,-4362.0,8.0,-1.0,-5.0,-2.0,-7.0,0.0,-5.0,-3.0,0.7091231346130371
170,31.0,24.0,-5.0,0.0,9415.0,5048.0,-11631.0,-4362.0,-6.0,-1.0,9.0,3.0,5.0,-1.0,0.0,-3.0,0.7137894630432129
171,4.0,13.0,14.0,0.0,9415.0,5048.0,-11631.0,-4362.0,-6.0,-1.0,9.0,3.0,5.0,-1.0,0.0,-3.0,0.7259881496429443
172,4.0,13.0,14.0,0.0,9415.0,5048.0,-11631.0,-4362.0,-7.0,-4.0,9.0,-4.0,25.0,11.0,3.0,-4.0,0.731757640838623
173,4.0,13.0,14.0,0.0,9415.0,5048.0,-11631.0,-4362.0,8.0,8.0,3.0,-5.0,-5.0,-4.0,-5.0,6.0,0.7371799945831299
174,1.0,-11.0,33.0,0.0,9413.0,5045.0,-11635.0,-4359.0,8.0,8.0,3.0,-5.0,-5.0,-4.0,-5.0,6.0,0.7408804893493652
175,1.0,-11.0,33.0,0.0,9413.0,5045.0,-11635.0,-4359.0,-2.0,-6.0,-9.0,-10.0,3.0,-2.0,0.0,-4.0,0.7447109222412109
176,1.0,-11.0,33.0,0.0,9413.0,5045.0,-11635.0,-4359.0,-7.0,10.0,27.0,-10.0,-2.0,0.0,-1.0,-2.0,0.7483811378479004
177,53.0,-40.0,50.0,0.0,9404.0,5044.0,-11647.0,-4349.0,-7.0,10.0,27.0,-10.0,-2.0,0.0,-1.0,-2.0,0.7636382579803467
178,53.0,-40.0,50.0,0.0,9404.0,5044.0,-11647.0,-4349.0,5.0,-29.0,-32.0,7.0,10.0,-6.0,-6.0,3.0,0.7690858840942383
179,53.0,-40.0,50.0,0.0,9404.0,5044.0,-11647.0,-4349.0,-8.0,-9.0,-27.0,-4.0,-18.0,3.0,4.0,6.0,0.7737178802490234
180,65.0,-70.0,80.0,0.0,9389.0,5040.0,-11666.0,-4334.0,-8.0,-9.0,-27.0,-4.0,-18.0,3.0,4.0,6.0,0.7857794761657715
181,65.0,-70.0,80.0,0.0,9389.0,5040.0,-11666.0,-4334.0,-10.0,-24.0,14.0,-34.0,23.0,10.0,4.0,-3.0,0.7897634506225586
182,65.0,-70.0,80.0,0.0,9389.0,5040.0,-11666.0,-4334.0,2.0,7.0,18.0,-15.0,-16.0,-4.0,-1.0,-3.0,0.7934715747833252
183,106.0,-90.0,200.0,0.0,9371.0,5027.0,-11698.0,-4303.0,2.0,7.0,18.0,-15.0,-16.0,-4.0,-1.0,-3.0,0.7997045516967773
184,106.0,-90.0,200.0,0.0,9371.0,5027.0,-11698.0,-4303.0,-4.0,-18.0,-51.0,62.0,36.0,13.0,2.0,-1.0,0.8036158084869385
185,106.0,-90.0,200.0,0.0,9371.0,5027.0,-11698.0,-4303.0,-4.0,-5.0,-25.0,-8.0,-24.0,-16.0,-5.0,0.0,0.8073155879974365
186,-429.0,-67.0,363.0,0.0,9383.0,4953.0,-11706.0,-4339.0,-4.0,-5.0,-25.0,-8.0,-24.0,-16.0,-5.0,0.0,0.8241379261016846
187,-429.0,-67.0,363.0,0.0,9383.0,4953.0,-11706.0,-4339.0,-10.0,-21.0,-55.0,2.0,-24.0,-11.0,-6.0,-3.0,0.8292970657348633
188,-429.0,-67.0,363.0,0.0,9383.0,4953.0,-11706.0,-4339.0,-10.0,-34.0,56.0,95.0,31.0,13.0,2.0,-6.0,0.8331074714660645
189,-856.0,67.0,414.0,0.0,9477.0,4816.0,-11655.0,-4426.0,-10.0,-34.0,56.0,95.0,31.0,13.0,2.0,-6.0,0.8474009037017822
190,-856.0,67.0,414.0,0.0,9477.0,4816.0,-11655.0,-4426.0,29.0,98.0,-18.0,-62.0,-46.0,-3.0,-5.0,5.0,0.8532986640930176
191,-856.0,67.0,414.0,0.0,9477.0,4816.0,-11655.0,-4426.0,-23.0,-69.0,-48.0,-18.0,-5.0,12.0,-8.0,-10.0,0.8571596145629883
192,-701.0,247.0,401.0,0.0,9585.0,4720.0,-11574.0,-4509.0,-23.0,-69.0,-48.0,-18.0,-5.0,12.0,-8.0,-10.0,0.8608808517456055
193,-701.0,247.0,401.0,0.0,9585.0,4720.0,-11574.0,-4509.0,17.0,20.0,80.0,39.0,33.0,50.0,4.0,15.0,0.8673839569091797
194,-701.0,247.0,401.0,0.0,9585.0,4720.0,-11574.0,-4509.0,21.0,63.0,-37.0,-4.0,-5.0,-33.0,-1.0,-2.0,0.8713383674621582
195,-126.0,552.0,77.0,0.0,9650.0,4791.0,-11459.0,-4588.0,21.0,63.0,-37.0,-4.0,-5.0,-33.0,-1.0,-2.0,0.884181022644043
196,-126.0,552.0,77.0,0.0,9650.0,4791.0,-11459.0,-4588.0,-18.0,-22.0,28.0,28.0,-14.0,-21.0,2.0,-7.0,0.8895218372344971
197,-126.0,552.0,77.0,0.0,9650.0,4791.0,-11459.0,-4588.0,2.0,-4.0,-52.0,2.0,26.0,14.0,6.0,4.0,0.8938803672790527
198,-358.0,766.0,-186.0,0.0,9756.0,4879.0,-11277.0,-4723.0,2.0,-4.0,-52.0,2.0,26.0,14.0,6.0,4.0,0.9063055515289307
199,-358.0,766.0,-186.0,0.0,9756.0,4879.0,-11277.0,-4723.0,-5.0,17.0,-17.0,34.0,-11.0,-22.0,5.0,-4.0,0.9127743244171143
200,-358.0,766.0,-186.0,0.0,9756.0,4879.0,-11277.0,-4723.0,4.0,35.0,-30.0,-20.0,-31.0,-7.0,0.0,4.0,0.9178309440612793
201,-460.0,1017.0,-896.0,0.0,9899.0,5023.0,-11000.0,-4923.0,4.0,35.0,-30.0,-20.0,-31.0,-7.0,0.0,4.0,0.9219751358032227
202,-460.0,1017.0,-896.0,0.0,9899.0,5023.0,-11000.0,-4923.0,-7.0,1.0,32.0,-12.0,12.0,6.0,-6.0,0.0,0.9273076057434082
203,-460.0,1017.0,-896.0,0.0,9899.0,5023.0,-11000.0,-4923.0,-3.0,-22.0,21.0,22.0,13.0,-6.0,-6.0,3.0,0.9310915470123291
204,200.0,1470.0,-1713.0,0.0,9980.0,5333.0,-10729.0,-5028.0,-3.0,-22.0,21.0,22.0,13.0,-6.0,-6.0,3.0,0.9436383247375488
205,200.0,1470.0,-1713.0,0.0,9980.0,5333.0,-10729.0,-5028.0,2.0,-15.0,6.0,-15.0,-5.0,-5.0,-9.0,-8.0,0.9491705894470215
206,200.0,1470.0,-1713.0,0.0,9980.0,5333.0,-10729.0,-5028.0,-6.0,5.0,-9.0,-25.0,-21.0,-5.0,-5.0,-1.0,0.9538629055023193
207,397.0,1721.0,-2702.0,0.0,10004.0,5783.0,-10400.0,-5172.0,-6.0,5.0,-9.0,-25.0,-21.0,-5.0,-5.0,-1.0,0.9657168388366699
208,397.0,1721.0,-2702.0,0.0,10004.0,5783.0,-10400.0,-5172.0,-8.0,-2.0,0.0,14.0,-5.0,-13.0,12.0,7.0,0.9714243412017822
209,397.0,1721.0,-2702.0,0.0,10004.0,5783.0,-10400.0,-5172.0,17.0,9.0,12.0,14.0,11.0,8.0,2.0,-12.0,0.9778695106506348
210,-32.0,1625.0,-3669.0,0.0,9974.0,6282.0,-9979.0,-5468.0,17.0,9.0,12.0,14.0,11.0,8.0,2.0,-12.0,0.981691837310791
211,-32.0,1625.0,-3669.0,0.0,9974.0,6282.0,-9979.0,-5468.0,2.0,-14.0,-10.0,-35.0,-23.0,-11.0,-5.0,1.0,0.9868159294128418
212,-32.0,1625.0,-3669.0,0.0,9974.0,6282.0,-9979.0,-5468.0,-12.0,-25.0,7.0,-4.0,13.0,16.0,4.0,-6.0,0.9906022548675537
213,-2.0,1440.0,-4700.0,0.0,9837.0,6869.0,-9487.0,-5873.0,-12.0,-25.0,7.0,-4.0,13.0,16.0,4.0,-6.0,1.0035457611083984
214,-2.0,1440.0,-4700.0,0.0,9837.0,6869.0,-9487.0,-5873.0,-2.0,3.0,0.0,-8.0,-1.0,2.0,1.0,-5.0,1.0102221965789795
215,-2.0,1440.0,-4700.0,0.0,9837.0,6869.0,-9487.0,-5873.0,0.0,1.0,9.0,-7.0,17.0,2.0,-5.0,2.0,1.014235496520996
216,-172.0,1161.0,-5729.0,0.0,9583.0,7503.0,-8904.0,-6405.0,0.0,1.0,9.0,-7.0,17.0,2.0,-5.0,2.0,1.025700330734253
217,-172.0,1161.0,-5729.0,0.0,9583.0,7503.0,-8904.0,-6405.0,3.0,5.0,-10.0,-9.0,-30.0,-12.0,-5.0,0.0,1.0311663150787354
218,-172.0,1161.0,-5729.0,0.0,9583.0,7503.0,-8904.0,-6405.0,-1.0,2.0,10.0,8.0,-7.0,-7.0,5.0,0.0,1.0364460945129395
219,-903.0,698.0,-6542.0,0.0,9244.0,8071.0,-8211.0,-7101.0,-1.0,2.0,10.0,8.0,-7.0,-7.0,5.0,0.0,1.0411484241485596
220,-903.0,698.0,-6542.0,0.0,9244.0,8071.0,-8211.0,-7101.0,2.0,-9.0,-2.0,-5.0,25.0,-1.0,1.0,8.0,1.0472025871276855
221,-903.0,698.0,-6542.0,0.0,9244.0,8071.0,-8211.0,-7101.0,-3.0,4.0,-3.0,-7.0,2.0,0.0,-18.0,-1.0,1.0510175228118896
222,-1739.0,425.0,-6733.0,0.0,8888.0,8507.0,-7419.0,-7875.0,-3.0,4.0,-3.0,-7.0,2.0,0.0,-18.0,-1.0,1.0636000633239746
223,-1739.0,425.0,-6733.0,0.0,8888.0,8507.0,-7419.0,-7875.0,-2.0,-3.0,4.0,2.0,35.0,2.0,1.0,-6.0,1.0693886280059814
224,-1739.0,425.0,-6733.0,0.0,8888.0,8507.0,-7419.0,-7875.0,0.0,-1.0,1.0,-6.0,-52.0,-14.0,2.0,-1.0,1.0745744705200195
225,-2207.0,135.0,-6543.0,0.0,8534.0,8799.0,-6643.0,-8605.0,0.0,-1.0,1.0,-6.0,-52.0,-14.0,2.0,-1.0,1.0854368209838867
226,-2207.0,135.0,-6543.0,0.0,8534.0,8799.0,-6643.0,-8605.0,-3.0,-1.0,-3.0,-14.0,-19.0,1.0,1.0,-2.0,1.0908429622650146
227,-2207.0,135.0,-6543.0,0.0,8534.0,8799.0,-6643.0,-8605.0,2.0,5.0,2.0,2.0,2.0,2.0,2.0,6.0,1.0959932804107666
228,-2365.0,57.0,-6487.0,0.0,8152.0,9020.0,-5827.0,-9308.0,2.0,5.0,2.0,2.0,2.0,2.0,2.0,6.0,1.0998318195343018
229,-2365.0,57.0,-6487.0,0.0,8152.0,9020.0,-5827.0,-9308.0,5.0,7.0,-3.0,4.0,-13.0,-4.0,5.0,-3.0,1.1073229312896729
230,-2365.0,57.0,-6487.0,0.0,8152.0,9020.0,-5827.0,-9308.0,-6.0,-4.0,-7.0,2.0,18.0,4.0,2.0,1.0,1.1113793849945068
231,-2175.0,-37.0,-6283.0,0.0,7724.0,9194.0,-5023.0,-9950.0,-6.0,-4.0,-7.0,2.0,18.0,4.0,2.0,1.0,1.1242995262145996
232,-2175.0,-37.0,-6283.0,0.0,7724.0,9194.0,-5023.0,-9950.0,-1.0,1.0,-1.0,-2.0,8.0,-4.0,-5.0,-1.0,1.1302590370178223
233,-2175.0,-37.0,-6283.0,0.0,7724.0,9194.0,-5023.0,-9950.0,3.0,6.0,9.0,1.0,9.0,-1.0,-1.0,2.0,1.1352498531341553
234,-2081.0,-278.0,-6024.0,0.0,7262.0,9296.0,-4244.0,-10548.0,3.0,6.0,9.0,1.0,9.0,-1.0,-1.0,2.0,1.1457910537719727
235,-2081.0,-278.0,-6024.0,0.0,7262.0,9296.0,-4244.0,-10548.0,-1.0,-13.0,1.0,5.0,9.0,-17.0,-8.0,1.0,1.1510894298553467
236,-2081.0,-278.0,-6024.0,0.0,7262.0,9296.0,-4244.0,-10548.0,-7.0,-14.0,-5.0,-3.0,-5.0,-8.0,-3.0,-14.0,1.156327247619629
237,-2058.0,-447.0,-5469.0,0.0,6820.0,9320.0,-3515.0,-11077.0,-7.0,-14.0,-5.0,-3.0,-5.0,-8.0,-3.0,-14.0,1.169614315032959
238,-2058.0,-447.0,-5469.0,0.0,6820.0,9320.0,-3515.0,-11077.0,-4.0,8.0,6.0,5.0,-14.0,9.0,-1.0,3.0,1.1755907535552979
239,-2058.0,-447.0,-5469.0,0.0,6820.0,9320.0,-3515.0,-11077.0,10.0,1.0,18.0,10.0,16.0,13.0,18.0,25.0,1.1809797286987305
240,-2256.0,-355.0,-4487.0,0.0,6493.0,9278.0,-2837.0,-11496.0,10.0,1.0,18.0,10.0,16.0,13.0,18.0,25.0,1.1847403049468994
241,-2256.0,-355.0,-4487.0,0.0,6493.0,9278.0,-2837.0,-11496.0,-29.0,-36.0,-32.0,-12.0,12.0,-47.0,-36.0,-29.0,1.188556432723999
242,-2256.0,-355.0,-4487.0,0.0,6493.0,9278.0,-2837.0,-11496.0,20.0,40.0,3.0,12.0,29.0,2.0,1.0,6.0,1.1923160552978516
243,-2257.0,-140.0,-3609.0,0.0,6261.0,9214.0,-2213.0,-11808.0,20.0,40.0,3.0,12.0,29.0,2.0,1.0,6.0,1.205453872680664
244,-2257.0,-140.0,-3609.0,0.0,6261.0,9214.0,-2213.0,-11808.0,-5.0,-10.0,-10.0,3.0,-10.0,11.0,5.0,-2.0,1.2108800411224365
245,-2257.0,-140.0,-3609.0,0.0,6261.0,9214.0,-2213.0,-11808.0,8.0,15.0,6.0,-4.0,-16.0,-13.0,2.0,2.0,1.2161054611206055
246,-2161.0,-90.0,-3004.0,0.0,6079.0,9131.0,-1636.0,-12059.0,8.0,15.0,6.0,-4.0,-16.0,-13.0,2.0,2.0,1.2199459075927734
247,-2161.0,-90.0,-3004.0,0.0,6079.0,9131.0,-1636.0,-12059.0,5.0,5.0,7.0,-2.0,-5.0,12.0,0.0,9.0,1.2271997928619385
248,-2161.0,-90.0,-3004.0,0.0,6079.0,9131.0,-1636.0,-12059.0,1.0,-12.0,-1.0,-6.0,-6.0,25.0,56.0,46.0,1.2324457168579102
249,-1764.0,-352.0,-2237.0,0.0,5936.0,9007.0,-1179.0,-12275.0,1.0,-12.0,-1.0,-6.0,-6.0,25.0,56.0,46.0,1.243952751159668
250,-1764.0,-352.0,-2237.0,0.0,5936.0,9007.0,-1179.0,-12275.0,-9.0,0.0,9.0,-3.0,-65.0,-19.0,-41.0,-64.0,1.24930739402771
251,-1764.0,-352.0,-2237.0,0.0,5936.0,9007.0,-1179.0,-12275.0,-20.0,-7.0,-13.0,-6.0,25.0,91.0,31.0,69.0,1.2535209655761719
252,-1541.0,-432.0,-1127.0,0.0,5930.0,8862.0,-890.0,-12407.0,-20.0,-7.0,-13.0,-6.0,25.0,91.0,31.0,69.0,1.2662546634674072
253,-1541.0,-432.0,-1127.0,0.0,5930.0,8862.0,-890.0,-12407.0,23.0,60.0,38.0,13.0,3.0,7.0,36.0,14.0,1.27174973487854
254,-1541.0,-432.0,-1127.0,0.0,5930.0,8862.0,-890.0,-12407.0,-30.0,-40.0,-30.0,-27.0,39.0,-15.0,42.0,60.0,1.2762978076934814
255,-1514.0,-565.0,-77.0,0.0,6060.0,8687.0,-714.0,-12480.0,-30.0,-40.0,-30.0,-27.0,39.0,-15.0,42.0,60.0,1.2875697612762451
256,-1514.0,-565.0,-77.0,0.0,6060.0,8687.0,-714.0,-12480.0,-40.0,-60.0,-22.0,-14.0,28.0,37.0,-40.0,-64.0,1.293454885482788
257,-1514.0,-565.0,-77.0,0.0,6060.0,8687.0,-714.0,-12480.0,70.0,83.0,22.0,-24.0,18.0,52.0,19.0,50.0,1.2992243766784668
258,-1058.0,-660.0,1080.0,0.0,6301.0,8517.0,-716.0,-12477.0,70.0,83.0,22.0,-24.0,18.0,52.0,19.0,50.0,1.3062362670898438
259,-1058.0,-660.0,1080.0,0.0,6301.0,8517.0,-716.0,-12477.0,67.0,-89.0,-37.0,-7.0,-28.0,-28.0,105.0,120.0,1.3111474514007568
260,-1058.0,-660.0,1080.0,0.0,6301.0,8517.0,-716.0,-12477.0,-16.0,-128.0,-18.0,20.0,-18.0,53.0,-123.0,-128.0,1.314885139465332
261,-80.0,-965.0,2944.0,0.0,6697.0,8353.0,-1045.0,-12358.0,-16.0,-128.0,-18.0,20.0,-18.0,53.0,-123.0,-128.0,1.327113151550293
262,-80.0,-965.0,2944.0,0.0,6697.0,8353.0,-1045.0,-12358.0,32.0,116.0,52.0,80.0,83.0,66.0,-119.0,-44.0,1.3326201438903809
263,-80.0,-965.0,2944.0,0.0,6697.0,8353.0,-1045.0,-12358.0,-90.0,-55.0,-76.0,-80.0,-71.0,-49.0,-115.0,-97.0,1.3366549015045166
264,947.0,-1436.0,4454.0,0.0,7185.0,8167.0,-1681.0,-12136.0,-90.0,-55.0,-76.0,-80.0,-71.0,-49.0,-115.0,-97.0,1.3404300212860107
265,947.0,-1436.0,4454.0,0.0,7185.0,8167.0,-1681.0,-12136.0,76.0,62.0,18.0,-66.0,-90.0,-38.0,127.0,102.0,1.347130298614502
266,947.0,-1436.0,4454.0,0.0,7185.0,8167.0,-1681.0,-12136.0,-10.0,-44.0,1.0,-39.0,-9.0,-128.0,-57.0,-95.0,1.3645029067993164
267,439.0,-1634.0,6643.0,0.0,7987.0,7820.0,-2463.0,-11723.0,-10.0,-44.0,1.0,-39.0,-9.0,-128.0,-57.0,-95.0,1.3701694011688232
268,439.0,-1634.0,6643.0,0.0,7987.0,7820.0,-2463.0,-11723.0,62.0,-47.0,-19.0,31.0,122.0,80.0,91.0,75.0,1.3747806549072266
269,439.0,-1634.0,6643.0,0.0,7987.0,7820.0,-2463.0,-11723.0,46.0,124.0,98.0,-18.0,-15.0,75.0,39.0,127.0,1.3785121440887451
270,-29.0,-2339.0,7881.0,0.0,8899.0,7277.0,-3322.0,-11191.0,46.0,124.0,98.0,-18.0,-15.0,75.0,39.0,127.0,1.3853759765625
271,-29.0,-2339.0,7881.0,0.0,8899.0,7277.0,-3322.0,-11191.0,-44.0,-43.0,-20.0,-118.0,-128.0,-121.0,104.0,87.0,1.3903615474700928
272,-29.0,-2339.0,7881.0,0.0,8899.0,7277.0,-3322.0,-11191.0,32.0,-51.0,-45.0,8.0,-43.0,-16.0,66.0,-13.0,1.395153284072876
273,1562.0,-3546.0,8019.0,0.0,9581.0,6674.0,-4473.0,-10588.0,32.0,-51.0,-45.0,8.0,-43.0,-16.0,66.0,-13.0,1.3990614414215088
274,1562.0,-3546.0,8019.0,0.0,9581.0,6674.0,-4473.0,-10588.0,-32.0,55.0,8.0,39.0,52.0,82.0,-32.0,-9.0,1.4030272960662842
275,1562.0,-3546.0,8019.0,0.0,9581.0,6674.0,-4473.0,-10588.0,-22.0,21.0,-16.0,67.0,-30.0,-21.0,31.0,-30.0,1.4067673683166504
276,3814.0,-4023.0,7799.0,0.0,9953.0,6194.0,-5870.0,-9826.0,-22.0,21.0,-16.0,67.0,-30.0,-21.0,31.0,-30.0,1.4234473705291748
277,3814.0,-4023.0,7799.0,0.0,9953.0,6194.0,-5870.0,-9826.0,-34.0,-55.0,-84.0,44.0,54.0,-45.0,-92.0,-77.0,1.4292631149291992
278,3814.0,-4023.0,7799.0,0.0,9953.0,6194.0,-5870.0,-9826.0,-7.0,0.0,45.0,6.0,-22.0,71.0,-10.0,-50.0,1.4339079856872559
279,5183.0,-3572.0,6623.0,0.0,10034.0,5921.0,-7225.0,-8972.0,-7.0,0.0,45.0,6.0,-22.0,71.0,-10.0,-50.0,1.4458732604980469
280,5183.0,-3572.0,6623.0,0.0,10034.0,5921.0,-7225.0,-8972.0,-26.0,43.0,-48.0,-24.0,45.0,-99.0,-88.0,-128.0,1.451906681060791
281,5183.0,-3572.0,6623.0,0.0,10034.0,5921.0,-7225.0,-8972.0,31.0,52.0,9.0,-49.0,77.0,-47.0,55.0,90.0,1.4591186046600342
282,6256.0,-3000.0,5266.0,0.0,9865.0,5871.0,-8467.0,-8060.0,31.0,52.0,9.0,-49.0,77.0,-47.0,55.0,90.0,1.4690322875976562
283,6256.0,-3000.0,5266.0,0.0,9865.0,5871.0,-8467.0,-8060.0,-34.0,-1.0,-17.0,114.0,8.0,26.0,6.0,-1.0,1.474275827407837
284,6256.0,-3000.0,5266.0,0.0,9865.0,5871.0,-8467.0,-8060.0,22.0,-2.0,-71.0,72.0,45.0,-14.0,26.0,-43.0,1.4795775413513184
285,6134.0,-2437.0,3354.0,0.0,9511.0,5987.0,-9453.0,-7264.0,22.0,-2.0,-71.0,72.0,45.0,-14.0,26.0,-43.0,1.484238862991333
286,6134.0,-2437.0,3354.0,0.0,9511.0,5987.0,-9453.0,-7264.0,-29.0,-61.0,28.0,39.0,-33.0,-37.0,16.0,-14.0,1.4892909526824951
287,6134.0,-2437.0,3354.0,0.0,9511.0,5987.0,-9453.0,-7264.0,-55.0,-7.0,-7.0,-66.0,23.0,-23.0,-48.0,-63.0,1.4931058883666992
288,5336.0,-1759.0,2074.0,0.0,9126.0,6175.0,-10172.0,-6600.0,-55.0,-7.0,-7.0,-66.0,23.0,-23.0,-48.0,-63.0,1.5057260990142822
289,5336.0,-1759.0,2074.0,0.0,9126.0,6175.0,-10172.0,-6600.0,55.0,-63.0,86.0,76.0,44.0,40.0,17.0,45.0,1.5111100673675537
290,5336.0,-1759.0,2074.0,0.0,9126.0,6175.0,-10172.0,-6600.0,12.0,-57.0,-79.0,0.0,-6.0,17.0,34.0,57.0,1.516235113143921
291,1286.0,-2628.0,3461.0,0.0,8986.0,5722.0,-10746.0,-6282.0,12.0,-57.0,-79.0,0.0,-6.0,17.0,34.0,57.0,1.5278637409210205
292,1286.0,-2628.0,3461.0,0.0,8986.0,5722.0,-10746.0,-6282.0,-13.0,2.0,-85.0,-60.0,-44.0,-46.0,-18.0,-28.0,1.5335044860839844
293,1286.0,-2628.0,3461.0,0.0,8986.0,5722.0,-10746.0,-6282.0,-13.0,2.0,-85.0,-60.0,-44.0,-46.0,-18.0,-28.0,1.539196252822876
294,1286.0,-2628.0,3461.0,0.0,8986.0,5722.0,-10746.0,-6282.0,6.0,42.0,105.0,32.0,73.0,26.0,29.0,-3.0,1.5431034564971924
295,-798.0,-2478.0,1089.0,0.0,8816.0,5344.0,-10997.0,-6420.0,6.0,42.0,105.0,32.0,73.0,26.0,29.0,-3.0,1.5468478202819824
296,-798.0,-2478.0,1089.0,0.0,8816.0,5344.0,-10997.0,-6420.0,1.0,4.0,-80.0,-75.0,9.0,53.0,-16.0,-84.0,1.5513005256652832
297,-798.0,-2478.0,1089.0,0.0,8816.0,5344.0,-10997.0,-6420.0,-5.0,-22.0,32.0,39.0,-9.0,-33.0,-23.0,-23.0,1.555356740951538
298,2150.0,-1463.0,4546.0,0.0,8855.0,4866.0,-11526.0,-5790.0,-5.0,-22.0,32.0,39.0,-9.0,-33.0,-23.0,-23.0,1.566072940826416
299,2150.0,-1463.0,4546.0,0.0,8855.0,4866.0,-11526.0,-5790.0,16.0,31.0,82.0,-55.0,-53.0,-19.0,-22.0,-1.0,1.5710573196411133
300,2150.0,-1463.0,4546.0,0.0,8855.0,4866.0,-11526.0,-5790.0,1.0,-11.0,-55.0,1.0,-34.0,-9.0,-40.0,-3.0,1.5759162902832031
301,2671.0,-1083.0,3047.0,0.0,8755.0,4678.0,-11940.0,-5229.0,1.0,-11.0,-55.0,1.0,-34.0,-9.0,-40.0,-3.0,1.5887868404388428
302,2671.0,-1083.0,3047.0,0.0,8755.0,4678.0,-11940.0,-5229.0,4.0,-27.0,-59.0,-21.0,-10.0,4.0,35.0,111.0,1.5945372581481934
303,2671.0,-1083.0,3047.0,0.0,8755.0,4678.0,-11940.0,-5229.0,-12.0,-3.0,2.0,62.0,-5.0,-71.0,32.0,-7.0,1.600236415863037
304,740.0,-606.0,2256.0,0.0,8773.0,4424.0,-12135.0,-4965.0,-12.0,-3.0,2.0,62.0,-5.0,-71.0,32.0,-7.0,1.6040713787078857
305,740.0,-606.0,2256.0,0.0,8773.0,4424.0,-12135.0,-4965.0,-45.0,1.0,127.0,-19.0,-34.0,5.0,-27.0,2.0,1.6079065799713135
306,740.0,-606.0,2256.0,0.0,8773.0,4424.0,-12135.0,-4965.0,22.0,10.0,-93.0,2.0,16.0,14.0,-19.0,3.0,1.6116721630096436
307,634.0,-64.0,1643.0,0.0,8842.0,4260.0,-12231.0,-4744.0,22.0,10.0,-93.0,2.0,16.0,14.0,-19.0,3.0,1.625664472579956
308,634.0,-64.0,1643.0,0.0,8842.0,4260.0,-12231.0,-4744.0,-15.0,-11.0,-17.0,4.0,-1.0,-1.0,10.0,-8.0,1.6309683322906494
309,634.0,-64.0,1643.0,0.0,8842.0,4260.0,-12231.0,-4744.0,13.0,76.0,89.0,-24.0,-17.0,5.0,8.0,-7.0,1.6361854076385498
310,1175.0,627.0,1078.0,0.0,8926.0,4261.0,-12279.0,-4453.0,13.0,76.0,89.0,-24.0,-17.0,5.0,8.0,-7.0,1.6489677429199219
311,1175.0,627.0,1078.0,0.0,8926.0,4261.0,-12279.0,-4453.0,-15.0,-5.0,-19.0,6.0,-1.0,37.0,38.0,-28.0,1.654442548751831
312,1175.0,627.0,1078.0,0.0,8926.0,4261.0,-12279.0,-4453.0,7.0,-32.0,-30.0,-65.0,-1.0,4.0,-8.0,76.0,1.659698247909546
313,495.0,815.0,114.0,0.0,9017.0,4334.0,-12229.0,-4338.0,7.0,-32.0,-30.0,-65.0,-1.0,4.0,-8.0,76.0,1.6636590957641602
314,495.0,815.0,114.0,0.0,9017.0,4334.0,-12229.0,-4338.0,10.0,66.0,16.0,10.0,5.0,-26.0,-84.0,-6.0,1.6698269844055176
315,495.0,815.0,114.0,0.0,9017.0,4334.0,-12229.0,-4338.0,-14.0,-56.0,-3.0,-3.0,-9.0,-12.0,23.0,18.0,1.674076795578003
316,-537.0,850.0,-1135.0,0.0,9116.0,4540.0,-11973.0,-4622.0,-14.0,-56.0,-3.0,-3.0,-9.0,-12.0,23.0,18.0,1.6858770847320557
317,-537.0,850.0,-1135.0,0.0,9116.0,4540.0,-11973.0,-4622.0,-1.0,14.0,-65.0,-9.0,-19.0,-18.0,-19.0,-35.0,1.691296100616455
318,-537.0,850.0,-1135.0,0.0,9116.0,4540.0,-11973.0,-4622.0,-3.0,30.0,72.0,-9.0,-25.0,18.0,-3.0,-36.0,1.6959683895111084
319,-628.0,992.0,-2041.0,0.0,9168.0,4803.0,-11729.0,-4873.0,-3.0,30.0,72.0,-9.0,-25.0,18.0,-3.0,-36.0,1.7076528072357178
320,-628.0,992.0,-2041.0,0.0,9168.0,4803.0,-11729.0,-4873.0,9.0,-10.0,-31.0,9.0,24.0,7.0,18.0,20.0,1.7140178680419922
321,-628.0,992.0,-2041.0,0.0,9168.0,4803.0,-11729.0,-4873.0,15.0,-4.0,-28.0,74.0,51.0,4.0,11.0,-8.0,1.7193012237548828
322,-527.0,949.0,-2484.0,0.0,9165.0,5134.0,-11470.0,-5151.0,15.0,-4.0,-28.0,74.0,51.0,4.0,11.0,-8.0,1.7233295440673828
323,-527.0,949.0,-2484.0,0.0,9165.0,5134.0,-11470.0,-5151.0,-6.0,0.0,40.0,-10.0,-56.0,-46.0,19.0,25.0,1.7296478748321533
324,-527.0,949.0,-2484.0,0.0,9165.0,5134.0,-11470.0,-5151.0,-44.0,-39.0,-33.0,-1.0,4.0,-58.0,-3.0,22.0,1.7334890365600586
325,-1049.0,844.0,-2233.0,0.0,9182.0,5369.0,-11202.0,-5460.0,-44.0,-39.0,-33.0,-1.0,4.0,-58.0,-3.0,22.0,1.7467010021209717
326,-1049.0,844.0,-2233.0,0.0,9182.0,5369.0,-11202.0,-5460.0,56.0,20.0,1.0,34.0,38.0,30.0,7.0,51.0,1.752593994140625
327,-1049.0,844.0,-2233.0,0.0,9182.0,5369.0,-11202.0,-5460.0,-10.0,-33.0,4.0,18.0,-6.0,6.0,15.0,-4.0,1.7575945854187012
328,-1688.0,768.0,-1920.0,0.0,9247.0,5481.0,-10919.0,-5803.0,-10.0,-33.0,4.0,18.0,-6.0,6.0,15.0,-4.0,1.7675399780273438
329,-1688.0,768.0,-1920.0,0.0,9247.0,5481.0,-10919.0,-5803.0,-5.0,33.0,-13.0,-16.0,1.0,-10.0,19.0,-37.0,1.7728383541107178
330,-1688.0,768.0,-1920.0,0.0,9247.0,5481.0,-10919.0,-5803.0,-13.0,14.0,9.0,0.0,-8.0,57.0,-10.0,-15.0,1.7782349586486816
331,-1480.0,605.0,-1931.0,0.0,9286.0,5588.0,-10655.0,-6120.0,-13.0,14.0,9.0,0.0,-8.0,57.0,-10.0,-15.0,1.7823636531829834
332,-1480.0,605.0,-1931.0,0.0,9286.0,5588.0,-10655.0,-6120.0,-25.0,-75.0,-83.0,14.0,6.0,49.0,-81.0,-65.0,1.789930820465088
333,-1480.0,605.0,-1931.0,0.0,9286.0,5588.0,-10655.0,-6120.0,-28.0,0.0,-12.0,-1.0,-12.0,-36.0,-83.0,-74.0,1.7938268184661865
334,-985.0,719.0,-1567.0,0.0,9361.0,5666.0,-10438.0,-6305.0,-28.0,0.0,-12.0,-1.0,-12.0,-36.0,-83.0,-74.0,1.8073763847351074
335,-985.0,719.0,-1567.0,0.0,9361.0,5666.0,-10438.0,-6305.0,9.0,-4.0,45.0,39.0,43.0,15.0,49.0,48.0,1.8136212825775146
336,-985.0,719.0,-1567.0,0.0,9361.0,5666.0,-10438.0,-6305.0,-13.0,-40.0,17.0,13.0,-35.0,-20.0,-12.0,-35.0,1.8183598518371582
337,-834.0,799.0,-1154.0,0.0,9425.0,5738.0,-10280.0,-6404.0,-13.0,-40.0,17.0,13.0,-35.0,-20.0,-12.0,-35.0,1.8279225826263428
338,-834.0,799.0,-1154.0,0.0,9425.0,5738.0,-10280.0,-6404.0,-1.0,12.0,-1.0,-24.0,51.0,0.0,74.0,12.0,1.8327765464782715
339,-834.0,799.0,-1154.0,0.0,9425.0,5738.0,-10280.0,-6404.0,28.0,-11.0,-27.0,23.0,30.0,16.0,16.0,66.0,1.8382296562194824
340,-673.0,595.0,-996.0,0.0,9470.0,5784.0,-10171.0,-6470.0,28.0,-11.0,-27.0,23.0,30.0,16.0,16.0,66.0,1.850816011428833
341,-673.0,595.0,-996.0,0.0,9470.0,5784.0,-10171.0,-6470.0,-14.0,-61.0,-42.0,-36.0,-20.0,8.0,19.0,10.0,1.855769395828247
342,-673.0,595.0,-996.0,0.0,9470.0,5784.0,-10171.0,-6470.0,3.0,3.0,-8.0,-11.0,18.0,12.0,1.0,32.0,1.8610742092132568
343,-414.0,355.0,-826.0,0.0,9468.0,5849.0,-10089.0,-6541.0,3.0,3.0,-8.0,-11.0,18.0,12.0,1.0,32.0,1.865741491317749
344,-414.0,355.0,-826.0,0.0,9468.0,5849.0,-10089.0,-6541.0,14.0,11.0,-14.0,-39.0,-11.0,18.0,-49.0,-22.0,1.8700778484344482
345,-414.0,355.0,-826.0,0.0,9468.0,5849.0,-10089.0,-6541.0,6.0,17.0,30.0,-19.0,-87.0,-14.0,22.0,-22.0,1.8742270469665527
346,-477.0,118.0,-833.0,0.0,9444.0,5891.0,-10027.0,-6633.0,6.0,17.0,30.0,-19.0,-87.0,-14.0,22.0,-22.0,1.889280080795288
347,-477.0,118.0,-833.0,0.0,9444.0,5891.0,-10027.0,-6633.0,12.0,103.0,127.0,-26.0,-10.0,-2.0,-21.0,16.0,1.8946309089660645
348,-477.0,118.0,-833.0,0.0,9444.0,5891.0,-10027.0,-6633.0,35.0,18.0,-22.0,22.0,38.0,21.0,13.0,6.0,1.8996975421905518
349,-416.0,32.0,-746.0,0.0,9417.0,5910.0,-10002.0,-6693.0,35.0,18.0,-22.0,22.0,38.0,21.0,13.0,6.0,1.9048211574554443
350,-416.0,32.0,-746.0,0.0,9417.0,5910.0,-10002.0,-6693.0,-21.0,-48.0,-56.0,-10.0,-21.0,-8.0,16.0,4.0,1.9103655815124512
351,-416.0,32.0,-746.0,0.0,9417.0,5910.0,-10002.0,-6693.0,-11.0,-4.0,3.0,-52.0,7.0,-6.0,7.0,-5.0,1.9149658679962158
352,-100.0,-179.0,-503.0,0.0,9356.0,5933.0,-10028.0,-6719.0,-11.0,-4.0,3.0,-52.0,7.0,-6.0,7.0,-5.0,1.9270286560058594
353,-100.0,-179.0,-503.0,0.0,9356.0,5933.0,-10028.0,-6719.0,6.0,0.0,-11.0,50.0,4.0,-8.0,-10.0,-3.0,1.9324190616607666
354,-100.0,-179.0,-503.0,0.0,9356.0,5933.0,-10028.0,-6719.0,-10.0,-30.0,-57.0,1.0,-6.0,-1.0,-9.0,-23.0,1.9380199909210205
355,-114.0,-281.0,-350.0,0.0,9293.0,5938.0,-10061.0,-6751.0,-10.0,-30.0,-57.0,1.0,-6.0,-1.0,-9.0,-23.0,1.9477384090423584
356,-114.0,-281.0,-350.0,0.0,9293.0,5938.0,-10061.0,-6751.0,-25.0,-35.0,-19.0,29.0,-13.0,-13.0,1.0,-21.0,1.9525413513183594
357,-114.0,-281.0,-350.0,0.0,9293.0,5938.0,-10061.0,-6751.0,17.0,8.0,-2.0,-3.0,0.0,-1.0,15.0,18.0,1.9573793411254883
358,2.0,-402.0,-244.0,0.0,9239.0,5916.0,-10111.0,-6771.0,17.0,8.0,-2.0,-3.0,0.0,-1.0,15.0,18.0,1.9617462158203125
359,2.0,-402.0,-244.0,0.0,9239.0,5916.0,-10111.0,-6771.0,-14.0,-7.0,-20.0,-66.0,-39.0,-9.0,-2.0,-10.0,1.9704773426055908
360,2.0,-402.0,-244.0,0.0,9239.0,5916.0,-10111.0,-6771.0,-4.0,-3.0,29.0,39.0,-16.0,10.0,-14.0,0.0,1.9746029376983643
361,291.0,-357.0,-173.0,0.0,9182.0,5916.0,-10174.0,-6755.0,-4.0,-3.0,29.0,39.0,-16.0,10.0,-14.0,0.0,1.9870638847351074
362,291.0,-357.0,-173.0,0.0,9182.0,5916.0,-10174.0,-6755.0,-2.0,-8.0,27.0,40.0,-6.0,-2.0,24.0,23.0,1.992814064025879
363,291.0,-357.0,-173.0,0.0,9182.0,5916.0,-10174.0,-6755.0,6.0,4.0,25.0,-37.0,-3.0,-14.0,14.0,9.0,1.9981112480163574
364,649.0,-172.0,4.0,0.0,9103.0,5980.0,-10255.0,-6682.0,6.0,4.0,25.0,-37.0,-3.0,-14.0,14.0,9.0,2.0077996253967285
365,649.0,-172.0,4.0,0.0,9103.0,5980.0,-10255.0,-6682.0,1.0,-8.0,-22.0,-11.0,16.0,3.0,27.0,32.0,2.012568950653076
366,649.0,-172.0,4.0,0.0,9103.0,5980.0,-10255.0,-6682.0,2.0,31.0,22.0,11.0,19.0,8.0,2.0,-13.0,2.017319440841675
367,757.0,-133.0,155.0,0.0,9034.0,6044.0,-10332.0,-6598.0,2.0,31.0,22.0,11.0,19.0,8.0,2.0,-13.0,2.0216970443725586
368,757.0,-133.0,155.0,0.0,9034.0,6044.0,-10332.0,-6598.0,0.0,-8.0,-1.0,-11.0,9.0,-7.0,-28.0,-6.0,2.030147075653076
369,757.0,-133.0,155.0,0.0,9034.0,6044.0,-10332.0,-6598.0,3.0,-8.0,-27.0,-14.0,7.0,-10.0,-5.0,20.0,2.034743070602417
370,640.0,-74.0,195.0,0.0,9005.0,6076.0,-10389.0,-6519.0,3.0,-8.0,-27.0,-14.0,7.0,-10.0,-5.0,20.0,2.046410322189331
371,640.0,-74.0,195.0,0.0,9005.0,6076.0,-10389.0,-6519.0,15.0,15.0,65.0,12.0,4.0,9.0,4.0,-15.0,2.0521223545074463
372,640.0,-74.0,195.0,0.0,9005.0,6076.0,-10389.0,-6519.0,-4.0,9.0,-24.0,-7.0,-16.0,-1.0,3.0,-1.0,2.0576043128967285
373,579.0,-73.0,291.0,0.0,8989.0,6086.0,-10454.0,-6428.0,-4.0,9.0,-24.0,-7.0,-16.0,-1.0,3.0,-1.0,2.068000555038452
374,579.0,-73.0,291.0,0.0,8989.0,6086.0,-10454.0,-6428.0,-8.0,-24.0,-7.0,21.0,-2.0,4.0,-3.0,-7.0,2.073171615600586
375,579.0,-73.0,291.0,0.0,8989.0,6086.0,-10454.0,-6428.0,5.0,1.0,-33.0,8.0,24.0,4.0,5.0,7.0,2.078284502029419
376,654.0,-168.0,211.0,0.0,8955.0,6097.0,-10537.0,-6328.0,5.0,1.0,-33.0,8.0,24.0,4.0,5.0,7.0,2.082561492919922
377,654.0,-168.0,211.0,0.0,8955.0,6097.0,-10537.0,-6328.0,-6.0,8.0,79.0,-13.0,-6.0,5.0,4.0,-4.0,2.0898547172546387
378,654.0,-168.0,211.0,0.0,8955.0,6097.0,-10537.0,-6328.0,-11.0,-17.0,-4.0,9.0,-4.0,15.0,-7.0,-2.0,2.0938994884490967
379,802.0,-96.0,280.0,0.0,8912.0,6136.0,-10616.0,-6219.0,-11.0,-17.0,-4.0,9.0,-4.0,15.0,-7.0,-2.0,2.106315851211548
380,802.0,-96.0,280.0,0.0,8912.0,6136.0,-10616.0,-6219.0,-7.0,-11.0,-37.0,0.0,-4.0,0.0,-19.0,-17.0,2.112083673477173
381,802.0,-96.0,280.0,0.0,8912.0,6136.0,-10616.0,-6219.0,0.0,22.0,96.0,8.0,-10.0,-3.0,16.0,19.0,2.1172378063201904
382,622.0,-103.0,285.0,0.0,8876.0,6164.0,-10672.0,-6145.0,0.0,22.0,96.0,8.0,-10.0,-3.0,16.0,19.0,2.128587484359741
383,622.0,-103.0,285.0,0.0,8876.0,6164.0,-10672.0,-6145.0,12.0,26.0,-14.0,3.0,13.0,9.0,0.0,3.0,2.132493257522583
384,622.0,-103.0,285.0,0.0,8876.0,6164.0,-10672.0,-6145.0,-10.0,-36.0,-42.0,-8.0,-13.0,-7.0,3.0,2.0,2.1363234519958496
385,397.0,-120.0,306.0,0.0,8855.0,6167.0,-10714.0,-6098.0,-10.0,-36.0,-42.0,-8.0,-13.0,-7.0,3.0,2.0,2.1414120197296143
386,397.0,-120.0,306.0,0.0,8855.0,6167.0,-10714.0,-6098.0,-3.0,-5.0,2.0,0.0,-8.0,-5.0,4.0,-7.0,2.149937391281128
387,397.0,-120.0,306.0,0.0,8855.0,6167.0,-10714.0,-6098.0,14.0,8.0,-25.0,-24.0,-8.0,-5.0,-3.0,-3.0,2.153653860092163
388,297.0,-153.0,235.0,0.0,8831.0,6165.0,-10754.0,-6066.0,14.0,8.0,-25.0,-24.0,-8.0,-5.0,-3.0,-3.0,2.165316343307495
389,297.0,-153.0,235.0,0.0,8831.0,6165.0,-10754.0,-6066.0,3.0,-6.0,-67.0,4.0,-3.0,-5.0,-1.0,-3.0,2.169156074523926
390,297.0,-153.0,235.0,0.0,8831.0,6165.0,-10754.0,-6066.0,-4.0,-3.0,4.0,1.0,6.0,-2.0,-7.0,11.0,2.172934055328369
391,243.0,-145.0,201.0,0.0,8811.0,6161.0,-10787.0,-6041.0,-4.0,-3.0,4.0,1.0,6.0,-2.0,-7.0,11.0,2.189002513885498
392,243.0,-145.0,201.0,0.0,8811.0,6161.0,-10787.0,-6041.0,-5.0,-18.0,-52.0,-13.0,-14.0,0.0,-8.0,-4.0,2.1940743923187256
393,243.0,-145.0,201.0,0.0,8811.0,6161.0,-10787.0,-6041.0,1.0,2.0,28.0,5.0,10.0,-5.0,-4.0,-13.0,2.1989972591400146
394,345.0,-103.0,188.0,0.0,8790.0,6171.0,-10816.0,-6009.0,1.0,2.0,28.0,5.0,10.0,-5.0,-4.0,-13.0,2.2037160396575928
395,345.0,-103.0,188.0,0.0,8790.0,6171.0,-10816.0,-6009.0,-9.0,6.0,31.0,-4.0,-9.0,1.0,1.0,0.0,2.2098586559295654
396,345.0,-103.0,188.0,0.0,8790.0,6171.0,-10816.0,-6009.0,-30.0,-29.0,-13.0,9.0,-6.0,-16.0,4.0,-16.0,2.213701009750366
397,395.0,-44.0,203.0,0.0,8766.0,6194.0,-10845.0,-5967.0,-30.0,-29.0,-13.0,9.0,-6.0,-16.0,4.0,-16.0,2.2261643409729004
398,395.0,-44.0,203.0,0.0,8766.0,6194.0,-10845.0,-5967.0,19.0,0.0,-57.0,11.0,9.0,1.0,-9.0,5.0,2.23201322555542
399,395.0,-44.0,203.0,0.0,8766.0,6194.0,-10845.0,-5967.0,-11.0,-4.0,-22.0,-13.0,12.0,7.0,2.0,4.0,2.2372918128967285
400,335.0,-29.0,190.0,0.0,8748.0,6212.0,-10870.0,-5930.0,-11.0,-4.0,-22.0,-13.0,12.0,7.0,2.0,4.0,2.2477691173553467
401,335.0,-29.0,190.0,0.0,8748.0,6212.0,-10870.0,-5930.0,17.0,19.0,45.0,16.0,10.0,-6.0,-3.0,1.0,2.2538957595825195
402,335.0,-29.0,190.0,0.0,8748.0,6212.0,-10870.0,-5930.0,23.0,53.0,50.0,20.0,-18.0,-3.0,-15.0,11.0,2.2593982219696045
403,169.0,-7.0,153.0,0.0,8746.0,6214.0,-10883.0,-5907.0,23.0,53.0,50.0,20.0,-18.0,-3.0,-15.0,11.0,2.2634010314941406
404,169.0,-7.0,153.0,0.0,8746.0,6214.0,-10883.0,-5907.0,-11.0,-14.0,-2.0,11.0,10.0,1.0,-5.0,-7.0,2.2696821689605713
405,169.0,-7.0,153.0,0.0,8746.0,6214.0,-10883.0,-5907.0,-1.0,-1.0,19.0,8.0,11.0,-11.0,-16.0,-18.0,2.273590087890625
406,165.0,33.0,100.0,0.0,8741.0,6228.0,-10889.0,-5889.0,-1.0,-1.0,19.0,8.0,11.0,-11.0,-16.0,-18.0,2.2859690189361572
407,165.0,33.0,100.0,0.0,8741.0,6228.0,-10889.0,-5889.0,2.0,34.0,75.0,-1.0,-1.0,-6.0,-1.0,-3.0,2.291598081588745
408,165.0,33.0,100.0,0.0,8741.0,6228.0,-10889.0,-5889.0,0.0,12.0,8.0,-6.0,7.0,12.0,-7.0,-16.0,2.2964603900909424
409,72.0,35.0,21.0,0.0,8741.0,6241.0,-10879.0,-5893.0,0.0,12.0,8.0,-6.0,7.0,12.0,-7.0,-16.0,2.3076977729797363
410,72.0,35.0,21.0,0.0,8741.0,6241.0,-10879.0,-5893.0,-39.0,-63.0,-19.0,7.0,2.0,-8.0,14.0,1.0,2.3115625381469727
411,72.0,35.0,21.0,0.0,8741.0,6241.0,-10879.0,-5893.0,15.0,11.0,7.0,2.0,-11.0,3.0,11.0,1.0,2.3183300495147705
412,80.0,-3.0,32.0,0.0,8744.0,6246.0,-10871.0,-5897.0,15.0,11.0,7.0,2.0,-11.0,3.0,11.0,1.0,2.3228836059570312
413,80.0,-3.0,32.0,0.0,8744.0,6246.0,-10871.0,-5897.0,-3.0,-8.0,-26.0,-5.0,-14.0,4.0,4.0,6.0,2.3298940658569336
414,80.0,-3.0,32.0,0.0,8744.0,6246.0,-10871.0,-5897.0,0.0,-6.0,-7.0,-1.0,-18.0,3.0,36.0,35.0,2.3338005542755127
415,73.0,-14.0,3.0,0.0,8741.0,6252.0,-10870.0,-5897.0,0.0,-6.0,-7.0,-1.0,-18.0,3.0,36.0,35.0,2.346979856491089
416,73.0,-14.0,3.0,0.0,8741.0,6252.0,-10870.0,-5897.0,2.0,4.0,-13.0,-11.0,-5.0,9.0,23.0,13.0,2.3533365726470947
417,73.0,-14.0,3.0,0.0,8741.0,6252.0,-10870.0,-5897.0,-10.0,-16.0,-34.0,-6.0,21.0,-15.0,-22.0,-19.0,2.3581326007843018
418,-129.0,-50.0,-4.0,0.0,8742.0,6239.0,-10866.0,-5917.0,-10.0,-16.0,-34.0,-6.0,21.0,-15.0,-22.0,-19.0,2.367751359939575
419,-129.0,-50.0,-4.0,0.0,8742.0,6239.0,-10866.0,-5917.0,23.0,62.0,39.0,-17.0,-6.0,-16.0,-3.0,5.0,2.372558116912842
420,-129.0,-50.0,-4.0,0.0,8742.0,6239.0,-10866.0,-5917.0,5.0,5.0,-58.0,-13.0,2.0,7.0,7.0,0.0,2.377366781234741
421,-216.0,-64.0,5.0,0.0,8749.0,6216.0,-10855.0,-5951.0,5.0,5.0,-58.0,-13.0,2.0,7.0,7.0,0.0,2.382963180541992
422,-216.0,-64.0,5.0,0.0,8749.0,6216.0,-10855.0,-5951.0,-6.0,36.0,29.0,13.0,13.0,-4.0,-14.0,-14.0,2.389751672744751
423,-216.0,-64.0,5.0,0.0,8749.0,6216.0,-10855.0,-5951.0,-5.0,-8.0,-2.0,-19.0,-10.0,4.0,-10.0,2.0,2.393707036972046
424,-158.0,-17.0,18.0,0.0,8755.0,6200.0,-10849.0,-5970.0,-5.0,-8.0,-2.0,-19.0,-10.0,4.0,-10.0,2.0,2.406262159347534
425,-158.0,-17.0,18.0,0.0,8755.0,6200.0,-10849.0,-5970.0,3.0,-26.0,-27.0,5.0,-6.0,8.0,32.0,5.0,2.4129302501678467
426,-158.0,-17.0,18.0,0.0,8755.0,6200.0,-10849.0,-5970.0,15.0,5.0,0.0,8.0,11.0,16.0,-5.0,6.0,2.4181101322174072
427,-74.0,14.0,13.0,0.0,8758.0,6200.0,-10840.0,-5984.0,15.0,5.0,0.0,8.0,11.0,16.0,-5.0,6.0,2.427814483642578
428,-74.0,14.0,13.0,0.0,8758.0,6200.0,-10840.0,-5984.0,9.0,61.0,101.0,-16.0,-7.0,0.0,21.0,11.0,2.4326515197753906
429,-74.0,14.0,13.0,0.0,8758.0,6200.0,-10840.0,-5984.0,2.0,15.0,-6.0,5.0,5.0,1.0,6.0,9.0,2.4378416538238525
430,-129.0,4.0,-15.0,0.0,8751.0,6203.0,-10830.0,-6007.0,2.0,15.0,-6.0,5.0,5.0,1.0,6.0,9.0,2.4523797035217285
431,-129.0,4.0,-15.0,0.0,8751.0,6203.0,-10830.0,-6007.0,-13.0,-55.0,-78.0,0.0,9.0,2.0,-24.0,-23.0,2.4575717449188232
432,-129.0,4.0,-15.0,0.0,8751.0,6203.0,-10830.0,-6007.0,-13.0,3.0,28.0,1.0,3.0,-14.0,-14.0,-5.0,2.4612643718719482
433,-256.0,-52.0,94.0,0.0,8751.0,6177.0,-10833.0,-6029.0,-13.0,3.0,28.0,1.0,3.0,-14.0,-14.0,-5.0,2.464958429336548
434,-256.0,-52.0,94.0,0.0,8751.0,6177.0,-10833.0,-6029.0,18.0,-8.0,-41.0,-10.0,19.0,-4.0,-3.0,-2.0,2.4687700271606445
435,-256.0,-52.0,94.0,0.0,8751.0,6177.0,-10833.0,-6029.0,-21.0,-36.0,-10.0,-5.0,-3.0,-5.0,6.0,7.0,2.4724442958831787
436,-282.0,-161.0,176.0,0.0,8746.0,6124.0,-10862.0,-6038.0,-21.0,-36.0,-10.0,-5.0,-3.0,-5.0,6.0,7.0,2.4892666339874268
437,-282.0,-161.0,176.0,0.0,8746.0,6124.0,-10862.0,-6038.0,-2.0,3.0,-14.0,7.0,10.0,9.0,-10.0,-1.0,2.494607448577881
438,-282.0,-161.0,176.0,0.0,8746.0,6124.0,-10862.0,-6038.0,-1.0,-20.0,-30.0,-9.0,-9.0,4.0,21.0,-7.0,2.49884295463562
439,-84.0,-120.0,277.0,0.0,8750.0,6072.0,-10904.0,-6010.0,-1.0,-20.0,-30.0,-9.0,-9.0,4.0,21.0,-7.0,2.5127758979797363
440,-84.0,-120.0,277.0,0.0,8750.0,6072.0,-10904.0,-6010.0,-8.0,-9.0,-17.0,0.0,-11.0,-4.0,-7.0,3.0,2.518630266189575
441,-84.0,-120.0,277.0,0.0,8750.0,6072.0,-10904.0,-6010.0,0.0,-3.0,27.0,20.0,-1.0,1.0,11.0,-3.0,2.522954225540161
442,-25.0,-113.0,263.0,0.0,8751.0,6034.0,-10933.0,-5994.0,0.0,-3.0,27.0,20.0,-1.0,1.0,11.0,-3.0,2.526665449142456
443,-25.0,-113.0,263.0,0.0,8751.0,6034.0,-10933.0,-5994.0,-5.0,-11.0,-13.0,3.0,-1.0,-9.0,-4.0,-10.0,2.530505418777466
444,-25.0,-113.0,263.0,0.0,8751.0,6034.0,-10933.0,-5994.0,-8.0,-19.0,11.0,10.0,26.0,1.0,-17.0,-19.0,2.53420352935791
445,-15.0,-179.0,71.0,0.0,8737.0,6011.0,-10952.0,-6001.0,-8.0,-19.0,11.0,10.0,26.0,1.0,-17.0,-19.0,2.548936605453491
446,-15.0,-179.0,71.0,0.0,8737.0,6011.0,-10952.0,-6001.0,4.0,21.0,9.0,-12.0,-18.0,-7.0,-13.0,0.0,2.5542538166046143
447,-15.0,-179.0,71.0,0.0,8737.0,6011.0,-10952.0,-6001.0,5.0,1.0,-23.0,-7.0,-14.0,-2.0,-6.0,-3.0,2.558547258377075
448,77.0,-17.0,89.0,0.0,8740.0,6011.0,-10949.0,-6003.0,5.0,1.0,-23.0,-7.0,-14.0,-2.0,-6.0,-3.0,2.570812225341797
449,77.0,-17.0,89.0,0.0,8740.0,6011.0,-10949.0,-6003.0,-2.0,2.0,5.0,1.0,16.0,2.0,10.0,10.0,2.5769174098968506
450,77.0,-17.0,89.0,0.0,8740.0,6011.0,-10949.0,-6003.0,4.0,-1.0,-18.0,-5.0,-5.0,-3.0,-5.0,13.0,2.5816843509674072
451,176.0,87.0,46.0,0.0,8748.0,6027.0,-10946.0,-5981.0,4.0,-1.0,-18.0,-5.0,-5.0,-3.0,-5.0,13.0,2.585437297821045
452,176.0,87.0,46.0,0.0,8748.0,6027.0,-10946.0,-5981.0,-34.0,-50.0,-31.0,-4.0,-8.0,4.0,-6.0,1.0,2.589306354522705
453,176.0,87.0,46.0,0.0,8748.0,6027.0,-10946.0,-5981.0,25.0,21.0,47.0,-4.0,-7.0,0.0,0.0,7.0,2.593046188354492
454,55.0,88.0,145.0,0.0,8759.0,6026.0,-10949.0,-5959.0,25.0,21.0,47.0,-4.0,-7.0,0.0,0.0,7.0,2.6096270084381104
455,55.0,88.0,145.0,0.0,8759.0,6026.0,-10949.0,-5959.0,1.0,-9.0,-13.0,4.0,-12.0,-3.0,-21.0,-19.0,2.615002155303955
456,55.0,88.0,145.0,0.0,8759.0,6026.0,-10949.0,-5959.0,-5.0,15.0,16.0,-9.0,1.0,2.0,-18.0,-10.0,2.6192920207977295
457,-175.0,-74.0,80.0,0.0,8758.0,6001.0,-10956.0,-5974.0,-5.0,15.0,16.0,-9.0,1.0,2.0,-18.0,-10.0,2.630988597869873
458,-175.0,-74.0,80.0,0.0,8758.0,6001.0,-10956.0,-5974.0,3.0,-2.0,14.0,3.0,0.0,0.0,3.0,11.0,2.636432409286499
459,-175.0,-74.0,80.0,0.0,8758.0,6001.0,-10956.0,-5974.0,-1.0,-5.0,-6.0,-4.0,-7.0,-5.0,3.0,-5.0,2.641599416732788
460,-76.0,-121.0,152.0,0.0,8753.0,5970.0,-10979.0,-5971.0,-1.0,-5.0,-6.0,-4.0,-7.0,-5.0,3.0,-5.0,2.6453027725219727
461,-76.0,-121.0,152.0,0.0,8753.0,5970.0,-10979.0,-5971.0,1.0,18.0,65.0,8.0,6.0,-2.0,-10.0,-4.0,2.6491122245788574
462,-76.0,-121.0,152.0,0.0,8753.0,5970.0,-10979.0,-5971.0,-8.0,-3.0,22.0,-11.0,5.0,5.0,4.0,4.0,2.652806282043457
463,-31.0,-138.0,218.0,0.0,8745.0,5936.0,-11010.0,-5959.0,-8.0,-3.0,22.0,-11.0,5.0,5.0,4.0,4.0,2.6694135665893555
464,-31.0,-138.0,218.0,0.0,8745.0,5936.0,-11010.0,-5959.0,7.0,9.0,-30.0,-1.0,3.0,2.0,11.0,-2.0,2.675023078918457
465,-31.0,-138.0,218.0,0.0,8745.0,5936.0,-11010.0,-5959.0,-1.0,5.0,8.0,9.0,-6.0,1.0,13.0,-1.0,2.6793034076690674
466,-206.0,-192.0,261.0,0.0,8745.0,5877.0,-11036.0,-5970.0,-1.0,5.0,8.0,9.0,-6.0,1.0,13.0,-1.0,2.69097638130188
467,-206.0,-192.0,261.0,0.0,8745.0,5877.0,-11036.0,-5970.0,-3.0,-8.0,1.0,-8.0,0.0,0.0,-5.0,0.0,2.696244955062866
468,-206.0,-192.0,261.0,0.0,8745.0,5877.0,-11036.0,-5970.0,2.0,12.0,-14.0,12.0,9.0,0.0,5.0,-1.0,2.7013509273529053
469,-201.0,-191.0,241.0,0.0,8753.0,5813.0,-11059.0,-5978.0,2.0,12.0,-14.0,12.0,9.0,0.0,5.0,-1.0,2.705324172973633
470,-201.0,-191.0,241.0,0.0,8753.0,5813.0,-11059.0,-5978.0,2.0,-1.0,-27.0,-6.0,-11.0,-4.0,2.0,-2.0,2.7122802734375
471,-201.0,-191.0,241.0,0.0,8753.0,5813.0,-11059.0,-5978.0,20.0,55.0,9.0,-12.0,2.0,-5.0,6.0,5.0,2.716430425643921
472,-27.0,-127.0,220.0,0.0,8752.0,5778.0,-11082.0,-5970.0,20.0,55.0,9.0,-12.0,2.0,-5.0,6.0,5.0,2.7295024394989014
473,-27.0,-127.0,220.0,0.0,8752.0,5778.0,-11082.0,-5970.0,4.0,-10.0,11.0,13.0,2.0,5.0,-7.0,0.0,2.735739231109619
474,-27.0,-127.0,220.0,0.0,8752.0,5778.0,-11082.0,-5970.0,-2.0,-16.0,0.0,13.0,-17.0,-3.0,-4.0,-11.0,2.739708662033081
475,150.0,-94.0,249.0,0.0,8744.0,5760.0,-11113.0,-5941.0,-2.0,-16.0,0.0,13.0,-17.0,-3.0,-4.0,-11.0,2.751227855682373
476,150.0,-94.0,249.0,0.0,8744.0,5760.0,-11113.0,-5941.0,0.0,-3.0,-20.0,-4.0,6.0,4.0,-1.0,7.0,2.7565016746520996
477,150.0,-94.0,249.0,0.0,8744.0,5760.0,-11113.0,-5941.0,-7.0,-11.0,-8.0,-1.0,0.0,-2.0,-10.0,1.0,2.7612740993499756
478,70.0,-57.0,296.0,0.0,8747.0,5734.0,-11139.0,-5914.0,-7.0,-11.0,-8.0,-1.0,0.0,-2.0,-10.0,1.0,2.7654879093170166
479,70.0,-57.0,296.0,0.0,8747.0,5734.0,-11139.0,-5914.0,1.0,-9.0,10.0,6.0,-11.0,-1.0,-2.0,-3.0,2.7722127437591553
480,70.0,-57.0,296.0,0.0,8747.0,5734.0,-11139.0,-5914.0,-8.0,-7.0,-6.0,-7.0,2.0,6.0,1.0,0.0,2.7763748168945312
481,-115.0,-72.0,275.0,0.0,8768.0,5681.0,-11154.0,-5905.0,-8.0,-7.0,-6.0,-7.0,2.0,6.0,1.0,0.0,2.789475440979004
482,-115.0,-72.0,275.0,0.0,8768.0,5681.0,-11154.0,-5905.0,2.0,6.0,7.0,6.0,10.0,-5.0,-3.0,1.0,2.796036720275879
483,-115.0,-72.0,275.0,0.0,8768.0,5681.0,-11154.0,-5905.0,-4.0,-14.0,-40.0,4.0,2.0,-5.0,-7.0,-12.0,2.80039119720459
484,-66.0,-50.0,227.0,0.0,8788.0,5636.0,-11170.0,-5888.0,-4.0,-14.0,-40.0,4.0,2.0,-5.0,-7.0,-12.0,2.810778856277466
485,-66.0,-50.0,227.0,0.0,8788.0,5636.0,-11170.0,-5888.0,-2.0,-3.0,17.0,-2.0,4.0,1.0,4.0,0.0,2.8159124851226807
486,-66.0,-50.0,227.0,0.0,8788.0,5636.0,-11170.0,-5888.0,-6.0,-6.0,-3.0,-7.0,-1.0,2.0,-3.0,1.0,2.820972204208374
487,109.0,-1.0,211.0,0.0,8801.0,5616.0,-11188.0,-5854.0,-6.0,-6.0,-3.0,-7.0,-1.0,2.0,-3.0,1.0,2.824707269668579
488,109.0,-1.0,211.0,0.0,8801.0,5616.0,-11188.0,-5854.0,2.0,2.0,-6.0,-9.0,-2.0,-2.0,3.0,1.0,2.8297431468963623
489,109.0,-1.0,211.0,0.0,8801.0,5616.0,-11188.0,-5854.0,2.0,-4.0,3.0,7.0,1.0,-3.0,4.0,4.0,2.833590269088745
490,152.0,4.0,244.0,0.0,8810.0,5602.0,-11207.0,-5817.0,2.0,-4.0,3.0,7.0,1.0,-3.0,4.0,4.0,2.8477556705474854
491,152.0,4.0,244.0,0.0,8810.0,5602.0,-11207.0,-5817.0,4.0,7.0,-8.0,-13.0,0.0,3.0,10.0,2.0,2.8528757095336914
492,152.0,4.0,244.0,0.0,8810.0,5602.0,-11207.0,-5817.0,0.0,3.0,-2.0,0.0,-2.0,-4.0,7.0,-1.0,2.858585834503174
493,30.0,-19.0,220.0,0.0,8824.0,5573.0,-11222.0,-5794.0,0.0,3.0,-2.0,0.0,-2.0,-4.0,7.0,-1.0,2.870253801345825
494,30.0,-19.0,220.0,0.0,8824.0,5573.0,-11222.0,-5794.0,0.0,4.0,5.0,0.0,-17.0,-7.0,-1.0,2.0,2.8747782707214355
495,30.0,-19.0,220.0,0.0,8824.0,5573.0,-11222.0,-5794.0,-3.0,-5.0,0.0,-8.0,2.0,-3.0,-1.0,-3.0,2.8799819946289062
496,-53.0,1.0,184.0,0.0,8844.0,5541.0,-11231.0,-5778.0,-3.0,-5.0,0.0,-8.0,2.0,-3.0,-1.0,-3.0,2.885265350341797
497,-53.0,1.0,184.0,0.0,8844.0,5541.0,-11231.0,-5778.0,0.0,3.0,-4.0,8.0,7.0,-1.0,9.0,-2.0,2.8892569541931152
498,-53.0,1.0,184.0,0.0,8844.0,5541.0,-11231.0,-5778.0,0.0,-5.0,-3.0,-3.0,-4.0,-7.0,-12.0,-1.0,2.893707513809204
499,-54.0,41.0,153.0,0.0,8863.0,5517.0,-11235.0,-5763.0,0.0,-5.0,-3.0,-3.0,-4.0,-7.0,-12.0,-1.0,2.9090259075164795
