,Gyro 0,Gyro 1,Gyro 2,Label,Orientation 0,Orientation 1,Orientation 2,Orientation 3,Sensor 0,Sensor 1,Sensor 2,Sensor 3,Sensor 4,Sensor 5,Sensor 6,Sensor 7,Timestamp
0,13.0,20.0,15.0,0.0,1756.0,-6076.0,-11141.0,-10214.0,-6.0,-9.0,-29.0,-2.0,-6.0,1.0,-2.0,-7.0,1.9073486328125e-06
1,13.0,20.0,15.0,0.0,1756.0,-6076.0,-11141.0,-10214.0,5.0,-1.0,-2.0,1.0,-5.0,-1.0,1.0,-2.0,0.0030252933502197266
2,-3.0,29.0,21.0,0.0,1760.0,-6074.0,-11141.0,-10215.0,5.0,-1.0,-2.0,1.0,-5.0,-1.0,1.0,-2.0,0.005499839782714844
3,-3.0,29.0,21.0,0.0,1760.0,-6074.0,-11141.0,-10215.0,2.0,-6.0,-1.0,1.0,-7.0,-4.0,4.0,5.0,0.008852958679199219
4,-3.0,29.0,21.0,0.0,1760.0,-6074.0,-11141.0,-10215.0,1.0,6.0,27.0,11.0,0.0,-20.0,-7.0,-7.0,0.011525869369506836
5,-10.0,22.0,13.0,0.0,1762.0,-6074.0,-11140.0,-10216.0,1.0,6.0,27.0,11.0,0.0,-20.0,-7.0,-7.0,0.014090776443481445
6,-10.0,22.0,13.0,0.0,1762.0,-6074.0,-11140.0,-10216.0,-1.0,-1.0,-1.0,-5.0,-1.0,-3.0,-9.0,-4.0,0.01678466796875
7,-10.0,22.0,13.0,0.0,1762.0,-6074.0,-11140.0,-10216.0,1.0,-3.0,-5.0,2.0,9.0,23.0,1.0,3.0,0.019350528717041016
8,-1.0,23.0,10.0,0.0,1765.0,-6072.0,-11141.0,-10216.0,1.0,-3.0,-5.0,2.0,9.0,23.0,1.0,3.0,0.022258520126342773
9,-1.0,23.0,10.0,0.0,1765.0,-6072.0,-11141.0,-10216.0,-5.0,2.0,7.0,4.0,5.0,3.0,1.0,-1.0,0.02561473846435547
10,-1.0,23.0,10.0,0.0,1765.0,-6072.0,-11141.0,-10216.0,-9.0,-4.0,6.0,-2.0,-6.0,-7.0,-1.0,1.0,0.02836894989013672
11,14.0,21.0,5.0,0.0,1767.0,-6070.0,-11143.0,-10214.0,-9.0,-4.0,6.0,-2.0,-6.0,-7.0,-1.0,1.0,0.03088521957397461
12,14.0,21.0,5.0,0.0,1767.0,-6070.0,-11143.0,-10214.0,5.0,2.0,18.0,1.0,0.0,4.0,-2.0,2.0,0.033530235290527344
13,14.0,21.0,5.0,0.0,1767.0,-6070.0,-11143.0,-10214.0,7.0,0.0,-18.0,-7.0,5.0,-1.0,2.0,-1.0,0.03578448295593262
14,29.0,22.0,6.0,0.0,1770.0,-6066.0,-11147.0,-10211.0,7.0,0.0,-18.0,-7.0,5.0,-1.0,2.0,-1.0,0.038054466247558594
15,29.0,22.0,6.0,0.0,1770.0,-6066.0,-11147.0,-10211.0,-1.0,0.0,11.0,-11.0,5.0,11.0,-14.0,-11.0,0.04046463966369629
16,29.0,22.0,6.0,0.0,1770.0,-6066.0,-11147.0,-10211.0,-5.0,-4.0,5.0,2.0,-7.0,-2.0,-5.0,-6.0,0.04280567169189453
17,40.0,26.0,6.0,0.0,1774.0,-6063.0,-11154.0,-10205.0,-5.0,-4.0,5.0,2.0,-7.0,-2.0,-5.0,-6.0,0.04506254196166992
18,40.0,26.0,6.0,0.0,1774.0,-6063.0,-11154.0,-10205.0,-5.0,-7.0,-13.0,2.0,-12.0,5.0,-16.0,-7.0,0.047454118728637695
19,40.0,26.0,6.0,0.0,1774.0,-6063.0,-11154.0,-10205.0,-1.0,-4.0,-5.0,-9.0,4.0,22.0,4.0,-2.0,0.049756765365600586
20,26.0,24.0,7.0,0.0,1778.0,-6060.0,-11158.0,-10202.0,-1.0,-4.0,-5.0,-9.0,4.0,22.0,4.0,-2.0,0.052155256271362305
21,26.0,24.0,7.0,0.0,1778.0,-6060.0,-11158.0,-10202.0,8.0,2.0,19.0,10.0,5.0,2.0,12.0,7.0,0.05520772933959961
22,26.0,24.0,7.0,0.0,1778.0,-6060.0,-11158.0,-10202.0,2.0,-9.0,-21.0,1.0,-6.0,-6.0,-4.0,1.0,0.05792427062988281
23,33.0,16.0,7.0,0.0,1780.0,-6058.0,-11163.0,-10197.0,2.0,-9.0,-21.0,1.0,-6.0,-6.0,-4.0,1.0,0.06032681465148926
24,33.0,16.0,7.0,0.0,1780.0,-6058.0,-11163.0,-10197.0,-3.0,0.0,-25.0,-11.0,2.0,-5.0,3.0,-2.0,0.06273698806762695
25,33.0,16.0,7.0,0.0,1780.0,-6058.0,-11163.0,-10197.0,-4.0,-6.0,-13.0,-6.0,2.0,-4.0,0.0,1.0,0.06502175331115723
26,24.0,18.0,21.0,0.0,1779.0,-6055.0,-11169.0,-10193.0,-4.0,-6.0,-13.0,-6.0,2.0,-4.0,0.0,1.0,0.06731390953063965
27,24.0,18.0,21.0,0.0,1779.0,-6055.0,-11169.0,-10193.0,-9.0,4.0,20.0,2.0,1.0,-25.0,5.0,6.0,0.06966519355773926
28,24.0,18.0,21.0,0.0,1779.0,-6055.0,-11169.0,-10193.0,6.0,5.0,3.0,-2.0,-10.0,6.0,-2.0,-5.0,0.07204055786132812
29,-19.0,4.0,28.0,0.0,1775.0,-6054.0,-11169.0,-10194.0,6.0,5.0,3.0,-2.0,-10.0,6.0,-2.0,-5.0,0.0743110179901123
30,-19.0,4.0,28.0,0.0,1775.0,-6054.0,-11169.0,-10194.0,2.0,9.0,9.0,1.0,13.0,14.0,-1.0,0.0,0.07665562629699707
31,-19.0,4.0,28.0,0.0,1775.0,-6054.0,-11169.0,-10194.0,-3.0,-8.0,8.0,-10.0,-4.0,-5.0,-5.0,3.0,0.07895541191101074
32,-25.0,-6.0,29.0,0.0,1771.0,-6056.0,-11166.0,-10196.0,-3.0,-8.0,8.0,-10.0,-4.0,-5.0,-5.0,3.0,0.08154177665710449
33,-25.0,-6.0,29.0,0.0,1771.0,-6056.0,-11166.0,-10196.0,2.0,3.0,11.0,-2.0,7.0,-6.0,10.0,3.0,0.08465409278869629
34,-25.0,-6.0,29.0,0.0,1771.0,-6056.0,-11166.0,-10196.0,-4.0,-4.0,-8.0,3.0,-1.0,0.0,-2.0,2.0,0.08742690086364746
35,-36.0,-8.0,14.0,0.0,1767.0,-6058.0,-11164.0,-10198.0,-4.0,-4.0,-8.0,3.0,-1.0,0.0,-2.0,2.0,0.0901329517364502
36,-36.0,-8.0,14.0,0.0,1767.0,-6058.0,-11164.0,-10198.0,-1.0,3.0,29.0,-2.0,-11.0,-13.0,-4.0,-2.0,0.09250187873840332
37,-36.0,-8.0,14.0,0.0,1767.0,-6058.0,-11164.0,-10198.0,4.0,9.0,8.0,-4.0,0.0,-2.0,-12.0,-7.0,0.09486651420593262
38,-35.0,-15.0,10.0,0.0,1759.0,-6060.0,-11164.0,-10199.0,4.0,9.0,8.0,-4.0,0.0,-2.0,-12.0,-7.0,0.09720063209533691
39,-35.0,-15.0,10.0,0.0,1759.0,-6060.0,-11164.0,-10199.0,1.0,-2.0,-17.0,-1.0,-7.0,11.0,-7.0,-2.0,0.09959864616394043
40,-35.0,-15.0,10.0,0.0,1759.0,-6060.0,-11164.0,-10199.0,-5.0,-5.0,-21.0,3.0,-9.0,-6.0,0.0,-1.0,0.10194611549377441
41,-42.0,-25.0,4.0,0.0,1750.0,-6062.0,-11162.0,-10200.0,-5.0,-5.0,-21.0,3.0,-9.0,-6.0,0.0,-1.0,0.10428643226623535
42,-42.0,-25.0,4.0,0.0,1750.0,-6062.0,-11162.0,-10200.0,4.0,6.0,-7.0,2.0,-15.0,-10.0,-1.0,-1.0,0.10668468475341797
43,-42.0,-25.0,4.0,0.0,1750.0,-6062.0,-11162.0,-10200.0,-3.0,-2.0,-11.0,-16.0,8.0,1.0,-2.0,0.0,0.10900521278381348
44,-35.0,-29.0,-3.0,0.0,1741.0,-6065.0,-11162.0,-10200.0,-3.0,-2.0,-11.0,-16.0,8.0,1.0,-2.0,0.0,0.11179804801940918
45,-35.0,-29.0,-3.0,0.0,1741.0,-6065.0,-11162.0,-10200.0,-2.0,-6.0,-18.0,2.0,4.0,10.0,4.0,0.0,0.11429524421691895
46,-35.0,-29.0,-3.0,0.0,1741.0,-6065.0,-11162.0,-10200.0,2.0,4.0,-12.0,6.0,0.0,-2.0,6.0,7.0,0.11713123321533203
47,-26.0,-30.0,-4.0,0.0,1731.0,-6066.0,-11163.0,-10200.0,2.0,4.0,-12.0,6.0,0.0,-2.0,6.0,7.0,0.11978435516357422
48,-26.0,-30.0,-4.0,0.0,1731.0,-6066.0,-11163.0,-10200.0,-2.0,-2.0,-36.0,-4.0,1.0,2.0,3.0,-4.0,0.12228846549987793
49,-26.0,-30.0,-4.0,0.0,1731.0,-6066.0,-11163.0,-10200.0,3.0,2.0,12.0,7.0,7.0,-2.0,6.0,1.0,0.12463593482971191
50,-52.0,-23.0,-8.0,0.0,1722.0,-6068.0,-11161.0,-10204.0,3.0,2.0,12.0,7.0,7.0,-2.0,6.0,1.0,0.1269841194152832
51,-52.0,-23.0,-8.0,0.0,1722.0,-6068.0,-11161.0,-10204.0,2.0,1.0,11.0,2.0,-3.0,6.0,9.0,5.0,0.12941336631774902
52,-52.0,-23.0,-8.0,0.0,1722.0,-6068.0,-11161.0,-10204.0,-5.0,-4.0,-4.0,-5.0,-4.0,-8.0,2.0,2.0,0.1317298412322998
53,-60.0,-17.0,2.0,0.0,1715.0,-6071.0,-11155.0,-10209.0,-5.0,-4.0,-4.0,-5.0,-4.0,-8.0,2.0,2.0,0.13405990600585938
54,-60.0,-17.0,2.0,0.0,1715.0,-6071.0,-11155.0,-10209.0,6.0,-1.0,2.0,3.0,8.0,-1.0,1.0,2.0,0.13641571998596191
55,-60.0,-17.0,2.0,0.0,1715.0,-6071.0,-11155.0,-10209.0,-3.0,-1.0,10.0,4.0,0.0,6.0,4.0,1.0,0.13870644569396973
56,-44.0,-16.0,3.0,0.0,1710.0,-6074.0,-11151.0,-10213.0,-3.0,-1.0,10.0,4.0,0.0,6.0,4.0,1.0,0.1410224437713623
57,-44.0,-16.0,3.0,0.0,1710.0,-6074.0,-11151.0,-10213.0,-12.0,-14.0,-14.0,2.0,3.0,-12.0,-13.0,-5.0,0.14339327812194824
58,-44.0,-16.0,3.0,0.0,1710.0,-6074.0,-11151.0,-10213.0,4.0,14.0,13.0,-1.0,-3.0,-1.0,-5.0,-1.0,0.14567852020263672
59,-55.0,-16.0,3.0,0.0,1704.0,-6077.0,-11146.0,-10217.0,4.0,14.0,13.0,-1.0,-3.0,-1.0,-5.0,-1.0,0.14841437339782715
60,-55.0,-16.0,3.0,0.0,1704.0,-6077.0,-11146.0,-10217.0,11.0,-2.0,2.0,0.0,-1.0,-3.0,0.0,3.0,0.15112996101379395
61,-55.0,-16.0,3.0,0.0,1704.0,-6077.0,-11146.0,-10217.0,-1.0,0.0,7.0,3.0,-4.0,-8.0,-6.0,-6.0,0.15350985527038574
62,-56.0,-23.0,6.0,0.0,1701.0,-6083.0,-11139.0,-10222.0,-1.0,0.0,7.0,3.0,-4.0,-8.0,-6.0,-6.0,0.15584015846252441
63,-56.0,-23.0,6.0,0.0,1701.0,-6083.0,-11139.0,-10222.0,-4.0,-5.0,-12.0,-13.0,1.0,10.0,4.0,5.0,0.15821337699890137
64,-56.0,-23.0,6.0,0.0,1701.0,-6083.0,-11139.0,-10222.0,-10.0,-8.0,1.0,-1.0,-15.0,-4.0,0.0,1.0,0.16050267219543457
65,-24.0,-18.0,9.0,0.0,1699.0,-6088.0,-11137.0,-10222.0,-10.0,-8.0,1.0,-1.0,-15.0,-4.0,0.0,1.0,0.1628422737121582
66,-24.0,-18.0,9.0,0.0,1699.0,-6088.0,-11137.0,-10222.0,-10.0,3.0,6.0,1.0,-7.0,-13.0,-2.0,-5.0,0.1652376651763916
67,-24.0,-18.0,9.0,0.0,1699.0,-6088.0,-11137.0,-10222.0,0.0,4.0,19.0,-5.0,0.0,23.0,-4.0,-1.0,0.16764307022094727
68,-2.0,-22.0,11.0,0.0,1695.0,-6091.0,-11138.0,-10219.0,0.0,4.0,19.0,-5.0,0.0,23.0,-4.0,-1.0,0.16996288299560547
69,-2.0,-22.0,11.0,0.0,1695.0,-6091.0,-11138.0,-10219.0,-5.0,-3.0,-7.0,-1.0,-23.0,1.0,2.0,0.0,0.17232179641723633
70,-2.0,-22.0,11.0,0.0,1695.0,-6091.0,-11138.0,-10219.0,0.0,-1.0,-1.0,7.0,1.0,-3.0,2.0,1.0,0.17460894584655762
71,-21.0,-18.0,23.0,0.0,1691.0,-6096.0,-11138.0,-10218.0,0.0,-1.0,-1.0,7.0,1.0,-3.0,2.0,1.0,0.17689204216003418
72,-21.0,-18.0,23.0,0.0,1691.0,-6096.0,-11138.0,-10218.0,-9.0,-5.0,-24.0,-7.0,10.0,5.0,13.0,6.0,0.17972087860107422
73,-21.0,-18.0,23.0,0.0,1691.0,-6096.0,-11138.0,-10218.0,3.0,3.0,-4.0,3.0,-2.0,-24.0,-4.0,-5.0,0.18238282203674316
74,-55.0,-11.0,30.0,0.0,1688.0,-6102.0,-11132.0,-10221.0,3.0,3.0,-4.0,3.0,-2.0,-24.0,-4.0,-5.0,0.18475890159606934
75,-55.0,-11.0,30.0,0.0,1688.0,-6102.0,-11132.0,-10221.0,-11.0,-6.0,6.0,1.0,-12.0,-11.0,-6.0,-5.0,0.18718171119689941
76,-55.0,-11.0,30.0,0.0,1688.0,-6102.0,-11132.0,-10221.0,-2.0,1.0,7.0,-3.0,12.0,3.0,3.0,2.0,0.18947720527648926
77,-39.0,-11.0,18.0,0.0,1688.0,-6107.0,-11127.0,-10223.0,-2.0,1.0,7.0,-3.0,12.0,3.0,3.0,2.0,0.19180035591125488
78,-39.0,-11.0,18.0,0.0,1688.0,-6107.0,-11127.0,-10223.0,-2.0,-1.0,3.0,-3.0,-4.0,4.0,2.0,1.0,0.194199800491333
79,-39.0,-11.0,18.0,0.0,1688.0,-6107.0,-11127.0,-10223.0,-1.0,-2.0,-1.0,-2.0,6.0,5.0,3.0,-2.0,0.1965188980102539
80,12.0,-11.0,11.0,0.0,1688.0,-6107.0,-11127.0,-10223.0,-1.0,-2.0,-1.0,-2.0,6.0,5.0,3.0,-2.0,0.19884395599365234
81,12.0,-11.0,11.0,0.0,1688.0,-6107.0,-11127.0,-10223.0,4.0,4.0,24.0,-4.0,11.0,28.0,1.0,3.0,0.2012324333190918
82,12.0,-11.0,11.0,0.0,1688.0,-6107.0,-11127.0,-10223.0,0.0,-3.0,7.0,5.0,12.0,0.0,-1.0,-3.0,0.20352745056152344
83,14.0,-1.0,14.0,0.0,1686.0,-6107.0,-11128.0,-10223.0,0.0,-3.0,7.0,5.0,12.0,0.0,-1.0,-3.0,0.2058248519897461
84,14.0,-1.0,14.0,0.0,1686.0,-6107.0,-11128.0,-10223.0,3.0,1.0,-4.0,4.0,11.0,0.0,-3.0,1.0,0.20844817161560059
85,14.0,-1.0,14.0,0.0,1686.0,-6107.0,-11128.0,-10223.0,0.0,7.0,11.0,0.0,-2.0,0.0,-2.0,-2.0,0.21118521690368652
86,-58.0,1.0,19.0,0.0,1681.0,-6107.0,-11122.0,-10229.0,0.0,7.0,11.0,0.0,-2.0,0.0,-2.0,-2.0,0.21384239196777344
87,-58.0,1.0,19.0,0.0,1681.0,-6107.0,-11122.0,-10229.0,11.0,0.0,5.0,4.0,3.0,-13.0,-22.0,-16.0,0.21633625030517578
88,-58.0,1.0,19.0,0.0,1681.0,-6107.0,-11122.0,-10229.0,-5.0,-20.0,-42.0,0.0,-2.0,3.0,1.0,2.0,0.21868205070495605
89,-52.0,1.0,33.0,0.0,1680.0,-6112.0,-11115.0,-10234.0,-5.0,-20.0,-42.0,0.0,-2.0,3.0,1.0,2.0,0.2209761142730713
90,-52.0,1.0,33.0,0.0,1680.0,-6112.0,-11115.0,-10234.0,-6.0,0.0,2.0,-2.0,-5.0,-2.0,4.0,2.0,0.2234034538269043
91,-52.0,1.0,33.0,0.0,1680.0,-6112.0,-11115.0,-10234.0,2.0,-6.0,-2.0,-3.0,-8.0,-1.0,2.0,2.0,0.22573161125183105
92,-28.0,-2.0,23.0,0.0,1679.0,-6115.0,-11113.0,-10235.0,2.0,-6.0,-2.0,-3.0,-8.0,-1.0,2.0,2.0,0.22802519798278809
93,-28.0,-2.0,23.0,0.0,1679.0,-6115.0,-11113.0,-10235.0,-3.0,-4.0,-31.0,-3.0,-2.0,-6.0,3.0,-1.0,0.2306990623474121
94,-28.0,-2.0,23.0,0.0,1679.0,-6115.0,-11113.0,-10235.0,-5.0,-4.0,-12.0,-4.0,-17.0,-4.0,7.0,3.0,0.233048677444458
95,-24.0,2.0,16.0,0.0,1679.0,-6118.0,-11111.0,-10236.0,-5.0,-4.0,-12.0,-4.0,-17.0,-4.0,7.0,3.0,0.2353382110595703
96,-24.0,2.0,16.0,0.0,1679.0,-6118.0,-11111.0,-10236.0,1.0,2.0,10.0,-3.0,-12.0,-4.0,-6.0,-6.0,0.2377147674560547
97,-24.0,2.0,16.0,0.0,1679.0,-6118.0,-11111.0,-10236.0,-2.0,-9.0,-7.0,8.0,2.0,-7.0,-4.0,-1.0,0.24002456665039062
98,-20.0,4.0,15.0,0.0,1678.0,-6118.0,-11109.0,-10238.0,-2.0,-9.0,-7.0,8.0,2.0,-7.0,-4.0,-1.0,0.24276423454284668
99,-20.0,4.0,15.0,0.0,1678.0,-6118.0,-11109.0,-10238.0,3.0,-12.0,-16.0,-2.0,6.0,-6.0,1.0,0.0,0.24562788009643555
100,-20.0,4.0,15.0,0.0,1678.0,-6118.0,-11109.0,-10238.0,4.0,1.0,23.0,-2.0,-3.0,6.0,2.0,1.0,0.24802637100219727
101,-12.0,11.0,13.0,0.0,1677.0,-6118.0,-11109.0,-10237.0,4.0,1.0,23.0,-2.0,-3.0,6.0,2.0,1.0,0.25037050247192383
102,-12.0,11.0,13.0,0.0,1677.0,-6118.0,-11109.0,-10237.0,3.0,-2.0,-14.0,2.0,-1.0,-7.0,2.0,-4.0,0.2527315616607666
103,-12.0,11.0,13.0,0.0,1677.0,-6118.0,-11109.0,-10237.0,-2.0,2.0,0.0,5.0,14.0,6.0,-2.0,-6.0,0.2550780773162842
104,-6.0,11.0,16.0,0.0,1677.0,-6119.0,-11110.0,-10236.0,-2.0,2.0,0.0,5.0,14.0,6.0,-2.0,-6.0,0.2573831081390381
105,-6.0,11.0,16.0,0.0,1677.0,-6119.0,-11110.0,-10236.0,1.0,1.0,15.0,2.0,10.0,4.0,-3.0,0.0,0.2597615718841553
106,-6.0,11.0,16.0,0.0,1677.0,-6119.0,-11110.0,-10236.0,7.0,4.0,-10.0,-2.0,2.0,5.0,3.0,3.0,0.2620980739593506
107,-9.0,8.0,14.0,0.0,1677.0,-6119.0,-11111.0,-10235.0,7.0,4.0,-10.0,-2.0,2.0,5.0,3.0,3.0,0.26439785957336426
108,-9.0,8.0,14.0,0.0,1677.0,-6119.0,-11111.0,-10235.0,-2.0,2.0,2.0,5.0,-5.0,-6.0,-9.0,0.0,0.266873836517334
109,-9.0,8.0,14.0,0.0,1677.0,-6119.0,-11111.0,-10235.0,-2.0,-4.0,-11.0,0.0,0.0,-4.0,-10.0,-5.0,0.2692599296569824
110,-14.0,6.0,8.0,0.0,1676.0,-6118.0,-11112.0,-10235.0,-2.0,-4.0,-11.0,0.0,0.0,-4.0,-10.0,-5.0,0.2716100215911865
111,-14.0,6.0,8.0,0.0,1676.0,-6118.0,-11112.0,-10235.0,3.0,1.0,9.0,9.0,-4.0,-2.0,3.0,2.0,0.2744603157043457
112,-14.0,6.0,8.0,0.0,1676.0,-6118.0,-11112.0,-10235.0,-1.0,2.0,-17.0,1.0,-5.0,-7.0,-3.0,2.0,0.2770841121673584
113,-26.0,15.0,17.0,0.0,1677.0,-6119.0,-11109.0,-10237.0,-1.0,2.0,-17.0,1.0,-5.0,-7.0,-3.0,2.0,0.2795600891113281
114,-26.0,15.0,17.0,0.0,1677.0,-6119.0,-11109.0,-10237.0,0.0,2.0,10.0,3.0,-5.0,11.0,12.0,9.0,0.28199028968811035
115,-26.0,15.0,17.0,0.0,1677.0,-6119.0,-11109.0,-10237.0,-3.0,-2.0,9.0,-6.0,9.0,9.0,-3.0,-2.0,0.2842838764190674
116,-21.0,16.0,18.0,0.0,1677.0,-6118.0,-11107.0,-10240.0,-3.0,-2.0,9.0,-6.0,9.0,9.0,-3.0,-2.0,0.2866933345794678
117,-21.0,16.0,18.0,0.0,1677.0,-6118.0,-11107.0,-10240.0,0.0,-3.0,8.0,-5.0,-8.0,10.0,1.0,1.0,0.28905224800109863
118,-21.0,16.0,18.0,0.0,1677.0,-6118.0,-11107.0,-10240.0,4.0,7.0,-3.0,-4.0,2.0,-5.0,-3.0,-1.0,0.2913663387298584
119,-14.0,20.0,12.0,0.0,1678.0,-6117.0,-11106.0,-10241.0,4.0,7.0,-3.0,-4.0,2.0,-5.0,-3.0,-1.0,0.2937326431274414
120,-14.0,20.0,12.0,0.0,1678.0,-6117.0,-11106.0,-10241.0,9.0,9.0,-19.0,-6.0,-10.0,-4.0,0.0,-2.0,0.29610705375671387
121,-14.0,20.0,12.0,0.0,1678.0,-6117.0,-11106.0,-10241.0,2.0,4.0,-1.0,-9.0,0.0,-4.0,-5.0,-3.0,0.29840850830078125
122,-29.0,17.0,15.0,0.0,1678.0,-6118.0,-11103.0,-10244.0,2.0,4.0,-1.0,-9.0,0.0,-4.0,-5.0,-3.0,0.3007078170776367
123,-29.0,17.0,15.0,0.0,1678.0,-6118.0,-11103.0,-10244.0,-11.0,-7.0,-2.0,-4.0,2.0,-8.0,-3.0,1.0,0.3030734062194824
124,-29.0,17.0,15.0,0.0,1678.0,-6118.0,-11103.0,-10244.0,-7.0,-4.0,7.0,-2.0,-6.0,-2.0,3.0,1.0,0.3057868480682373
125,-34.0,15.0,22.0,0.0,1681.0,-6121.0,-11100.0,-10246.0,-7.0,-4.0,7.0,-2.0,-6.0,-2.0,3.0,1.0,0.30846476554870605
126,-34.0,15.0,22.0,0.0,1681.0,-6121.0,-11100.0,-10246.0,-4.0,-2.0,-3.0,-6.0,-7.0,-5.0,-6.0,-4.0,0.31092333793640137
127,-34.0,15.0,22.0,0.0,1681.0,-6121.0,-11100.0,-10246.0,2.0,25.0,39.0,-2.0,-11.0,-29.0,-5.0,3.0,0.31322526931762695
128,-17.0,15.0,24.0,0.0,1683.0,-6122.0,-11097.0,-10247.0,2.0,25.0,39.0,-2.0,-11.0,-29.0,-5.0,3.0,0.31554412841796875
129,-17.0,15.0,24.0,0.0,1683.0,-6122.0,-11097.0,-10247.0,-6.0,-10.0,-4.0,6.0,10.0,5.0,-2.0,0.0,0.31792378425598145
130,-17.0,15.0,24.0,0.0,1683.0,-6122.0,-11097.0,-10247.0,2.0,-4.0,-23.0,3.0,-1.0,7.0,2.0,-3.0,0.320206880569458
131,-9.0,17.0,14.0,0.0,1685.0,-6122.0,-11097.0,-10247.0,2.0,-4.0,-23.0,3.0,-1.0,7.0,2.0,-3.0,0.3225102424621582
132,-9.0,17.0,14.0,0.0,1685.0,-6122.0,-11097.0,-10247.0,4.0,4.0,3.0,4.0,6.0,-2.0,-2.0,-1.0,0.3249080181121826
133,-9.0,17.0,14.0,0.0,1685.0,-6122.0,-11097.0,-10247.0,0.0,-8.0,7.0,4.0,4.0,1.0,-6.0,-3.0,0.3272533416748047
134,8.0,12.0,7.0,0.0,1684.0,-6122.0,-11098.0,-10246.0,0.0,-8.0,7.0,4.0,4.0,1.0,-6.0,-3.0,0.32955503463745117
135,8.0,12.0,7.0,0.0,1684.0,-6122.0,-11098.0,-10246.0,11.0,7.0,3.0,-1.0,5.0,6.0,5.0,-1.0,0.3319671154022217
136,8.0,12.0,7.0,0.0,1684.0,-6122.0,-11098.0,-10246.0,-3.0,-13.0,-17.0,5.0,-5.0,11.0,5.0,0.0,0.33426713943481445
137,3.0,9.0,20.0,0.0,1685.0,-6123.0,-11099.0,-10244.0,-3.0,-13.0,-17.0,5.0,-5.0,11.0,5.0,0.0,0.33695006370544434
138,3.0,9.0,20.0,0.0,1685.0,-6123.0,-11099.0,-10244.0,-2.0,3.0,14.0,-1.0,-3.0,-2.0,2.0,-1.0,0.3397409915924072
139,3.0,9.0,20.0,0.0,1685.0,-6123.0,-11099.0,-10244.0,-9.0,-7.0,-2.0,0.0,2.0,-8.0,-5.0,-3.0,0.34219837188720703
140,-18.0,8.0,20.0,0.0,1686.0,-6125.0,-11098.0,-10244.0,-9.0,-7.0,-2.0,0.0,2.0,-8.0,-5.0,-3.0,0.34449148178100586
141,-18.0,8.0,20.0,0.0,1686.0,-6125.0,-11098.0,-10244.0,-5.0,-3.0,4.0,-8.0,-7.0,-6.0,1.0,4.0,0.3468954563140869
142,-18.0,8.0,20.0,0.0,1686.0,-6125.0,-11098.0,-10244.0,-3.0,2.0,10.0,-3.0,-13.0,-9.0,10.0,0.0,0.34919261932373047
143,-10.0,4.0,23.0,0.0,1688.0,-6128.0,-11096.0,-10244.0,-3.0,2.0,10.0,-3.0,-13.0,-9.0,10.0,0.0,0.35147905349731445
144,-10.0,4.0,23.0,0.0,1688.0,-6128.0,-11096.0,-10244.0,3.0,6.0,18.0,-1.0,13.0,2.0,2.0,-2.0,0.3540620803833008
145,-10.0,4.0,23.0,0.0,1688.0,-6128.0,-11096.0,-10244.0,-2.0,-6.0,5.0,2.0,-5.0,11.0,2.0,1.0,0.3563528060913086
146,11.0,1.0,14.0,0.0,1688.0,-6128.0,-11096.0,-10243.0,-2.0,-6.0,5.0,2.0,-5.0,11.0,2.0,1.0,0.3586394786834717
147,11.0,1.0,14.0,0.0,1688.0,-6128.0,-11096.0,-10243.0,1.0,-1.0,-7.0,2.0,-1.0,-1.0,-3.0,0.0,0.3609943389892578
148,11.0,1.0,14.0,0.0,1688.0,-6128.0,-11096.0,-10243.0,-3.0,-2.0,1.0,0.0,-2.0,-8.0,-6.0,-3.0,0.36338019371032715
149,23.0,-1.0,26.0,0.0,1690.0,-6131.0,-11101.0,-10237.0,-3.0,-2.0,1.0,0.0,-2.0,-8.0,-6.0,-3.0,0.36566853523254395
150,23.0,-1.0,26.0,0.0,1690.0,-6131.0,-11101.0,-10237.0,-5.0,-6.0,10.0,-9.0,8.0,12.0,1.0,-1.0,0.3684229850769043
151,23.0,-1.0,26.0,0.0,1690.0,-6131.0,-11101.0,-10237.0,3.0,9.0,39.0,-3.0,-3.0,4.0,-2.0,-1.0,0.3711066246032715
152,19.0,5.0,25.0,0.0,1692.0,-6132.0,-11103.0,-10233.0,3.0,9.0,39.0,-3.0,-3.0,4.0,-2.0,-1.0,0.373518705368042
153,19.0,5.0,25.0,0.0,1692.0,-6132.0,-11103.0,-10233.0,8.0,2.0,13.0,3.0,5.0,-11.0,4.0,0.0,0.37627625465393066
154,19.0,5.0,25.0,0.0,1692.0,-6132.0,-11103.0,-10233.0,3.0,6.0,-24.0,-7.0,7.0,0.0,-11.0,-4.0,0.37861132621765137
155,31.0,13.0,21.0,0.0,1697.0,-6133.0,-11107.0,-10227.0,3.0,6.0,-24.0,-7.0,7.0,0.0,-11.0,-4.0,0.38089609146118164
156,31.0,13.0,21.0,0.0,1697.0,-6133.0,-11107.0,-10227.0,-3.0,8.0,-16.0,-1.0,-4.0,-6.0,-14.0,-7.0,0.383267879486084
157,31.0,13.0,21.0,0.0,1697.0,-6133.0,-11107.0,-10227.0,1.0,-6.0,2.0,5.0,5.0,-1.0,1.0,5.0,0.3855876922607422
158,40.0,4.0,19.0,0.0,1703.0,-6135.0,-11111.0,-10221.0,1.0,-6.0,2.0,5.0,5.0,-1.0,1.0,5.0,0.38788890838623047
159,40.0,4.0,19.0,0.0,1703.0,-6135.0,-11111.0,-10221.0,-1.0,-2.0,-5.0,0.0,-4.0,-14.0,2.0,1.0,0.3902604579925537
160,40.0,4.0,19.0,0.0,1703.0,-6135.0,-11111.0,-10221.0,0.0,1.0,-25.0,0.0,4.0,-7.0,-3.0,-1.0,0.39258575439453125
161,41.0,8.0,19.0,0.0,1708.0,-6136.0,-11115.0,-10215.0,0.0,1.0,-25.0,0.0,4.0,-7.0,-3.0,-1.0,0.3950352668762207
162,41.0,8.0,19.0,0.0,1708.0,-6136.0,-11115.0,-10215.0,-2.0,-4.0,-5.0,-4.0,-2.0,2.0,0.0,0.0,0.39748644828796387
163,41.0,8.0,19.0,0.0,1708.0,-6136.0,-11115.0,-10215.0,0.0,2.0,3.0,-1.0,1.0,-2.0,8.0,4.0,0.4002068042755127
164,41.0,3.0,19.0,0.0,1712.0,-6137.0,-11120.0,-10208.0,0.0,2.0,3.0,-1.0,1.0,-2.0,8.0,4.0,0.40284013748168945
165,41.0,3.0,19.0,0.0,1712.0,-6137.0,-11120.0,-10208.0,-3.0,-2.0,-1.0,6.0,4.0,-6.0,-20.0,-6.0,0.40544581413269043
166,41.0,3.0,19.0,0.0,1712.0,-6137.0,-11120.0,-10208.0,-3.0,-8.0,-13.0,-7.0,3.0,14.0,5.0,-4.0,0.4078104496002197
167,38.0,4.0,31.0,0.0,1715.0,-6138.0,-11125.0,-10202.0,-3.0,-8.0,-13.0,-7.0,3.0,14.0,5.0,-4.0,0.41011476516723633
168,38.0,4.0,31.0,0.0,1715.0,-6138.0,-11125.0,-10202.0,0.0,1.0,-26.0,-2.0,-4.0,3.0,9.0,2.0,0.4125697612762451
169,38.0,4.0,31.0,0.0,1715.0,-6138.0,-11125.0,-10202.0,4.0,5.0,4.0,-2.0,-17.0,-19.0,8.0,11.0,0.4149646759033203
170,18.0,0.0,31.0,0.0,1718.0,-6140.0,-11126.0,-10199.0,4.0,5.0,4.0,-2.0,-17.0,-19.0,8.0,11.0,0.4173417091369629
171,18.0,0.0,31.0,0.0,1718.0,-6140.0,-11126.0,-10199.0,-8.0,-7.0,1.0,1.0,5.0,-10.0,-11.0,-8.0,0.41979074478149414
172,18.0,0.0,31.0,0.0,1718.0,-6140.0,-11126.0,-10199.0,-1.0,-2.0,-2.0,4.0,5.0,3.0,8.0,0.0,0.4220902919769287
173,33.0,1.0,26.0,0.0,1723.0,-6143.0,-11129.0,-10193.0,-1.0,-2.0,-2.0,4.0,5.0,3.0,8.0,0.0,0.4244387149810791
174,33.0,1.0,26.0,0.0,1723.0,-6143.0,-11129.0,-10193.0,1.0,-1.0,12.0,-6.0,-3.0,13.0,10.0,7.0,0.4268074035644531
175,33.0,1.0,26.0,0.0,1723.0,-6143.0,-11129.0,-10193.0,1.0,1.0,10.0,3.0,1.0,0.0,-1.0,-3.0,0.4290964603424072
176,58.0,7.0,25.0,0.0,1728.0,-6142.0,-11135.0,-10187.0,1.0,1.0,10.0,3.0,1.0,0.0,-1.0,-3.0,0.4318673610687256
177,58.0,7.0,25.0,0.0,1728.0,-6142.0,-11135.0,-10187.0,3.0,11.0,12.0,0.0,0.0,1.0,0.0,-3.0,0.4345674514770508
178,58.0,7.0,25.0,0.0,1728.0,-6142.0,-11135.0,-10187.0,0.0,1.0,25.0,-15.0,-11.0,0.0,6.0,2.0,0.4369499683380127
179,-26.0,8.0,48.0,0.0,1758.0,-6165.0,-11140.0,-10161.0,0.0,1.0,25.0,-15.0,-11.0,0.0,6.0,2.0,0.43932652473449707
180,-26.0,8.0,48.0,0.0,1758.0,-6165.0,-11140.0,-10161.0,12.0,7.0,-13.0,3.0,1.0,-2.0,-18.0,-13.0,0.44173693656921387
181,-26.0,8.0,48.0,0.0,1758.0,-6165.0,-11140.0,-10161.0,-1.0,-6.0,-5.0,-2.0,4.0,9.0,1.0,-3.0,0.44402360916137695
182,-28.0,2.0,38.0,0.0,1760.0,-6170.0,-11136.0,-10163.0,-1.0,-6.0,-5.0,-2.0,4.0,9.0,1.0,-3.0,0.4464457035064697
183,-28.0,2.0,38.0,0.0,1760.0,-6170.0,-11136.0,-10163.0,-6.0,13.0,27.0,-14.0,-27.0,3.0,5.0,-2.0,0.448838472366333
184,-28.0,2.0,38.0,0.0,1760.0,-6170.0,-11136.0,-10163.0,-2.0,-4.0,-9.0,2.0,6.0,17.0,1.0,-1.0,0.4511418342590332
185,-2.0,-5.0,21.0,0.0,1763.0,-6175.0,-11135.0,-10161.0,-2.0,-4.0,-9.0,2.0,6.0,17.0,1.0,-1.0,0.45757412910461426
186,-2.0,-5.0,21.0,0.0,1763.0,-6175.0,-11135.0,-10161.0,-4.0,-4.0,-1.0,-3.0,7.0,5.0,3.0,4.0,0.45995187759399414
187,-2.0,-5.0,21.0,0.0,1763.0,-6175.0,-11135.0,-10161.0,-4.0,-3.0,1.0,0.0,4.0,-6.0,-1.0,-5.0,0.4645857810974121
188,3.0,-9.0,9.0,0.0,1762.0,-6175.0,-11136.0,-10160.0,-4.0,-3.0,1.0,0.0,4.0,-6.0,-1.0,-5.0,0.4717442989349365
189,3.0,-9.0,9.0,0.0,1762.0,-6175.0,-11136.0,-10160.0,-2.0,-1.0,-7.0,4.0,3.0,1.0,-3.0,-3.0,0.4796609878540039
190,3.0,-9.0,9.0,0.0,1762.0,-6175.0,-11136.0,-10160.0,-2.0,-5.0,-9.0,2.0,-3.0,-9.0,0.0,2.0,0.48740434646606445
191,14.0,-12.0,8.0,0.0,1760.0,-6174.0,-11137.0,-10160.0,-2.0,-5.0,-9.0,2.0,-3.0,-9.0,0.0,2.0,0.49599766731262207
192,14.0,-12.0,8.0,0.0,1760.0,-6174.0,-11137.0,-10160.0,-4.0,-7.0,-21.0,0.0,1.0,1.0,2.0,-2.0,0.5018913745880127
193,14.0,-12.0,8.0,0.0,1760.0,-6174.0,-11137.0,-10160.0,2.0,1.0,5.0,-6.0,-1.0,-5.0,3.0,0.0,0.5093739032745361
194,-32.0,-11.0,14.0,0.0,1754.0,-6175.0,-11136.0,-10161.0,2.0,1.0,5.0,-6.0,-1.0,-5.0,3.0,0.0,0.5175809860229492
195,-32.0,-11.0,14.0,0.0,1754.0,-6175.0,-11136.0,-10161.0,-10.0,-8.0,-3.0,5.0,5.0,-1.0,-24.0,-20.0,0.5199320316314697
196,-32.0,-11.0,14.0,0.0,1754.0,-6175.0,-11136.0,-10161.0,6.0,7.0,9.0,0.0,-2.0,-6.0,-2.0,-1.0,0.5255417823791504
197,-44.0,-11.0,10.0,0.0,1750.0,-6180.0,-11132.0,-10163.0,6.0,7.0,9.0,0.0,-2.0,-6.0,-2.0,-1.0,0.5329673290252686
198,-44.0,-11.0,10.0,0.0,1750.0,-6180.0,-11132.0,-10163.0,-9.0,-1.0,12.0,-5.0,7.0,-12.0,2.0,4.0,0.539271354675293
199,-44.0,-11.0,10.0,0.0,1750.0,-6180.0,-11132.0,-10163.0,-2.0,-2.0,-12.0,-3.0,-20.0,-8.0,-3.0,1.0,0.5468931198120117
200,-18.0,-11.0,7.0,0.0,1750.0,-6184.0,-11130.0,-10163.0,-2.0,-2.0,-12.0,-3.0,-20.0,-8.0,-3.0,1.0,0.5546174049377441
201,-18.0,-11.0,7.0,0.0,1750.0,-6184.0,-11130.0,-10163.0,0.0,-1.0,-10.0,1.0,-4.0,-2.0,6.0,5.0,0.5626916885375977
202,-18.0,-11.0,7.0,0.0,1750.0,-6184.0,-11130.0,-10163.0,1.0,0.0,11.0,1.0,13.0,6.0,4.0,2.0,0.5697033405303955
203,21.0,-11.0,-2.0,0.0,1751.0,-6185.0,-11133.0,-10159.0,1.0,0.0,11.0,1.0,13.0,6.0,4.0,2.0,0.5777902603149414
204,21.0,-11.0,-2.0,0.0,1751.0,-6185.0,-11133.0,-10159.0,1.0,1.0,-11.0,3.0,-7.0,-17.0,-3.0,-6.0,0.5802412033081055
205,21.0,-11.0,-2.0,0.0,1751.0,-6185.0,-11133.0,-10159.0,3.0,4.0,-9.0,5.0,7.0,-1.0,-7.0,-1.0,0.5936405658721924
206,26.0,-5.0,4.0,0.0,1749.0,-6184.0,-11139.0,-10153.0,3.0,4.0,-9.0,5.0,7.0,-1.0,-7.0,-1.0,0.5964350700378418
207,26.0,-5.0,4.0,0.0,1749.0,-6184.0,-11139.0,-10153.0,2.0,3.0,-13.0,2.0,4.0,5.0,-13.0,-3.0,0.5988547801971436
208,26.0,-5.0,4.0,0.0,1749.0,-6184.0,-11139.0,-10153.0,-2.0,2.0,-3.0,-11.0,-1.0,8.0,2.0,0.0,0.6068909168243408
209,-22.0,-3.0,13.0,0.0,1744.0,-6184.0,-11139.0,-10154.0,-2.0,2.0,-3.0,-11.0,-1.0,8.0,2.0,0.0,0.6143698692321777
210,-22.0,-3.0,13.0,0.0,1744.0,-6184.0,-11139.0,-10154.0,6.0,2.0,15.0,-3.0,-2.0,7.0,16.0,8.0,0.621833324432373
211,-22.0,-3.0,13.0,0.0,1744.0,-6184.0,-11139.0,-10154.0,-2.0,5.0,14.0,-1.0,7.0,9.0,-2.0,2.0,0.628842830657959
212,-44.0,-3.0,21.0,0.0,1742.0,-6188.0,-11134.0,-10157.0,-2.0,5.0,14.0,-1.0,7.0,9.0,-2.0,2.0,0.637291431427002
213,-44.0,-3.0,21.0,0.0,1742.0,-6188.0,-11134.0,-10157.0,-6.0,0.0,25.0,-4.0,-5.0,6.0,2.0,-2.0,0.6396629810333252
214,-44.0,-3.0,21.0,0.0,1742.0,-6188.0,-11134.0,-10157.0,6.0,0.0,-11.0,-4.0,-11.0,-4.0,3.0,0.0,0.6523566246032715
215,-19.0,5.0,21.0,0.0,1745.0,-6191.0,-11130.0,-10159.0,6.0,0.0,-11.0,-4.0,-11.0,-4.0,3.0,0.0,0.6551086902618408
216,-19.0,5.0,21.0,0.0,1745.0,-6191.0,-11130.0,-10159.0,-1.0,-7.0,1.0,3.0,-3.0,-4.0,4.0,4.0,0.6596920490264893
217,-19.0,5.0,21.0,0.0,1745.0,-6191.0,-11130.0,-10159.0,-1.0,2.0,11.0,-1.0,1.0,-1.0,-1.0,-2.0,0.6666443347930908
218,6.0,6.0,15.0,0.0,1745.0,-6191.0,-11130.0,-10159.0,-1.0,2.0,11.0,-1.0,1.0,-1.0,-1.0,-2.0,0.6740410327911377
219,6.0,6.0,15.0,0.0,1745.0,-6191.0,-11130.0,-10159.0,-4.0,-6.0,3.0,-4.0,-14.0,-8.0,-11.0,-7.0,0.681884765625
220,6.0,6.0,15.0,0.0,1745.0,-6191.0,-11130.0,-10159.0,-4.0,-5.0,-5.0,-2.0,8.0,2.0,4.0,1.0,0.6899662017822266
221,7.0,8.0,23.0,0.0,1747.0,-6192.0,-11131.0,-10157.0,-4.0,-5.0,-5.0,-2.0,8.0,2.0,4.0,1.0,0.6978299617767334
222,7.0,8.0,23.0,0.0,1747.0,-6192.0,-11131.0,-10157.0,-1.0,-1.0,-18.0,-4.0,9.0,2.0,1.0,1.0,0.7002029418945312
223,7.0,8.0,23.0,0.0,1747.0,-6192.0,-11131.0,-10157.0,-3.0,-5.0,5.0,2.0,-5.0,-4.0,2.0,0.0,0.7125017642974854
224,-21.0,5.0,33.0,0.0,1746.0,-6194.0,-11129.0,-10158.0,-3.0,-5.0,5.0,2.0,-5.0,-4.0,2.0,0.0,0.7148127555847168
225,-21.0,5.0,33.0,0.0,1746.0,-6194.0,-11129.0,-10158.0,-4.0,-12.0,22.0,11.0,3.0,1.0,4.0,1.0,0.719951868057251
226,-21.0,5.0,33.0,0.0,1746.0,-6194.0,-11129.0,-10158.0,-2.0,-1.0,-7.0,-7.0,-3.0,7.0,3.0,-1.0,0.7272043228149414
227,-32.0,7.0,41.0,0.0,1748.0,-6198.0,-11124.0,-10160.0,-2.0,-1.0,-7.0,-7.0,-3.0,7.0,3.0,-1.0,0.7342684268951416
228,-32.0,7.0,41.0,0.0,1748.0,-6198.0,-11124.0,-10160.0,1.0,3.0,1.0,7.0,0.0,3.0,4.0,2.0,0.74180006980896
229,-32.0,7.0,41.0,0.0,1748.0,-6198.0,-11124.0,-10160.0,-3.0,-2.0,-5.0,-1.0,-5.0,-18.0,2.0,5.0,0.7494697570800781
230,16.0,10.0,43.0,0.0,1755.0,-6203.0,-11124.0,-10157.0,-3.0,-2.0,-5.0,-1.0,-5.0,-18.0,2.0,5.0,0.7575056552886963
231,16.0,10.0,43.0,0.0,1755.0,-6203.0,-11124.0,-10157.0,-3.0,-3.0,-39.0,-21.0,-4.0,-19.0,5.0,-2.0,0.7598705291748047
232,16.0,10.0,43.0,0.0,1755.0,-6203.0,-11124.0,-10157.0,3.0,6.0,-7.0,-3.0,5.0,2.0,-1.0,-3.0,0.7725241184234619
233,11.0,18.0,40.0,0.0,1760.0,-6206.0,-11125.0,-10153.0,3.0,6.0,-7.0,-3.0,5.0,2.0,-1.0,-3.0,0.7748367786407471
234,11.0,18.0,40.0,0.0,1760.0,-6206.0,-11125.0,-10153.0,-2.0,-8.0,1.0,14.0,-2.0,6.0,3.0,-1.0,0.7794559001922607
235,11.0,18.0,40.0,0.0,1760.0,-6206.0,-11125.0,-10153.0,-1.0,0.0,-43.0,-3.0,3.0,0.0,-7.0,-2.0,0.7873075008392334
236,2.0,15.0,47.0,0.0,1763.0,-6208.0,-11125.0,-10152.0,-1.0,0.0,-43.0,-3.0,3.0,0.0,-7.0,-2.0,0.7944228649139404
237,2.0,15.0,47.0,0.0,1763.0,-6208.0,-11125.0,-10152.0,1.0,13.0,54.0,-2.0,-17.0,-21.0,-11.0,-1.0,0.802100658416748
238,2.0,15.0,47.0,0.0,1763.0,-6208.0,-11125.0,-10152.0,-1.0,0.0,2.0,4.0,12.0,0.0,7.0,7.0,0.8093459606170654
239,-14.0,12.0,69.0,0.0,1770.0,-6215.0,-11121.0,-10150.0,-1.0,0.0,2.0,4.0,12.0,0.0,7.0,7.0,0.8181905746459961
240,-14.0,12.0,69.0,0.0,1770.0,-6215.0,-11121.0,-10150.0,1.0,8.0,-40.0,8.0,-8.0,2.0,-21.0,-10.0,0.8206202983856201
241,-14.0,12.0,69.0,0.0,1770.0,-6215.0,-11121.0,-10150.0,6.0,22.0,25.0,12.0,17.0,42.0,-8.0,-3.0,0.8326554298400879
242,57.0,2.0,67.0,0.0,1778.0,-6215.0,-11119.0,-10151.0,6.0,22.0,25.0,12.0,17.0,42.0,-8.0,-3.0,0.8350088596343994
243,57.0,2.0,67.0,0.0,1778.0,-6215.0,-11119.0,-10151.0,-2.0,-6.0,35.0,-10.0,-20.0,1.0,2.0,5.0,0.8394262790679932
244,57.0,2.0,67.0,0.0,1778.0,-6215.0,-11119.0,-10151.0,-4.0,2.0,54.0,16.0,-16.0,-6.0,3.0,-6.0,0.8469486236572266
245,-44.0,52.0,69.0,0.0,1774.0,-6204.0,-11109.0,-10169.0,-4.0,2.0,54.0,16.0,-16.0,-6.0,3.0,-6.0,0.854301929473877
246,-44.0,52.0,69.0,0.0,1774.0,-6204.0,-11109.0,-10169.0,-3.0,-12.0,15.0,33.0,49.0,6.0,15.0,9.0,0.8708899021148682
247,-44.0,52.0,69.0,0.0,1774.0,-6204.0,-11109.0,-10169.0,-9.0,-14.0,-39.0,-37.0,-31.0,16.0,0.0,-5.0,0.8750045299530029
248,-413.0,67.0,8.0,0.0,1744.0,-6185.0,-11051.0,-10249.0,-9.0,-14.0,-39.0,-37.0,-31.0,16.0,0.0,-5.0,0.8797566890716553
249,-413.0,67.0,8.0,0.0,1744.0,-6185.0,-11051.0,-10249.0,0.0,5.0,-19.0,-12.0,-32.0,2.0,-5.0,-3.0,0.8839681148529053
250,-413.0,67.0,8.0,0.0,1744.0,-6185.0,-11051.0,-10249.0,8.0,12.0,11.0,15.0,52.0,-9.0,2.0,2.0,0.8926565647125244
251,-794.0,129.0,-259.0,0.0,1656.0,-6118.0,-10959.0,-10401.0,8.0,12.0,11.0,15.0,52.0,-9.0,2.0,2.0,0.895071268081665
252,-794.0,129.0,-259.0,0.0,1656.0,-6118.0,-10959.0,-10401.0,2.0,9.0,14.0,13.0,-4.0,8.0,11.0,4.0,0.8992106914520264
253,-794.0,129.0,-259.0,0.0,1656.0,-6118.0,-10959.0,-10401.0,10.0,21.0,52.0,-48.0,4.0,-7.0,-3.0,7.0,0.9069728851318359
254,-940.0,534.0,-269.0,0.0,1518.0,-5942.0,-10883.0,-10602.0,10.0,21.0,52.0,-48.0,4.0,-7.0,-3.0,7.0,0.9148190021514893
255,-940.0,534.0,-269.0,0.0,1518.0,-5942.0,-10883.0,-10602.0,-4.0,-3.0,-19.0,-71.0,-6.0,-28.0,-30.0,-5.0,0.9218380451202393
256,-940.0,534.0,-269.0,0.0,1518.0,-5942.0,-10883.0,-10602.0,-12.0,-26.0,-60.0,-39.0,-40.0,-40.0,-15.0,-13.0,0.9290421009063721
257,-1085.0,935.0,-214.0,0.0,1444.0,-5729.0,-10760.0,-10852.0,-12.0,-26.0,-60.0,-39.0,-40.0,-40.0,-15.0,-13.0,0.9379284381866455
258,-1085.0,935.0,-214.0,0.0,1444.0,-5729.0,-10760.0,-10852.0,0.0,2.0,-3.0,4.0,6.0,-3.0,5.0,0.0,0.9535641670227051
259,-1085.0,935.0,-214.0,0.0,1444.0,-5729.0,-10760.0,-10852.0,6.0,-11.0,-7.0,17.0,-3.0,-2.0,13.0,10.0,0.9581212997436523
260,-443.0,1324.0,-799.0,0.0,1413.0,-5398.0,-10712.0,-11072.0,6.0,-11.0,-7.0,17.0,-3.0,-2.0,13.0,10.0,0.9626426696777344
261,-443.0,1324.0,-799.0,0.0,1413.0,-5398.0,-10712.0,-11072.0,4.0,-4.0,-1.0,4.0,7.0,12.0,11.0,-2.0,0.9668333530426025
262,-443.0,1324.0,-799.0,0.0,1413.0,-5398.0,-10712.0,-11072.0,-19.0,-32.0,2.0,44.0,-5.0,-3.0,-1.0,-8.0,0.9691522121429443
263,403.0,1764.0,-1536.0,0.0,1446.0,-4978.0,-10810.0,-11169.0,-19.0,-32.0,2.0,44.0,-5.0,-3.0,-1.0,-8.0,0.9746878147125244
264,403.0,1764.0,-1536.0,0.0,1446.0,-4978.0,-10810.0,-11169.0,33.0,53.0,11.0,2.0,-3.0,6.0,6.0,10.0,0.9818992614746094
265,403.0,1764.0,-1536.0,0.0,1446.0,-4978.0,-10810.0,-11169.0,-4.0,-8.0,-10.0,2.0,22.0,6.0,8.0,-2.0,0.9891254901885986
266,522.0,1764.0,-2444.0,0.0,1384.0,-4464.0,-10972.0,-11235.0,-4.0,-8.0,-10.0,2.0,22.0,6.0,8.0,-2.0,0.996699333190918
267,522.0,1764.0,-2444.0,0.0,1384.0,-4464.0,-10972.0,-11235.0,-21.0,-25.0,-8.0,-2.0,6.0,4.0,-3.0,-5.0,1.0048859119415283
268,522.0,1764.0,-2444.0,0.0,1384.0,-4464.0,-10972.0,-11235.0,-3.0,0.0,0.0,-21.0,-16.0,-9.0,-10.0,-4.0,1.01220703125
269,163.0,1632.0,-3277.0,0.0,1184.0,-3866.0,-11118.0,-11335.0,-3.0,0.0,0.0,-21.0,-16.0,-9.0,-10.0,-4.0,1.0145158767700195
270,163.0,1632.0,-3277.0,0.0,1184.0,-3866.0,-11118.0,-11335.0,3.0,2.0,-11.0,-3.0,14.0,17.0,10.0,-1.0,1.0198173522949219
271,163.0,1632.0,-3277.0,0.0,1184.0,-3866.0,-11118.0,-11335.0,-1.0,-1.0,2.0,26.0,2.0,-7.0,4.0,-1.0,1.0268166065216064
272,-434.0,1370.0,-4043.0,0.0,832.0,-3208.0,-11205.0,-11486.0,-1.0,-1.0,2.0,26.0,2.0,-7.0,4.0,-1.0,1.0342040061950684
273,-434.0,1370.0,-4043.0,0.0,832.0,-3208.0,-11205.0,-11486.0,-1.0,-4.0,-1.0,-5.0,-5.0,0.0,-1.0,0.0,1.0425834655761719
274,-434.0,1370.0,-4043.0,0.0,832.0,-3208.0,-11205.0,-11486.0,2.0,2.0,-7.0,-15.0,-5.0,12.0,2.0,4.0,1.0493111610412598
275,-678.0,1162.0,-4757.0,0.0,354.0,-2484.0,-11260.0,-11635.0,2.0,2.0,-7.0,-15.0,-5.0,12.0,2.0,4.0,1.0570123195648193
276,-678.0,1162.0,-4757.0,0.0,354.0,-2484.0,-11260.0,-11635.0,-5.0,-8.0,-7.0,12.0,18.0,0.0,-6.0,-2.0,1.0648481845855713
277,-678.0,1162.0,-4757.0,0.0,354.0,-2484.0,-11260.0,-11635.0,-1.0,4.0,7.0,13.0,-26.0,-15.0,-18.0,-17.0,1.0732464790344238
278,-1180.0,846.0,-5335.0,0.0,-237.0,-1739.0,-11245.0,-11787.0,-1.0,4.0,7.0,13.0,-26.0,-15.0,-18.0,-17.0,1.0756359100341797
279,-1180.0,846.0,-5335.0,0.0,-237.0,-1739.0,-11245.0,-11787.0,-4.0,-8.0,-1.0,12.0,7.0,-2.0,-3.0,-1.0,1.0784554481506348
280,-1180.0,846.0,-5335.0,0.0,-237.0,-1739.0,-11245.0,-11787.0,-1.0,2.0,-2.0,-6.0,7.0,10.0,4.0,6.0,1.08709716796875
281,-1644.0,525.0,-5735.0,0.0,-911.0,-992.0,-11137.0,-11942.0,-1.0,2.0,-2.0,-6.0,7.0,10.0,4.0,6.0,1.094179391860962
282,-1644.0,525.0,-5735.0,0.0,-911.0,-992.0,-11137.0,-11942.0,-2.0,-5.0,-5.0,-13.0,13.0,-3.0,-5.0,-6.0,1.1104390621185303
283,-1644.0,525.0,-5735.0,0.0,-911.0,-992.0,-11137.0,-11942.0,1.0,-1.0,-7.0,-21.0,13.0,20.0,6.0,-1.0,1.1150238513946533
284,-1941.0,239.0,-5701.0,0.0,-1610.0,-283.0,-10943.0,-12084.0,1.0,-1.0,-7.0,-21.0,13.0,20.0,6.0,-1.0,1.1255459785461426
285,-1941.0,239.0,-5701.0,0.0,-1610.0,-283.0,-10943.0,-12084.0,-3.0,-3.0,6.0,23.0,-23.0,-3.0,7.0,-5.0,1.128448247909546
286,-1941.0,239.0,-5701.0,0.0,-1610.0,-283.0,-10943.0,-12084.0,5.0,3.0,2.0,21.0,36.0,-4.0,-14.0,2.0,1.1324586868286133
287,-1585.0,124.0,-5421.0,0.0,-2280.0,376.0,-10750.0,-12147.0,5.0,3.0,2.0,21.0,36.0,-4.0,-14.0,2.0,1.1351799964904785
288,-1585.0,124.0,-5421.0,0.0,-2280.0,376.0,-10750.0,-12147.0,2.0,-2.0,-3.0,2.0,12.0,17.0,17.0,14.0,1.1393563747406006
289,-1585.0,124.0,-5421.0,0.0,-2280.0,376.0,-10750.0,-12147.0,-2.0,1.0,11.0,27.0,-20.0,-9.0,-1.0,-4.0,1.1470274925231934
290,-1676.0,89.0,-5284.0,0.0,-2929.0,1018.0,-10508.0,-12183.0,-2.0,1.0,11.0,27.0,-20.0,-9.0,-1.0,-4.0,1.15468168258667
291,-1676.0,89.0,-5284.0,0.0,-2929.0,1018.0,-10508.0,-12183.0,-3.0,-4.0,-11.0,-11.0,-6.0,5.0,2.0,3.0,1.1706106662750244
292,-1676.0,89.0,-5284.0,0.0,-2929.0,1018.0,-10508.0,-12183.0,-1.0,1.0,-3.0,-2.0,4.0,-4.0,-2.0,0.0,1.1749083995819092
293,-1688.0,299.0,-4797.0,0.0,-3482.0,1631.0,-10240.0,-12199.0,-1.0,1.0,-3.0,-2.0,4.0,-4.0,-2.0,0.0,1.1793427467346191
294,-1688.0,299.0,-4797.0,0.0,-3482.0,1631.0,-10240.0,-12199.0,1.0,5.0,13.0,-3.0,-2.0,-1.0,-1.0,1.0,1.1842193603515625
295,-1688.0,299.0,-4797.0,0.0,-3482.0,1631.0,-10240.0,-12199.0,0.0,1.0,3.0,22.0,5.0,5.0,1.0,4.0,1.1927013397216797
296,-1709.0,239.0,-4062.0,0.0,-3940.0,2156.0,-9950.0,-12218.0,0.0,1.0,3.0,22.0,5.0,5.0,1.0,4.0,1.1954929828643799
297,-1709.0,239.0,-4062.0,0.0,-3940.0,2156.0,-9950.0,-12218.0,-13.0,-18.0,-6.0,-1.0,3.0,-14.0,-15.0,-14.0,1.208329200744629
298,-1709.0,239.0,-4062.0,0.0,-3940.0,2156.0,-9950.0,-12218.0,2.0,-7.0,4.0,-5.0,-5.0,-3.0,7.0,7.0,1.2111401557922363
299,-1950.0,172.0,-3196.0,0.0,-4281.0,2588.0,-9625.0,-12280.0,2.0,-7.0,4.0,-5.0,-5.0,-3.0,7.0,7.0,1.2137084007263184
300,-1950.0,172.0,-3196.0,0.0,-4281.0,2588.0,-9625.0,-12280.0,1.0,-2.0,-5.0,-5.0,0.0,-22.0,-23.0,5.0,1.2221875190734863
301,-1950.0,172.0,-3196.0,0.0,-4281.0,2588.0,-9625.0,-12280.0,0.0,3.0,0.0,-4.0,2.0,8.0,11.0,1.0,1.230079174041748
302,-1916.0,292.0,-2492.0,0.0,-4517.0,2964.0,-9312.0,-12352.0,0.0,3.0,0.0,-4.0,2.0,8.0,11.0,1.0,1.2367827892303467
303,-1916.0,292.0,-2492.0,0.0,-4517.0,2964.0,-9312.0,-12352.0,-2.0,-2.0,-7.0,-36.0,-19.0,7.0,-22.0,-13.0,1.2442071437835693
304,-1916.0,292.0,-2492.0,0.0,-4517.0,2964.0,-9312.0,-12352.0,4.0,7.0,-6.0,-16.0,-1.0,-6.0,-8.0,-7.0,1.2523033618927002
305,-1673.0,287.0,-1930.0,0.0,-4688.0,3281.0,-9043.0,-12408.0,4.0,7.0,-6.0,-16.0,-1.0,-6.0,-8.0,-7.0,1.2546477317810059
306,-1673.0,287.0,-1930.0,0.0,-4688.0,3281.0,-9043.0,-12408.0,-8.0,6.0,2.0,6.0,21.0,47.0,47.0,22.0,1.2601430416107178
307,-1673.0,287.0,-1930.0,0.0,-4688.0,3281.0,-9043.0,-12408.0,25.0,-38.0,-2.0,2.0,5.0,-9.0,-27.0,-32.0,1.274949550628662
308,-1868.0,-25.0,-1391.0,0.0,-4815.0,3517.0,-8736.0,-12513.0,25.0,-38.0,-2.0,2.0,5.0,-9.0,-27.0,-32.0,1.2772786617279053
309,-1868.0,-25.0,-1391.0,0.0,-4815.0,3517.0,-8736.0,-12513.0,-12.0,-14.0,6.0,25.0,-50.0,-58.0,6.0,34.0,1.2818920612335205
310,-1868.0,-25.0,-1391.0,0.0,-4815.0,3517.0,-8736.0,-12513.0,-36.0,-47.0,-37.0,28.0,-6.0,-37.0,-62.0,-66.0,1.2890644073486328
311,-1491.0,-386.0,-877.0,0.0,-4974.0,3677.0,-8401.0,-12634.0,-36.0,-47.0,-37.0,28.0,-6.0,-37.0,-62.0,-66.0,1.296863079071045
312,-1491.0,-386.0,-877.0,0.0,-4974.0,3677.0,-8401.0,-12634.0,7.0,-43.0,-29.0,-21.0,-80.0,-107.0,-18.0,65.0,1.3059906959533691
313,-1491.0,-386.0,-877.0,0.0,-4974.0,3677.0,-8401.0,-12634.0,13.0,37.0,-2.0,-31.0,10.0,9.0,100.0,-15.0,1.3132548332214355
314,716.0,-720.0,-175.0,0.0,-5093.0,3555.0,-8454.0,-12587.0,13.0,37.0,-2.0,-31.0,10.0,9.0,100.0,-15.0,1.3198063373565674
315,716.0,-720.0,-175.0,0.0,-5093.0,3555.0,-8454.0,-12587.0,-13.0,3.0,8.0,20.0,18.0,68.0,83.0,106.0,1.3229930400848389
316,716.0,-720.0,-175.0,0.0,-5093.0,3555.0,-8454.0,-12587.0,13.0,6.0,3.0,-18.0,-53.0,1.0,42.0,48.0,1.334855556488037
317,2173.0,-889.0,556.0,0.0,-5181.0,3260.0,-8721.0,-12447.0,13.0,6.0,3.0,-18.0,-53.0,1.0,42.0,48.0,1.337188959121704
318,2173.0,-889.0,556.0,0.0,-5181.0,3260.0,-8721.0,-12447.0,3.0,-10.0,15.0,7.0,-75.0,22.0,-4.0,-28.0,1.3419675827026367
319,2173.0,-889.0,556.0,0.0,-5181.0,3260.0,-8721.0,-12447.0,-110.0,45.0,17.0,21.0,96.0,-90.0,-114.0,-108.0,1.3491325378417969
320,3069.0,-765.0,1933.0,0.0,-5099.0,2793.0,-9144.0,-12290.0,-110.0,45.0,17.0,21.0,96.0,-90.0,-114.0,-108.0,1.3575823307037354
321,3069.0,-765.0,1933.0,0.0,-5099.0,2793.0,-9144.0,-12290.0,51.0,126.0,42.0,-20.0,12.0,40.0,54.0,-22.0,1.3646142482757568
322,3069.0,-765.0,1933.0,0.0,-5099.0,2793.0,-9144.0,-12290.0,-52.0,-56.0,-18.0,-15.0,-52.0,-30.0,9.0,97.0,1.3720214366912842
323,2898.0,-780.0,3813.0,0.0,-4742.0,2121.0,-9571.0,-12242.0,-52.0,-56.0,-18.0,-15.0,-52.0,-30.0,9.0,97.0,1.379828691482544
324,2898.0,-780.0,3813.0,0.0,-4742.0,2121.0,-9571.0,-12242.0,-6.0,-47.0,-24.0,-20.0,57.0,-45.0,57.0,39.0,1.382194995880127
325,2898.0,-780.0,3813.0,0.0,-4742.0,2121.0,-9571.0,-12242.0,101.0,45.0,31.0,3.0,-13.0,127.0,127.0,127.0,1.3872694969177246
326,1779.0,-556.0,5836.0,0.0,-4028.0,1307.0,-9895.0,-12354.0,101.0,45.0,31.0,3.0,-13.0,127.0,127.0,127.0,1.3941516876220703
327,1779.0,-556.0,5836.0,0.0,-4028.0,1307.0,-9895.0,-12354.0,-52.0,-21.0,-2.0,-28.0,52.0,3.0,10.0,-53.0,1.403191328048706
328,1779.0,-556.0,5836.0,0.0,-4028.0,1307.0,-9895.0,-12354.0,82.0,42.0,-3.0,55.0,-36.0,28.0,-29.0,-118.0,1.4105157852172852
329,-123.0,-410.0,7680.0,0.0,-2993.0,386.0,-9943.0,-12668.0,82.0,42.0,-3.0,55.0,-36.0,28.0,-29.0,-118.0,1.418302297592163
330,-123.0,-410.0,7680.0,0.0,-2993.0,386.0,-9943.0,-12668.0,48.0,5.0,6.0,80.0,50.0,11.0,-116.0,-20.0,1.4242467880249023
331,-123.0,-410.0,7680.0,0.0,-2993.0,386.0,-9943.0,-12668.0,-16.0,-53.0,13.0,-116.0,110.0,36.0,99.0,76.0,1.4316790103912354
332,-988.0,-2108.0,8051.0,0.0,-2096.0,-743.0,-9732.0,-12993.0,-16.0,-53.0,13.0,-116.0,110.0,36.0,99.0,76.0,1.4399206638336182
333,-988.0,-2108.0,8051.0,0.0,-2096.0,-743.0,-9732.0,-12993.0,-36.0,12.0,-37.0,-108.0,-40.0,-103.0,-95.0,-65.0,1.4423232078552246
334,-988.0,-2108.0,8051.0,0.0,-2096.0,-743.0,-9732.0,-12993.0,2.0,-43.0,38.0,12.0,57.0,-57.0,-128.0,8.0,1.4567103385925293
335,736.0,-3310.0,7243.0,0.0,-1410.0,-1990.0,-9665.0,-13004.0,2.0,-43.0,38.0,12.0,57.0,-57.0,-128.0,8.0,1.4613537788391113
336,736.0,-3310.0,7243.0,0.0,-1410.0,-1990.0,-9665.0,-13004.0,-3.0,6.0,37.0,108.0,127.0,47.0,117.0,73.0,1.4659228324890137
337,736.0,-3310.0,7243.0,0.0,-1410.0,-1990.0,-9665.0,-13004.0,-3.0,7.0,-85.0,110.0,21.0,17.0,-9.0,0.0,1.4685490131378174
338,5219.0,-2584.0,5480.0,0.0,-788.0,-3003.0,-10208.0,-12435.0,-3.0,7.0,-85.0,110.0,21.0,17.0,-9.0,0.0,1.4766087532043457
339,5219.0,-2584.0,5480.0,0.0,-788.0,-3003.0,-10208.0,-12435.0,-8.0,-86.0,-53.0,106.0,24.0,-10.0,-128.0,-109.0,1.4849612712860107
340,5219.0,-2584.0,5480.0,0.0,-788.0,-3003.0,-10208.0,-12435.0,-52.0,-92.0,13.0,27.0,3.0,-56.0,8.0,-28.0,1.4918429851531982
341,4988.0,-1393.0,5770.0,0.0,3.0,-3864.0,-10645.0,-11841.0,-52.0,-92.0,13.0,27.0,3.0,-56.0,8.0,-28.0,1.500758171081543
342,4988.0,-1393.0,5770.0,0.0,3.0,-3864.0,-10645.0,-11841.0,23.0,58.0,79.0,-47.0,-3.0,39.0,45.0,-4.0,1.5031566619873047
343,4988.0,-1393.0,5770.0,0.0,3.0,-3864.0,-10645.0,-11841.0,-8.0,-18.0,-29.0,30.0,-83.0,4.0,-28.0,-36.0,1.5154993534088135
344,1911.0,-1503.0,4065.0,0.0,433.0,-4524.0,-10707.0,-11540.0,-8.0,-18.0,-29.0,30.0,-83.0,4.0,-28.0,-36.0,1.5178825855255127
345,1911.0,-1503.0,4065.0,0.0,433.0,-4524.0,-10707.0,-11540.0,-27.0,-48.0,-16.0,-31.0,-24.0,53.0,-10.0,11.0,1.521763801574707
346,1911.0,-1503.0,4065.0,0.0,433.0,-4524.0,-10707.0,-11540.0,-1.0,47.0,127.0,72.0,-45.0,-23.0,6.0,39.0,1.5293569564819336
347,1147.0,-2189.0,2391.0,0.0,510.0,-5053.0,-10754.0,-11270.0,-1.0,47.0,127.0,72.0,-45.0,-23.0,6.0,39.0,1.5366263389587402
348,1147.0,-2189.0,2391.0,0.0,510.0,-5053.0,-10754.0,-11270.0,-12.0,-68.0,-19.0,50.0,-110.0,41.0,-17.0,-80.0,1.5446555614471436
349,1147.0,-2189.0,2391.0,0.0,510.0,-5053.0,-10754.0,-11270.0,33.0,13.0,-83.0,-61.0,55.0,-8.0,19.0,8.0,1.55181884765625
350,2251.0,-1936.0,2463.0,0.0,715.0,-5543.0,-10854.0,-10927.0,33.0,13.0,-83.0,-61.0,55.0,-8.0,19.0,8.0,1.5600230693817139
351,2251.0,-1936.0,2463.0,0.0,715.0,-5543.0,-10854.0,-10927.0,9.0,58.0,84.0,-61.0,-33.0,-17.0,35.0,84.0,1.562446117401123
352,2251.0,-1936.0,2463.0,0.0,715.0,-5543.0,-10854.0,-10927.0,-41.0,-8.0,-20.0,-13.0,-26.0,77.0,114.0,-69.0,1.5751984119415283
353,1604.0,-758.0,4094.0,0.0,1209.0,-6098.0,-10791.0,-10647.0,-41.0,-8.0,-20.0,-13.0,-26.0,77.0,114.0,-69.0,1.577901840209961
354,1604.0,-758.0,4094.0,0.0,1209.0,-6098.0,-10791.0,-10647.0,14.0,-32.0,-14.0,-24.0,17.0,7.0,49.0,70.0,1.5812318325042725
355,1604.0,-758.0,4094.0,0.0,1209.0,-6098.0,-10791.0,-10647.0,-22.0,11.0,-87.0,-31.0,-7.0,11.0,-78.0,-16.0,1.5902588367462158
356,-157.0,-691.0,3867.0,0.0,1552.0,-6609.0,-10507.0,-10582.0,-22.0,11.0,-87.0,-31.0,-7.0,11.0,-78.0,-16.0,1.5971598625183105
357,-157.0,-691.0,3867.0,0.0,1552.0,-6609.0,-10507.0,-10582.0,-11.0,-33.0,-50.0,43.0,-29.0,-46.0,-29.0,-44.0,1.6045103073120117
358,-157.0,-691.0,3867.0,0.0,1552.0,-6609.0,-10507.0,-10582.0,-8.0,-65.0,-39.0,2.0,22.0,4.0,34.0,10.0,1.6118626594543457
359,669.0,-216.0,2845.0,0.0,1902.0,-6937.0,-10372.0,-10447.0,-8.0,-65.0,-39.0,2.0,22.0,4.0,34.0,10.0,1.620074987411499
360,669.0,-216.0,2845.0,0.0,1902.0,-6937.0,-10372.0,-10447.0,33.0,95.0,13.0,33.0,-2.0,-13.0,-41.0,-42.0,1.62245774269104
361,669.0,-216.0,2845.0,0.0,1902.0,-6937.0,-10372.0,-10447.0,-5.0,4.0,-19.0,-9.0,34.0,17.0,-37.0,64.0,1.6348090171813965
362,1086.0,437.0,2155.0,0.0,2257.0,-7088.0,-10328.0,-10318.0,-5.0,4.0,-19.0,-9.0,34.0,17.0,-37.0,64.0,1.637511968612671
363,1086.0,437.0,2155.0,0.0,2257.0,-7088.0,-10328.0,-10318.0,-7.0,22.0,77.0,11.0,48.0,3.0,47.0,-28.0,1.6418228149414062
364,1086.0,437.0,2155.0,0.0,2257.0,-7088.0,-10328.0,-10318.0,12.0,22.0,62.0,13.0,-13.0,-11.0,3.0,43.0,1.6491174697875977
365,787.0,609.0,1221.0,0.0,2421.0,-7056.0,-10349.0,-10281.0,12.0,22.0,62.0,13.0,-13.0,-11.0,3.0,43.0,1.657177209854126
366,787.0,609.0,1221.0,0.0,2421.0,-7056.0,-10349.0,-10281.0,-18.0,-3.0,-39.0,13.0,-40.0,36.0,-46.0,-45.0,1.6643342971801758
367,787.0,609.0,1221.0,0.0,2421.0,-7056.0,-10349.0,-10281.0,0.0,8.0,124.0,-5.0,-40.0,1.0,-11.0,25.0,1.6720657348632812
368,346.0,425.0,565.0,0.0,2463.0,-6987.0,-10375.0,-10293.0,0.0,8.0,124.0,-5.0,-40.0,1.0,-11.0,25.0,1.680067777633667
369,346.0,425.0,565.0,0.0,2463.0,-6987.0,-10375.0,-10293.0,-11.0,-7.0,-37.0,-1.0,-10.0,-18.0,-31.0,-66.0,1.6824450492858887
370,346.0,425.0,565.0,0.0,2463.0,-6987.0,-10375.0,-10293.0,8.0,-53.0,-78.0,22.0,21.0,10.0,41.0,70.0,1.6960294246673584
371,180.0,304.0,-209.0,0.0,2380.0,-6865.0,-10471.0,-10297.0,8.0,-53.0,-78.0,22.0,21.0,10.0,41.0,70.0,1.7000041007995605
372,180.0,304.0,-209.0,0.0,2380.0,-6865.0,-10471.0,-10297.0,18.0,-3.0,-55.0,-40.0,-53.0,-18.0,-4.0,61.0,1.7050673961639404
373,180.0,304.0,-209.0,0.0,2380.0,-6865.0,-10471.0,-10297.0,16.0,19.0,-20.0,-12.0,7.0,-2.0,-33.0,-52.0,1.7092373371124268
374,-231.0,252.0,-784.0,0.0,2235.0,-6715.0,-10542.0,-10355.0,16.0,19.0,-20.0,-12.0,7.0,-2.0,-33.0,-52.0,1.7168734073638916
375,-231.0,252.0,-784.0,0.0,2235.0,-6715.0,-10542.0,-10355.0,-39.0,-72.0,-13.0,-6.0,32.0,-43.0,29.0,63.0,1.7245159149169922
376,-231.0,252.0,-784.0,0.0,2235.0,-6715.0,-10542.0,-10355.0,40.0,67.0,35.0,-24.0,-5.0,-19.0,7.0,-26.0,1.7328906059265137
377,-360.0,89.0,-993.0,0.0,2073.0,-6585.0,-10598.0,-10416.0,40.0,67.0,35.0,-24.0,-5.0,-19.0,7.0,-26.0,1.741222620010376
378,-360.0,89.0,-993.0,0.0,2073.0,-6585.0,-10598.0,-10416.0,-20.0,-53.0,-72.0,32.0,-12.0,0.0,14.0,-2.0,1.7444331645965576
379,-360.0,89.0,-993.0,0.0,2073.0,-6585.0,-10598.0,-10416.0,-21.0,-5.0,-9.0,52.0,-27.0,-10.0,-11.0,-25.0,1.7549505233764648
380,-464.0,-102.0,-1033.0,0.0,1916.0,-6500.0,-10628.0,-10468.0,-21.0,-5.0,-9.0,52.0,-27.0,-10.0,-11.0,-25.0,1.7572343349456787
381,-464.0,-102.0,-1033.0,0.0,1916.0,-6500.0,-10628.0,-10468.0,18.0,21.0,-12.0,-14.0,14.0,-27.0,23.0,44.0,1.7620129585266113
382,-464.0,-102.0,-1033.0,0.0,1916.0,-6500.0,-10628.0,-10468.0,-1.0,7.0,-8.0,11.0,84.0,52.0,25.0,2.0,1.7689645290374756
383,-374.0,-131.0,-1016.0,0.0,1779.0,-6433.0,-10665.0,-10496.0,-1.0,7.0,-8.0,11.0,84.0,52.0,25.0,2.0,1.7769215106964111
384,-374.0,-131.0,-1016.0,0.0,1779.0,-6433.0,-10665.0,-10496.0,4.0,27.0,42.0,-7.0,27.0,-14.0,-14.0,-28.0,1.784799575805664
385,-374.0,-131.0,-1016.0,0.0,1779.0,-6433.0,-10665.0,-10496.0,5.0,16.0,-3.0,-76.0,-18.0,-28.0,-44.0,-31.0,1.7920668125152588
386,-322.0,-46.0,-860.0,0.0,1693.0,-6381.0,-10680.0,-10527.0,5.0,16.0,-3.0,-76.0,-18.0,-28.0,-44.0,-31.0,1.8014841079711914
387,-322.0,-46.0,-860.0,0.0,1693.0,-6381.0,-10680.0,-10527.0,21.0,22.0,-29.0,-9.0,3.0,33.0,38.0,27.0,1.805985450744629
388,-322.0,-46.0,-860.0,0.0,1693.0,-6381.0,-10680.0,-10527.0,6.0,0.0,-55.0,-9.0,-43.0,-11.0,-12.0,-4.0,1.8154926300048828
389,-284.0,-94.0,-636.0,0.0,1640.0,-6367.0,-10678.0,-10546.0,6.0,0.0,-55.0,-9.0,-43.0,-11.0,-12.0,-4.0,1.8178040981292725
390,-284.0,-94.0,-636.0,0.0,1640.0,-6367.0,-10678.0,-10546.0,2.0,-1.0,28.0,-10.0,19.0,17.0,23.0,14.0,1.8215534687042236
391,-284.0,-94.0,-636.0,0.0,1640.0,-6367.0,-10678.0,-10546.0,-23.0,-2.0,-8.0,1.0,5.0,-9.0,90.0,54.0,1.8299875259399414
392,-141.0,-102.0,-543.0,0.0,1600.0,-6353.0,-10685.0,-10553.0,-23.0,-2.0,-8.0,1.0,5.0,-9.0,90.0,54.0,1.836670160293579
393,-141.0,-102.0,-543.0,0.0,1600.0,-6353.0,-10685.0,-10553.0,-42.0,-19.0,-10.0,20.0,-90.0,-70.0,-93.0,-108.0,1.8445262908935547
394,-141.0,-102.0,-543.0,0.0,1600.0,-6353.0,-10685.0,-10553.0,4.0,2.0,61.0,13.0,30.0,7.0,-15.0,-2.0,1.8517885208129883
395,25.0,68.0,-567.0,0.0,1585.0,-6307.0,-10706.0,-10562.0,4.0,2.0,61.0,13.0,30.0,7.0,-15.0,-2.0,1.8603413105010986
396,25.0,68.0,-567.0,0.0,1585.0,-6307.0,-10706.0,-10562.0,32.0,93.0,113.0,-21.0,48.0,50.0,22.0,24.0,1.862912654876709
397,25.0,68.0,-567.0,0.0,1585.0,-6307.0,-10706.0,-10562.0,-28.0,-34.0,-10.0,-27.0,-43.0,-21.0,-18.0,-41.0,1.8759613037109375
398,-129.0,208.0,-392.0,0.0,1585.0,-6264.0,-10704.0,-10590.0,-28.0,-34.0,-10.0,-27.0,-43.0,-21.0,-18.0,-41.0,1.8802235126495361
399,-129.0,208.0,-392.0,0.0,1585.0,-6264.0,-10704.0,-10590.0,43.0,18.0,-25.0,-8.0,34.0,18.0,-13.0,-5.0,1.884615182876587
400,-129.0,208.0,-392.0,0.0,1585.0,-6264.0,-10704.0,-10590.0,-32.0,-10.0,2.0,20.0,-4.0,-7.0,-16.0,-13.0,1.8900420665740967
401,-232.0,127.0,-229.0,0.0,1587.0,-6247.0,-10675.0,-10628.0,-32.0,-10.0,2.0,20.0,-4.0,-7.0,-16.0,-13.0,1.8970887660980225
402,-232.0,127.0,-229.0,0.0,1587.0,-6247.0,-10675.0,-10628.0,4.0,1.0,-15.0,-2.0,21.0,23.0,-13.0,-24.0,1.9044315814971924
403,-232.0,127.0,-229.0,0.0,1587.0,-6247.0,-10675.0,-10628.0,-15.0,-13.0,14.0,4.0,-40.0,21.0,69.0,4.0,1.9121835231781006
404,-230.0,129.0,-161.0,0.0,1587.0,-6232.0,-10648.0,-10664.0,-15.0,-13.0,14.0,4.0,-40.0,21.0,69.0,4.0,1.9200770854949951
405,-230.0,129.0,-161.0,0.0,1587.0,-6232.0,-10648.0,-10664.0,-4.0,-15.0,-60.0,-7.0,-40.0,20.0,12.0,27.0,1.922835350036621
406,-230.0,129.0,-161.0,0.0,1587.0,-6232.0,-10648.0,-10664.0,-2.0,-2.0,-10.0,-4.0,23.0,3.0,-23.0,-13.0,1.936737298965454
407,-223.0,165.0,-211.0,0.0,1585.0,-6208.0,-10628.0,-10699.0,-2.0,-2.0,-10.0,-4.0,23.0,3.0,-23.0,-13.0,1.9415571689605713
408,-223.0,165.0,-211.0,0.0,1585.0,-6208.0,-10628.0,-10699.0,7.0,-41.0,-55.0,35.0,66.0,16.0,31.0,24.0,1.9461736679077148
409,-223.0,165.0,-211.0,0.0,1585.0,-6208.0,-10628.0,-10699.0,29.0,17.0,-70.0,23.0,-1.0,0.0,-18.0,-13.0,1.9489202499389648
410,-210.0,153.0,-164.0,0.0,1583.0,-6192.0,-10614.0,-10723.0,29.0,17.0,-70.0,23.0,-1.0,0.0,-18.0,-13.0,1.9575738906860352
411,-210.0,153.0,-164.0,0.0,1583.0,-6192.0,-10614.0,-10723.0,-11.0,-16.0,-3.0,4.0,2.0,-18.0,-19.0,-11.0,1.9643139839172363
412,-210.0,153.0,-164.0,0.0,1583.0,-6192.0,-10614.0,-10723.0,5.0,7.0,10.0,27.0,-35.0,-27.0,-10.0,21.0,1.9719252586364746
413,-160.0,109.0,-107.0,0.0,1584.0,-6182.0,-10600.0,-10741.0,5.0,7.0,10.0,27.0,-35.0,-27.0,-10.0,21.0,1.980055809020996
414,-160.0,109.0,-107.0,0.0,1584.0,-6182.0,-10600.0,-10741.0,-11.0,-10.0,5.0,8.0,34.0,-10.0,5.0,1.0,1.9824614524841309
415,-160.0,109.0,-107.0,0.0,1584.0,-6182.0,-10600.0,-10741.0,11.0,15.0,26.0,-22.0,21.0,4.0,-14.0,2.0,1.995645523071289
416,-89.0,101.0,-122.0,0.0,1572.0,-6161.0,-10605.0,-10750.0,11.0,15.0,26.0,-22.0,21.0,4.0,-14.0,2.0,1.9996287822723389
417,-89.0,101.0,-122.0,0.0,1572.0,-6161.0,-10605.0,-10750.0,-16.0,-17.0,44.0,4.0,11.0,10.0,-7.0,-17.0,2.0037310123443604
418,-89.0,101.0,-122.0,0.0,1572.0,-6161.0,-10605.0,-10750.0,-3.0,-28.0,-67.0,-2.0,-14.0,10.0,-15.0,-6.0,2.0090887546539307
419,-121.0,94.0,-121.0,0.0,1547.0,-6133.0,-10611.0,-10764.0,-3.0,-28.0,-67.0,-2.0,-14.0,10.0,-15.0,-6.0,2.0175042152404785
420,-121.0,94.0,-121.0,0.0,1547.0,-6133.0,-10611.0,-10764.0,-12.0,14.0,-14.0,-20.0,-41.0,-25.0,1.0,-14.0,2.024367094039917
421,-121.0,94.0,-121.0,0.0,1547.0,-6133.0,-10611.0,-10764.0,-2.0,30.0,37.0,-10.0,0.0,-33.0,-41.0,-56.0,2.031886339187622
422,-139.0,69.0,-77.0,0.0,1527.0,-6120.0,-10614.0,-10771.0,-2.0,30.0,37.0,-10.0,0.0,-33.0,-41.0,-56.0,2.039794445037842
423,-139.0,69.0,-77.0,0.0,1527.0,-6120.0,-10614.0,-10771.0,18.0,26.0,-22.0,-15.0,5.0,17.0,32.0,50.0,2.0422189235687256
424,-139.0,69.0,-77.0,0.0,1527.0,-6120.0,-10614.0,-10771.0,14.0,14.0,36.0,24.0,3.0,-8.0,-3.0,-1.0,2.055164098739624
425,-111.0,23.0,-46.0,0.0,1522.0,-6125.0,-10612.0,-10771.0,14.0,14.0,36.0,24.0,3.0,-8.0,-3.0,-1.0,2.057537317276001
426,-111.0,23.0,-46.0,0.0,1522.0,-6125.0,-10612.0,-10771.0,-13.0,-17.0,-2.0,-2.0,17.0,-1.0,-1.0,-18.0,2.062140941619873
427,-111.0,23.0,-46.0,0.0,1522.0,-6125.0,-10612.0,-10771.0,-3.0,-17.0,-5.0,-3.0,-23.0,-18.0,-30.0,17.0,2.0691347122192383
428,72.0,27.0,-44.0,0.0,1530.0,-6126.0,-10629.0,-10753.0,-3.0,-17.0,-5.0,-3.0,-23.0,-18.0,-30.0,17.0,2.0768649578094482
429,72.0,27.0,-44.0,0.0,1530.0,-6126.0,-10629.0,-10753.0,10.0,25.0,41.0,8.0,-4.0,-1.0,1.0,11.0,2.086566925048828
430,72.0,27.0,-44.0,0.0,1530.0,-6126.0,-10629.0,-10753.0,4.0,-6.0,-26.0,-6.0,15.0,5.0,-2.0,12.0,2.093337297439575
431,158.0,-7.0,-89.0,0.0,1523.0,-6113.0,-10661.0,-10730.0,4.0,-6.0,-26.0,-6.0,15.0,5.0,-2.0,12.0,2.0998289585113525
432,158.0,-7.0,-89.0,0.0,1523.0,-6113.0,-10661.0,-10730.0,-8.0,-14.0,-10.0,-17.0,10.0,-9.0,-18.0,-7.0,2.102208137512207
433,158.0,-7.0,-89.0,0.0,1523.0,-6113.0,-10661.0,-10730.0,-6.0,-23.0,15.0,-7.0,-23.0,-4.0,19.0,19.0,2.115446090698242
434,156.0,1.0,-104.0,0.0,1516.0,-6095.0,-10690.0,-10712.0,-6.0,-23.0,15.0,-7.0,-23.0,-4.0,19.0,19.0,2.117832660675049
435,156.0,1.0,-104.0,0.0,1516.0,-6095.0,-10690.0,-10712.0,1.0,0.0,29.0,2.0,19.0,-31.0,2.0,2.0,2.1217739582061768
436,156.0,1.0,-104.0,0.0,1516.0,-6095.0,-10690.0,-10712.0,-18.0,-17.0,-39.0,-9.0,-44.0,0.0,-10.0,-7.0,2.129272222518921
437,114.0,-9.0,-58.0,0.0,1509.0,-6084.0,-10713.0,-10695.0,-18.0,-17.0,-39.0,-9.0,-44.0,0.0,-10.0,-7.0,2.136932373046875
438,114.0,-9.0,-58.0,0.0,1509.0,-6084.0,-10713.0,-10695.0,-3.0,10.0,-2.0,16.0,0.0,15.0,22.0,1.0,2.145017623901367
439,114.0,-9.0,-58.0,0.0,1509.0,-6084.0,-10713.0,-10695.0,-5.0,-12.0,-7.0,8.0,33.0,4.0,6.0,-16.0,2.1517577171325684
440,62.0,-11.0,-35.0,0.0,1506.0,-6079.0,-10725.0,-10687.0,-5.0,-12.0,-7.0,8.0,33.0,4.0,6.0,-16.0,2.1610536575317383
441,62.0,-11.0,-35.0,0.0,1506.0,-6079.0,-10725.0,-10687.0,4.0,-5.0,-1.0,-1.0,-28.0,15.0,-2.0,-7.0,2.1651501655578613
442,62.0,-11.0,-35.0,0.0,1506.0,-6079.0,-10725.0,-10687.0,13.0,21.0,42.0,-5.0,25.0,20.0,19.0,16.0,2.175769090652466
443,30.0,-22.0,-55.0,0.0,1499.0,-6075.0,-10731.0,-10685.0,13.0,21.0,42.0,-5.0,25.0,20.0,19.0,16.0,2.178518533706665
444,30.0,-22.0,-55.0,0.0,1499.0,-6075.0,-10731.0,-10685.0,-18.0,-19.0,-10.0,19.0,0.0,3.0,-13.0,-4.0,2.18095064163208
445,30.0,-22.0,-55.0,0.0,1499.0,-6075.0,-10731.0,-10685.0,14.0,37.0,77.0,-19.0,11.0,-2.0,-2.0,16.0,2.1894009113311768
446,57.0,-44.0,-115.0,0.0,1491.0,-6068.0,-10740.0,-10680.0,14.0,37.0,77.0,-19.0,11.0,-2.0,-2.0,16.0,2.196744203567505
447,57.0,-44.0,-115.0,0.0,1491.0,-6068.0,-10740.0,-10680.0,-2.0,-14.0,-58.0,14.0,-18.0,-26.0,-17.0,-15.0,2.204263687133789
448,57.0,-44.0,-115.0,0.0,1491.0,-6068.0,-10740.0,-10680.0,-3.0,-5.0,-7.0,-7.0,43.0,7.0,-2.0,1.0,2.211961507797241
449,144.0,10.0,-104.0,0.0,1482.0,-6049.0,-10770.0,-10663.0,-3.0,-5.0,-7.0,-7.0,43.0,7.0,-2.0,1.0,2.2200822830200195
450,144.0,10.0,-104.0,0.0,1482.0,-6049.0,-10770.0,-10663.0,-3.0,-23.0,-18.0,0.0,14.0,15.0,7.0,11.0,2.223641872406006
451,144.0,10.0,-104.0,0.0,1482.0,-6049.0,-10770.0,-10663.0,-3.0,-18.0,-64.0,1.0,-17.0,-27.0,9.0,-11.0,2.2347562313079834
452,42.0,21.0,-73.0,0.0,1471.0,-6034.0,-10786.0,-10656.0,-3.0,-18.0,-64.0,1.0,-17.0,-27.0,9.0,-11.0,2.2372405529022217
453,42.0,21.0,-73.0,0.0,1471.0,-6034.0,-10786.0,-10656.0,19.0,13.0,-1.0,-11.0,-30.0,0.0,-10.0,-2.0,2.241748809814453
454,42.0,21.0,-73.0,0.0,1471.0,-6034.0,-10786.0,-10656.0,2.0,0.0,7.0,10.0,-20.0,-3.0,4.0,13.0,2.249587059020996
455,-20.0,18.0,-87.0,0.0,1465.0,-6022.0,-10787.0,-10663.0,2.0,0.0,7.0,10.0,-20.0,-3.0,4.0,13.0,2.257155418395996
456,-20.0,18.0,-87.0,0.0,1465.0,-6022.0,-10787.0,-10663.0,-1.0,15.0,27.0,-19.0,8.0,22.0,5.0,3.0,2.2645301818847656
457,-20.0,18.0,-87.0,0.0,1465.0,-6022.0,-10787.0,-10663.0,-7.0,-10.0,6.0,-5.0,-31.0,16.0,-3.0,-7.0,2.272003650665283
458,70.0,0.0,-152.0,0.0,1459.0,-6008.0,-10800.0,-10659.0,-7.0,-10.0,6.0,-5.0,-31.0,16.0,-3.0,-7.0,2.2800183296203613
459,70.0,0.0,-152.0,0.0,1459.0,-6008.0,-10800.0,-10659.0,-8.0,-5.0,-5.0,0.0,49.0,-1.0,11.0,-11.0,2.2824082374572754
460,70.0,0.0,-152.0,0.0,1459.0,-6008.0,-10800.0,-10659.0,-6.0,-18.0,-43.0,-7.0,-6.0,-29.0,7.0,-12.0,2.2953500747680664
461,75.0,17.0,-154.0,0.0,1448.0,-5987.0,-10819.0,-10652.0,-6.0,-18.0,-43.0,-7.0,-6.0,-29.0,7.0,-12.0,2.3045125007629395
462,75.0,17.0,-154.0,0.0,1448.0,-5987.0,-10819.0,-10652.0,2.0,20.0,68.0,4.0,-15.0,4.0,1.0,12.0,2.3078765869140625
463,75.0,17.0,-154.0,0.0,1448.0,-5987.0,-10819.0,-10652.0,-1.0,-3.0,15.0,-2.0,8.0,-6.0,-18.0,0.0,2.310157060623169
464,-33.0,49.0,-131.0,0.0,1433.0,-5966.0,-10828.0,-10656.0,-1.0,-3.0,15.0,-2.0,8.0,-6.0,-18.0,0.0,2.317101240158081
465,-33.0,49.0,-131.0,0.0,1433.0,-5966.0,-10828.0,-10656.0,-8.0,-24.0,-23.0,-13.0,-14.0,1.0,2.0,-15.0,2.3244099617004395
466,-33.0,49.0,-131.0,0.0,1433.0,-5966.0,-10828.0,-10656.0,24.0,44.0,27.0,3.0,4.0,19.0,17.0,15.0,2.331583023071289
467,-71.0,45.0,-103.0,0.0,1424.0,-5954.0,-10829.0,-10664.0,24.0,44.0,27.0,3.0,4.0,19.0,17.0,15.0,2.339961051940918
468,-71.0,45.0,-103.0,0.0,1424.0,-5954.0,-10829.0,-10664.0,3.0,9.0,-4.0,9.0,-8.0,-21.0,-10.0,8.0,2.342344284057617
469,-71.0,45.0,-103.0,0.0,1424.0,-5954.0,-10829.0,-10664.0,-19.0,-37.0,-48.0,14.0,5.0,-6.0,5.0,-2.0,2.354679822921753
470,21.0,36.0,-139.0,0.0,1420.0,-5939.0,-10838.0,-10664.0,-19.0,-37.0,-48.0,14.0,5.0,-6.0,5.0,-2.0,2.3633832931518555
471,21.0,36.0,-139.0,0.0,1420.0,-5939.0,-10838.0,-10664.0,-1.0,-9.0,-41.0,-3.0,-2.0,-4.0,6.0,-1.0,2.3699581623077393
472,21.0,36.0,-139.0,0.0,1420.0,-5939.0,-10838.0,-10664.0,-1.0,-4.0,-6.0,-2.0,4.0,5.0,-7.0,-3.0,2.372257947921753
473,90.0,59.0,-146.0,0.0,1414.0,-5913.0,-10860.0,-10657.0,-1.0,-4.0,-6.0,-2.0,4.0,5.0,-7.0,-3.0,2.3761816024780273
474,90.0,59.0,-146.0,0.0,1414.0,-5913.0,-10860.0,-10657.0,0.0,6.0,42.0,17.0,6.0,10.0,10.0,11.0,2.3844382762908936
475,90.0,59.0,-146.0,0.0,1414.0,-5913.0,-10860.0,-10657.0,1.0,3.0,-5.0,0.0,4.0,16.0,5.0,2.0,2.3917722702026367
476,21.0,65.0,-114.0,0.0,1407.0,-5892.0,-10872.0,-10657.0,1.0,3.0,-5.0,0.0,4.0,16.0,5.0,2.0,2.400261402130127
477,21.0,65.0,-114.0,0.0,1407.0,-5892.0,-10872.0,-10657.0,2.0,10.0,-18.0,-4.0,-14.0,1.0,0.0,10.0,2.402693271636963
478,21.0,65.0,-114.0,0.0,1407.0,-5892.0,-10872.0,-10657.0,3.0,6.0,10.0,5.0,1.0,5.0,-13.0,-17.0,2.4148366451263428
479,-32.0,54.0,-78.0,0.0,1405.0,-5882.0,-10876.0,-10659.0,3.0,6.0,10.0,5.0,1.0,5.0,-13.0,-17.0,2.4240005016326904
480,-32.0,54.0,-78.0,0.0,1405.0,-5882.0,-10876.0,-10659.0,-7.0,-4.0,5.0,1.0,-5.0,-9.0,-10.0,-9.0,2.4274864196777344
481,-32.0,54.0,-78.0,0.0,1405.0,-5882.0,-10876.0,-10659.0,6.0,4.0,-18.0,-8.0,12.0,6.0,4.0,-4.0,2.437422037124634
482,-38.0,28.0,-85.0,0.0,1404.0,-5876.0,-10875.0,-10662.0,6.0,4.0,-18.0,-8.0,12.0,6.0,4.0,-4.0,2.439695358276367
483,-38.0,28.0,-85.0,0.0,1404.0,-5876.0,-10875.0,-10662.0,-6.0,-12.0,4.0,4.0,9.0,2.0,-3.0,-8.0,2.44482684135437
484,-38.0,28.0,-85.0,0.0,1404.0,-5876.0,-10875.0,-10662.0,4.0,20.0,45.0,-4.0,-15.0,-4.0,-7.0,4.0,2.4520020484924316
485,33.0,25.0,-97.0,0.0,1399.0,-5864.0,-10888.0,-10657.0,4.0,20.0,45.0,-4.0,-15.0,-4.0,-7.0,4.0,2.460446834564209
486,33.0,25.0,-97.0,0.0,1399.0,-5864.0,-10888.0,-10657.0,1.0,18.0,60.0,-9.0,18.0,4.0,18.0,-4.0,2.463522434234619
487,33.0,25.0,-97.0,0.0,1399.0,-5864.0,-10888.0,-10657.0,-12.0,-12.0,-7.0,3.0,-29.0,-12.0,-7.0,-17.0,2.474411725997925
488,3.0,43.0,-68.0,0.0,1395.0,-5852.0,-10895.0,-10657.0,-12.0,-12.0,-7.0,3.0,-29.0,-12.0,-7.0,-17.0,2.483829975128174
489,3.0,43.0,-68.0,0.0,1395.0,-5852.0,-10895.0,-10657.0,7.0,-23.0,-39.0,-10.0,5.0,0.0,1.0,7.0,2.4873740673065186
490,3.0,43.0,-68.0,0.0,1395.0,-5852.0,-10895.0,-10657.0,2.0,-3.0,-38.0,-13.0,8.0,2.0,6.0,3.0,2.4975032806396484
491,14.0,71.0,-26.0,0.0,1400.0,-5841.0,-10901.0,-10656.0,2.0,-3.0,-38.0,-13.0,8.0,2.0,6.0,3.0,2.4998528957366943
492,14.0,71.0,-26.0,0.0,1400.0,-5841.0,-10901.0,-10656.0,-16.0,-9.0,-31.0,-2.0,3.0,-1.0,-5.0,-3.0,2.5045816898345947
493,14.0,71.0,-26.0,0.0,1400.0,-5841.0,-10901.0,-10656.0,8.0,-5.0,-5.0,-1.0,-18.0,-21.0,10.0,13.0,2.5117273330688477
494,-2.0,67.0,0.0,0.0,1409.0,-5837.0,-10903.0,-10655.0,8.0,-5.0,-5.0,-1.0,-18.0,-21.0,10.0,13.0,2.5199742317199707
495,-2.0,67.0,0.0,0.0,1409.0,-5837.0,-10903.0,-10655.0,4.0,3.0,-43.0,-27.0,-10.0,-6.0,-21.0,-6.0,2.5228514671325684
496,-2.0,67.0,0.0,0.0,1409.0,-5837.0,-10903.0,-10655.0,-9.0,-13.0,-9.0,2.0,-1.0,3.0,0.0,6.0,2.534658908843994
497,-9.0,34.0,14.0,0.0,1416.0,-5839.0,-10903.0,-10653.0,-9.0,-13.0,-9.0,2.0,-1.0,3.0,0.0,6.0,2.5424530506134033
498,-9.0,34.0,14.0,0.0,1416.0,-5839.0,-10903.0,-10653.0,-8.0,-9.0,20.0,2.0,-19.0,0.0,22.0,13.0,2.544865131378174
499,-9.0,34.0,14.0,0.0,1416.0,-5839.0,-10903.0,-10653.0,14.0,44.0,53.0,-17.0,7.0,11.0,-10.0,-18.0,2.558624267578125
